##NAMES=Actinolite
##RRUFFID=R040063
##IDEAL CHEMISTRY=Ca_2_(Mg_4.5-2.5_Fe^2+^_0.5-2.5_)Si_8_O_22_(OH)_2_
##LOCALITY=Harford County, Maryland, USA
##OWNER=RRUFF
##SOURCE=University of Arizona Mineral Museum
##DESCRIPTION=Mass of green acicular to bladed crystals associated with chlorite
##STATUS=The identification of this mineral has been confirmed by X-ray diffraction and chemical analysis
##URL=rruff.info/R040063
##MEASURED CHEMISTRY=(Ca_1.90_Na_0.06_Mn_0.04_)_Σ=2_(Mg_4.35_Fe_0.65_)_Σ=5_(Si_7.92_Al_0.08_)_Σ=8_O_22_(OH)_2_
##PIN_ID=S00298
##ORIENTATION=Laser parallel to -a* (-1 0 0). Fiducial mark perpendicular to laser is parallel to b [0 1 0]
62.90300, 160.0000
64.15400, 199.0000
65.40500, 190.0000
66.65500, 205.0000
67.90600, 213.0000
69.15600, 200.0000
70.40600, 185.0000
71.65600, 223.0000
72.90600, 203.0000
74.15500, 224.0000
75.40400, 257.0000
76.65400, 335.0000
77.90200, 337.0000
79.15100, 346.0000
80.39900, 447.0000
81.64800, 486.0000
82.89600, 616.0000
84.14400, 662.0000
85.39100, 751.0000
86.63900, 861.0000
87.88600, 989.0000
89.13300, 1192.000
90.38000, 1430.000
91.62600, 1732.000
92.87300, 1804.000
94.11900, 2015.000
95.36500, 2364.000
96.61100, 2537.000
97.85700, 2799.000
99.10200, 3147.000
100.3470, 3304.000
101.5920, 3531.000
102.8370, 3868.000
104.0820, 4222.000
105.3260, 4498.000
106.5700, 4818.000
107.8140, 4769.000
109.0580, 4831.000
110.3020, 5035.000
111.5450, 5165.000
112.7890, 5305.000
114.0320, 5684.000
115.2740, 5967.000
116.5170, 5978.000
117.7590, 6015.000
119.0020, 6042.000
120.2440, 6090.000
121.4850, 6072.186
122.7270, 6197.000
123.9690, 6037.000
125.2100, 5892.000
126.4510, 5870.000
127.6920, 5943.000
128.9320, 5972.000
130.1730, 5983.929
131.4130, 5954.000
132.6530, 6020.000
133.8930, 6106.000
135.1320, 6123.000
136.3720, 6232.000
137.6110, 6551.000
138.8500, 6686.000
140.0890, 6694.000
141.3270, 6763.000
142.5660, 6559.000
143.8040, 6717.000
145.0420, 6879.000
146.2800, 7127.000
147.5180, 7432.000
148.7550, 7786.000
149.9920, 8247.000
151.2290, 9084.000
152.4660, 9982.000
153.7030, 11135.00
154.9390, 12135.00
156.1760, 12985.00
157.4120, 13820.00
158.6470, 14217.00
159.8830, 14018.00
161.1190, 13537.00
162.3540, 12888.00
163.5890, 12204.00
164.8240, 10930.00
166.0580, 10391.00
167.2930, 10429.00
168.5270, 10871.00
169.7610, 11211.00
170.9950, 12277.00
172.2290, 13249.00
173.4620, 14199.00
174.6960, 15037.00
175.9290, 16043.00
177.1620, 16531.00
178.3940, 16439.00
179.6270, 15661.00
180.8590, 14680.00
182.0910, 13490.00
183.3230, 12211.00
184.5550, 10900.00
185.7860, 10100.00
187.0180, 9494.000
188.2490, 9069.000
189.4800, 8823.000
190.7110, 8628.000
191.9410, 8461.000
193.1710, 8436.000
194.4020, 8402.000
195.6310, 8458.000
196.8610, 8490.000
198.0910, 8747.000
199.3200, 8881.000
200.5490, 9235.000
201.7780, 9678.000
203.0070, 10127.00
204.2360, 10553.00
205.4640, 11256.00
206.6920, 12243.00
207.9200, 13187.00
209.1480, 14600.00
210.3760, 16189.00
211.6030, 18023.00
212.8300, 20469.00
214.0570, 23187.00
215.2840, 26086.00
216.5110, 29704.00
217.7370, 33706.00
218.9630, 37005.00
220.1890, 40771.00
221.4150, 44378.00
222.6410, 46782.00
223.8660, 49373.00
225.0920, 51343.00
226.3170, 52914.00
227.5420, 54117.51
228.7660, 54791.00
229.9910, 54662.00
231.2150, 53741.00
232.4390, 51818.00
233.6630, 48484.00
234.8870, 44088.00
236.1100, 39277.00
237.3340, 34472.00
238.5570, 29854.00
239.7800, 26707.00
241.0020, 24425.00
242.2250, 22900.00
243.4470, 22311.00
244.6690, 21972.00
245.8910, 22008.00
247.1130, 22172.00
248.3350, 22624.00
249.5560, 22147.00
250.7770, 21418.00
251.9980, 20565.00
253.2190, 19293.00
254.4400, 17816.00
255.6600, 16646.00
256.8800, 15171.00
258.1010, 14114.00
259.3200, 13239.00
260.5400, 12308.00
261.7590, 11527.00
262.9790, 10801.00
264.1980, 10311.00
265.4170, 9864.000
266.6350, 9580.000
267.8540, 9164.000
269.0720, 8918.000
270.2900, 8715.000
271.5080, 8514.000
272.7260, 8401.000
273.9440, 8201.000
275.1610, 8098.647
276.3780, 8048.000
277.5950, 7904.000
278.8120, 7875.000
280.0280, 7812.000
281.2450, 7872.000
282.4610, 7824.000
283.6770, 7742.000
284.8930, 7901.000
286.1080, 8003.000
287.3240, 8060.000
288.5390, 8029.000
289.7540, 8214.000
290.9690, 8252.000
292.1840, 8371.000
293.3980, 8715.000
294.6120, 8893.000
295.8260, 9288.000
297.0400, 9432.000
298.2540, 9715.000
299.4680, 10190.00
300.6810, 10280.00
301.8940, 10351.00
303.1070, 10566.00
304.3200, 10548.00
305.5320, 10497.00
306.7450, 10449.00
307.9570, 10166.00
309.1690, 9849.000
310.3810, 9777.000
311.5920, 9512.000
312.8040, 9270.000
314.0150, 9098.000
315.2260, 9025.000
316.4370, 8746.000
317.6480, 8460.000
318.8580, 8491.000
320.0680, 8291.000
321.2780, 8217.000
322.4880, 8148.000
323.6980, 8118.000
324.9080, 8105.000
326.1170, 7971.000
327.3260, 8099.000
328.5350, 8031.000
329.7440, 8138.000
330.9520, 8134.000
332.1610, 8172.000
333.3690, 8406.000
334.5770, 8495.000
335.7850, 8627.000
336.9930, 8859.000
338.2000, 9072.473
339.4070, 9402.000
340.6140, 9688.000
341.8210, 10099.00
343.0280, 10558.00
344.2340, 11102.00
345.4410, 11685.00
346.6470, 12124.00
347.8530, 12734.00
349.0590, 13166.00
350.2640, 13676.00
351.4700, 13814.00
352.6750, 14208.00
353.8800, 14852.00
355.0850, 14036.00
356.2890, 13749.00
357.4940, 14078.00
358.6980, 14317.00
359.9020, 15027.00
361.1060, 15910.00
362.3100, 17111.00
363.5130, 18735.00
364.7160, 20559.00
365.9200, 22360.00
367.1220, 24607.00
368.3250, 24947.00
369.5280, 25470.00
370.7300, 25441.00
371.9320, 24802.00
373.1340, 23204.00
374.3360, 21225.00
375.5380, 19709.00
376.7390, 18256.00
377.9410, 17202.00
379.1420, 16608.00
380.3430, 16558.00
381.5430, 16708.00
382.7440, 17579.00
383.9440, 18676.00
385.1440, 20034.00
386.3440, 22097.00
387.5440, 24196.00
388.7440, 26483.00
389.9430, 28755.00
391.1420, 30301.00
392.3410, 31083.00
393.5400, 31406.00
394.7390, 30637.00
395.9370, 28834.00
397.1350, 26685.00
398.3340, 24110.00
399.5310, 21647.00
400.7290, 19947.00
401.9270, 18539.00
403.1240, 17714.00
404.3210, 17590.00
405.5180, 17923.00
406.7150, 18455.00
407.9120, 19457.00
409.1080, 20474.00
410.3040, 21783.00
411.5000, 23492.00
412.6960, 24465.00
413.8920, 25257.00
415.0870, 25787.00
416.2830, 25838.00
417.4780, 25169.00
418.6730, 23931.00
419.8680, 22620.00
421.0620, 20702.00
422.2570, 18905.00
423.4510, 17433.00
424.6450, 16176.00
425.8390, 14974.00
427.0320, 14249.00
428.2260, 13919.00
429.4190, 13781.00
430.6120, 13921.00
431.8050, 14101.00
432.9980, 14518.00
434.1900, 15054.00
435.3830, 15310.00
436.5750, 15159.00
437.7670, 14825.00
438.9590, 14278.00
440.1500, 13328.00
441.3420, 12249.00
442.5330, 11305.00
443.7240, 10491.00
444.9150, 9784.000
446.1060, 9262.000
447.2960, 8886.000
448.4870, 8729.000
449.6770, 8517.000
450.8670, 8186.000
452.0570, 8197.000
453.2460, 8089.000
454.4360, 8033.000
455.6250, 8069.000
456.8140, 7959.000
458.0030, 7940.000
459.1920, 7987.000
460.3800, 7925.000
461.5690, 7922.000
462.7570, 8094.000
463.9450, 7998.000
465.1330, 7995.000
466.3200, 7876.000
467.5080, 7994.000
468.6950, 7853.000
469.8820, 7938.000
471.0690, 7852.000
472.2560, 7826.000
473.4420, 7860.000
474.6280, 7899.000
475.8150, 7839.000
477.0010, 7874.000
478.1860, 7953.000
479.3720, 8080.000
480.5570, 8140.000
481.7430, 8222.000
482.9280, 8346.000
484.1130, 8454.000
485.2970, 8434.000
486.4820, 8467.000
487.6660, 8400.000
488.8500, 8346.000
490.0340, 8222.000
491.2180, 8129.000
492.4020, 7947.000
493.5850, 7892.000
494.7680, 7854.000
495.9520, 7913.000
497.1340, 7948.681
498.3170, 8084.000
499.5000, 8149.000
500.6820, 8282.923
501.8640, 8338.000
503.0460, 8580.000
504.2280, 8803.000
505.4100, 8991.000
506.5910, 9350.000
507.7720, 9691.313
508.9530, 10098.00
510.1340, 10552.00
511.3150, 11018.00
512.4960, 11530.00
513.6760, 12130.00
514.8560, 12805.00
516.0360, 13410.00
517.2160, 13884.00
518.3960, 14419.00
519.5750, 14773.00
520.7550, 15030.00
521.9340, 15381.00
523.1130, 15513.00
524.2910, 15698.00
525.4700, 15869.00
526.6480, 15766.00
527.8270, 15699.00
529.0050, 15661.00
530.1820, 15203.00
531.3600, 14562.00
532.5380, 13774.00
533.7150, 13142.00
534.8920, 12433.00
536.0690, 11835.00
537.2460, 11222.00
538.4220, 10754.00
539.5990, 10584.00
540.7750, 10215.00
541.9510, 10010.00
543.1270, 9818.000
544.3030, 9575.000
545.4780, 9430.000
546.6540, 9513.000
547.8290, 9271.000
549.0040, 9229.000
550.1790, 8970.000
551.3530, 8960.000
552.5280, 8845.000
553.7020, 8915.000
554.8760, 8740.000
556.0500, 8692.000
557.2240, 8613.000
558.3970, 8545.000
559.5710, 8580.000
560.7440, 8493.000
561.9170, 8502.000
563.0900, 8489.000
564.2630, 8550.000
565.4350, 8521.000
566.6080, 8569.000
567.7800, 8590.000
568.9520, 8569.000
570.1240, 8565.000
571.2950, 8485.000
572.4670, 8571.000
573.6380, 8572.000
574.8090, 8709.000
575.9800, 8541.000
577.1510, 8610.000
578.3210, 8611.000
579.4920, 8628.000
580.6620, 8509.000
581.8320, 8468.000
583.0020, 8479.000
584.1710, 8200.000
585.3410, 8143.000
586.5100, 8012.000
587.6790, 7977.000
588.8480, 7826.000
590.0170, 7638.000
591.1860, 7481.000
592.3540, 7415.000
593.5220, 7276.000
594.6910, 7205.000
595.8590, 7237.000
597.0260, 7277.000
598.1940, 7074.000
599.3610, 6962.000
600.5280, 7002.000
601.6950, 6998.000
602.8620, 7078.000
604.0290, 7024.000
605.1960, 7004.000
606.3620, 7114.000
607.5280, 6971.000
608.6940, 7081.000
609.8600, 6989.000
611.0260, 7202.000
612.1910, 7072.000
613.3560, 7129.000
614.5210, 7134.000
615.6860, 7254.000
616.8510, 7357.000
618.0160, 7311.000
619.1800, 7391.000
620.3440, 7419.000
621.5080, 7485.000
622.6720, 7545.000
623.8360, 7568.000
625.0000, 7635.000
626.1630, 7747.000
627.3260, 7760.000
628.4890, 7925.000
629.6520, 8043.000
630.8150, 7865.000
631.9770, 8126.000
633.1390, 8105.000
634.3020, 8266.000
635.4640, 8414.000
636.6250, 8603.000
637.7870, 8778.000
638.9480, 8924.000
640.1100, 9195.000
641.2710, 9585.000
642.4320, 9787.000
643.5930, 10326.00
644.7530, 10469.00
645.9140, 11016.00
647.0740, 11486.00
648.2340, 11934.00
649.3940, 12869.00
650.5530, 13460.00
651.7130, 14097.00
652.8720, 14709.00
654.0320, 15679.00
655.1910, 16711.00
656.3490, 17844.00
657.5080, 19104.00
658.6670, 20807.00
659.8250, 22909.00
660.9830, 25641.00
662.1410, 29531.00
663.2990, 33898.00
664.4570, 40497.00
665.6140, 47633.00
666.7710, 56927.00
667.9280, 66927.00
669.0850, 77512.00
670.2420, 87746.00
671.3990, 96050.00
672.5550, 101126.0
673.7110, 101256.0
674.8680, 97294.00
676.0230, 88626.00
677.1790, 77774.00
678.3350, 65738.00
679.4900, 54764.00
680.6450, 45471.00
681.8000, 37591.00
682.9550, 31650.00
684.1100, 26944.00
685.2650, 23485.00
686.4190, 20816.00
687.5730, 18610.00
688.7270, 17044.00
689.8810, 15563.00
691.0350, 14778.00
692.1880, 13824.00
693.3420, 13213.00
694.4950, 12449.00
695.6480, 11946.00
696.8010, 11569.00
697.9530, 11083.00
699.1060, 10787.00
700.2580, 10480.00
701.4100, 10186.00
702.5620, 10049.00
703.7140, 9835.000
704.8660, 9746.000
706.0170, 9494.000
707.1680, 9428.000
708.3200, 9313.000
709.4700, 9182.000
710.6210, 9186.000
711.7720, 9068.218
712.9220, 9061.134
714.0730, 8893.000
715.2230, 9031.000
716.3730, 8892.000
717.5220, 8838.000
718.6720, 8812.000
719.8210, 8704.000
720.9710, 8646.000
722.1200, 8647.000
723.2690, 8635.949
724.4170, 8763.000
725.5660, 8748.000
726.7140, 8711.000
727.8630, 8858.000
729.0110, 8833.000
730.1590, 8827.000
731.3060, 8957.000
732.4540, 9048.000
733.6010, 9125.000
734.7480, 9344.000
735.8950, 9518.000
737.0420, 9624.000
738.1890, 10028.00
739.3360, 10271.00
740.4820, 10282.00
741.6280, 10666.00
742.7740, 10997.00
743.9200, 11354.00
745.0660, 11564.00
746.2110, 11990.00
747.3570, 12228.00
748.5020, 12684.00
749.6470, 12653.00
750.7920, 12497.00
751.9360, 12023.00
753.0810, 11590.00
754.2250, 11149.00
755.3690, 10513.00
756.5130, 10206.00
757.6570, 9825.000
758.8010, 9620.000
759.9440, 9374.000
761.0880, 9093.000
762.2310, 8935.000
763.3740, 9018.000
764.5170, 8740.000
765.6590, 8906.000
766.8020, 8882.000
767.9440, 8796.000
769.0860, 8680.000
770.2280, 8713.000
771.3700, 8775.000
772.5120, 8488.000
773.6530, 8526.000
774.7950, 8602.000
775.9360, 8555.000
777.0770, 8530.000
778.2180, 8448.000
779.3580, 8449.000
780.4990, 8381.000
781.6390, 8418.000
782.7790, 8310.000
783.9190, 8381.000
785.0590, 8265.000
786.1990, 8261.000
787.3380, 8236.000
788.4780, 8168.000
789.6170, 8147.000
790.7560, 8186.000
791.8950, 8144.000
793.0330, 8068.000
794.1720, 8150.000
795.3100, 8139.000
796.4480, 8095.000
797.5860, 8119.000
798.7240, 7997.000
799.8620, 8049.000
800.9990, 7904.000
802.1360, 7998.000
803.2740, 8060.000
804.4110, 8090.000
805.5470, 8118.000
806.6840, 8091.705
807.8210, 8065.000
808.9570, 8050.000
810.0930, 8043.000
811.2290, 8052.287
812.3650, 8093.000
813.5010, 8085.000
814.6360, 8084.000
815.7710, 8086.358
816.9070, 8060.000
818.0420, 8147.000
819.1760, 8129.000
820.3110, 8221.000
821.4460, 8190.000
822.5800, 8195.227
823.7140, 8150.000
824.8480, 8174.000
825.9820, 8236.000
827.1160, 8248.934
828.2490, 8264.405
829.3820, 8222.000
830.5160, 8277.000
831.6490, 8237.000
832.7820, 8249.000
833.9140, 8101.000
835.0470, 8342.000
836.1790, 8276.000
837.3110, 8419.000
838.4430, 8377.000
839.5750, 8506.000
840.7070, 8339.000
841.8380, 8468.000
842.9700, 8635.000
844.1010, 8865.000
845.2320, 8771.096
846.3630, 8825.000
847.4940, 8608.000
848.6240, 8734.000
849.7550, 8711.000
850.8850, 8768.000
852.0150, 8829.000
853.1450, 8810.000
854.2750, 8778.000
855.4040, 8715.000
856.5340, 8769.000
857.6630, 8944.000
858.7920, 8904.000
859.9210, 9058.000
861.0500, 8945.000
862.1780, 8943.000
863.3070, 8945.000
864.4350, 9007.000
865.5630, 9004.142
866.6910, 8899.000
867.8190, 9025.000
868.9460, 8984.000
870.0740, 8948.000
871.2010, 9090.000
872.3280, 8969.000
873.4550, 9039.000
874.5820, 8991.000
875.7090, 9107.000
876.8350, 9264.000
877.9610, 9195.000
879.0880, 9267.000
880.2140, 9154.000
881.3390, 9246.000
882.4650, 9249.000
883.5910, 9254.000
884.7160, 9350.000
885.8410, 9387.000
886.9660, 9356.000
888.0910, 9453.000
889.2160, 9527.000
890.3400, 9522.000
891.4650, 9562.000
892.5890, 9712.000
893.7130, 9633.000
894.8370, 9719.000
895.9600, 9772.000
897.0840, 9726.000
898.2070, 9808.000
899.3310, 9940.000
900.4540, 10011.00
901.5770, 10120.99
902.6990, 10203.10
903.8220, 10314.00
904.9440, 10404.00
906.0670, 10479.00
907.1890, 10677.00
908.3110, 10723.00
909.4320, 10869.00
910.5540, 11110.00
911.6750, 11255.03
912.7970, 11377.00
913.9180, 11710.00
915.0390, 11973.00
916.1600, 12265.00
917.2800, 12688.00
918.4010, 13144.00
919.5210, 13465.00
920.6410, 14076.00
921.7610, 14963.00
922.8810, 15872.00
924.0010, 17044.00
925.1200, 18126.00
926.2400, 19321.00
927.3590, 20138.00
928.4780, 21082.00
929.5970, 21547.00
930.7160, 21581.00
931.8340, 21164.00
932.9530, 20166.00
934.0710, 19167.00
935.1890, 17809.00
936.3070, 16702.00
937.4250, 15685.00
938.5420, 15003.00
939.6600, 14432.00
940.7770, 14179.00
941.8940, 14191.00
943.0110, 14059.00
944.1280, 14287.00
945.2450, 14474.00
946.3610, 14473.00
947.4770, 14402.00
948.5940, 14207.02
949.7100, 14232.00
950.8250, 13523.00
951.9410, 13360.00
953.0570, 12885.00
954.1720, 12617.00
955.2870, 12420.00
956.4020, 12093.00
957.5170, 11859.00
958.6320, 11663.00
959.7470, 11549.00
960.8610, 11342.00
961.9750, 11333.00
963.0890, 11268.00
964.2030, 11204.00
965.3170, 11126.00
966.4310, 11217.00
967.5440, 11138.00
968.6570, 10951.00
969.7710, 11136.00
970.8840, 11082.00
971.9960, 10982.00
973.1090, 11132.00
974.2220, 11234.00
975.3340, 11167.00
976.4460, 11213.41
977.5580, 11250.31
978.6700, 11144.00
979.7820, 11290.00
980.8930, 11290.00
982.0050, 11239.00
983.1160, 11377.00
984.2270, 11487.00
985.3380, 11483.00
986.4490, 11472.00
987.5600, 11562.00
988.6700, 11468.00
989.7800, 11623.00
990.8900, 11598.00
992.0000, 11701.00
993.1100, 11824.00
994.2200, 11782.00
995.3300, 12041.00
996.4390, 12122.00
997.5480, 12395.00
998.6570, 12521.00
999.7660, 12777.00
1000.875, 12957.00
1001.983, 13275.00
1003.092, 13380.00
1004.200, 13797.00
1005.308, 13859.00
1006.416, 14155.00
1007.524, 14354.00
1008.632, 14580.00
1009.739, 14928.00
1010.846, 15195.00
1011.954, 15607.00
1013.061, 15730.00
1014.167, 16377.00
1015.274, 16828.00
1016.381, 17496.00
1017.487, 18492.00
1018.593, 19306.00
1019.699, 20621.00
1020.805, 22334.00
1021.911, 24571.00
1023.017, 26888.00
1024.122, 29694.00
1025.227, 32197.00
1026.333, 35032.00
1027.438, 36922.00
1028.542, 37740.00
1029.647, 37326.00
1030.752, 35622.00
1031.856, 33025.00
1032.960, 30112.00
1034.064, 26865.00
1035.168, 24238.00
1036.272, 22256.00
1037.375, 20618.00
1038.479, 19149.00
1039.582, 18267.00
1040.685, 17594.00
1041.788, 17381.00
1042.891, 17061.00
1043.994, 16871.00
1045.096, 17097.00
1046.198, 17330.79
1047.301, 17900.00
1048.403, 18519.00
1049.505, 19494.00
1050.606, 20598.00
1051.708, 21916.00
1052.809, 23168.00
1053.911, 24600.00
1055.012, 26117.00
1056.113, 27084.00
1057.213, 27822.00
1058.314, 27923.00
1059.414, 27579.00
1060.515, 26766.00
1061.615, 25595.00
1062.715, 24760.00
1063.815, 23790.00
1064.915, 23432.00
1066.014, 23022.00
1067.114, 22970.00
1068.213, 22610.00
1069.312, 21715.00
1070.411, 20632.00
1071.510, 19571.00
1072.608, 18198.00
1073.707, 17067.00
1074.805, 16055.00
1075.903, 15262.00
1077.001, 14514.00
1078.099, 13915.00
1079.197, 13746.00
1080.294, 13253.00
1081.392, 12967.00
1082.489, 12614.00
1083.586, 12419.00
1084.683, 12032.00
1085.780, 11986.00
1086.877, 11724.00
1087.973, 11690.00
1089.069, 11369.00
1090.166, 11314.00
1091.262, 11222.00
1092.358, 11069.00
1093.453, 11157.00
1094.549, 10983.00
1095.644, 11068.00
1096.739, 10957.00
1097.835, 10902.00
1098.930, 11096.00
1100.024, 11049.00
1101.119, 10855.00
1102.214, 10963.00
1103.308, 10930.00
1104.402, 11013.00
1105.496, 10905.00
1106.590, 11002.00
1107.684, 10976.00
1108.777, 10786.00
1109.871, 10857.52
1110.964, 10792.00
1112.057, 10811.00
1113.150, 10847.00
1114.243, 10805.00
1115.336, 10751.00
1116.428, 10898.00
1117.521, 10830.00
1118.613, 10866.00
1119.705, 11153.00
1120.797, 11136.00
1121.889, 11243.00
1122.980, 11047.00
1124.072, 11045.00
1125.163, 11045.00
1126.254, 10774.00
1127.345, 10587.00
1128.436, 10572.78
1129.527, 10428.40
1130.617, 10493.00
1131.708, 10349.00
1132.798, 10305.00
1133.888, 10297.00
1134.978, 10208.00
1136.068, 10192.00
1137.157, 10041.00
1138.247, 10117.00
1139.336, 10193.00
1140.425, 10012.00
1141.514, 10096.00
1142.603, 10052.00
1143.692, 9965.000
1144.781, 10020.00
1145.869, 10023.00
1146.957, 9882.000
1148.046, 9835.000
1149.134, 9867.000
1150.221, 9814.000
1151.309, 9792.980
1152.397, 9795.167
1153.484, 9735.000
1154.571, 9767.000
1155.658, 9760.000
1156.745, 9717.000
1157.832, 9794.000
1158.919, 9761.000
1160.005, 9667.000
1161.092, 9745.000
1162.178, 9595.000
1163.264, 9691.000
1164.350, 9698.000
1165.435, 9882.000
1166.521, 9669.000
1167.606, 9620.000
1168.692, 9644.000
1169.777, 9765.000
1170.862, 9626.000
1171.947, 9579.000
1173.031, 9670.000
1174.116, 9623.000
1175.200, 9611.000
1176.285, 9680.000
1177.369, 9587.000
1178.453, 9612.000
1179.536, 9532.000
1180.620, 9610.000
1181.704, 9659.000
1182.787, 9672.000
1183.870, 9561.000
1184.953, 9632.000
1186.036, 9680.000
1187.119, 9552.000
1188.201, 9801.000
1189.284, 9672.000
1190.366, 9692.000
1191.448, 9700.000
1192.530, 9593.000
1193.612, 9577.000
1194.694, 9778.000
1195.775, 9695.000
1196.857, 9699.000
1197.938, 9585.000
1199.019, 9616.000
1200.100, 9613.000
1201.181, 9800.000
1202.262, 9701.000
1203.342, 9722.000
1204.423, 9795.000
1205.503, 9791.000
1206.583, 9679.000
1207.663, 9704.000
1208.743, 9739.000
1209.822, 9856.000
1210.902, 9899.000
1211.981, 9822.000
1213.060, 9908.000
1214.139, 9991.000
1215.218, 9802.000
1216.297, 9894.000
1217.376, 9859.000
1218.454, 9840.000
1219.532, 9891.000
1220.611, 9863.000
1221.689, 9813.000
1222.766, 9953.000
1223.844, 9835.000
1224.922, 10012.00
1225.999, 9903.000
1227.076, 9895.000
1228.154, 10078.00
1229.231, 9926.000
1230.307, 10015.00
1231.384, 9991.000
1232.461, 9999.000
1233.537, 9974.000
1234.613, 10038.00
1235.689, 9948.000
1236.765, 9992.000
1237.841, 10036.00
1238.917, 9948.000
1239.992, 10191.00
1241.068, 9987.000
1242.143, 10094.00
1243.218, 9958.000
1244.293, 10099.00
1245.368, 10081.00
1246.442, 10146.00
1247.517, 10181.45
1248.591, 10204.00
1249.666, 10197.00
1250.740, 10280.00
1251.813, 10241.00
1252.887, 10167.00
1253.961, 10189.00
1255.034, 10233.00
1256.108, 10255.00
1257.181, 10275.00
1258.254, 10288.61
1259.327, 10297.92
1260.400, 10294.00
1261.472, 10310.00
1262.545, 10306.00
1263.617, 10316.00
1264.689, 10377.00
1265.761, 10389.00
1266.833, 10429.00
1267.905, 10529.00
1268.976, 10568.00
1270.048, 10466.00
1271.119, 10541.00
1272.190, 10347.00
1273.261, 10460.00
1274.332, 10736.00
1275.403, 10486.00
1276.473, 10600.00
1277.544, 10536.00
1278.614, 10602.00
1279.684, 10665.00
1280.754, 10477.00
1281.824, 10672.00
1282.894, 10617.00
1283.963, 10603.00
1285.033, 10566.00
1286.102, 10544.00
1287.171, 10584.00
1288.240, 10638.00
1289.309, 10654.50
1290.377, 10671.14
1291.446, 10724.66
1292.514, 10759.00
1293.583, 10775.23
1294.651, 10719.03
1295.719, 10756.34
1296.787, 10756.18
1297.854, 10754.47
1298.922, 10804.95
1299.989, 10759.27
1301.056, 10808.91
1302.123, 10820.51
1303.190, 10849.51
1304.257, 10840.81
1305.324, 10843.75
1306.390, 10884.41
1307.457, 10904.19
1308.523, 10891.13
1309.589, 10921.24
1310.655, 10874.23
1311.721, 10894.89
1312.787, 10944.74
1313.852, 10933.58
1314.917, 10964.36
1315.983, 10979.17
1317.048, 10921.37
1318.113, 10989.84
1319.178, 11003.71
1320.242, 10976.00
1321.307, 10896.00
1322.371, 10907.28
1323.435, 10989.00
1324.499, 10923.00
1325.563, 10974.00
1326.627, 11094.00
1327.691, 11009.00
1328.754, 11089.00
1329.818, 11066.00
1330.881, 11005.00
1331.944, 11060.00
1333.007, 10970.00
1334.070, 11066.00
1335.132, 11039.00
1336.195, 11020.00
1337.257, 11042.00
1338.320, 11112.00
1339.382, 11106.00
1340.444, 11191.00
1341.505, 11159.00
1342.567, 11076.00
1343.629, 11126.00
1344.690, 11194.00
1345.751, 11233.00
1346.812, 11132.00
1347.873, 11204.00
1348.934, 11173.00
1349.995, 11091.00
1351.055, 11282.00
1352.116, 11178.14
1353.176, 11438.00
1354.236, 11153.00
1355.296, 11197.00
1356.356, 11233.00
1357.416, 11174.00
1358.475, 11268.00
1359.535, 11225.00
1360.594, 11100.00
1361.653, 11230.00
1362.712, 11190.00
1363.771, 11198.17
1364.829, 11415.00
1365.888, 11256.00
1366.946, 11257.00
1368.005, 11345.00
1369.063, 11270.00
1370.121, 11228.00
1371.179, 11300.00
1372.236, 11373.00
1373.294, 11335.00
1374.351, 11313.00
1375.409, 11337.88
1376.466, 11366.00
1377.523, 11349.00
1378.580, 11365.00
1379.636, 11388.00
1380.693, 11397.97
1381.749, 11406.00
1382.806, 11441.00
1383.862, 11440.00
1384.918, 11454.00
1385.974, 11382.00
1387.029, 11371.00
1388.085, 11374.00
1389.140, 11449.00
1390.196, 11441.95
1391.251, 11459.05
1392.306, 11484.00
1393.361, 11441.00
1394.416, 11448.00
1395.470, 11386.00
1396.525, 11409.90
1397.579, 11407.75
1398.633, 11442.00
1399.687, 11468.00
1400.741, 11480.00
1401.795, 11578.00
1402.849, 11448.00
1403.902, 11597.00
1404.955, 11488.00
1406.009, 11574.00
1407.062, 11698.00
1408.115, 11705.00
1409.168, 11629.00
1410.220, 11536.00
1411.273, 11536.00
1412.325, 11712.00
1413.377, 11606.00
1414.429, 11670.00
1415.481, 11730.00
1416.533, 11630.00
1417.585, 11642.00
1418.636, 11829.00
1419.688, 11713.00
1420.739, 11795.00
1421.790, 11817.00
1422.841, 11609.00
1423.892, 11786.00
1424.943, 11677.00
1425.993, 11828.00
1427.044, 11943.00
1428.094, 11752.00
1429.144, 11880.00
1430.194, 11829.00
1431.244, 11951.00
1432.294, 11922.00
1433.344, 11888.00
1434.393, 11971.00
1435.442, 11946.00
1436.492, 12003.00
1437.541, 12151.00
1438.590, 12017.00
1439.638, 12260.00
1440.687, 12216.00
1441.735, 12158.00
1442.784, 12209.00
1443.832, 12196.00
1444.880, 12248.00
1445.928, 12078.00
1446.976, 12228.00
1448.024, 12411.00
1449.071, 12239.00
1450.119, 12363.00
1451.166, 12309.00
1452.213, 12304.00
1453.260, 12383.00
1454.307, 12438.00
1455.353, 12413.00
1456.400, 12449.91
1457.447, 12305.00
1458.493, 12419.00
1459.539, 12462.00
1460.585, 12397.00
1461.631, 12479.00
1462.677, 12436.00
1463.722, 12474.00
1464.768, 12345.00
1465.813, 12354.33
1466.858, 12436.00
1467.903, 12301.00
1468.948, 12311.00
1469.993, 12298.00
1471.038, 12216.00
1472.082, 12295.18
1473.127, 12325.00
1474.171, 12400.29
1475.215, 12449.52
1476.259, 12479.59
1477.303, 12491.54
1478.346, 12431.05
1479.390, 12464.09
1480.433, 12459.64
1481.477, 12453.67
1482.520, 12499.87
1483.563, 12449.91
1484.606, 12495.28
1485.649, 12502.60
1486.691, 12527.33
1487.734, 12514.35
1488.776, 12513.02
1489.818, 12549.41
1490.860, 12564.91
1491.902, 12547.58
1492.944, 12573.42
1493.986, 12522.15
1495.027, 12538.53
1496.069, 12528.00
1497.110, 12699.00
1498.151, 12681.00
1499.192, 12669.00
1500.233, 12639.00
1501.273, 12524.00
1502.314, 12608.00
1503.354, 12595.00
1504.395, 12539.00
1505.435, 12816.00
1506.475, 12697.00
1507.515, 12764.00
1508.555, 12680.00
1509.594, 12722.00
1510.634, 12719.24
1511.673, 12715.00
1512.712, 12725.00
1513.751, 12849.00
1514.790, 12858.00
1515.829, 12994.00
1516.868, 12921.00
1517.906, 13008.00
1518.945, 12862.00
1519.983, 12828.00
1521.021, 13027.00
1522.059, 12880.00
1523.097, 12987.00
1524.135, 12979.00
1525.172, 13156.00
1526.210, 13054.00
1527.247, 13034.00
1528.284, 13241.00
1529.321, 13067.00
1530.358, 12992.00
1531.395, 13131.00
1532.432, 12932.00
1533.468, 13196.00
1534.505, 13261.00
1535.541, 13148.00
1536.577, 13164.00
1537.613, 13133.00
1538.649, 13364.00
1539.685, 13211.00
1540.720, 13216.00
1541.756, 13383.00
1542.791, 13181.00
1543.826, 13234.00
1544.861, 13392.00
1545.896, 13370.00
1546.931, 13389.00
1547.966, 13401.00
1549.000, 13403.00
1550.034, 13377.00
1551.069, 13553.00
1552.103, 13575.00
1553.137, 13455.00
1554.171, 13659.00
1555.204, 13698.00
1556.238, 13496.00
1557.271, 13488.00
1558.305, 13635.00
1559.338, 13384.00
1560.371, 13455.00
1561.404, 13436.00
1562.437, 13504.00
1563.469, 13649.00
1564.502, 13741.00
1565.534, 13650.00
1566.566, 13477.00
1567.599, 13622.00
1568.631, 13587.00
1569.662, 13582.00
1570.694, 13598.00
1571.726, 13528.00
1572.757, 13664.00
1573.789, 13726.00
1574.820, 13724.00
1575.851, 13723.00
1576.882, 13644.00
1577.912, 13780.00
1578.943, 13642.00
1579.974, 13750.00
##END=



