##NAMES=Akermanite
##RRUFFID=R061100
##IDEAL CHEMISTRY=Ca_2_MgSi_2_O_7_
##LOCALITY=Lago de Vico, Viterbo, Italy
##OWNER=Michael Scott
##SOURCE=Michael Scott
##DESCRIPTION=Colorless to white short prismatic crystals
##STATUS=The identification of this mineral has been confirmed by X-ray diffraction and chemical analysis
##URL=rruff.info/R061100
##MEASURED CHEMISTRY=(Ca_1.80_Na_0.20_)_Σ=2_(Mg_0.58_Al_0.38_Fe_0.04_)_Σ=1_(Si_1.82_Al_0.18_)_Σ=2_O_7_
##PIN_ID=M00347
##ORIENTATION=Laser parallel to c* (0 0 1). Fiducial mark perpendicular to laser is parallel to a [1 0 0]
209.1530, 0.0000000E+00
210.3800, 2.859375
211.6080, 45.79688
212.8350, 0.6171880
214.0620, 244.5059
215.2880, 185.3242
216.5150, 591.0352
217.7410, 618.8047
218.9680, 803.7207
220.1940, 884.9648
221.4190, 885.1133
222.6450, 1067.922
223.8700, 1318.141
225.0960, 1362.014
226.3210, 1597.850
227.5450, 1543.242
228.7700, 1542.932
229.9940, 1708.908
231.2190, 1526.340
232.4430, 1496.449
233.6660, 1492.252
234.8900, 1254.719
236.1140, 1320.682
237.3370, 1316.953
238.5600, 1110.586
239.7830, 1092.977
241.0050, 783.6758
242.2280, 885.8086
243.4500, 703.4844
244.6720, 734.6777
245.8940, 502.9805
247.1160, 487.3086
248.3370, 601.6758
249.5580, 413.1074
250.7790, 226.3301
252.0000, 281.5996
253.2210, 235.7285
254.4410, 255.9883
255.6620, 393.1133
256.8820, 304.3965
258.1020, 385.9395
259.3210, 460.7812
260.5410, 345.0117
261.7600, 578.9746
262.9790, 217.3984
264.1980, 138.0547
265.4170, 175.9160
266.6360, 273.9961
267.8540, 181.3457
269.0720, 95.00195
270.2900, 121.9941
271.5080, 2.738281
272.7260, 77.48633
273.9430, 32.14258
275.1600, 4.029297
276.3770, 400.1836
277.5940, 40.78906
278.8100, 215.3770
280.0270, 27.34180
281.2430, 222.2129
282.4590, 275.2070
283.6750, 296.2070
284.8910, 388.9590
286.1060, 425.6387
287.3210, 400.1328
288.5360, 528.1445
289.7510, 513.1406
290.9660, 625.9941
292.1800, 759.0410
293.3950, 649.5176
294.6090, 801.4316
295.8230, 938.0625
297.0360, 1002.764
298.2500, 1324.529
299.4630, 1504.521
300.6760, 1650.047
301.8890, 1810.252
303.1020, 1974.777
304.3150, 1979.865
305.5270, 2229.441
306.7390, 2403.254
307.9510, 2405.555
309.1630, 2648.107
310.3750, 2464.904
311.5860, 2687.414
312.7970, 2465.273
314.0080, 2579.656
315.2190, 2329.570
316.4300, 2305.141
317.6400, 2295.920
318.8510, 1980.811
320.0610, 1934.621
321.2710, 1797.592
322.4800, 1618.520
323.6900, 1622.398
324.8990, 1097.488
326.1080, 1165.248
327.3170, 1161.799
328.5260, 1090.939
329.7340, 751.1016
330.9430, 758.4453
332.1510, 626.5762
333.3590, 488.9199
334.5670, 613.2676
335.7740, 422.4043
336.9820, 563.4531
338.1890, 472.4219
339.3960, 587.3086
340.6030, 499.1152
341.8100, 589.8457
343.0160, 506.5684
344.2220, 481.0742
345.4280, 327.5742
346.6340, 193.9980
347.8400, 77.34961
349.0460, 249.6289
350.2510, 251.8379
351.4560, 354.9512
352.6610, 204.9746
353.8660, 149.9180
355.0700, 265.3926
356.2750, 147.5410
357.4790, 156.1719
358.6830, 254.9160
359.8870, 307.7422
361.0910, 130.6113
362.2940, 159.4961
363.4970, 105.3770
364.7000, 120.2363
365.9030, 180.0625
367.1060, 119.8516
368.3080, 104.7695
369.5110, 120.2715
370.7130, 23.88477
371.9150, 43.58203
373.1170, 27.15625
374.3180, 67.29883
375.5200, 32.39062
376.7210, 66.48242
377.9220, 51.47070
379.1230, 65.57617
380.3230, 125.8027
381.5240, 130.1738
382.7240, 146.6895
383.9240, 199.3555
385.1240, 7.267578
386.3240, 99.29883
387.5230, 132.4824
388.7230, 104.1875
389.9220, 190.2461
391.1210, 80.83789
392.3200, 5.439453
393.5180, 46.60938
394.7170, 48.68164
395.9150, 116.3516
397.1130, 36.53125
398.3110, 27.15234
399.5080, 165.2891
400.7060, 59.09375
401.9030, 2.650391
403.1000, 11.53320
404.2970, 185.5586
405.4940, 133.2324
406.6910, 39.84570
407.8870, 75.66211
409.0830, 25.68164
410.2790, 113.9043
411.4750, 61.01758
412.6710, 57.01953
413.8660, 316.0391
415.0610, 80.84180
416.2560, 69.17188
417.4510, 232.6875
418.6460, 164.8906
419.8410, 130.7773
421.0350, 209.1055
422.2290, 347.0020
423.4230, 203.1211
424.6170, 477.6973
425.8100, 452.6309
427.0040, 547.4707
428.1970, 539.2188
429.3900, 463.8809
430.5830, 619.4453
431.7760, 849.9141
432.9680, 727.2910
434.1610, 954.5723
435.3530, 1010.697
436.5450, 940.6387
437.7360, 980.4219
438.9280, 996.4395
440.1190, 1296.367
441.3110, 1098.434
442.5020, 1266.332
443.6930, 1439.072
444.8830, 1277.578
446.0740, 1552.986
447.2640, 1602.244
448.4540, 1854.387
449.6440, 1939.369
450.8340, 1888.238
452.0240, 2095.881
453.2130, 2204.410
454.4020, 2300.867
455.5910, 2254.256
456.7800, 2280.590
457.9690, 2049.869
459.1570, 2055.096
460.3460, 2076.279
461.5340, 1937.426
462.7220, 1922.537
463.9090, 1952.619
465.0970, 1827.672
466.2840, 1751.695
467.4720, 1901.691
468.6590, 1955.662
469.8460, 1903.605
471.0320, 1870.547
472.2190, 1892.463
473.4050, 2113.354
474.5910, 2047.232
475.7770, 2320.086
476.9630, 2236.756
478.1490, 2574.562
479.3340, 2565.928
480.5190, 2802.701
481.7040, 2653.242
482.8890, 2787.971
484.0740, 2565.594
485.2580, 2850.289
486.4430, 2693.908
487.6270, 2789.455
488.8110, 2694.342
489.9950, 2493.555
491.1780, 2340.543
492.3620, 2386.057
493.5450, 2227.561
494.7280, 2251.502
495.9110, 2043.787
497.0940, 1925.648
498.2760, 1718.215
499.4590, 1625.998
500.6410, 1624.867
501.8230, 1570.326
503.0050, 1556.266
504.1860, 1497.482
505.3680, 1509.240
506.5490, 1460.475
507.7300, 1359.867
508.9110, 1275.730
510.0920, 1322.055
511.2730, 1307.182
512.4530, 1393.459
513.6330, 1325.918
514.8130, 1238.369
515.9930, 1424.824
517.1730, 1235.748
518.3520, 1207.459
519.5320, 1372.361
520.7110, 1399.209
521.8900, 1423.117
523.0690, 1360.188
524.2470, 1163.930
525.4260, 1093.584
526.6040, 1242.887
527.7820, 1020.213
528.9600, 967.7305
530.1380, 1064.129
531.3150, 911.8105
532.4930, 807.3633
533.6700, 783.9102
534.8470, 876.8379
536.0240, 831.3027
537.2000, 776.0059
538.3770, 600.9629
539.5530, 567.1309
540.7290, 618.9316
541.9050, 483.9688
543.0810, 627.4648
544.2570, 418.6680
545.4320, 416.2988
546.6080, 610.9883
547.7830, 576.9492
548.9580, 415.9297
550.1320, 483.4883
551.3070, 262.0508
552.4810, 370.0801
553.6550, 381.3809
554.8300, 282.5957
556.0030, 489.8594
557.1770, 506.4434
558.3510, 523.8613
559.5240, 349.6992
560.6970, 203.0391
561.8700, 367.0742
563.0430, 344.7441
564.2160, 279.9668
565.3880, 335.5488
566.5600, 406.2773
567.7320, 286.8750
568.9040, 492.8535
570.0760, 215.7734
571.2480, 464.3574
572.4190, 442.3789
573.5900, 471.3789
574.7610, 540.3555
575.9320, 479.3145
577.1030, 604.2500
578.2740, 520.1680
579.4440, 599.0645
580.6140, 625.9434
581.7840, 637.8047
582.9540, 751.6504
584.1240, 801.4766
585.2930, 1008.291
586.4630, 902.0898
587.6320, 1094.875
588.8010, 1296.648
589.9700, 1307.410
591.1380, 1430.314
592.3070, 1617.439
593.4750, 1765.637
594.6430, 1943.258
595.8110, 2193.434
596.9790, 2337.283
598.1460, 2559.980
599.3140, 2820.193
600.4810, 3550.883
601.6480, 3588.039
602.8150, 4019.793
603.9820, 4741.426
605.1480, 4748.051
606.3150, 4996.816
607.4810, 5695.658
608.6470, 5991.773
609.8130, 6436.781
610.9790, 6934.021
612.1440, 7209.957
613.3100, 7822.965
614.4750, 8171.705
615.6400, 8787.734
616.8050, 9293.816
617.9690, 9412.512
619.1340, 10025.30
620.2980, 10396.35
621.4620, 10972.79
622.6260, 11404.36
623.7900, 11496.02
624.9540, 11677.99
626.1170, 11665.07
627.2810, 11494.27
628.4440, 11372.83
629.6070, 11188.41
630.7690, 10596.51
631.9320, 10162.20
633.0950, 9835.645
634.2570, 9349.498
635.4190, 8739.432
636.5810, 8327.254
637.7430, 8026.371
638.9040, 7635.518
640.0660, 7464.254
641.2270, 7251.998
642.3880, 7051.512
643.5490, 6979.059
644.7100, 7118.609
645.8700, 7329.588
647.0310, 7554.535
648.1910, 8344.090
649.3510, 9062.402
650.5110, 9983.615
651.6710, 11387.28
652.8300, 12757.71
653.9900, 14396.16
655.1490, 15908.87
656.3080, 17542.84
657.4670, 19042.42
658.6250, 20364.16
659.7840, 21571.02
660.9420, 22349.83
662.1010, 22994.60
663.2590, 23511.97
664.4170, 23424.01
665.5740, 23048.07
666.7320, 22493.70
667.8890, 21442.71
669.0460, 20372.44
670.2030, 18974.45
671.3600, 17604.16
672.5170, 16094.89
673.6740, 14534.65
674.8300, 13262.46
675.9860, 11957.21
677.1420, 10676.04
678.2980, 9678.174
679.4540, 8621.980
680.6090, 7728.781
681.7650, 7014.635
682.9200, 6302.664
684.0750, 5609.305
685.2300, 5019.668
686.3840, 4424.586
687.5390, 3918.545
688.6930, 3500.502
689.8470, 3295.484
691.0010, 2910.465
692.1550, 2539.439
693.3090, 2514.414
694.4620, 2342.381
695.6160, 1869.332
696.7690, 2194.279
697.9220, 1705.223
699.0750, 1789.154
700.2280, 1688.078
701.3800, 1399.990
702.5320, 1268.895
703.6850, 1168.785
704.8370, 1042.662
705.9880, 1131.527
707.1400, 948.3750
708.2920, 1129.207
709.4430, 909.0215
710.5940, 853.8223
711.7450, 965.6035
712.8960, 969.3691
714.0470, 867.0977
715.1970, 893.8496
716.3480, 630.5645
717.4980, 584.2617
718.6480, 451.9434
719.7980, 563.6074
720.9470, 558.2520
722.0970, 444.8867
723.2460, 514.5000
724.3960, 538.0977
725.5450, 548.6758
726.6940, 595.2402
727.8420, 214.7871
728.9910, 175.3184
730.1390, 119.8281
731.2870, 100.3203
732.4350, 122.7910
733.5830, 238.2422
734.7310, 174.6758
735.8790, 209.0938
737.0260, 266.4941
738.1730, 77.87695
739.3200, 92.24219
740.4670, 186.5820
741.6140, 242.9062
742.7610, 234.2148
743.9070, 176.5078
745.0530, 155.7832
746.1990, 88.03906
747.3450, 111.2754
748.4910, 73.50977
749.6370, 123.6387
750.7820, 104.7676
751.9270, 33.12305
753.0720, 94.93750
754.2170, 78.97852
755.3620, 169.0020
756.5070, 32.99609
757.6510, 78.96094
758.7950, 7.896484
759.9400, 188.8047
761.0840, 14.30273
762.2270, 88.55078
763.3710, 59.38281
764.5140, 165.8027
765.6580, 177.8906
766.8010, 172.5684
767.9440, 46.23047
769.0870, 143.8711
770.2290, 202.4922
771.3720, 47.89844
772.5140, 79.65234
773.6560, 126.8164
774.7990, 131.3848
775.9400, 23.94727
777.0820, 236.7461
778.2240, 61.59375
779.3650, 169.4922
780.5060, 106.4375
781.6470, 122.4531
782.7880, 81.56836
783.9290, 192.7578
785.0690, 91.08008
786.2100, 71.48438
787.3500, 117.9590
788.4900, 109.5254
789.6300, 74.18164
790.7700, 249.9102
791.9090, 94.79883
793.0490, 178.7715
794.1880, 124.8691
795.3270, 16.06055
796.4660, 225.2930
797.6050, 86.32422
798.7440, 28.92578
799.8820, 40.50586
801.0200, 53.06445
802.1590, 55.60742
803.2970, 29.86914
804.4340, 20.39453
805.5720, 154.0430
806.7100, 93.46289
807.8470, 48.13281
808.9840, 298.2148
810.1210, 201.5508
811.2580, 153.8652
812.3950, 279.1699
813.5310, 143.4570
814.6680, 78.72656
815.8040, 306.9785
816.9400, 242.2188
818.0760, 257.4395
819.2120, 109.6484
820.3470, 83.83594
821.4830, 222.0078
822.6180, 257.1641
823.7530, 318.3047
824.8880, 313.4316
826.0230, 319.3535
827.1580, 398.6367
828.2920, 274.7188
829.4270, 434.7812
830.5610, 403.8301
831.6950, 289.8652
832.8290, 264.8867
833.9620, 301.8945
835.0960, 271.8848
836.2290, 344.8711
837.3620, 395.7598
838.4950, 457.5156
839.6280, 574.7383
840.7610, 515.6660
841.8940, 647.5781
843.0260, 692.7266
844.1580, 866.3613
845.2910, 837.2324
846.4230, 963.0898
847.5540, 1048.592
848.6860, 1009.299
849.8170, 1086.605
850.9490, 1093.420
852.0800, 1178.227
853.2110, 1510.016
854.3420, 1604.795
855.4730, 1899.561
856.6030, 1705.312
857.7340, 2204.053
858.8640, 2174.779
859.9940, 2456.494
861.1240, 2567.199
862.2540, 2674.891
863.3830, 2674.568
864.5130, 3091.256
865.6420, 2866.773
866.7710, 2833.117
867.9000, 2779.367
869.0290, 2455.701
870.1570, 2466.402
871.2860, 2457.936
872.4140, 2135.600
873.5430, 2360.270
874.6710, 2279.402
875.7980, 2298.600
876.9260, 1994.180
878.0540, 2212.865
879.1810, 2369.539
880.3080, 2831.057
881.4360, 2936.484
882.5630, 3188.648
883.6890, 3490.943
884.8160, 3782.031
885.9420, 4495.410
887.0690, 4883.701
888.1950, 5238.246
889.3210, 5539.490
890.4470, 5878.980
891.5730, 6141.488
892.6980, 6397.775
893.8240, 6668.977
894.9490, 6730.777
896.0740, 7033.432
897.1990, 7388.990
898.3240, 7683.211
899.4480, 8222.309
900.5730, 8915.328
901.6970, 9390.961
902.8210, 10801.61
903.9450, 11843.73
905.0690, 12869.26
906.1930, 14666.03
907.3160, 16157.38
908.4400, 17747.62
909.5630, 19179.97
910.6860, 20656.03
911.8090, 21909.05
912.9320, 23326.49
914.0550, 23233.90
915.1770, 23946.54
916.2990, 24148.14
917.4210, 23519.73
918.5440, 23548.90
919.6650, 23644.09
920.7870, 23247.67
921.9090, 22731.49
923.0300, 22171.45
924.1510, 21112.95
925.2720, 20542.69
926.3930, 19131.41
927.5140, 18447.89
928.6350, 17139.13
929.7550, 15531.79
930.8760, 14310.32
931.9960, 13397.75
933.1160, 12004.24
934.2360, 10622.52
935.3550, 9912.863
936.4750, 9203.281
937.5940, 8078.727
938.7140, 7565.676
939.8330, 6981.250
940.9520, 6410.156
942.0710, 6004.914
943.1890, 5535.799
944.3080, 5221.818
945.4260, 4978.844
946.5440, 4657.848
947.6620, 4555.910
948.7800, 4326.902
949.8980, 3994.643
951.0160, 3853.732
952.1330, 3778.832
953.2500, 3804.939
954.3680, 3673.912
955.4850, 3662.793
956.6010, 3556.369
957.7180, 3346.152
958.8350, 3290.348
959.9510, 3030.555
961.0670, 2791.770
962.1830, 2926.998
963.2990, 2622.236
964.4150, 2511.488
965.5310, 2437.748
966.6460, 2304.629
967.7620, 2297.910
968.8770, 2068.203
969.9920, 2004.906
971.1070, 2035.246
972.2210, 1763.598
973.3360, 1998.959
974.4500, 1673.330
975.5650, 1383.713
976.6790, 1676.104
977.7930, 1519.619
978.9070, 1429.035
980.0200, 1339.461
981.1340, 1380.342
982.2470, 1298.998
983.3610, 1357.457
984.4740, 1396.760
985.5870, 1062.340
986.6990, 1268.832
987.8120, 1355.336
988.9250, 1084.855
990.0370, 1380.383
991.1490, 1377.924
992.2610, 1225.473
993.3730, 1144.031
994.4850, 1154.604
995.5960, 1102.184
996.7080, 1100.777
997.8190, 1058.666
998.9300, 1289.420
1000.041, 1177.324
1001.152, 954.9609
1002.263, 1238.609
1003.373, 1024.270
1004.484, 1155.938
1005.594, 924.9668
1006.704, 1203.771
1007.814, 904.9805
1008.924, 816.2148
1010.034, 962.0527
1011.143, 688.3320
1012.253, 727.3008
1013.362, 877.0977
1014.471, 967.5488
1015.580, 1026.104
1016.689, 1294.992
1017.797, 917.6289
1018.906, 660.4453
1020.014, 865.2715
1021.122, 578.5195
1022.230, 563.4062
1023.338, 506.9434
1024.446, 596.8008
1025.554, 970.7090
1026.661, 639.1836
1027.768, 780.1211
1028.875, 522.1855
1029.983, 597.2832
1031.089, 563.2598
1032.196, 571.4062
1033.303, 599.2812
1034.409, 479.7480
1035.515, 676.6699
1036.622, 649.5762
1037.728, 815.8066
1038.833, 755.2500
1039.939, 832.2129
1041.045, 638.4570
1042.150, 692.5586
1043.255, 670.8203
1044.360, 362.7168
1045.465, 643.9180
1046.570, 359.6895
1047.675, 363.5137
1048.779, 427.1094
1049.884, 550.4551
1050.988, 106.8457
1052.092, 381.2656
1053.196, 263.6855
1054.300, 376.2910
1055.404, 391.8105
1056.507, 296.5898
1057.610, 372.5938
1058.714, 545.1172
1059.817, 370.8477
1060.920, 390.0449
1062.022, 336.8652
1063.125, 261.1094
1064.228, 314.2949
1065.330, 206.0254
1066.432, 298.2441
1067.534, 235.0996
1068.636, 313.0430
1069.738, 275.2031
1070.840, 175.5254
1071.941, 379.4844
1073.042, 241.8281
1074.144, 947.9609
1075.245, 555.9316
1076.346, 546.3594
1077.446, 179.4727
1078.547, 439.5781
1079.647, 210.5879
1080.748, 206.5645
1081.848, 216.5410
1082.948, 252.5195
1084.048, 169.7051
1085.148, 449.6758
1086.247, 331.9844
1087.347, 275.0449
1088.446, 435.0039
1089.545, 124.3770
1090.644, 370.3730
1091.743, 449.3184
1092.842, 180.2578
1093.940, 340.0293
1095.039, 296.9570
1096.137, 126.1035
1097.235, 214.0176
1098.333, 22.92773
1099.431, 106.6074
1100.529, 210.4980
1101.627, 42.61914
1102.724, 105.0020
1103.822, 239.2637
1104.919, 302.1094
1106.016, 243.2363
1107.113, 136.0684
1108.209, 377.8906
1109.306, 21.07031
1110.402, 52.87695
1111.499, 284.0000
1112.595, 35.08594
1113.691, 6.677734
1114.787, 158.5820
1115.883, 19.20508
1116.978, 38.52148
1118.074, 133.7324
1119.169, 83.52734
1120.264, 283.2285
1121.359, 82.91602
1122.454, 190.5898
1123.549, 242.2539
1124.644, 170.2324
1125.738, 274.8750
1126.832, 292.6875
1127.927, 237.3105
1129.021, 70.08203
1130.115, 54.18555
1131.208, 259.2617
1132.302, 109.1367
1133.396, 212.6562
1134.489, 156.0332
1135.582, 98.39844
1136.675, 14.98633
1137.768, 73.32422
1138.861, 129.3516
1139.954, 33.11523
1141.046, 78.08398
1142.138, 2.433594
1143.231, 54.62500
1144.323, 19.09570
1145.415, 14.74609
1146.507, 91.61914
1147.598, 132.2402
1148.690, 143.2773
1149.781, 17.41406
1150.872, 142.4141
1151.964, 6.658203
1153.054, 119.2695
1154.145, 134.1797
1155.236, 10.99219
1156.327, 284.9590
1157.417, 15.97852
1158.507, 249.5762
1159.597, 5.160156
1160.687, 107.3242
1161.777, 274.8613
1162.867, 104.5254
1163.956, 154.5859
1165.046, 231.8047
1166.135, 130.4844
1167.224, 2.210938
1168.313, 112.0254
1169.402, 89.24609
1170.491, 287.4453
1171.580, 119.6250
1172.668, 160.7871
1173.756, 129.9746
1174.845, 27.86133
1175.933, 227.2129
1177.020, 42.68359
1178.108, 37.71484
1179.196, 3.279297
1180.283, 190.6855
1181.371, 244.6328
1182.458, 216.5586
1183.545, 11.53906
1184.632, 148.4316
1185.719, 106.7324
1186.805, 125.0039
1187.892, 114.1152
1188.978, 234.8066
1190.065, 229.4746
1191.151, 72.12305
1192.237, 309.7422
1193.323, 1.341797
1194.408, 103.8926
1195.494, 38.42188
1196.579, 113.9180
1197.664, 5.396484
1198.750, 359.0234
1199.835, 132.4199
1200.919, 94.78906
1202.004, 288.1328
1203.089, 97.45117
1204.173, 147.7422
1205.258, 258.0059
1206.342, 83.24609
1207.426, 158.7363
1208.510, 5.074219
1209.594, 184.0605
1210.677, 255.1699
1211.761, 238.2559
1212.844, 274.2031
1213.927, 143.3789
1215.010, 205.3477
1216.093, 85.76758
1217.176, 173.1211
1218.259, 267.9844
1219.341, 97.82031
1220.424, 186.6309
1221.506, 205.4160
1222.588, 314.1738
1223.670, 52.90820
1224.752, 231.6094
1225.834, 147.2871
1226.915, 205.9355
1227.997, 167.5625
1229.078, 66.55078
1230.159, 285.1191
1231.240, 349.6602
1232.321, 42.22070
1233.402, 105.2188
1234.483, 227.6328
1235.563, 135.0215
1236.644, 226.3809
1237.724, 344.7148
1238.804, 118.0254
1239.884, 239.1953
1240.964, 127.4512
1242.044, 175.6777
1243.123, 243.4375
1244.203, 169.4082
1245.282, 93.73242
1246.361, 264.2539
1247.440, 87.25195
1248.519, 185.3359
1249.598, 50.56055
1250.676, 240.6035
1251.755, 249.6191
1252.833, 222.6133
1253.911, 130.5820
1254.989, 559.5195
1256.067, 165.4355
1257.145, 344.3242
1258.223, 354.5195
1259.300, 65.07422
1260.378, 344.7578
1261.455, 205.2637
1262.532, 160.1270
1263.609, 470.8633
1264.686, 344.5762
1265.763, 135.5332
1266.840, 414.8457
1267.916, 231.3867
1268.992, 255.5059
1270.069, 204.5918
1271.145, 143.3418
1272.221, 371.3789
1273.296, 117.6875
1274.372, 318.0059
1275.448, 340.8652
1276.523, 104.8281
1277.598, 335.1660
1278.673, 221.7402
1279.749, 299.4297
1280.823, 136.8164
1281.898, 129.9629
1282.973, 64.30859
1284.047, 36.33008
1285.122, 78.63281
1286.196, 58.87305
1287.270, 222.5469
1288.344, 192.7422
1289.418, 24.83594
1290.491, 259.8477
1291.565, 118.9805
1292.638, 59.92773
1293.712, 290.7168
1294.785, 62.71289
1295.858, 249.1406
1296.931, 214.3223
1298.003, 334.1719
1299.076, 321.9062
1300.149, 360.8906
1301.221, 172.7070
1302.293, 121.6523
1303.365, 122.6289
1304.437, 160.8359
1305.509, 28.73047
1306.581, 268.1055
1307.652, 210.4375
1308.724, 136.9844
1309.795, 304.8008
1310.866, 380.6055
1311.937, 249.4414
1313.008, 97.26562
1314.079, 243.9180
1315.150, 347.6719
1316.220, 20.18750
1317.291, 458.6367
1318.361, 145.3125
1319.431, 270.9766
1320.501, 301.1953
1321.571, 459.8281
1322.641, 163.0586
1323.710, 157.3555
1324.780, 117.1562
1325.849, 58.90625
1326.918, 372.1055
1327.987, 146.6523
1329.056, 212.9727
1330.125, 374.1211
1331.194, 257.6250
1332.263, 164.7461
1333.331, 188.0703
1334.399, 401.5352
1335.467, 40.55859
1336.535, 442.8711
1337.603, 306.1836
1338.671, 229.5781
1339.739, 337.9883
1340.806, 13.61328
1341.874, 134.7734
1342.941, 295.9375
1344.008, 336.2969
1345.075, 563.3125
1346.142, 247.5547
1347.209, 257.8828
1348.275, 342.7891
1349.342, 472.0547
1350.408, 432.4648
1351.475, 254.6445
1352.541, 368.0781
1353.607, 326.3438
1354.673, 216.3789
1355.738, 475.6289
1356.804, 162.7188
1357.869, 225.2773
1358.935, 274.4648
1360.000, 342.6367
1361.065, 184.0508
1362.130, 166.8008
1363.195, 120.9531
1364.259, 178.8086
1365.324, 124.9492
1366.388, 154.0781
1367.453, 228.8359
1368.517, 298.9492
1369.581, 153.7188
1370.645, 86.68750
1371.709, 373.7852
1372.772, 40.71875
1373.836, 25.32812
1374.899, 279.4102
1375.963, 133.8945
1377.026, 43.87500
1378.089, 167.1211
1379.152, 148.1797
1380.214, 223.2305
1381.277, 387.2812
1382.340, 221.0000
1383.402, 111.0430
1384.464, 258.8984
1385.526, 5.929688
1386.588, 577.0586
1387.650, 22.60547
1388.712, 319.4297
1389.774, 59.53516
1390.835, 92.50391
1391.896, 102.6016
1392.958, 19.69531
1394.019, 182.5508
1395.080, 264.1641
1396.141, 181.2539
1397.201, 220.3789
1398.262, 18.75391
1399.323, 102.2773
1400.383, 172.8320
1401.443, 39.64844
1402.503, 269.7617
1403.563, 163.8867
1404.623, 116.7148
1405.683, 258.0430
1406.742, 18.28125
1407.802, 101.5820
1408.861, 10.34375
1409.920, 220.9688
1410.980, 241.7617
1412.039, 153.4102
1413.097, 85.26953
1414.156, 120.0430
1415.215, 296.2148
1416.273, 75.51562
1417.331, 167.0859
1418.390, 300.1797
1419.448, 221.1289
1420.506, 106.8164
1421.564, 20.06641
1422.621, 24.18750
1423.679, 282.8438
1424.736, 141.9727
1425.794, 232.1797
1426.851, 340.1953
1427.908, 364.1953
1428.965, 363.9727
1430.022, 44.08984
1431.079, 266.0000
1432.135, 213.9414
1433.192, 119.4492
1434.248, 408.3984
1435.304, 155.1992
1436.360, 413.9766
1437.416, 227.7148
1438.472, 70.20312
1439.528, 359.5156
1440.583, 466.6016
1441.639, 308.9531
1442.694, 303.9336
1443.749, 216.3047
1444.804, 218.6758
1445.859, 250.9609
1446.914, 471.2227
1447.969, 350.6406
1449.024, 464.0547
1450.078, 505.4688
1451.132, 489.8789
1452.187, 472.1797
1453.241, 572.4258
1454.295, 311.8750
1455.349, 312.3008
1456.402, 196.7695
1457.456, 400.2773
1458.509, 220.7930
1459.563, 464.3125
1460.616, 446.8438
1461.669, 189.3789
1462.722, 310.9219
1463.775, 305.4688
1464.828, 494.0898
1465.880, 318.7227
1466.933, 433.3633
1467.985, 280.0156
1469.037, 391.6797
1470.090, 314.1328
1471.142, 328.5117
1472.193, 188.9492
1473.245, 419.5781
1474.297, 238.2227
1475.348, 340.8750
1476.400, 339.0820
1477.451, 217.3320
1478.502, 357.8633
1479.553, 394.5508
1480.604, 349.8633
1481.655, 384.5273
1482.706, 373.7852
1483.756, 283.5508
1484.807, 399.5820
1485.857, 156.1641
1486.907, 122.3086
1487.957, 158.9414
1489.007, 229.5312
1490.057, 344.1797
1491.106, 129.8398
1492.156, 191.4688
1493.205, 295.1602
1494.255, 228.1680
1495.304, 300.6406
1496.353, 272.2383
1497.402, 332.9453
1498.451, 341.3633
1499.500, 338.1016
1500.548, 126.8555
1501.597, 53.37109
1502.645, 214.3125
1503.693, 56.84375
1504.741, 203.0234
1505.789, 328.9062
1506.837, 389.8008
1507.885, 250.7109
1508.932, 177.6328
1509.980, 285.5703
1511.027, 246.5430
1512.075, 90.53125
1513.122, 423.5273
1514.169, 296.5430
1515.216, 217.5625
1516.262, 477.5977
1517.309, 268.6367
1518.356, 158.6875
1519.402, 525.7578
1520.448, 36.15625
1521.495, 281.9453
1522.541, 394.1055
1523.587, 71.28516
1524.632, 409.4883
1525.678, 269.9609
1526.724, 549.4844
1527.769, 200.0820
1528.814, 400.7227
1529.860, 221.4023
1530.905, 110.1953
1531.950, 211.0391
1532.995, 134.9570
1534.039, 156.6211
1535.084, 16.83594
1536.128, 40.41016
1537.173, 489.0742
1538.217, 164.0039
1539.261, 138.4336
1540.305, 348.2969
1541.349, 100.1211
1542.393, 423.9062
1543.436, 175.0586
1544.480, 202.7734
1545.523, 537.8242
1546.567, 158.0312
1547.610, 370.9375
1548.653, 194.5156
1549.696, 472.1562
1550.739, 2.957031
1551.781, 336.9961
1552.824, 211.0938
1553.867, 363.1680
1554.909, 473.4766
1555.951, 422.0664
1556.993, 193.0273
1558.035, 345.3398
1559.077, 4.519531
1560.119, 306.5820
1561.161, 157.5352
1562.202, 334.3711
1563.243, 222.9727
1564.285, 30.35547
1565.326, 0.0000000E+00
##END=



