##NAMES=Albite
##RRUFFID=R050402
##IDEAL CHEMISTRY=NaAlSi_3_O_8_
##LOCALITY=Urbano mine, Golconda District, Brazil
##OWNER=RRUFF
##SOURCE=Bob Downs
##DESCRIPTION=Colorless tabular single crystals associated with fluorapatite R050401
##STATUS=The identification of this mineral has been confirmed by X-ray diffraction and chemical analysis
##URL=rruff.info/R050402
##MEASURED CHEMISTRY=Na_1.00_Al_1.00_Si_3.00_O_8_
##PIN_ID=M00068
##ORIENTATION=Laser parallel to a* (1 0 0). Fiducial mark perpendicular to laser is parallel to b [0 1 0]
86.07200, 0.0000000E+00
87.30800, 106.8594
88.54200, 100.6794
89.77700, 15.58252
91.01200, 9.410156
92.24600, 39.42432
93.48000, 22.84595
94.71400, 66.18213
95.94800, 131.1655
97.18200, 109.8347
98.41600, 202.9561
99.64900, 229.3979
100.8830, 348.9541
102.1160, 467.5088
103.3490, 616.9485
104.5820, 790.1848
105.8150, 1024.154
107.0470, 1375.802
108.2800, 1757.070
109.5120, 2415.906
110.7440, 2650.258
111.9760, 2775.080
113.2080, 2801.327
114.4400, 2464.964
115.6710, 2122.957
116.9030, 1664.273
118.1340, 1275.885
119.3650, 887.7766
120.5960, 635.9336
121.8270, 385.3564
123.0580, 291.0649
124.2880, 351.0835
125.5190, 234.3828
126.7490, 180.9365
127.9790, 178.7217
129.2090, 146.7124
130.4390, 172.8862
131.6680, 215.2222
132.8980, 198.7031
134.1270, 233.3135
135.3560, 347.0410
136.5850, 313.8755
137.8140, 304.8086
139.0430, 444.8345
140.2710, 492.9468
141.5000, 552.1387
142.7280, 845.4004
143.9560, 983.7256
145.1840, 1046.108
146.4120, 1399.538
147.6390, 1628.011
148.8670, 1916.520
150.0940, 2050.090
151.3210, 2018.794
152.5490, 1901.585
153.7750, 1853.470
155.0020, 2004.494
156.2290, 1922.721
157.4550, 2270.240
158.6810, 2626.025
159.9080, 2901.483
161.1340, 3211.150
162.3590, 3173.996
163.5850, 3155.581
164.8110, 2856.225
166.0360, 2712.888
167.2610, 2782.521
168.4860, 2673.153
169.7110, 2745.726
170.9360, 2603.235
172.1610, 2458.685
173.3850, 2280.075
174.6100, 2146.413
175.8340, 2131.696
177.0580, 2142.931
178.2820, 2324.116
179.5050, 2454.257
180.7290, 2601.353
181.9520, 2947.406
183.1760, 3037.422
184.3990, 3054.414
185.6220, 3092.395
186.8450, 2953.364
188.0670, 2761.319
189.2900, 2572.290
190.5120, 2222.277
191.7340, 1962.260
192.9560, 1792.228
194.1780, 1669.178
195.4000, 1607.092
196.6220, 1546.967
197.8430, 1543.799
199.0640, 1589.586
200.2860, 1616.328
201.5070, 1919.025
202.7270, 2056.759
203.9480, 2362.366
205.1690, 2482.930
206.3890, 2818.447
207.6090, 3055.921
208.8290, 2940.350
210.0490, 2761.733
211.2690, 2369.072
212.4890, 1852.076
213.7080, 1312.060
214.9280, 1037.754
216.1470, 720.0386
217.3660, 583.9150
218.5850, 420.0786
219.8030, 304.5107
221.0220, 184.6519
222.2400, 124.1978
223.4590, 116.5894
224.6770, 64.72363
225.8950, 94.80273
227.1120, 114.1309
228.3300, 59.35107
229.5480, 71.60645
230.7650, 75.77881
231.9820, 81.95605
233.1990, 41.76318
234.4160, 82.46387
235.6330, 48.14600
236.8490, 50.85645
238.0660, 152.8188
239.2820, 203.2979
240.4980, 309.7778
241.7140, 310.8403
242.9300, 385.1772
244.1460, 495.2222
245.3610, 618.6533
246.5770, 814.0054
247.7920, 1130.759
249.0070, 1456.621
250.2220, 1562.350
251.4370, 1477.006
252.6510, 1462.326
253.8660, 1019.994
255.0800, 836.3486
256.2940, 871.7183
257.5080, 629.1006
258.7220, 618.4922
259.9360, 820.8901
261.1490, 859.2935
262.3630, 918.6973
263.5760, 1157.102
264.7890, 1403.508
266.0020, 1622.911
267.2150, 1857.314
268.4270, 2020.712
269.6400, 1993.106
270.8520, 1772.492
272.0640, 1667.872
273.2760, 1516.243
274.4880, 1249.604
275.7000, 1121.952
276.9120, 1136.288
278.1230, 1369.617
279.3340, 1538.746
280.5450, 1938.664
281.7560, 2311.780
282.9670, 2799.100
284.1780, 3376.943
285.3880, 4211.395
286.5980, 5240.521
287.8090, 6056.889
289.0190, 6734.189
290.2290, 6838.229
291.4380, 6252.589
292.6480, 5282.930
293.8570, 4321.183
295.0670, 3312.359
296.2760, 2611.130
297.4850, 2009.500
298.6930, 1435.064
299.9020, 1225.850
301.1110, 991.9097
302.3190, 866.7759
303.5270, 675.9443
304.7350, 610.9448
305.9430, 638.9805
307.1510, 593.7085
308.3580, 487.4033
309.5660, 578.0635
310.7730, 497.6895
311.9800, 426.2832
313.1870, 406.8428
314.3940, 324.3687
315.6010, 294.8594
316.8070, 250.3174
318.0130, 319.7402
319.2200, 319.5693
320.4260, 397.0830
321.6310, 462.7998
322.8370, 605.0815
324.0430, 809.3286
325.2480, 979.5391
326.4540, 1370.714
327.6590, 1325.854
328.8640, 1438.958
330.0680, 1091.024
331.2730, 905.0552
332.4780, 706.0483
333.6820, 418.0059
334.8860, 351.9258
336.0900, 249.8076
337.2940, 205.6514
338.4980, 99.45410
339.7010, 147.2168
340.9050, 3.063477
342.1080, 29.61133
343.3110, 71.24023
344.5140, 90.82471
345.7170, 153.3652
346.9200, 85.85986
348.1220, 46.31299
349.3240, 135.7188
350.5270, 75.08008
351.7290, 43.39990
352.9310, 66.29150
354.1320, 83.90283
355.3340, 29.08447
356.5350, 7.782227
357.7370, 2.136719
358.9380, 13.30811
360.1390, 7.742676
361.3400, 4.858398
362.5400, 1.035645
363.7410, 41.27637
364.9410, 48.59277
366.1410, 29.00000
367.3410, 59.33740
368.5410, 24.97803
369.7410, 53.65771
370.9400, 25.39404
372.1400, 45.76758
373.3390, 49.15283
374.5380, 157.1816
375.7370, 35.32910
376.9360, 107.6108
378.1350, 32.15918
379.3330, 117.6372
380.5310, 84.38867
381.7300, 63.25830
382.9280, 64.02539
384.1260, 61.88770
385.3230, 11.15918
386.5210, 88.85254
387.7180, 140.0239
388.9160, 7.850586
390.1130, 91.61816
391.3100, 48.33252
392.5060, 13.00293
393.7030, 268.5864
394.9000, 293.2251
396.0960, 418.7686
397.2920, 302.2778
398.4880, 496.6978
399.6840, 497.4712
400.8800, 572.4009
402.0750, 522.1499
403.2710, 815.5107
404.4660, 1077.180
405.6610, 1328.457
406.8560, 1436.607
408.0510, 1306.459
409.2450, 1155.062
410.4400, 997.9639
411.6340, 902.3926
412.8280, 909.1494
414.0220, 1174.586
415.2160, 1019.548
416.4100, 1068.398
417.6030, 908.7871
418.7970, 733.2998
419.9900, 521.9531
421.1830, 395.1328
422.3760, 201.9033
423.5690, 248.9492
424.7610, 198.3340
425.9540, 146.7871
427.1460, 58.81641
428.3380, 107.6602
429.5300, 181.2871
430.7220, 118.5693
431.9140, 129.7949
433.1050, 186.9668
434.2970, 49.75586
435.4880, 105.2549
436.6790, 120.2041
437.8700, 21.09082
439.0610, 223.9062
440.2510, 88.66113
441.4420, 62.34961
442.6320, 202.3037
443.8220, 130.4014
445.0120, 408.9004
446.2020, 330.2324
447.3910, 363.1377
448.5810, 347.2070
449.7700, 576.4111
450.9600, 584.0840
452.1490, 714.3730
453.3370, 948.6416
454.5260, 957.2861
455.7150, 1220.859
456.9030, 1093.036
458.0910, 1204.185
459.2800, 993.5781
460.4670, 937.6191
461.6550, 811.5791
462.8430, 1046.454
464.0300, 1254.161
465.2180, 1471.670
466.4050, 1693.267
467.5920, 2074.624
468.7790, 2614.229
469.9650, 3572.649
471.1520, 4499.977
472.3380, 5566.031
473.5250, 6845.200
474.7110, 8554.159
475.8970, 10599.48
477.0820, 12171.30
478.2680, 12382.23
479.4540, 11558.09
480.6390, 9602.105
481.8240, 7808.421
483.0090, 6065.020
484.1940, 4701.283
485.3780, 3679.192
486.5630, 3060.281
487.7470, 2551.486
488.9320, 2211.262
490.1160, 2021.807
491.3000, 2047.195
492.4830, 2032.270
493.6670, 2331.547
494.8500, 2621.090
496.0340, 3219.941
497.2170, 3894.049
498.4000, 4932.670
499.5820, 6314.234
500.7650, 7859.902
501.9480, 9883.308
503.1300, 12151.37
504.3120, 14906.73
505.4940, 16849.02
506.6760, 17254.71
507.8580, 16443.83
509.0390, 13831.11
510.2210, 11112.40
511.4020, 8694.585
512.5830, 6527.586
513.7640, 5194.150
514.9450, 4107.261
516.1250, 3103.340
517.3060, 2476.653
518.4860, 2129.443
519.6660, 1645.426
520.8460, 1521.487
522.0260, 1395.300
523.2060, 1170.740
524.3850, 1091.152
525.5650, 884.1865
526.7440, 910.9980
527.9230, 751.4082
529.1020, 664.2783
530.2810, 589.5400
531.4590, 542.6953
532.6380, 466.1367
533.8160, 412.0879
534.9940, 363.3467
536.1720, 314.7988
537.3500, 326.9160
538.5270, 325.5439
539.7050, 413.6367
540.8820, 241.4531
542.0590, 193.5137
543.2360, 226.6758
544.4130, 316.8164
545.5900, 238.9824
546.7660, 322.0215
547.9430, 346.2861
549.1190, 164.2490
550.2950, 212.5938
551.4710, 157.5010
552.6470, 259.9951
553.8220, 181.1328
554.9980, 246.5791
556.1730, 109.9199
557.3480, 135.6768
558.5230, 235.2998
559.6980, 195.0859
560.8730, 150.4189
562.0470, 252.2939
563.2220, 99.26855
564.3960, 258.8799
565.5700, 165.1709
566.7440, 135.2471
567.9170, 222.9551
569.0910, 256.1768
570.2640, 295.7383
571.4380, 384.5488
572.6110, 374.3281
573.7840, 514.7734
574.9570, 326.2705
576.1290, 623.3125
577.3020, 497.8359
578.4740, 492.1719
579.6460, 566.5654
580.8180, 500.1328
581.9900, 402.7256
583.1620, 279.4951
584.3330, 230.0518
585.5040, 408.9873
586.6760, 146.7344
587.8470, 234.9844
589.0180, 183.1230
590.1880, 137.4385
591.3590, 28.03613
592.5290, 92.54688
593.7000, 85.12305
594.8700, 12.51465
596.0400, 14.45117
597.2090, 68.86035
598.3790, 62.56934
599.5490, 16.89551
600.7180, 47.66602
601.8870, 69.95312
603.0560, 77.01074
604.2250, 103.7246
605.3940, 138.5186
606.5620, 104.2637
607.7300, 148.7617
608.8990, 75.75879
610.0670, 106.7510
611.2350, 115.2393
612.4020, 165.6670
613.5700, 125.0342
614.7370, 160.4180
615.9050, 60.59473
617.0720, 166.7852
618.2390, 124.9141
619.4060, 77.98242
620.5720, 218.9844
621.7390, 32.92773
622.9050, 227.8076
624.0710, 28.65527
625.2370, 217.4443
626.4030, 225.1787
627.5690, 200.8574
628.7340, 387.4785
629.9000, 82.05664
631.0650, 288.6289
632.2300, 212.1475
633.3950, 86.61035
634.5600, 194.0137
635.7240, 147.3613
636.8890, 326.6504
638.0530, 333.8877
639.2170, 293.0742
640.3810, 330.2148
641.5450, 292.3545
642.7080, 364.4434
643.8720, 295.5029
645.0350, 348.5029
646.1980, 618.2490
647.3610, 389.4863
648.5240, 455.8838
649.6870, 414.2139
650.8490, 240.3730
652.0120, 218.2266
653.1740, 247.9883
654.3360, 257.7061
655.4980, 206.3730
656.6600, 0.9980470
657.8210, 205.8340
658.9830, 27.99805
660.1440, 154.1084
661.3050, 89.98242
662.4660, 203.4580
663.6270, 37.87012
664.7870, 95.51172
665.9480, 164.8828
667.1080, 126.2188
668.2680, 193.5039
669.4280, 171.7627
670.5880, 104.9609
671.7480, 175.1035
672.9070, 3.188477
674.0670, 203.2061
675.2260, 2.176758
676.3850, 43.98535
677.5440, 19.77930
678.7030, 38.49707
679.8610, 160.1924
681.0200, 88.42676
682.1780, 50.39160
683.3360, 58.57324
684.4940, 43.71094
685.6520, 45.57715
686.8090, 12.71289
687.9670, 41.86035
689.1240, 165.1943
690.2810, 218.3350
691.4380, 100.8545
692.5950, 80.13184
693.7520, 84.19629
694.9080, 95.53809
696.0650, 76.56738
697.2210, 25.91309
698.3770, 5.343750
699.5330, 46.33789
700.6880, 132.2100
701.8440, 92.38965
702.9990, 208.8438
704.1550, 78.52539
705.3100, 62.70312
706.4650, 83.27344
707.6190, 22.46191
708.7740, 6.838867
709.9290, 52.29199
711.0830, 18.80273
712.2370, 5.931641
713.3910, 87.44141
714.5450, 100.7471
715.6980, 210.8926
716.8520, 256.7773
718.0050, 241.5293
719.1580, 277.1689
720.3110, 382.7168
721.4640, 238.3740
722.6170, 215.4268
723.7700, 277.5205
724.9220, 108.7432
726.0740, 133.0879
727.2260, 177.5938
728.3780, 106.6152
729.5300, 88.58008
730.6810, 96.03320
731.8330, 77.68555
732.9840, 107.6484
734.1350, 200.6426
735.2860, 71.05859
736.4370, 222.1465
737.5880, 69.28320
738.7380, 183.5840
739.8880, 57.85742
741.0390, 202.7773
742.1890, 278.3750
743.3380, 119.4102
744.4880, 116.2031
745.6380, 159.3184
746.7870, 263.5723
747.9360, 252.3730
749.0850, 397.2910
750.2340, 441.8848
751.3830, 409.4414
752.5310, 462.6191
753.6800, 714.0703
754.8280, 878.7754
755.9760, 838.0527
757.1240, 1159.975
758.2720, 1334.365
759.4190, 1959.080
760.5670, 2288.285
761.7140, 2455.955
762.8610, 2619.240
764.0080, 2428.217
765.1550, 2329.533
766.3020, 1985.275
767.4480, 1495.635
768.5950, 1280.418
769.7410, 992.2051
770.8870, 770.9746
772.0330, 876.6133
773.1780, 757.9395
774.3240, 703.1875
775.4690, 727.8066
776.6140, 643.0742
777.7590, 386.5273
778.9040, 532.5195
780.0490, 423.9707
781.1940, 373.3965
782.3380, 417.7930
783.4820, 186.5371
784.6260, 298.3125
785.7700, 252.6641
786.9140, 258.6074
788.0580, 301.3652
789.2010, 360.4219
790.3450, 373.3145
791.4880, 437.3828
792.6310, 396.6035
793.7730, 449.0762
794.9160, 324.1387
796.0590, 234.3281
797.2010, 239.9629
798.3430, 77.45117
799.4850, 425.1172
800.6270, 400.4180
801.7690, 321.1680
802.9100, 545.4121
804.0520, 459.6973
805.1930, 637.7402
806.3340, 587.1895
807.4750, 706.0195
808.6160, 891.5605
809.7560, 1174.719
810.8970, 1358.439
812.0370, 1675.072
813.1770, 1941.773
814.3170, 1704.453
815.4570, 1916.023
816.5960, 1694.879
817.7360, 1461.426
818.8750, 1241.227
820.0140, 1068.812
821.1530, 882.9629
822.2920, 637.6895
823.4310, 586.0625
824.5690, 493.0957
825.7070, 384.3223
826.8460, 407.0527
827.9840, 295.1074
829.1220, 183.4609
830.2590, 230.0586
831.3970, 275.2305
832.5340, 228.3965
833.6710, 315.0273
834.8080, 169.6816
835.9450, 215.0547
837.0820, 181.7676
838.2190, 188.8223
839.3550, 201.6562
840.4910, 286.9277
841.6270, 297.6016
842.7630, 157.1602
843.8990, 301.7520
845.0350, 226.1777
846.1700, 124.5254
847.3060, 121.8145
848.4410, 91.75586
849.5760, 82.34766
850.7100, 62.24805
851.8450, 109.5293
852.9800, 157.2129
854.1140, 173.9961
855.2480, 187.5781
856.3820, 194.5410
857.5160, 154.5840
858.6500, 206.1172
859.7830, 131.5039
860.9170, 214.0996
862.0500, 195.9375
863.1830, 230.0391
864.3160, 15.07031
865.4480, 228.7402
866.5810, 8.287109
867.7130, 71.20117
868.8460, 26.10547
869.9780, 46.48047
871.1100, 124.1934
872.2410, 267.3203
873.3730, 38.96289
874.5050, 106.0059
875.6360, 151.4180
876.7670, 6.800781
877.8980, 69.57031
879.0290, 214.2090
880.1590, 59.14258
881.2900, 138.0137
882.4200, 180.0234
883.5500, 4.425781
884.6800, 162.7148
885.8100, 42.39648
886.9400, 53.03125
888.0690, 73.61523
889.1990, 21.84766
890.3280, 91.61523
891.4570, 54.03320
892.5860, 74.40430
893.7140, 138.7305
894.8430, 188.0137
895.9710, 100.2559
897.1000, 60.54297
898.2280, 50.56250
899.3560, 63.63477
900.4830, 212.6680
901.6110, 71.65820
902.7380, 5.396484
903.8660, 174.5078
904.9930, 103.2324
906.1200, 40.94531
907.2460, 144.6094
908.3730, 72.23633
909.5000, 42.82031
910.6260, 104.3613
911.7520, 179.8594
912.8780, 79.31445
914.0040, 140.2715
915.1290, 48.00781
916.2550, 93.24805
917.3800, 40.43164
918.5050, 224.6035
919.6300, 199.9434
920.7550, 44.72266
921.8800, 126.2676
923.0040, 50.19531
924.1290, 198.4199
925.2530, 200.7520
926.3770, 17.39453
927.5010, 18.40820
928.6250, 214.1680
929.7480, 66.84570
930.8720, 41.31641
931.9950, 289.3906
933.1180, 122.4648
934.2410, 28.34180
935.3640, 181.2246
936.4860, 101.2383
937.6090, 53.97461
938.7310, 97.39258
939.8530, 8.775391
940.9750, 54.11523
942.0970, 163.4219
943.2180, 149.6973
944.3400, 55.94336
945.4610, 163.1582
946.5820, 272.3457
947.7030, 129.5039
948.8240, 18.63672
949.9450, 179.7363
951.0650, 122.8125
952.1860, 73.86133
953.3060, 185.8809
954.4260, 318.8750
955.5460, 153.8418
956.6650, 314.8066
957.7850, 252.7559
958.9040, 530.7070
960.0230, 499.6328
961.1420, 900.5391
962.2610, 797.4199
963.3800, 762.1406
964.4990, 932.3809
965.6170, 707.8398
966.7350, 963.4688
967.8530, 704.8828
968.9710, 670.6836
970.0890, 681.8613
971.2070, 610.2129
972.3240, 563.4141
973.4410, 711.6270
974.5580, 790.8770
975.6750, 759.4727
976.7920, 893.0957
977.9090, 1038.115
979.0250, 915.7266
980.1410, 1049.021
981.2580, 852.8848
982.3740, 744.7246
983.4890, 544.4258
984.6050, 528.0820
985.7200, 600.5625
986.8360, 333.3047
987.9510, 468.2305
989.0660, 356.2109
990.1810, 152.2324
991.2950, 184.2656
992.4100, 227.1191
993.5240, 360.1719
994.6390, 212.8984
995.7530, 261.9570
996.8660, 34.92773
997.9800, 440.0273
999.0940, 349.3145
1000.207, 143.3887
1001.320, 523.3730
1002.433, 402.4082
1003.546, 622.0234
1004.659, 462.0938
1005.772, 619.6855
1006.884, 619.8691
1007.996, 542.9023
1009.108, 321.3945
1010.220, 717.0703
1011.332, 533.1152
1012.444, 580.4336
1013.555, 665.3516
1014.666, 809.5840
1015.777, 561.1758
1016.888, 685.9355
1017.999, 397.6699
1019.110, 324.3477
1020.220, 487.3105
1021.331, 371.4551
1022.441, 358.7344
1023.551, 491.8203
1024.661, 266.1660
1025.770, 468.3125
1026.880, 441.5723
1027.989, 439.0977
1029.098, 418.8223
1030.207, 559.1758
1031.316, 708.8457
1032.425, 364.7871
1033.533, 662.1875
1034.642, 437.1582
1035.750, 467.3730
1036.858, 384.5859
1037.966, 547.5801
1039.073, 539.3301
1040.181, 311.3047
1041.288, 236.8184
1042.396, 228.0293
1043.503, 366.0586
1044.610, 561.4043
1045.716, 324.0645
1046.823, 385.3066
1047.929, 317.0996
1049.036, 270.0430
1050.142, 329.3477
1051.248, 249.5293
1052.353, 121.4492
1053.459, 159.0781
1054.564, 143.1973
1055.670, 97.00781
1056.775, 87.80469
1057.880, 12.25781
1058.985, 53.53125
1060.089, 94.20508
1061.194, 143.8457
1062.298, 45.32227
1063.402, 235.9004
1064.506, 256.1465
1065.610, 62.95703
1066.713, 282.4375
1067.817, 121.4922
1068.920, 186.2383
1070.023, 307.2422
1071.126, 21.47070
1072.229, 174.8906
1073.332, 51.33203
1074.435, 135.5898
1075.537, 195.3203
1076.639, 202.0000
1077.741, 268.2969
1078.843, 267.0547
1079.945, 130.8789
1081.046, 377.5156
1082.148, 571.4980
1083.249, 470.3262
1084.350, 208.9668
1085.451, 666.4141
1086.551, 532.2520
1087.652, 562.0918
1088.752, 844.9082
1089.853, 1077.756
1090.953, 1234.562
1092.053, 1483.414
1093.152, 1784.270
1094.252, 2243.131
1095.351, 2421.994
1096.451, 2572.863
1097.550, 3028.736
1098.649, 2970.617
1099.748, 3160.500
1100.846, 2963.391
1101.945, 3025.285
1103.043, 2425.188
1104.141, 2406.100
1105.239, 1994.746
1106.337, 2071.668
1107.434, 1562.252
1108.532, 1780.188
1109.629, 1513.131
1110.726, 1566.078
1111.823, 1401.035
1112.920, 1336.000
1114.017, 1415.971
1115.113, 1559.953
1116.210, 1208.945
1117.306, 1294.949
1118.402, 1158.961
1119.498, 1167.984
1120.593, 1127.590
1121.689, 981.0625
1122.784, 937.1133
1123.879, 841.1758
1124.974, 542.2500
1126.069, 643.3281
1127.164, 566.4219
1128.259, 219.5195
1129.353, 214.4258
1130.447, 280.5469
1131.541, 205.6836
1132.635, 330.8320
1133.729, 160.0000
1134.822, 380.2070
1135.916, 376.4336
1137.009, 455.6758
1138.102, 207.9258
1139.195, 90.18359
1140.288, 274.4805
1141.380, 183.7852
1142.473, 162.1055
1143.565, 210.4531
1144.657, 263.8125
1145.749, 400.1797
1146.841, 106.5703
1147.932, 128.9688
1149.024, 191.3789
1150.115, 247.8164
1151.206, 375.2617
1152.297, 298.7227
1153.388, 343.2031
1154.479, 164.6992
1155.569, 134.2227
1156.659, 176.7617
1157.750, 140.3164
1158.839, 336.8867
1159.929, 95.46875
1161.019, 122.0703
1162.108, 304.6836
1163.198, 69.66406
1164.287, 6.019531
1165.376, 4.359375
1166.465, 177.3086
1167.553, 53.00000
1168.642, 13.30078
1169.730, 82.53516
1170.818, 77.21484
1171.906, 149.9883
1172.994, 34.76953
1174.082, 265.5703
1175.170, 101.3906
1176.257, 203.2266
1177.344, 51.07422
1178.431, 141.9414
1179.518, 24.12891
1180.605, 132.8047
1181.691, 99.23438
1182.778, 149.6992
1183.864, 25.35156
1184.950, 349.6094
1186.036, 21.41797
1187.122, 106.5703
1188.207, 287.5938
1189.292, 239.1289
1190.378, 63.20703
1191.463, 97.31250
1192.548, 17.43750
1193.632, 127.6328
1194.717, 79.20703
1195.801, 36.94141
1196.886, 278.1055
1197.970, 304.2891
1199.054, 46.50391
1200.137, 87.26172
1201.221, 177.9922
1202.305, 93.26562
1203.388, 245.5547
1204.471, 147.8672
1205.554, 97.37109
1206.637, 111.7188
1207.719, 121.0898
1208.802, 117.4766
1209.884, 185.8789
1210.966, 195.3008
1212.048, 190.8633
1213.130, 191.2383
1214.212, 153.7266
1215.293, 207.2422
1216.374, 163.7695
1217.456, 282.3164
1218.536, 281.8789
1219.617, 268.4609
1220.698, 117.9375
1221.778, 192.6289
1222.859, 51.22266
1223.939, 100.8242
1225.019, 275.4492
1226.099, 78.08984
1227.178, 214.7461
1228.258, 111.4219
1229.337, 188.1172
1230.417, 262.5078
1231.496, 194.5547
1232.574, 340.3008
1233.653, 151.0625
1234.732, 24.15625
1235.810, 333.6445
1236.888, 47.53516
1237.966, 240.2852
1239.044, 142.1289
1240.122, 479.9844
1241.199, 305.8555
1242.277, 445.7617
1243.354, 227.6797
1244.431, 209.6133
1245.508, 224.5703
1246.585, 314.5391
1247.661, 447.5312
1248.738, 451.5391
1249.814, 96.57031
1250.890, 353.6133
1251.966, 125.6758
1253.042, 184.7578
1254.117, 338.8594
1255.193, 391.9766
1256.268, 241.1094
1257.343, 241.2852
1258.418, 82.48438
1259.493, 431.7031
1260.567, 324.9414
1261.642, 328.1953
1262.716, 220.4648
1263.790, 231.7578
1264.864, 218.8984
1265.938, 150.9102
1267.011, 272.7422
1268.085, 75.10547
1269.158, 173.4883
1270.231, 187.8906
1271.304, 247.3516
1272.377, 265.2109
1273.450, 270.9609
1274.522, 208.2266
1275.594, 213.7617
1276.666, 235.3125
1277.738, 92.88281
1278.810, 388.4688
1279.882, 460.0742
1280.953, 253.6992
1282.025, 289.3438
1283.096, 133.0000
1284.167, 312.6797
1285.238, 266.3750
1286.308, 373.0938
1287.379, 391.8320
1288.449, 113.5898
1289.519, 456.3672
1290.589, 217.1641
1291.659, 256.9727
1292.729, 225.9727
1293.798, 195.6055
1294.868, 220.3047
1295.937, 282.3477
1297.006, 218.1953
1298.075, 247.6758
1299.143, 239.9805
1300.212, 357.1523
1301.280, 182.1172
1302.348, 322.1016
1303.416, 198.1016
1304.484, 213.1172
1305.552, 321.1406
1306.620, 181.1875
1307.687, 323.2461
1308.754, 330.8984
1309.821, 294.5703
1310.888, 363.4844
1311.955, 362.5977
1313.021, 244.8594
1314.088, 216.0000
1315.154, 164.4375
1316.220, 239.6016
1317.286, 219.7773
1318.352, 23.53906
1319.417, 227.7422
1320.483, 363.9531
1321.548, 381.1680
1322.613, 79.41016
1323.678, 238.5391
1324.743, 242.8125
1325.807, 307.1016
1326.872, 420.4102
1327.936, 232.7227
1329.000, 410.5781
1330.064, 268.9219
1331.128, 190.2930
1332.191, 451.6719
1333.255, 42.62891
1334.318, 150.7734
1335.381, 324.1992
1336.444, 450.6367
1337.507, 469.3945
1338.569, 47.56250
1339.632, 386.3047
1340.694, 275.8086
1341.756, 144.3320
1342.818, 428.8750
1343.880, 406.4258
1344.941, 264.0000
1346.003, 333.5859
1347.064, 347.2305
1348.125, 471.8477
1349.186, 240.5312
1350.247, 276.1797
1351.308, 126.8516
1352.368, 457.6602
1353.428, 106.3672
1354.489, 449.0859
1355.549, 311.8516
1356.608, 470.6016
1357.668, 164.3672
1358.727, 403.1523
1359.787, 327.9531
1360.846, 304.7656
1361.905, 220.6016
1362.964, 334.0742
1364.022, 340.9336
1365.081, 310.1562
1366.139, 444.0508
1367.197, 270.9570
1368.255, 239.8867
1369.313, 553.3359
1370.371, 246.2891
1371.428, 414.2617
1372.486, 192.2383
1373.543, 359.2305
1374.600, 314.2383
1375.657, 380.4414
1376.713, 147.5430
1377.770, 204.6953
1378.826, 143.7656
1379.882, 17.85156
1380.938, 34.95703
1381.994, 183.0742
1383.050, 209.3867
1384.106, 507.7031
1385.161, 423.4570
1386.216, 361.5938
1387.271, 184.7461
1388.326, 305.9141
1389.381, 297.0938
1390.435, 327.5820
1391.490, 110.7852
1392.544, 143.0039
1393.598, 199.2383
1394.652, 212.6445
1395.705, 332.8633
1396.759, 222.1016
1397.812, 248.0586
1398.866, 14.67578
1399.919, 418.6016
1400.972, 252.8945
1402.024, 474.1992
1403.077, 403.5469
1404.129, 312.8789
1405.181, 427.5078
1406.233, 272.0664
1407.285, 430.4102
1408.337, 390.7695
1409.389, 248.2070
1410.440, 262.5664
1411.491, 264.4805
1412.542, 376.4180
1413.593, 340.1523
1414.644, 479.5547
1415.695, 257.9844
1416.745, 147.3125
1417.795, 188.7227
1418.845, 250.0664
1419.895, 188.4219
1420.945, 192.0742
1421.995, 30.55469
1423.044, 325.2539
1424.093, 317.7305
1425.142, 2.875000
1426.191, 280.0312
1427.240, 182.1680
1428.289, 5.292969
1429.337, 498.4062
1430.385, 185.4727
1431.433, 153.4688
1432.481, 199.8516
1433.529, 69.61328
1434.577, 515.6289
1435.624, 125.3906
1436.672, 187.1055
1437.719, 428.5977
1438.766, 201.4258
1439.812, 290.0273
1440.859, 190.5508
1441.905, 84.33984
1442.952, 279.6836
1443.998, 100.3281
1445.044, 36.76172
1446.090, 171.5586
1447.135, 334.7930
1448.181, 189.4414
1449.226, 413.1328
1450.271, 56.85156
1451.316, 277.6094
1452.361, 570.3984
1453.405, 237.9766
1454.450, 129.7891
1455.494, 101.6250
1456.538, 343.4609
1457.582, 100.2969
1458.626, 22.83984
1459.670, 351.0352
1460.713, 508.9375
1461.757, 378.9062
1462.800, 102.9023
1463.843, 292.9102
1464.886, 67.05859
1465.928, 259.0039
1466.971, 84.07422
1468.013, 177.1641
1469.055, 81.27734
1470.097, 94.41406
1471.139, 152.5664
1472.181, 53.73047
1473.222, 182.9180
1474.263, 275.1289
1475.305, 384.3516
1476.346, 135.5938
1477.386, 46.85938
1478.427, 290.1211
1479.468, 658.3594
1480.508, 79.61328
1481.548, 293.8945
1482.588, 213.1797
1483.628, 122.4961
1484.668, 106.8242
1485.707, 229.4961
1486.747, 102.7266
1487.786, 19.02344
1488.825, 213.2422
1489.864, 196.5195
1490.902, 263.8125
1491.941, 134.1211
1492.979, 244.4297
1494.017, 0.2656250
1495.055, 299.0586
1496.093, 342.3945
1497.131, 180.8203
1498.168, 385.1484
1499.206, 286.5000
1500.243, 98.87891
1501.280, 128.2852
1502.317, 124.7266
1503.354, 307.2031
1504.390, 244.7188
1505.426, 223.9180
1506.463, 235.8750
1507.499, 120.5352
1508.535, 36.75000
1509.570, 5.734375
1510.606, 347.5352
1511.641, 226.2305
1512.676, 337.9570
1513.711, 396.7188
1514.746, 107.5039
1515.781, 247.4023
1516.816, 297.1836
1517.850, 483.9844
1518.884, 130.7422
1519.918, 427.3750
1520.952, 390.0156
1521.986, 133.4297
1523.019, 534.2188
1524.053, 342.8789
1525.086, 222.1992
1526.119, 218.7812
1527.152, 199.4336
1528.185, 288.0977
1529.217, 326.7734
1530.250, 93.32812
1531.282, 260.8281
1532.314, 289.3242
1533.346, 194.5859
1534.377, 290.2383
1535.409, 101.6211
1536.440, 102.1328
1537.472, 42.09766
1538.503, 410.3555
1539.534, 63.86719
1540.564, 430.6992
1541.595, 205.3516
1542.625, 306.8945
1543.656, 301.0742
1544.686, 163.4375
1545.716, 372.1016
1546.745, 0.8671880
1547.775, 114.0664
1548.804, 329.6406
1549.834, 283.6211
1550.863, 335.3008
1551.892, 201.5977
1552.920, 280.9258
1553.949, 235.2617
1554.977, 445.9062
1556.006, 74.59375
1557.034, 379.0430
1558.062, 496.0859
1559.089, 165.0508
1560.117, 291.1562
1561.144, 12.33203
1562.172, 112.9609
1563.199, 401.2891
1564.226, 189.8047
1565.252, 76.62891
1566.279, 173.2070
1567.305, 12.28125
1568.332, 141.2148
1569.358, 0.8281250
1570.384, 0.0000000E+00
##END=



