##NAMES=Albite
##RRUFFID=R040068
##IDEAL CHEMISTRY=NaAlSi_3_O_8_
##LOCALITY=Harding Pegmatite, Dixon, New Mexico, USA
##OWNER=RRUFF
##SOURCE=University of Arizona Mineral Museum
##DESCRIPTION=Tan colored crystal fragment
##STATUS=The identification of this mineral has been confirmed by X-ray diffraction and chemical analysis
##URL=rruff.info/R040068
##MEASURED CHEMISTRY=(Na_0.99_Ca_0.01_)Al_1.00_(Si_0.99_Al_0.01_)_3_O_8_
##PIN_ID=L00690
##ORIENTATION=Laser parallel to (0 1 1). Fiducial mark perpendicular to laser is parallel to a [1 0 0]
97.74200, 0.0000000E+00
98.98500, 66.43359
100.2270, 6.032715
101.4690, 33.59473
102.7110, 50.82910
103.9530, 214.3887
105.1950, 343.1348
106.4360, 651.4146
107.6780, 957.2632
108.9190, 1246.082
110.1600, 1561.396
111.4000, 2175.827
112.6410, 2951.068
113.8810, 3865.874
115.1210, 4646.107
116.3610, 4717.646
117.6010, 4406.335
118.8410, 4307.037
120.0800, 3734.634
121.3190, 2296.025
122.5580, 1096.126
123.7970, 1150.864
125.0360, 524.1758
126.2740, 271.0078
127.5130, 152.3135
128.7510, 181.0503
129.9890, 116.2285
131.2270, 105.1699
132.4640, 107.7524
133.7010, 75.73145
134.9390, 164.0117
136.1760, 38.56445
137.4120, 123.3594
138.6490, 147.3696
139.8860, 419.5762
141.1220, 407.9609
142.3580, 582.5117
143.5940, 734.2144
144.8300, 891.0591
146.0650, 1157.037
147.3000, 1597.141
148.5360, 2178.363
149.7710, 2604.698
151.0050, 2876.140
152.2400, 3089.083
153.4750, 3259.318
154.7090, 3107.044
155.9430, 2877.855
157.1770, 2569.745
158.4100, 2331.709
159.6440, 2440.746
160.8770, 2618.852
162.1100, 2780.013
163.3430, 2834.145
164.5760, 2681.430
165.8090, 2458.121
167.0410, 2234.909
168.2730, 2078.276
169.5050, 1770.781
170.7370, 1528.321
171.9690, 1535.962
173.2000, 1472.510
174.4320, 1273.035
175.6630, 1156.510
176.8940, 1086.948
178.1250, 1157.360
179.3550, 1145.754
180.5860, 1235.137
181.8160, 1378.513
183.0460, 1543.887
184.2760, 1780.262
185.5050, 1871.640
186.7350, 1984.854
187.9640, 2002.804
189.1930, 2036.813
190.4220, 1878.223
191.6510, 1706.641
192.8790, 1501.070
194.1080, 1416.520
195.3360, 1218.979
196.5640, 1110.477
197.7920, 908.0107
199.0190, 935.5547
200.2470, 896.1094
201.4740, 787.6719
202.7010, 986.2451
203.9280, 1043.826
205.1550, 1250.417
206.3820, 1650.016
207.6080, 1686.620
208.8340, 1978.230
210.0600, 1969.848
211.2860, 2046.470
212.5120, 1888.098
213.7370, 1630.732
214.9620, 1127.371
216.1870, 826.0156
217.4120, 489.6621
218.6370, 283.3145
219.8620, 199.9707
221.0860, 182.6309
222.3100, 85.29395
223.5340, 17.95996
224.7580, 20.37109
225.9820, 39.15137
227.2050, 90.42383
228.4280, 42.83203
229.6510, 33.52734
230.8740, 33.86914
232.0970, 73.75684
233.3190, 10.18848
234.5420, 54.77930
235.7640, 8.300781
236.9860, 75.16895
238.2080, 98.29785
239.4290, 0.3750000
240.6510, 67.10645
241.8720, 183.8135
243.0930, 215.3779
244.3140, 365.3682
245.5350, 473.5420
246.7550, 660.7832
247.9760, 888.6514
249.1960, 1119.959
250.4160, 1660.814
251.6360, 1870.865
252.8550, 1829.085
254.0750, 2028.453
255.2940, 1797.951
256.5130, 1451.564
257.7320, 883.2822
258.9510, 786.0938
260.1690, 595.9883
261.3880, 541.9609
262.6060, 579.0039
263.8240, 803.1104
265.0420, 898.2754
266.2600, 1095.494
267.4770, 1531.763
268.6940, 1739.076
269.9110, 1983.432
271.1280, 1985.826
272.3450, 1959.257
273.5620, 1664.721
274.7780, 1481.215
275.9940, 1435.740
277.2100, 1217.290
278.4260, 1332.863
279.6420, 1031.457
280.8570, 1064.069
282.0720, 1202.699
283.2880, 1288.342
284.5020, 1568.001
285.7170, 2093.673
286.9320, 2801.356
288.1460, 3325.613
289.3600, 4432.318
290.5740, 4983.033
291.7880, 5558.758
293.0020, 5648.490
294.2150, 5014.252
295.4290, 4335.000
296.6420, 3465.753
297.8550, 2675.512
299.0680, 1941.276
300.2800, 1362.046
301.4930, 1167.820
302.7050, 907.5986
303.9170, 774.3789
305.1290, 739.1641
306.3410, 609.9512
307.5520, 555.7402
308.7630, 536.5215
309.9750, 493.2852
311.1850, 466.9531
312.3960, 457.3037
313.6070, 416.4980
314.8170, 418.2197
316.0280, 391.9375
317.2380, 317.6504
318.4480, 199.3594
319.6570, 369.0635
320.8670, 267.7627
322.0760, 393.4707
323.2850, 218.1738
324.4940, 402.8789
325.7030, 552.5801
326.9120, 736.2773
328.1200, 921.9707
329.3290, 1004.661
330.5370, 1068.348
331.7450, 1179.028
332.9520, 1019.525
334.1600, 563.3779
335.3670, 698.0459
336.5750, 320.7148
337.7820, 211.3789
338.9880, 237.0381
340.1950, 121.6914
341.4020, 142.3906
342.6080, 117.9795
343.8140, 184.6211
345.0200, 118.2520
346.2260, 167.8779
347.4310, 214.4971
348.6370, 78.11035
349.8420, 146.7178
351.0470, 25.31836
352.2520, 2.087891
353.4570, 100.5088
354.6610, 170.9678
355.8660, 22.48535
357.0700, 66.02246
358.2740, 88.41016
359.4780, 78.16406
360.6810, 40.22754
361.8850, 23.61133
363.0880, 8.985352
364.2910, 1.651367
365.4940, 16.69629
366.6970, 145.9688
367.8990, 52.68555
369.1020, 62.43262
370.3040, 24.54492
371.5060, 121.1240
372.7080, 72.21875
373.9090, 166.9434
375.1110, 7.932617
376.3120, 89.25977
377.5130, 12.79102
378.7140, 53.94043
379.9150, 138.2578
381.1160, 32.05664
382.3160, 36.28223
383.5160, 44.46582
384.7170, 48.16992
385.9160, 14.88574
387.1160, 27.41992
388.3160, 38.74805
389.5150, 70.86914
390.7140, 114.4893
391.9130, 31.12793
393.1120, 17.23145
394.3110, 107.3877
395.5090, 229.0078
396.7080, 210.6309
397.9060, 281.2510
399.1040, 292.8711
400.3010, 476.4883
401.4990, 507.1045
402.6960, 508.7168
403.8940, 694.3311
405.0910, 763.9414
406.2880, 900.5703
407.4840, 1146.198
408.6810, 1336.854
409.8770, 1550.511
411.0730, 1445.161
412.2690, 1267.806
413.4650, 1246.443
414.6610, 1287.077
415.8560, 1514.702
417.0520, 1674.320
418.2470, 1724.931
419.4420, 1486.535
420.6360, 1326.131
421.8310, 918.7188
423.0250, 688.3594
424.2200, 456.9326
425.4140, 243.4980
426.6080, 119.0537
427.8010, 195.6230
428.9950, 73.18359
430.1880, 307.7363
431.3810, 30.28223
432.5740, 249.8135
433.7670, 216.2061
434.9600, 118.8477
436.1520, 347.3633
437.3450, 32.13184
438.5370, 236.3535
439.7290, 70.82812
440.9200, 81.29395
442.1120, 188.7510
443.3030, 277.1973
444.4950, 292.6348
445.6860, 166.0625
446.8770, 219.4805
448.0670, 197.8896
449.2580, 214.2891
450.4480, 364.6797
451.6380, 248.0605
452.8280, 369.6455
454.0180, 734.0098
455.2080, 600.3662
456.3970, 865.7500
457.5870, 793.0898
458.7760, 811.5508
459.9650, 739.8760
461.1540, 727.3359
462.3420, 830.7764
463.5310, 765.0684
464.7190, 876.1816
465.9070, 818.5293
467.0950, 965.9248
468.2830, 1173.184
469.4700, 1449.433
470.6570, 1868.039
471.8450, 2373.414
473.0320, 2759.633
474.2190, 3791.841
475.4050, 4926.041
476.5920, 6606.229
477.7780, 8653.406
478.9640, 10430.85
480.1500, 11627.01
481.3360, 11680.16
482.5220, 10942.29
483.7070, 9110.417
484.8920, 7773.535
486.0770, 5358.642
487.2620, 4032.738
488.4470, 3436.824
489.6320, 2682.900
490.8160, 2168.966
492.0000, 2159.021
493.1840, 1942.067
494.3680, 1959.045
495.5520, 1910.774
496.7350, 2070.278
497.9190, 2256.312
499.1020, 2867.619
500.2850, 3485.149
501.4680, 4457.128
502.6510, 5669.809
503.8330, 7626.770
505.0150, 10133.46
506.1970, 13103.45
507.3790, 15695.77
508.5610, 17316.08
509.7430, 17024.26
510.9240, 15764.26
512.1050, 13044.60
513.2870, 9940.122
514.4670, 7516.016
515.6480, 5490.812
516.8290, 4267.710
518.0090, 3455.504
519.1890, 2731.389
520.3690, 2112.195
521.5490, 2023.107
522.7290, 1693.176
523.9090, 1283.584
525.0880, 1187.705
526.2670, 955.8359
527.4460, 1031.798
528.6250, 747.3721
529.8040, 846.9736
530.9820, 597.8721
532.1600, 589.9219
533.3380, 678.3652
534.5160, 665.0312
535.6940, 633.1875
536.8720, 534.1455
538.0490, 498.4033
539.2270, 406.2207
540.4040, 256.1611
541.5810, 265.0342
542.7570, 221.8369
543.9340, 281.8369
545.1100, 236.6934
546.2870, 344.7217
547.4630, 319.0488
548.6380, 273.2070
549.8140, 238.3789
550.9900, 341.1279
552.1650, 287.0068
553.3400, 225.8467
554.5150, 125.6211
555.6900, 242.5635
556.8650, 270.3115
558.0390, 189.0459
559.2140, 183.7734
560.3880, 171.4951
561.5620, 105.2100
562.7360, 196.9189
563.9090, 41.85645
565.0830, 194.6406
566.2560, 346.3320
567.4290, 116.1133
568.6020, 255.4395
569.7750, 204.2891
570.9470, 369.1191
572.1200, 242.1982
573.2920, 198.2900
574.4640, 283.9375
575.6360, 346.5781
576.8080, 318.6494
577.9790, 506.2783
579.1510, 525.3359
580.3220, 447.9502
581.4930, 348.5742
582.6640, 474.1914
583.8350, 450.8018
585.0050, 322.4053
586.1750, 372.0205
587.3460, 243.6318
588.5160, 213.2363
589.6850, 230.8887
590.8550, 178.5361
592.0250, 121.3789
593.1940, 58.77148
594.3630, 144.2998
595.5320, 152.8291
596.7010, 40.22168
597.8700, 91.28516
599.0380, 36.78613
600.2060, 67.59277
601.3740, 33.07910
602.5420, 35.55762
603.7100, 160.1504
604.8780, 36.94043
606.0450, 53.55078
607.2120, 10.02344
608.3800, 145.3857
609.5460, 72.78809
610.7130, 6.203125
611.8800, 35.60840
613.0460, 110.0049
614.2120, 186.3955
615.3790, 130.7812
616.5440, 88.15820
617.7100, 214.5283
618.8760, 13.10840
620.0410, 71.23633
621.2060, 258.5938
622.3710, 91.94531
623.5360, 277.2910
624.7010, 103.6309
625.8650, 203.9707
627.0300, 95.30371
628.1940, 98.63184
629.3580, 278.9619
630.5220, 135.2861
631.6850, 169.6260
632.8490, 165.9590
634.0120, 282.2861
635.1750, 364.6064
636.3380, 325.9277
637.5010, 362.2754
638.6640, 350.6680
639.8260, 339.0820
640.9890, 298.5146
642.1510, 279.7451
643.3130, 258.6982
644.4750, 234.8730
645.6360, 231.3232
646.7980, 245.2129
647.9590, 262.2217
649.1200, 249.6699
650.2810, 271.1699
651.4420, 278.6865
652.6020, 288.2305
653.7630, 211.7725
654.9230, 198.3564
656.0830, 88.86426
657.2430, 99.41504
658.4030, 83.96484
659.5620, 28.53125
660.7220, 71.84668
661.8810, 35.68359
663.0400, 90.25293
664.1990, 91.83594
665.3580, 21.42969
666.5160, 8.985352
667.6750, 6.580078
668.8330, 81.13867
669.9910, 75.71094
671.1490, 34.29199
672.3070, 32.13574
673.4640, 134.4053
674.6210, 51.94043
675.7790, 123.4775
676.9360, 8.007813
678.0930, 134.5361
679.2490, 56.05664
680.4060, 71.56738
681.5620, 88.07031
682.7180, 39.56543
683.8740, 5.949219
685.0300, 31.51758
686.1860, 77.02441
687.3410, 15.37500
688.4970, 122.2363
689.6520, 3.925781
690.8070, 62.43359
691.9620, 70.71484
693.1160, 84.98828
694.2710, 44.25293
695.4250, 89.01758
696.5790, 116.4404
697.7330, 139.6777
698.8870, 144.9375
700.0410, 145.2588
701.1940, 112.4717
702.3480, 38.67578
703.5010, 73.81055
704.6540, 98.99609
705.8060, 72.13184
706.9590, 60.66211
708.1120, 53.45605
709.2640, 56.56445
710.4160, 16.66211
711.5680, 168.7471
712.7200, 298.0664
713.8710, 103.1367
715.0230, 24.80078
716.1740, 225.2314
717.3250, 72.74512
718.4760, 164.3467
719.6270, 158.7041
720.7780, 293.6709
721.9280, 167.6289
723.0780, 254.6104
724.2280, 159.7617
725.3780, 288.1611
726.5280, 114.1455
727.6780, 93.05762
728.8270, 92.95996
729.9760, 44.74219
731.1250, 41.73340
732.2740, 13.54395
733.4230, 115.5010
734.5720, 21.38379
735.7200, 168.4854
736.8680, 149.3086
738.0160, 34.99023
739.1640, 161.7881
740.3120, 245.6582
741.4600, 76.46582
742.6070, 5.729492
743.7540, 89.25098
744.9010, 258.1709
746.0480, 154.7764
747.1950, 148.7061
748.3420, 248.7822
749.4880, 307.1973
750.6340, 295.7451
751.7800, 202.4297
752.9260, 510.2168
754.0720, 325.8838
755.2180, 423.5400
756.3630, 622.1875
757.5080, 657.5977
758.6530, 1099.853
759.7980, 1314.806
760.9430, 1508.265
762.0880, 1928.170
763.2320, 2319.285
764.3760, 2522.865
765.5200, 2460.435
766.6640, 2464.215
767.8080, 2018.765
768.9510, 1536.753
770.0950, 1204.283
771.2380, 970.8027
772.3810, 831.3105
773.5240, 724.9668
774.6670, 625.4570
775.8090, 659.9736
776.9520, 566.2178
778.0940, 544.6748
779.2360, 533.8105
780.3780, 438.2441
781.5200, 433.6680
782.6610, 240.0801
783.8030, 492.4795
784.9440, 163.8691
786.0850, 298.2471
787.2260, 274.9893
788.3660, 255.3438
789.5070, 230.3574
790.6470, 216.9941
791.7880, 195.7637
792.9280, 196.1738
794.0680, 189.4678
795.2070, 189.7676
796.3470, 254.4453
797.4860, 253.5654
798.6250, 292.4023
799.7650, 284.6152
800.9030, 287.3574
802.0420, 281.0312
803.1810, 276.3867
804.3190, 239.4678
805.4570, 235.2168
806.5950, 205.5176
807.7330, 311.6289
808.8710, 324.5527
810.0090, 330.0684
811.1460, 512.1709
812.2830, 522.1230
813.4200, 979.1992
814.5570, 954.8174
815.6940, 1080.867
816.8300, 790.7773
817.9670, 1120.737
819.1030, 889.7471
820.2390, 818.5439
821.3750, 553.4678
822.5110, 533.2002
823.6460, 392.6162
824.7820, 318.1846
825.9170, 258.7197
827.0520, 105.6621
828.1870, 255.4541
829.3220, 134.2666
830.4560, 233.1279
831.5910, 255.8047
832.7250, 22.65625
833.8590, 188.5020
834.9930, 113.3359
836.1270, 96.15918
837.2600, 180.9697
838.3940, 194.7686
839.5270, 334.3242
840.6600, 303.2129
841.7930, 181.7764
842.9260, 233.4336
844.0580, 285.5264
845.1910, 166.0801
846.3230, 171.6348
847.4550, 174.9229
848.5870, 55.62012
849.7190, 226.3047
850.8510, 128.9795
851.9820, 132.2031
853.1130, 156.8564
854.2440, 79.04004
855.3750, 33.32812
856.5060, 151.2607
857.6370, 116.8408
858.7670, 95.41113
859.8970, 47.02930
861.0280, 18.48145
862.1580, 86.98047
863.2870, 191.4668
864.4170, 164.8906
865.5460, 102.3008
866.6760, 106.5000
867.8050, 63.67480
868.9340, 74.59375
870.0630, 90.03613
871.1910, 49.95703
872.3200, 187.4434
873.4480, 181.8350
874.5760, 102.9023
875.7040, 42.27344
876.8320, 56.63477
877.9600, 87.86426
879.0870, 80.76172
880.2140, 34.04785
881.3420, 172.3799
882.4690, 42.70996
883.5950, 52.97168
884.7220, 72.29980
885.8490, 119.5635
886.9750, 98.81934
888.1010, 63.06543
889.2270, 152.3018
890.3530, 170.5303
891.4790, 269.7480
892.6040, 75.95898
893.7300, 58.83301
894.8550, 42.32520
895.9800, 155.4736
897.1050, 17.61230
898.2290, 10.25781
899.3540, 280.8477
900.4780, 242.9443
901.6030, 21.96680
902.7270, 211.0938
903.8500, 73.85352
904.9740, 126.1436
906.0980, 83.13281
907.2210, 152.1436
908.3440, 41.14746
909.4670, 111.1406
910.5900, 68.12793
911.7130, 48.89258
912.8360, 240.0469
913.9580, 48.02246
915.0800, 171.8701
916.2020, 125.7549
917.3240, 216.6318
918.4460, 273.5029
919.5680, 90.36719
920.6890, 128.2236
921.8100, 44.90820
922.9320, 114.9229
924.0520, 34.25195
925.1730, 52.54492
926.2940, 62.33398
927.4140, 4.882813
928.5350, 75.88477
929.6550, 60.64648
930.7750, 79.59668
931.8950, 15.29492
933.0140, 31.37012
934.1340, 22.44824
935.2530, 13.90039
936.3720, 99.73438
937.4910, 8.362305
938.6100, 72.01074
939.7290, 188.6611
940.8470, 14.69434
941.9650, 94.93555
943.0840, 138.5596
944.2020, 53.17969
945.3200, 62.80566
946.4370, 201.4277
947.5550, 142.0449
948.6720, 30.34375
949.7890, 147.2490
950.9060, 148.8340
952.0230, 90.41797
953.1400, 165.9961
954.2560, 231.5723
955.3730, 223.6738
956.4890, 281.0293
957.6050, 238.2891
958.7210, 276.8828
959.8370, 220.4727
960.9520, 241.7051
962.0680, 259.6504
963.1830, 251.2715
964.2980, 323.8906
965.4130, 307.5039
966.5280, 377.1152
967.6430, 453.0410
968.7570, 337.6465
969.8710, 669.2207
970.9850, 475.7207
972.0990, 512.3164
973.2130, 744.9121
974.3270, 703.5039
975.4400, 910.0957
976.5540, 877.6855
977.6670, 1155.271
978.7800, 1446.873
979.8930, 1299.477
981.0050, 1278.078
982.1180, 1181.678
983.2300, 1023.037
984.3420, 803.6309
985.4540, 632.2246
986.5660, 580.8281
987.6780, 498.4277
988.7890, 315.9453
989.9010, 224.1855
991.0120, 188.8066
992.1230, 172.4355
993.2340, 127.2227
994.3450, 245.4453
995.4550, 102.6055
996.5660, 297.1680
997.6760, 355.7910
998.7860, 148.4160
999.8960, 270.0410
1001.006, 348.6641
1002.115, 259.1387
1003.225, 269.6621
1004.334, 469.2539
1005.443, 475.5762
1006.552, 676.2031
1007.661, 482.8340
1008.770, 470.4629
1009.878, 494.8652
1010.986, 579.3320
1012.095, 561.9316
1013.203, 458.5137
1014.310, 436.9023
1015.418, 631.5410
1016.526, 501.0664
1017.633, 467.3477
1018.740, 496.2891
1019.847, 359.4180
1020.954, 471.1914
1022.061, 256.7207
1023.167, 267.3672
1024.274, 413.0176
1025.380, 401.6680
1026.486, 445.2715
1027.592, 388.2988
1028.698, 561.7695
1029.803, 408.4277
1030.909, 607.7812
1032.014, 802.9141
1033.119, 520.5762
1034.224, 678.2422
1035.329, 655.6875
1036.433, 490.3574
1037.538, 340.5801
1038.642, 438.3164
1039.746, 253.7441
1040.850, 335.5371
1041.954, 331.1699
1043.058, 288.9668
1044.161, 334.7422
1045.265, 205.7812
1046.368, 214.5996
1047.471, 551.7344
1048.574, 275.5605
1049.676, 203.3906
1050.779, 470.2227
1051.881, 288.0586
1052.984, 191.8965
1054.086, 142.6484
1055.188, 210.1172
1056.289, 136.9648
1057.391, 302.4746
1058.492, 86.26562
1059.594, 224.1035
1060.695, 27.19336
1061.796, 147.0605
1062.897, 98.91406
1063.997, 54.37891
1065.098, 83.90625
1066.198, 41.86719
1067.298, 173.1699
1068.398, 74.85742
1069.498, 107.7559
1070.598, 254.8047
1071.697, 285.7168
1072.797, 184.6328
1073.896, 292.4023
1074.995, 100.3301
1076.094, 197.2734
1077.192, 131.2207
1078.291, 275.1738
1079.389, 250.1328
1080.488, 432.0957
1081.586, 215.1094
1082.684, 243.1152
1083.781, 437.1621
1084.879, 477.3926
1085.976, 638.7598
1087.074, 792.2891
1088.171, 938.1133
1089.268, 1053.674
1090.365, 1208.662
1091.461, 1347.523
1092.558, 1485.867
1093.654, 1645.887
1094.750, 1765.742
1095.846, 1925.410
1096.942, 2157.434
1098.038, 2497.545
1099.134, 2874.658
1100.229, 2511.777
1101.324, 2621.902
1102.419, 2652.035
1103.514, 2300.170
1104.609, 2077.312
1105.704, 1738.457
1106.798, 1653.607
1107.892, 1542.764
1108.986, 1301.922
1110.080, 1348.088
1111.174, 1335.258
1112.268, 1225.432
1113.361, 1251.611
1114.455, 1204.795
1115.548, 1259.986
1116.641, 1189.180
1117.734, 1182.381
1118.826, 1054.584
1119.919, 904.7930
1121.011, 787.0078
1122.104, 641.2617
1123.196, 546.8125
1124.288, 419.1641
1125.379, 357.4121
1126.471, 373.6836
1127.562, 284.9609
1128.654, 242.2441
1129.745, 162.5312
1130.836, 51.82227
1131.927, 339.1172
1133.017, 476.4258
1134.108, 245.7422
1135.198, 309.0605
1136.288, 248.3848
1137.378, 83.73242
1138.468, 151.0840
1139.558, 98.43945
1140.647, 304.8008
1141.737, 106.1660
1142.826, 10.53906
1143.915, 336.9160
1145.004, 164.2969
1146.093, 202.6836
1147.181, 7.925781
1148.270, 2.468750
1149.358, 231.8887
1150.446, 35.31055
1151.534, 172.7383
1152.622, 162.1680
1153.710, 248.6055
1154.797, 196.0664
1155.885, 178.5137
1156.972, 32.96289
1158.059, 79.41602
1159.146, 225.8945
1160.232, 98.37891
1161.319, 117.8652
1162.405, 25.35742
1163.492, 122.8633
1164.578, 60.37109
1165.664, 50.97852
1166.749, 153.5039
1167.835, 231.0371
1168.921, 27.88086
1170.006, 122.7949
1171.091, 294.7129
1172.176, 25.22070
1173.261, 84.11133
1174.346, 155.7148
1175.430, 118.2324
1176.514, 256.7676
1177.599, 163.5000
1178.683, 78.05664
1179.767, 181.6152
1180.850, 82.17578
1181.934, 174.7402
1183.017, 160.3047
1184.101, 75.12500
1185.184, 233.4102
1186.267, 120.9609
1187.350, 11.48438
1188.432, 140.0781
1189.515, 84.64648
1190.597, 86.21484
1191.679, 169.7891
1192.761, 43.36523
1193.843, 47.94336
1194.925, 97.54688
1196.006, 248.1582
1197.088, 80.78125
1198.169, 54.40820
1199.250, 125.0410
1200.331, 110.2617
1201.412, 240.4180
1202.493, 70.04297
1203.573, 126.6523
1204.653, 6.265625
1205.734, 22.82812
1206.814, 137.8457
1207.893, 77.46484
1208.973, 83.08203
1210.053, 149.7031
1211.132, 148.0527
1212.211, 208.0742
1213.290, 174.3301
1214.369, 267.9590
1215.448, 181.5879
1216.527, 91.21875
1217.605, 222.8496
1218.683, 191.4785
1219.761, 0.8886720
1220.839, 326.7363
1221.917, 285.3613
1222.995, 111.9863
1224.072, 173.6133
1225.150, 280.2383
1226.227, 434.8652
1227.304, 399.7285
1228.381, 180.1133
1229.458, 313.7383
1230.534, 291.3613
1231.611, 150.9844
1232.687, 145.6055
1233.763, 331.2305
1234.839, 174.8516
1235.915, 201.4727
1236.991, 151.0918
1238.066, 122.7109
1239.141, 144.3301
1240.217, 298.9492
1241.292, 213.0547
1242.366, 277.1797
1243.441, 196.7949
1244.516, 123.4102
1245.590, 221.0234
1246.664, 126.6367
1247.739, 207.2480
1248.813, 167.8574
1249.886, 332.4688
1250.960, 272.0742
1252.033, 27.31836
1253.107, 215.2656
1254.180, 114.8594
1255.253, 108.4512
1256.326, 266.0410
1257.399, 175.6426
1258.471, 141.2422
1259.544, 290.8418
1260.616, 254.4395
1261.688, 284.7812
1262.760, 164.3750
1263.832, 269.9688
1264.903, 272.5586
1265.975, 251.4766
1267.046, 299.7344
1268.117, 241.3184
1269.188, 322.9023
1270.259, 302.4824
1271.330, 364.0605
1272.400, 268.6367
1273.471, 233.2109
1274.541, 336.7832
1275.611, 410.3535
1276.681, 60.82422
1277.751, 270.3867
1278.821, 194.9492
1279.890, 59.50781
1280.959, 120.0645
1282.029, 184.6191
1283.098, 3.171875
1284.166, 218.7109
1285.235, 89.24805
1286.304, 154.7812
1287.372, 144.3125
1288.440, 221.8418
1289.508, 142.3691
1290.576, 188.8906
1291.644, 185.4121
1292.712, 267.9316
1293.779, 42.44531
1294.847, 334.9531
1295.914, 128.4629
1296.981, 205.0312
1298.048, 164.6523
1299.114, 149.9824
1300.181, 123.2559
1301.247, 17.52734
1302.314, 29.20898
1303.380, 76.02148
1304.446, 147.2520
1305.512, 25.48047
1306.577, 264.7012
1307.643, 119.9199
1308.708, 236.1367
1309.773, 278.3613
1310.838, 69.58203
1311.903, 319.8008
1312.968, 264.1074
1314.032, 172.3828
1315.097, 373.5918
1316.161, 309.4707
1317.225, 147.6758
1318.289, 345.8770
1319.353, 151.0781
1320.417, 262.2754
1321.480, 297.4707
1322.543, 365.6621
1323.607, 355.8613
1324.670, 171.0391
1325.733, 235.2188
1326.795, 198.3984
1327.858, 6.337891
1328.920, 45.14453
1329.983, 58.30273
1331.045, 147.4590
1332.107, 131.5957
1333.169, 33.26758
1334.230, 162.8125
1335.292, 225.8574
1336.353, 64.89844
1337.414, 138.9375
1338.475, 109.0273
1339.536, 174.9688
1340.597, 101.0371
1341.658, 225.9219
1342.718, 189.8770
1343.778, 176.8281
1344.839, 561.7773
1345.899, 127.7227
1346.958, 177.6621
1348.018, 260.2559
1349.078, 187.1914
1350.137, 197.1230
1351.196, 140.0527
1352.255, 212.0273
1353.314, 223.9473
1354.373, 197.8672
1355.432, 224.7832
1356.490, 115.6934
1357.549, 191.6035
1358.607, 341.5078
1359.665, 131.4004
1360.723, 175.2852
1361.780, 103.1699
1362.838, 327.0488
1363.895, 232.9238
1364.953, 304.7949
1366.010, 296.6641
1367.067, 278.7285
1368.123, 406.3887
1369.180, 255.2461
1370.237, 401.0996
1371.293, 366.9473
1372.349, 320.7930
1373.405, 375.6348
1374.461, 185.4727
1375.517, 166.3066
1376.572, 340.1367
1377.628, 204.9629
1378.683, 178.7871
1379.738, 326.1699
1380.793, 253.4961
1381.848, 248.3145
1382.903, 151.1289
1383.957, 326.1094
1385.012, 219.9238
1386.066, 350.7324
1387.120, 229.5391
1388.174, 5.654297
1389.228, 247.1406
1390.281, 117.9336
1391.335, 281.7227
1392.388, 120.4707
1393.441, 227.2148
1394.495, 192.9590
1395.547, 247.6973
1396.600, 250.8789
1397.653, 253.1582
1398.705, 262.9160
1399.757, 228.6543
1400.810, 284.3906
1401.861, 197.1270
1402.913, 300.8613
1403.965, 286.5977
1405.017, 366.3301
1406.068, 126.0625
1407.119, 174.7969
1408.170, 144.5312
1409.221, 172.2637
1410.272, 72.97656
1411.322, 263.7129
1412.373, 214.4473
1413.423, 331.1836
1414.473, 144.9219
1415.523, 78.66211
1416.573, 317.4023
1417.623, 252.1465
1418.673, 439.8535
1419.722, 230.5117
1420.771, 174.0762
1421.820, 323.7344
1422.869, 127.3926
1423.918, 294.7656
1424.967, 63.66211
1426.015, 240.3555
1427.064, 308.0508
1428.112, 105.3711
1429.160, 400.9863
1430.208, 224.6914
1431.256, 212.3984
1432.303, 445.9160
1433.351, 72.63086
1434.398, 351.3516
1435.445, 286.7539
1436.492, 486.4785
1437.539, 525.2109
1438.586, 416.5254
1439.632, 24.72461
1440.679, 268.5078
1441.725, 177.3027
1442.771, 295.1133
1443.817, 241.9395
1444.863, 345.7812
1445.909, 84.48633
1446.954, 272.5605
1447.999, 207.2637
1449.045, 178.9590
1450.090, 302.6367
1451.135, 315.2617
1452.179, 249.8691
1453.224, 66.52734
1454.269, 258.0332
1455.313, 157.9219
1456.357, 170.8906
1457.401, 347.4453
1458.445, 253.3887
1459.489, 181.8535
1460.532, 265.6914
1461.576, 239.4805
1462.619, 148.2637
1463.662, 296.0430
1464.705, 80.82422
1465.748, 392.5996
1466.791, 181.3711
1467.833, 76.14062
1468.875, 181.9023
1469.918, 263.6602
1470.960, 215.4160
1472.002, 136.1660
1473.044, 223.9121
1474.085, 61.65234
1475.127, 224.3926
1476.168, 160.1250
1477.209, 9.855469
1478.250, 356.5820
1479.291, 284.3027
1480.332, 133.0352
1481.372, 82.75000
1482.413, 245.4238
1483.453, 425.0918
1484.493, 269.4531
1485.533, 682.0879
1486.573, 91.71289
1487.613, 67.33594
1488.652, 175.9551
1489.692, 277.5684
1490.731, 252.1777
1491.770, 302.7812
1492.809, 365.5293
1493.848, 346.9688
1494.887, 385.5605
1495.925, 248.1562
1496.964, 272.0215
1498.002, 254.3242
1499.040, 291.8965
1500.078, 303.4668
1501.116, 462.0273
1502.153, 119.8652
1503.191, 87.78516
1504.228, 201.7363
1505.265, 39.28320
1506.302, 218.7031
1507.339, 67.67773
1508.376, 49.37109
1509.412, 182.4746
1510.449, 224.4277
1511.485, 223.3828
1512.521, 345.3379
1513.557, 344.2891
1514.593, 132.2441
1515.629, 141.2031
1516.664, 208.6094
1517.700, 324.4297
1518.735, 30.30469
1519.770, 328.4004
1520.805, 115.5762
1521.840, 234.7598
1522.875, 194.9570
1523.909, 358.1641
1524.943, 378.3848
1525.978, 299.6172
1527.012, 242.8633
1528.046, 151.0078
1529.079, 117.2812
1530.113, 238.5762
1531.147, 135.8887
1532.180, 163.2852
1533.213, 386.7090
1534.246, 266.1621
1535.279, 441.6484
1536.312, 159.1719
1537.344, 61.73438
1538.377, 183.3379
1539.409, 259.9902
1540.441, 113.6855
1541.473, 238.4160
1542.505, 29.50586
1543.537, 303.7539
1544.569, 266.9746
1545.600, 158.2031
1546.631, 265.4375
1547.662, 136.8418
1548.693, 120.4434
1549.724, 197.0684
1550.755, 128.7129
1551.785, 322.3711
1552.816, 199.0469
1553.846, 278.7441
1554.876, 100.4590
1555.906, 307.1836
1556.936, 133.9023
1557.966, 48.61523
1558.995, 37.69141
1560.024, 267.9648
1561.054, 190.4922
1562.083, 228.5156
1563.112, 145.7363
1564.140, 132.5371
1565.169, 90.80273
1566.198, 130.7246
1567.226, 58.99219
1568.254, 161.7070
1569.282, 144.3164
1570.310, 2.761719
1571.338, 117.2656
1572.365, 165.7246
1573.393, 203.2422
1574.420, 76.86719
1575.447, 122.3594
1576.474, 124.4570
1577.501, 0.0000000E+00
##END=



