##NAMES=Albite
##RRUFFID=R040068
##IDEAL CHEMISTRY=NaAlSi_3_O_8_
##LOCALITY=Harding Pegmatite, Dixon, New Mexico, USA
##OWNER=RRUFF
##SOURCE=University of Arizona Mineral Museum
##DESCRIPTION=Tan colored crystal fragment
##STATUS=The identification of this mineral has been confirmed by X-ray diffraction and chemical analysis
##URL=rruff.info/R040068
##MEASURED CHEMISTRY=(Na_0.99_Ca_0.01_)Al_1.00_(Si_0.99_Al_0.01_)_3_O_8_
##PIN_ID=L00690
##ORIENTATION=Laser parallel to (0 1 1). Fiducial mark perpendicular to laser is parallel to a [1 0 0]
97.74200, 0.0000000E+00
98.98500, 3.608398
100.2270, 137.8135
101.4690, 14.81445
102.7110, 15.20410
103.9530, 246.3682
105.1950, 166.3281
106.4360, 285.1641
107.6780, 789.7891
108.9190, 1074.409
110.1600, 1354.411
111.4000, 1714.309
112.6410, 2453.717
113.8810, 3065.318
115.1210, 3493.850
116.3610, 3468.110
117.6010, 3259.932
118.8410, 3000.164
120.0800, 2473.672
121.3190, 1494.331
122.5580, 897.0352
123.7970, 674.6943
125.0360, 362.2275
126.2740, 363.5625
127.5130, 95.63770
128.7510, 72.39453
129.9890, 234.7852
131.2270, 211.7686
132.4640, 180.3154
133.7010, 98.42773
134.9390, 73.10742
136.1760, 298.3213
137.4120, 321.0088
138.6490, 666.1240
139.8860, 693.6279
141.1220, 898.4893
142.3580, 1123.681
143.5940, 1635.179
144.8300, 1990.962
146.0650, 2205.020
147.3000, 2617.335
148.5360, 2797.896
149.7710, 3173.698
151.0050, 3066.727
152.2400, 3344.971
153.4750, 3153.417
154.7090, 3491.058
155.9430, 3339.879
157.1770, 3374.877
158.4100, 3685.039
159.6440, 4244.359
160.8770, 4858.832
162.1100, 5425.445
163.3430, 5503.250
164.5760, 5237.175
165.8090, 5164.404
167.0410, 4386.877
168.2730, 3986.982
169.5050, 3499.372
170.7370, 3345.250
171.9690, 3057.478
173.2000, 3075.595
174.4320, 3026.620
175.6630, 2951.582
176.8940, 3062.503
178.1250, 3194.397
179.3550, 3443.275
180.5860, 3973.151
181.8160, 4228.027
183.0460, 4710.914
184.2760, 5307.812
185.5050, 5667.729
186.7350, 5745.670
187.9640, 5738.633
189.1930, 5256.623
190.4220, 4794.645
191.6510, 4301.740
192.8790, 3557.911
194.1080, 3072.111
195.3360, 2506.343
196.5640, 2439.670
197.7920, 2204.043
199.0190, 1918.529
200.2470, 1774.133
201.4740, 1717.766
202.7010, 1854.426
203.9280, 2138.108
205.1550, 2363.814
206.3820, 2940.550
207.6080, 3270.309
208.8340, 3655.093
210.0600, 4011.902
211.2860, 3752.733
212.5120, 3388.589
213.7370, 2764.468
214.9620, 2108.369
216.1870, 1608.291
217.4120, 1278.234
218.6370, 840.2002
219.8620, 635.1846
221.0860, 505.1895
222.3100, 355.2129
223.5340, 306.2539
224.7580, 132.3125
225.9820, 124.3887
227.2050, 0.5166020
228.4280, 84.59180
229.6510, 25.71582
230.8740, 30.26074
232.0970, 6.370117
233.3190, 39.74609
234.5420, 180.7490
235.7640, 89.49707
236.9860, 231.5928
238.2080, 127.5928
239.4290, 85.00098
240.6510, 271.7227
241.8720, 253.5576
243.0930, 393.9424
244.3140, 429.4463
245.5350, 687.3203
246.7550, 954.9395
247.9760, 1187.229
249.1960, 1745.909
250.4160, 2033.621
251.6360, 2521.911
252.8550, 2534.449
254.0750, 2445.206
255.2940, 2294.160
256.5130, 1611.291
257.7320, 1406.584
258.9510, 800.0254
260.1690, 746.6006
261.3880, 582.3018
262.6060, 465.1182
263.8240, 626.0430
265.0420, 938.0684
266.2600, 980.1865
267.4770, 1285.394
268.6940, 1530.682
269.9110, 1696.047
271.1280, 1829.484
272.3450, 1899.990
273.5620, 1835.561
274.7780, 1437.191
275.9940, 1453.881
277.2100, 1273.623
278.4260, 1328.418
279.6420, 1563.262
280.8570, 1640.152
282.0720, 2025.086
283.2880, 2560.061
284.5020, 3348.676
285.7170, 4284.727
286.9320, 5750.809
288.1460, 7530.928
289.3600, 9294.074
290.5740, 10960.26
291.7880, 11375.46
293.0020, 11298.64
294.2150, 10488.90
295.4290, 8691.041
296.6420, 6818.350
297.8550, 5019.359
299.0680, 3722.609
300.2800, 2843.980
301.4930, 2222.369
302.7050, 1700.908
303.9170, 1306.332
305.1290, 959.7715
306.3410, 1049.225
307.5520, 824.6953
308.7630, 855.1758
309.9750, 630.6719
311.1850, 496.1797
312.3960, 788.7227
313.6070, 455.2734
314.8170, 555.8477
316.0280, 561.4258
317.2380, 452.0078
318.4480, 288.5898
319.6570, 411.1738
320.8670, 451.7617
322.0760, 480.3574
323.2850, 761.9512
324.4940, 889.5645
325.7030, 1460.180
326.9120, 1948.797
328.1200, 2268.416
329.3290, 2706.041
330.5370, 2882.664
331.7450, 2462.291
332.9520, 2233.922
334.1600, 1714.555
335.3670, 1089.189
336.5750, 825.8242
337.7820, 565.4570
338.9880, 570.0938
340.1950, 441.7305
341.4020, 308.3652
342.6080, 358.0020
343.8140, 281.6367
345.0200, 163.2676
346.2260, 239.8945
347.4310, 253.5234
348.6370, 181.1465
349.8420, 40.76758
351.0470, 285.3867
352.2520, 164.0020
353.4570, 61.61328
354.6610, 124.5391
355.8660, 64.04492
357.0700, 76.42383
358.2740, 45.01758
359.4780, 40.60938
360.6810, 63.80273
361.8850, 98.75977
363.0880, 7.683594
364.2910, 14.86133
365.4940, 99.40234
366.6970, 103.9375
367.8990, 29.53320
369.1020, 24.02148
370.3040, 95.70703
371.5060, 112.0664
372.7080, 153.6699
373.9090, 104.3008
375.1110, 2.031250
376.3120, 83.67188
377.5130, 36.53711
378.7140, 7.208984
379.9150, 15.00391
381.1160, 178.8535
382.3160, 94.85156
383.5160, 79.91992
384.7170, 140.0371
385.9160, 27.75781
387.1160, 135.5176
388.3160, 60.88477
389.5150, 6.666016
390.7140, 114.2188
391.9130, 127.7891
393.1120, 288.3867
394.3110, 238.9980
395.5090, 256.6582
396.7080, 298.3242
397.9060, 388.9980
399.1040, 467.3555
400.3010, 589.3574
401.4990, 693.0391
402.6960, 722.9355
403.8940, 932.3223
405.0910, 1096.287
406.2880, 1216.297
407.4840, 1222.254
408.6810, 1328.330
409.8770, 1365.445
411.0730, 1380.037
412.2690, 1441.459
413.4650, 1358.262
414.6610, 1377.566
415.8560, 1327.160
417.0520, 1278.650
418.2470, 1163.746
419.4420, 1044.395
420.6360, 812.0352
421.8310, 585.6875
423.0250, 487.3652
424.2200, 349.0352
425.4140, 85.69531
426.6080, 143.3496
427.8010, 66.00195
428.9950, 103.6055
430.1880, 149.2207
431.3810, 144.8281
432.5740, 107.4238
433.7670, 196.0176
434.9600, 116.6016
436.1520, 35.81836
437.3450, 111.7051
438.5370, 38.22070
439.7290, 184.7188
440.9200, 20.20117
442.1120, 112.3379
443.3030, 15.02539
444.4950, 170.3594
445.6860, 70.68359
446.8770, 213.9922
448.0670, 88.29297
449.2580, 270.5781
450.4480, 442.8555
451.6380, 427.1250
452.8280, 303.6465
454.0180, 561.0840
455.2080, 484.0527
456.3970, 862.3145
457.5870, 747.6543
458.7760, 905.1074
459.9650, 1006.309
461.1540, 690.4961
462.3420, 893.6914
463.5310, 861.1250
464.7190, 890.0488
465.9070, 900.1875
467.0950, 831.3867
468.2830, 1245.570
469.4700, 1482.805
470.6570, 1639.037
471.8450, 2272.109
473.0320, 3090.270
474.2190, 3969.312
475.4050, 5474.889
476.5920, 6767.906
477.7780, 9086.910
478.9640, 10790.90
480.1500, 12074.05
481.3360, 11985.14
482.5220, 11174.09
483.7070, 9254.020
484.8920, 7273.938
486.0770, 5763.836
487.2620, 4347.721
488.4470, 3229.596
489.6320, 2751.451
490.8160, 2695.295
492.0000, 2329.121
493.1840, 2315.932
494.3680, 2127.729
495.5520, 2329.512
496.7350, 2520.279
497.9190, 2880.031
499.1020, 3511.770
500.2850, 4144.492
501.4680, 5536.199
502.6510, 7112.893
503.8330, 9572.566
505.0150, 12910.23
506.1970, 16384.82
507.3790, 19172.36
508.5610, 21199.98
509.7430, 21013.58
510.9240, 19052.77
512.1050, 15632.20
513.2870, 12269.41
514.4670, 9093.508
515.6480, 7063.922
516.8290, 5227.352
518.0090, 4080.908
519.1890, 3300.480
520.3690, 2708.170
521.5490, 2083.354
522.7290, 1683.500
523.9090, 1760.924
525.0880, 1132.445
526.2670, 1170.846
527.4460, 1183.408
528.6250, 878.6758
529.8040, 973.4121
530.9820, 702.0195
532.1600, 718.6309
533.3380, 606.3887
534.5160, 790.2344
535.6940, 481.7617
536.8720, 315.4023
538.0490, 526.4609
539.2270, 364.0977
540.4040, 305.3965
541.5810, 429.9238
542.7570, 184.1992
543.9340, 257.9043
545.1100, 435.3535
546.2870, 413.9922
547.4630, 395.6035
548.6380, 336.1582
549.8140, 228.4023
550.9900, 189.7988
552.1650, 372.9844
553.3400, 59.15430
554.5150, 186.3457
555.6900, 50.49219
556.8650, 231.4531
558.0390, 268.6270
559.2140, 149.7363
560.3880, 285.0859
561.5620, 145.2188
562.7360, 212.8457
563.9090, 255.4277
565.0830, 109.4746
566.2560, 98.50977
567.4290, 284.8965
568.6020, 132.2266
569.7750, 350.1992
570.9470, 252.4531
572.1200, 348.5605
573.2920, 277.6152
574.4640, 346.6133
575.6360, 568.8496
576.8080, 485.6387
577.9790, 577.5996
579.1510, 616.8633
580.3220, 659.9199
581.4930, 699.8203
582.6640, 560.3496
583.8350, 357.3223
585.0050, 431.1836
586.1750, 371.4844
587.3460, 361.2793
588.5160, 410.1016
589.6850, 346.9141
590.8550, 243.7129
592.0250, 230.5039
593.1940, 40.50391
594.3630, 52.26562
595.5320, 71.34570
596.7010, 93.10156
597.8700, 29.94727
599.0380, 46.04102
600.2060, 273.1836
601.3740, 217.8008
602.5420, 97.40430
603.7100, 42.99609
604.8780, 10.19141
606.0450, 102.1250
607.2120, 30.33594
608.3800, 85.61914
609.5460, 71.61133
610.7130, 69.37305
611.8800, 170.1543
613.0460, 80.64062
614.2120, 213.1484
615.3790, 20.61328
616.5440, 151.0605
617.7100, 276.4961
618.8760, 196.9160
620.0410, 66.32617
621.2060, 73.72266
622.3710, 184.1035
623.5360, 279.4746
624.7010, 116.8320
625.8650, 154.1758
627.0300, 180.8867
628.1940, 231.9551
629.3580, 279.1309
630.5220, 453.4336
631.6850, 558.7266
632.8490, 648.0098
634.0120, 546.2812
635.1750, 584.5371
636.3380, 552.2852
637.5010, 600.0195
638.6640, 525.2480
639.8260, 518.5312
640.9890, 600.8047
642.1510, 396.0625
643.3130, 594.3086
644.4750, 762.5586
645.6360, 817.9766
646.7980, 598.2109
647.9590, 759.4316
649.1200, 586.6367
650.2810, 617.8320
651.4420, 509.0234
652.6020, 603.2129
653.7630, 486.5859
654.9230, 256.8242
656.0830, 460.1992
657.2430, 276.4844
658.4030, 146.7617
659.5620, 67.09375
660.7220, 51.24023
661.8810, 51.39258
663.0400, 129.8496
664.1990, 153.7070
665.3580, 214.0996
666.5160, 268.5078
667.6750, 3.054688
668.8330, 185.3594
669.9910, 21.19922
671.1490, 45.23047
672.3070, 39.33789
673.4640, 56.76172
674.6210, 82.42383
675.7790, 133.2363
676.9360, 11.00977
678.0930, 50.23633
679.2490, 194.4414
680.4060, 72.65039
681.5620, 172.8438
682.7180, 38.02344
683.8740, 85.18164
685.0300, 44.32812
686.1860, 46.55469
687.3410, 53.56445
688.4970, 125.6543
689.6520, 86.73047
690.8070, 184.7891
691.9620, 217.8320
693.1160, 128.7695
694.2710, 341.7852
695.4250, 9.648438
696.5790, 125.6250
697.7330, 208.5840
698.8870, 79.60547
700.0410, 128.5547
701.1940, 39.52734
702.3480, 102.6602
703.5010, 181.3555
704.6540, 154.1270
705.8060, 55.05469
706.9590, 65.97656
708.1120, 87.30469
709.2640, 34.62891
710.4160, 112.0039
711.5680, 120.6191
712.7200, 1.552734
713.8710, 72.34180
715.0230, 9.898438
716.1740, 231.8242
717.3250, 68.02734
718.4760, 320.5098
719.6270, 173.0195
720.7780, 75.51172
721.9280, 169.2051
723.0780, 258.1914
724.2280, 53.69141
725.3780, 132.1758
726.5280, 333.6406
727.6780, 218.0938
728.8270, 223.5762
729.9760, 8.996094
731.1250, 102.3906
732.2740, 11.77734
733.4230, 4.058594
734.5720, 22.53516
735.7200, 90.81250
736.8680, 70.05469
738.0160, 43.58594
739.1640, 155.0000
740.3120, 208.9492
741.4600, 277.1406
742.6070, 260.0566
743.7540, 164.4570
744.9010, 179.6113
746.0480, 49.67578
747.1950, 44.63477
748.3420, 85.67969
749.4880, 77.51953
750.6340, 233.9453
751.7800, 153.9531
752.9260, 256.5449
754.0720, 227.0137
755.2180, 361.8652
756.3630, 538.1719
757.5080, 710.2402
758.6530, 821.5801
759.7980, 1089.473
760.9430, 1306.211
762.0880, 1701.109
763.2320, 1881.990
764.3760, 2278.930
765.5200, 2255.840
766.6640, 2082.098
767.8080, 1674.010
768.9510, 1380.180
770.0950, 1251.400
771.2380, 1093.568
772.3810, 913.3184
773.5240, 871.9824
774.6670, 810.1270
775.8090, 759.1836
776.9520, 721.1250
778.0940, 608.0859
779.2360, 657.7305
780.3780, 562.6836
781.5200, 391.2910
782.6610, 145.6680
783.8030, 383.2363
784.9440, 386.7871
786.0850, 267.3203
787.2260, 417.8340
788.3660, 288.7012
789.5070, 353.1777
790.6470, 153.7559
791.7880, 291.2285
792.9280, 165.6484
794.0680, 313.0508
795.2070, 452.4336
796.3470, 384.7148
797.4860, 55.05859
798.6250, 316.4785
799.7650, 322.7676
800.9030, 96.06641
802.0420, 398.5508
803.1810, 295.9238
804.3190, 247.1621
805.4570, 407.5156
806.5950, 305.9707
807.7330, 357.9062
808.8710, 642.5391
810.0090, 770.2715
811.1460, 985.8867
812.2830, 1028.791
813.4200, 1291.551
814.5570, 1583.859
815.6940, 1666.559
816.8300, 1675.373
817.9670, 1356.922
819.1030, 1274.820
820.2390, 1165.766
821.3750, 1032.242
822.5110, 797.9141
823.6460, 693.0625
824.7820, 536.2832
825.9170, 377.7539
827.0520, 239.7109
828.1870, 412.5195
829.3220, 307.3086
830.4560, 325.0449
831.5910, 344.7930
832.7250, 252.6953
833.8590, 311.3516
834.9930, 179.0410
836.1270, 192.4609
837.2600, 195.0645
838.3940, 359.1406
839.5270, 132.2285
840.6600, 219.8223
841.7930, 146.3926
842.9260, 142.5801
844.0580, 351.7871
845.1910, 218.7246
846.3230, 210.9492
847.4550, 273.2891
848.5870, 97.64844
849.7190, 125.0293
850.8510, 263.1426
851.9820, 81.67188
853.1130, 60.95117
854.2440, 1.988281
855.3750, 226.2871
856.5060, 206.5430
857.6370, 123.4570
858.7670, 63.67578
859.8970, 203.8730
861.0280, 269.6016
862.1580, 206.6699
863.2870, 461.8125
864.4170, 159.9395
865.5460, 188.0469
866.6760, 199.1309
867.8050, 24.02344
868.9340, 292.0137
870.0630, 199.3906
871.1910, 166.6562
872.3200, 148.3867
873.4480, 53.03711
874.5760, 42.49609
875.7040, 92.44922
876.8320, 207.3848
877.9600, 221.3047
879.0870, 234.2070
880.2140, 377.0957
881.3420, 296.1797
882.4690, 17.38281
883.5950, 98.72656
884.7220, 196.2695
885.8490, 118.2383
886.9750, 146.4785
888.1010, 1.142578
889.2270, 169.8125
890.3530, 156.4707
891.4790, 120.1133
892.6040, 133.7363
893.7300, 39.34180
894.8550, 132.9297
895.9800, 17.50000
897.1050, 233.0469
898.2290, 168.6172
899.3540, 137.5664
900.4780, 139.5938
901.6030, 52.07812
902.7270, 9.457031
903.8500, 1.972656
904.9740, 48.37695
906.0980, 54.75977
907.2210, 222.1250
908.3440, 62.47852
909.4670, 190.8105
910.5900, 14.87109
911.7130, 236.5879
912.8360, 75.54297
913.9580, 237.6602
915.0800, 66.75977
916.2020, 254.8438
917.3240, 10.91211
918.4460, 185.7871
919.5680, 234.8262
920.6890, 177.8535
921.8100, 221.8691
922.9320, 50.88477
924.0520, 173.8867
925.1730, 30.12695
926.2940, 129.6641
927.4140, 261.5996
928.5350, 203.4141
929.6550, 239.4629
930.7750, 139.7812
931.8950, 85.56445
933.0140, 43.63281
934.1340, 126.8027
935.2530, 189.8770
936.3720, 84.06055
937.4910, 103.7168
938.6100, 324.3574
939.7290, 75.98633
940.8470, 66.62305
941.9650, 174.2480
943.0840, 11.12891
944.2020, 182.4688
945.3200, 289.0527
946.4370, 305.6465
947.5550, 259.2305
948.6720, 184.8418
949.7890, 142.4453
950.9060, 44.95898
952.0230, 313.5938
953.1400, 291.1348
954.2560, 119.6641
955.3730, 21.18750
956.4890, 234.6973
957.6050, 233.1992
958.7210, 256.6895
959.8370, 283.3047
960.9520, 206.6484
962.0680, 235.1133
963.1830, 210.5684
964.2980, 222.0156
965.4130, 230.4512
966.5280, 565.8789
967.6430, 228.3008
968.7570, 336.7148
969.8710, 667.0449
970.9850, 605.4219
972.0990, 410.8027
973.2130, 784.1973
974.3270, 509.3867
975.4400, 763.7949
976.5540, 1081.029
977.6670, 1081.240
978.7800, 983.6289
979.8930, 955.0352
981.0050, 1051.451
982.1180, 976.8594
983.2300, 900.9258
984.3420, 575.1094
985.4540, 572.5039
986.5660, 349.4961
987.6780, 372.2129
988.7890, 293.6270
989.9010, 292.9961
991.0120, 223.3594
992.1230, 333.5020
993.2340, 194.3809
994.3450, 283.3652
995.4550, 365.0645
996.5660, 376.4004
997.6760, 353.7324
998.7860, 361.0020
999.8960, 328.3184
1001.006, 291.6328
1002.115, 213.6680
1003.225, 252.9785
1004.334, 386.2910
1005.443, 375.5977
1006.552, 316.8242
1007.661, 758.6152
1008.770, 466.3184
1009.878, 709.3066
1010.986, 397.5977
1012.095, 516.8828
1013.203, 591.1621
1014.310, 539.4414
1015.418, 671.7148
1016.526, 690.0742
1017.633, 671.0742
1018.740, 388.3398
1019.847, 432.5352
1020.954, 74.73047
1022.061, 330.4297
1023.167, 520.7109
1024.274, 451.9766
1025.380, 617.0898
1026.486, 486.2578
1027.592, 639.9688
1028.698, 897.1367
1029.803, 1022.578
1030.909, 1137.844
1032.014, 1195.332
1033.119, 1208.637
1034.224, 1155.504
1035.329, 1093.355
1036.433, 976.5273
1037.538, 769.4570
1038.642, 665.3516
1039.746, 492.2656
1040.850, 444.5742
1041.954, 324.5508
1043.058, 508.9062
1044.161, 448.9023
1045.265, 185.0039
1046.368, 177.0781
1047.471, 446.4531
1048.574, 468.5000
1049.676, 289.9180
1050.779, 495.9258
1051.881, 375.3477
1052.984, 18.32812
1054.086, 387.7539
1055.188, 273.8320
1056.289, 18.88281
1057.391, 125.3086
1058.492, 122.6211
1059.594, 238.0156
1060.695, 272.4453
1061.796, 225.8750
1062.897, 142.3086
1063.997, 69.17969
1065.098, 5.531250
1066.198, 73.92969
1067.298, 110.2070
1068.398, 146.6055
1069.498, 364.7969
1070.598, 324.1211
1071.697, 114.4922
1072.797, 229.7266
1073.896, 203.8789
1074.995, 96.29688
1076.094, 217.8906
1077.192, 188.3125
1078.291, 258.1445
1079.389, 315.6523
1080.488, 377.5977
1081.586, 406.0938
1082.684, 359.5977
1083.781, 353.2891
1084.879, 369.7969
1085.976, 446.3086
1087.074, 531.8164
1088.171, 791.9375
1089.268, 915.4531
1090.365, 991.9766
1091.461, 1214.500
1092.558, 1237.031
1093.654, 1568.562
1094.750, 1729.102
1095.846, 2021.641
1096.942, 2434.184
1098.038, 2766.730
1099.134, 2765.281
1100.229, 2836.840
1101.324, 2937.398
1102.419, 2426.961
1103.514, 2529.527
1104.609, 2144.098
1105.704, 2185.672
1106.798, 1967.254
1107.892, 1453.836
1108.986, 1265.426
1110.080, 1397.020
1111.174, 1066.621
1112.268, 1294.219
1113.361, 1464.828
1114.455, 1427.434
1115.548, 1238.047
1116.641, 1263.672
1117.734, 1119.297
1118.826, 984.9219
1119.919, 1015.582
1121.011, 768.2539
1122.104, 640.9297
1123.196, 870.6094
1124.288, 529.2930
1125.379, 780.9883
1126.471, 726.6836
1127.562, 516.3828
1128.654, 330.0859
1129.745, 430.7930
1130.836, 466.5078
1131.927, 409.2227
1133.017, 462.9453
1134.108, 373.6836
1135.198, 236.4297
1136.288, 20.18359
1137.378, 213.9375
1138.468, 277.6953
1139.558, 167.4609
1140.647, 274.2344
1141.737, 229.0117
1142.826, 127.7969
1143.915, 86.58594
1145.004, 164.3789
1146.093, 125.2109
1147.181, 22.97266
1148.270, 165.6602
1149.358, 151.5977
1150.446, 147.4141
1151.534, 72.28125
1152.622, 139.1484
1153.710, 109.7148
1154.797, 134.7344
1155.885, 110.5039
1156.972, 131.3984
1158.059, 145.3008
1159.146, 11.20703
1160.232, 162.1172
1161.319, 86.03906
1162.405, 56.96484
1163.492, 128.6914
1164.578, 221.3438
1165.664, 189.6016
1166.749, 98.54688
1167.835, 123.3320
1168.921, 1.703125
1170.006, 58.40234
1171.091, 53.44531
1172.176, 122.3008
1173.261, 144.1523
1174.346, 104.1758
1175.430, 67.14062
1176.514, 175.4492
1177.599, 113.5312
1178.683, 16.61719
1179.767, 80.42969
1180.850, 9.480469
1181.934, 11.61328
1183.017, 13.98438
1184.101, 105.7969
1185.184, 69.10156
1186.267, 69.97266
1187.350, 41.04297
1188.432, 120.1211
1189.515, 73.21484
1190.597, 80.60156
1191.679, 265.4062
1192.761, 68.50391
1193.843, 96.60938
1194.925, 118.2070
1196.006, 281.2852
1197.088, 156.6445
1198.169, 28.84375
1199.250, 186.0391
1200.331, 178.8320
1201.412, 180.0352
1202.493, 75.75781
1203.573, 152.4219
1204.653, 36.60156
1205.734, 216.7773
1206.814, 57.97266
1207.893, 348.1680
1208.973, 34.88281
1210.053, 31.07812
1211.132, 182.4336
1212.211, 172.6367
1213.290, 317.8398
1214.369, 438.0586
1215.448, 121.2852
1216.527, 177.5078
1217.605, 420.7305
1218.683, 47.95703
1219.761, 53.19141
1220.839, 41.48047
1221.917, 332.7148
1222.995, 247.9531
1224.072, 238.1836
1225.150, 142.4219
1226.227, 119.6602
1227.304, 336.8984
1228.381, 195.1445
1229.458, 232.3828
1230.534, 159.6250
1231.611, 379.8672
1232.687, 270.1133
1233.763, 405.3594
1234.839, 387.6055
1235.915, 195.8516
1236.991, 339.1055
1238.066, 356.3516
1239.141, 186.6016
1240.217, 432.8555
1241.292, 314.1055
1242.366, 128.3594
1243.441, 184.6172
1244.516, 198.8750
1245.590, 555.1328
1246.664, 423.3867
1247.739, 376.6406
1248.813, 188.8984
1249.886, 397.1602
1250.960, 247.4180
1252.033, 247.6758
1253.107, 151.9336
1254.180, 363.1992
1255.253, 121.4609
1256.326, 251.7227
1257.399, 296.9805
1258.471, 170.2422
1259.544, 277.5078
1260.616, 299.7734
1261.688, 205.0352
1262.760, 265.2969
1263.832, 254.1680
1264.903, 418.8242
1265.975, 317.0898
1267.046, 292.3555
1268.117, 378.6211
1269.188, 637.8828
1270.259, 252.1484
1271.330, 116.4141
1272.400, 381.6797
1273.471, 460.9453
1274.541, 238.2109
1275.611, 435.4727
1276.681, 248.7383
1277.751, 154.0078
1278.821, 165.2734
1279.890, 67.54297
1280.959, 120.8086
1282.029, 97.92578
1283.098, 255.2773
1284.166, 104.5312
1285.235, 56.74219
1286.304, 311.9492
1287.372, 141.1523
1288.440, 195.3594
1289.508, 68.57031
1290.576, 410.7734
1291.644, 30.01953
1292.712, 186.1680
1293.779, 26.63281
1294.847, 86.52734
1295.914, 82.30859
1296.981, 115.8047
1298.048, 56.12109
1299.114, 81.69531
1300.181, 98.23047
1301.247, 50.21484
1302.314, 139.7656
1303.380, 20.25000
1304.446, 24.28906
1305.512, 58.66016
1306.577, 212.6016
1307.643, 159.4570
1308.708, 109.0859
1309.773, 735.8750
1310.838, 286.7266
1311.903, 431.0156
1312.968, 425.6328
1314.032, 138.8398
1315.097, 140.6992
1316.161, 422.5625
1317.225, 278.4453
1318.289, 322.3281
1319.353, 472.2148
1320.417, 261.2148
1321.480, 338.9961
1322.543, 71.89453
1323.607, 67.80078
1324.670, 184.7070
1325.733, 219.6289
1326.795, 218.5508
1327.858, 0.4648440
1328.920, 90.22656
1329.983, 63.29688
1331.045, 96.13672
1332.107, 117.0391
1333.169, 105.9414
1334.230, 87.78125
1335.292, 31.61719
1336.353, 0.5468750
1337.414, 339.2812
1338.475, 218.8867
1339.536, 273.8789
1340.597, 170.6484
1341.658, 169.4102
1342.718, 393.1719
1343.778, 220.9375
1344.839, 90.69531
1345.899, 182.4570
1346.958, 325.2148
1348.018, 10.96875
1349.078, 79.72266
1350.137, 246.4766
1351.196, 252.2266
1352.255, 243.9766
1353.314, 265.7227
1354.373, 345.4727
1355.432, 381.2188
1356.490, 212.9609
1357.549, 294.7031
1358.607, 333.4453
1359.665, 145.1875
1360.723, 475.9297
1361.780, 516.6641
1362.838, 352.3984
1363.895, 155.1328
1364.953, 284.8672
1366.010, 446.5977
1367.067, 657.3281
1368.123, 712.0547
1369.180, 209.7852
1370.237, 378.5117
1371.293, 24.23438
1372.349, 183.9570
1373.405, 326.6836
1374.461, 457.4062
1375.517, 423.1289
1376.572, 656.8477
1377.628, 153.5625
1378.683, 170.2773
1379.738, 277.9922
1380.793, 214.7070
1381.848, 272.4219
1382.903, 307.1406
1383.957, 272.7930
1385.012, 85.56641
1386.066, 259.2734
1387.120, 110.9844
1388.174, 124.6953
1389.228, 456.4023
1390.281, 278.1172
1391.335, 322.8320
1392.388, 383.5430
1393.441, 166.2617
1394.495, 288.9805
1395.547, 397.6992
1396.600, 267.4219
1397.653, 240.1484
1398.705, 277.8750
1399.757, 359.6055
1400.810, 457.3398
1401.861, 284.0781
1402.913, 75.82422
1403.965, 267.5664
1405.017, 222.3164
1406.068, 205.0664
1407.119, 275.8281
1408.170, 264.5898
1409.221, 95.65234
1410.272, 7.425781
1411.322, 116.2109
1412.373, 75.99219
1413.423, 157.7773
1414.473, 416.5859
1415.523, 252.3945
1416.573, 255.2070
1417.623, 117.0352
1418.673, 22.34375
1419.722, 13.18359
1420.771, 147.7188
1421.820, 580.5781
1422.869, 375.6250
1423.918, 94.50391
1424.967, 22.78906
1426.015, 453.1133
1427.064, 77.16406
1428.112, 92.24219
1429.160, 444.1914
1430.208, 214.1758
1431.256, 192.9258
1432.303, 349.9297
1433.351, 486.9531
1434.398, 531.2773
1435.445, 293.3477
1436.492, 434.4375
1437.539, 143.5547
1438.586, 52.29297
1439.632, 487.6172
1440.679, 693.8359
1441.725, 597.8438
1442.771, 462.9062
1443.817, 457.2227
1444.863, 647.5859
1445.909, 519.9883
1446.954, 576.3477
1447.999, 441.7891
1449.045, 370.8555
1450.090, 274.8828
1451.135, 374.6797
1452.179, 280.3008
1453.224, 358.7617
1454.269, 47.52344
1455.313, 155.4141
1456.357, 195.3438
1457.401, 498.2695
1458.445, 400.6641
1459.489, 60.81250
1460.532, 236.6133
1461.576, 308.4102
1462.619, 115.2070
1463.662, 370.0039
1464.705, 335.7305
1465.748, 258.5273
1466.791, 297.4258
1467.833, 132.1211
1468.875, 186.9102
1469.918, 398.7109
1470.960, 404.5078
1472.002, 320.3008
1473.044, 530.0977
1474.085, 297.8906
1475.127, 107.6914
1476.168, 106.4805
1477.209, 396.4219
1478.250, 412.1875
1479.291, 416.8320
1480.332, 410.9688
1481.372, 363.0898
1482.413, 369.4648
1483.453, 354.0938
1484.493, 337.8242
1485.533, 351.8125
1486.573, 310.0547
1487.613, 231.5469
1488.652, 363.7148
1489.692, 442.9844
1490.731, 472.1250
1491.770, 301.1367
1492.809, 388.5664
1493.848, 372.4414
1494.887, 352.0781
1495.925, 475.9297
1496.964, 334.1289
1498.002, 455.6914
1499.040, 472.1289
1500.078, 536.6914
1501.116, 497.1445
1502.153, 488.6016
1503.191, 585.6055
1504.228, 624.9609
1505.265, 573.6641
1506.302, 641.6562
1507.339, 496.7266
1508.376, 538.7852
1509.412, 658.3281
1510.449, 612.4141
1511.485, 682.3164
1512.521, 708.0664
1513.557, 533.1484
1514.593, 707.1602
1515.629, 730.2891
1516.664, 598.4570
1517.700, 249.2891
1518.735, 230.6992
1519.770, 700.3945
1520.805, 290.1133
1521.840, 448.8711
1522.875, 403.6523
1523.909, 254.4727
1524.943, 524.3320
1525.978, 359.2227
1527.012, 446.1562
1528.046, 542.1289
1529.079, 385.1484
1530.113, 551.2109
1531.147, 496.7852
1532.180, 432.9570
1533.213, 449.7188
1534.246, 362.0078
1535.279, 257.3555
1536.312, 352.7734
1537.344, 187.2656
1538.377, 213.8281
1539.409, 152.4766
1540.441, 138.0469
1541.473, 216.8398
1542.505, 144.0000
1543.537, 397.0156
1544.569, 382.2109
1545.600, 487.5117
1546.631, 189.9297
1547.662, 76.46875
1548.693, 104.1484
1549.724, 175.9609
1550.755, 489.9141
1551.785, 199.0156
1552.816, 597.2734
1553.846, 208.7031
1554.876, 486.3164
1555.906, 313.1328
1556.936, 205.1641
1557.966, 246.4297
1558.995, 109.9492
1560.024, 175.7461
1561.054, 92.84375
1562.083, 528.2578
1563.112, 4.031250
1564.140, 341.1875
1565.169, 68.77734
1566.198, 46.15625
1567.226, 239.4453
1568.254, 292.6641
1569.282, 456.5781
1570.310, 42.28516
1571.338, 741.2773
1572.365, 185.8945
1573.393, 512.4258
1574.420, 110.9922
1575.447, 57.09766
1576.474, 63.86719
1577.501, 0.0000000E+00
##END=



