##NAMES=Almandine
##RRUFFID=R060099
##IDEAL CHEMISTRY=Fe^2+^_3_Al_2_(SiO_4_)_3_
##LOCALITY=Alaska, USA
##OWNER=RRUFF
##SOURCE=Roland Boehne
##DESCRIPTION=Red cube shaped single crystal
##STATUS=The identification of this mineral is confirmed by single-crystal X-ray diffraction and chemical analysis.
##URL=rruff.info/R060099
##MEASURED CHEMISTRY=(Fe^2+^_1.63_Mg_0.57_Mn_0.56_Ca_0.24_)_Σ=3_(Al_1.98_Fe^3+^_0.02_)_Σ=2_(Si_1.00_O_4_)_3_
##PIN_ID=M00497
##ORIENTATION=Laser parallel to -a* (-1 0 0). Fiducial mark perpendicular to laser is parallel to c [0 0 1]
93.48000, 0.0000000E+00
94.71400, 0.5078130
95.94800, 14.84326
97.18200, 5.449707
98.41600, 55.92236
99.64900, 63.29346
100.8830, 146.8818
102.1160, 20.71240
103.3490, 67.21484
104.5820, 113.4351
105.8150, 244.7681
107.0470, 257.0698
108.2800, 345.2241
109.5120, 527.1372
110.7440, 294.7310
111.9760, 230.9395
113.2080, 332.7041
114.4400, 229.9727
115.6710, 368.6982
116.9030, 344.8394
118.1340, 251.3647
119.3650, 121.2456
120.5960, 68.45947
121.8270, 166.9854
123.0580, 164.8052
124.2880, 159.9014
125.5190, 128.2559
126.7490, 90.85596
127.9790, 75.68604
129.2090, 101.7339
130.4390, 133.9863
131.6680, 134.4268
132.8980, 109.0386
134.1270, 85.80615
135.3560, 74.71924
136.5850, 93.03271
137.8140, 197.9478
139.0430, 163.2559
140.2710, 183.6904
141.5000, 245.2495
142.7280, 192.9316
143.9560, 154.7368
145.1840, 167.6641
146.4120, 185.7134
147.6390, 120.8818
148.8670, 227.1631
150.0940, 218.5518
151.3210, 384.0425
152.5490, 414.6309
153.7750, 468.3120
155.0020, 480.0815
156.2290, 511.9360
157.4550, 578.8721
158.6810, 717.8862
159.9080, 819.9756
161.1340, 899.1362
162.3590, 892.3662
163.5850, 1052.664
164.8110, 1199.024
166.0360, 1289.447
167.2610, 1139.911
168.4860, 1204.367
169.7110, 1082.821
170.9360, 1017.276
172.1610, 954.7285
173.3850, 681.1924
174.6100, 628.6753
175.8340, 416.1787
177.0580, 389.7061
178.2820, 286.2598
179.5050, 216.8013
180.7290, 229.4507
181.9520, 147.1670
183.1760, 184.9717
184.3990, 184.8149
185.6220, 184.7168
186.8450, 187.7124
188.0670, 184.7690
189.2900, 239.4404
190.5120, 424.0869
191.7340, 372.3647
192.9560, 450.7217
194.1780, 546.1567
195.4000, 437.6514
196.6220, 612.2686
197.8430, 640.9570
199.0640, 640.6860
200.2860, 760.4697
201.5070, 808.2686
202.7270, 975.0835
203.9480, 922.9131
205.1690, 787.7593
206.3890, 936.6196
207.6090, 1001.496
208.8290, 1019.388
210.0490, 1151.295
211.2690, 1148.218
212.4890, 1079.156
213.7080, 1062.109
214.9280, 973.0776
216.1470, 814.0615
217.3660, 735.0601
218.5850, 660.0732
219.8030, 715.1016
221.0220, 469.1431
222.2400, 533.1992
223.4590, 417.2690
224.6770, 334.3521
225.8950, 464.4487
227.1120, 311.5581
228.3300, 375.6802
229.5480, 278.8149
230.7650, 237.9614
231.9820, 217.1206
233.1990, 293.2905
234.4160, 218.4727
235.6330, 352.6660
236.8490, 204.8701
238.0660, 207.0850
239.2820, 198.3105
240.4980, 249.6714
241.7140, 189.1270
242.9300, 213.6748
244.1460, 140.3071
245.3610, 142.9312
246.5770, 212.6606
247.7920, 203.4858
249.0070, 134.5532
250.2220, 115.5454
251.4370, 134.6118
252.6510, 120.7480
253.8660, 147.9487
255.0800, 187.2095
256.2940, 195.4902
257.5080, 216.0439
258.7220, 219.3213
259.9360, 213.7920
261.1490, 171.3086
262.3630, 114.8687
263.5760, 186.4707
264.7890, 65.11279
266.0020, 87.79395
267.2150, 34.59570
268.4270, 42.74805
269.6400, 112.6431
270.8520, 99.26953
272.0640, 150.3057
273.2760, 194.1875
274.4880, 134.2280
275.7000, 207.1675
276.9120, 171.0825
278.1230, 202.5723
279.3340, 114.8672
280.5450, 180.0400
281.7560, 225.1689
282.9670, 197.5815
284.1780, 253.6948
285.3880, 146.3018
286.5980, 245.4585
287.8090, 205.1157
289.0190, 300.0195
290.2290, 174.2368
291.4380, 264.4595
292.6480, 152.5312
293.8570, 284.5361
295.0670, 387.8252
296.2760, 377.4014
297.4850, 351.9619
298.6930, 425.9111
299.9020, 428.2100
301.1110, 558.5762
302.3190, 572.5542
303.5270, 623.0356
304.7350, 661.5142
305.9430, 769.9321
307.1510, 956.3628
308.3580, 885.8047
309.5660, 1108.258
310.7730, 1203.723
311.9800, 1198.198
313.1870, 1405.683
314.3940, 1275.179
315.6010, 1342.686
316.8070, 1360.204
318.0130, 1394.730
319.2200, 1557.269
320.4260, 1589.817
321.6310, 1738.375
322.8370, 1777.944
324.0430, 2054.522
325.2480, 2159.110
326.4540, 2380.708
327.6590, 2566.314
328.8640, 2850.930
330.0680, 3155.780
331.2730, 3451.184
332.4780, 3886.822
333.6820, 4450.469
334.8860, 5129.482
336.0900, 5946.781
337.2940, 6839.447
338.4980, 7846.119
339.7010, 8936.796
340.9050, 10028.48
342.1080, 11222.16
343.3110, 12254.85
344.5140, 12498.55
345.7170, 12465.25
346.9200, 11783.95
348.1220, 10841.65
349.3240, 9746.358
350.5270, 8315.066
351.7290, 7023.779
352.9310, 6085.497
354.1320, 5055.215
355.3340, 4315.937
356.5350, 3640.660
357.7370, 3206.386
358.9380, 3003.114
360.1390, 2728.846
361.3400, 2715.578
362.5400, 2645.313
363.7410, 2582.050
364.9410, 2513.788
366.1410, 2571.528
367.3410, 2677.270
368.5410, 2644.012
369.7410, 2655.757
370.9400, 2481.502
372.1400, 2409.248
373.3390, 2180.997
374.5380, 2033.745
375.7370, 1696.495
376.9360, 1476.245
378.1350, 1358.996
379.3330, 1032.747
380.5310, 899.4990
381.7300, 795.2520
382.9280, 646.0068
384.1260, 540.7739
385.3230, 469.5513
386.5210, 377.3433
387.7180, 384.1484
388.9160, 391.9673
390.1130, 200.7939
391.3100, 301.6270
392.5060, 223.4736
393.7030, 231.3359
394.9000, 201.2314
396.0960, 185.1353
397.2920, 177.0454
398.4880, 113.9600
399.6840, 129.8789
400.8800, 150.8008
402.0750, 62.72656
403.2710, 143.6553
404.4660, 153.5894
405.6610, 65.53320
406.8560, 11.50928
408.0510, 103.5049
409.2450, 24.50439
410.4400, 0.4912110
411.6340, 60.48682
412.8280, 50.49316
414.0220, 31.52539
415.2160, 20.57324
416.4100, 11.36719
417.6030, 0.3398440
418.7970, 23.32910
419.9900, 62.66260
421.1830, 5.688477
422.3760, 66.71973
423.5690, 2.226563
424.7610, 4.168457
425.9540, 33.86670
427.1460, 67.08936
428.3380, 66.95410
429.5300, 23.96826
430.7220, 34.09473
431.9140, 37.15869
433.1050, 68.76855
434.2970, 88.28955
435.4880, 5.400391
436.6790, 3.519531
437.8700, 51.35059
439.0610, 74.78174
440.2510, 25.96484
441.4420, 95.17090
442.6320, 4.433105
443.8220, 42.30127
445.0120, 2.034668
446.2020, 21.24268
447.3910, 20.54395
448.5810, 95.13037
449.7700, 88.80127
450.9600, 117.4678
452.1490, 46.12939
453.3370, 152.7861
454.5260, 299.4365
455.7150, 231.0820
456.9030, 269.7207
458.0910, 449.3545
459.2800, 503.9824
460.4670, 641.6040
461.6550, 709.2222
462.8430, 567.8345
464.0300, 648.4404
465.2180, 527.0400
466.4050, 628.6323
467.5920, 561.2188
468.7790, 509.7983
469.9650, 591.3696
471.1520, 738.9341
472.3380, 806.4912
473.5250, 765.0405
474.7110, 925.5815
475.8970, 936.1152
477.0820, 986.6504
478.2680, 821.1777
479.4540, 666.6968
480.6390, 749.2075
481.8240, 656.7090
483.0090, 655.2026
484.1940, 570.6870
485.3780, 578.1621
486.5630, 564.6289
487.7470, 723.0864
488.9320, 802.5352
490.1160, 944.9741
491.3000, 1357.404
492.4830, 1553.825
493.6670, 1709.235
494.8500, 2110.637
496.0340, 2292.028
497.2170, 2386.412
498.4000, 2731.785
499.5820, 2540.156
500.7650, 2445.522
501.9480, 2076.889
503.1300, 1856.246
504.3120, 1518.598
505.4940, 1251.939
506.6760, 1103.270
507.8580, 916.5894
509.0390, 827.8979
510.2210, 591.1963
511.4020, 511.4912
512.5830, 613.7754
513.7640, 446.0605
514.9450, 534.3345
516.1250, 450.5972
517.3060, 578.8496
518.4860, 428.0903
519.6660, 450.3193
520.8460, 481.5361
522.0260, 449.8301
523.2060, 522.0498
524.3850, 477.8438
525.5650, 495.5381
526.7440, 448.9546
527.9230, 564.4771
529.1020, 536.8174
530.2810, 570.3472
531.4590, 553.4585
532.6380, 601.5498
533.8160, 679.1177
534.9940, 707.7007
536.1720, 723.0381
537.3500, 766.7852
538.5270, 908.2896
539.7050, 974.0669
540.8820, 1242.287
542.0590, 1266.263
543.2360, 1489.391
544.4130, 1772.397
545.5900, 2060.900
546.7660, 2266.394
547.9430, 2657.197
549.1190, 3105.293
550.2950, 3366.558
551.4710, 3920.303
552.6470, 4112.308
553.8220, 4117.148
554.9980, 4059.184
556.1730, 4103.301
557.3480, 3591.038
558.5230, 3121.370
559.6980, 2704.312
560.8730, 2441.576
562.0470, 1980.657
563.2220, 1849.121
564.3960, 1377.252
565.5700, 1310.796
566.7440, 1161.483
567.9170, 1068.972
569.0910, 959.1323
570.2640, 758.7441
571.4380, 838.2275
572.6110, 741.8193
573.7840, 763.8584
574.9570, 632.4009
576.1290, 787.3594
577.3020, 728.8511
578.4740, 897.6436
579.6460, 814.2681
580.8180, 759.3994
581.9900, 781.6753
583.1620, 724.5801
584.3330, 626.1816
585.5040, 534.3164
586.6760, 586.0825
587.8470, 540.2842
589.0180, 646.5498
590.1880, 424.1216
591.3590, 511.3555
592.5290, 498.7695
593.7000, 572.9834
594.8700, 395.1616
596.0400, 502.3203
597.2090, 336.4609
598.3790, 427.5825
599.5490, 394.8032
600.7180, 331.8872
601.8870, 490.4199
603.0560, 266.5405
604.2250, 327.6245
605.3940, 266.7100
606.5620, 215.7593
607.7300, 250.7295
608.8990, 313.8013
610.0670, 272.7329
611.2350, 293.6445
612.4020, 329.5381
613.5700, 285.4121
614.7370, 273.2671
615.9050, 349.1030
617.0720, 353.0557
618.2390, 355.8525
619.4060, 411.6309
620.5720, 455.3691
621.7390, 566.1294
622.9050, 615.8496
624.0710, 716.5498
625.2370, 848.2319
626.4030, 853.8940
627.5690, 876.5366
628.7340, 880.1606
629.9000, 1093.765
631.0650, 1014.350
632.2300, 993.9492
633.3950, 955.4961
634.5600, 823.0234
635.7240, 814.5312
636.8890, 727.2793
638.0530, 548.7485
639.2170, 518.7710
640.3810, 419.4160
641.5450, 436.7368
642.7080, 402.5283
643.8720, 516.8325
645.0350, 347.1855
646.1980, 425.5195
647.3610, 303.8340
648.5240, 397.1289
649.6870, 287.4043
650.8490, 316.3130
652.0120, 269.5493
653.1740, 327.5767
654.3360, 262.7744
655.4980, 224.9521
656.6600, 239.2729
657.8210, 164.4595
658.9830, 214.5786
660.1440, 160.6787
661.3050, 116.7588
662.4660, 130.8193
663.6270, 55.85986
664.7870, 2.876465
665.9480, 82.85010
667.1080, 25.52637
668.2680, 29.72363
669.4280, 23.61426
670.5880, 130.4731
671.7480, 140.3130
672.9070, 20.13428
674.0670, 18.92236
675.2260, 60.32178
676.3850, 43.36133
677.5440, 55.01904
678.7030, 169.6533
679.8610, 144.7612
681.0200, 153.8823
682.1780, 83.44775
683.3360, 108.0073
684.4940, 44.54834
685.6520, 12.06543
686.8090, 74.44971
687.9670, 32.04150
689.1240, 52.31104
690.2810, 26.64209
691.4380, 63.59473
692.5950, 39.76660
693.7520, 68.47803
694.9080, 77.71729
696.0650, 72.94629
697.2210, 89.83789
698.3770, 38.70312
699.5330, 42.62305
700.6880, 46.40039
701.8440, 49.42236
702.9990, 31.57275
704.1550, 93.40234
705.3100, 70.63867
706.4650, 24.74756
707.6190, 24.10938
708.7740, 0.9453130
709.9290, 38.22949
711.0830, 64.45410
712.2370, 44.31055
713.3910, 42.04785
714.5450, 21.58350
715.6980, 8.222168
716.8520, 62.84229
718.0050, 38.45020
719.1580, 120.0420
720.3110, 46.64209
721.4640, 0.7622070
722.6170, 18.16406
723.7700, 3.404785
724.9220, 57.95166
726.0740, 124.4878
727.2260, 52.02002
728.3780, 13.54688
729.5300, 114.0586
730.6810, 21.55615
731.8330, 57.04004
732.9840, 63.51172
734.1350, 74.97070
735.2860, 73.10010
736.4370, 76.85303
737.5880, 24.27637
738.7380, 76.68750
739.8880, 0.9130860
741.0390, 29.46924
742.1890, 31.83936
743.3380, 25.19873
744.4880, 27.44824
745.6380, 55.88281
746.7870, 9.209961
747.9360, 67.52539
749.0850, 69.83105
750.2340, 166.1274
751.3830, 157.4141
752.5310, 159.6909
753.6800, 111.9590
754.8280, 36.78223
755.9760, 61.44727
757.1240, 169.6685
758.2720, 166.8809
759.4190, 32.08447
760.5670, 71.27979
761.7140, 16.46680
762.8610, 25.64551
764.0080, 48.81689
765.1550, 52.98047
766.3020, 40.13623
767.4480, 29.91016
768.5950, 30.89844
769.7410, 0.4394530
770.8870, 17.68701
772.0330, 46.80664
773.1780, 22.91943
774.3240, 11.97412
775.4690, 9.123047
776.6140, 41.78564
777.7590, 36.71582
778.9040, 48.66504
780.0490, 18.63770
781.1940, 32.62012
782.3380, 10.38232
783.4820, 79.37988
784.6260, 16.37207
785.7700, 47.35938
786.9140, 76.34229
788.0580, 50.67920
789.2010, 68.27930
790.3450, 70.76709
791.4880, 42.15674
792.6310, 80.07666
793.7730, 14.00684
794.9160, 60.90381
796.0590, 32.81152
797.2010, 33.71533
798.3430, 21.61670
799.4850, 127.4268
800.6270, 113.2959
801.7690, 90.57617
802.9100, 190.9419
804.0520, 114.5718
805.1930, 85.08008
806.3340, 173.7568
807.4750, 197.2300
808.6160, 55.10742
809.7560, 210.9907
810.8970, 155.3833
812.0370, 177.7471
813.1770, 190.3413
814.3170, 164.5137
815.4570, 189.9141
816.5960, 247.7988
817.7360, 280.6846
818.8750, 125.5718
820.0140, 293.2944
821.1530, 142.1250
822.2920, 189.4443
823.4310, 164.7607
824.5690, 156.7534
825.7070, 174.4404
826.8460, 211.9463
827.9840, 161.9580
829.1220, 158.6138
830.2590, 104.9570
831.3970, 208.6807
832.5340, 314.4639
833.6710, 285.8477
834.8080, 333.8350
835.9450, 300.2041
837.0820, 296.6133
838.2190, 337.2471
839.3550, 264.9355
840.4910, 311.1670
841.6270, 461.1211
842.7630, 422.0137
843.8990, 529.8340
845.0350, 563.3184
846.1700, 674.8691
847.3060, 651.0088
848.4410, 802.5518
849.5760, 946.4229
850.7100, 966.4922
851.8450, 1167.156
852.9800, 1377.445
854.1140, 1405.508
855.2480, 1700.464
856.3820, 1831.482
857.5160, 2170.679
858.6500, 2185.715
859.7830, 2400.710
860.9170, 2563.112
862.0500, 2614.293
863.1830, 2459.541
864.3160, 2350.744
865.4480, 2294.733
866.5810, 2060.067
867.7130, 1927.237
868.8460, 1911.601
869.9780, 1571.027
871.1100, 1701.465
872.2410, 1761.919
873.3730, 1480.389
874.5050, 1619.775
875.6360, 1528.297
876.7670, 1677.363
877.8980, 1684.835
879.0290, 1781.370
880.1590, 1923.927
881.2900, 2005.517
882.4200, 2106.180
883.5500, 2354.733
884.6800, 2504.422
885.8100, 2661.125
886.9400, 2970.841
888.0690, 3280.570
889.1990, 3539.313
890.3280, 4008.069
891.4570, 4161.705
892.5860, 4621.490
893.7140, 5228.289
894.8430, 5551.102
895.9710, 6039.930
897.1000, 6484.773
898.2280, 7122.630
899.3560, 8004.502
900.4830, 8874.389
901.6110, 9684.289
902.7380, 11322.21
903.8660, 12931.13
904.9930, 15188.08
906.1200, 17791.01
907.2460, 20777.99
908.3730, 24472.98
909.5000, 28511.99
910.6260, 32997.75
911.7520, 37101.79
912.8780, 40846.28
914.0040, 42929.12
915.1290, 44223.30
916.2550, 44026.02
917.3800, 41648.20
918.5050, 37986.34
919.6300, 33736.48
920.7550, 29253.65
921.8800, 24753.84
923.0040, 20963.04
924.1290, 17403.61
925.2530, 14712.85
926.3770, 12416.29
927.5010, 10853.56
928.6250, 8940.850
929.7480, 7864.945
930.8720, 6814.270
931.9950, 5937.611
933.1180, 5142.969
934.2410, 4441.346
935.3640, 3872.740
936.4860, 3558.155
937.6090, 3139.592
938.7310, 2743.059
939.8530, 2362.543
940.9750, 2151.053
942.0970, 1827.586
943.2180, 1706.145
944.3400, 1481.101
945.4610, 1235.316
946.5820, 1214.937
947.7030, 1046.583
948.8240, 1094.274
949.9450, 924.9893
951.0650, 949.7256
952.1860, 885.4805
953.3060, 811.2529
954.4260, 830.0146
955.5460, 759.8574
956.6650, 722.5791
957.7850, 669.5459
958.9040, 624.4277
960.0230, 578.3574
961.1420, 517.3252
962.2610, 495.3125
963.3800, 514.3262
964.4990, 580.3574
965.6170, 533.4287
966.7350, 466.5195
967.8530, 574.3477
968.9710, 441.4795
970.0890, 459.1182
971.2070, 517.1768
972.3240, 439.4355
973.4410, 423.7148
974.5580, 492.0127
975.6750, 434.3486
976.7920, 500.5469
977.9090, 409.9473
979.0250, 403.8848
980.1410, 424.3369
981.2580, 491.8154
982.3740, 283.3291
983.4890, 301.8936
984.6050, 281.6875
985.7200, 477.0371
986.8360, 263.6846
987.9510, 372.3525
989.0660, 335.0391
990.1810, 361.7441
991.2950, 244.4668
992.4100, 255.2070
993.5240, 350.9707
994.6390, 369.7617
995.7530, 241.3994
996.8660, 383.2285
997.9800, 249.5459
999.0940, 360.6484
1000.207, 443.3242
1001.320, 434.0029
1002.433, 455.9170
1003.546, 537.5586
1004.659, 455.5029
1005.772, 382.3730
1006.884, 379.8652
1007.996, 329.4111
1009.108, 267.9688
1010.220, 402.9863
1011.332, 404.0225
1012.444, 587.7480
1013.555, 451.7324
1014.666, 570.0811
1015.777, 591.1738
1016.888, 591.2793
1017.999, 563.3984
1019.110, 699.5303
1020.220, 747.6748
1021.331, 827.8320
1022.441, 874.0029
1023.551, 862.1855
1024.661, 974.3818
1025.770, 988.5996
1026.880, 1166.831
1027.989, 1235.074
1029.098, 1256.329
1030.207, 1431.598
1031.316, 1392.877
1032.425, 1679.169
1033.533, 1923.475
1034.642, 2001.790
1035.750, 2073.118
1036.858, 2184.459
1037.966, 2291.811
1039.073, 2115.173
1040.181, 2287.547
1041.288, 2275.935
1042.396, 2082.333
1043.503, 2231.742
1044.610, 2010.164
1045.716, 1881.597
1046.823, 1722.047
1047.929, 1507.517
1049.036, 1297.005
1050.142, 1222.507
1051.248, 941.0225
1052.353, 838.5508
1053.459, 707.0889
1054.564, 675.6377
1055.670, 693.1953
1056.775, 517.7637
1057.880, 253.3506
1058.985, 445.9463
1060.089, 231.5654
1061.194, 296.1953
1062.298, 204.8330
1063.402, 157.4961
1064.506, 142.1680
1065.610, 106.9082
1066.713, 106.5400
1067.817, 69.23926
1068.920, 136.9492
1070.023, 75.06836
1071.126, 163.7939
1072.229, 95.55469
1073.332, 35.32422
1074.435, 124.1016
1075.537, 56.88672
1076.639, 70.69434
1077.741, 79.51465
1078.843, 133.3408
1079.945, 82.17676
1081.046, 192.0186
1082.148, 225.0645
1083.249, 84.93457
1084.350, 42.81152
1085.451, 173.6943
1086.551, 180.5879
1087.652, 169.9883
1088.752, 188.0176
1089.853, 86.92969
1090.953, 38.84863
1092.053, 62.53613
1093.152, 37.70508
1094.252, 92.64062
1095.351, 45.65430
1096.451, 35.60352
1097.550, 30.13281
1098.649, 10.18945
1099.748, 18.49902
1100.846, 4.485352
1101.945, 32.52734
1103.043, 19.55078
1104.141, 41.42480
1105.239, 46.40430
1106.337, 57.38770
1107.434, 101.6396
1108.532, 103.3701
1109.629, 13.57129
1110.726, 96.48438
1111.823, 9.414063
1112.920, 41.31543
1114.017, 42.21875
1115.113, 52.87598
1116.210, 19.99512
1117.306, 10.12305
1118.402, 134.7402
1119.498, 14.60547
1120.593, 144.4736
1121.689, 44.34180
1122.784, 19.21094
1123.879, 141.0811
1124.974, 67.95508
1126.069, 70.83594
1127.164, 59.28320
1128.259, 87.56445
1129.353, 35.58887
1130.447, 95.76270
1131.541, 39.99121
1132.635, 87.23828
1133.729, 18.46484
1134.822, 116.8311
1135.916, 34.80566
1137.009, 4.559570
1138.102, 3.066406
1139.195, 80.31543
1140.288, 3.253906
1141.380, 121.8232
1142.473, 92.38965
1143.565, 112.0439
1144.657, 99.54492
1145.749, 11.89160
1146.841, 65.32520
1147.932, 93.75488
1149.024, 95.18555
1150.115, 121.4033
1151.206, 130.3203
1152.297, 98.46484
1153.388, 160.8887
1154.479, 72.31738
1155.569, 101.7441
1156.659, 35.16797
1157.750, 54.59082
1158.839, 73.00977
1159.929, 71.32812
1161.019, 117.8418
1162.108, 83.25488
1163.198, 171.6650
1164.287, 106.0723
1165.376, 49.47656
1166.465, 124.8789
1167.553, 89.27734
1168.642, 213.6738
1169.730, 199.0664
1170.818, 177.4570
1171.906, 153.8428
1172.994, 287.2256
1174.082, 175.6055
1175.170, 89.98340
1176.257, 288.3564
1177.344, 68.72559
1178.431, 213.0918
1179.518, 235.4531
1180.605, 247.8115
1181.691, 288.4648
1182.778, 96.51562
1183.864, 239.8613
1184.950, 200.2041
1186.036, 74.54102
1187.122, 110.8740
1188.207, 214.2031
1189.292, 160.5273
1190.378, 146.8467
1191.463, 160.1621
1192.548, 124.4717
1193.632, 158.6504
1194.717, 129.1230
1195.801, 287.4189
1196.886, 106.7090
1197.970, 197.9932
1199.054, 190.2725
1200.137, 31.54590
1201.221, 132.8096
1202.305, 128.0996
1203.388, 227.3516
1204.471, 99.59766
1205.554, 96.83789
1206.637, 153.5732
1207.719, 119.3926
1208.802, 178.6143
1209.884, 120.8271
1210.966, 80.03613
1212.048, 52.12695
1213.130, 156.3193
1214.212, 101.5029
1215.293, 227.6816
1216.374, 86.67871
1217.456, 296.8418
1218.536, 39.99805
1219.617, 109.1406
1220.698, 89.27539
1221.778, 91.40332
1222.859, 148.5762
1223.939, 236.6904
1225.019, 62.79492
1226.099, 161.1211
1227.178, 123.2109
1228.258, 227.3242
1229.337, 154.9717
1230.417, 173.3184
1231.496, 99.37695
1232.574, 188.9688
1233.653, 190.5508
1234.732, 80.58496
1235.810, 180.6104
1236.888, 58.62793
1237.966, 214.6348
1239.044, 228.7910
1240.122, 269.7812
1241.199, 373.2588
1242.277, 345.4531
1243.354, 208.2021
1244.431, 289.1631
1245.508, 246.1074
1246.585, 111.8506
1247.661, 260.0654
1248.738, 205.9971
1249.814, 213.9199
1250.890, 164.8359
1251.966, 148.7441
1253.042, 217.6807
1254.117, 120.8662
1255.193, 282.0840
1256.268, 239.9629
1257.343, 342.0068
1258.418, 164.8711
1259.493, 324.4023
1260.567, 162.0127
1261.642, 170.6650
1262.716, 175.9785
1263.790, 197.8076
1264.864, 178.9160
1265.938, 294.7324
1267.011, 189.6338
1268.085, 298.9199
1269.158, 285.1621
1270.231, 190.5791
1271.304, 261.3643
1272.377, 419.1455
1273.450, 264.2461
1274.522, 317.0967
1275.594, 313.6729
1276.666, 208.4336
1277.738, 169.1904
1278.810, 246.9414
1279.882, 220.6885
1280.953, 218.4307
1282.025, 248.1680
1283.096, 241.5107
1284.167, 281.2363
1285.238, 281.9600
1286.308, 256.2188
1287.379, 256.6309
1288.449, 188.0986
1289.519, 233.8018
1290.589, 199.5000
1291.659, 234.1943
1292.729, 263.8838
1293.798, 180.5693
1294.868, 281.2500
1295.937, 289.9268
1297.006, 118.6006
1298.075, 237.2676
1299.143, 243.9316
1300.212, 101.5928
1301.280, 84.24707
1302.348, 99.24805
1303.416, 197.5469
1304.484, 169.1885
1305.552, 174.8281
1306.620, 222.4619
1307.687, 106.0938
1308.754, 64.72070
1309.821, 158.3457
1310.888, 133.9658
1311.955, 120.5820
1313.021, 213.1953
1314.088, 180.8037
1315.154, 223.4102
1316.220, 264.0107
1317.286, 121.6084
1318.352, 149.2041
1319.417, 149.7998
1320.483, 37.39258
1321.548, 31.02148
1322.613, 16.51465
1323.678, 67.08594
1324.743, 105.6348
1325.807, 186.1797
1326.872, 225.6953
1327.936, 87.20508
1329.000, 55.29395
1330.064, 82.22168
1331.128, 67.22168
1332.191, 64.66016
1333.255, 102.0908
1334.318, 42.48242
1335.381, 3.926758
1336.444, 248.3291
1337.507, 54.72754
1338.569, 80.12207
1339.632, 33.51465
1340.694, 97.64648
1341.756, 53.98633
1342.818, 150.3242
1343.880, 1.342773
1344.941, 74.98438
1346.003, 81.30762
1347.064, 85.00391
1348.125, 141.3213
1349.186, 110.2949
1350.247, 20.94531
1351.308, 66.25195
1352.368, 51.54590
1353.428, 7.763672
1354.489, 84.04785
1355.549, 25.32129
1356.608, 79.41211
1357.668, 146.8271
1358.727, 76.06934
1359.787, 55.29883
1360.846, 2.534180
1361.905, 72.76855
1362.964, 74.00000
1364.022, 65.22754
1365.081, 95.18652
1366.139, 38.39746
1367.197, 61.63184
1368.255, 50.86230
1369.313, 178.1152
1370.371, 51.36328
1371.428, 240.6895
1372.486, 96.93359
1373.543, 111.1875
1374.600, 131.4443
1375.657, 79.70215
1376.713, 66.95898
1377.770, 54.87207
1378.826, 63.49414
1379.882, 21.74121
1380.938, 1.3672000E-02
1381.994, 16.77539
1383.050, 57.45508
1384.106, 68.68262
1385.161, 90.92383
1386.216, 2.162109
1387.271, 52.40918
1388.326, 22.32031
1389.381, 1.046875
1390.435, 141.2490
1391.490, 225.5439
1392.544, 257.8701
1393.598, 140.1943
1394.652, 96.52246
1395.705, 95.85254
1396.759, 16.71680
1397.812, 183.6328
1398.866, 63.98242
1399.919, 132.3311
1400.972, 83.71191
1402.024, 10.12305
1403.077, 218.5361
1404.129, 39.94824
1405.181, 37.36133
1406.233, 107.7744
1407.285, 36.18750
1408.337, 194.6025
1409.389, 24.98145
1410.440, 208.4258
1411.491, 35.88867
1412.542, 98.29980
1413.593, 42.71191
1414.644, 64.12598
1415.695, 63.23340
1416.745, 43.17285
1417.795, 58.38477
1418.845, 61.92676
1419.895, 70.35645
1420.945, 154.7871
1421.995, 82.45020
1423.044, 181.8906
1424.093, 143.3350
1425.142, 152.7842
1426.191, 112.4033
1427.240, 118.8662
1428.289, 115.3359
1429.337, 97.81152
1430.385, 43.29395
1431.433, 65.62598
1432.481, 58.86719
1433.529, 89.90918
1434.577, 91.68164
1435.624, 116.2002
1436.672, 136.7324
1437.719, 229.2676
1438.766, 267.8184
1439.812, 359.3809
1440.859, 368.9521
1441.905, 285.5156
1442.952, 322.0938
1443.998, 270.6855
1445.044, 282.2920
1446.090, 315.9326
1447.135, 248.5977
1448.181, 243.1689
1449.226, 290.7871
1450.271, 278.4033
1451.316, 418.0215
1452.361, 411.3477
1453.405, 425.9160
1454.450, 330.1357
1455.494, 464.6650
1456.538, 438.0684
1457.582, 454.5742
1458.626, 470.4111
1459.670, 311.6709
1460.713, 393.1797
1461.757, 375.6299
1462.800, 240.1406
1463.843, 229.3926
1464.886, 308.3730
1465.928, 372.8271
1466.971, 269.8330
1468.013, 209.2881
1469.055, 351.7490
1470.097, 302.2129
1471.139, 289.6816
1472.181, 235.1523
1473.222, 228.6250
1474.263, 161.0996
1475.305, 188.4678
1476.346, 254.0117
1477.386, 257.3506
1478.427, 213.8145
1479.468, 288.0830
1480.508, 146.3555
1481.548, 257.4395
1482.588, 126.8809
1483.628, 173.3213
1484.668, 298.0771
1485.707, 265.4971
1486.747, 258.9170
1487.786, 193.2148
1488.825, 151.6279
1489.864, 164.0391
1490.902, 373.9629
1491.941, 284.3350
1492.979, 279.7051
1494.017, 280.0703
1495.055, 118.4307
1496.093, 1.213867
1497.131, 134.1338
1498.168, 70.47559
1499.206, 177.8105
1500.243, 62.13672
1501.280, 220.4551
1502.317, 85.76660
1503.354, 8.064453
1504.390, 117.3496
1505.426, 87.62402
1506.463, 219.8838
1507.499, 32.13086
1508.535, 145.3535
1509.570, 238.5576
1510.606, 104.8076
1511.641, 147.0410
1512.676, 16.37012
1513.711, 64.77148
1514.746, 144.2256
1515.781, 57.69238
1516.816, 125.1543
1517.850, 122.6143
1518.884, 159.2041
1519.918, 205.8076
1520.952, 0.4140630
1521.986, 130.0205
1523.019, 205.6279
1524.053, 258.2363
1525.086, 32.90234
1526.119, 157.6074
1527.152, 79.36035
1528.185, 144.1436
1529.217, 71.96484
1530.250, 39.80273
1531.282, 156.6934
1532.314, 145.6406
1533.346, 118.6152
1534.377, 127.3535
1535.409, 13.38184
1536.440, 110.4473
1537.472, 136.4297
1538.503, 202.5781
1539.534, 134.7783
1540.564, 126.0381
1541.595, 150.3623
1542.625, 4.753906
1543.656, 100.2109
1544.686, 66.73633
1545.716, 5.667969
1546.745, 121.6123
1547.775, 137.3496
1548.804, 155.1758
1549.834, 4.093750
1550.863, 282.1094
1551.892, 129.2324
1552.920, 265.4766
1553.949, 117.4707
1554.977, 127.9775
1556.006, 141.6387
1557.034, 30.42773
1558.062, 5.361328
1559.089, 108.1572
1560.117, 94.31934
1561.144, 103.6416
1562.172, 73.99219
1563.199, 152.5654
1564.226, 90.24609
1565.252, 113.6357
1566.279, 234.9180
1567.305, 101.0527
1568.332, 0.8359380
1569.358, 162.8916
1570.384, 0.0000000E+00
##END=



