##NAMES=Amblygonite
##RRUFFID=R040006
##IDEAL CHEMISTRY=LiAlPO_4_F
##LOCALITY=Pala, San Diego County, California, USA
##OWNER=RRUFF
##SOURCE=University of Arizona Mineral Museum
##DESCRIPTION=Light gray coarsely crystalline massive
##STATUS=The identification of this mineral has been confirmed by X-ray diffraction and chemical analysis
##URL=rruff.info/R040006
##MEASURED CHEMISTRY=LiAl_1.00_(P_1.00_O_4_)(F_0.73_(OH)_0.27_)_Î£=1_; Li assumed by stoichiometry; OH estimated by charge balance
##PIN_ID=l00314
##ORIENTATION=Laser parallel to -c* (0 0 -1). Fiducial mark perpendicular to laser is parallel to -a [-1 0 0]
118.956, 0.000
120.347, 5.566
121.738, 172.210
123.129, 527.287
124.519, 782.997
125.910, 1152.580
127.300, 1547.439
128.690, 1845.194
130.080, 1940.089
131.469, 1965.433
132.858, 1647.002
134.248, 1442.664
135.636, 1234.202
137.025, 845.088
138.413, 698.077
139.801, 434.230
141.189, 332.314
142.577, 266.462
143.964, 339.704
145.352, 378.561
146.739, 308.389
148.125, 432.639
149.512, 538.264
150.898, 646.299
152.284, 812.931
153.670, 1033.498
155.056, 1214.988
156.441, 1512.026
157.827, 1828.530
159.212, 2234.164
160.596, 2661.184
161.981, 3153.129
163.365, 3329.149
164.749, 3545.052
166.133, 3480.966
167.517, 3441.481
168.900, 3264.558
170.283, 3052.356
171.666, 2761.532
173.049, 2322.312
174.431, 2052.389
175.813, 1780.079
177.195, 1583.858
178.577, 1413.012
179.959, 1254.306
181.340, 1127.990
182.721, 1042.736
184.102, 962.752
185.483, 763.356
186.863, 706.951
188.244, 715.724
189.624, 474.344
191.003, 379.022
192.383, 272.749
193.762, 93.514
195.141, 106.314
196.520, 32.149
197.899, 28.980
199.277, 109.075
200.656, 114.134
202.034, 65.126
203.411, 144.945
204.789, 61.579
206.166, 19.029
207.543, 11.698
208.920, 71.773
210.297, 69.635
211.673, 146.823
213.049, 178.140
214.425, 185.572
215.801, 129.108
217.176, 182.735
218.552, 121.445
219.927, 150.228
221.302, 59.075
222.676, 138.968
224.051, 59.885
225.425, 69.820
226.799, 70.769
228.173, 113.729
229.546, 66.699
230.919, 86.046
232.292, 4.653
233.665, 40.627
235.038, 17.590
236.410, 91.458
237.782, 55.516
239.154, 15.598
240.526, 63.735
241.898, 115.040
243.269, 50.591
244.640, 9.381
246.011, 35.287
247.381, 65.222
248.752, 79.155
250.122, 2.009
251.492, 18.231
252.861, 142.542
254.231, 184.906
255.600, 241.328
256.969, 421.797
258.338, 478.284
259.707, 698.778
261.075, 789.173
262.443, 995.495
263.811, 1265.683
265.179, 1547.811
266.546, 1771.843
267.914, 2100.835
269.281, 2359.837
270.647, 2553.855
272.014, 2705.896
273.380, 2690.958
274.747, 2756.041
276.113, 2698.148
277.478, 2636.276
278.844, 2593.427
280.209, 2599.733
281.574, 2569.797
282.939, 2664.016
284.304, 2770.418
285.668, 2863.048
287.032, 3222.129
288.396, 3540.380
289.760, 4126.726
291.123, 4733.110
292.487, 5649.501
293.850, 6935.871
295.212, 8593.478
296.575, 10348.456
297.937, 12854.641
299.300, 15560.738
300.662, 18346.754
302.023, 20432.672
303.385, 21308.498
304.746, 21264.193
306.107, 19759.740
307.468, 17685.133
308.829, 15510.396
310.189, 13735.533
311.549, 12280.559
312.909, 10785.469
314.269, 9530.273
315.629, 8184.961
316.988, 7119.539
318.347, 5964.012
319.706, 5108.391
321.065, 4242.643
322.423, 3826.729
323.781, 3510.431
325.139, 3166.739
326.497, 3030.659
327.855, 2871.410
329.212, 2791.096
330.569, 2550.746
331.926, 2312.361
333.283, 2147.944
334.639, 1922.487
335.995, 1834.993
337.351, 1781.458
338.707, 1604.890
340.063, 1510.271
341.418, 1421.605
342.773, 1331.922
344.128, 1284.812
345.483, 1240.690
346.837, 1220.491
348.192, 1238.158
349.546, 1183.800
350.899, 1206.445
352.253, 1267.103
353.606, 1189.773
354.960, 1261.454
356.313, 1346.741
357.665, 1306.690
359.018, 1312.888
360.370, 1278.403
361.722, 1354.579
363.074, 1344.871
364.426, 1352.920
365.777, 1365.185
367.128, 1473.554
368.479, 1429.265
369.830, 1518.753
371.181, 1460.219
372.531, 1519.607
373.881, 1431.119
375.231, 1359.565
376.581, 1186.225
377.930, 1188.029
379.280, 1160.328
380.629, 1126.147
381.977, 1079.144
383.326, 1021.002
384.674, 952.000
386.023, 885.683
387.370, 819.380
388.718, 770.691
390.066, 756.660
391.413, 744.273
392.760, 753.618
394.107, 579.062
395.454, 721.887
396.800, 638.939
398.146, 622.154
399.492, 680.247
400.838, 599.178
402.184, 609.973
403.529, 444.033
404.874, 559.899
406.219, 430.526
407.564, 412.984
408.908, 434.067
410.252, 377.049
411.596, 391.323
412.940, 474.658
414.284, 487.416
415.627, 610.057
416.970, 840.886
418.313, 957.959
419.656, 1284.129
420.999, 1866.342
422.341, 2730.560
423.683, 3762.793
425.025, 4665.067
426.367, 5227.351
427.708, 4949.667
429.049, 4361.996
430.390, 3224.337
431.731, 2456.710
433.072, 1815.098
434.412, 1351.508
435.752, 944.944
437.092, 822.385
438.432, 805.846
439.772, 750.316
441.111, 515.792
442.450, 595.273
443.789, 471.763
445.127, 490.267
446.466, 461.768
447.804, 476.256
449.142, 505.736
450.480, 554.201
451.817, 441.646
453.155, 606.071
454.492, 553.481
455.829, 544.869
457.166, 636.245
458.502, 636.622
459.838, 769.977
461.175, 820.312
462.510, 886.627
463.846, 916.921
465.181, 1111.198
466.517, 1247.456
467.852, 1276.694
469.186, 1520.913
470.521, 1734.114
471.855, 2141.296
473.190, 2410.460
474.523, 2692.606
475.857, 3084.736
477.191, 3466.848
478.524, 3858.944
479.857, 4291.023
481.190, 4473.086
482.523, 4585.133
483.855, 4637.166
485.187, 4649.184
486.519, 4341.192
487.851, 4373.188
489.183, 4035.173
490.514, 3697.150
491.845, 3589.117
493.176, 3351.074
494.507, 3083.020
495.837, 2904.958
497.168, 2616.886
498.498, 2413.534
499.828, 2330.710
501.157, 1999.608
502.487, 1755.497
503.816, 1590.376
505.145, 1583.247
506.474, 1316.109
507.802, 1283.963
509.131, 991.811
510.459, 878.649
511.787, 775.480
513.115, 577.304
514.442, 576.119
515.770, 519.927
517.097, 435.727
518.424, 452.526
519.750, 309.321
521.077, 256.123
522.403, 259.943
523.729, 287.803
525.055, 137.703
526.381, 196.630
527.706, 191.604
529.031, 150.603
530.356, 181.613
531.681, 102.629
533.006, 76.638
534.330, 40.641
535.654, 32.632
536.978, 151.265
538.302, 60.014
539.625, 102.605
540.949, 20.245
542.272, 118.025
543.595, 29.120
544.917, 105.358
546.240, 25.122
547.562, 55.027
548.884, 128.187
550.206, 6.505
551.527, 53.627
552.849, 30.771
554.170, 23.664
555.491, 48.909
556.812, 119.364
558.132, 51.234
559.453, 33.505
560.773, 111.653
562.093, 58.991
563.412, 80.043
564.732, 175.568
566.051, 139.552
567.370, 100.234
568.689, 222.492
570.008, 165.852
571.326, 302.489
572.644, 176.590
573.963, 301.720
575.280, 283.308
576.598, 344.901
577.915, 455.040
579.233, 411.287
580.550, 557.399
581.866, 462.824
583.183, 580.361
584.499, 633.318
585.815, 664.441
587.131, 814.824
588.447, 845.997
589.763, 1023.164
591.078, 1167.173
592.393, 1417.779
593.708, 1666.213
595.022, 2088.123
596.337, 2913.332
597.651, 3776.160
598.965, 4937.896
600.279, 6600.406
601.593, 8262.651
602.906, 9616.838
604.219, 9780.729
605.532, 9422.746
606.845, 7896.102
608.158, 6628.200
609.470, 5419.591
610.782, 4460.828
612.094, 3783.038
613.406, 3364.021
614.718, 3017.080
616.029, 3012.909
617.340, 2833.801
618.651, 2874.838
619.962, 2965.710
621.272, 3186.510
622.582, 3298.123
623.892, 3648.863
625.202, 3989.571
626.512, 4490.250
627.821, 5100.898
629.131, 5911.514
630.440, 6742.101
631.749, 7602.654
633.057, 8153.178
634.366, 8413.671
635.674, 8754.131
636.982, 9034.560
638.290, 9444.957
639.597, 10525.322
640.905, 12605.655
642.212, 15575.958
643.519, 19086.232
644.825, 23896.469
646.132, 26796.670
647.438, 26916.850
648.744, 24626.990
650.050, 20247.100
651.356, 16107.175
652.662, 11887.221
653.967, 9237.232
655.272, 7097.212
656.577, 5607.160
657.882, 4607.071
659.186, 3556.953
660.490, 3136.801
661.794, 2666.615
663.098, 2106.398
664.402, 1966.146
665.705, 1615.860
667.009, 1375.543
668.312, 1285.192
669.614, 1154.808
670.917, 1055.388
672.219, 962.050
673.522, 821.451
674.824, 763.932
676.125, 720.377
677.427, 588.790
678.728, 574.169
680.030, 523.513
681.331, 455.822
682.631, 398.097
683.932, 354.338
685.232, 338.907
686.532, 344.711
687.832, 324.846
689.132, 315.809
690.432, 284.626
691.731, 288.254
693.030, 224.812
694.329, 154.232
695.628, 126.824
696.926, 112.994
698.224, 139.967
699.522, 135.216
700.820, 79.516
702.118, 96.434
703.415, 41.881
704.713, 48.836
706.010, 49.558
707.307, 41.529
708.603, 52.648
709.900, 6.191
711.196, 146.700
712.492, 64.669
713.788, 107.805
715.083, 88.553
716.379, 74.663
717.674, 62.542
718.969, 50.062
720.264, 61.525
721.558, 61.181
722.853, 59.480
724.147, 18.596
725.441, 32.708
726.735, 65.836
728.028, 40.036
729.322, 102.386
730.615, 338.479
731.908, 510.306
733.201, 111.866
734.493, 83.582
735.785, 112.768
737.078, 29.973
738.370, 69.587
739.661, 70.733
740.953, 32.337
742.244, 54.830
743.535, 59.611
744.826, 31.671
746.117, 39.963
747.407, 7.536
748.698, 5.858
749.988, 106.562
751.278, 14.403
752.567, 70.560
753.857, 114.817
755.146, 77.155
756.435, 84.327
757.724, 32.760
759.013, 37.691
760.301, 88.829
761.590, 46.790
762.878, 80.697
764.165, 120.559
765.453, 147.384
766.741, 70.173
768.028, 197.121
769.315, 43.832
770.602, 8.511
771.888, 234.069
773.175, 135.617
774.461, 165.130
775.747, 330.611
777.033, 71.060
778.319, 301.516
779.604, 236.891
780.889, 332.235
782.174, 337.815
783.459, 362.177
784.744, 438.349
786.028, 443.569
787.312, 498.761
788.596, 563.922
789.880, 669.053
791.164, 714.153
792.447, 879.227
793.730, 1014.271
795.013, 1119.285
796.296, 1234.271
797.579, 1289.229
798.861, 1634.160
800.143, 1579.062
801.425, 1823.937
802.707, 1918.783
803.989, 1933.604
805.270, 2128.398
806.551, 2083.166
807.832, 2277.906
809.113, 2362.623
810.394, 2217.314
811.674, 2321.979
812.954, 2186.620
814.234, 2241.236
815.514, 2375.829
816.794, 2080.397
818.073, 2154.941
819.352, 2129.462
820.631, 2083.961
821.910, 1768.438
823.189, 1832.892
824.467, 1717.324
825.745, 1461.734
827.023, 1446.125
828.301, 1320.494
829.578, 1164.842
830.856, 1199.170
832.133, 993.479
833.410, 937.770
834.687, 772.040
835.963, 566.292
837.240, 610.525
838.516, 434.741
839.792, 448.938
841.068, 333.118
842.343, 281.823
843.618, 311.431
844.894, 185.564
846.169, 239.683
847.443, 183.664
848.718, 147.407
849.992, 101.025
851.266, 34.615
852.540, 98.318
853.814, 182.043
855.088, 35.370
856.361, 158.936
857.634, 21.616
858.907, 35.481
860.180, 87.506
861.453, 100.294
862.725, 48.061
863.997, 60.451
865.269, 16.646
866.541, 66.604
867.812, 69.758
869.084, 45.482
870.355, 28.818
871.626, 128.031
872.897, 19.377
874.167, 107.671
875.438, 88.803
876.708, 98.435
877.978, 82.729
879.248, 70.796
880.517, 156.405
881.787, 10.884
883.056, 105.873
884.325, 122.126
885.594, 78.429
886.862, 5.310
888.130, 81.321
889.399, 1.768
890.667, 87.477
891.934, 12.869
893.202, 49.299
894.469, 13.719
895.737, 67.983
897.004, 130.122
898.270, 6.736
899.537, 67.735
900.803, 42.882
902.070, 115.650
903.336, 81.311
904.601, 91.599
905.867, 230.464
907.132, 6.398
908.398, 35.948
909.663, 81.457
910.928, 9.169
912.192, 130.074
913.457, 42.841
914.721, 44.252
915.985, 36.902
917.249, 50.249
918.512, 133.734
919.776, 13.768
921.039, 109.943
922.302, 41.563
923.565, 140.401
924.827, 14.163
926.090, 67.768
927.352, 51.527
928.614, 135.345
929.876, 1.664
931.138, 132.190
932.399, 56.066
933.660, 20.038
934.922, 123.875
936.182, 107.808
937.443, 111.764
938.704, 125.741
939.964, 169.742
941.224, 213.766
942.484, 287.811
943.744, 371.880
945.003, 155.974
946.262, 120.091
947.521, 224.231
948.780, 298.397
950.039, 312.589
951.298, 336.809
952.556, 331.056
953.814, 405.327
955.072, 369.629
956.330, 413.954
957.587, 488.309
958.845, 472.700
960.102, 557.119
961.359, 651.573
962.615, 556.055
963.872, 840.564
965.128, 655.104
966.384, 939.673
967.640, 984.286
968.896, 998.929
970.152, 1153.603
971.407, 1138.369
972.662, 1313.168
973.917, 1437.996
975.172, 1462.896
976.427, 1627.834
977.681, 1802.812
978.935, 1907.819
980.189, 2252.861
981.443, 2427.938
982.697, 2443.044
983.950, 2798.199
985.203, 2723.386
986.456, 3488.606
987.709, 3513.864
988.962, 3989.155
990.214, 4704.482
991.467, 4859.895
992.719, 6025.359
993.971, 6840.859
995.222, 7886.434
996.474, 9352.045
997.725, 10407.720
998.976, 12193.478
1000.227, 13619.274
1001.478, 15285.118
1002.728, 17941.000
1003.978, 19816.924
1005.229, 22232.914
1006.479, 24618.939
1007.728, 26275.014
1008.978, 28701.158
1010.227, 29184.920
1011.476, 29471.174
1012.725, 29317.469
1013.974, 27253.840
1015.223, 26316.787
1016.471, 23602.008
1017.719, 21108.521
1018.967, 19221.316
1020.215, 17008.021
1021.462, 15124.792
1022.710, 13244.839
1023.957, 11681.731
1025.204, 10923.300
1026.451, 9580.338
1027.697, 8952.752
1028.944, 8439.914
1030.190, 8087.139
1031.436, 7936.850
1032.682, 7954.219
1033.928, 7906.968
1035.173, 8608.991
1036.418, 8463.297
1037.663, 9130.614
1038.908, 9655.122
1040.153, 9842.787
1041.398, 10517.212
1042.642, 11154.730
1043.886, 11332.643
1045.130, 12170.328
1046.374, 12448.416
1047.617, 12871.568
1048.860, 13599.782
1050.104, 13918.056
1051.347, 14695.292
1052.589, 15633.699
1053.832, 16489.695
1055.074, 18195.373
1056.316, 19523.951
1057.558, 22092.461
1058.800, 24911.137
1060.042, 26857.561
1061.283, 30846.346
1062.524, 32545.199
1063.765, 33834.094
1065.006, 33113.051
1066.247, 30192.057
1067.487, 27221.111
1068.728, 22330.211
1069.968, 18289.166
1071.208, 15538.380
1072.447, 12337.645
1073.687, 10086.977
1074.926, 8546.349
1076.165, 6785.771
1077.404, 6175.236
1078.643, 5164.742
1079.881, 4444.258
1081.120, 4153.871
1082.358, 3423.553
1083.596, 3213.033
1084.834, 2922.821
1086.071, 2542.662
1087.309, 2572.551
1088.546, 2392.482
1089.783, 2432.466
1091.020, 2202.494
1092.256, 2042.566
1093.493, 2102.684
1094.729, 2192.843
1095.965, 2103.044
1097.201, 2263.287
1098.436, 2183.572
1099.672, 2294.533
1100.907, 2454.904
1102.142, 2565.318
1103.377, 2945.939
1104.612, 2926.438
1105.846, 3236.976
1107.081, 3679.379
1108.315, 3869.998
1109.549, 4161.811
1110.782, 4452.511
1112.016, 4613.250
1113.249, 5204.031
1114.483, 5294.852
1115.716, 5488.730
1116.948, 5959.629
1118.181, 5810.566
1119.413, 6206.287
1120.646, 6387.303
1121.878, 6278.355
1123.110, 6478.205
1124.341, 6650.555
1125.573, 6472.883
1126.804, 6314.092
1128.035, 6190.255
1129.266, 6086.695
1130.497, 5728.014
1131.727, 5672.014
1132.957, 5433.399
1134.188, 5114.818
1135.418, 4926.341
1136.647, 4728.031
1137.877, 4109.547
1139.106, 4222.945
1140.335, 3418.176
1141.564, 3279.784
1142.793, 2920.062
1144.022, 2452.252
1145.250, 2499.415
1146.479, 1962.249
1147.707, 1914.001
1148.934, 1666.831
1150.162, 1288.973
1151.390, 1371.434
1152.617, 1449.361
1153.844, 1191.243
1155.071, 1153.151
1156.298, 1045.562
1157.524, 1167.848
1158.751, 1011.017
1159.977, 1003.232
1161.203, 735.840
1162.428, 1079.684
1163.654, 664.216
1164.879, 1016.341
1166.105, 1004.162
1167.330, 816.347
1168.555, 1064.230
1169.779, 949.035
1171.004, 851.306
1172.228, 1169.404
1173.452, 671.870
1174.676, 964.216
1175.900, 1031.931
1177.123, 824.328
1178.346, 977.360
1179.570, 975.327
1180.793, 967.799
1182.015, 1100.560
1183.238, 1075.165
1184.460, 1157.735
1185.683, 1155.552
1186.905, 1009.977
1188.126, 1172.656
1189.348, 1287.252
1190.569, 1319.908
1191.791, 1590.110
1193.012, 1307.276
1194.233, 1519.959
1195.453, 1662.967
1196.674, 1366.223
1197.894, 1610.045
1199.114, 1573.708
1200.334, 1396.500
1201.554, 1590.280
1202.774, 1264.128
1203.993, 1606.905
1205.212, 1530.122
1206.431, 1293.580
1207.650, 1476.377
1208.869, 1360.546
1210.087, 1203.662
1211.305, 1346.462
1212.524, 869.605
1213.741, 1113.170
1214.959, 1106.088
1216.177, 912.468
1217.394, 895.265
1218.611, 858.849
1219.828, 681.771
1221.045, 734.562
1222.261, 607.631
1223.478, 560.419
1224.694, 573.197
1225.910, 368.562
1227.126, 261.673
1228.342, 301.367
1229.557, 318.708
1230.772, 261.466
1231.987, 106.541
1233.202, 280.178
1234.417, 193.312
1235.631, 88.348
1236.846, 271.329
1238.060, 94.454
1239.274, 248.126
1240.488, 100.893
1241.701, 13.690
1242.915, 166.587
1244.128, 19.371
1245.341, 27.203
1246.554, 135.571
1247.767, 48.557
1248.979, 8.139
1250.191, 164.635
1251.403, 107.343
1252.615, 49.906
1253.827, 152.738
1255.039, 34.256
1256.250, 58.420
1257.461, 131.046
1258.672, 33.816
1259.883, 126.440
1261.094, 60.803
1262.304, 102.074
1263.514, 164.516
1264.724, 243.105
1265.934, 200.392
1267.144, 252.647
1268.354, 143.021
1269.563, 20.876
1270.772, 18.754
1271.981, 74.364
1273.190, 186.434
1274.398, 18.883
1275.607, 41.925
1276.815, 36.159
1278.023, 75.872
1279.231, 107.915
1280.439, 39.648
1281.646, 11.367
1282.853, 113.197
1284.060, 175.179
1285.267, 43.284
1286.474, 108.175
1287.681, 120.414
1288.887, 11.132
1290.093, 67.558
1291.299, 156.299
1292.505, 145.056
1293.711, 6.208
1294.916, 27.327
1296.121, 18.415
1297.327, 70.531
1298.531, 110.550
1299.736, 161.493
1300.941, 137.588
1302.145, 43.257
1303.349, 14.054
1304.553, 74.759
1305.757, 35.395
1306.961, 5.972
1308.164, 3.515
1309.367, 166.950
1310.570, 212.627
1311.773, 208.134
1312.976, 51.588
1314.178, 1.374
1315.381, 298.784
1316.583, 51.099
1317.785, 118.953
1318.987, 208.961
1320.188, 41.072
1321.390, 288.822
1322.591, 58.676
1323.792, 41.528
1324.993, 198.179
1326.193, 107.831
1327.394, 17.434
1328.594, 216.971
1329.794, 33.540
1330.994, 25.883
1332.194, 165.254
1333.394, 24.577
1334.593, 263.848
1335.792, 66.925
1336.991, 17.776
1338.190, 221.309
1339.389, 120.348
1340.587, 89.340
1341.786, 58.284
1342.984, 67.182
1344.182, 186.030
1345.379, 65.013
1346.577, 63.763
1347.774, 342.465
1348.972, 111.124
1350.169, 89.739
1351.365, 238.308
1352.562, 56.834
1353.759, 135.312
1354.955, 223.751
1356.151, 132.150
1357.347, 90.511
1358.543, 188.908
1359.738, 7.190
1360.934, 425.419
1362.129, 93.612
1363.324, 191.763
1364.519, 289.881
1365.713, 157.966
1366.908, 226.022
1368.102, 354.052
1369.296, 32.050
1370.490, 150.013
1371.684, 41.589
1372.877, 3.696
1374.071, 274.166
1375.264, 42.512
1376.457, 100.259
1377.650, 148.324
1378.843, 45.076
1380.035, 186.687
1381.227, 158.256
1382.419, 109.786
1383.611, 391.281
1384.803, 252.074
1385.995, 233.307
1387.186, 354.670
1388.377, 144.038
1389.568, 284.059
1390.759, 225.272
1391.950, 163.118
1393.140, 304.216
1394.331, 288.724
1395.521, 239.652
1396.711, 377.636
1397.900, 178.254
1399.090, 258.726
1400.279, 276.126
1401.469, 236.483
1402.658, 406.637
1403.847, 208.184
1405.035, 157.719
1406.224, 280.272
1407.412, 286.223
1408.600, 74.129
1409.788, 365.161
1410.976, 34.616
1412.164, 309.912
1413.351, 277.300
1414.538, 73.296
1415.725, 329.064
1416.912, 106.624
1418.099, 43.880
1419.285, 184.246
1420.472, 152.391
1421.658, 133.039
1422.844, 392.298
1424.030, 189.897
1425.215, 154.749
1426.401, 451.971
1427.586, 96.539
1428.771, 372.444
1429.956, 202.746
1431.141, 118.590
1432.325, 392.420
1433.510, 277.643
1434.694, 122.750
1435.878, 357.681
1437.062, 162.049
1438.245, 278.091
1439.429, 362.664
1440.612, 132.525
1441.795, 307.348
1442.978, 453.250
1444.161, 328.775
1445.343, 429.875
1446.526, 301.787
1447.708, 208.381
1448.890, 377.273
1450.072, 356.885
1451.253, 280.348
1452.435, 572.885
1453.616, 26.719
1454.797, 369.205
1455.978, 372.367
1457.159, 244.531
1458.340, 427.775
1459.520, 360.240
1460.700, 233.156
1461.880, 595.527
1463.060, 136.906
1464.240, 379.885
1465.420, 509.781
1466.599, 217.170
1467.778, 437.082
1468.957, 398.430
1470.136, 168.047
1471.315, 509.555
1472.493, 482.387
1473.671, 284.740
1474.849, 506.537
1476.027, 458.867
1477.205, 291.713
1478.383, 313.828
1479.560, 226.348
1480.737, 278.412
1481.914, 460.740
1483.091, 222.910
1484.268, 335.525
1485.444, 338.418
1486.621, 11.342
1487.797, 412.312
1488.973, 255.119
1490.149, 187.910
1491.324, 510.695
1492.500, 213.527
1493.675, 316.590
1494.850, 329.957
1496.025, 63.580
1497.200, 377.303
1498.374, 291.174
1499.548, 25.164
1500.723, 459.324
1501.897, 213.695
1503.071, 118.270
1504.244, 291.547
1505.418, 66.607
1506.591, 281.994
1507.764, 397.744
1508.937, 63.852
1510.110, 349.273
1511.282, 416.127
1512.455, 6.389
1513.627, 441.863
1514.799, 250.877
1515.971, 1.125
1517.143, 450.850
1518.314, 0.000
1519.486, 0.000
##END=



