##NAMES=Andalusite
##RRUFFID=R060197
##IDEAL CHEMISTRY=Al_2_SiO_5_
##LOCALITY=Brazil
##OWNER=RRUFF
##SOURCE=Marcus Origlieri
##DESCRIPTION=Green colored water worn pebble
##STATUS=The identification of this mineral has been confirmed by X-ray diffraction and chemical analysis
##URL=rruff.info/R060197
##MEASURED CHEMISTRY=(Al_1.97_Mn^3+^_0.03_)_Î£=2_Si_1.00_O_5_
##PIN_ID=M00466
##ORIENTATION=Laser parallel to a* (1 0 0). Fiducial mark perpendicular to laser is parallel to -b [0 -1 0]
91.01200, 0.0000000E+00
92.24600, 290.3242
93.48000, 63.90234
94.71400, 79.41699
95.94800, 190.3809
97.18200, 12.37012
98.41600, 83.45605
99.64900, 217.7861
100.8830, 274.5771
102.1160, 278.3447
103.3490, 372.9287
104.5820, 590.5898
105.8150, 648.1064
107.0470, 1240.420
108.2800, 1685.993
109.5120, 2308.646
110.7440, 1925.992
111.9760, 1262.686
113.2080, 795.4385
114.4400, 967.0234
115.6710, 1140.248
116.9030, 1050.955
118.1340, 918.0137
119.3650, 839.3174
120.5960, 584.7686
121.8270, 767.2852
123.0580, 867.8008
124.2880, 924.5078
125.5190, 788.5059
126.7490, 731.8867
127.9790, 759.8682
129.2090, 786.3477
130.4390, 941.2803
131.6680, 875.6396
132.8980, 912.4014
134.1270, 921.5547
135.3560, 898.0928
136.5850, 1075.999
137.8140, 1066.262
139.0430, 1407.872
140.2710, 1611.819
141.5000, 1560.103
142.7280, 1728.738
143.9560, 1653.729
145.1840, 1611.062
146.4120, 1495.727
147.6390, 1381.715
148.8670, 1068.012
150.0940, 1083.608
151.3210, 854.4971
152.5490, 1082.669
153.7750, 988.1162
155.0020, 819.0596
156.2290, 845.8223
157.4550, 746.1250
158.6810, 677.4453
159.9080, 724.4199
161.1340, 702.2910
162.3590, 630.6885
163.5850, 797.0312
164.8110, 904.5410
166.0360, 1057.002
167.2610, 1011.475
168.4860, 1038.994
169.7110, 1005.592
170.9360, 998.2842
172.1610, 993.0898
173.3850, 882.0234
174.6100, 813.1006
175.8340, 872.4453
177.0580, 749.9785
178.2820, 778.6582
179.5050, 735.4883
180.7290, 742.4619
181.9520, 721.5840
183.1760, 761.0039
184.3990, 763.2715
185.6220, 878.8379
186.8450, 982.5488
188.0670, 1084.414
189.2900, 1395.444
190.5120, 1407.732
191.7340, 1626.418
192.9560, 2121.500
194.1780, 2220.972
195.4000, 2104.643
196.6220, 2002.438
197.8430, 1581.348
199.0640, 1725.367
200.2860, 1599.496
201.5070, 1508.733
202.7270, 1559.077
203.9480, 1281.527
205.1690, 827.0840
206.3890, 271.7471
207.6090, 224.5146
208.8290, 142.3877
210.0490, 94.36426
211.2690, 129.4463
212.4890, 374.6299
213.7080, 343.9170
214.9280, 239.3066
216.1470, 203.7988
217.3660, 141.3887
218.5850, 5.918945
219.8030, 23.12988
221.0220, 18.76074
222.2400, 164.2422
223.4590, 55.06738
224.6770, 137.7422
225.8950, 340.2842
227.1120, 24.28223
228.3300, 153.0508
229.5480, 97.27148
230.7650, 188.4473
231.9820, 77.61621
233.1990, 132.2402
234.4160, 113.1270
235.6330, 154.0664
236.8490, 293.0967
238.0660, 346.8467
239.2820, 569.6592
240.4980, 507.4814
241.7140, 619.0000
242.9300, 554.1104
244.1460, 588.6514
245.3610, 521.7217
246.5770, 492.8193
247.7920, 270.0137
249.0070, 376.1611
250.2220, 221.6074
251.4370, 81.32715
252.6510, 430.3027
253.8660, 373.5176
255.0800, 641.5410
256.2940, 698.4219
257.5080, 849.3008
258.7220, 1713.245
259.9360, 2707.190
261.1490, 2865.566
262.3630, 2541.100
263.5760, 2319.789
264.7890, 1994.180
266.0020, 1624.158
267.2150, 1576.273
268.4270, 1510.521
269.6400, 1604.896
270.8520, 1982.396
272.0640, 2502.006
273.2760, 3172.723
274.4880, 3595.543
275.7000, 3925.463
276.9120, 4489.484
278.1230, 5138.600
279.3340, 6094.814
280.5450, 7205.121
281.7560, 8737.521
282.9670, 10286.01
284.1780, 12586.06
285.3880, 14493.66
286.5980, 16897.61
287.8090, 18773.03
289.0190, 19775.56
290.2290, 19767.33
291.4380, 18486.87
292.6480, 16149.79
293.8570, 13662.25
295.0670, 11170.80
296.2760, 8719.193
297.4850, 7153.137
298.6930, 5646.053
299.9020, 4786.666
301.1110, 3692.330
302.3190, 3341.057
303.5270, 2761.801
304.7350, 2579.479
305.9430, 2382.188
307.1510, 2462.896
308.3580, 2644.660
309.5660, 3213.486
310.7730, 3674.381
311.9800, 4516.342
313.1870, 5789.367
314.3940, 7126.463
315.6010, 8746.621
316.8070, 10557.85
318.0130, 11832.14
319.2200, 12011.50
320.4260, 11069.92
321.6310, 9736.408
322.8370, 8216.957
324.0430, 6733.566
325.2480, 5451.240
326.4540, 4501.977
327.6590, 3678.773
328.8640, 3113.629
330.0680, 2701.545
331.2730, 2597.521
332.4780, 2467.555
333.6820, 2090.648
334.8860, 2318.799
336.0900, 2175.004
337.2940, 2171.268
338.4980, 2193.582
339.7010, 2278.949
340.9050, 2534.369
342.1080, 2520.836
343.3110, 2662.355
344.5140, 2960.932
345.7170, 3668.561
346.9200, 4193.273
348.1220, 4765.045
349.3240, 5920.865
350.5270, 6890.732
351.7290, 8140.549
352.9310, 9335.338
354.1320, 10595.72
355.3340, 11510.72
356.5350, 12142.61
357.7370, 11899.01
358.9380, 11167.36
360.1390, 9792.973
361.3400, 8489.621
362.5400, 6911.609
363.7410, 5564.922
364.9410, 4929.742
366.1410, 3833.240
367.3410, 3284.723
368.5410, 2508.320
369.7410, 2208.721
370.9400, 1977.691
372.1400, 1547.418
373.3390, 1359.412
374.5380, 1124.115
375.7370, 968.9707
376.9360, 859.2598
378.1350, 780.3164
379.3330, 705.1504
380.5310, 717.1543
381.7300, 781.1992
382.9280, 736.3262
384.1260, 719.5293
385.3230, 646.8066
386.5210, 691.1543
387.7180, 617.5703
388.9160, 440.3496
390.1130, 670.8926
391.3100, 539.6562
392.5060, 248.3184
393.7030, 480.0410
394.9000, 135.8203
396.0960, 115.6543
397.2920, 179.5430
398.4880, 16.48438
399.6840, 30.47266
400.8800, 42.50781
402.0750, 80.40820
403.2710, 117.3145
404.4660, 126.7656
405.6610, 107.8965
406.8560, 109.0742
408.0510, 22.29883
409.2450, 58.74609
410.4400, 97.56055
411.6340, 115.2402
412.8280, 221.6465
414.0220, 314.0977
415.2160, 339.5957
416.4100, 605.1348
417.6030, 599.7227
418.7970, 465.3496
419.9900, 538.0215
421.1830, 335.7383
422.3760, 340.4980
423.5690, 145.3008
424.7610, 146.1465
425.9540, 64.03516
427.1460, 34.96289
428.3380, 19.92969
429.5300, 48.92773
430.7220, 78.03711
431.9140, 78.00781
433.1050, 179.9863
434.2970, 229.0176
435.4880, 139.1230
436.6790, 186.6016
437.8700, 186.4590
439.0610, 142.7129
440.2510, 9.996094
441.4420, 43.73047
442.6320, 67.49805
443.8220, 255.3086
445.0120, 278.1602
446.2020, 241.0488
447.3910, 357.9766
448.5810, 528.9473
449.7700, 696.9668
450.9600, 557.0234
452.1490, 385.1426
453.3370, 155.3457
454.5260, 136.6074
455.7150, 184.8730
456.9030, 112.1973
458.0910, 94.56641
459.2800, 165.9727
460.4670, 185.4160
461.6550, 462.8984
462.8430, 247.4199
464.0300, 489.9785
465.2180, 433.5742
466.4050, 621.2070
467.5920, 754.8770
468.7790, 964.5840
469.9650, 894.3242
471.1520, 1023.104
472.3380, 1310.918
473.5250, 1197.768
474.7110, 1082.654
475.8970, 1341.574
477.0820, 1291.529
478.2680, 1582.520
479.4540, 1416.543
480.6390, 1197.604
481.8240, 1447.695
483.0090, 1093.822
484.1940, 981.9824
485.3780, 789.1758
486.5630, 556.4609
487.7470, 314.5566
488.9320, 251.9121
490.1160, 365.0586
491.3000, 104.4160
492.4830, 112.8027
493.6670, 12.69531
494.8500, 45.97266
496.0340, 35.78125
497.2170, 15.17188
498.4000, 1.759766
499.5820, 35.15430
500.7650, 11.10547
501.9480, 70.55469
503.1300, 71.03125
504.3120, 57.53125
505.4940, 144.0527
506.6760, 1.396484
507.8580, 353.1602
509.0390, 543.1816
510.2210, 416.2480
511.4020, 558.2930
512.5830, 546.3457
513.7640, 544.1250
514.9450, 398.9277
516.1250, 446.7773
517.3060, 289.6621
518.4860, 291.5957
519.6660, 418.5625
520.8460, 187.5547
522.0260, 137.5742
523.2060, 205.6172
524.3850, 283.6855
525.5650, 171.7793
526.7440, 240.8984
527.9230, 180.0410
529.1020, 156.2090
530.2810, 36.40039
531.4590, 203.6016
532.6380, 90.82422
533.8160, 179.0703
534.9940, 236.3379
536.1720, 402.6289
537.3500, 455.9414
538.5270, 774.2734
539.7050, 955.6289
540.8820, 1047.422
542.0590, 1268.588
543.2360, 1913.980
544.4130, 2426.510
545.5900, 2696.242
546.7660, 3105.760
547.9430, 3426.340
549.1190, 3507.947
550.2950, 3296.023
551.4710, 2938.717
552.6470, 2578.432
553.8220, 2371.174
554.9980, 1611.938
556.1730, 1307.779
557.3480, 1083.652
558.5230, 886.5449
559.6980, 743.4648
560.8730, 741.4219
562.0470, 683.4160
563.2220, 737.4668
564.3960, 832.5566
565.5700, 1052.699
566.7440, 1123.898
567.9170, 1289.184
569.0910, 1339.088
570.2640, 1305.570
571.4380, 1263.883
572.6110, 1176.863
573.7840, 1033.881
574.9570, 911.8105
576.1290, 788.1172
577.3020, 683.0000
578.4740, 605.1953
579.6460, 514.4531
580.8180, 492.3691
581.9900, 476.8203
583.1620, 473.3926
584.3330, 547.3574
585.5040, 593.3535
586.6760, 592.3770
587.8470, 596.4160
589.0180, 758.4727
590.1880, 694.4434
591.3590, 488.5332
592.5290, 555.9180
593.7000, 620.1191
594.8700, 710.2500
596.0400, 976.9551
597.2090, 850.4219
598.3790, 901.4883
599.5490, 763.6699
600.7180, 778.8672
601.8870, 946.0742
603.0560, 663.2949
604.2250, 848.5254
605.3940, 675.7695
606.5620, 620.0195
607.7300, 681.2832
608.8990, 656.5547
610.0670, 446.8379
611.2350, 322.1309
612.4020, 537.4316
613.5700, 509.7441
614.7370, 394.3027
615.9050, 646.7031
617.0720, 750.0293
618.2390, 712.2324
619.4060, 110.5938
620.5720, 237.1133
621.7390, 71.79102
622.9050, 154.5234
624.0710, 156.9062
625.2370, 77.29297
626.4030, 3.314453
627.5690, 2.900391
628.7340, 130.5469
629.9000, 16.22852
631.0650, 107.0742
632.2300, 113.3828
633.3950, 22.69727
634.5600, 0.8867190
635.7240, 37.40039
636.8890, 53.46875
638.0530, 19.14453
639.2170, 95.38477
640.3810, 91.41602
641.5450, 176.5566
642.7080, 272.4844
643.8720, 251.4219
645.0350, 208.0645
646.1980, 161.3809
647.3610, 231.8789
648.5240, 18.84961
649.6870, 6.412109
650.8490, 36.33008
652.0120, 11.90820
653.1740, 69.14258
654.3360, 166.3789
655.4980, 148.6172
656.6600, 149.8535
657.8210, 321.0938
658.9830, 419.3340
660.1440, 506.5742
661.3050, 600.8145
662.4660, 569.0527
663.6270, 312.2910
664.7870, 412.5293
665.9480, 406.7656
667.1080, 390.0020
668.2680, 391.2344
669.4280, 397.4668
670.5880, 511.3965
671.7480, 590.6270
672.9070, 577.6914
674.0670, 468.9141
675.2260, 781.1367
676.3850, 737.3516
677.5440, 1162.568
678.7030, 898.7793
679.8610, 948.5625
681.0200, 954.7715
682.1780, 1062.789
683.3360, 1066.379
684.4940, 1144.270
685.6520, 1116.146
686.8090, 1275.238
687.9670, 1265.035
689.1240, 1272.027
690.2810, 1463.766
691.4380, 1548.018
692.5950, 1480.873
693.7520, 1543.613
694.9080, 1701.076
696.0650, 1623.758
697.2210, 1741.695
698.3770, 1984.275
699.5330, 2059.430
700.6880, 2422.000
701.8440, 2489.625
702.9990, 2691.000
704.1550, 2613.166
705.3100, 2947.301
706.4650, 3082.230
707.6190, 3035.568
708.7740, 2920.814
709.9290, 2905.379
711.0830, 2844.898
712.2370, 2544.547
713.3910, 2554.193
714.5450, 2300.449
715.6980, 2114.227
716.8520, 2074.338
718.0050, 1813.496
719.1580, 1380.578
720.3110, 1148.816
721.4640, 879.3555
722.6170, 730.5059
723.7700, 550.6973
724.9220, 361.3438
726.0740, 397.4688
727.2260, 368.5273
728.3780, 43.56055
729.5300, 196.5508
730.6810, 7.482422
731.8330, 99.58203
732.9840, 235.2070
734.1350, 125.9688
735.2860, 150.7012
736.4370, 100.4023
737.5880, 456.0703
738.7380, 408.7109
739.8880, 374.3281
741.0390, 576.9160
742.1890, 569.4766
743.3380, 801.0137
744.4880, 634.5215
745.6380, 825.0020
746.7870, 670.4590
747.9360, 860.8848
749.0850, 949.2852
750.2340, 809.6562
751.3830, 921.0020
752.5310, 867.3223
753.6800, 799.2012
754.8280, 740.8750
755.9760, 662.1113
757.1240, 772.3184
758.2720, 717.5000
759.4190, 879.6523
760.5670, 785.7773
761.7140, 745.8750
762.8610, 755.9824
764.0080, 704.9883
765.1550, 694.9434
766.3020, 535.0977
767.4480, 538.9355
768.5950, 531.1035
769.7410, 583.0098
770.8870, 595.0684
772.0330, 642.0547
773.1780, 668.1973
774.3240, 750.2578
775.4690, 820.5332
776.6140, 895.9805
777.7590, 1157.482
778.9040, 1151.260
780.0490, 1375.014
781.1940, 1533.746
782.3380, 1593.455
783.4820, 2087.141
784.6260, 2174.797
785.7700, 2793.441
786.9140, 3027.121
788.0580, 3474.775
789.2010, 3480.957
790.3450, 3761.148
791.4880, 3615.658
792.6310, 3370.141
793.7730, 3170.600
794.9160, 2923.602
796.0590, 2687.574
797.2010, 2349.812
798.3430, 2186.160
799.4850, 1807.482
800.6270, 1511.775
801.7690, 1547.043
802.9100, 1191.283
804.0520, 1158.494
805.1930, 1028.678
806.3340, 735.8340
807.4750, 638.9609
808.6160, 407.0684
809.7560, 713.1465
810.8970, 438.1973
812.0370, 530.2188
813.1770, 482.2129
814.3170, 328.1797
815.4570, 283.1172
816.5960, 178.0254
817.7360, 325.8984
818.8750, 156.7461
820.0140, 204.5527
821.1530, 149.3281
822.2920, 21.93555
823.4310, 93.27734
824.5690, 101.2656
825.7070, 166.7617
826.8460, 87.77539
827.9840, 275.5703
829.1220, 40.88867
830.2590, 198.1523
831.3970, 147.6191
832.5340, 48.46289
833.6710, 174.4941
834.8080, 118.4883
835.9450, 13.56055
837.0820, 6.316406
838.2190, 87.87109
839.3550, 8.173828
840.4910, 61.54688
841.6270, 81.01953
842.7630, 205.6035
843.8990, 180.6875
845.0350, 52.28906
846.1700, 185.3066
847.3060, 105.5391
848.4410, 123.7930
849.5760, 108.2285
850.7100, 149.7891
851.8450, 46.49219
852.9800, 36.14648
854.1140, 5.171875
855.2480, 77.87891
856.3820, 145.8789
857.5160, 227.8379
858.6500, 394.7637
859.7830, 143.6562
860.9170, 35.55664
862.0500, 305.4258
863.1830, 389.1914
864.3160, 393.9258
865.4480, 446.7363
866.5810, 514.4102
867.7130, 525.7734
868.8460, 585.3027
869.9780, 595.8867
871.1100, 631.8848
872.2410, 628.1055
873.3730, 573.7090
874.5050, 559.1777
875.6360, 559.9316
876.7670, 672.0371
877.8980, 582.4219
879.0290, 504.7812
880.1590, 534.1309
881.2900, 393.4551
882.4200, 445.7539
883.5500, 469.0469
884.6800, 388.3379
885.8100, 568.6309
886.9400, 519.9219
888.0690, 533.1992
889.1990, 633.4766
890.3280, 749.7285
891.4570, 723.9648
892.5860, 841.2168
893.7140, 801.4668
894.8430, 824.7402
895.9710, 996.9863
897.1000, 1200.242
898.2280, 1295.480
899.3560, 1611.768
900.4830, 1744.027
901.6110, 1856.270
902.7380, 2290.520
903.8660, 2533.779
904.9930, 3294.082
906.1200, 3778.379
907.2460, 4891.695
908.3730, 6209.016
909.5000, 7497.367
910.6260, 9554.727
911.7520, 12145.09
912.8780, 15446.50
914.0040, 18631.89
915.1290, 22830.25
916.2550, 26037.59
917.3800, 28501.91
918.5050, 28187.23
919.6300, 26188.53
920.7550, 23272.81
921.8800, 20181.05
923.0040, 17363.28
924.1290, 14911.49
925.2530, 13167.70
926.3770, 11763.88
927.5010, 10439.04
928.6250, 9519.184
929.7480, 8582.301
930.8720, 7760.393
931.9950, 6575.457
933.1180, 6001.496
934.2410, 5461.506
935.3640, 4806.500
936.4860, 4714.465
937.6090, 4308.406
938.7310, 4385.316
939.8530, 4247.205
940.9750, 4524.064
942.0970, 4835.900
943.2180, 4989.709
944.3400, 5718.492
945.4610, 6287.248
946.5820, 6742.979
947.7030, 7004.680
948.8240, 7121.357
949.9450, 7230.008
951.0650, 6822.633
952.1860, 6454.656
953.3060, 5633.227
954.4260, 5232.959
955.5460, 5189.092
956.6650, 4658.656
957.7850, 3447.750
958.9040, 2800.336
960.0230, 2670.191
961.1420, 2550.822
962.2610, 2405.676
963.3800, 2112.986
964.4990, 1965.658
965.6170, 1990.418
966.7350, 2034.424
967.8530, 2086.176
968.9710, 1806.645
970.0890, 1988.436
971.2070, 1502.781
972.3240, 1657.357
973.4410, 1354.004
974.5580, 1243.641
975.6750, 1401.914
976.7920, 1280.953
977.9090, 1159.434
979.0250, 1002.938
980.1410, 837.7676
981.2580, 706.2539
982.3740, 555.7520
983.4890, 723.1152
984.6050, 439.4648
985.7200, 496.2207
986.8360, 212.4805
987.9510, 349.4121
989.0660, 474.3066
990.1810, 434.2949
991.2950, 179.1289
992.4100, 156.6387
993.5240, 285.5000
994.6390, 102.2891
995.7530, 95.58398
996.8660, 144.3672
997.9800, 217.1816
999.0940, 245.3340
1000.207, 129.7852
1001.320, 279.6895
1002.433, 420.4883
1003.546, 295.6191
1004.659, 618.7402
1005.772, 534.7227
1006.884, 577.6484
1007.996, 911.7598
1009.108, 1260.549
1010.220, 1324.709
1011.332, 1479.766
1012.444, 2132.523
1013.555, 2231.523
1014.666, 2547.100
1015.777, 2925.105
1016.888, 2955.436
1017.999, 3213.664
1019.110, 2941.307
1020.220, 3045.789
1021.331, 2723.619
1022.441, 2695.055
1023.551, 2196.277
1024.661, 1874.271
1025.770, 1705.590
1026.880, 1327.941
1027.989, 1452.240
1029.098, 1570.537
1030.207, 1378.109
1031.316, 1118.660
1032.425, 1039.391
1033.533, 873.3652
1034.642, 795.6543
1035.750, 746.8496
1036.858, 767.6895
1037.966, 888.9297
1039.073, 851.9531
1040.181, 918.2012
1041.288, 715.3906
1042.396, 815.4277
1043.503, 1154.660
1044.610, 705.7734
1045.716, 850.6680
1046.823, 1080.361
1047.929, 1007.213
1049.036, 1357.486
1050.142, 1253.895
1051.248, 1382.971
1052.353, 1624.959
1053.459, 1618.293
1054.564, 2216.465
1055.670, 2797.770
1056.775, 3165.902
1057.880, 3602.289
1058.985, 4174.596
1060.089, 4590.303
1061.194, 4112.406
1062.298, 4237.516
1063.402, 3633.805
1064.506, 3411.223
1065.610, 2834.195
1066.713, 2478.145
1067.817, 2267.223
1068.920, 1703.133
1070.023, 1747.020
1071.126, 1554.895
1072.229, 1692.742
1073.332, 1384.215
1074.435, 1212.027
1075.537, 1494.816
1076.639, 1242.590
1077.741, 1281.340
1078.843, 1165.074
1079.945, 1303.785
1081.046, 1355.480
1082.148, 1169.152
1083.249, 1226.809
1084.350, 1099.441
1085.451, 1284.062
1086.551, 1396.656
1087.652, 1403.242
1088.752, 1172.809
1089.853, 1382.363
1090.953, 931.9219
1092.053, 1042.504
1093.152, 1333.078
1094.252, 1167.633
1095.351, 1206.211
1096.451, 1112.773
1097.550, 1274.332
1098.649, 1465.871
1099.748, 1466.449
1100.846, 1602.020
1101.945, 1852.578
1103.043, 1670.125
1104.141, 1934.676
1105.239, 1943.496
1106.337, 1890.801
1107.434, 1992.379
1108.532, 2050.977
1109.629, 1948.594
1110.726, 1500.266
1111.823, 1622.988
1112.920, 1224.727
1114.017, 1139.516
1115.113, 1017.332
1116.210, 1128.184
1117.306, 957.0625
1118.402, 1165.988
1119.498, 1029.926
1120.593, 1038.871
1121.689, 1063.820
1122.784, 1194.762
1123.879, 924.6875
1124.974, 988.6055
1126.069, 846.5078
1127.164, 943.3477
1128.259, 833.1641
1129.353, 548.0312
1130.447, 685.8867
1131.541, 347.7227
1132.635, 193.5430
1133.729, 257.3516
1134.822, 150.1406
1135.916, 149.7812
1137.009, 180.6602
1138.102, 192.3945
1139.195, 146.1133
1140.288, 250.8125
1141.380, 129.4922
1142.473, 152.1562
1143.565, 244.8047
1144.657, 45.56641
1145.749, 25.12891
1146.841, 153.5586
1147.932, 66.91016
1149.024, 65.44531
1150.115, 88.05078
1151.206, 69.72656
1152.297, 11.47656
1153.388, 85.26562
1154.479, 82.86719
1155.569, 15.01562
1156.659, 131.9414
1157.750, 68.96875
1158.839, 164.0586
1159.929, 47.72656
1161.019, 89.50391
1162.108, 25.82031
1163.198, 252.1758
1164.287, 108.3008
1165.376, 29.76172
1166.465, 85.80078
1167.553, 127.5625
1168.642, 199.0938
1169.730, 52.88281
1170.818, 152.7266
1171.906, 88.68750
1172.994, 150.7148
1174.082, 90.85547
1175.170, 26.92969
1176.257, 262.3047
1177.344, 115.2930
1178.431, 71.87891
1179.518, 253.4375
1180.605, 35.00781
1181.691, 78.50391
1182.778, 14.93359
1183.864, 165.3555
1184.950, 254.7578
1186.036, 160.1484
1187.122, 218.0352
1188.207, 57.11328
1189.292, 141.1953
1190.378, 39.48828
1191.463, 21.23047
1192.548, 168.0078
1193.632, 121.2383
1194.717, 83.44922
1195.801, 266.6523
1196.886, 226.8398
1197.970, 4.992188
1199.054, 466.1602
1200.137, 204.3008
1201.221, 202.4258
1202.305, 333.5391
1203.388, 20.64453
1204.471, 200.7344
1205.554, 518.8086
1206.637, 179.8711
1207.719, 300.9297
1208.802, 262.9766
1209.884, 359.0156
1210.966, 352.0430
1212.048, 577.0586
1213.130, 585.0664
1214.212, 435.0625
1215.293, 665.0508
1216.374, 591.0312
1217.456, 774.0039
1218.536, 844.9688
1219.617, 1014.926
1220.698, 1400.879
1221.778, 1295.820
1222.859, 1904.758
1223.939, 2011.688
1225.019, 2097.609
1226.099, 2391.527
1227.178, 2524.438
1228.258, 2651.340
1229.337, 3123.246
1230.417, 3387.141
1231.496, 3264.031
1232.574, 3317.949
1233.653, 3717.863
1234.732, 3704.762
1235.810, 3850.656
1236.888, 3951.551
1237.966, 3901.449
1239.044, 4187.352
1240.122, 4219.250
1241.199, 4662.180
1242.277, 4727.156
1243.354, 5147.129
1244.431, 5080.098
1245.508, 5236.059
1246.585, 5343.012
1247.661, 5329.957
1248.738, 5538.898
1249.814, 5490.859
1250.890, 5669.836
1251.966, 5647.832
1253.042, 5260.836
1254.117, 5276.840
1255.193, 5073.832
1256.268, 5011.828
1257.343, 4974.820
1258.418, 4836.816
1259.493, 4776.812
1260.567, 4690.797
1261.642, 4521.496
1262.716, 4405.648
1263.790, 4156.625
1264.864, 3957.301
1265.938, 3704.969
1267.011, 3691.754
1268.085, 3479.598
1269.158, 3398.234
1270.231, 3221.180
1271.304, 3015.742
1272.377, 2653.395
1273.450, 2781.332
1274.522, 2258.008
1275.594, 2322.094
1276.666, 2364.730
1277.738, 2100.035
1278.810, 2099.426
1279.882, 1783.391
1280.953, 1833.500
1282.025, 1446.242
1283.096, 1779.371
1284.167, 1680.695
1285.238, 1532.227
1286.308, 1503.422
1287.379, 1433.211
1288.449, 1303.758
1289.519, 1381.930
1290.589, 1310.805
1291.659, 1300.688
1292.729, 1249.375
1293.798, 1278.801
1294.868, 1142.961
1295.937, 1250.199
1297.006, 1211.777
1298.075, 908.9375
1299.143, 983.3008
1300.212, 700.4141
1301.280, 955.5742
1302.348, 779.8711
1303.416, 817.9570
1304.484, 937.1445
1305.552, 1009.535
1306.620, 686.1055
1307.687, 727.5039
1308.754, 748.4531
1309.821, 759.2578
1310.888, 693.3594
1311.955, 804.5352
1313.021, 1035.348
1314.088, 728.2969
1315.154, 872.0938
1316.220, 890.0391
1317.286, 741.7031
1318.352, 812.4297
1319.417, 918.7266
1320.483, 622.6172
1321.548, 645.4609
1322.613, 580.1289
1323.678, 611.6562
1324.743, 814.6211
1325.807, 933.6016
1326.872, 804.4375
1327.936, 718.4414
1329.000, 539.4531
1330.064, 679.4844
1331.128, 777.5234
1332.191, 793.9375
1333.255, 896.0039
1334.318, 679.1602
1335.381, 567.9297
1336.444, 1082.043
1337.507, 689.1719
1338.569, 1093.316
1339.632, 870.4766
1340.694, 955.6484
1341.756, 1017.848
1342.818, 936.0547
1343.880, 985.2891
1344.941, 949.5898
1346.003, 903.8477
1347.064, 967.4805
1348.125, 815.4375
1349.186, 570.0859
1350.247, 725.7852
1351.308, 828.6016
1352.368, 512.1992
1353.428, 661.4297
1354.489, 913.9688
1355.549, 973.0898
1356.608, 669.0312
1357.668, 835.4609
1358.727, 922.6445
1359.787, 607.5312
1360.846, 726.2305
1361.905, 984.4648
1362.964, 961.9727
1364.022, 687.7617
1365.081, 872.5703
1366.139, 573.1289
1367.197, 1037.402
1368.255, 907.0820
1369.313, 608.2109
1370.371, 928.2734
1371.428, 602.5391
1372.486, 670.5625
1373.543, 684.2539
1374.600, 581.3438
1375.657, 501.7070
1376.713, 840.7969
1377.770, 571.2539
1378.826, 659.8672
1379.882, 462.0781
1380.938, 680.7891
1381.994, 764.6719
1383.050, 833.0547
1384.106, 630.4297
1385.161, 671.9727
1386.216, 676.3008
1387.271, 756.7773
1388.326, 974.9844
1389.381, 982.6094
1390.435, 806.8125
1391.490, 632.8789
1392.544, 634.0938
1393.598, 643.4805
1394.652, 615.3750
1395.705, 777.5391
1396.759, 897.7227
1397.812, 831.2617
1398.866, 1134.824
1399.919, 1297.066
1400.972, 1140.320
1402.024, 777.6172
1403.077, 934.9219
1404.129, 1018.156
1405.181, 1034.430
1406.233, 1090.746
1407.285, 928.0391
1408.337, 1041.250
1409.389, 1015.398
1410.440, 1019.594
1411.491, 1158.719
1412.542, 1125.727
1413.593, 934.5859
1414.644, 1231.398
1415.695, 1027.234
1416.745, 1336.395
1417.795, 899.1523
1418.845, 815.1484
1419.895, 1020.027
1420.945, 1091.645
1421.995, 937.3555
1423.044, 741.0586
1424.093, 1015.719
1425.142, 1050.691
1426.191, 786.3516
1427.240, 1342.352
1428.289, 783.9922
1429.337, 794.6289
1430.385, 880.2578
1431.433, 940.8555
1432.481, 947.9336
1433.529, 808.5312
1434.577, 874.4570
1435.624, 978.3789
1436.672, 809.1836
1437.719, 634.8906
1438.766, 441.4961
1439.812, 891.9648
1440.859, 852.2344
1441.905, 748.4023
1442.952, 819.4688
1443.998, 649.4453
1445.044, 500.3555
1446.090, 646.6445
1447.135, 269.1211
1448.181, 799.5820
1449.226, 614.0859
1450.271, 748.6367
1451.316, 693.2383
1452.361, 559.8867
1453.405, 344.5742
1454.450, 360.3047
1455.494, 500.0742
1456.538, 304.8867
1457.582, 426.7461
1458.626, 247.6562
1459.670, 139.6055
1460.713, 2.585938
1461.757, 208.6133
1462.800, 241.6758
1463.843, 216.7773
1464.886, 295.2461
1465.928, 206.0781
1466.971, 257.2188
1468.013, 257.3945
1469.055, 134.5898
1470.097, 1.210938
1471.139, 244.8672
1472.181, 111.9102
1473.222, 41.99219
1474.263, 123.1055
1475.305, 117.1562
1476.346, 98.52344
1477.386, 157.1016
1478.427, 22.08594
1479.468, 186.0742
1480.508, 55.08203
1481.548, 14.88281
1482.588, 238.1797
1483.628, 62.27344
1484.668, 108.5977
1485.707, 193.5586
1486.747, 74.75391
1487.786, 292.9883
1488.825, 197.2617
1489.864, 64.42578
1490.902, 54.93359
1491.941, 106.3398
1492.979, 119.2031
1494.017, 187.6797
1495.055, 182.8945
1496.093, 143.5391
1497.131, 210.0352
1498.168, 339.6016
1499.206, 211.2305
1500.243, 28.92969
1501.280, 42.29297
1502.317, 61.44531
1503.354, 45.41797
1504.390, 4.457031
1505.426, 131.7109
1506.463, 118.0195
1507.499, 220.4688
1508.535, 25.08594
1509.570, 72.86719
1510.606, 96.74609
1511.641, 241.6914
1512.676, 317.6953
1513.711, 229.7734
1514.746, 145.9102
1515.781, 482.9570
1516.816, 469.6992
1517.850, 337.9961
1518.884, 200.3555
1519.918, 419.7812
1520.952, 463.6289
1521.986, 345.2305
1523.019, 350.1992
1524.053, 698.5273
1525.086, 523.1680
1526.119, 776.4141
1527.152, 736.8086
1528.185, 689.9883
1529.217, 889.3438
1530.250, 575.7500
1531.282, 659.5859
1532.314, 780.2031
1533.346, 380.5039
1534.377, 382.8906
1535.409, 407.0039
1536.440, 461.3906
1537.472, 476.7422
1538.503, 425.1953
1539.534, 394.9453
1540.564, 274.4609
1541.595, 614.5273
1542.625, 310.0352
1543.656, 348.0234
1544.686, 153.9336
1545.716, 503.8672
1546.745, 411.2344
1547.775, 572.3242
1548.804, 301.9141
1549.834, 421.7344
1550.863, 285.5586
1551.892, 469.4102
1552.920, 720.5117
1553.949, 538.0625
1554.977, 761.6484
1556.006, 262.4688
1557.034, 750.5430
1558.062, 428.6953
1559.089, 282.7031
1560.117, 366.4648
1561.144, 291.5078
1562.172, 291.2344
1563.199, 318.8867
1564.226, 262.1953
1565.252, 338.7109
1566.279, 251.7188
1567.305, 251.9258
1568.332, 245.0156
1569.358, 1.882813
1570.384, 0.0000000E+00
##END=



