##NAMES=Anglesite
##RRUFFID=R050408
##IDEAL CHEMISTRY=Pb^2+^S^6+^O_4_
##LOCALITY=Tsumeb mine, Tsumeb, Otavi District, Oshikoto, Namibia
##OWNER=RRUFF
##SOURCE=California Institute of Technology
##DESCRIPTION=Pale yellow fragment
##STATUS=The identification of this mineral has been confirmed by X-ray diffraction and chemical analysis
##URL=rruff.info/R050408
##MEASURED CHEMISTRY=Pb_1.00_S_1.00_O_4_
##PIN_ID=L01528
##ORIENTATION=Laser parallel to a* (1 0 0). Fiducial mark perpendicular to laser is parallel to -b [0 -1 0]
51.43100, 0.0000000E+00
52.67100, 7.160278
53.91000, 21.31760
55.14900, 27.09714
56.38700, 10.86945
57.62600, 6.718567
58.86400, 6.051361
60.10300, 7.080322
61.34100, 3.387207
62.57900, 10.45374
63.81700, 3.559998
65.05400, 2.565277
66.29200, 15.32315
67.52900, 15.00824
68.76700, 87.40796
70.00400, 115.4532
71.24100, 156.0851
72.47700, 202.2504
73.71400, 257.9022
74.95100, 384.9993
76.18700, 464.5054
77.42300, 528.3884
78.65900, 575.6194
79.89500, 728.1735
81.13100, 810.0273
82.36700, 939.1608
83.60200, 1062.555
84.83700, 1177.195
86.07200, 1328.067
87.30800, 1487.159
88.54200, 1605.464
89.77700, 1751.967
91.01200, 1949.651
92.24600, 2157.504
93.48000, 2265.517
94.71400, 2523.681
95.94800, 2699.988
97.18200, 2866.431
98.41600, 2927.003
99.64900, 3014.699
100.8830, 2838.513
102.1160, 2850.438
103.3490, 2691.469
104.5820, 2599.601
105.8150, 2512.830
107.0470, 2436.152
108.2800, 2335.304
109.5120, 2271.059
110.7440, 2134.638
111.9760, 2043.296
113.2080, 1930.031
114.4400, 1931.839
115.6710, 1852.720
116.9030, 1894.673
118.1340, 1814.692
119.3650, 1835.790
120.5960, 1790.976
121.8270, 1893.241
123.0580, 1936.575
124.2880, 2005.016
125.5190, 2117.506
126.7490, 2156.039
127.9790, 2285.581
129.2090, 2412.117
130.4390, 2429.670
131.6680, 2576.265
132.8980, 2622.893
134.1270, 2712.592
135.3560, 2836.324
136.5850, 2759.080
137.8140, 2739.870
139.0430, 2671.689
140.2710, 2448.544
141.5000, 2316.448
142.7280, 2107.405
143.9560, 1944.388
145.1840, 1821.393
146.4120, 1786.427
147.6390, 1686.489
148.8670, 1673.574
150.0940, 1664.682
151.3210, 1699.813
152.5490, 1654.967
153.7750, 1762.145
155.0020, 1720.346
156.2290, 1696.570
157.4550, 1673.818
158.6810, 1640.089
159.9080, 1531.382
161.1340, 1434.698
162.3590, 1416.037
163.5850, 1387.398
164.8110, 1316.781
166.0360, 1308.185
167.2610, 1233.611
168.4860, 1155.058
169.7110, 1124.526
170.9360, 1057.714
172.1610, 1033.523
173.3850, 979.0527
174.6100, 965.6013
175.8340, 970.1696
177.0580, 958.7572
178.2820, 926.3911
179.5050, 899.0159
180.7290, 876.7398
181.9520, 868.3732
183.1760, 855.0782
184.3990, 871.7875
185.6220, 862.1403
186.8450, 880.9305
188.0670, 859.9629
189.2900, 838.4478
190.5120, 772.2023
191.7340, 772.4296
192.9560, 747.3046
194.1780, 722.6088
195.4000, 741.8364
196.6220, 756.9829
197.8430, 702.8253
199.0640, 695.4644
200.2860, 615.8823
201.5070, 615.8339
202.7270, 629.8487
203.9480, 579.4125
205.1690, 542.1741
206.3890, 533.8609
207.6090, 478.8614
208.8290, 441.6765
210.0490, 477.6271
211.2690, 430.3579
212.4890, 413.7256
213.7080, 408.1113
214.9280, 437.4908
216.1470, 396.0085
217.3660, 364.8130
218.5850, 383.6501
219.8030, 327.9163
221.0220, 351.6598
222.2400, 300.7836
223.4590, 282.1731
224.6770, 309.5999
225.8950, 299.4929
227.1120, 260.9934
228.3300, 286.0554
229.5480, 243.3208
230.7650, 299.9099
231.9820, 253.8620
233.1990, 259.5070
234.4160, 195.3458
235.6330, 235.0422
236.8490, 236.8464
238.0660, 229.5954
239.2820, 204.3670
240.4980, 206.0121
241.7140, 189.8292
242.9300, 188.6666
244.1460, 149.5383
245.3610, 156.4146
246.5770, 146.3103
247.7920, 165.2240
249.0070, 137.1548
250.2220, 134.1033
251.4370, 126.0704
252.6510, 113.8401
253.8660, 139.0562
255.0800, 106.0738
256.2940, 135.1069
257.5080, 147.1544
258.7220, 147.2159
259.9360, 136.2911
261.1490, 119.3795
262.3630, 116.9747
263.5760, 105.4386
264.7890, 102.7226
266.0020, 94.86127
267.2150, 88.01117
268.4270, 92.17200
269.6400, 95.34338
270.8520, 92.53375
272.0640, 91.24780
273.2760, 79.91840
274.4880, 78.12958
275.7000, 70.67548
276.9120, 54.58087
278.1230, 64.82062
279.3340, 46.06964
280.5450, 49.32758
281.7560, 52.59424
282.9670, 48.86963
284.1780, 44.15344
285.3880, 44.44568
286.5980, 31.74603
287.8090, 26.05444
289.0190, 28.37054
290.2290, 29.69434
291.4380, 46.02570
292.6480, 24.36432
293.8570, 31.71033
295.0670, 65.06342
296.2760, 13.42365
297.4850, 34.79077
298.6930, 37.16473
299.9020, 4.545471
301.1110, 26.93274
302.3190, 2.326538
303.5270, 1.273254
304.7350, 28.13293
305.9430, 42.54529
307.1510, 9.963806
308.3580, 3.611633
309.5660, 5.818115
310.7730, 3.253784
311.9800, 6.695068
313.1870, 6.141968
314.3940, 15.59436
315.6010, 5.2062999E-02
316.8070, 7.514832
318.0130, 16.01709
319.2200, 11.45312
320.4260, 2.071716
321.6310, 0.5921020
322.8370, 7.107971
324.0430, 19.62085
325.2480, 19.13300
326.4540, 7.355042
327.6590, 3.847473
328.8640, 11.34424
330.0680, 10.15479
331.2730, 1.655029
332.4780, 1.847717
333.6820, 10.64740
334.8860, 23.85077
336.0900, 20.64697
337.2940, 27.14777
338.4980, 21.34821
339.7010, 6.154480
340.9050, 1.333923
342.1080, 3.823669
343.3110, 23.68323
344.5140, 39.19073
345.7170, 11.70569
346.9200, 14.21570
348.1220, 4.721741
349.3240, 10.78015
350.5270, 19.70453
351.7290, 4.189636
352.9310, 0.3309330
354.1320, 19.14099
355.3340, 32.61475
356.5350, 5.096619
357.7370, 3.574829
358.9380, 57.04932
360.1390, 3.545166
361.3400, 8.038086
362.5400, 7.530090
363.7410, 21.97858
364.9410, 3.506287
366.1410, 9.989502
367.3410, 13.52606
368.5410, 22.04736
369.7410, 21.42578
370.9400, 9.093689
372.1400, 4.381775
373.3390, 25.85742
374.5380, 20.65680
375.7370, 36.82416
376.9360, 26.67908
378.1350, 4.186829
379.3330, 21.69702
380.5310, 7.211426
381.7300, 43.90094
382.9280, 19.42249
384.1260, 8.052063
385.3230, 18.08044
386.5210, 17.60559
387.7180, 13.13422
388.9160, 37.70880
390.1130, 33.46338
391.3100, 52.34094
392.5060, 32.54382
393.7030, 82.24121
394.9000, 102.2524
396.0960, 107.9490
397.2920, 71.17688
398.4880, 66.83069
399.6840, 69.56000
400.8800, 95.18451
402.0750, 120.7908
403.2710, 128.4166
404.4660, 106.9868
405.6610, 128.5739
406.8560, 148.4244
408.0510, 132.0024
409.2450, 165.5826
410.4400, 221.1660
411.6340, 203.7518
412.8280, 210.3396
414.0220, 261.9299
415.2160, 278.6898
416.4100, 324.2861
417.6030, 330.8850
418.7970, 397.4866
419.9900, 435.0901
421.1830, 469.6959
422.3760, 577.3041
423.5690, 616.9149
424.7610, 801.5273
425.9540, 924.1421
427.1460, 1088.761
428.3380, 1358.382
429.5300, 1816.007
430.7220, 2191.635
431.9140, 2890.266
433.1050, 3820.901
434.2970, 5169.538
435.4880, 7220.179
436.6790, 10024.82
437.8700, 13345.46
439.0610, 15814.11
440.2510, 15956.76
441.4420, 13652.41
442.6320, 10609.06
443.8220, 8247.713
445.0120, 6944.371
446.2020, 6630.029
447.3910, 6818.668
448.5810, 7612.332
449.7700, 8369.999
450.9600, 8376.666
452.1490, 7628.267
453.3370, 6280.938
454.5260, 4734.614
455.7150, 3533.290
456.9030, 2715.968
458.0910, 2020.645
459.2800, 1730.312
460.4670, 1500.994
461.6550, 1203.090
462.8430, 1118.773
464.0300, 1055.396
465.2180, 934.0523
466.4050, 863.0847
467.5920, 721.3611
468.7790, 705.2387
469.9650, 612.9273
471.1520, 568.6165
472.3380, 523.3063
473.5250, 537.5595
474.7110, 507.1619
475.8970, 384.8544
477.0820, 375.0533
478.2680, 416.7475
479.4540, 347.4261
480.6390, 371.7571
481.8240, 265.4525
483.0090, 319.8057
484.1940, 261.4736
485.3780, 279.1725
486.5630, 280.6169
487.7470, 237.2040
488.9320, 239.2360
490.1160, 210.1303
491.3000, 190.4877
492.4830, 169.1908
493.6670, 153.7650
494.8500, 158.1167
496.0340, 150.6703
497.2170, 162.2321
498.4000, 100.0469
499.5820, 135.3074
500.7650, 96.63354
501.9480, 74.02454
503.1300, 108.3318
504.3120, 101.4034
505.4940, 62.49158
506.6760, 42.19666
507.8580, 73.47021
509.0390, 93.40442
510.2210, 121.1118
511.4020, 59.81909
512.5830, 55.09631
513.7640, 69.79980
514.9450, 57.97546
516.1250, 49.97974
517.3060, 51.69043
518.4860, 38.06689
519.6660, 28.78113
520.8460, 51.33044
522.0260, 56.04968
523.2060, 16.31189
524.3850, 41.40149
525.5650, 48.11548
526.7440, 7.020508
527.9230, 21.69263
529.1020, 25.40771
530.2810, 8.114624
531.4590, 0.1627200
532.6380, 19.55835
533.8160, 14.28491
534.9940, 2.015747
536.1720, 4.246094
537.3500, 2.486450
538.5270, 7.781372
539.7050, 4.944946
540.8820, 1.788452
542.0590, 7.404907
543.2360, 9.136353
544.4130, 7.877686
545.5900, 24.66553
546.7660, 12.42163
547.9430, 0.7224120
549.1190, 22.02795
550.2950, 41.77856
551.4710, 18.74023
552.6470, 44.50647
553.8220, 21.27100
554.9980, 20.10925
556.1730, 3.235840
557.3480, 45.07739
558.5230, 44.97168
559.6980, 16.86426
560.8730, 31.65576
562.0470, 20.54785
563.2220, 66.40906
564.3960, 30.35034
565.5700, 74.15015
566.7440, 57.03406
567.9170, 54.36316
569.0910, 66.29321
570.2640, 54.54907
571.4380, 55.84875
572.6110, 92.69348
573.7840, 26.16797
574.9570, 68.23804
576.1290, 70.26831
577.3020, 52.18445
578.4740, 53.03101
579.6460, 47.93359
580.8180, 100.9709
581.9900, 63.87366
583.1620, 100.0376
584.3330, 107.0387
585.5040, 113.8944
586.6760, 163.8730
587.8470, 147.2581
589.0180, 113.3829
590.1880, 139.5525
591.3590, 171.4053
592.5290, 185.4719
593.7000, 235.6277
594.8700, 283.5153
596.0400, 322.3328
597.2090, 385.2432
598.3790, 484.0507
599.5490, 529.9415
600.7180, 747.0825
601.8870, 1004.875
603.0560, 1250.665
604.2250, 1602.455
605.3940, 1771.336
606.5620, 1973.211
607.7300, 1810.989
608.8990, 1656.833
610.0670, 1365.634
611.2350, 1112.400
612.4020, 857.1875
613.5700, 675.0603
614.7370, 511.9674
615.9050, 387.7147
617.0720, 290.6614
618.2390, 308.3964
619.4060, 243.1248
620.5720, 213.8514
621.7390, 208.5779
622.9050, 135.2994
624.0710, 148.3810
625.2370, 132.2797
626.4030, 111.2668
627.5690, 111.2380
628.7340, 115.9432
629.9000, 118.6445
631.0650, 129.3423
632.2300, 129.0746
633.3950, 121.7598
634.5600, 168.4669
635.7240, 176.1445
636.8890, 228.8157
638.0530, 215.4844
639.2170, 318.1539
640.3810, 381.8181
641.5450, 394.5459
642.7080, 413.2566
643.8720, 413.9163
645.0350, 305.7998
646.1980, 259.4719
647.3610, 175.6902
648.5240, 169.3347
649.6870, 107.9761
650.8490, 131.6006
652.0120, 81.46948
653.1740, 50.09509
654.3360, 78.07446
655.4980, 84.87231
656.6600, 108.7087
657.8210, 38.41138
658.9830, 73.80139
660.1440, 71.05505
661.3050, 75.23254
662.4660, 96.51135
663.6270, 93.39124
664.7870, 81.14612
665.9480, 81.28076
667.1080, 76.36853
668.2680, 46.06274
669.4280, 73.24048
670.5880, 46.14465
671.7480, 42.52393
672.9070, 80.71716
674.0670, 67.34033
675.2260, 75.91846
676.3850, 92.90930
677.5440, 98.68347
678.7030, 66.77429
679.8610, 47.17456
681.0200, 77.16602
682.1780, 56.35205
683.3360, 85.40906
684.4940, 44.06165
685.6520, 60.27478
686.8090, 41.71936
687.9670, 76.79199
689.1240, 60.53442
690.2810, 36.04688
691.4380, 81.56726
692.5950, 91.88782
693.7520, 49.77930
694.9080, 30.98401
696.0650, 53.86169
697.2210, 49.14746
698.3770, 51.01270
699.5330, 64.94910
700.6880, 54.63940
701.8440, 59.08887
702.9990, 54.17529
704.1550, 76.33960
705.3100, 59.12927
706.4650, 34.00232
707.6190, 63.35315
708.7740, 43.64844
709.9290, 45.78491
711.0830, 83.22998
712.2370, 37.82788
713.3910, 61.43152
714.5450, 65.16284
715.6980, 75.32251
716.8520, 97.27869
718.0050, 80.21716
719.1580, 67.86670
720.3110, 82.24512
721.4640, 61.88110
722.6170, 74.85059
723.7700, 94.85693
724.9220, 75.73669
726.0740, 49.60046
727.2260, 63.44458
728.3780, 60.27148
729.5300, 87.43970
730.6810, 66.23352
731.8330, 60.01013
732.9840, 80.76892
734.1350, 95.51221
735.2860, 76.24023
736.4370, 94.95239
737.5880, 76.64941
738.7380, 57.33093
739.8880, 116.9943
741.0390, 95.76306
742.1890, 99.45715
743.3380, 75.07532
744.4880, 74.67761
745.6380, 85.26379
746.7870, 76.83496
747.9360, 81.16931
749.0850, 91.94568
750.2340, 80.47046
751.3830, 69.97998
752.5310, 66.47339
753.6800, 81.95020
754.8280, 61.41174
755.9760, 114.8566
757.1240, 98.28625
758.2720, 107.7008
759.4190, 95.10083
760.5670, 83.17664
761.7140, 49.24548
762.8610, 59.59717
764.0080, 52.93201
765.1550, 53.24951
766.3020, 82.54968
767.4480, 93.83484
768.5950, 94.10510
769.7410, 69.36047
770.8870, 122.6006
772.0330, 69.82581
773.1780, 97.03589
774.3240, 104.2313
775.4690, 83.41199
776.6140, 95.57776
777.7590, 104.7290
778.9040, 59.86536
780.0490, 62.08154
781.1940, 98.18750
782.3380, 46.27869
783.4820, 62.35327
784.6260, 29.41296
785.7700, 62.75073
786.9140, 61.84961
788.0580, 64.86035
789.2010, 40.85645
790.3450, 58.83618
791.4880, 33.80115
792.6310, 41.74841
793.7730, 38.67957
794.9160, 45.59424
796.0590, 17.49365
797.2010, 20.37183
798.3430, 21.79895
799.4850, 18.06836
800.6270, 23.88660
801.7690, 34.69141
802.9100, 19.48059
804.0520, 15.25049
805.1930, 18.00281
806.3340, 3.264038
807.4750, 21.44104
808.6160, 35.12866
809.7560, 5.198242
810.8970, 3.447632
812.0370, 14.93005
813.1770, 45.66016
814.3170, 16.23975
815.4570, 19.80249
816.5960, 2.352173
817.7360, 7.878662
818.8750, 5.387573
820.0140, 25.12354
821.1530, 3.670410
822.2920, 28.28394
823.4310, 22.10791
824.5690, 29.38550
825.7070, 10.75342
826.8460, 19.89453
827.9840, 20.77698
829.1220, 21.51282
830.2590, 12.20935
831.3970, 2.026245
832.5340, 32.14893
833.6710, 15.98694
834.8080, 13.94373
835.9450, 17.89294
837.0820, 13.76221
838.2190, 10.75220
839.3550, 21.72998
840.4910, 12.19055
841.6270, 2.760498
842.7630, 36.81201
843.8990, 61.33313
845.0350, 29.48669
846.1700, 64.98816
847.3060, 5.435181
848.4410, 4.699707
849.5760, 22.47949
850.7100, 8.874268
851.8450, 0.7547610
852.9800, 14.51501
854.1140, 31.73218
855.2480, 11.02600
856.3820, 24.47009
857.5160, 29.79797
858.6500, 19.40649
859.7830, 0.8688960
860.9170, 11.80164
862.0500, 45.33789
863.1830, 37.45618
864.3160, 69.82385
865.4480, 8.864502
866.5810, 3.750977
867.7130, 15.14148
868.8460, 13.43250
869.9780, 46.98083
871.1100, 38.58850
872.2410, 75.09277
873.3730, 54.68945
874.5050, 38.19202
875.6360, 52.43457
876.7670, 4.984253
877.8980, 29.40955
879.0290, 23.15063
880.1590, 72.61084
881.2900, 40.06726
882.4200, 9.611206
883.5500, 10.08496
884.6800, 0.4049070
885.8100, 15.13074
886.9400, 18.63562
888.0690, 20.62415
889.1990, 36.41553
890.3280, 28.93628
891.4570, 21.24902
892.5860, 22.76733
893.7140, 18.28345
894.8430, 3.797485
895.9710, 16.69043
897.1000, 3.849487
898.2280, 4.956543
899.3560, 6.271973
900.4830, 32.49121
901.6110, 15.72400
902.7380, 37.22485
903.8660, 34.72534
904.9930, 7.225464
906.1200, 7.686035
907.2460, 19.18652
908.3730, 46.66345
909.5000, 26.16516
910.6260, 43.66772
911.7520, 9.171387
912.8780, 46.67627
914.0040, 53.18274
915.1290, 8.378540
916.2550, 33.08521
917.3800, 90.59631
918.5050, 33.88098
919.6300, 62.37451
920.7550, 19.68335
921.8800, 7.172119
923.0040, 13.34058
924.1290, 62.86487
925.2530, 61.14075
926.3770, 64.66150
927.5010, 48.82397
928.6250, 94.16626
929.7480, 47.47327
930.8720, 56.91028
931.9950, 103.6659
933.1180, 107.5543
934.2410, 114.5164
935.3640, 81.37329
936.4860, 71.45471
937.6090, 136.8298
938.7310, 178.8220
939.8530, 153.6852
940.9750, 188.6823
942.0970, 216.6272
943.2180, 277.8009
944.3400, 299.3203
945.4610, 339.2432
946.5820, 402.7346
947.7030, 485.1172
948.8240, 570.7749
949.9450, 630.1605
951.0650, 622.3096
952.1860, 754.9197
953.3060, 800.8650
954.4260, 858.7222
955.5460, 1065.729
956.6650, 1116.121
957.7850, 1320.011
958.9040, 1521.656
960.0230, 1789.410
961.1420, 2178.770
962.2610, 2519.360
963.3800, 2918.940
964.4990, 3535.722
965.6170, 4255.934
966.7350, 5356.832
967.8530, 6417.890
968.9710, 8214.707
970.0890, 10438.01
971.2070, 13803.11
972.3240, 17796.53
973.4410, 23645.19
974.5580, 31050.21
975.6750, 40072.15
976.7920, 49886.47
977.9090, 57072.73
979.0250, 59396.48
980.1410, 55040.32
981.2580, 46033.98
982.3740, 36517.98
983.4890, 27696.52
984.6050, 20901.04
985.7200, 16025.44
986.8360, 12761.42
987.9510, 10261.60
989.0660, 8527.802
990.1810, 7090.300
991.2950, 6056.071
992.4100, 5150.588
993.5240, 4553.775
994.6390, 3939.926
995.7530, 3473.209
996.8660, 3139.512
997.9800, 2867.837
999.0940, 2569.182
1000.207, 2337.190
1001.320, 2189.576
1002.433, 1949.984
1003.546, 1818.413
1004.659, 1638.862
1005.772, 1552.332
1006.884, 1483.823
1007.996, 1424.334
1009.108, 1256.867
1010.220, 1173.422
1011.332, 1161.880
1012.444, 1033.420
1013.555, 1006.041
1014.666, 911.6841
1015.777, 916.3496
1016.888, 893.0376
1017.999, 800.7488
1019.110, 775.4667
1020.220, 696.2219
1021.331, 720.0012
1022.441, 706.8027
1023.551, 665.6298
1024.661, 670.4792
1025.770, 576.3560
1026.880, 628.2554
1027.989, 710.1777
1029.098, 620.1226
1030.207, 622.7563
1031.316, 606.7029
1032.425, 616.7308
1033.533, 628.8020
1034.642, 652.8735
1035.750, 672.9873
1036.858, 697.1378
1037.966, 718.7648
1039.073, 742.4429
1040.181, 760.7699
1041.288, 789.0393
1042.396, 806.3540
1043.503, 873.6948
1044.610, 933.1290
1045.716, 1040.461
1046.823, 1090.895
1047.929, 1168.356
1049.036, 1243.747
1050.142, 1435.258
1051.248, 1597.800
1052.353, 1687.368
1053.459, 1906.976
1054.564, 1999.319
1055.670, 2043.914
1056.775, 2163.608
1057.880, 2321.335
1058.985, 2274.094
1060.089, 2380.881
1061.194, 2344.699
1062.298, 2256.542
1063.402, 2176.414
1064.506, 2101.983
1065.610, 1990.702
1066.713, 1922.197
1067.817, 1789.187
1068.920, 1683.215
1070.023, 1624.274
1071.126, 1471.365
1072.229, 1396.486
1073.332, 1274.640
1074.435, 1116.823
1075.537, 1174.042
1076.639, 1082.296
1077.741, 959.5773
1078.843, 950.0281
1079.945, 885.3923
1081.046, 823.8218
1082.148, 754.2344
1083.249, 784.6808
1084.350, 687.1539
1085.451, 655.6613
1086.551, 654.1997
1087.652, 540.7678
1088.752, 575.3844
1089.853, 544.0323
1090.953, 475.7231
1092.053, 498.4399
1093.152, 424.1843
1094.252, 431.9565
1095.351, 360.7666
1096.451, 346.6116
1097.550, 385.4911
1098.649, 347.4027
1099.748, 368.3439
1100.846, 369.3237
1101.945, 269.3289
1103.043, 234.3661
1104.141, 249.4380
1105.239, 278.5405
1106.337, 272.8456
1107.434, 212.0242
1108.532, 232.8192
1109.629, 206.3224
1110.726, 185.5796
1111.823, 188.7380
1112.920, 175.8826
1114.017, 182.0923
1115.113, 180.4956
1116.210, 206.9381
1117.306, 225.3994
1118.402, 262.8915
1119.498, 150.4054
1120.593, 187.5076
1121.689, 190.0830
1122.784, 238.6853
1123.879, 224.3176
1124.974, 199.9824
1126.069, 220.6763
1127.164, 186.3943
1128.259, 250.1353
1129.353, 235.0260
1130.447, 165.8130
1131.541, 257.6223
1132.635, 256.4564
1133.729, 224.3129
1134.822, 298.1919
1135.916, 290.0930
1137.009, 239.0165
1138.102, 294.0137
1139.195, 327.9812
1140.288, 337.9707
1141.380, 425.9832
1142.473, 354.6899
1143.565, 472.7466
1144.657, 459.8296
1145.749, 489.9337
1146.841, 615.0594
1147.932, 613.4192
1149.024, 654.8068
1150.115, 724.9949
1151.206, 814.2053
1152.297, 867.9609
1153.388, 962.9221
1154.479, 999.6287
1155.569, 1072.921
1156.659, 1129.049
1157.750, 1089.381
1158.839, 1086.733
1159.929, 1074.104
1161.019, 1035.744
1162.108, 977.1556
1163.198, 887.0232
1164.287, 854.5938
1165.376, 728.8263
1166.465, 637.9978
1167.553, 600.5667
1168.642, 514.9075
1169.730, 485.9939
1170.818, 418.7070
1171.906, 411.0283
1172.994, 400.4277
1174.082, 327.5615
1175.170, 316.1868
1176.257, 314.5035
1177.344, 302.1890
1178.431, 290.4694
1179.518, 239.1592
1180.605, 276.8650
1181.691, 259.0061
1182.778, 196.7675
1183.864, 256.3507
1184.950, 170.1189
1186.036, 196.3872
1187.122, 199.5022
1188.207, 172.9923
1189.292, 125.9882
1190.378, 152.6836
1191.463, 122.1755
1192.548, 156.0726
1193.632, 169.1458
1194.717, 84.15198
1195.801, 69.45557
1196.886, 127.9978
1197.970, 94.60168
1199.054, 89.57959
1200.137, 85.21130
1201.221, 64.88660
1202.305, 73.09595
1203.388, 41.01074
1204.471, 75.19556
1205.554, 60.89453
1206.637, 44.46753
1207.719, 25.75439
1208.802, 12.57031
1209.884, 0.7308350
1210.966, 4.898071
1212.048, 15.58411
1213.130, 32.07263
1214.212, 43.14478
1215.293, 84.03809
1216.374, 71.62317
1217.456, 99.82568
1218.536, 59.52173
1219.617, 98.63281
1220.698, 92.90088
1221.778, 17.05713
1222.859, 69.69946
1223.939, 28.94629
1225.019, 82.73315
1226.099, 60.88574
1227.178, 42.17175
1228.258, 42.33521
1229.337, 27.50378
1230.417, 32.98596
1231.496, 4.163940
1232.574, 6.346436
1233.653, 1.693481
1234.732, 10.88379
1235.810, 11.68127
1236.888, 0.4771730
1237.966, 27.21985
1239.044, 16.00464
1240.122, 13.25049
1241.199, 33.47253
1242.277, 41.73352
1243.354, 26.80432
1244.431, 12.38892
1245.508, 0.4157710
1246.585, 20.78064
1247.661, 0.9886470
1248.738, 13.23401
1249.814, 22.56616
1250.890, 24.78577
1251.966, 25.99475
1253.042, 23.19409
1254.117, 60.71387
1255.193, 58.11414
1256.268, 29.34583
1257.343, 71.54443
1258.418, 6.257324
1259.493, 31.95667
1260.567, 57.15137
1261.642, 35.34509
1262.716, 48.53748
1263.790, 40.72839
1264.864, 18.91736
1265.938, 18.12805
1267.011, 1.686768
1268.085, 36.49536
1269.158, 71.67505
1270.231, 20.17029
1271.304, 17.62695
1272.377, 53.56726
1273.450, 5.729004
1274.522, 38.88733
1275.594, 25.13440
1276.666, 4.714355
1277.738, 4.569580
1278.810, 38.56836
1279.882, 6.087524
1280.953, 3.783081
1282.025, 11.33899
1283.096, 7.424683
1284.167, 15.68323
1285.238, 14.10034
1286.308, 30.99011
1287.379, 31.07617
1288.449, 55.15723
1289.519, 19.76599
1290.589, 17.29346
1291.659, 21.65332
1292.729, 15.61938
1293.798, 8.602417
1294.868, 6.599487
1295.937, 45.60596
1297.006, 19.65027
1298.075, 26.67017
1299.143, 9.239990
1300.212, 21.85803
1301.280, 69.96313
1302.348, 5.4320998E-02
1303.416, 20.00854
1304.484, 34.03906
1305.552, 23.08984
1306.620, 0.7244870
1307.687, 19.47168
1308.754, 52.27063
1309.821, 11.01099
1310.888, 18.85767
1311.955, 48.24707
1313.021, 2.602173
1314.088, 7.024414
1315.154, 11.63647
1316.220, 11.74902
1317.286, 3.115112
1318.352, 2.509155
1319.417, 7.086792
1320.483, 25.72534
1321.548, 19.55627
1322.613, 23.35181
1323.678, 15.11475
1324.743, 10.58020
1325.807, 10.16589
1326.872, 12.38843
1327.936, 11.39404
1329.000, 6.219482
1330.064, 53.14319
1331.128, 3.497559
1332.191, 27.87390
1333.255, 14.19104
1334.318, 1.517334
1335.381, 27.75256
1336.444, 1.991211
1337.507, 41.11389
1338.569, 62.31592
1339.632, 46.01514
1340.694, 3.211548
1341.756, 51.51123
1342.818, 16.67346
1343.880, 25.85962
1344.941, 41.99561
1346.003, 13.59253
1347.064, 72.50488
1348.125, 11.65674
1349.186, 50.75574
1350.247, 29.67493
1351.308, 47.71655
1352.368, 26.74268
1353.428, 78.75330
1354.489, 3.248657
1355.549, 88.78149
1356.608, 80.74500
1357.668, 41.69568
1358.727, 66.63574
1359.787, 73.58411
1360.846, 51.49170
1361.905, 109.3834
1362.964, 48.28271
1364.022, 68.01892
1365.081, 62.24170
1366.139, 67.51965
1367.197, 63.05457
1368.255, 61.85693
1369.313, 70.78638
1370.371, 49.55933
1371.428, 77.70007
1372.486, 79.54480
1373.543, 84.26807
1374.600, 75.04553
1375.657, 69.25964
1376.713, 96.42175
1377.770, 59.52686
1378.826, 77.17664
1379.882, 104.6323
1380.938, 51.25085
1381.994, 58.95520
1383.050, 76.54297
1384.106, 117.1158
1385.161, 87.73730
1386.216, 82.15576
1387.271, 90.68567
1388.326, 110.2783
1389.381, 92.78821
1390.435, 94.32837
1391.490, 96.80005
1392.544, 85.30505
1393.598, 92.75000
1394.652, 95.12451
1395.705, 97.53601
1396.759, 57.93359
1397.812, 87.31323
1398.866, 87.00513
1399.919, 129.4225
1400.972, 114.7822
1402.024, 78.10107
1403.077, 152.4250
1404.129, 178.4958
1405.181, 122.5455
1406.233, 55.80066
1407.285, 99.03430
1408.337, 120.0195
1409.389, 77.22510
1410.440, 114.0182
1411.491, 78.22668
1412.542, 143.6752
1413.593, 143.0729
1414.644, 138.3303
1415.695, 124.7689
1416.745, 129.6913
1417.795, 123.0945
1418.845, 130.3608
1419.895, 115.2816
1420.945, 106.5437
1421.995, 96.87097
1423.044, 105.0038
1424.093, 83.28418
1425.142, 123.2885
1426.191, 100.1886
1427.240, 87.38147
1428.289, 68.49988
1429.337, 50.88611
1430.385, 60.65662
1431.433, 54.97180
1432.481, 67.78394
1433.529, 80.00220
1434.577, 65.81250
1435.624, 88.60815
1436.672, 51.96912
1437.719, 48.71448
1438.766, 111.6837
1439.812, 119.4640
1440.859, 80.70166
1441.905, 74.19690
1442.952, 62.25757
1443.998, 58.76721
1445.044, 65.01343
1446.090, 89.92664
1447.135, 72.08984
1448.181, 102.2317
1449.226, 77.61572
1450.271, 113.2271
1451.316, 44.09839
1452.361, 66.18311
1453.405, 24.51990
1454.450, 82.82190
1455.494, 81.24500
1456.538, 77.41187
1457.582, 56.99768
1458.626, 105.6572
1459.670, 77.72083
1460.713, 78.44055
1461.757, 81.79871
1462.800, 70.87964
1463.843, 103.3229
1464.886, 9.172974
1465.928, 59.63342
1466.971, 35.23657
1468.013, 102.7130
1469.055, 51.37036
1470.097, 59.99475
1471.139, 19.58081
1472.181, 89.92407
1473.222, 44.57129
1474.263, 53.11914
1475.305, 0.4880370
1476.346, 74.05933
1477.386, 75.90356
1478.427, 125.3567
1479.468, 61.80005
1480.508, 46.23962
1481.548, 64.65015
1482.588, 69.99854
1483.628, 57.35034
1484.668, 51.21753
1485.707, 57.40295
1486.747, 70.69165
1487.786, 51.78992
1488.825, 45.99878
1489.864, 7.592773
1490.902, 43.55579
1491.941, 54.49817
1492.979, 85.59302
1494.017, 65.65051
1495.055, 57.69202
1496.093, 46.73206
1497.131, 27.76111
1498.168, 49.75208
1499.206, 35.83179
1500.243, 74.78015
1501.280, 75.22131
1502.317, 64.95129
1503.354, 54.95117
1504.390, 7.229736
1505.426, 58.53223
1506.463, 23.71045
1507.499, 64.74878
1508.535, 67.73254
1509.570, 31.91052
1510.606, 66.09070
1511.641, 65.01501
1512.676, 26.40833
1513.711, 42.64331
1514.746, 31.77820
1515.781, 70.04224
1516.816, 33.33594
1517.850, 46.65039
1518.884, 70.68665
1519.918, 94.66553
1520.952, 69.82361
1521.986, 44.33582
1523.019, 54.30005
1524.053, 22.22546
1525.086, 32.36523
1526.119, 38.34106
1527.152, 33.44495
1528.185, 48.44934
1529.217, 43.20251
1530.250, 47.42688
1531.282, 38.16553
1532.314, 44.22034
1533.346, 42.27490
1534.377, 27.90210
1535.409, 28.69495
1536.440, 11.73816
1537.472, 2.200806
1538.503, 5.128174
1539.534, 5.669800
1540.564, 19.02539
1541.595, 35.95081
1542.625, 36.49280
1543.656, 49.60962
1544.686, 47.97681
1545.716, 57.64026
1546.745, 43.49231
1547.775, 44.98352
1548.804, 43.67407
1549.834, 58.40210
1550.863, 50.25281
1551.892, 63.15271
1552.920, 78.77759
1553.949, 71.39905
1554.977, 77.53516
1556.006, 65.04883
1557.034, 62.60083
1558.062, 65.13208
1559.089, 30.60400
1560.117, 58.03137
1561.144, 29.37354
1562.172, 18.58252
1563.199, 19.94202
1564.226, 38.90015
1565.252, 9.971924
1566.279, 25.15503
1567.305, 73.57129
1568.332, 31.72205
1569.358, 0.3139650
1570.384, 0.0000000E+00
##END=



