##NAMES=Anglesite
##RRUFFID=R040004
##IDEAL CHEMISTRY=Pb^2+^S^6+^O_4_
##LOCALITY=Erupcion mine, Los Lamentos, Chihuahua, Mexico
##OWNER=RRUFF
##SOURCE=University of Arizona Mineral Museum
##DESCRIPTION=Tan colored tabular crystal
##STATUS=The identification of this mineral has been confirmed by X-ray diffraction and chemical analysis
##URL=rruff.info/R040004
##MEASURED CHEMISTRY=Pb_1.00_S_1.00_O_4_
##PIN_ID=M00020
##ORIENTATION=Laser parallel to a* (1 0 0). Fiducial mark perpendicular to laser is parallel to b [0 1 0]
84.51000, 0.0000000E+00
85.74900, 10.39233
86.98900, 112.5444
88.22800, 260.8599
89.46700, 389.7673
90.70600, 665.6753
91.94400, 1006.817
93.18300, 1207.872
94.42100, 1545.890
95.65900, 1760.768
96.89700, 2027.964
98.13500, 2088.300
99.37300, 2152.864
100.6100, 2184.917
101.8480, 2045.861
103.0850, 1900.198
104.3220, 1817.871
105.5590, 1535.529
106.7950, 1557.931
108.0320, 1278.487
109.2680, 1158.971
110.5040, 1056.229
111.7400, 962.1069
112.9760, 965.4561
114.2120, 875.1353
115.4470, 1020.022
116.6820, 1022.010
117.9170, 1063.999
119.1520, 968.9048
120.3870, 966.6572
121.6220, 1155.172
122.8560, 1257.466
124.0900, 1083.448
125.3240, 1247.432
126.5580, 1213.998
127.7920, 1384.070
129.0260, 1394.810
130.2590, 1477.058
131.4920, 1709.620
132.7250, 1829.553
133.9580, 1850.175
135.1910, 2017.357
136.4230, 1956.983
137.6560, 1825.917
138.8880, 1880.214
140.1200, 1786.853
141.3520, 1677.666
142.5830, 1706.674
143.8150, 1545.885
145.0460, 1661.276
146.2770, 1670.883
147.5080, 1687.627
148.7390, 1679.520
149.9700, 1658.543
151.2000, 1725.684
152.4310, 1833.967
153.6610, 1660.317
154.8910, 1588.980
156.1210, 1594.458
157.3500, 1421.076
158.5800, 1189.736
159.8090, 1167.458
161.0380, 1053.607
162.2670, 972.6631
163.4960, 687.2944
164.7240, 650.7671
165.9530, 589.8867
167.1810, 492.3750
168.4090, 424.2920
169.6370, 375.0356
170.8650, 330.5088
172.0920, 294.1772
173.3200, 298.3647
174.5470, 307.1567
175.7740, 318.2988
177.0010, 302.4116
178.2280, 268.7178
179.4540, 260.1846
180.6810, 234.4380
181.9070, 221.4204
183.1330, 214.1465
184.3590, 211.0156
185.5850, 212.2217
186.8100, 266.5342
188.0350, 186.4121
189.2610, 109.8247
190.4860, 172.8994
191.7110, 93.83936
192.9350, 152.4585
194.1600, 221.9849
195.3840, 196.0405
196.6080, 47.30176
197.8320, 124.7710
199.0560, 120.3960
200.2800, 132.0088
201.5030, 177.1963
202.7270, 134.8506
203.9500, 167.4165
205.1730, 231.2329
206.3950, 174.5713
207.6180, 194.7578
208.8410, 177.0425
210.0630, 173.8589
211.2850, 181.6831
212.5070, 138.0518
213.7290, 71.34277
214.9500, 98.99170
216.1720, 149.6738
217.3930, 166.1533
218.6140, 111.0171
219.8350, 88.27393
221.0560, 29.64111
222.2770, 54.16113
223.4970, 26.00342
224.7170, 11.63135
225.9370, 26.19531
227.1570, 62.46729
228.3770, 54.20312
229.5970, 77.46533
230.8160, 44.14502
232.0350, 31.72607
233.2540, 58.56299
234.4730, 21.05518
235.6920, 28.68896
236.9110, 82.42236
238.1290, 8.008301
239.3470, 49.91455
240.5650, 7.527344
241.7830, 17.68604
243.0010, 71.59814
244.2180, 145.1143
245.4360, 46.32910
246.6530, 91.55273
247.8700, 17.92773
249.0870, 19.05811
250.3040, 14.32031
251.5200, 26.67529
252.7370, 1.668945
253.9530, 18.82373
255.1690, 69.02393
256.3850, 11.13379
257.6000, 81.88281
258.8160, 5.832031
260.0310, 83.57861
261.2460, 56.38428
262.4610, 71.86670
263.6760, 54.82422
264.8910, 68.60303
266.1050, 2.007324
267.3200, 10.53955
268.5340, 69.66846
269.7480, 2.195801
270.9620, 19.24219
272.1750, 19.65430
273.3890, 1.043457
274.6020, 32.59131
275.8150, 46.75293
277.0280, 49.08643
278.2410, 104.4121
279.4540, 8.742188
280.6660, 141.0635
281.8790, 20.40479
283.0910, 91.74365
284.3030, 1.904297
285.5140, 5.445313
286.7260, 45.20361
287.9380, 99.14600
289.1490, 55.51758
290.3600, 17.90186
291.5710, 9.293945
292.7820, 17.30664
293.9920, 47.09668
295.2030, 16.48242
296.4130, 59.05811
297.6230, 57.37256
298.8330, 66.82422
300.0430, 99.69873
301.2520, 57.78711
302.4620, 15.70312
303.6710, 24.81689
304.8800, 56.64502
306.0890, 31.65088
307.2980, 40.51904
308.5070, 5.934082
309.7150, 6.664551
310.9230, 6.328125
312.1310, 30.96680
313.3390, 56.25195
314.5470, 32.08105
315.7550, 75.78760
316.9620, 2.025391
318.1690, 27.77051
319.3760, 4.620605
320.5830, 79.50098
321.7900, 43.61523
322.9960, 14.72070
324.2030, 25.80664
325.4090, 0.8745120
326.6150, 15.91113
327.8210, 18.32666
329.0270, 23.80762
330.2320, 41.67627
331.4380, 27.52930
332.6430, 50.33789
333.8480, 209.1089
335.0530, 8.134277
336.2580, 38.58301
337.4620, 190.2769
338.6670, 78.92773
339.8710, 46.54541
341.0750, 20.35156
342.2790, 82.92627
343.4820, 18.47656
344.6860, 151.5957
345.8890, 17.56299
347.0920, 83.05762
348.2960, 54.50049
349.4980, 4.972168
350.7010, 63.41846
351.9040, 91.83936
353.1060, 65.21338
354.3080, 100.5742
355.5100, 181.8735
356.7120, 141.1426
357.9140, 9.401855
359.1150, 116.6240
360.3170, 83.34229
361.5180, 111.4878
362.7190, 148.7974
363.9200, 173.9468
365.1200, 28.17041
366.3210, 137.2656
367.5210, 161.3369
368.7210, 27.39551
369.9210, 50.31250
371.1210, 88.31934
372.3210, 1.687012
373.5200, 170.4297
374.7200, 36.34229
375.9190, 60.22314
377.1180, 37.11377
378.3170, 132.8594
379.5150, 87.75781
380.7140, 137.2427
381.9120, 159.1445
383.1110, 146.0488
384.3090, 259.0039
385.5060, 188.9058
386.7040, 235.6294
387.9020, 138.8511
389.0990, 129.2168
390.2960, 227.5029
391.4930, 107.9180
392.6900, 57.07373
393.8860, 51.60645
395.0830, 15.88770
396.2790, 118.7178
397.4750, 141.5166
398.6710, 239.9141
399.8670, 165.7236
401.0630, 133.2388
402.2580, 167.4580
403.4540, 146.0308
404.6490, 215.7207
405.8440, 225.7334
407.0390, 197.3765
408.2330, 153.3530
409.4280, 168.9702
410.6220, 154.5571
411.8160, 71.14014
413.0100, 260.6919
414.2040, 320.2847
415.3980, 261.2114
416.5910, 259.0771
417.7850, 206.4619
418.9780, 233.0645
420.1710, 358.7568
421.3640, 344.2510
422.5560, 352.2051
423.7490, 350.1724
424.9410, 330.9883
426.1330, 531.4062
427.3250, 559.5015
428.5170, 793.6387
429.7090, 886.4619
430.9000, 1092.769
432.0910, 1317.107
433.2820, 1809.669
434.4730, 2150.750
435.6640, 2698.127
436.8550, 3266.332
438.0450, 3903.820
439.2360, 4232.399
440.4260, 4214.573
441.6160, 3897.277
442.8060, 3519.417
443.9950, 2887.540
445.1850, 2584.959
446.3740, 2243.749
447.5630, 1992.652
448.7520, 2020.715
449.9410, 1881.717
451.1300, 1657.760
452.3180, 1475.879
453.5060, 1267.299
454.6950, 1123.658
455.8830, 957.4238
457.0700, 845.3965
458.2580, 660.0752
459.4450, 566.0186
460.6330, 559.4341
461.8200, 387.1904
463.0070, 363.1191
464.1940, 361.0005
465.3800, 301.6343
466.5670, 392.2720
467.7530, 413.2642
468.9390, 351.0801
470.1250, 358.5527
471.3110, 277.0532
472.4970, 427.7153
473.6820, 282.9092
474.8680, 292.5742
476.0530, 311.8867
477.2380, 165.6328
478.4230, 187.3789
479.6070, 135.1758
480.7920, 173.8877
481.9760, 217.5156
483.1600, 110.3921
484.3440, 216.2349
485.5280, 185.8027
486.7120, 78.44629
487.8950, 88.07568
489.0780, 129.5439
490.2620, 154.9600
491.4450, 117.6572
492.6270, 130.7715
493.8100, 118.7803
494.9920, 121.4780
496.1750, 119.7915
497.3570, 149.2295
498.5390, 196.7456
499.7210, 239.2544
500.9020, 169.7026
502.0840, 74.17773
503.2650, 47.11377
504.4460, 105.4873
505.6270, 120.9302
506.8080, 110.3618
507.9890, 122.3276
509.1690, 127.7363
510.3500, 206.1479
511.5300, 137.9131
512.7100, 235.5557
513.8900, 205.2266
515.0690, 92.33008
516.2490, 156.6904
517.4280, 144.5659
518.6070, 143.2861
519.7860, 130.0898
520.9650, 183.3203
522.1440, 155.7480
523.3220, 158.0288
524.5010, 134.3364
525.6790, 134.6118
526.8570, 180.9180
528.0350, 98.21338
529.2130, 110.4995
530.3900, 143.6465
531.5670, 67.73682
532.7450, 104.0220
533.9220, 11.90332
535.0980, 150.2988
536.2750, 52.47852
537.4520, 19.83691
538.6280, 84.95410
539.8040, 123.0151
540.9800, 176.2202
542.1560, 125.9712
543.3320, 200.0791
544.5070, 132.0415
545.6830, 22.88086
546.8580, 109.3159
548.0330, 95.51318
549.2080, 179.9707
550.3830, 188.5479
551.5570, 149.7280
552.7310, 110.8804
553.9060, 214.4785
555.0800, 85.63428
556.2540, 146.3320
557.4270, 241.4727
558.6010, 187.6064
559.7740, 79.80225
560.9470, 93.48828
562.1210, 166.6035
563.2930, 82.71826
564.4660, 96.84277
565.6390, 112.9614
566.8110, 138.4116
567.9830, 172.8364
569.1550, 168.7305
570.3270, 120.8735
571.4990, 151.1416
572.6710, 136.2695
573.8420, 76.37305
575.0130, 165.5181
576.1840, 236.6602
577.3550, 205.9204
578.5260, 141.0503
579.6970, 41.94385
580.8670, 222.0654
582.0370, 211.1797
583.2070, 257.3496
584.3770, 244.4800
585.5470, 212.6021
586.7170, 260.7324
587.8860, 288.8569
589.0550, 286.6196
590.2240, 283.8452
591.3930, 380.9624
592.5620, 270.0645
593.7310, 350.1641
594.8990, 432.2627
596.0670, 573.9785
597.2350, 687.7803
598.4030, 633.1538
599.5710, 933.9277
600.7390, 1019.997
601.9060, 1066.197
603.0740, 1285.272
604.2410, 1270.349
605.4080, 1537.406
606.5740, 1523.879
607.7410, 1352.479
608.9080, 1189.538
610.0740, 1002.882
611.2400, 823.9419
612.4060, 730.8145
613.5720, 624.5571
614.7370, 540.6089
615.9030, 489.3032
617.0680, 434.2983
618.2330, 410.9766
619.3980, 378.0181
620.5630, 349.3677
621.7280, 338.1470
622.8920, 270.4307
624.0570, 299.2422
625.2210, 291.0630
626.3850, 341.0815
627.5490, 281.5039
628.7120, 312.0586
629.8760, 239.3574
631.0390, 208.3711
632.2020, 287.2812
633.3650, 227.6055
634.5280, 220.5801
635.6910, 162.5493
636.8530, 170.5049
638.0160, 161.6440
639.1780, 249.4468
640.3400, 242.4307
641.5020, 360.4243
642.6640, 238.0854
643.8250, 177.1001
644.9870, 206.9668
646.1480, 196.9438
647.3090, 231.8857
648.4700, 347.8521
649.6300, 220.9932
650.7910, 146.9453
651.9510, 259.9790
653.1120, 337.0288
654.2720, 145.9834
655.4320, 188.0239
656.5910, 189.9829
657.7510, 127.0664
658.9100, 178.2271
660.0690, 229.2158
661.2290, 236.1782
662.3880, 79.32031
663.5460, 174.8979
664.7050, 89.84326
665.8630, 118.9634
667.0220, 245.8945
668.1800, 216.7632
669.3380, 106.6812
670.4950, 88.59277
671.6530, 188.1543
672.8100, 63.04199
673.9680, 93.84668
675.1250, 98.76953
676.2820, 295.1836
677.4390, 185.5918
678.5950, 219.3975
679.7520, 125.2910
680.9080, 25.17969
682.0640, 2.945313
683.2200, 12.91992
684.3760, 201.6621
685.5320, 145.5947
686.6870, 104.7412
687.8420, 50.60352
688.9980, 33.17969
690.1530, 130.9756
691.3070, 75.26367
692.4620, 72.02051
693.6170, 150.7773
694.7710, 23.54785
695.9250, 142.1729
697.0790, 155.8867
698.2330, 70.59375
699.3870, 24.16699
700.5400, 159.8242
701.6940, 96.50488
702.8470, 97.68066
704.0000, 173.7383
705.1530, 39.39746
706.3050, 42.28418
707.4580, 13.92383
708.6100, 89.55078
709.7630, 54.16992
710.9150, 159.7822
712.0660, 3.386719
713.2180, 140.8486
714.3700, 102.4307
715.5210, 53.00488
716.6720, 137.5713
717.8240, 10.13086
718.9740, 98.21777
720.1250, 147.7559
721.2760, 67.28809
722.4260, 135.8115
723.5770, 123.3281
724.7270, 114.8379
725.8770, 197.3408
727.0260, 11.16309
728.1760, 50.31152
729.3250, 33.22266
730.4750, 105.2100
731.6240, 117.6357
732.7730, 161.0557
733.9220, 27.53223
735.0700, 100.8496
736.2190, 96.22559
737.3670, 6.594727
738.5150, 94.95020
739.6630, 41.29883
740.8110, 89.63965
741.9590, 142.9727
743.1060, 2.700195
744.2540, 18.61133
745.4010, 10.91211
746.5480, 84.98828
747.6950, 26.27051
748.8410, 66.54395
749.9880, 16.18945
751.1340, 3.016602
752.2800, 156.2852
753.4260, 7.491211
754.5720, 152.7148
755.7180, 120.9141
756.8640, 149.1074
758.0090, 8.779297
759.1540, 196.3887
760.2990, 83.55078
761.4440, 126.7041
762.5890, 1.145508
763.7340, 143.9902
764.8780, 57.11816
766.0220, 117.2441
767.1660, 17.45801
768.3100, 56.56934
769.4540, 136.6748
770.5980, 14.77539
771.7410, 48.86914
772.8840, 107.9580
774.0280, 94.04102
775.1700, 24.11719
776.3130, 2.814453
777.4560, 60.25195
778.5980, 96.16406
779.7410, 8.782227
780.8830, 100.2568
782.0250, 39.29297
783.1670, 41.32812
784.3080, 26.35742
785.4500, 149.3799
786.5910, 41.60254
787.7320, 85.38086
788.8730, 25.35938
790.0140, 22.33203
791.1550, 56.29883
792.2950, 7.259766
793.4360, 91.21387
794.5760, 16.16113
795.7160, 8.102539
796.8560, 33.04004
797.9960, 51.97168
799.1350, 6.898438
800.2750, 19.22949
801.4140, 124.6699
802.5530, 44.44141
803.6920, 133.4199
804.8310, 38.27734
805.9690, 77.13477
807.1080, 80.98730
808.2460, 69.81934
809.3840, 71.66406
810.5220, 30.61621
811.6600, 20.20410
812.7970, 62.02051
813.9350, 9.833984
815.0720, 75.65234
816.2090, 81.46680
817.3460, 98.28027
818.4830, 96.54199
819.6200, 19.16309
820.7560, 59.80273
821.8930, 42.04102
823.0290, 2.294922
824.1650, 11.55762
825.3010, 29.90234
826.4360, 5.165039
827.5720, 8.118164
828.7070, 68.53027
829.8420, 25.16211
830.9770, 64.86523
832.1120, 111.0127
833.2470, 45.70898
834.3820, 86.40234
835.5160, 69.02344
836.6500, 123.1396
837.7840, 98.59473
838.9180, 37.50879
840.0520, 59.18945
841.1860, 5.867188
842.3190, 23.76758
843.4520, 47.60938
844.5850, 43.52637
845.7180, 32.18359
846.8510, 70.02344
847.9840, 59.66309
849.1160, 97.05176
850.2490, 76.70312
851.3810, 82.35352
852.5130, 106.8789
853.6450, 159.5254
854.7760, 45.41113
855.9080, 159.0576
857.0390, 114.7021
858.1700, 120.2959
859.3010, 161.9385
860.4320, 164.5811
861.5630, 165.2227
862.6930, 170.8633
863.8240, 175.8662
864.9540, 55.39941
866.0840, 265.0312
867.2140, 175.6699
868.3440, 14.30859
869.4730, 145.9473
870.6030, 238.9697
871.7320, 64.60840
872.8610, 7.250000
873.9900, 176.1943
875.1190, 89.83496
876.2470, 90.34570
877.3760, 52.99023
878.5040, 60.63477
879.6320, 36.29102
880.7600, 73.52832
881.8880, 22.36230
883.0150, 11.45801
884.1430, 118.6436
885.2700, 34.29004
886.3970, 57.12695
887.5240, 100.0908
888.6510, 95.74414
889.7780, 182.1611
890.9040, 132.8193
892.0310, 34.47852
893.1570, 26.85742
894.2830, 57.48242
895.4090, 52.14160
896.5350, 37.80566
897.6600, 90.47266
898.7860, 197.3467
899.9110, 59.01953
901.0360, 103.6953
902.1610, 31.62305
903.2860, 209.7578
904.4100, 165.4355
905.5350, 113.1172
906.6590, 59.46484
907.7830, 236.1328
908.9070, 145.8252
910.0310, 246.5225
911.1540, 127.0811
912.2780, 29.38281
913.4010, 24.90820
914.5240, 82.79883
915.6470, 86.31836
916.7700, 119.0342
917.8930, 222.5361
919.0150, 70.23535
920.1380, 139.8799
921.2600, 115.6143
922.3820, 66.17285
923.5040, 82.91797
924.6260, 101.9092
925.7470, 51.57324
926.8690, 107.3340
927.9900, 129.8555
929.1110, 122.6289
930.2320, 230.2881
931.3530, 130.8203
932.4730, 82.58984
933.5940, 153.3945
934.7140, 152.0234
935.8340, 199.2148
936.9540, 136.2627
938.0740, 150.9131
939.1930, 172.7500
940.3130, 119.9219
941.4320, 236.7725
942.5510, 169.6299
943.6700, 132.4941
944.7890, 272.3662
945.9080, 303.0352
947.0260, 290.8975
948.1450, 451.7939
949.2630, 556.6299
950.3810, 476.5420
951.4990, 552.2578
952.6170, 605.1846
953.7340, 735.1230
954.8520, 744.0703
955.9690, 839.1377
957.0860, 1052.344
958.2030, 1214.010
959.3200, 1203.154
960.4360, 1459.168
961.5530, 1784.170
962.6690, 1992.682
963.7850, 2471.726
964.9010, 2810.789
966.0170, 3560.859
967.1330, 4409.952
968.2480, 5449.072
969.3630, 6994.204
970.4790, 9196.346
971.5940, 11929.50
972.7080, 15316.66
973.8230, 19859.83
974.9380, 25105.02
976.0520, 30299.20
977.1660, 35397.17
978.2800, 38293.39
979.3940, 38951.61
980.5080, 36001.85
981.6220, 30926.10
982.7350, 25309.37
983.8480, 19810.63
984.9610, 15273.92
986.0740, 11969.22
987.1870, 9258.527
988.3000, 7333.848
989.4120, 6020.181
990.5250, 5003.525
991.6370, 4225.879
992.7490, 3419.246
993.8610, 2988.623
994.9720, 2658.012
996.0840, 2250.412
997.1950, 1985.823
998.3060, 1927.252
999.4170, 1529.694
1000.528, 1530.158
1001.639, 1427.636
1002.750, 1350.135
1003.860, 1287.629
1004.970, 1194.846
1006.080, 1125.801
1007.190, 992.3877
1008.300, 913.9883
1009.410, 725.6064
1010.519, 716.2363
1011.628, 471.8770
1012.738, 511.5312
1013.846, 540.2021
1014.955, 383.8867
1016.064, 374.8135
1017.172, 455.5410
1018.281, 400.2812
1019.389, 293.0332
1020.497, 446.8066
1021.605, 302.5947
1022.713, 327.3955
1023.820, 407.2139
1024.928, 213.0449
1026.035, 223.8877
1027.142, 274.8174
1028.249, 273.6924
1029.356, 207.5791
1030.462, 215.4795
1031.569, 171.9111
1032.675, 142.3213
1033.781, 126.2627
1034.887, 76.21777
1035.993, 103.0967
1037.098, 57.08301
1038.204, 116.0820
1039.309, 35.89551
1040.415, 32.13281
1041.520, 159.1729
1042.624, 25.22754
1043.729, 46.29590
1044.834, 70.62305
1045.938, 72.45410
1047.042, 166.6924
1048.146, 123.7959
1049.250, 7.916992
1050.354, 31.94727
1051.458, 31.19434
1052.561, 3.349609
1053.664, 112.5176
1054.767, 107.7002
1055.870, 25.90918
1056.973, 15.86816
1058.076, 123.3652
1059.178, 25.61230
1060.281, 32.87305
1061.383, 154.1475
1062.485, 72.43652
1063.587, 35.25977
1064.688, 101.0488
1065.790, 42.28516
1066.891, 150.6211
1067.993, 53.97070
1069.094, 11.65723
1070.195, 94.72559
1071.295, 154.1348
1072.396, 44.44238
1073.496, 94.98340
1074.597, 90.42090
1075.697, 70.87207
1076.797, 81.33691
1077.897, 47.39746
1078.996, 72.91699
1080.096, 139.4482
1081.195, 148.9941
1082.294, 96.55371
1083.393, 29.87402
1084.492, 75.70410
1085.591, 45.29980
1086.689, 81.90723
1087.788, 122.5273
1088.886, 198.1797
1089.984, 176.8574
1091.082, 196.3096
1092.180, 82.25977
1093.277, 134.0000
1094.375, 116.7539
1095.472, 2.521484
1096.569, 65.40430
1097.666, 163.2002
1098.763, 187.0088
1099.860, 183.2666
1100.956, 203.1006
1102.053, 96.95703
1103.149, 284.8174
1104.245, 147.6904
1105.341, 163.5752
1106.436, 256.4736
1107.532, 210.3838
1108.627, 277.3076
1109.723, 240.2480
1110.818, 172.2021
1111.913, 302.1699
1113.007, 306.1484
1114.102, 318.1406
1115.197, 289.1445
1116.291, 331.8193
1117.385, 286.8486
1118.479, 339.8906
1119.573, 484.9463
1120.666, 394.0127
1121.760, 418.1094
1122.853, 309.2188
1123.947, 476.3408
1125.040, 402.4746
1126.132, 434.6211
1127.225, 411.7793
1128.318, 522.9512
1129.410, 624.1338
1130.502, 499.3291
1131.595, 612.5371
1132.687, 543.7568
1133.778, 627.3096
1134.870, 698.0986
1135.961, 606.3574
1137.053, 611.8525
1138.144, 689.1338
1139.235, 702.4277
1140.326, 634.6846
1141.416, 494.0000
1142.507, 705.3271
1143.597, 687.6650
1144.688, 553.0156
1145.778, 574.3740
1146.868, 520.3750
1147.957, 455.7617
1149.047, 465.1582
1150.136, 259.5664
1151.226, 501.9844
1152.315, 474.4131
1153.404, 354.8525
1154.493, 513.3018
1155.581, 379.7617
1156.670, 264.2324
1157.758, 362.7129
1158.846, 493.2080
1159.934, 210.7148
1161.022, 434.2305
1162.110, 320.7666
1163.198, 417.3115
1164.285, 177.8682
1165.372, 343.4336
1166.459, 313.9414
1167.546, 160.5322
1168.633, 161.1318
1169.720, 279.9863
1170.806, 145.6377
1171.892, 136.2666
1172.979, 271.9053
1174.065, 172.5537
1175.150, 149.2119
1176.236, 177.4707
1177.322, 159.1475
1178.407, 65.83691
1179.492, 135.5361
1180.577, 39.24512
1181.662, 231.1445
1182.747, 113.8721
1183.832, 198.6084
1184.916, 160.3545
1186.000, 140.1084
1187.084, 81.87305
1188.168, 171.3281
1189.252, 108.1094
1190.336, 166.9004
1191.419, 272.7002
1192.503, 175.5088
1193.586, 112.3252
1194.669, 132.2041
1195.752, 39.96191
1196.835, 109.8643
1197.917, 19.69727
1199.000, 105.5400
1200.082, 166.1670
1201.164, 18.02637
1202.246, 126.8926
1203.328, 53.44141
1204.409, 57.32422
1205.491, 103.2168
1206.572, 37.11719
1207.653, 10.16016
1208.734, 78.75000
1209.815, 121.6680
1210.896, 67.59277
1211.976, 110.5254
1213.057, 118.4648
1214.137, 92.61816
1215.217, 57.97852
1216.297, 104.9395
1217.377, 26.90918
1218.456, 169.8857
1219.536, 80.86914
1220.615, 134.8594
1221.694, 16.85742
1222.773, 104.6387
1223.852, 87.64941
1224.931, 100.6680
1226.009, 37.30859
1227.088, 142.7031
1228.166, 230.7217
1229.244, 78.25488
1230.322, 125.7383
1231.400, 7.735352
1232.477, 133.7383
1233.555, 152.7480
1234.632, 122.7646
1235.709, 63.78613
1236.786, 104.8135
1237.863, 129.8467
1238.939, 61.88574
1240.016, 96.93164
1241.092, 196.9814
1242.168, 175.0391
1243.245, 95.10352
1244.320, 118.1846
1245.396, 6.728516
1246.472, 257.3584
1247.547, 220.4502
1248.622, 87.54785
1249.697, 154.7168
1250.772, 78.79688
1251.847, 164.9238
1252.922, 198.0547
1253.996, 105.1934
1255.071, 171.3359
1256.145, 147.4834
1257.219, 77.63477
1258.293, 141.7920
1259.366, 28.97656
1260.440, 176.1650
1261.513, 202.3574
1262.587, 33.77148
1263.660, 88.58984
1264.733, 201.5469
1265.805, 13.31152
1266.878, 163.8223
1267.951, 103.9619
1269.023, 7.894531
1270.095, 69.24219
1271.167, 192.3857
1272.239, 97.53125
1273.311, 138.6816
1274.382, 234.8350
1275.454, 54.00781
1276.525, 171.1230
1277.596, 270.2578
1278.667, 151.3945
1279.738, 21.53516
1280.808, 69.68066
1281.879, 119.8291
1282.949, 113.9824
1284.019, 151.1367
1285.089, 109.2969
1286.159, 167.4590
1287.229, 78.62500
1288.298, 112.7949
1289.368, 61.96777
1290.437, 55.28320
1291.506, 95.46289
1292.575, 151.6445
1293.644, 107.8281
1294.712, 3.985352
1295.781, 77.19629
1296.849, 122.3789
1297.917, 26.43555
1298.985, 66.73145
1300.053, 290.9053
1301.121, 109.0811
1302.188, 282.2598
1303.255, 174.4404
1304.323, 127.6260
1305.390, 251.8242
1306.457, 72.02539
1307.523, 190.2266
1308.590, 151.4307
1309.656, 83.63574
1310.723, 203.8457
1311.789, 112.0576
1312.855, 145.9414
1313.921, 148.4863
1314.986, 151.7031
1316.052, 108.9199
1317.117, 89.13965
1318.182, 130.3613
1319.248, 256.5869
1320.312, 219.8115
1321.377, 179.0391
1322.442, 218.2676
1323.506, 56.50195
1324.571, 170.8232
1325.635, 144.0615
1326.699, 154.3008
1327.762, 235.5400
1328.826, 76.77930
1329.890, 188.0186
1330.953, 145.2559
1332.016, 186.5020
1333.079, 77.75000
1334.142, 130.9824
1335.205, 48.78223
1336.268, 90.87109
1337.330, 56.09180
1338.392, 32.31445
1339.454, 99.53906
1340.516, 112.7646
1341.578, 76.97363
1342.640, 11.18750
1343.701, 65.40234
1344.763, 95.61816
1345.824, 167.8359
1346.885, 209.0547
1347.946, 69.27637
1349.007, 130.5000
1350.067, 46.27539
1351.128, 60.93457
1352.188, 50.14648
1353.248, 181.3604
1354.308, 91.47461
1355.368, 75.66895
1356.428, 78.86523
1357.487, 82.62598
1358.547, 63.82324
1359.606, 93.01270
1360.665, 35.20801
1361.724, 133.4062
1362.783, 114.6045
1363.841, 85.80371
1364.900, 88.00391
1365.958, 80.51660
1367.016, 94.41016
1368.074, 113.6143
1369.132, 107.1328
1370.190, 38.34961
1371.247, 127.6309
1372.304, 88.84180
1373.362, 132.3955
1374.419, 126.5928
1375.476, 47.28516
1376.532, 29.51172
1377.589, 47.28711
1378.645, 35.89648
1379.702, 179.0820
1380.758, 159.3887
1381.814, 98.57617
1382.870, 64.76367
1383.925, 53.34277
1384.981, 161.1436
1386.036, 53.72070
1387.092, 51.91309
1388.147, 77.10547
1389.202, 10.29883
1390.256, 231.1738
1391.311, 64.82520
1392.365, 264.0186
1393.420, 131.9893
1394.474, 171.1855
1395.528, 121.3828
1396.582, 156.6289
1397.636, 141.4102
1398.689, 79.03223
1399.742, 133.2363
1400.796, 96.44336
1401.849, 109.6504
1402.902, 59.23145
1403.955, 56.44336
1405.007, 57.08691
1406.060, 47.87500
1407.112, 58.09375
1408.164, 72.50684
1409.216, 63.58105
1410.268, 84.76953
1411.320, 122.9990
1412.371, 114.2334
1413.423, 189.4668
1414.474, 160.6631
1415.525, 119.8623
1416.576, 18.94238
1417.627, 127.2041
1418.678, 61.35059
1419.728, 180.4980
1420.778, 199.6455
1421.829, 76.78223
1422.879, 141.8477
1423.928, 52.91309
1424.978, 128.7324
1426.028, 208.8682
1427.077, 188.9258
1428.126, 144.9834
1429.176, 169.0996
1430.225, 133.8594
1431.273, 146.9492
1432.322, 134.9912
1433.371, 229.0264
1434.419, 174.0557
1435.467, 241.0781
1436.515, 278.0947
1437.563, 185.1064
1438.611, 356.1123
1439.658, 310.1162
1440.706, 217.1182
1441.753, 297.1162
1442.800, 307.1123
1443.847, 392.0752
1444.894, 362.5107
1445.941, 315.4639
1446.987, 332.4141
1448.034, 412.7197
1449.080, 366.6621
1450.126, 361.6006
1451.172, 373.5742
1452.218, 328.4170
1453.263, 387.9668
1454.309, 284.6143
1455.354, 350.1260
1456.399, 373.5010
1457.444, 293.8584
1458.489, 367.2158
1459.534, 429.6621
1460.579, 531.9922
1461.623, 414.3223
1462.667, 291.2256
1463.711, 146.5527
1464.755, 259.8789
1465.799, 354.2051
1466.843, 238.4092
1467.886, 415.6953
1468.930, 284.0029
1469.973, 275.3340
1471.016, 148.6855
1472.059, 355.0381
1473.101, 282.3916
1474.144, 228.7461
1475.186, 275.1016
1476.229, 119.4531
1477.271, 245.7754
1478.313, 358.1045
1479.355, 165.3486
1480.396, 327.7373
1481.438, 263.9766
1482.479, 188.2129
1483.520, 131.4473
1484.561, 137.3398
1485.602, 198.9121
1486.643, 167.1299
1487.684, 220.3838
1488.724, 221.6436
1489.765, 199.9141
1490.805, 211.1836
1491.845, 176.4531
1492.885, 160.7656
1493.924, 19.07617
1494.964, 217.3877
1496.003, 34.30469
1497.042, 106.0029
1498.082, 212.3105
1499.120, 126.3574
1500.159, 10.62305
1501.198, 34.11230
1502.236, 265.1660
1503.275, 120.4639
1504.313, 136.7803
1505.351, 38.09961
1506.389, 86.41113
1507.427, 272.7266
1508.464, 234.0459
1509.502, 131.3691
1510.539, 70.30176
1511.576, 235.0332
1512.613, 181.3750
1513.650, 93.71484
1514.687, 195.0596
1515.723, 181.4102
1516.759, 181.7578
1517.796, 136.1182
1518.832, 162.1934
1519.868, 155.8906
1520.903, 180.3457
1521.939, 153.8057
1522.975, 125.2715
1524.010, 147.7744
1525.045, 129.3203
1526.080, 131.9199
1527.115, 229.4209
1528.150, 166.9746
1529.184, 158.5303
1530.219, 242.0898
1531.253, 144.7656
1532.287, 197.4531
1533.321, 198.1660
1534.355, 210.9072
1535.388, 228.6631
1536.422, 207.4355
1537.455, 222.9756
1538.488, 204.9512
1539.522, 221.5771
1540.554, 224.7109
1541.587, 220.6973
1542.620, 306.0771
1543.652, 281.0430
1544.685, 295.3994
1545.717, 298.8926
1546.749, 227.2793
1547.781, 244.9795
1548.812, 217.6250
1549.844, 47.21094
1550.875, 229.7266
1551.906, 226.1621
1552.938, 50.50293
1553.968, 2.264648
1554.999, 54.84473
1556.030, 126.8105
1557.060, 105.6064
1558.091, 105.2041
1559.121, 229.5918
1560.151, 185.9385
1561.181, 112.9639
1562.211, 223.7861
1563.240, 77.00000
1564.270, 146.7266
1565.299, 83.81055
1566.328, 173.4697
1567.357, 137.7510
1568.386, 0.6230470
1569.415, 115.4336
1570.443, 147.5547
1571.472, 6.703125
1572.500, 73.74219
1573.528, 98.57422
1574.556, 2.918945
1575.584, 125.9375
1576.611, 75.59082
1577.639, 58.16016
1578.666, 14.38965
1579.693, 0.0000000E+00
##END=



