##NAMES=Anorthite
##RRUFFID=R040059
##IDEAL CHEMISTRY=CaAl_2_Si_2_O_8_
##LOCALITY=Miyakejima, Japan
##OWNER=RRUFF
##SOURCE=University of Arizona Mineral Museum
##DESCRIPTION=Colorless fragments of crystals
##STATUS=The identification of this mineral has been confirmed by X-ray diffraction and chemical analysis
##URL=rruff.info/R040059
##MEASURED CHEMISTRY=(Ca_0.94_Na_0.04_Fe_0.02_)(Al_0.98_Si_0.02_)_2_Si_2.00_O_8_
##PIN_ID=L00179
##ORIENTATION=Laser parallel to (1 1 0). Fiducial mark perpendicular to laser is parallel to -c [0 0 -1]
120.311, 0.000
121.706, 2.852
123.102, 112.271
124.497, 12.476
125.892, 137.176
127.286, 413.731
128.681, 762.662
130.075, 1161.163
131.469, 1177.609
132.862, 1770.059
134.256, 1987.472
135.649, 2449.189
137.042, 2814.716
138.435, 3353.550
139.827, 3775.211
141.219, 4101.711
142.611, 4647.647
144.003, 4725.322
145.394, 4234.589
146.786, 3775.334
148.177, 3037.647
149.567, 2371.688
150.958, 1597.368
152.348, 1294.477
153.738, 712.720
155.128, 551.861
156.517, 91.712
157.907, 52.114
159.296, 82.946
160.685, 35.895
162.073, 45.508
163.462, 7.085
164.850, 218.793
166.237, 170.602
167.625, 472.586
169.012, 775.454
170.400, 939.373
171.786, 1143.201
173.173, 1347.664
174.559, 1630.722
175.946, 1944.175
177.332, 2305.117
178.717, 2656.839
180.103, 3119.164
181.488, 3971.935
182.873, 4374.168
184.258, 4985.658
185.642, 5686.448
187.026, 5936.586
188.410, 6626.111
189.794, 6685.057
191.178, 7113.451
192.561, 6941.328
193.944, 7098.707
195.327, 6965.617
196.709, 6352.074
198.092, 6058.102
199.474, 5583.715
200.856, 5368.938
202.237, 4733.781
203.618, 4288.270
205.000, 3912.470
206.380, 3406.437
207.761, 3020.211
209.142, 2533.819
210.522, 2217.280
211.902, 1980.609
213.281, 1493.817
214.661, 1272.346
216.040, 1215.299
217.419, 1335.145
218.798, 1119.623
220.176, 1113.274
221.554, 1034.991
222.932, 877.030
224.310, 716.854
225.688, 555.487
227.065, 725.706
228.442, 564.859
229.819, 855.692
231.196, 901.895
232.572, 1045.592
233.948, 1314.627
235.324, 1473.571
236.700, 1825.618
238.075, 2188.775
239.450, 2543.738
240.825, 2863.234
242.200, 3133.365
243.574, 3711.650
244.948, 3586.951
246.322, 4052.260
247.696, 3817.572
249.070, 4092.887
250.443, 4228.200
251.816, 4333.512
253.189, 4558.809
254.561, 4554.095
255.933, 4749.361
257.306, 4614.607
258.677, 4659.812
260.049, 4614.975
261.420, 4390.084
262.791, 4385.143
264.162, 4260.140
265.533, 4265.077
266.903, 4359.957
268.274, 4384.777
269.643, 4353.801
271.013, 4484.248
272.383, 4268.901
273.752, 4233.497
275.121, 4193.420
276.490, 4362.528
277.858, 4336.965
279.226, 4481.350
280.595, 4805.684
281.962, 4499.968
283.330, 4544.203
284.697, 4348.388
286.064, 4173.770
287.431, 3800.144
288.798, 3657.150
290.164, 3134.502
291.530, 3092.416
292.896, 2690.645
294.262, 2119.130
295.627, 2007.825
296.993, 1476.695
298.358, 1295.710
299.722, 994.845
301.087, 794.080
302.451, 593.398
303.815, 452.782
305.179, 482.220
306.543, 71.686
307.906, 71.175
309.269, 0.681
310.632, 120.180
311.995, 30.317
313.357, 60.847
314.719, 101.423
316.081, 87.935
317.443, 157.274
318.804, 276.583
320.166, 355.864
321.527, 525.111
322.887, 384.322
324.248, 303.491
325.608, 282.303
326.968, 21.386
328.328, 89.597
329.688, 90.678
331.047, 131.850
332.406, 173.123
333.765, 264.521
335.124, 246.972
336.482, 227.654
337.840, 209.387
339.198, 131.249
340.556, 53.237
341.913, 75.312
343.271, 87.529
344.628, 99.871
345.984, 182.364
347.341, 64.967
348.697, 117.811
350.053, 59.256
351.409, 16.219
352.765, 156.931
354.120, 20.236
355.475, 53.658
356.830, 122.794
358.185, 60.838
359.539, 84.593
360.894, 28.474
362.248, 227.536
363.601, 193.475
364.955, 339.342
366.308, 575.146
367.661, 630.888
369.014, 696.573
370.367, 792.200
371.719, 799.408
373.071, 863.282
374.423, 824.621
375.775, 834.145
377.126, 839.495
378.478, 934.762
379.828, 999.928
381.179, 854.918
382.530, 889.756
383.880, 844.538
385.230, 629.271
386.580, 753.954
387.929, 588.551
389.279, 832.934
390.628, 927.058
391.977, 1060.841
393.325, 1304.319
394.674, 1747.596
396.022, 2140.682
397.370, 2473.532
398.718, 2702.674
400.065, 2827.640
401.413, 2931.254
402.760, 2793.561
404.106, 2645.691
405.453, 2367.736
406.799, 2099.746
408.146, 1611.733
409.491, 1523.700
410.837, 975.646
412.182, 907.569
413.528, 669.471
414.873, 551.350
416.217, 793.208
417.562, 545.043
418.906, 756.857
420.250, 968.648
421.594, 1310.419
422.938, 1612.168
424.281, 1793.895
425.624, 2415.600
426.967, 2407.285
428.310, 2658.948
429.652, 2640.592
430.994, 2722.213
432.336, 2743.816
433.678, 2655.396
435.020, 2716.958
436.361, 2838.500
437.702, 2990.021
439.043, 2831.523
440.383, 2553.006
441.724, 2744.470
443.064, 2285.914
444.404, 2117.340
445.743, 2078.746
447.083, 1680.134
448.422, 1751.500
449.761, 1602.840
451.100, 1544.149
452.438, 1625.428
453.777, 1746.674
455.115, 1917.883
456.453, 1979.055
457.790, 2230.190
459.128, 2471.285
460.465, 2482.340
461.802, 2593.357
463.139, 2544.331
464.475, 2755.264
465.811, 2936.155
467.147, 3187.005
468.483, 3846.299
469.819, 4345.461
471.154, 5141.309
472.489, 5741.023
473.824, 6664.649
475.159, 7396.221
476.493, 8625.109
477.827, 9856.192
479.161, 11515.813
480.495, 13506.838
481.829, 15437.727
483.162, 17858.070
484.495, 19348.373
485.828, 19478.510
487.161, 19998.555
488.493, 18144.480
489.825, 16642.779
491.157, 16152.142
492.489, 15659.567
493.820, 16632.717
495.151, 18284.123
496.482, 20812.238
497.813, 24314.809
499.144, 28440.547
500.474, 32540.244
501.804, 35280.344
503.134, 35999.969
504.464, 36791.621
505.793, 34109.020
507.123, 31610.336
508.451, 27386.254
509.780, 25021.428
511.109, 22387.061
512.437, 19970.598
513.765, 18103.262
515.093, 15804.453
516.421, 14163.492
517.748, 12360.902
519.075, 11179.412
520.402, 10596.406
521.729, 10006.869
523.055, 10445.709
524.382, 9554.180
525.708, 8963.689
527.034, 8743.760
528.359, 7423.830
529.685, 6653.906
531.010, 5663.990
532.335, 5214.084
533.659, 4624.184
534.984, 4044.285
536.308, 3784.377
537.632, 3674.451
538.956, 3494.506
540.279, 3844.537
541.603, 3594.547
542.926, 4134.535
544.249, 4194.504
545.571, 4924.449
546.894, 5364.371
548.216, 6094.271
549.538, 7754.154
550.860, 8304.014
552.181, 9813.855
553.503, 10433.684
554.824, 11563.492
556.145, 12213.281
557.465, 11953.062
558.786, 11532.826
560.106, 11312.572
561.426, 10142.309
562.746, 9482.031
564.065, 8231.742
565.385, 7341.439
566.704, 6221.125
568.023, 5390.797
569.341, 4630.457
570.660, 3950.107
571.978, 3189.742
573.296, 2769.365
574.614, 2238.979
575.931, 2138.578
577.248, 1798.162
578.565, 1487.736
579.882, 1347.297
581.199, 1193.018
582.515, 1116.383
583.831, 1115.906
585.147, 1045.418
586.463, 1104.916
587.779, 1194.400
589.094, 1153.873
590.409, 1203.334
591.724, 1274.201
593.038, 1122.215
594.353, 1401.637
595.667, 1401.045
596.981, 1410.441
598.295, 1359.826
599.608, 1069.195
600.922, 1158.551
602.235, 1037.895
603.547, 757.225
604.860, 706.543
606.172, 485.848
607.485, 405.137
608.797, 304.414
610.108, 253.678
611.420, 262.930
612.731, 352.168
614.042, 471.395
615.353, 400.605
616.664, 769.805
617.974, 828.988
619.284, 898.160
620.594, 1207.322
621.904, 836.469
623.213, 1115.604
624.523, 1114.725
625.832, 743.834
627.141, 702.938
628.449, 332.039
629.758, 311.148
631.066, 360.252
632.374, 199.375
633.681, 148.525
634.989, 52.283
636.296, 136.881
637.603, 13.967
638.910, 15.168
640.217, 304.283
641.523, 153.389
642.829, 102.586
644.135, 91.668
645.441, 0.994
646.747, 290.527
648.052, 29.846
649.357, 48.623
650.662, 21.277
651.967, 248.865
653.271, 64.799
654.575, 230.645
655.879, 99.854
657.183, 83.693
658.486, 172.605
659.790, 118.154
661.093, 87.764
662.396, 4.896
663.698, 325.146
665.001, 214.545
666.303, 674.201
667.605, 661.611
668.907, 839.148
670.209, 1148.793
671.510, 1186.195
672.811, 1830.074
674.112, 1846.131
675.413, 2556.145
676.713, 2895.777
678.013, 3028.777
679.313, 3477.057
680.613, 3549.324
681.913, 3909.365
683.212, 3280.199
684.511, 2784.363
685.810, 2730.639
687.109, 2357.324
688.407, 1994.367
689.706, 1930.717
691.004, 1605.000
692.302, 1478.342
693.599, 1218.312
694.897, 1098.145
696.194, 987.914
697.491, 827.447
698.788, 1126.977
700.084, 516.205
701.380, 915.410
702.677, 674.590
703.972, 624.021
705.268, 733.152
706.564, 522.268
707.859, 451.346
709.154, 580.404
710.449, 609.725
711.743, 738.732
713.037, 667.713
714.332, 596.672
715.626, 695.605
716.919, 684.514
718.213, 543.396
719.506, 792.254
720.799, 561.090
722.092, 799.898
723.384, 628.682
724.677, 977.441
725.969, 706.180
727.261, 924.889
728.553, 1153.576
729.844, 1022.238
731.136, 1350.875
732.427, 1619.486
733.718, 1428.072
735.008, 2396.637
736.299, 2195.176
737.589, 2513.688
738.879, 2782.178
740.169, 3160.643
741.458, 3169.084
742.748, 3027.500
744.037, 3175.893
745.326, 2764.260
746.614, 2652.604
747.903, 2540.922
749.191, 2209.217
750.479, 2387.486
751.767, 2165.732
753.055, 2533.957
754.342, 2562.156
755.629, 2340.332
756.916, 3398.484
758.203, 4516.611
759.490, 4174.719
760.776, 3972.797
762.062, 3960.855
763.348, 3788.889
764.634, 3496.898
765.919, 3164.885
767.204, 3542.848
768.489, 3180.789
769.774, 2838.707
771.059, 3096.602
772.343, 2564.471
773.627, 2362.318
774.911, 2060.143
776.195, 1847.943
777.479, 1725.721
778.762, 1273.477
780.045, 1251.209
781.328, 968.920
782.611, 846.609
783.893, 964.271
785.175, 661.914
786.457, 799.531
787.739, 437.129
789.021, 754.703
790.302, 450.012
791.583, 277.539
792.864, 534.176
794.145, 341.152
795.425, 308.611
796.706, 246.047
797.986, 283.330
799.266, 207.543
800.545, 158.705
801.825, 144.652
803.104, 50.713
804.383, 95.959
805.662, 112.742
806.940, 4.619
808.219, 17.758
809.497, 124.299
810.775, 53.047
812.053, 28.973
813.330, 134.646
814.608, 28.129
815.885, 327.021
817.162, 38.564
818.438, 184.941
819.715, 121.295
820.991, 402.377
822.267, 86.309
823.543, 120.336
824.818, 84.475
826.094, 28.709
827.369, 223.006
828.644, 62.531
829.919, 121.957
831.193, 16.559
832.468, 101.217
833.742, 165.975
835.016, 59.137
836.289, 14.221
837.563, 40.732
838.836, 75.750
840.109, 83.699
841.382, 90.859
842.654, 81.314
843.927, 49.865
845.199, 36.494
846.471, 22.412
847.743, 26.898
849.014, 31.359
850.286, 78.838
851.557, 70.217
852.828, 204.613
854.099, 228.994
855.369, 283.355
856.639, 57.701
857.909, 312.025
859.179, 116.334
860.449, 380.625
861.718, 484.902
862.988, 39.160
864.257, 463.402
865.525, 327.627
866.794, 421.838
868.062, 456.053
869.331, 570.256
870.599, 584.443
871.866, 718.619
873.134, 502.779
874.401, 916.926
875.668, 561.068
876.935, 1085.197
878.202, 789.326
879.468, 713.441
880.735, 1377.541
882.001, 831.631
883.267, 1225.711
884.532, 1319.783
885.798, 1473.848
887.063, 1727.900
888.328, 1581.947
889.593, 1845.984
890.857, 2070.012
892.122, 2074.031
893.386, 2598.039
894.650, 2092.041
895.913, 2176.062
897.177, 2530.074
898.440, 2264.105
899.703, 2638.129
900.966, 2632.178
902.229, 2356.221
903.491, 2440.256
904.754, 2614.297
906.016, 2498.332
907.278, 2502.359
908.539, 2446.404
909.801, 3020.443
911.062, 2564.477
912.323, 2688.506
913.584, 2802.529
914.844, 2486.551
916.105, 2950.566
917.365, 2384.580
918.625, 2298.588
919.885, 2722.594
921.144, 2316.600
922.404, 2750.604
923.663, 2514.602
924.922, 2818.602
926.180, 2992.598
927.439, 2876.598
928.697, 3310.594
929.955, 3824.590
931.213, 3568.586
932.471, 4042.582
933.728, 4076.578
934.985, 4590.576
936.242, 4324.578
937.499, 4598.578
938.756, 4932.580
940.012, 4646.586
941.269, 5000.594
942.525, 4914.617
943.780, 4708.645
945.036, 4962.680
946.291, 4986.715
947.546, 5160.758
948.801, 5384.703
950.056, 5578.758
951.311, 5592.559
952.565, 6206.164
953.819, 5879.723
955.073, 6211.727
956.327, 5725.098
957.580, 5778.578
958.834, 5628.281
960.087, 5597.186
961.339, 5579.877
962.592, 5457.256
963.845, 5199.748
965.097, 5742.562
966.349, 5522.098
967.601, 6083.086
968.852, 6616.535
970.104, 6140.916
971.355, 7405.055
972.606, 7121.506
973.857, 7537.848
975.107, 7622.121
976.358, 7018.703
977.608, 7728.852
978.858, 7126.875
980.108, 6920.957
981.357, 6625.471
982.607, 6236.688
983.856, 5812.668
985.105, 5954.670
986.353, 4978.936
987.602, 5392.395
988.850, 4962.516
990.098, 4430.523
991.346, 4628.117
992.594, 4235.352
993.841, 4493.279
995.089, 4183.275
996.336, 4104.207
997.583, 4468.516
998.829, 3772.959
1000.076, 4067.465
1001.322, 4242.229
1002.568, 4086.973
1003.814, 4162.023
1005.060, 3677.102
1006.305, 3782.207
1007.550, 3477.277
1008.795, 3482.438
1010.040, 3407.619
1011.285, 3282.836
1012.529, 3028.082
1013.773, 3413.068
1015.017, 2778.375
1016.261, 3143.711
1017.505, 2944.035
1018.748, 2729.434
1019.991, 3014.865
1021.234, 2390.525
1022.477, 2446.020
1023.719, 2461.545
1024.962, 2049.121
1026.204, 2554.713
1027.446, 2012.676
1028.688, 1968.338
1029.929, 2184.029
1031.170, 2019.754
1032.411, 2165.516
1033.652, 2112.914
1034.893, 1848.750
1036.134, 2334.619
1037.374, 1792.053
1038.614, 2117.998
1039.854, 2153.980
1041.094, 2080.000
1042.333, 2366.061
1043.572, 2672.158
1044.811, 2305.102
1046.050, 2181.281
1047.289, 2053.740
1048.527, 2590.002
1049.766, 2323.975
1051.004, 2240.318
1052.241, 2656.707
1053.479, 1975.904
1054.717, 2182.381
1055.954, 2358.898
1057.191, 2200.322
1058.428, 1916.930
1059.664, 2073.580
1060.901, 1970.281
1062.137, 2217.023
1063.373, 1803.816
1064.609, 2130.654
1065.844, 2057.541
1067.080, 1564.479
1068.315, 2121.463
1069.550, 1958.496
1070.785, 2035.582
1072.019, 2212.715
1073.254, 1899.902
1074.488, 2167.141
1075.722, 2194.434
1076.955, 1701.727
1078.189, 2119.072
1079.422, 1756.471
1080.656, 1823.898
1081.889, 1881.352
1083.121, 1378.863
1084.354, 1756.432
1085.586, 1484.031
1086.818, 1241.668
1088.050, 1679.365
1089.282, 1047.121
1090.514, 1125.020
1091.745, 1062.703
1092.976, 1110.324
1094.207, 1207.996
1095.438, 745.676
1096.668, 794.162
1097.899, 1131.861
1099.129, 659.609
1100.359, 877.617
1101.588, 965.467
1102.818, 553.365
1104.047, 1051.320
1105.276, 739.326
1106.505, 1037.379
1107.734, 955.502
1108.962, 703.697
1110.191, 821.990
1111.419, 600.359
1112.647, 708.785
1113.874, 957.307
1115.102, 695.912
1116.329, 964.652
1117.556, 1113.666
1118.783, 962.545
1120.010, 1192.064
1121.236, 1021.213
1122.463, 1150.482
1123.689, 1309.949
1124.914, 1019.484
1126.140, 929.148
1127.366, 1398.986
1128.591, 758.904
1129.816, 1330.242
1131.041, 760.498
1132.266, 770.969
1133.490, 1165.895
1134.714, 581.504
1135.938, 810.025
1137.162, 1038.730
1138.386, 347.639
1139.609, 1036.721
1140.833, 565.908
1142.056, 455.178
1143.279, 1014.527
1144.501, 93.951
1145.724, 923.453
1146.946, 593.031
1148.168, 2.691
1149.390, 722.432
1150.612, 212.203
1151.833, 542.053
1153.054, 621.982
1154.275, 18.025
1155.496, 622.023
1156.717, 382.154
1157.937, 212.355
1159.158, 392.637
1160.378, 382.984
1161.598, 143.420
1162.817, 603.943
1164.037, 165.523
1165.256, 515.023
1166.475, 345.570
1167.694, 13.814
1168.913, 626.873
1170.131, 237.584
1171.349, 81.617
1172.567, 579.264
1173.785, 89.770
1175.003, 401.287
1176.220, 162.428
1177.438, 53.650
1178.655, 454.961
1179.872, 63.641
1181.088, 177.848
1182.305, 299.426
1183.521, 58.904
1184.737, 532.852
1185.953, 114.703
1187.169, 76.652
1188.384, 488.697
1189.599, 40.836
1190.814, 176.920
1192.029, 415.432
1193.244, 162.107
1194.459, 130.463
1195.673, 186.857
1196.887, 155.930
1198.101, 378.828
1199.314, 78.168
1200.528, 14.936
1201.741, 728.137
1202.954, 118.562
1204.167, 34.828
1205.380, 478.295
1206.592, 101.834
1207.805, 605.412
1209.017, 129.164
1210.229, 133.066
1211.440, 507.115
1212.652, 61.309
1213.863, 505.652
1215.074, 260.102
1216.285, 264.746
1217.496, 549.047
1218.707, 54.000
1219.917, 549.113
1221.127, 614.391
1222.337, 77.369
1223.547, 752.723
1224.756, 327.732
1225.966, 288.012
1227.175, 667.336
1228.384, 113.113
1229.592, 159.066
1230.801, 900.477
1232.009, 492.053
1233.217, 538.311
1234.425, 544.742
1235.633, 69.074
1236.841, 884.234
1238.048, 93.369
1239.255, 258.391
1240.462, 823.291
1241.669, 20.348
1242.876, 473.863
1244.082, 528.043
1245.288, 52.164
1246.494, 596.201
1247.700, 210.125
1248.906, 223.906
1250.111, 747.494
1251.316, 231.107
1252.521, 554.750
1253.726, 538.541
1254.931, 262.168
1256.135, 895.805
1257.339, 389.139
1258.543, 262.689
1259.747, 829.480
1260.951, 491.207
1262.154, 159.963
1263.357, 797.322
1264.560, 97.025
1265.763, 537.533
1266.966, 539.062
1268.168, 261.922
1269.371, 866.627
1270.573, 433.574
1271.775, 629.547
1272.976, 869.127
1274.178, 120.002
1275.379, 1125.047
1276.580, 525.809
1277.781, 2.854
1278.982, 0.000
##END=



