##NAMES=Anorthite
##RRUFFID=R050104
##IDEAL CHEMISTRY=CaAl_2_Si_2_O_8_
##LOCALITY=unknown
##OWNER=RRUFF
##SOURCE=Rock Currier
##DESCRIPTION=Iridescent slab, labradorite/andesine
##STATUS=The identification of this mineral has been confirmed by X-ray diffraction and chemical analysis
##URL=rruff.info/R050104
##MEASURED CHEMISTRY=Ca_0.50_Na_0.47_K_0.03_Al_1.50_Si_2.50_O_8_
##PIN_ID=L00427
##ORIENTATION=Laser parallel to -a* (-1 0 0). Fiducial mark perpendicular to laser is parallel to b [0 1 0]
135.777, 0.000
137.164, 1.349
138.550, 129.928
139.937, 65.082
141.323, 13.261
142.709, 178.796
144.094, 61.685
145.480, 218.571
146.865, 260.133
148.250, 300.989
149.635, 222.751
151.019, 242.619
152.403, 128.515
153.788, 181.334
155.171, 145.938
156.555, 157.180
157.939, 74.932
159.322, 8.869
160.705, 20.220
162.088, 7.874
163.470, 56.373
164.853, 50.263
166.235, 90.701
167.617, 120.720
168.998, 322.186
170.380, 379.958
171.761, 640.924
173.142, 910.994
174.523, 1295.096
175.904, 1517.173
177.284, 1815.182
178.664, 2316.098
180.044, 2486.971
181.424, 2932.004
182.803, 3171.480
184.183, 3391.245
185.562, 3602.267
186.940, 3765.562
188.319, 3891.755
189.698, 3965.714
191.076, 4004.220
192.454, 4035.915
193.831, 4056.984
195.209, 4073.178
196.586, 4043.523
197.963, 4120.011
199.340, 4063.881
200.717, 3951.831
202.093, 3861.895
203.470, 3693.408
204.846, 3498.400
206.221, 3139.899
207.597, 2934.927
208.972, 2604.504
210.347, 2383.651
211.722, 2067.389
213.097, 1698.729
214.472, 1476.690
215.846, 1239.290
217.220, 1148.538
218.594, 771.488
219.967, 670.261
221.341, 589.874
222.714, 402.863
224.087, 369.218
225.460, 307.105
226.832, 263.888
228.204, 252.804
229.577, 204.105
230.948, 227.392
232.320, 226.955
233.692, 220.076
235.063, 312.956
236.434, 287.617
237.805, 406.650
239.175, 506.023
240.545, 568.311
241.916, 635.136
243.286, 680.062
244.655, 711.004
246.025, 779.768
247.394, 892.890
248.763, 1060.857
250.132, 1084.458
251.501, 1135.953
252.869, 1315.504
254.237, 1361.227
255.605, 1536.273
256.973, 1534.999
258.340, 1549.500
259.708, 1736.937
261.075, 1779.952
262.442, 1910.027
263.808, 1952.805
265.175, 2101.169
266.541, 2151.102
267.907, 2224.991
269.273, 2473.834
270.639, 2527.627
272.004, 2703.371
273.369, 2859.062
274.734, 3041.700
276.099, 3091.282
277.463, 3195.796
278.828, 3268.242
280.192, 3383.616
281.556, 3566.914
282.919, 3501.141
284.283, 3549.294
285.646, 3532.378
287.009, 3450.391
288.372, 3350.335
289.734, 3120.211
291.097, 2938.020
292.459, 2671.762
293.821, 2401.440
295.183, 2189.052
296.544, 1807.601
297.905, 1632.087
299.266, 1354.511
300.627, 1242.507
301.988, 978.323
303.348, 789.409
304.709, 705.565
306.069, 499.768
307.428, 480.994
308.788, 378.233
310.147, 294.475
311.507, 209.710
312.865, 150.911
314.224, 169.090
315.583, 131.244
316.941, 117.364
318.299, 74.448
319.657, 3.512
321.015, 80.469
322.372, 42.401
323.729, 111.204
325.086, 69.793
326.443, 104.562
327.800, 6.275
329.156, 51.919
330.512, 73.501
331.868, 111.018
333.224, 60.471
334.579, 76.854
335.935, 29.168
337.290, 107.408
338.645, 18.420
339.999, 42.666
341.354, 26.691
342.708, 125.646
344.062, 45.545
345.416, 62.373
346.769, 180.134
348.123, 99.839
349.476, 101.479
350.829, 253.052
352.182, 183.554
353.534, 187.998
354.887, 84.364
356.239, 58.649
357.591, 38.846
358.942, 3.053
360.294, 19.063
361.645, 132.191
362.996, 90.466
364.347, 130.873
365.698, 167.423
367.048, 122.122
368.398, 130.956
369.748, 188.926
371.098, 180.045
372.448, 139.308
373.797, 59.703
375.146, 98.209
376.495, 0.168
377.844, 74.545
379.192, 81.633
380.540, 26.735
381.889, 34.758
383.236, 27.703
384.584, 128.569
385.932, 270.364
387.279, 256.083
388.626, 322.716
389.973, 429.263
391.319, 482.697
392.666, 523.036
394.012, 570.290
395.358, 715.442
396.704, 816.507
398.049, 880.487
399.394, 1243.376
400.740, 1324.159
402.084, 1671.846
403.429, 1827.452
404.774, 2074.984
406.118, 2229.440
407.462, 2296.835
408.806, 2367.159
410.150, 2300.398
411.493, 2243.517
412.836, 2061.441
414.179, 1920.147
415.522, 1766.655
416.865, 1522.925
418.207, 1487.025
419.549, 1360.993
420.891, 1367.856
422.233, 1270.646
423.575, 1331.370
424.916, 1147.053
426.257, 1223.699
427.598, 1190.314
428.939, 1188.902
430.279, 1264.460
431.619, 1410.989
432.959, 1387.491
434.299, 1452.965
435.639, 1504.410
436.978, 1708.827
438.318, 1729.217
439.657, 1877.579
440.996, 2008.914
442.334, 2068.221
443.673, 2248.501
445.011, 2425.756
446.349, 2428.983
447.687, 2568.185
449.024, 2658.360
450.361, 2757.510
451.699, 2880.635
453.036, 2952.734
454.372, 3274.809
455.709, 3336.859
457.045, 3623.884
458.381, 3882.884
459.717, 4003.861
461.053, 4489.812
462.388, 4739.723
463.724, 5160.589
465.059, 5668.414
466.394, 6318.193
467.728, 7255.930
469.063, 7993.622
470.397, 9116.989
471.731, 10482.951
473.065, 11968.507
474.398, 13724.646
475.732, 15183.884
477.065, 16842.742
478.398, 17973.434
479.731, 18709.584
481.063, 18829.039
482.396, 18778.145
483.728, 17832.703
485.060, 16423.057
486.391, 15188.047
487.723, 13789.430
489.054, 12668.602
490.385, 11968.580
491.716, 11292.551
493.047, 11608.343
494.377, 11885.073
495.708, 12903.097
497.038, 14289.218
498.368, 15959.703
499.697, 18176.039
501.027, 20491.932
502.356, 23131.951
503.685, 25466.410
505.014, 27585.363
506.342, 29433.402
507.671, 30210.273
508.999, 30939.908
510.327, 30811.049
511.655, 29744.361
512.982, 28137.246
514.310, 25542.303
515.637, 23173.455
516.964, 20337.209
518.291, 18011.674
519.617, 15488.861
520.944, 13501.609
522.270, 12163.127
523.596, 10542.322
524.921, 9195.812
526.247, 8145.968
527.572, 7161.946
528.897, 6222.342
530.222, 5497.084
531.547, 4736.352
532.871, 4297.175
534.196, 3869.991
535.520, 3628.393
536.844, 3285.960
538.167, 3137.838
539.491, 2985.142
540.814, 2880.066
542.137, 2762.291
543.460, 2665.267
544.783, 2797.103
546.105, 2668.853
547.427, 2680.529
548.749, 2680.484
550.071, 2581.906
551.393, 2690.566
552.714, 2738.382
554.035, 2641.271
555.356, 2872.177
556.677, 2789.078
557.998, 3041.000
559.318, 3266.920
560.638, 3531.818
561.958, 3846.695
563.278, 4167.586
564.597, 4294.458
565.917, 4482.345
567.236, 4322.232
568.555, 4426.115
569.874, 3979.989
571.192, 3732.845
572.511, 3314.690
573.829, 2838.517
575.147, 2507.328
576.464, 2102.121
577.782, 1966.900
579.099, 1735.664
580.416, 1553.411
581.733, 1379.145
583.050, 1265.864
584.366, 1155.568
585.683, 1047.915
586.999, 984.931
588.315, 931.590
589.630, 913.234
590.946, 887.638
592.261, 911.477
593.576, 889.075
594.891, 828.660
596.206, 853.229
597.520, 808.783
598.834, 747.322
600.148, 793.847
601.462, 780.355
602.776, 780.850
604.089, 637.330
605.402, 632.794
606.715, 573.245
608.028, 570.679
609.341, 499.099
610.653, 482.504
611.965, 390.895
613.277, 365.270
614.589, 315.630
615.901, 324.975
617.212, 335.306
618.523, 313.622
619.834, 300.922
621.145, 251.208
622.456, 369.479
623.766, 290.735
625.076, 405.977
626.386, 403.204
627.696, 365.417
629.006, 391.616
630.315, 321.804
631.624, 310.982
632.933, 353.152
634.242, 293.312
635.551, 346.465
636.859, 298.612
638.167, 255.754
639.475, 273.904
640.783, 134.049
642.090, 183.192
643.398, 128.329
644.705, 125.460
646.012, 55.584
647.318, 8.710
648.625, 87.829
649.931, 2.058
651.237, 63.042
652.543, 42.136
653.849, 0.777
655.155, 1.305
656.460, 1.375
657.765, 75.547
659.070, 45.499
660.375, 63.467
661.679, 30.465
662.984, 51.477
664.288, 86.511
665.592, 55.586
666.895, 67.688
668.199, 16.820
669.502, 89.964
670.805, 105.481
672.108, 70.600
673.411, 47.144
674.713, 1.492
676.016, 40.329
677.318, 130.770
678.620, 149.837
679.921, 127.022
681.223, 242.325
682.524, 258.188
683.825, 188.294
685.126, 334.381
686.427, 327.536
687.727, 343.685
689.028, 405.314
690.328, 318.568
691.628, 302.002
692.927, 484.112
694.227, 424.334
695.526, 397.598
696.825, 446.814
698.124, 434.609
699.423, 460.205
700.721, 476.604
702.020, 489.263
703.318, 520.124
704.616, 538.334
705.913, 594.303
707.211, 631.130
708.508, 666.780
709.805, 728.480
711.102, 789.368
712.399, 830.171
713.695, 772.866
714.992, 968.855
716.288, 872.197
717.584, 938.348
718.879, 896.427
720.175, 920.146
721.470, 942.058
722.765, 889.347
724.060, 954.834
725.355, 1006.771
726.649, 1011.425
727.944, 1066.093
729.238, 1086.131
730.532, 1171.322
731.825, 1174.305
733.119, 1177.412
734.412, 1301.460
735.705, 1393.277
736.998, 1352.139
738.291, 1517.124
739.584, 1663.872
740.876, 1669.597
742.168, 1805.301
743.460, 1763.980
744.752, 1863.637
746.043, 1866.271
747.334, 2032.883
748.626, 2075.471
749.916, 1996.036
751.207, 2011.579
752.498, 1961.098
753.788, 2135.594
755.078, 2191.067
756.368, 2197.518
757.658, 2165.945
758.947, 2350.349
760.237, 2283.729
761.526, 2372.088
762.815, 2584.423
764.104, 2474.735
765.392, 2460.024
766.680, 2616.290
767.969, 2646.532
769.257, 2621.752
770.544, 2740.949
771.832, 2620.122
773.119, 2733.273
774.406, 2576.400
775.693, 2772.505
776.980, 2640.842
778.267, 2539.645
779.553, 2474.680
780.839, 2476.692
782.125, 2421.682
783.411, 2437.895
784.697, 2526.591
785.982, 2479.512
787.267, 2585.409
788.552, 2620.283
789.837, 2723.134
791.122, 2940.963
792.406, 2959.768
793.690, 3002.551
794.974, 2943.310
796.258, 3226.871
797.542, 2972.950
798.825, 2834.328
800.108, 2639.544
801.391, 2300.697
802.674, 2202.632
803.957, 1993.879
805.239, 1777.675
806.522, 1626.777
807.804, 1485.772
809.085, 1407.524
810.367, 1312.281
811.649, 1181.485
812.930, 1022.160
814.211, 919.577
815.492, 789.227
816.772, 632.135
818.053, 561.248
819.333, 378.712
820.613, 331.608
821.893, 259.951
823.173, 256.158
824.452, 101.350
825.732, 177.329
827.011, 74.141
828.290, 115.830
829.568, 37.759
830.847, 57.799
832.125, 24.710
833.403, 2.668
834.681, 30.517
835.959, 9.375
837.236, 41.775
838.514, 8.995
839.791, 41.266
841.068, 32.395
842.345, 78.979
843.621, 56.441
844.898, 74.980
846.174, 21.608
847.450, 55.295
848.726, 34.941
850.001, 38.145
851.277, 48.685
852.552, 77.587
853.827, 31.578
855.102, 3.367
856.376, 3.733
857.651, 54.882
858.925, 138.107
860.199, 110.451
861.473, 2.899
862.746, 67.394
864.020, 102.971
865.293, 38.647
866.566, 117.388
867.839, 43.235
869.112, 177.850
870.384, 216.910
871.656, 95.052
872.928, 67.893
874.200, 94.190
875.472, 53.365
876.744, 25.609
878.015, 1.909
879.286, 48.750
880.557, 0.381
881.828, 190.973
883.098, 128.443
884.369, 180.088
885.639, 143.612
886.909, 150.112
888.178, 229.589
889.448, 180.046
890.717, 143.482
891.987, 215.896
893.256, 332.290
894.524, 308.663
895.793, 349.016
897.061, 427.350
898.330, 354.665
899.598, 417.960
900.865, 515.236
902.133, 394.493
903.401, 550.731
904.668, 584.951
905.935, 613.152
907.202, 685.339
908.468, 663.507
909.735, 729.657
911.001, 708.793
912.267, 762.912
913.533, 768.020
914.799, 787.111
916.064, 805.186
917.330, 901.249
918.595, 891.295
919.860, 836.325
921.124, 941.346
922.389, 844.350
923.653, 912.337
924.918, 898.311
926.182, 984.268
927.445, 1010.209
928.709, 996.142
929.972, 1105.060
931.236, 1064.970
932.499, 1059.865
933.761, 1179.747
935.024, 1133.615
936.286, 1191.470
937.549, 1239.329
938.811, 1237.176
940.073, 1211.010
941.334, 1261.848
942.596, 1269.646
943.857, 1328.444
945.118, 1394.231
946.379, 1436.006
947.640, 1462.202
948.900, 1415.521
950.161, 1465.262
951.421, 1494.995
952.681, 1441.718
953.940, 1600.464
955.200, 1595.204
956.459, 1647.935
957.719, 1771.659
958.978, 1881.375
960.236, 1822.085
961.495, 1961.788
962.753, 1848.486
964.012, 2231.180
965.270, 2246.879
966.527, 2254.579
967.785, 2465.284
969.043, 2444.988
970.300, 2636.695
971.557, 2515.414
972.814, 2718.139
974.071, 3018.870
975.327, 2928.593
976.583, 3155.695
977.840, 3023.109
979.095, 3144.089
980.351, 3117.239
981.607, 3190.094
982.862, 3305.998
984.117, 3036.454
985.372, 3102.832
986.627, 3039.121
987.882, 3052.891
989.136, 3068.468
990.390, 2904.103
991.644, 2842.711
992.898, 2825.382
994.152, 2738.818
995.405, 2756.296
996.659, 2710.805
997.912, 2732.674
999.165, 2830.438
1000.417, 2721.190
1001.670, 2688.984
1002.922, 2761.202
1004.174, 2507.621
1005.426, 2747.944
1006.678, 2628.480
1007.930, 2573.591
1009.181, 2668.512
1010.432, 2589.232
1011.683, 2730.719
1012.934, 2629.986
1014.185, 2629.235
1015.435, 2699.279
1016.685, 2631.392
1017.935, 2586.595
1019.185, 2738.487
1020.435, 2729.014
1021.684, 2864.715
1022.934, 2734.473
1024.183, 2603.577
1025.432, 2773.477
1026.680, 2657.983
1027.929, 2745.279
1029.177, 2731.113
1030.425, 2741.216
1031.673, 2759.292
1032.921, 2683.025
1034.169, 2683.435
1035.416, 2814.238
1036.663, 2589.828
1037.911, 2670.463
1039.157, 2580.320
1040.404, 2537.122
1041.650, 2583.789
1042.897, 2473.681
1044.143, 2563.587
1045.389, 2533.506
1046.634, 2501.437
1047.880, 2487.383
1049.125, 2563.342
1050.371, 2510.214
1051.615, 2522.321
1052.860, 2467.321
1054.105, 2459.337
1055.349, 2427.367
1056.593, 2429.099
1057.837, 2427.159
1059.081, 2295.236
1060.325, 2375.900
1061.568, 2336.008
1062.812, 2399.745
1064.055, 2430.887
1065.298, 2395.372
1066.540, 2424.966
1067.783, 2422.508
1069.025, 2415.718
1070.267, 2309.245
1071.509, 2304.490
1072.751, 2298.755
1073.993, 2340.038
1075.234, 2312.340
1076.475, 2372.662
1077.716, 2352.266
1078.957, 2292.628
1080.198, 2257.337
1081.438, 2219.740
1082.679, 2292.426
1083.919, 2337.872
1085.159, 2274.339
1086.398, 2260.098
1087.638, 2220.609
1088.877, 2095.143
1090.116, 2268.480
1091.355, 2234.061
1092.594, 2023.664
1093.833, 2136.291
1095.071, 1978.943
1096.309, 1962.622
1097.547, 2131.325
1098.785, 1837.055
1100.023, 1940.272
1101.260, 1896.054
1102.498, 1796.508
1103.735, 1963.344
1104.972, 1847.208
1106.208, 1767.105
1107.445, 1750.025
1108.681, 1775.976
1109.918, 1768.954
1111.154, 1749.164
1112.389, 1714.364
1113.625, 1707.005
1114.860, 1553.060
1116.096, 1531.133
1117.331, 1339.217
1118.566, 1312.333
1119.800, 1342.161
1121.035, 1329.318
1122.269, 1306.895
1123.503, 1339.676
1124.737, 1258.897
1125.971, 1227.080
1127.205, 1210.277
1128.438, 1103.507
1129.671, 1104.768
1130.904, 1019.078
1132.137, 1046.409
1133.370, 897.616
1134.602, 983.855
1135.834, 951.135
1137.066, 1047.441
1138.298, 733.789
1139.530, 829.169
1140.762, 867.590
1141.993, 543.009
1143.224, 899.973
1144.455, 729.479
1145.686, 655.032
1146.917, 578.638
1148.147, 493.940
1149.377, 737.910
1150.607, 456.587
1151.837, 509.311
1153.067, 654.092
1154.296, 530.884
1155.526, 551.741
1156.755, 491.607
1157.984, 548.526
1159.213, 570.953
1160.441, 473.025
1161.670, 413.722
1162.898, 499.928
1164.126, 326.331
1165.354, 510.891
1166.581, 330.506
1167.809, 291.229
1169.036, 304.085
1170.263, 208.048
1171.490, 256.266
1172.717, 270.153
1173.943, 290.273
1175.170, 386.437
1176.396, 354.644
1177.622, 224.892
1178.848, 311.183
1180.073, 299.515
1181.299, 249.891
1182.524, 302.309
1183.749, 156.768
1184.974, 391.268
1186.199, 218.804
1187.423, 119.368
1188.648, 325.970
1189.872, 70.611
1191.096, 179.285
1192.320, 252.004
1193.543, 114.771
1194.767, 215.571
1195.990, 67.400
1197.213, 0.725
1198.436, 97.173
1199.659, 60.093
1200.881, 156.050
1202.104, 65.055
1203.326, 34.892
1204.548, 174.211
1205.770, 11.354
1206.991, 29.548
1208.213, 121.598
1209.434, 58.210
1210.655, 47.028
1211.876, 18.686
1213.096, 33.352
1214.317, 52.030
1215.537, 90.454
1216.757, 46.074
1217.977, 17.447
1219.197, 22.023
1220.417, 62.652
1221.636, 36.336
1222.855, 72.076
1224.074, 40.126
1225.293, 96.731
1226.512, 39.356
1227.731, 108.608
1228.949, 9.366
1230.167, 61.718
1231.385, 119.861
1232.603, 84.938
1233.820, 49.322
1235.038, 199.617
1236.255, 18.019
1237.472, 110.435
1238.689, 114.970
1239.906, 169.585
1241.122, 96.276
1242.338, 115.045
1243.555, 72.892
1244.771, 157.815
1245.986, 0.183
1247.202, 350.900
1248.417, 114.936
1249.633, 127.311
1250.848, 214.640
1252.063, 39.056
1253.277, 238.508
1254.492, 220.101
1255.706, 58.784
1256.920, 226.634
1258.134, 272.819
1259.348, 131.952
1260.562, 155.829
1261.775, 130.387
1262.988, 230.220
1264.201, 226.174
1265.414, 17.219
1266.627, 333.983
1267.839, 189.349
1269.052, 136.422
1270.264, 374.500
1271.476, 127.924
1272.688, 240.414
1273.899, 378.980
1275.111, 141.556
1276.322, 491.127
1277.533, 205.504
1278.744, 94.640
1279.955, 261.412
1281.165, 125.930
1282.376, 170.195
1283.586, 279.278
1284.796, 83.327
1286.006, 230.270
1287.215, 123.227
1288.425, 2.471
1289.634, 264.348
1290.843, 167.863
1292.052, 73.918
1293.261, 305.367
1294.469, 134.470
1295.678, 136.525
1296.886, 239.602
1298.094, 105.071
1299.302, 373.332
1300.509, 91.566
1301.717, 122.630
1302.924, 256.690
1304.131, 2.329
1305.338, 314.099
1306.545, 50.110
1307.752, 0.000
##END=



