##NAMES=Augite
##RRUFFID=R070231
##IDEAL CHEMISTRY=(Ca,Mg,Fe^2+^,Fe^3+^)_2_(Si,Al)_2_O_6_
##LOCALITY=Old Goose Creek Quarry, Leesburg, Loudoun County, Virginia, USA
##OWNER=RRUFF
##SOURCE=Michael Scott
##DESCRIPTION=Very dark grey-green prismatic crystals frozen in quartz
##STATUS=The identification of this mineral is confirmed by single-crystal X-ray diffraction and chemical analysis.
##URL=rruff.info/R070231
##MEASURED CHEMISTRY=(Mg_0.44_Fe_0.37_Ca_0.17_Ti_0.01_Mn_0.01_)_Σ=1_(Si_0.98_Al_0.02_)_Σ=1_O_3_
##PIN_ID=M00250
##ORIENTATION=Laser parallel to (-1 0 -1). Fiducial mark perpendicular to laser is parallel to b [0 1 0]
143.6600, 0.0000000E+00
144.8940, 47.71680
146.1280, 96.73730
147.3620, 242.3174
148.5960, 110.1475
149.8300, 159.2129
151.0630, 507.3623
152.2960, 240.5137
153.5300, 248.9355
154.7620, 217.6602
155.9950, 94.45508
157.2280, 64.63867
158.4600, 32.64844
159.6920, 46.80273
160.9250, 70.12500
162.1560, 49.26562
163.3880, 135.4912
164.6200, 166.4131
165.8510, 87.50684
167.0820, 233.7725
168.3130, 244.2070
169.5440, 216.8057
170.7750, 478.5645
172.0050, 326.4766
173.2350, 380.5352
174.4650, 417.7832
175.6950, 499.2520
176.9250, 488.7510
178.1550, 654.2266
179.3840, 755.7246
180.6130, 742.3379
181.8420, 897.0986
183.0710, 993.0264
184.3000, 989.1211
185.5280, 1179.357
186.7570, 1189.715
187.9850, 1292.181
189.2130, 1291.750
190.4400, 1220.415
191.6680, 1159.172
192.8960, 1196.017
194.1230, 1113.948
195.3500, 1073.961
196.5770, 951.0508
197.8030, 730.2158
199.0300, 760.4502
200.2560, 704.7520
201.4830, 963.1191
202.7090, 810.5508
203.9340, 664.5957
205.1600, 121.9648
206.3860, 115.6436
207.6110, 14.94629
208.8360, 59.72363
210.0610, 177.0518
211.2860, 182.3311
212.5100, 195.6895
213.7350, 370.2637
214.9590, 433.9004
216.1830, 595.6104
217.4070, 665.5957
218.6310, 848.0967
219.8540, 760.8320
221.0780, 1087.804
222.3010, 1117.871
223.5240, 1100.047
224.7470, 1413.154
225.9690, 1535.142
227.1920, 1404.990
228.4140, 1458.796
229.6360, 1587.570
230.8580, 1647.336
232.0800, 1657.107
233.3020, 1652.403
234.5230, 1480.698
235.7440, 1515.521
236.9650, 1315.365
238.1860, 1174.234
239.4070, 1161.136
240.6280, 1327.064
241.8480, 1264.020
243.0680, 1080.007
244.2880, 1089.021
245.5080, 941.0596
246.7280, 1028.121
247.9470, 1011.199
249.1660, 995.2725
250.3860, 1010.211
251.6040, 943.6182
252.8230, 931.5117
254.0420, 802.6260
255.2600, 650.7607
256.4790, 532.9141
257.6970, 795.0859
258.9150, 571.9570
260.1320, 971.4873
261.3500, 411.7148
262.5670, 169.9609
263.7840, 95.22363
265.0010, 5.503906
266.2180, 18.80078
267.4350, 6.095703
268.6510, 0.4443360
269.8680, 32.78906
271.0840, 62.15039
272.3000, 95.52637
273.5160, 37.08203
274.7310, 75.32422
275.9470, 114.7432
277.1620, 108.1729
278.3770, 237.6025
279.5920, 104.0283
280.8070, 74.45605
282.0210, 254.8818
283.2360, 451.3076
284.4500, 444.7412
285.6640, 391.9580
286.8780, 704.9629
288.0920, 712.7754
289.3050, 900.6484
290.5180, 923.6973
291.7320, 1708.009
292.9450, 1584.379
294.1570, 1771.576
295.3700, 1806.655
296.5830, 1869.737
297.7950, 2117.383
299.0070, 2256.797
300.2190, 2514.688
301.4310, 2724.209
302.6420, 3042.898
303.8540, 3413.124
305.0650, 3748.832
306.2760, 4292.221
307.4870, 4660.979
308.6980, 5214.163
309.9080, 5921.629
311.1190, 6653.361
312.3290, 7567.729
313.5390, 8555.005
314.7490, 9625.429
315.9580, 10676.84
317.1680, 11761.44
318.3770, 13084.49
319.5860, 14459.82
320.7950, 15341.37
322.0040, 15819.08
323.2130, 16407.79
324.4210, 16738.53
325.6290, 16238.28
326.8380, 16372.06
328.0460, 14903.86
329.2530, 13337.69
330.4610, 12355.67
331.6680, 11319.03
332.8760, 9940.393
334.0830, 9165.586
335.2890, 7997.814
336.4960, 7165.938
337.7030, 6580.109
338.9090, 6086.336
340.1150, 5618.027
341.3210, 5220.090
342.5270, 5008.352
343.7330, 4746.893
344.9380, 4575.933
346.1440, 4606.093
347.3490, 4671.217
348.5540, 4855.435
349.7590, 4902.520
350.9630, 5053.767
352.1680, 5140.997
353.3720, 5480.506
354.5760, 5423.523
355.7800, 5619.049
356.9840, 5500.620
358.1870, 5391.268
359.3910, 5489.365
360.5940, 5085.471
361.7970, 5185.592
363.0000, 4962.719
364.2030, 4599.854
365.4050, 4553.996
366.6080, 4619.142
367.8100, 4797.291
369.0120, 4954.445
370.2140, 4987.601
371.4150, 5278.762
372.6170, 5582.928
373.8180, 5986.097
375.0190, 6249.271
376.2200, 6963.451
377.4210, 7384.635
378.6220, 8225.822
379.8220, 8861.014
381.0230, 9884.210
382.2230, 10708.41
383.4230, 11732.61
384.6220, 12607.81
385.8220, 13399.02
387.0220, 14298.23
388.2210, 14869.44
389.4200, 14988.65
390.6190, 14923.54
391.8180, 14671.09
393.0160, 13847.31
394.2150, 12792.53
395.4130, 11704.75
396.6110, 10398.97
397.8090, 9275.189
399.0060, 8203.409
400.2040, 7071.631
401.4010, 6142.851
402.5980, 5295.072
403.7950, 4567.293
404.9920, 3744.512
406.1890, 3128.729
407.3860, 2516.776
408.5820, 2105.517
409.7780, 1696.854
410.9740, 1429.312
412.1700, 1168.588
413.3650, 971.9277
414.5610, 901.4238
415.7560, 637.0459
416.9510, 622.8086
418.1460, 483.5635
419.3410, 471.2451
420.5360, 228.0918
421.7300, 171.9131
422.9240, 195.0908
424.1180, 83.89453
425.3120, 78.57324
426.5060, 108.7334
427.7000, 104.8867
428.8930, 168.0342
430.0860, 94.17188
431.2790, 7.699219
432.4720, 86.58203
433.6650, 86.29688
434.8580, 172.5391
436.0500, 19.68848
437.2420, 60.88184
438.4340, 57.87109
439.6260, 129.3984
440.8180, 111.7432
442.0090, 55.15527
443.2010, 19.59473
444.3920, 175.8672
445.5830, 2.332031
446.7740, 74.84277
447.9640, 33.98242
449.1550, 26.29297
450.3450, 72.70898
451.5350, 92.91309
452.7250, 160.3086
453.9150, 254.6396
455.1050, 175.0820
456.2940, 218.4814
457.4830, 402.1309
458.6720, 337.4785
459.8610, 369.0498
461.0500, 545.7734
462.2390, 452.7734
463.4270, 358.8672
464.6150, 452.0986
465.8040, 421.1680
466.9910, 523.8076
468.1790, 410.5850
469.3670, 388.7295
470.5540, 402.8271
471.7410, 341.6113
472.9280, 226.6133
474.1150, 142.4004
475.3020, 144.2666
476.4890, 192.0645
477.6750, 187.8711
478.8610, 218.6855
480.0470, 211.5254
481.2330, 203.3877
482.4190, 97.29492
483.6040, 252.2256
484.7900, 210.1621
485.9750, 147.0986
487.1600, 288.0098
488.3450, 247.9014
489.5290, 260.7705
490.7140, 242.6475
491.8980, 475.5010
493.0820, 392.3340
494.2660, 577.1484
495.4500, 719.9434
496.6340, 755.7227
497.8170, 943.4844
499.0010, 1089.225
500.1840, 1310.976
501.3670, 1609.707
502.5500, 1723.413
503.7320, 1991.097
504.9150, 2545.754
506.0970, 2637.388
507.2790, 2834.997
508.4610, 2889.580
509.6430, 2908.139
510.8250, 3033.671
512.0060, 2874.186
513.1870, 2656.675
514.3680, 2651.137
515.5490, 2543.573
516.7300, 2615.983
517.9110, 2447.365
519.0910, 2506.720
520.2710, 2387.051
521.4510, 2493.355
522.6310, 2453.631
523.8110, 2753.879
524.9910, 2724.096
526.1700, 2849.287
527.3490, 2844.449
528.5280, 2903.880
529.7070, 2973.334
530.8860, 2990.754
532.0650, 2989.438
533.2430, 2964.318
534.4210, 2909.791
535.5990, 2842.740
536.7770, 2741.051
537.9550, 2650.549
539.1320, 2514.408
540.3100, 2350.232
541.4870, 2257.026
542.6640, 2272.788
543.8410, 2229.519
545.0170, 2307.215
546.1940, 2083.881
547.3700, 2135.512
548.5470, 2305.110
549.7230, 2503.676
550.8980, 2522.210
552.0740, 2859.714
553.2500, 3150.188
554.4250, 3206.632
555.6000, 3313.045
556.7750, 3330.987
557.9500, 3268.447
559.1250, 3195.092
560.2990, 2974.381
561.4730, 2799.636
562.6480, 2444.857
563.8220, 2264.042
564.9950, 1864.194
566.1690, 1854.945
567.3430, 1738.637
568.5160, 1576.416
569.6890, 1339.140
570.8620, 1340.089
572.0350, 1241.689
573.2070, 1052.634
574.3800, 1008.036
575.5520, 1031.387
576.7240, 868.2539
577.8960, 903.6631
579.0680, 796.2793
580.2400, 598.4570
581.4110, 560.7637
582.5830, 508.2344
583.7540, 332.1143
584.9250, 269.7236
586.0950, 129.0723
587.2660, 227.0537
588.4370, 230.1025
589.6070, 135.5283
590.7770, 117.6475
591.9470, 81.01172
593.1170, 35.21777
594.2860, 97.58887
595.4560, 29.79785
596.6250, 20.90918
597.7940, 61.55176
598.9630, 56.72266
600.1320, 28.25781
601.3000, 2.291016
602.4690, 103.7197
603.6370, 2.259766
604.8050, 12.05078
605.9730, 17.99805
607.1410, 145.3281
608.3090, 83.53223
609.4760, 267.6367
610.6430, 291.2119
611.8100, 528.5156
612.9770, 323.0703
614.1440, 498.9902
615.3110, 367.7627
616.4770, 568.8379
617.6430, 683.5186
618.8090, 730.1533
619.9750, 830.7217
621.1410, 849.4863
622.3070, 995.8467
623.4720, 1102.668
624.6370, 1110.606
625.8020, 1368.039
626.9670, 1490.752
628.1320, 1626.364
629.2970, 1650.960
630.4610, 1898.400
631.6250, 1815.294
632.7890, 1998.278
633.9530, 2306.212
635.1170, 2488.096
636.2810, 2547.929
637.4440, 2633.713
638.6070, 3093.447
639.7700, 3314.174
640.9330, 3670.809
642.0960, 3864.392
643.2590, 4475.926
644.4210, 4981.410
645.5830, 5523.844
646.7450, 6114.229
647.9070, 7014.563
649.0690, 8060.846
650.2310, 9238.081
651.3920, 10559.80
652.5530, 11810.93
653.7140, 13784.02
654.8750, 15393.06
656.0360, 17645.04
657.1970, 19590.01
658.3570, 22485.90
659.5170, 25312.33
660.6770, 27947.24
661.8370, 30327.99
662.9970, 32367.68
664.1570, 33318.33
665.3160, 33852.91
666.4750, 33044.47
667.6340, 31422.96
668.7930, 29022.41
669.9520, 26600.82
671.1110, 23766.18
672.2690, 21379.49
673.4270, 18739.74
674.5850, 16703.95
675.7430, 14720.12
676.9010, 13042.24
678.0590, 11261.31
679.2160, 9849.337
680.3730, 8530.313
681.5300, 7255.246
682.6870, 6228.132
683.8440, 5343.971
685.0010, 4816.764
686.1570, 4187.512
687.3130, 3669.214
688.4690, 3214.871
689.6250, 2818.482
690.7810, 2597.051
691.9370, 2326.574
693.0920, 1974.053
694.2470, 1929.486
695.4020, 1720.877
696.5570, 1765.224
697.7120, 1491.525
698.8670, 1442.785
700.0210, 1330.001
701.1750, 1165.173
702.3290, 1321.304
703.4830, 1007.391
704.6370, 1082.436
705.7910, 963.4404
706.9440, 845.4053
708.0970, 890.3281
709.2510, 734.2129
710.4030, 733.0557
711.5560, 556.8584
712.7090, 434.6260
713.8610, 405.3740
715.0140, 378.1016
716.1660, 377.8340
717.3180, 321.5342
718.4690, 287.2080
719.6210, 265.8457
720.7730, 223.4775
721.9240, 204.0977
723.0750, 136.4219
724.2260, 85.07129
725.3770, 9.893555
726.5270, 29.96289
727.6780, 62.50684
728.8280, 123.6309
729.9780, 30.98047
731.1280, 42.55957
732.2780, 77.88184
733.4280, 129.7676
734.5770, 51.38477
735.7260, 54.46191
736.8760, 118.3740
738.0250, 36.47168
739.1730, 8.698242
740.3220, 112.9229
741.4700, 22.77246
742.6190, 17.37793
743.7670, 61.65820
744.9150, 55.60059
746.0630, 40.17773
747.2100, 152.9561
748.3580, 115.1934
749.5050, 113.4639
750.6520, 9.500000
751.7990, 98.79883
752.9460, 56.96094
754.0930, 96.26562
755.2390, 89.57617
756.3860, 91.96582
757.5320, 155.4365
758.6780, 146.0186
759.8240, 238.7061
760.9690, 172.5566
762.1150, 95.50000
763.2600, 73.52930
764.4060, 64.38086
765.5510, 76.27441
766.6950, 66.15039
767.8400, 114.9912
768.9850, 127.7920
770.1290, 159.5596
771.2730, 19.30957
772.4170, 185.0449
773.5610, 29.76465
774.7050, 52.47070
775.8480, 88.16406
776.9920, 144.1582
778.1350, 84.44434
779.2780, 102.0342
780.4210, 84.61328
781.5640, 199.1816
782.7060, 19.74023
783.8490, 23.28809
784.9910, 99.82812
786.1330, 72.35938
787.2750, 189.8838
788.4170, 60.59961
789.5580, 121.8955
790.7000, 65.38379
791.8410, 195.8672
792.9820, 191.3447
794.1230, 1.818359
795.2640, 39.28809
796.4040, 36.24609
797.5450, 8.790039
798.6850, 73.66113
799.8250, 119.1104
800.9650, 138.5586
802.1050, 106.0059
803.2450, 130.6846
804.3840, 134.3926
805.5230, 144.3516
806.6630, 181.8027
807.8020, 232.2559
808.9400, 229.9326
810.0790, 256.1719
811.2170, 257.6348
812.3560, 243.1016
813.4940, 286.0918
814.6320, 405.1602
815.7700, 445.5322
816.9070, 657.0205
818.0450, 832.5166
819.1820, 849.0186
820.3190, 884.5283
821.4560, 1063.048
822.5930, 1097.575
823.7300, 1227.111
824.8670, 1245.657
826.0030, 1292.214
827.1390, 1286.780
828.2750, 1130.358
829.4110, 1154.947
830.5470, 1110.550
831.6820, 1113.163
832.8180, 1064.791
833.9530, 1101.431
835.0880, 1076.085
836.2230, 866.7539
837.3580, 863.4375
838.4920, 960.1367
839.6270, 733.8516
840.7610, 687.5830
841.8950, 695.3301
843.0290, 573.7559
844.1630, 555.8779
845.2960, 511.6797
846.4300, 554.4990
847.5630, 617.3379
848.6960, 640.1953
849.8290, 531.0732
850.9620, 539.9727
852.0940, 633.8906
853.2270, 563.8301
854.3590, 622.7910
855.4910, 729.7734
856.6230, 683.7783
857.7550, 748.6836
858.8870, 921.5469
860.0180, 628.1660
861.1500, 847.0498
862.2810, 668.8740
863.4120, 542.3193
864.5430, 780.8359
865.6730, 659.6123
866.8040, 723.3447
867.9340, 711.6211
869.0640, 587.2812
870.1940, 502.8740
871.3240, 660.3564
872.4540, 491.1357
873.5830, 609.5742
874.7130, 622.3320
875.8420, 501.9668
876.9710, 557.6914
878.1000, 743.8105
879.2290, 621.6064
880.3570, 473.7617
881.4860, 617.5078
882.6140, 490.3848
883.7420, 602.3477
884.8700, 622.8320
885.9980, 552.5850
887.1250, 681.0840
888.2530, 694.0732
889.3800, 469.8477
890.5070, 753.3223
891.6340, 492.3965
892.7610, 702.5352
893.8880, 718.8721
895.0140, 579.9912
896.1400, 609.4922
897.2670, 481.3291
898.3930, 552.2178
899.5180, 503.6777
900.6440, 646.5947
901.7700, 495.6133
902.8950, 578.6953
904.0200, 632.4238
905.1450, 714.6328
906.2700, 767.6895
907.3950, 751.2344
908.5190, 881.6270
909.6440, 866.1035
910.7680, 935.6758
911.8920, 1009.747
913.0160, 1038.091
914.1400, 1132.963
915.2630, 1064.898
916.3870, 1104.886
917.5100, 1013.965
918.6330, 1241.100
919.7560, 1348.311
920.8790, 1209.608
922.0010, 1245.984
923.1240, 1206.463
924.2460, 1360.491
925.3680, 1404.113
926.4900, 1327.799
927.6120, 1321.538
928.7340, 1181.332
929.8550, 1212.151
930.9760, 1264.058
932.0980, 1172.435
933.2190, 1199.371
934.3390, 1246.497
935.4600, 1155.687
936.5810, 1212.206
937.7010, 1381.260
938.8210, 1231.676
939.9410, 1273.177
941.0610, 1269.743
942.1810, 1195.366
943.3010, 1411.045
944.4200, 1332.788
945.5390, 1462.592
946.6580, 1419.454
947.7770, 1374.371
948.8960, 1321.344
950.0150, 1580.379
951.1330, 1400.474
952.2510, 1519.639
953.3690, 1615.865
954.4870, 1461.155
955.6050, 1635.507
956.7230, 1628.914
957.8400, 1757.381
958.9580, 1837.070
960.0750, 1861.479
961.1920, 2004.116
962.3090, 1957.811
963.4250, 2044.561
964.5420, 2407.367
965.6580, 2444.229
966.7740, 2526.146
967.8900, 2558.119
969.0060, 2831.149
970.1220, 3055.246
971.2380, 3370.397
972.3530, 3502.609
973.4680, 3823.882
974.5830, 4065.210
975.6980, 4558.594
976.8130, 5020.033
977.9280, 5372.530
979.0420, 5792.080
980.1560, 6457.688
981.2710, 7085.354
982.3850, 7941.074
983.4980, 8773.851
984.6120, 9768.682
985.7260, 10859.57
986.8390, 12474.51
987.9520, 13769.50
989.0650, 15606.55
990.1780, 17122.66
991.2910, 18858.82
992.4030, 20628.03
993.5160, 22264.31
994.6280, 23162.65
995.7400, 24084.05
996.8520, 24787.52
997.9640, 25710.08
999.0750, 26373.73
1000.187, 27240.43
1001.298, 28756.21
1002.409, 30508.06
1003.520, 32521.97
1004.631, 34779.97
1005.741, 37791.04
1006.852, 40646.19
1007.962, 45713.39
1009.072, 46123.63
1010.182, 47494.96
1011.292, 48256.33
1012.402, 47052.77
1013.511, 44833.34
1014.621, 40858.91
1015.730, 36188.09
1016.839, 31219.79
1017.948, 26338.59
1019.056, 22372.54
1020.165, 18622.52
1021.273, 15911.55
1022.382, 13637.65
1023.490, 11639.99
1024.598, 10330.32
1025.706, 9087.841
1026.813, 8129.154
1027.921, 7593.293
1029.028, 6820.313
1030.135, 6510.999
1031.242, 6172.422
1032.349, 6024.268
1033.456, 5578.419
1034.562, 5400.670
1035.668, 4975.723
1036.775, 5104.735
1037.881, 5006.184
1038.987, 4922.400
1040.092, 4774.373
1041.198, 4723.284
1042.303, 4662.818
1043.408, 4527.840
1044.514, 4366.856
1045.618, 4284.855
1046.723, 3948.348
1047.828, 3609.990
1048.932, 3353.662
1050.037, 3072.004
1051.141, 2912.107
1052.245, 2685.612
1053.349, 2532.192
1054.452, 2358.037
1055.556, 2153.178
1056.659, 2038.203
1057.762, 1870.480
1058.865, 1713.162
1059.968, 1742.154
1061.071, 1663.934
1062.174, 1546.490
1063.276, 1389.513
1064.378, 1302.951
1065.480, 1212.865
1066.582, 1048.981
1067.684, 1032.181
1068.786, 959.9199
1069.887, 913.9346
1070.988, 762.0107
1072.090, 860.5410
1073.191, 753.7520
1074.291, 861.8379
1075.392, 792.1797
1076.493, 537.4277
1077.593, 725.8701
1078.693, 824.4111
1079.793, 838.3311
1080.893, 514.7100
1081.993, 627.5547
1083.092, 566.3721
1084.192, 499.7793
1085.291, 674.0078
1086.390, 401.7158
1087.489, 572.0654
1088.588, 564.5791
1089.686, 638.2510
1090.785, 536.1328
1091.883, 488.3740
1092.981, 475.9580
1094.079, 631.4961
1095.177, 405.7402
1096.275, 438.9912
1097.373, 710.3643
1098.470, 531.6270
1099.567, 501.8965
1100.664, 465.1689
1101.761, 567.0430
1102.858, 575.3252
1103.954, 451.5859
1105.051, 420.1338
1106.147, 512.4248
1107.243, 394.7178
1108.339, 583.1143
1109.435, 458.6182
1110.531, 394.0576
1111.626, 368.6689
1112.722, 508.8301
1113.817, 539.1260
1114.912, 540.4395
1116.007, 583.7324
1117.101, 558.0811
1118.196, 564.5391
1119.290, 516.2256
1120.385, 510.5078
1121.479, 561.8467
1122.573, 538.4434
1123.666, 686.0371
1124.760, 487.2510
1125.853, 528.8115
1126.947, 350.3389
1128.040, 224.6035
1129.133, 475.6162
1130.226, 271.8457
1131.318, 388.1143
1132.411, 405.3262
1133.503, 263.5283
1134.596, 269.7217
1135.688, 252.9033
1136.780, 90.07422
1137.871, 30.23340
1138.963, 176.3799
1140.054, 93.53027
1141.146, 137.8516
1142.237, 158.9609
1143.328, 181.0820
1144.419, 118.8389
1145.509, 156.1787
1146.600, 88.81836
1147.690, 52.13574
1148.780, 92.07129
1149.870, 36.00879
1150.960, 26.88184
1152.050, 61.75293
1153.139, 9.604492
1154.229, 4.959961
1155.318, 64.14941
1156.407, 175.3896
1157.496, 40.48047
1158.585, 50.87402
1159.674, 77.31445
1160.762, 62.17969
1161.850, 92.34766
1162.939, 47.04883
1164.027, 17.58008
1165.114, 192.2480
1166.202, 43.04590
1167.290, 39.82324
1168.377, 43.73242
1169.464, 5.702148
1170.551, 47.08008
1171.638, 11.78125
1172.725, 98.89844
1173.812, 152.1074
1174.898, 149.6992
1175.984, 210.8916
1177.071, 104.5010
1178.157, 9.209961
1179.242, 46.02930
1180.328, 111.7627
1181.414, 26.33789
1182.499, 46.59961
1183.584, 93.61230
1184.669, 52.72656
1185.754, 141.9219
1186.839, 63.24609
1187.924, 15.34180
1189.008, 9.880859
1190.092, 73.41895
1191.177, 137.8223
1192.260, 112.2432
1193.344, 42.62988
1194.428, 5.974609
1195.512, 47.73926
1196.595, 1.541016
1197.678, 15.59277
1198.761, 7.671875
1199.844, 144.6885
1200.927, 122.3291
1202.009, 48.47656
1203.092, 24.28125
1204.174, 155.9844
1205.256, 101.6514
1206.338, 39.27930
1207.420, 60.85645
1208.502, 97.38672
1209.583, 131.8770
1210.665, 168.3281
1211.746, 77.74316
1212.827, 59.11426
1213.908, 18.44043
1214.988, 82.70215
1216.069, 39.91992
1217.149, 88.80859
1218.230, 149.1904
1219.310, 152.2646
1220.390, 178.3008
1221.470, 163.2959
1222.549, 98.25293
1223.629, 144.1631
1224.708, 219.0332
1225.787, 274.8662
1226.866, 194.6592
1227.945, 226.4141
1229.024, 248.1299
1230.103, 317.8076
1231.181, 48.44629
1232.259, 297.0234
1233.337, 105.5596
1234.415, 94.06250
1235.493, 287.5146
1236.571, 246.9277
1237.648, 218.3037
1238.726, 194.6406
1239.803, 211.9346
1240.880, 173.1885
1241.957, 123.3994
1243.034, 273.5654
1244.110, 248.6895
1245.187, 270.7734
1246.263, 242.8184
1247.339, 217.8223
1248.415, 170.7842
1249.491, 355.7051
1250.566, 231.5840
1251.642, 192.4238
1252.717, 200.2207
1253.793, 88.97559
1254.868, 196.6758
1255.943, 204.3340
1257.017, 266.9492
1258.092, 147.5244
1259.166, 389.0518
1260.241, 264.5381
1261.315, 375.9844
1262.389, 398.3916
1263.462, 446.7578
1264.536, 340.0840
1265.610, 422.3682
1266.683, 304.6133
1267.756, 312.8184
1268.829, 280.9824
1269.902, 238.1084
1270.975, 380.3438
1272.048, 281.3877
1273.120, 306.3955
1274.192, 370.2783
1275.264, 299.2051
1276.336, 363.4092
1277.408, 305.6670
1278.480, 384.4756
1279.551, 391.1904
1280.623, 315.9209
1281.694, 329.6104
1282.765, 171.2617
1283.836, 332.7041
1284.907, 401.2012
1285.977, 213.5400
1287.048, 383.1260
1288.118, 417.1133
1289.188, 335.0918
1290.258, 392.4756
1291.328, 335.1738
1292.398, 353.4990
1293.467, 396.5430
1294.537, 406.4902
1295.606, 232.6416
1296.675, 418.8369
1297.744, 343.6289
1298.813, 353.6533
1299.882, 499.9277
1300.950, 501.2646
1302.018, 483.9824
1303.086, 449.2119
1304.155, 421.3203
1305.222, 372.7061
1306.290, 331.5039
1307.358, 416.1494
1308.425, 366.7656
1309.492, 285.7119
1310.559, 298.8984
1311.626, 451.6797
1312.693, 330.3848
1313.760, 420.5342
1314.826, 433.9658
1315.893, 229.2188
1316.959, 463.2246
1318.025, 247.8252
1319.091, 428.1104
1320.157, 274.6055
1321.222, 313.9717
1322.288, 372.5654
1323.353, 197.3896
1324.418, 437.7383
1325.483, 306.8809
1326.548, 359.9375
1327.612, 420.4502
1328.677, 226.6816
1329.741, 318.8467
1330.806, 487.5527
1331.870, 244.5723
1332.934, 346.7119
1333.997, 422.5889
1335.061, 162.0049
1336.124, 245.0684
1337.188, 251.7754
1338.251, 342.6494
1339.314, 304.6445
1340.377, 525.8564
1341.439, 249.9736
1342.502, 310.8594
1343.564, 402.9941
1344.627, 553.7217
1345.689, 404.8672
1346.751, 477.5693
1347.813, 299.2549
1348.874, 428.0225
1349.936, 386.6973
1350.997, 350.7598
1352.058, 387.2998
1353.119, 310.1211
1354.180, 300.0273
1355.241, 304.6982
1356.301, 278.5684
1357.362, 289.2236
1358.422, 302.9609
1359.482, 337.0850
1360.542, 405.7900
1361.602, 389.0352
1362.662, 324.0977
1363.721, 360.8154
1364.781, 308.9092
1365.840, 261.4336
1366.899, 297.8379
1367.958, 227.3545
1369.017, 285.6250
1370.075, 333.3506
1371.134, 284.9082
1372.192, 511.4336
1373.250, 211.9648
1374.308, 173.4258
1375.366, 105.7627
1376.424, 351.0381
1377.481, 387.5215
1378.539, 153.0303
1379.596, 304.3672
1380.653, 115.7520
1381.710, 341.6904
1382.767, 414.9639
1383.824, 325.1484
1384.880, 163.5391
1385.937, 277.1650
1386.993, 232.5586
1388.049, 191.9990
1389.105, 149.3760
1390.161, 118.9141
1391.216, 213.1045
1392.272, 113.4590
1393.327, 183.8066
1394.382, 300.1455
1395.437, 172.4629
1396.492, 331.0488
1397.547, 35.20312
1398.601, 168.5029
1399.656, 213.9639
1400.710, 204.2529
1401.764, 395.5596
1402.818, 6.862305
1403.872, 201.1768
1404.925, 222.4463
1405.979, 101.7109
1407.032, 179.9717
1408.085, 223.2275
1409.139, 118.4785
1410.191, 253.1230
1411.244, 158.9980
1412.297, 109.5605
1413.349, 200.1377
1414.402, 17.43555
1415.454, 222.7324
1416.506, 173.5732
1417.558, 100.8848
1418.609, 313.7012
1419.661, 61.03418
1420.712, 322.3711
1421.764, 155.7598
1422.815, 295.0752
1423.866, 151.4551
1424.916, 265.8486
1425.967, 286.2461
1427.018, 251.6611
1428.068, 377.0850
1429.118, 154.5400
1430.168, 250.0117
1431.218, 217.5098
1432.268, 178.0488
1433.318, 179.4873
1434.367, 336.9229
1435.416, 452.3418
1436.465, 226.8818
1437.514, 359.3037
1438.563, 232.7207
1439.612, 205.1436
1440.661, 344.5703
1441.709, 273.0303
1442.757, 380.4941
1443.805, 418.9570
1444.853, 238.4277
1445.901, 167.4473
1446.949, 285.4238
1447.996, 347.0059
1449.044, 158.6270
1450.091, 457.2998
1451.138, 264.9971
1452.185, 240.8115
1453.232, 253.6660
1454.278, 264.5244
1455.325, 201.3945
1456.371, 188.2217
1457.417, 173.9922
1458.463, 148.0303
1459.509, 157.9541
1460.555, 245.8838
1461.601, 272.8115
1462.646, 190.7500
1463.691, 102.6865
1464.737, 202.6240
1465.782, 78.55957
1466.826, 34.47461
1467.871, 42.47754
1468.916, 143.4336
1469.960, 120.3945
1471.004, 162.3633
1472.048, 193.9785
1473.092, 58.33789
1474.136, 233.3359
1475.180, 196.3447
1476.223, 204.3643
1477.267, 64.40137
1478.310, 92.45996
1479.353, 21.53809
1480.396, 208.6328
1481.439, 202.7383
1482.481, 260.8594
1483.524, 72.99609
1484.566, 210.1475
1485.608, 131.0938
1486.650, 59.74023
1487.692, 51.06445
1488.734, 32.26270
1489.775, 11.51562
1490.817, 135.7246
1491.858, 114.9961
1492.899, 33.27344
1493.940, 63.28516
1494.981, 44.17773
1496.022, 109.8848
1497.062, 49.19141
1498.103, 136.5254
1499.143, 113.8770
1500.183, 125.2148
1501.223, 7.652344
1502.263, 146.0762
1503.302, 11.51953
1504.342, 9.992188
1505.381, 2.490234
1506.420, 7.984375
1507.459, 19.29297
1508.498, 44.83789
1509.537, 66.76953
1510.576, 92.41406
1511.614, 95.08789
1512.652, 32.78711
1513.691, 137.5098
1514.729, 165.2578
1515.767, 96.02930
1516.804, 122.8262
1517.842, 143.6504
1518.879, 71.50000
1519.917, 103.8125
1520.954, 1.650391
1521.991, 50.51562
1523.028, 212.4082
1524.064, 15.66797
1525.101, 156.2891
1526.137, 144.9980
1527.173, 197.0117
1528.210, 157.0586
1529.245, 261.7500
1530.281, 240.3242
1531.317, 173.9668
1532.352, 229.6660
1533.388, 141.5215
1534.423, 77.46094
1535.458, 4.578125
1536.493, 7.757813
1537.528, 1.880859
1538.562, 171.6250
1539.597, 185.2500
1540.631, 4.1016001E-02
1541.665, 283.8281
1542.700, 45.75391
1543.733, 187.0840
1544.767, 177.9043
1545.801, 178.7793
1546.834, 160.9961
1547.868, 193.4980
1548.901, 101.0137
1549.934, 321.4609
1550.967, 178.3223
1551.999, 266.2461
1553.032, 421.1445
1554.064, 551.2578
1555.097, 689.5723
1556.129, 371.5781
1557.161, 433.6738
1558.193, 182.9395
1559.224, 157.5957
1560.256, 32.12891
1561.287, 253.7461
1562.318, 259.0312
1563.350, 176.7617
1564.380, 182.8867
1565.411, 103.7949
1566.442, 91.14648
1567.472, 308.7207
1568.503, 74.80078
1569.533, 0.7031250
1570.563, 0.0000000E+00
##END=



