##NAMES=Augite
##RRUFFID=R070231
##IDEAL CHEMISTRY=(Ca,Mg,Fe^2+^,Fe^3+^)_2_(Si,Al)_2_O_6_
##LOCALITY=Old Goose Creek Quarry, Leesburg, Loudoun County, Virginia, USA
##OWNER=RRUFF
##SOURCE=Michael Scott
##DESCRIPTION=Very dark grey-green prismatic crystals frozen in quartz
##STATUS=The identification of this mineral is confirmed by single-crystal X-ray diffraction and chemical analysis.
##URL=rruff.info/R070231
##MEASURED CHEMISTRY=(Mg_0.44_Fe_0.37_Ca_0.17_Ti_0.01_Mn_0.01_)_Σ=1_(Si_0.98_Al_0.02_)_Σ=1_O_3_
##PIN_ID=M00062
##ORIENTATION=Laser parallel to -c* (0 0 -1). Fiducial mark perpendicular to laser is parallel to a [1 0 0]
149.8300, 0.0000000E+00
151.0630, 75.65625
152.2960, 135.1250
153.5300, 86.49023
154.7620, 118.1270
155.9950, 115.3418
157.2280, 82.25391
158.4600, 53.78320
159.6920, 44.75586
160.9250, 352.5020
162.1560, 291.1484
163.3880, 656.4473
164.6200, 859.1816
165.8510, 714.2012
167.0820, 484.3848
168.3130, 695.6230
169.5440, 876.8262
170.7750, 1067.906
172.0050, 1020.787
173.2350, 1187.389
174.4650, 1031.643
175.6950, 1241.480
176.9250, 1461.840
178.1550, 1841.674
179.3840, 2285.928
180.6130, 2485.801
181.8420, 2883.043
183.0710, 2922.777
184.3000, 3211.955
185.5280, 3707.527
186.7570, 3952.447
187.9850, 3842.715
189.2130, 3672.318
190.4400, 3636.242
191.6680, 3436.449
192.8960, 3071.898
194.1230, 2841.557
195.3500, 2552.400
196.5770, 2596.404
197.8030, 2258.551
199.0300, 2155.816
200.2560, 2398.193
201.4830, 2295.660
202.7090, 2069.207
203.9340, 1637.824
205.1600, 972.5000
206.3860, 567.2246
207.6110, 563.9863
208.8360, 431.7832
210.0610, 516.0059
211.2860, 379.7383
212.5100, 233.5039
213.7350, 470.0117
214.9590, 267.4395
216.1830, 327.4570
217.4070, 113.3359
218.6310, 387.8613
219.8540, 474.6875
221.0780, 401.9023
222.3010, 402.1250
223.5240, 425.7207
224.7470, 581.6309
225.9690, 689.6328
227.1920, 585.8262
228.4140, 832.1484
229.6360, 837.6016
230.8580, 749.9336
232.0800, 1019.150
233.3020, 575.2441
234.5230, 810.2188
235.7440, 689.0859
236.9650, 451.8457
238.1860, 660.5098
239.4070, 526.0742
240.6280, 413.5547
241.8480, 428.9414
243.0680, 334.2480
244.2880, 665.4707
245.5080, 425.6211
246.7280, 935.7207
247.9470, 814.7500
249.1660, 917.7070
250.3860, 1094.598
251.6040, 1086.418
252.8230, 1187.164
254.0420, 1104.844
255.2600, 1213.457
256.4790, 1328.000
257.6970, 1584.480
258.9150, 1428.025
260.1320, 1234.215
261.3500, 1188.527
262.5670, 980.1855
263.7840, 800.7734
265.0010, 582.9961
266.2180, 409.0293
267.4350, 77.99805
268.6510, 80.09570
269.8680, 77.75195
271.0840, 189.5371
272.3000, 200.2637
273.5160, 31.92773
274.7310, 2.537109
275.9470, 12.08789
277.1620, 48.86328
278.3770, 93.67188
279.5920, 38.29492
280.8070, 243.8750
282.0210, 220.3750
283.2360, 150.2012
284.4500, 346.4434
285.6640, 194.0293
286.8780, 262.2461
288.0920, 149.3750
289.3050, 227.3379
290.5180, 232.4609
291.7320, 392.5664
292.9450, 340.7988
294.1570, 402.3184
295.3700, 562.2090
296.5830, 624.4766
297.7950, 860.3691
299.0070, 833.4375
300.2190, 1011.229
301.4310, 1228.195
302.6420, 1305.006
303.8540, 1440.922
305.0650, 1978.561
306.2760, 1932.127
307.4870, 2130.844
308.6980, 1996.098
309.9080, 2264.928
311.1190, 2664.520
312.3290, 2762.850
313.5390, 3024.600
314.7490, 2995.994
315.9580, 3367.578
317.1680, 3476.182
318.3770, 3621.809
319.5860, 3376.453
320.7950, 3647.113
322.0040, 3323.785
323.2130, 3298.461
324.4210, 3090.146
325.6290, 3281.834
326.8380, 2861.527
328.0460, 2850.217
329.2530, 3017.904
330.4610, 2824.584
331.6680, 2638.258
332.8760, 2494.926
334.0830, 2686.578
335.2890, 2317.223
336.4960, 2586.855
337.7030, 2429.467
338.9090, 2634.064
340.1150, 2861.430
341.3210, 2442.230
342.5270, 2014.432
343.7330, 2328.010
344.9380, 2261.514
346.1440, 2217.199
347.3490, 2588.055
348.5540, 2120.492
349.7590, 2201.936
350.9630, 2278.326
352.1680, 2190.695
353.3720, 2066.039
354.5760, 2166.361
355.7800, 2025.633
356.9840, 1859.881
358.1870, 2056.102
359.3910, 1682.293
360.5940, 1776.445
361.7970, 1631.562
363.0000, 1385.641
364.2030, 1719.686
365.4050, 1448.695
366.6080, 1331.666
367.8100, 1594.604
369.0120, 1595.504
370.2140, 1510.367
371.4150, 1676.193
372.6170, 1895.980
373.8180, 1928.908
375.0190, 2353.438
376.2200, 2166.109
377.4210, 2308.742
378.6220, 2424.338
379.8220, 2892.898
381.0230, 2376.426
382.2230, 2634.918
383.4230, 2408.375
384.6220, 2673.799
385.8220, 2571.191
387.0220, 2384.553
388.2210, 2528.883
389.4200, 2225.182
390.6190, 2138.449
391.8180, 2123.684
393.0160, 1575.895
394.2150, 1295.072
395.4130, 1201.221
396.6110, 780.3438
397.8090, 763.4355
399.0060, 620.4980
400.2040, 419.5352
401.4010, 303.5449
402.5980, 158.5254
403.7950, 16.47656
404.9920, 132.6133
406.1890, 65.78125
407.3860, 347.0078
408.5820, 449.3672
409.7780, 182.8867
410.9740, 206.4941
412.1700, 229.1992
413.3650, 32.75781
414.5610, 13.07812
415.7560, 66.96094
416.9510, 39.10156
418.1460, 160.9902
419.3410, 381.7012
420.5360, 222.4453
421.7300, 2.306641
422.9240, 436.1504
424.1180, 229.4746
425.3120, 449.8945
426.5060, 131.1328
427.7000, 453.1270
428.8930, 197.2559
430.0860, 211.3281
431.2790, 230.4023
432.4720, 109.2246
433.6650, 4.744141
434.8580, 25.25391
436.0500, 52.77344
437.2420, 166.8594
438.4340, 9.052734
439.6260, 225.3457
440.8180, 90.81250
442.0090, 173.3750
443.2010, 71.07227
444.3920, 69.15039
445.5830, 136.6465
446.7740, 313.5527
447.9640, 79.33984
449.1550, 337.7695
450.3450, 56.09570
451.5350, 86.51172
452.7250, 236.0918
453.9150, 303.5293
455.1050, 136.1875
456.2940, 320.6973
457.4830, 428.1895
458.6720, 420.6602
459.8610, 825.1133
461.0500, 838.5449
462.2390, 882.9570
463.4270, 918.3496
464.6150, 1244.723
465.8040, 1187.078
466.9910, 1379.410
468.1790, 1362.842
469.3670, 1476.016
470.5540, 1272.287
471.7410, 1187.539
472.9280, 1145.770
474.1150, 999.0488
475.3020, 935.6289
476.4890, 759.3379
477.6750, 735.4844
478.8610, 532.6133
480.0470, 382.7207
481.2330, 549.8086
482.4190, 117.8809
483.6040, 9.925781
484.7900, 144.9395
485.9750, 286.9297
487.1600, 395.9023
488.3450, 248.8574
489.5290, 200.7969
490.7140, 381.7188
491.8980, 286.6230
493.0820, 346.5156
494.2660, 535.3887
495.4500, 500.0371
496.6340, 492.1035
497.8170, 596.9434
499.0010, 632.7676
500.1840, 664.6113
501.3670, 818.4434
502.5500, 789.2656
503.7320, 969.0781
504.9150, 1005.883
506.0970, 927.6934
507.2790, 1172.521
508.4610, 1224.367
509.6430, 1491.246
510.8250, 1225.123
512.0060, 1537.000
513.1870, 1263.895
514.3680, 1362.871
515.5490, 1404.891
516.7300, 1733.979
517.9110, 2013.109
519.0910, 1635.293
520.2710, 1964.506
521.4510, 1804.779
522.6310, 2349.148
523.8110, 2384.641
524.9910, 2284.148
526.1700, 2521.691
527.3490, 2586.242
528.5280, 2786.797
529.7070, 2639.402
530.8860, 3035.047
532.0650, 2946.703
533.2430, 3491.414
534.4210, 3430.180
535.5990, 3406.977
536.7770, 3473.766
537.9550, 3403.535
539.1320, 3780.309
540.3100, 3808.066
541.4870, 3999.859
542.6640, 3953.637
543.8410, 3994.148
545.0170, 3972.043
546.1940, 4159.520
547.3700, 4060.664
548.5470, 3939.008
549.7230, 4194.781
550.8980, 3987.129
552.0740, 3889.203
553.2500, 4068.805
554.4250, 4006.055
555.6000, 3760.355
556.7750, 3841.289
557.9500, 3528.848
559.1250, 3585.180
560.2990, 3335.125
561.4730, 3071.918
562.6480, 2886.094
563.8220, 3097.066
564.9950, 2653.820
566.1690, 2781.004
567.3430, 2714.738
568.5160, 2385.492
569.6890, 1912.199
570.8620, 2291.203
572.0350, 2024.258
573.2070, 2247.379
574.3800, 2375.984
575.5520, 2019.809
576.7240, 2030.941
577.8960, 2035.805
579.0680, 1677.543
580.2400, 1851.215
581.4110, 1950.340
582.5830, 1959.953
583.7540, 1923.418
584.9250, 1855.352
586.0950, 1774.688
587.2660, 1867.285
588.4370, 2318.441
589.6070, 2149.805
590.7770, 2392.238
591.9470, 2758.406
593.1170, 2659.789
594.2860, 2931.797
595.4560, 3300.086
596.6250, 3263.664
597.7940, 3477.016
598.9630, 3544.426
600.1320, 3578.832
601.3000, 3818.988
602.4690, 3941.602
603.6370, 4148.973
604.8050, 4187.332
605.9730, 4183.680
607.1410, 4663.234
608.3090, 4647.562
609.4760, 4817.875
610.6430, 4208.176
611.8100, 4661.469
612.9770, 4203.742
614.1440, 4498.008
615.3110, 4756.262
616.4770, 4312.500
617.6430, 4479.723
618.8090, 4387.211
619.9750, 4532.500
621.1410, 4285.109
622.3070, 4474.641
623.4720, 4381.016
624.6370, 4180.414
625.8020, 4437.223
626.9670, 3886.438
628.1320, 4067.129
629.2970, 4236.348
630.4610, 4361.746
631.6250, 4146.809
632.7890, 4182.242
633.9530, 4415.820
635.1170, 4628.512
636.2810, 4125.672
637.4440, 4033.824
638.6070, 4385.844
639.7700, 4401.699
640.9330, 4347.227
642.0960, 4536.496
643.2590, 4737.652
644.4210, 4592.805
645.5830, 4889.188
646.7450, 4957.828
647.9070, 5244.992
649.0690, 5250.094
650.2310, 5988.727
651.3920, 6323.273
652.5530, 6809.035
653.7140, 7026.234
654.8750, 7806.703
656.0360, 8434.680
657.1970, 9304.203
658.3570, 10241.92
659.5170, 10833.58
660.6770, 11556.06
661.8370, 12646.49
662.9970, 12573.14
664.1570, 13158.43
665.3160, 13246.11
666.4750, 12632.31
667.6340, 12378.80
668.7930, 11844.15
669.9520, 11082.45
671.1110, 10665.57
672.2690, 9952.898
673.4270, 9283.086
674.5850, 8555.301
675.7430, 8168.031
676.9010, 6850.152
678.0590, 6575.906
679.2160, 5914.449
680.3730, 5680.402
681.5300, 4940.254
682.6870, 4681.758
683.8440, 4348.008
685.0010, 3751.449
686.1570, 3878.414
687.3130, 3544.176
688.4690, 3020.852
689.6250, 2872.062
690.7810, 2904.301
691.9370, 2497.734
693.0920, 2118.594
694.2470, 2449.453
695.4020, 2252.883
696.5570, 2269.578
697.7120, 2159.328
698.8670, 2068.340
700.0210, 2095.340
701.1750, 1839.898
702.3290, 1872.332
703.4830, 1621.273
704.6370, 1482.016
705.7910, 1414.297
706.9440, 1330.113
708.0970, 1339.008
709.2510, 1374.129
710.4030, 1466.191
711.5560, 1647.195
712.7090, 1077.148
713.8610, 1386.043
715.0140, 1058.898
716.1660, 991.6953
717.3180, 1098.469
718.4690, 1176.234
719.6210, 953.9570
720.7730, 1077.695
721.9240, 994.4102
723.0750, 807.1250
724.2260, 751.8047
725.3770, 797.4258
726.5270, 874.0391
727.6780, 815.5703
728.8280, 845.6406
729.9780, 765.9102
731.1280, 776.5000
732.2780, 762.0352
733.4280, 645.5117
734.5770, 857.9258
735.7260, 705.2812
736.8760, 726.5703
738.0250, 649.7969
739.1730, 635.6445
740.3220, 779.0703
741.4700, 685.1094
742.6190, 634.0859
743.7670, 746.9961
744.9150, 487.8438
746.0630, 655.6211
747.2100, 677.3398
748.3580, 770.9922
749.5050, 578.5781
750.6520, 613.1016
751.7990, 582.5547
752.9460, 605.9453
754.0930, 574.3633
755.2390, 553.5312
756.3860, 487.7266
757.5320, 533.8438
758.6780, 454.9023
759.8240, 471.8867
760.9690, 561.8047
762.1150, 440.6602
763.2600, 481.6289
764.4060, 285.1719
765.5510, 420.8164
766.6950, 244.3906
767.8400, 151.8828
768.9850, 325.2930
770.1290, 226.6328
771.2730, 432.8867
772.4170, 166.0703
773.5610, 25.17578
774.7050, 288.1758
775.8480, 316.1016
776.9920, 69.05078
778.1350, 187.6484
779.2780, 75.25781
780.4210, 86.78516
781.5640, 86.21484
782.7060, 12.43359
783.8490, 48.20703
784.9910, 61.12500
786.1330, 98.18750
787.2750, 16.58203
788.4170, 18.23828
789.5580, 49.67188
790.7000, 279.8008
791.8410, 156.6562
792.9820, 228.7148
794.1230, 158.0078
795.2640, 161.5039
796.4040, 113.2031
797.5450, 193.0781
798.6850, 363.1758
799.8250, 417.5781
800.9650, 46.32031
802.1050, 133.2031
803.2450, 17.73047
804.3840, 20.44922
805.5230, 162.7539
806.6630, 115.2617
807.8020, 49.94531
808.9400, 181.7695
810.0790, 196.8047
811.2170, 103.0586
812.3560, 137.5195
813.4940, 83.01562
814.6320, 35.42578
815.7700, 140.7422
816.9070, 122.0273
818.0450, 278.0312
819.1820, 118.0156
820.3190, 38.91406
821.4560, 72.27344
822.5930, 197.3867
823.7300, 62.97266
824.8670, 270.5234
826.0030, 378.7305
827.1390, 151.9102
828.2750, 344.0156
829.4110, 194.9531
830.5470, 245.8711
831.6820, 99.61328
832.8180, 257.2773
833.9530, 238.8711
835.0880, 317.3867
836.2230, 228.8359
837.3580, 236.1992
838.4920, 557.5000
839.6270, 115.7266
840.7610, 385.8789
841.8950, 591.9609
843.0290, 424.9844
844.1630, 447.9375
845.2960, 760.8320
846.4300, 628.6602
847.5630, 846.4297
848.6960, 998.1367
849.8290, 1200.781
850.9620, 1080.359
852.0940, 1345.879
853.2270, 1450.336
854.3590, 1775.734
855.4910, 1586.066
856.6230, 1499.336
857.7550, 1353.551
858.8870, 1318.727
860.0180, 1470.797
861.1500, 1336.828
862.2810, 1243.805
863.4120, 1352.715
864.5430, 1215.566
865.6730, 1284.363
866.8040, 1407.098
867.9340, 1482.770
869.0640, 1390.383
870.1940, 1364.941
871.3240, 1542.441
872.4540, 1352.879
873.5830, 1386.266
874.7130, 1347.586
875.8420, 1330.859
876.9710, 1516.070
878.1000, 1271.223
879.2290, 967.3242
880.3570, 1214.371
881.4860, 1073.141
882.6140, 859.0742
883.7420, 1041.957
884.8700, 819.7852
885.9980, 905.2383
887.1250, 914.8047
888.2530, 1024.953
889.3800, 894.5703
890.5070, 957.1367
891.6340, 831.6484
892.7610, 769.9844
893.8880, 910.1992
895.0140, 587.1758
896.1400, 497.1719
897.2670, 367.4766
898.3930, 676.2383
899.5180, 700.1133
900.6440, 1011.121
901.7700, 795.6445
902.8950, 890.3828
904.0200, 592.6836
905.1450, 967.6602
906.2700, 972.1719
907.3950, 792.4922
908.5190, 717.6562
909.6440, 962.2891
910.7680, 1169.895
911.8920, 1127.562
913.0160, 966.3438
914.1400, 959.3906
915.2630, 884.6406
916.3870, 871.9375
917.5100, 766.1875
918.6330, 897.1406
919.7560, 838.5234
920.8790, 720.5703
922.0010, 857.9609
923.1240, 768.4570
924.2460, 800.9805
925.3680, 644.2344
926.4900, 428.9844
927.6120, 867.4141
928.7340, 739.2852
929.8550, 719.5547
930.9760, 551.5664
932.0980, 399.5859
933.2190, 439.5938
934.3390, 464.9102
935.4600, 416.8125
936.5810, 538.0156
937.7010, 486.7734
938.8210, 238.9648
939.9410, 419.8125
941.0610, 641.7422
942.1810, 388.6758
943.3010, 519.7344
944.4200, 384.5625
945.5390, 460.4727
946.6580, 562.3008
947.7770, 379.5664
948.8960, 430.3906
950.0150, 359.5273
951.1330, 417.1641
952.2510, 706.6602
953.3690, 582.5977
954.4870, 721.8359
955.6050, 795.2656
956.7230, 750.4727
957.8400, 849.7539
958.9580, 737.9570
960.0750, 817.8789
961.1920, 882.3125
962.3090, 685.8164
963.4250, 964.1406
964.5420, 933.0547
965.6580, 978.0039
966.7740, 976.3398
967.8900, 900.3750
969.0060, 999.3555
970.1220, 1234.688
971.2380, 978.6680
972.3530, 1169.703
973.4680, 1370.820
974.5830, 1274.398
975.6980, 1302.137
976.8130, 1313.277
977.9280, 1423.906
979.0420, 1761.293
980.1560, 1827.473
981.2710, 1832.672
982.3850, 2217.887
983.4980, 2153.109
984.6120, 2023.348
985.7260, 2302.598
986.8390, 2559.863
987.9520, 2537.137
989.0650, 2878.430
990.1780, 3012.738
991.2910, 3445.062
992.4030, 3459.398
993.5160, 3872.762
994.6280, 4315.141
995.7400, 4580.539
996.8520, 4948.949
997.9640, 5145.387
999.0750, 5415.836
1000.187, 5798.297
1001.298, 6579.785
1002.409, 6917.289
1003.520, 8439.812
1004.631, 8741.355
1005.741, 9846.910
1006.852, 10579.49
1007.962, 12055.09
1009.072, 13204.71
1010.182, 14325.35
1011.292, 14766.00
1012.402, 14727.69
1013.511, 13716.55
1014.621, 11800.29
1015.730, 10424.03
1016.839, 9027.801
1017.948, 7495.590
1019.056, 6547.406
1020.165, 5715.375
1021.273, 4793.234
1022.382, 4313.125
1023.490, 3974.031
1024.598, 3685.969
1025.706, 3606.938
1026.813, 3059.891
1027.921, 3214.906
1029.028, 2950.082
1030.135, 3061.164
1031.242, 2768.270
1032.349, 3100.410
1033.456, 2980.582
1034.562, 2854.754
1035.668, 2745.992
1036.775, 2797.270
1037.881, 2852.582
1038.987, 2731.941
1040.092, 2906.336
1041.198, 2895.770
1042.303, 2794.242
1043.408, 2601.262
1044.514, 2832.824
1045.618, 2489.055
1046.723, 2520.039
1047.828, 2872.629
1048.932, 2421.402
1050.037, 2364.219
1051.141, 2380.090
1052.245, 2253.137
1053.349, 2212.195
1054.452, 2181.281
1055.556, 2237.453
1056.659, 2034.688
1057.762, 1888.984
1058.865, 2117.352
1059.968, 1979.867
1061.071, 1854.477
1062.174, 1645.223
1063.276, 1525.078
1064.378, 1414.711
1065.480, 1685.691
1066.582, 1260.867
1067.684, 1330.824
1068.786, 1318.941
1069.887, 1066.539
1070.988, 1201.246
1072.090, 1409.062
1073.191, 1109.902
1074.291, 1370.402
1075.392, 1274.453
1076.493, 1160.664
1077.593, 1281.922
1078.693, 940.2969
1079.793, 921.7734
1080.893, 1539.305
1081.993, 1096.895
1083.092, 1272.543
1084.192, 1477.250
1085.291, 1259.438
1086.390, 1292.301
1087.489, 1374.145
1088.588, 1172.031
1089.686, 1140.008
1090.785, 1100.020
1091.883, 992.0938
1092.981, 729.3086
1094.079, 845.5820
1095.177, 986.8594
1096.275, 698.1836
1097.373, 904.6211
1098.470, 922.1211
1099.567, 876.6367
1100.664, 491.1797
1101.761, 387.7812
1102.858, 587.3320
1103.954, 822.5391
1105.051, 947.6406
1106.147, 968.4414
1107.243, 572.7773
1108.339, 714.9688
1109.435, 641.6602
1110.531, 559.5352
1111.626, 777.4336
1112.722, 443.7539
1113.817, 656.9688
1114.912, 651.4102
1116.007, 745.8281
1117.101, 623.4180
1118.196, 568.0156
1119.290, 729.5703
1120.385, 771.0508
1121.479, 623.7812
1122.573, 724.7422
1123.666, 382.2812
1124.760, 431.4844
1125.853, 646.0781
1126.947, 509.8477
1128.040, 614.8828
1129.133, 628.0938
1130.226, 223.6758
1131.318, 545.4727
1132.411, 553.2461
1133.503, 238.5938
1134.596, 535.6055
1135.688, 265.3281
1136.780, 197.5156
1137.871, 282.0547
1138.963, 207.8008
1140.054, 383.9492
1141.146, 318.8867
1142.237, 232.2812
1143.328, 240.1836
1144.419, 18.82422
1145.509, 216.2461
1146.600, 113.7539
1147.690, 179.2578
1148.780, 282.8984
1149.870, 261.5703
1150.960, 15.00781
1152.050, 54.46484
1153.139, 12.98438
1154.229, 262.5898
1155.318, 414.2891
1156.407, 152.0625
1157.496, 252.0664
1158.585, 174.9023
1159.674, 63.03906
1160.762, 137.0664
1161.850, 53.26172
1162.939, 254.5586
1164.027, 101.9531
1165.114, 84.59766
1166.202, 269.9375
1167.290, 259.5742
1168.377, 58.30859
1169.464, 54.12891
1170.551, 52.04688
1171.638, 220.9883
1172.725, 175.9805
1173.812, 133.9414
1174.898, 318.2109
1175.984, 31.58594
1177.071, 106.6367
1178.157, 10.05859
1179.242, 187.3125
1180.328, 137.7500
1181.414, 63.12109
1182.499, 89.43750
1183.584, 62.93359
1184.669, 163.6328
1185.754, 76.01172
1186.839, 282.9570
1187.924, 135.7031
1189.008, 70.51953
1190.092, 84.39453
1191.177, 121.3281
1192.260, 47.32422
1193.344, 62.37891
1194.428, 56.49609
1195.512, 129.3320
1196.595, 73.90625
1197.678, 29.78125
1198.761, 4.078125
1199.844, 202.0625
1200.927, 33.55469
1202.009, 19.12891
1203.092, 32.77734
1204.174, 35.59375
1205.256, 379.3242
1206.338, 57.77734
1207.420, 251.2109
1208.502, 277.2969
1209.583, 169.4805
1210.665, 196.4336
1211.746, 90.82422
1212.827, 265.3320
1213.908, 321.6680
1214.988, 147.6016
1216.069, 158.2422
1217.149, 196.1758
1218.230, 271.3008
1219.310, 613.0430
1220.390, 432.2305
1221.470, 194.0625
1222.549, 446.9766
1223.629, 137.9766
1224.708, 593.5078
1225.787, 572.7773
1226.866, 388.2695
1227.945, 454.2773
1229.024, 275.5977
1230.103, 443.6406
1231.181, 189.4883
1232.259, 144.3867
1233.337, 167.3320
1234.415, 371.3125
1235.493, 165.7344
1236.571, 236.7344
1237.648, 529.9570
1238.726, 216.9688
1239.803, 416.7578
1240.880, 375.0938
1241.957, 26.27734
1243.034, 362.3125
1244.110, 179.6055
1245.187, 148.4023
1246.263, 122.3203
1247.339, 219.3672
1248.415, 278.2031
1249.491, 359.5742
1250.566, 164.0117
1251.642, 229.9805
1252.717, 182.9492
1253.793, 14.55859
1254.868, 316.1953
1255.943, 381.5742
1257.017, 249.5625
1258.092, 56.93750
1259.166, 159.4844
1260.241, 247.0859
1261.315, 134.2461
1262.389, 83.28125
1263.462, 130.2500
1264.536, 97.33984
1265.610, 113.1328
1266.683, 221.4531
1267.756, 171.6758
1268.829, 242.1758
1269.902, 287.2891
1270.975, 443.2930
1272.048, 0.7421880
1273.120, 284.6406
1274.192, 0.0000000E+00
##END=



