##NAMES=Axinite-(Fe)
##RRUFFID=R050061
##IDEAL CHEMISTRY=Ca_4_Fe^2+^_2_Al_4_[B_2_Si_8_O_30_](OH)_2_
##LOCALITY=Jamestown, California, USA
##OWNER=RRUFF
##SOURCE=Rock Currier
##DESCRIPTION=Brown colored axe-head-shaped single crystals
##STATUS=The identification of this mineral has been confirmed by X-ray diffraction and chemical analysis
##URL=rruff.info/R050061
##MEASURED CHEMISTRY=Ca_2.00_(Fe^2+^_0.73_Mg_0.20_Mn_0.07_)Al_2.00_BSi_4_O_15_(OH)
##PIN_ID=L00381
##ORIENTATION=Laser parallel to a* (1 0 0). Fiducial mark perpendicular to laser is parallel to b [0 1 0]
91.065, 0.000
92.466, 5.461
93.868, 121.362
95.269, 70.093
96.670, 362.704
98.070, 610.694
99.471, 1010.748
100.871, 1297.626
102.271, 1505.026
103.670, 2174.339
105.070, 3197.309
106.469, 4907.385
107.868, 6094.923
109.267, 6446.562
110.665, 6033.400
112.063, 4464.782
113.461, 3222.257
114.859, 2404.654
116.256, 1750.500
117.653, 1317.996
119.050, 918.199
120.447, 798.174
121.843, 724.994
123.240, 766.728
124.636, 449.495
126.031, 241.688
127.427, 188.151
128.822, 64.491
130.217, 20.336
131.612, 122.549
133.006, 47.107
134.400, 353.859
135.794, 904.455
137.188, 1284.944
138.581, 1564.071
139.975, 1744.525
141.368, 1427.083
142.760, 1204.801
144.153, 1594.749
145.545, 1699.144
146.937, 1794.582
148.329, 2384.577
149.720, 3004.021
151.112, 3101.953
152.503, 3058.406
153.893, 2177.411
155.284, 1572.993
156.674, 1017.173
158.064, 639.461
159.454, 523.766
160.843, 553.191
162.233, 871.349
163.622, 1067.266
165.011, 1572.437
166.399, 2153.718
167.787, 3020.635
169.175, 4276.886
170.563, 4991.054
171.951, 5644.250
173.338, 4997.469
174.725, 4082.776
176.112, 3080.353
177.499, 1948.197
178.885, 1436.298
180.271, 728.638
181.657, 449.195
183.043, 163.953
184.428, 72.889
185.813, 60.975
187.198, 154.196
188.583, 466.540
189.967, 947.996
191.351, 2003.557
192.735, 2812.206
194.119, 3140.843
195.502, 2729.407
196.885, 1845.065
198.268, 1763.810
199.651, 1728.607
201.033, 2419.441
202.415, 3188.307
203.797, 4285.199
205.179, 5225.119
206.561, 5421.060
207.942, 5667.019
209.323, 5192.986
210.703, 4838.936
212.084, 4380.852
213.464, 3643.732
214.844, 3362.580
216.224, 2837.394
217.603, 2798.177
218.983, 2375.927
220.362, 2013.587
221.741, 1507.035
223.119, 959.335
224.497, 549.605
225.875, 128.858
227.253, 73.094
228.631, 195.215
230.008, 285.693
231.385, 370.642
232.762, 379.207
234.139, 298.539
235.515, 356.000
236.891, 159.285
238.267, 31.722
239.643, 147.920
241.018, 373.657
242.393, 383.451
243.768, 620.101
245.143, 742.340
246.517, 749.096
247.891, 890.479
249.265, 966.758
250.639, 1296.005
252.012, 1700.241
253.386, 2377.468
254.759, 2681.688
256.131, 2945.899
257.504, 2710.566
258.876, 2267.405
260.248, 2112.937
261.620, 2018.504
262.991, 2400.041
264.363, 2707.500
265.734, 3211.863
267.104, 3959.097
268.475, 4471.139
269.845, 5408.011
271.215, 5829.728
272.585, 6571.299
273.955, 6742.734
275.324, 6624.018
276.693, 6484.846
278.062, 5485.174
279.431, 5184.412
280.799, 4185.551
282.167, 3767.573
283.535, 3418.490
284.903, 3062.305
286.270, 3132.021
287.638, 2880.644
289.005, 3076.177
290.371, 2971.624
291.738, 3116.809
293.104, 3313.642
294.470, 3347.416
295.836, 3637.112
297.201, 3606.773
298.567, 3794.697
299.932, 4061.788
301.296, 4465.297
302.661, 5285.943
304.025, 5747.421
305.389, 6985.471
306.753, 7033.029
308.117, 7050.521
309.480, 6227.945
310.843, 4986.311
312.206, 4272.617
313.569, 3619.869
314.931, 3674.083
316.293, 3836.243
317.655, 4166.355
319.017, 4609.418
320.378, 4309.433
321.740, 3920.400
323.101, 3235.312
324.461, 2769.895
325.822, 2505.655
327.182, 2284.192
328.542, 2376.138
329.902, 2263.787
331.261, 2307.379
332.621, 2159.952
333.980, 2171.525
335.339, 2335.099
336.697, 2637.671
338.056, 3196.247
339.414, 3910.825
340.772, 5146.403
342.129, 6447.993
343.487, 7042.583
344.844, 7696.483
346.201, 6738.842
347.557, 6197.229
348.914, 5598.775
350.270, 5484.919
351.626, 5541.309
352.982, 4862.939
354.337, 4267.470
355.693, 3060.989
357.048, 2237.497
358.402, 1675.994
359.757, 1217.479
361.111, 879.195
362.465, 529.072
363.819, 489.602
365.173, 368.859
366.526, 301.615
367.879, 309.059
369.232, 294.425
370.585, 464.688
371.937, 494.719
373.290, 560.400
374.642, 552.673
375.993, 511.081
377.345, 615.211
378.696, 626.827
380.047, 981.399
381.398, 1283.762
382.748, 1464.405
384.099, 2121.980
385.449, 2756.113
386.799, 4169.296
388.148, 5094.464
389.497, 6275.728
390.847, 6620.004
392.196, 6160.422
393.544, 5532.081
394.893, 4183.860
396.241, 3381.617
397.589, 2652.417
398.936, 2084.930
400.284, 1783.130
401.631, 1518.132
402.978, 1362.826
404.325, 1181.931
405.672, 1087.117
407.018, 1115.355
408.364, 1091.099
409.710, 1510.866
411.055, 1732.626
412.401, 2585.373
413.746, 3659.105
415.091, 5354.824
416.435, 7673.528
417.780, 8517.219
419.124, 8850.897
420.468, 7344.525
421.812, 6248.109
423.155, 5881.646
424.498, 5371.133
425.842, 5610.573
427.184, 5173.962
428.527, 5365.305
429.869, 4540.599
431.211, 3884.847
432.553, 3345.046
433.895, 2488.201
435.236, 2130.309
436.577, 1683.372
437.918, 1473.390
439.259, 1629.364
440.599, 1715.298
441.940, 2503.192
443.280, 3067.045
444.619, 3613.145
445.959, 3625.240
447.298, 2877.973
448.637, 2192.667
449.976, 1326.323
451.315, 1036.940
452.653, 646.519
453.991, 431.060
455.329, 395.565
456.667, 238.055
458.004, 275.517
459.341, 170.978
460.678, 79.403
462.015, 179.778
463.352, 101.110
464.688, 279.394
466.024, 332.641
467.360, 464.851
468.695, 679.030
470.031, 838.178
471.366, 952.199
472.701, 1047.993
474.035, 1233.094
475.370, 1317.658
476.704, 1593.025
478.038, 2090.599
479.372, 2909.469
480.705, 3822.758
482.038, 5275.705
483.371, 7035.651
484.704, 8917.584
486.037, 8289.531
487.369, 7471.503
488.701, 5153.480
490.033, 3394.477
491.365, 2363.486
492.696, 1567.499
494.027, 1278.512
495.358, 955.677
496.689, 863.660
498.019, 902.406
499.350, 883.117
500.680, 1127.799
502.009, 1173.401
503.339, 1411.657
504.668, 1600.413
505.997, 1759.719
507.326, 1985.928
508.655, 1908.047
509.983, 2035.883
511.311, 1871.736
512.639, 1690.593
513.967, 1513.460
515.295, 1109.309
516.622, 944.165
517.949, 577.026
519.276, 373.876
520.602, 303.748
521.929, 45.595
523.255, 4.115
524.581, 98.029
525.906, 26.559
527.232, 133.425
528.557, 164.399
529.882, 51.596
531.207, 80.155
532.531, 41.314
533.855, 111.031
535.179, 72.691
536.503, 132.152
537.827, 35.027
539.150, 36.922
540.473, 8.067
541.796, 13.104
543.119, 60.190
544.441, 85.350
545.764, 70.599
547.086, 70.928
548.407, 151.332
549.729, 76.837
551.050, 262.398
552.371, 117.047
553.692, 139.682
555.013, 147.295
556.333, 18.886
557.653, 79.591
558.973, 248.169
560.293, 321.433
561.612, 527.461
562.932, 519.113
564.251, 447.750
565.569, 588.369
566.888, 589.967
568.206, 777.541
569.524, 989.092
570.842, 1115.619
572.160, 1464.123
573.477, 1380.603
574.795, 1518.059
576.112, 1393.491
577.428, 1170.899
578.745, 1136.284
580.061, 1037.645
581.377, 1001.983
582.693, 1089.298
584.009, 1285.589
585.324, 1675.857
586.639, 1861.104
587.954, 2397.327
589.269, 2486.527
590.583, 2399.705
591.897, 2315.861
593.212, 1742.996
594.525, 1509.107
595.839, 977.198
597.152, 717.267
598.465, 827.314
599.778, 406.340
601.091, 336.344
602.403, 185.329
603.716, 175.289
605.028, 344.226
606.339, 300.142
607.651, 499.038
608.962, 549.914
610.273, 875.769
611.584, 1115.604
612.895, 1212.332
614.205, 1522.902
615.515, 1488.802
616.825, 1775.848
618.135, 1939.445
619.444, 1856.499
620.754, 2031.111
622.063, 1544.337
623.372, 1294.346
624.680, 921.567
625.989, 527.188
627.297, 362.791
628.605, 107.376
629.912, 107.938
631.220, 42.477
632.527, 36.008
633.834, 129.116
635.141, 70.558
636.447, 155.938
637.754, 400.489
639.060, 470.779
640.366, 653.270
641.671, 682.033
642.977, 932.279
644.282, 962.259
645.587, 966.316
646.892, 974.237
648.196, 659.750
649.501, 555.087
650.805, 446.290
652.109, 224.470
653.412, 301.949
654.716, 77.084
656.019, 78.190
657.322, 78.269
658.625, 20.321
659.927, 48.323
661.230, 62.291
662.532, 140.228
663.834, 158.140
665.135, 179.028
666.437, 437.892
667.738, 496.735
669.039, 727.558
670.340, 950.744
671.640, 1188.512
672.940, 1842.014
674.241, 2118.032
675.540, 2793.065
676.840, 3081.029
678.139, 3018.688
679.439, 2924.923
680.738, 2322.469
682.036, 1980.254
683.335, 1533.533
684.633, 1124.061
685.931, 969.632
687.229, 724.273
688.527, 766.110
689.824, 711.263
691.121, 670.791
692.418, 800.150
693.715, 730.750
695.012, 961.833
696.308, 1096.926
697.604, 1270.193
698.900, 1641.149
700.195, 1816.138
701.491, 2443.539
702.786, 3084.858
704.081, 3741.150
705.376, 5063.392
706.670, 6485.817
707.964, 8231.578
709.259, 10410.976
710.552, 12758.956
711.846, 15616.461
713.139, 16422.021
714.433, 17519.309
715.726, 15867.299
717.018, 13695.533
718.311, 11723.758
719.603, 8861.970
720.895, 7160.169
722.187, 5695.360
723.479, 4453.539
724.770, 3714.707
726.061, 2838.865
727.352, 2435.013
728.643, 1996.150
729.934, 1655.278
731.224, 1394.396
732.514, 1137.504
733.804, 1052.603
735.094, 847.694
736.383, 695.775
737.672, 742.848
738.961, 531.913
740.250, 555.969
741.539, 464.017
742.827, 370.058
744.115, 509.091
745.403, 309.116
746.691, 394.134
747.978, 423.146
749.265, 296.151
750.552, 575.149
751.839, 472.141
753.126, 568.127
754.412, 749.107
755.698, 763.082
756.984, 1025.050
758.270, 1118.727
759.555, 1403.362
760.840, 1689.315
762.125, 1884.263
763.410, 2364.207
764.695, 2453.146
765.979, 2724.081
767.263, 2809.012
768.547, 2553.939
769.831, 2621.863
771.114, 2070.789
772.398, 1865.713
773.681, 1705.639
774.964, 1202.569
776.246, 1101.501
777.529, 810.436
778.811, 614.372
780.093, 584.307
781.375, 314.240
782.656, 386.170
783.937, 226.628
785.219, 99.094
786.499, 166.292
787.780, 40.326
789.060, 31.210
790.341, 46.493
791.621, 101.874
792.901, 81.064
794.180, 102.300
795.459, 73.592
796.739, 147.926
798.017, 192.339
799.296, 114.854
800.575, 161.430
801.853, 124.091
803.131, 88.817
804.409, 87.588
805.686, 36.595
806.964, 41.392
808.241, 234.772
809.518, 340.154
810.795, 351.551
812.071, 675.958
813.347, 589.426
814.623, 603.221
815.899, 575.498
817.175, 272.209
818.450, 219.007
819.726, 68.905
821.001, 90.105
822.275, 78.312
823.550, 105.477
824.824, 20.310
826.098, 130.149
827.372, 123.044
828.646, 50.990
829.920, 189.953
831.193, 3.001
832.466, 45.954
833.739, 17.382
835.011, 352.908
836.284, 4.938
837.556, 304.400
838.828, 289.093
840.100, 140.258
841.371, 708.455
842.642, 175.690
843.914, 389.940
845.184, 464.203
846.455, 488.479
847.726, 673.769
848.996, 591.074
850.266, 748.395
851.536, 814.746
852.805, 704.119
854.075, 789.554
855.344, 680.031
856.613, 655.547
857.881, 698.107
859.150, 411.729
860.418, 607.399
861.686, 535.163
862.954, 466.979
864.222, 615.871
865.489, 504.823
866.756, 650.800
868.023, 586.832
869.290, 629.875
870.557, 736.936
871.823, 699.025
873.089, 759.126
874.355, 866.252
875.621, 805.410
876.886, 1114.587
878.152, 1037.791
879.417, 1171.008
880.682, 1327.258
881.946, 1220.542
883.211, 1560.841
884.475, 1566.164
885.739, 1676.504
887.003, 1910.859
888.266, 1890.255
889.530, 2320.667
890.793, 2580.093
892.056, 2815.548
893.318, 3374.019
894.581, 3534.515
895.843, 4103.028
897.105, 4492.567
898.367, 4538.162
899.629, 5116.771
900.890, 4872.399
902.152, 5445.045
903.413, 5628.708
904.673, 5505.385
905.934, 6136.083
907.194, 6004.793
908.454, 5963.529
909.714, 6062.280
910.974, 5324.072
912.234, 5081.881
913.493, 4427.705
914.752, 3683.550
916.011, 3470.411
917.270, 2825.291
918.528, 2536.195
919.786, 2346.116
921.044, 2010.056
922.302, 2150.014
923.560, 1801.986
924.817, 1880.978
926.074, 2043.986
927.331, 1890.011
928.588, 2148.053
929.844, 2120.112
931.101, 2032.189
932.357, 2273.283
933.613, 1906.395
934.868, 2186.524
936.124, 2012.674
937.379, 2067.842
938.634, 2462.032
939.889, 2349.597
941.144, 2657.841
942.398, 2974.153
943.652, 3261.293
944.906, 3914.697
946.160, 4234.902
947.414, 5064.834
948.667, 5587.297
949.920, 5905.030
951.173, 7037.687
952.426, 7267.484
953.678, 7719.691
954.931, 8954.078
956.183, 8908.603
957.435, 10548.151
958.686, 11775.406
959.938, 12725.004
961.189, 14834.630
962.440, 14904.285
963.691, 15223.971
964.941, 14783.688
966.192, 12853.438
967.442, 12073.215
968.692, 10653.019
969.942, 9502.847
971.191, 9672.701
972.441, 8832.576
973.690, 9692.475
974.939, 10107.016
976.187, 10375.977
977.436, 11619.204
978.684, 10832.917
979.932, 11050.621
981.180, 10360.394
982.428, 9230.233
983.675, 8970.327
984.922, 8070.441
986.169, 7830.583
987.416, 7970.725
988.663, 7350.919
989.909, 7871.138
991.155, 7761.380
992.401, 7591.650
993.647, 8601.944
994.893, 8202.265
996.138, 8372.609
997.383, 8643.025
998.628, 8753.417
999.873, 9833.830
1001.117, 9685.985
1002.362, 9736.445
1003.606, 10082.871
1004.850, 8903.377
1006.093, 8613.911
1007.337, 7505.628
1008.580, 6146.453
1009.823, 5588.460
1011.066, 4410.994
1012.308, 3968.649
1013.551, 3436.567
1014.793, 2714.386
1016.035, 2638.109
1017.277, 2270.301
1018.518, 1983.064
1019.760, 2064.683
1021.001, 1782.791
1022.242, 1915.651
1023.483, 2040.157
1024.723, 1876.141
1025.964, 2154.187
1027.204, 1945.998
1028.444, 1803.917
1029.683, 1674.256
1030.923, 1293.890
1032.162, 1268.866
1033.401, 1034.179
1034.640, 874.780
1035.879, 950.850
1037.117, 758.629
1038.355, 762.293
1039.593, 679.561
1040.831, 527.900
1042.069, 700.033
1043.306, 570.605
1044.544, 578.958
1045.781, 713.769
1047.017, 549.141
1048.254, 744.345
1049.490, 811.152
1050.726, 621.815
1051.962, 819.105
1053.198, 731.604
1054.434, 836.007
1055.669, 814.280
1056.904, 647.375
1058.139, 799.668
1059.374, 725.955
1060.608, 673.407
1061.843, 768.804
1063.077, 554.582
1064.311, 646.131
1065.544, 565.787
1066.778, 453.179
1068.011, 563.553
1069.244, 491.216
1070.477, 556.808
1071.710, 628.204
1072.942, 522.842
1074.174, 760.251
1075.406, 785.666
1076.638, 885.312
1077.870, 1169.742
1079.101, 1204.230
1080.332, 1407.886
1081.563, 1452.383
1082.794, 1338.175
1084.025, 1352.636
1085.255, 1103.270
1086.485, 900.003
1087.715, 943.729
1088.945, 654.246
1090.175, 754.739
1091.404, 550.311
1092.633, 459.704
1093.862, 674.484
1095.091, 552.339
1096.319, 535.117
1097.548, 707.888
1098.776, 668.403
1100.004, 872.816
1101.231, 895.639
1102.459, 929.308
1103.686, 1197.869
1104.913, 1024.754
1106.140, 1062.569
1107.367, 1022.662
1108.593, 748.025
1109.819, 876.357
1111.046, 630.346
1112.271, 606.530
1113.497, 572.654
1114.722, 403.738
1115.948, 419.909
1117.173, 400.900
1118.398, 260.890
1119.622, 359.064
1120.847, 283.060
1122.071, 244.339
1123.295, 285.639
1124.519, 154.568
1125.742, 161.803
1126.966, 201.977
1128.189, 48.944
1129.412, 178.199
1130.635, 60.243
1131.857, 97.244
1133.080, 123.765
1134.302, 60.754
1135.524, 95.833
1136.746, 116.967
1137.967, 89.254
1139.188, 93.716
1140.410, 108.521
1141.631, 20.061
1142.851, 94.565
1144.072, 1.349
1145.292, 55.859
1146.512, 27.128
1147.732, 44.969
1148.952, 33.263
1150.172, 112.616
1151.391, 7.765
1152.610, 69.572
1153.829, 30.438
1155.048, 9.301
1156.266, 33.265
1157.484, 23.328
1158.702, 53.824
1159.920, 77.136
1161.138, 2.272
1162.356, 41.951
1163.573, 141.149
1164.790, 39.283
1166.007, 16.192
1167.224, 56.476
1168.440, 10.574
1169.656, 44.546
1170.872, 67.014
1172.088, 17.647
1173.304, 45.198
1174.519, 34.353
1175.735, 66.539
1176.950, 70.218
1178.165, 57.188
1179.379, 29.685
1180.594, 0.958
1181.808, 51.950
1183.022, 88.700
1184.236, 52.448
1185.449, 22.719
1186.663, 38.049
1187.876, 69.453
1189.089, 23.918
1190.302, 24.087
1191.515, 25.693
1192.727, 129.331
1193.939, 94.536
1195.151, 9.676
1196.363, 14.613
1197.575, 69.502
1198.786, 25.458
1199.997, 50.817
1201.208, 181.220
1202.419, 6.933
1203.630, 96.593
1204.840, 56.175
1206.051, 61.559
1207.261, 77.985
1208.470, 26.729
1209.680, 53.063
1210.889, 36.374
1212.099, 4.895
1213.308, 110.349
1214.516, 41.745
1215.725, 60.023
1216.933, 154.195
1218.142, 55.641
1219.350, 138.794
1220.557, 128.016
1221.765, 63.023
1222.972, 120.537
1224.180, 106.880
1225.387, 70.684
1226.593, 111.575
1227.800, 51.981
1229.006, 131.013
1230.213, 86.915
1231.419, 66.282
1232.624, 70.132
1233.830, 125.957
1235.035, 5.935
1236.241, 120.700
1237.446, 34.721
1238.650, 87.428
1239.855, 78.107
1241.059, 10.187
1242.264, 116.482
1243.468, 41.073
1244.671, 47.958
1245.875, 139.495
1247.078, 42.006
1248.282, 48.525
1249.485, 155.981
1250.687, 40.670
1251.890, 104.191
1253.092, 65.564
1254.295, 69.055
1255.497, 132.375
1256.699, 86.667
1257.900, 102.329
1259.102, 112.555
1260.303, 92.859
1261.504, 136.141
1262.705, 137.275
1263.905, 93.382
1265.106, 136.510
1266.306, 81.546
1267.506, 82.502
1268.706, 160.498
1269.905, 95.416
1271.105, 116.329
1272.304, 203.167
1273.503, 109.973
1274.702, 160.746
1275.900, 195.472
1277.099, 78.168
1278.297, 215.813
1279.495, 50.402
1280.693, 135.975
1281.891, 191.458
1283.088, 39.907
1284.285, 123.410
1285.482, 77.774
1286.679, 80.102
1287.876, 140.396
1289.072, 109.608
1290.268, 100.832
1291.464, 197.018
1292.660, 100.455
1293.856, 117.588
1295.051, 75.719
1296.247, 22.758
1297.442, 124.758
1298.637, 93.579
1299.831, 42.267
1301.026, 120.839
1302.220, 11.786
1303.414, 95.598
1304.608, 40.131
1305.802, 28.752
1306.995, 101.252
1308.188, 47.470
1309.381, 43.103
1310.574, 111.924
1311.767, 63.181
1312.960, 75.672
1314.152, 127.500
1315.344, 7.167
1316.536, 124.088
1317.728, 87.557
1318.919, 6.099
1320.110, 121.814
1321.301, 83.407
1322.492, 28.358
1323.683, 44.598
1324.874, 42.828
1326.064, 74.260
1327.254, 97.071
1328.444, 13.083
1329.634, 69.924
1330.823, 38.675
1332.013, 30.618
1333.202, 92.498
1334.391, 8.189
1335.580, 36.406
1336.768, 76.047
1337.956, 35.840
1339.145, 53.013
1340.333, 55.315
1341.520, 44.974
1342.708, 114.394
1343.895, 27.145
1345.083, 51.718
1346.270, 110.451
1347.456, 18.970
1348.643, 44.477
1349.829, 102.802
1351.016, 15.838
1352.202, 155.125
1353.387, 143.299
1354.573, 32.350
1355.759, 155.635
1356.944, 67.921
1358.129, 89.899
1359.314, 151.930
1360.498, 44.092
1361.683, 100.994
1362.867, 111.106
1364.051, 24.194
1365.235, 163.033
1366.419, 40.071
1367.602, 10.033
1368.785, 100.813
1369.968, 34.748
1371.151, 78.385
1372.334, 161.359
1373.517, 23.180
1374.699, 115.944
1375.881, 122.805
1377.063, 57.237
1378.245, 152.724
1379.426, 40.603
1380.608, 100.536
1381.789, 141.243
1382.970, 84.500
1384.150, 83.854
1385.331, 136.693
1386.511, 30.702
1387.691, 173.212
1388.871, 139.620
1390.051, 86.014
1391.231, 193.337
1392.410, 37.464
1393.589, 64.630
1394.768, 156.623
1395.947, 57.863
1397.126, 122.292
1398.304, 149.088
1399.483, 20.951
1400.661, 122.499
1401.838, 61.739
1403.016, 59.020
1404.194, 169.332
1405.371, 104.949
1406.548, 71.944
1407.725, 207.106
1408.901, 80.896
1410.078, 137.292
1411.254, 113.045
1412.430, 65.310
1413.606, 114.521
1414.782, 134.161
1415.958, 78.105
1417.133, 172.422
1418.308, 57.678
1419.483, 97.851
1420.658, 199.772
1421.832, 36.759
1423.007, 143.095
1424.181, 118.241
1425.355, 21.310
1426.529, 157.664
1427.702, 136.120
1428.876, 39.660
1430.049, 135.460
1431.222, 70.278
1432.395, 62.287
1433.567, 131.016
1434.740, 25.237
1435.912, 78.694
1437.084, 104.608
1438.256, 34.651
1439.428, 25.211
1440.599, 94.371
1441.770, 6.844
1442.942, 146.304
1444.112, 100.384
1445.283, 82.331
1446.454, 172.197
1447.624, 15.343
1448.794, 23.860
1449.964, 91.495
1451.134, 35.933
1452.303, 109.981
1453.473, 87.439
1454.642, 59.312
1455.811, 181.415
1456.980, 112.369
1458.148, 74.625
1459.317, 153.538
1460.485, 5.369
1461.653, 79.292
1462.821, 178.360
1463.989, 2.528
1465.156, 151.521
1466.323, 168.649
1467.490, 4.820
1468.657, 179.117
1469.824, 24.507
1470.991, 52.774
1472.157, 247.396
1473.323, 10.991
1474.489, 98.651
1475.655, 113.250
1476.820, 89.995
1477.986, 145.677
1479.151, 81.118
1480.316, 23.909
1481.481, 99.733
1482.645, 86.227
1483.810, 30.977
1484.974, 153.456
1486.138, 49.910
1487.302, 25.410
1488.465, 124.934
1489.629, 44.540
1490.792, 87.762
1491.955, 136.431
1493.118, 11.128
1494.281, 173.849
1495.443, 88.893
1496.606, 44.444
1497.768, 121.967
1498.930, 83.448
1500.091, 56.037
1501.253, 101.576
1502.414, 60.101
1503.575, 99.612
1504.736, 53.088
1505.897, 45.644
1507.058, 111.347
1508.218, 123.938
1509.379, 22.883
1510.539, 154.804
1511.698, 61.456
1512.858, 58.862
1514.018, 201.865
1515.177, 0.000
##END=



