##NAMES=Axinite-(Fe)
##RRUFFID=R060183
##IDEAL CHEMISTRY=Ca_4_Fe^2+^_2_Al_4_[B_2_Si_8_O_30_](OH)_2_
##LOCALITY=Skagit Bluffs, near Manning Park, British Columbia, Canada
##OWNER=RRUFF
##SOURCE=Lloyd Twaites
##DESCRIPTION=Light-pink transparent axe-head-shaped single crystal
##STATUS=The identification of this mineral has been confirmed by X-ray diffraction and chemical analysis
##URL=rruff.info/R060183
##MEASURED CHEMISTRY=Ca_2.00_(Fe^2+^_0.58_Mn_0.23_Mg_0.19_)Al_2.00_B_1.00_Si_4.00_O_15_(OH)
##PIN_ID=L00798
##ORIENTATION=Laser parallel to -b* (0 -1 0). Fiducial mark perpendicular to laser is parallel to -c [0 0 -1]
52.67100, 0.0000000E+00
53.91000, 80.94653
55.14900, 111.7256
56.38700, 143.2563
57.62600, 179.7880
58.86400, 238.3428
60.10300, 352.9035
61.34100, 363.1791
62.57900, 324.3568
63.81700, 211.2527
65.05400, 102.8826
66.29200, 40.94000
67.52900, 14.70624
68.76700, 30.20648
70.00400, 59.61963
71.24100, 30.37317
72.47700, 63.32666
73.71400, 51.72864
74.95100, 19.73608
76.18700, 100.5164
77.42300, 132.9054
78.65900, 184.3175
79.89500, 237.6490
81.13100, 340.8066
82.36700, 532.7061
83.60200, 816.2712
84.83700, 1062.433
86.07200, 1336.129
87.30800, 1682.307
88.54200, 2195.922
89.77700, 2775.934
91.01200, 3618.261
92.24600, 4541.812
93.48000, 5394.493
94.71400, 6203.221
95.94800, 7340.947
97.18200, 7979.675
98.41600, 9135.389
99.64900, 10296.04
100.8830, 11507.61
102.1160, 12636.05
103.3490, 14195.34
104.5820, 15920.45
105.8150, 17803.37
107.0470, 19980.08
108.2800, 21209.55
109.5120, 20408.77
110.7440, 16701.73
111.9760, 13213.42
113.2080, 10633.82
114.4400, 8619.908
115.6710, 6963.688
116.9030, 5644.143
118.1340, 4884.262
119.3650, 4282.048
120.5960, 3786.522
121.8270, 3574.698
123.0580, 3477.565
124.2880, 3354.109
125.5190, 3142.315
126.7490, 3010.069
127.9790, 3016.041
129.2090, 3107.203
130.4390, 2967.528
131.6680, 3059.004
132.8980, 3153.610
134.1270, 3474.313
135.3560, 3817.118
136.5850, 4349.105
137.8140, 4972.461
139.0430, 5343.504
140.2710, 5500.215
141.5000, 5382.729
142.7280, 5397.568
143.9560, 5409.703
145.1840, 5555.130
146.4120, 5930.862
147.6390, 6686.909
148.8670, 7366.278
150.0940, 7500.980
151.3210, 7613.012
152.5490, 7498.381
153.7750, 7764.090
155.0020, 7819.136
156.2290, 7984.522
157.4550, 7935.251
158.6810, 7564.322
159.9080, 7442.734
161.1340, 7483.491
162.3590, 8013.590
163.5850, 8474.027
164.8110, 9827.808
166.0360, 11223.92
167.2610, 13273.38
168.4860, 14975.18
169.7110, 16240.31
170.9360, 16472.79
172.1610, 15457.59
173.3850, 13887.73
174.6100, 12132.20
175.8340, 10138.00
177.0580, 8525.131
178.2820, 6762.594
179.5050, 5368.381
180.7290, 4303.494
181.9520, 3344.930
183.1760, 2699.701
184.3990, 2334.978
185.6220, 2262.969
186.8450, 2284.751
188.0670, 2375.351
189.2900, 2644.510
190.5120, 3334.960
191.7340, 4228.686
192.9560, 4594.686
194.1780, 4791.959
195.4000, 5002.504
196.6220, 5072.317
197.8430, 5747.399
199.0640, 6598.743
200.2860, 7827.648
201.5070, 9329.276
202.7270, 11008.61
203.9480, 12530.62
205.1690, 13726.37
206.3890, 14422.92
207.6090, 14711.28
208.8290, 14583.38
210.0490, 13794.74
211.2690, 12905.79
212.4890, 11697.02
213.7080, 10196.03
214.9280, 8593.263
216.1470, 7246.812
217.3660, 6145.611
218.5850, 4892.425
219.8030, 3837.883
221.0220, 2913.581
222.2400, 2188.497
223.4590, 1548.632
224.6770, 1140.441
225.8950, 638.0718
227.1120, 398.4604
228.3300, 222.8135
229.5480, 4.029785
230.7650, 70.94043
231.9820, 173.1768
233.1990, 351.5610
234.4160, 589.2705
235.6330, 961.3618
236.8490, 1484.819
238.0660, 2054.663
239.2820, 2743.903
240.4980, 3389.536
241.7140, 4448.546
242.9300, 4943.916
244.1460, 5608.611
245.3610, 6030.604
246.5770, 6264.875
247.7920, 6226.420
249.0070, 6366.233
250.2220, 6382.312
251.4370, 6421.653
252.6510, 6486.253
253.8660, 6178.110
255.0800, 6250.219
256.2940, 5954.577
257.5080, 5720.182
258.7220, 6093.029
259.9360, 6173.121
261.1490, 6254.446
262.3630, 6677.010
263.5760, 7460.805
264.7890, 8557.830
266.0020, 9811.082
267.2150, 11169.56
268.4270, 12742.26
269.6400, 14165.17
270.8520, 15309.30
272.0640, 16241.65
273.2760, 16614.20
274.4880, 16405.97
275.7000, 15535.95
276.9120, 14438.14
278.1230, 12808.53
279.3340, 11246.14
280.5450, 10124.95
281.7560, 8983.976
282.9670, 8166.209
284.1780, 7442.649
285.3880, 7142.296
286.5980, 6802.144
287.8090, 7392.187
289.0190, 8435.432
290.2290, 8285.873
291.4380, 9269.507
292.6480, 9953.336
293.8570, 11016.36
295.0670, 11680.57
296.2760, 13211.98
297.4850, 14914.57
298.6930, 15940.36
299.9020, 17104.33
301.1110, 18512.48
302.3190, 19388.83
303.5270, 20490.36
304.7350, 21348.06
305.9430, 20805.95
307.1510, 19616.02
308.3580, 17118.27
309.5660, 14852.69
310.7730, 12472.29
311.9800, 10497.30
313.1870, 8801.815
314.3940, 7781.188
315.6010, 7115.376
316.8070, 6700.421
318.0130, 6258.421
319.2200, 5896.417
320.4260, 5458.855
321.6310, 5135.440
322.8370, 4484.119
324.0430, 4325.267
325.2480, 4166.829
326.4540, 4095.544
327.6590, 4131.407
328.8640, 3687.418
330.0680, 3660.577
331.2730, 3083.878
332.4780, 2866.318
333.6820, 2484.896
334.8860, 2638.607
336.0900, 2979.451
337.2940, 3447.427
338.4980, 4204.534
339.7010, 5288.769
340.9050, 6585.133
342.1080, 8187.625
343.3110, 9529.241
344.5140, 10719.99
345.7170, 12023.91
346.9200, 12974.01
348.1220, 14604.34
349.3240, 15710.90
350.5270, 16378.74
351.7290, 15964.84
352.9310, 14377.22
354.1320, 12104.85
355.3340, 9697.507
356.5350, 7370.532
357.7370, 5417.749
358.9380, 3792.152
360.1390, 2503.751
361.3400, 1506.537
362.5400, 768.5098
363.7410, 265.6553
364.9410, 193.0234
366.1410, 316.5752
367.3410, 486.0273
368.5410, 490.4321
369.7410, 426.7539
370.9400, 381.9639
372.1400, 446.0342
373.3390, 327.9893
374.5380, 308.8740
375.7370, 67.52588
376.9360, 136.9927
378.1350, 577.6753
379.3330, 1320.783
380.5310, 2011.713
381.7300, 3167.075
382.9280, 4439.232
384.1260, 6017.903
385.3230, 7670.812
386.5210, 9590.436
387.7180, 11222.96
388.9160, 12193.99
390.1130, 12568.08
391.3100, 12560.27
392.5060, 11612.58
393.7030, 10456.01
394.9000, 9082.564
396.0960, 7622.239
397.2920, 6308.035
398.4880, 5240.946
399.6840, 4392.976
400.8800, 3671.990
402.0750, 3201.380
403.2710, 2885.752
404.4660, 2718.235
405.6610, 2870.831
406.8560, 3549.536
408.0510, 4385.352
409.2450, 5373.274
410.4400, 6878.305
411.6340, 8898.444
412.8280, 11346.69
414.0220, 14266.04
415.2160, 16643.49
416.4100, 17868.05
417.6030, 17182.71
418.7970, 15718.48
419.9900, 14244.35
421.1830, 13387.32
422.3760, 13170.39
423.5690, 13112.56
424.7610, 13467.82
425.9540, 13866.18
427.1460, 14317.64
428.3380, 13927.20
429.5300, 13322.84
430.7220, 11801.58
431.9140, 10367.41
433.1050, 8801.332
434.2970, 7312.344
435.4880, 5928.443
436.6790, 4952.629
437.8700, 4334.901
439.0610, 4072.257
440.2510, 4227.699
441.4420, 4515.223
442.6320, 4615.828
443.8220, 4340.405
445.0120, 4251.283
446.2020, 3417.128
447.3910, 2706.052
448.5810, 1831.052
449.7700, 1302.128
450.9600, 821.2783
452.1490, 287.5029
453.3370, 206.7998
454.5260, 31.16846
455.7150, 171.4121
456.9030, 202.0244
458.0910, 384.6831
459.2800, 412.4727
460.4670, 405.4062
461.6550, 509.4849
462.8430, 511.7568
464.0300, 343.2266
465.2180, 265.8184
466.4050, 38.49951
467.5920, 246.8545
468.7790, 463.2690
469.9650, 713.7437
471.1520, 923.2769
472.3380, 1259.868
473.5250, 1558.517
474.7110, 2027.221
475.8970, 2803.979
477.0820, 3778.794
478.2680, 5091.660
479.4540, 6455.582
480.6390, 7979.554
481.8240, 9814.577
483.0090, 11257.65
484.1940, 11292.78
485.3780, 10256.95
486.5630, 8397.168
487.7470, 6413.437
488.9320, 4471.210
490.1160, 3026.541
491.3000, 1930.068
492.4830, 1151.638
493.6670, 568.2075
494.8500, 314.6641
496.0340, 247.2422
497.2170, 122.8550
498.4000, 298.2949
499.5820, 275.1968
500.7650, 471.8535
501.9480, 740.5391
503.1300, 974.2510
504.3120, 1212.988
505.4940, 1359.751
506.6760, 1568.538
507.8580, 1749.321
509.0390, 2040.222
510.2210, 2130.008
511.4020, 1804.218
512.5830, 1863.095
513.7640, 1505.250
514.9450, 1343.915
516.1250, 1015.155
517.3060, 608.4565
518.4860, 396.2539
519.6660, 296.7124
520.8460, 103.0024
522.0260, 60.79248
523.2060, 165.6196
524.3850, 225.5361
525.5650, 229.5903
526.7440, 177.8281
527.9230, 117.3179
529.1020, 8.751465
530.2810, 119.6372
531.4590, 272.9956
532.6380, 440.3545
533.8160, 608.7139
534.9940, 651.0747
536.1720, 866.4346
537.3500, 1100.793
538.5270, 1154.151
539.7050, 1322.506
540.8820, 1636.858
542.0590, 1892.206
543.2360, 2079.548
544.4130, 2184.885
545.5900, 2148.246
546.7660, 2224.630
547.9430, 2163.070
549.1190, 2001.572
550.2950, 1884.122
551.4710, 1852.751
552.6470, 1928.468
553.8220, 2178.274
554.9980, 2507.166
556.1730, 2867.122
557.3480, 3311.158
558.5230, 3824.260
559.6980, 4148.389
560.8730, 4287.574
562.0470, 4374.793
563.2220, 4351.004
564.3960, 4711.203
565.5700, 4980.380
566.7440, 5589.540
567.9170, 6085.679
569.0910, 6679.797
570.2640, 7321.892
571.4380, 7889.964
572.6110, 8288.016
573.7840, 8298.042
574.9570, 7994.043
576.1290, 7904.020
577.3020, 7698.970
578.4740, 7463.894
579.6460, 7541.790
580.8180, 7906.658
581.9900, 8324.497
583.1620, 9248.309
584.3330, 10152.09
585.5040, 10752.84
586.6760, 11737.56
587.8470, 12016.25
589.0180, 11673.90
590.1880, 11047.52
591.3590, 9547.108
592.5290, 8299.663
593.7000, 7053.182
594.8700, 5524.666
596.0400, 4741.877
597.2090, 3763.721
598.3790, 3218.841
599.5490, 2747.282
600.7180, 2622.996
601.8870, 2355.884
603.0560, 2350.910
604.2250, 2358.618
605.3940, 2687.308
606.5620, 2747.029
607.7300, 2871.405
608.8990, 3093.489
610.0670, 3366.542
611.2350, 3563.565
612.4020, 3429.556
613.5700, 3679.515
614.7370, 3601.440
615.9050, 3702.335
617.0720, 3583.195
618.2390, 3514.022
619.4060, 3240.814
620.5720, 3033.572
621.7390, 2737.295
622.9050, 1981.981
624.0710, 1620.633
625.2370, 1142.247
626.4030, 793.8242
627.5690, 421.3647
628.7340, 206.8667
629.9000, 51.30664
631.0650, 76.35889
632.2300, 160.1919
633.3950, 158.7354
634.5600, 187.4951
635.7240, 38.98145
636.8890, 111.3813
638.0530, 249.8237
639.2170, 367.0386
640.3810, 460.2085
641.5450, 609.3369
642.7080, 760.4243
643.8720, 751.4702
645.0350, 642.4736
646.1980, 480.4355
647.3610, 477.3550
648.5240, 192.2529
649.6870, 130.7002
650.8490, 59.21484
652.0120, 92.23926
653.1740, 149.6865
654.3360, 150.7388
655.4980, 213.4131
656.6600, 55.76318
657.8210, 44.51611
658.9830, 207.2070
660.1440, 283.4590
661.3050, 651.6367
662.4660, 864.1597
663.6270, 1073.244
664.7870, 1474.887
665.9480, 2095.454
667.1080, 2756.220
668.2680, 3645.689
669.4280, 5484.348
670.5880, 6323.500
671.7480, 7632.229
672.9070, 8762.083
674.0670, 9787.283
675.2260, 10818.44
676.3850, 11431.55
677.5440, 11365.62
678.7030, 10702.64
679.8610, 9522.624
681.0200, 8344.560
682.1780, 7113.452
683.3360, 6046.300
684.4940, 5080.701
685.6520, 4294.673
686.8090, 3799.854
687.9670, 3439.333
689.1240, 3279.681
690.2810, 3313.919
691.4380, 3460.476
692.5950, 3766.414
693.7520, 4081.795
694.9080, 4573.854
696.0650, 5648.200
697.2210, 6605.865
698.3770, 7190.689
699.5330, 8576.590
700.6880, 10287.19
701.8440, 12497.45
702.9990, 15126.97
704.1550, 18480.89
705.3100, 22445.76
706.4650, 27251.57
707.6190, 32518.32
708.7740, 37963.02
709.9290, 43888.65
711.0830, 49066.25
712.2370, 52448.75
713.3910, 53989.23
714.5450, 53062.64
715.6980, 49397.00
716.8520, 44462.30
718.0050, 38451.54
719.1580, 32492.73
720.3110, 26893.86
721.4640, 22142.95
722.6170, 18131.98
723.7700, 14938.95
724.9220, 12311.86
726.0740, 10119.73
727.2260, 8695.536
728.3780, 7353.291
729.5300, 6154.993
730.6810, 5370.643
731.8330, 4669.240
732.9840, 4168.785
734.1350, 3511.277
735.2860, 3397.728
736.4370, 2822.178
737.5880, 2490.636
738.7380, 2421.140
739.8880, 2160.702
741.0390, 1954.317
742.1890, 1906.012
743.3380, 1748.788
744.4880, 1561.607
745.6380, 1650.453
746.7870, 1469.263
747.9360, 1481.024
749.0850, 1527.738
750.2340, 1592.404
751.3830, 1621.022
752.5310, 1796.595
753.6800, 1942.119
754.8280, 1989.598
755.9760, 2401.031
757.1240, 2653.419
758.2720, 3055.761
759.4190, 3534.059
760.5670, 4041.312
761.7140, 4480.522
762.8610, 5221.688
764.0080, 5557.811
765.1550, 5935.891
766.3020, 6111.930
767.4480, 6163.466
768.5950, 5898.451
769.7410, 5407.243
770.8870, 4928.993
772.0330, 4494.748
773.1780, 3976.618
774.3240, 3362.367
775.4690, 2723.083
776.6140, 2356.961
777.7590, 2044.377
778.9040, 1807.036
780.0490, 1479.666
781.1940, 1141.268
782.3380, 996.8403
783.4820, 699.3857
784.6260, 657.9038
785.7700, 463.3955
786.9140, 220.7817
788.0580, 261.6704
789.2010, 249.8438
790.3450, 77.90039
791.4880, 87.27686
792.6310, 13.47461
793.7730, 96.34082
794.9160, 98.66748
796.0590, 126.5269
797.2010, 155.0083
798.3430, 209.2002
799.4850, 164.5459
800.6270, 164.9731
801.7690, 107.4531
802.9100, 105.0586
804.0520, 59.64941
805.1930, 384.3032
806.3340, 679.0146
807.4750, 759.7573
808.6160, 1004.506
809.7560, 1232.246
810.8970, 1421.975
812.0370, 1565.695
813.1770, 1421.406
814.3170, 1312.109
815.4570, 931.8037
816.5960, 755.4912
817.7360, 558.1719
818.8750, 342.8462
820.0140, 145.5146
821.1530, 84.82178
822.2920, 97.22168
823.4310, 216.6895
824.5690, 241.2856
825.7070, 208.0229
826.8460, 321.8818
827.9840, 361.9199
829.1220, 371.1577
830.2590, 365.5962
831.3970, 284.2324
832.5340, 356.0205
833.6710, 300.9971
834.8080, 163.1304
835.9450, 280.3462
837.0820, 199.7046
838.2190, 35.16016
839.3550, 13.62988
840.4910, 48.89453
841.6270, 162.4243
842.7630, 271.9604
843.8990, 447.5034
845.0350, 486.0532
846.1700, 530.6108
847.3060, 711.1777
848.4410, 784.7534
849.5760, 769.3389
850.7100, 826.9346
851.8450, 926.5420
852.9800, 850.1611
854.1140, 941.7920
855.2480, 910.4365
856.3820, 948.0942
857.5160, 930.7666
858.6500, 903.4536
859.7830, 1009.156
860.9170, 969.8745
862.0500, 1109.610
863.1830, 1040.363
864.3160, 1081.133
865.4480, 1152.923
866.5810, 1287.732
867.7130, 1387.560
868.8460, 1336.409
869.9780, 1427.279
871.1100, 1398.172
872.2410, 1434.086
873.3730, 1620.023
874.5050, 1799.983
875.6360, 1771.966
876.7670, 2041.975
877.8980, 2127.008
879.0290, 2258.070
880.1590, 2509.157
881.2900, 2576.272
882.4200, 2817.414
883.5500, 3010.588
884.6800, 3548.796
885.8100, 4085.043
886.9400, 4485.316
888.0690, 5115.648
889.1990, 5772.007
890.3280, 6800.397
891.4570, 7872.829
892.5860, 8809.303
893.7140, 9991.818
894.8430, 11174.38
895.9710, 12596.98
897.1000, 13642.62
898.2280, 14549.31
899.3560, 15329.04
900.4830, 15769.96
901.6110, 16076.62
902.7380, 16149.49
903.8660, 15938.44
904.9930, 15662.50
906.1200, 14810.70
907.2460, 14236.08
908.3730, 13485.61
909.5000, 12619.31
910.6260, 11680.15
911.7520, 10510.02
912.8780, 9582.982
914.0040, 8543.004
915.1290, 7565.093
916.2550, 6795.253
917.3800, 5967.485
918.5050, 5387.785
919.6300, 5026.144
920.7550, 4750.568
921.8800, 4462.038
923.0040, 4381.918
924.1290, 4502.378
925.2530, 4372.904
926.3770, 4525.849
927.5010, 4649.389
928.6250, 4767.545
929.7480, 4855.316
930.8720, 4733.447
931.9950, 4595.137
933.1180, 4277.264
934.2410, 4070.187
935.3640, 3934.105
936.4860, 3789.176
937.6090, 3381.037
938.7310, 3578.608
939.8530, 3524.884
940.9750, 3706.876
942.0970, 3959.922
943.2180, 4378.031
944.3400, 4687.192
945.4610, 5305.406
946.5820, 5843.672
947.7030, 6299.015
948.8240, 7062.412
949.9450, 7705.866
951.0650, 8529.373
952.1860, 9340.946
953.3060, 10230.61
954.4260, 11062.33
955.5460, 12112.11
956.6650, 13035.36
957.7850, 14732.05
958.9040, 16567.55
960.0230, 18168.69
961.1420, 19835.12
962.2610, 21087.61
963.3800, 21879.79
964.4990, 21843.61
965.6170, 21111.00
966.7350, 20508.74
967.8530, 19523.23
968.9710, 18529.41
970.0890, 18261.45
971.2070, 18286.42
972.3240, 18753.71
973.4410, 19945.34
974.5580, 21474.74
975.6750, 22968.74
976.7920, 24516.82
977.9090, 25688.97
979.0250, 26211.20
980.1410, 26439.49
981.2580, 25924.86
982.3740, 24952.30
983.4890, 23818.82
984.6050, 23119.41
985.7200, 22338.07
986.8360, 21846.40
987.9510, 21334.61
989.0660, 21300.48
990.1810, 21148.43
991.2950, 21226.44
992.4100, 21254.53
993.5240, 21247.68
994.6390, 21715.92
995.7530, 21831.23
996.8660, 22296.61
997.9800, 22849.08
999.0940, 23185.61
1000.207, 23761.22
1001.320, 24034.88
1002.433, 24183.63
1003.546, 23776.51
1004.659, 23294.40
1005.772, 22148.35
1006.884, 20579.38
1007.996, 18604.47
1009.108, 16674.63
1010.220, 14528.25
1011.332, 12705.75
1012.444, 11009.00
1013.555, 9472.659
1014.666, 8089.723
1015.777, 7273.137
1016.888, 6435.769
1017.999, 5635.563
1019.110, 4948.064
1020.220, 4511.902
1021.331, 4131.771
1022.441, 3931.740
1023.551, 3889.304
1024.661, 3637.191
1025.770, 3633.860
1026.880, 3491.904
1027.989, 3514.775
1029.098, 3234.759
1030.207, 3123.590
1031.316, 2898.803
1032.425, 2771.173
1033.533, 2706.647
1034.642, 2634.795
1035.750, 2615.697
1036.858, 2679.669
1037.966, 2687.423
1039.073, 2779.960
1040.181, 2932.520
1041.288, 2792.035
1042.396, 2922.927
1043.503, 3122.635
1044.610, 3087.578
1045.716, 3116.256
1046.823, 3244.334
1047.929, 3501.725
1049.036, 3699.264
1050.142, 3973.227
1051.248, 4231.483
1052.353, 4558.550
1053.459, 4829.314
1054.564, 5106.851
1055.670, 5278.983
1056.775, 5141.645
1057.880, 5110.170
1058.985, 4897.338
1060.089, 4577.633
1061.194, 4427.962
1062.298, 3910.037
1063.402, 3381.556
1064.506, 3011.763
1065.610, 2765.379
1066.713, 2370.837
1067.817, 2138.054
1068.920, 2161.930
1070.023, 1862.814
1071.126, 1957.533
1072.229, 1954.388
1073.332, 2116.245
1074.435, 2400.397
1075.537, 2589.495
1076.639, 3002.452
1077.741, 3506.930
1078.843, 3897.202
1079.945, 4396.271
1081.046, 4724.701
1082.148, 4911.255
1083.249, 4965.170
1084.350, 4957.053
1085.451, 4710.708
1086.551, 4280.689
1087.652, 3929.201
1088.752, 3280.079
1089.853, 2899.530
1090.953, 2601.227
1092.053, 2517.239
1093.152, 2269.150
1094.252, 2095.394
1095.351, 2161.647
1096.451, 2113.163
1097.550, 2157.198
1098.649, 2274.975
1099.748, 2416.618
1100.846, 2474.484
1101.945, 2735.312
1103.043, 2831.164
1104.141, 2797.099
1105.239, 2888.166
1106.337, 2823.471
1107.434, 2863.907
1108.532, 2702.872
1109.629, 2448.820
1110.726, 2082.478
1111.823, 1925.338
1112.920, 1798.228
1114.017, 1484.137
1115.113, 1325.389
1116.210, 1224.642
1117.306, 947.0337
1118.402, 960.4570
1119.498, 809.3530
1120.593, 677.6108
1121.689, 655.6914
1122.784, 511.6924
1123.879, 581.3413
1124.974, 507.1401
1126.069, 318.2866
1127.164, 362.0190
1128.259, 272.4131
1129.353, 283.6123
1130.447, 269.7827
1131.541, 175.2227
1132.635, 203.4839
1133.729, 196.5801
1134.822, 1.754883
1135.916, 50.69434
1137.009, 65.87744
1138.102, 114.3501
1139.195, 43.40625
1140.288, 62.37646
1141.380, 24.45996
1142.473, 12.47461
1143.565, 44.09717
1144.657, 13.06104
1145.749, 29.65674
1146.841, 39.89307
1147.932, 43.87354
1149.024, 73.87354
1150.115, 87.74756
1151.206, 49.24121
1152.297, 162.8882
1153.388, 77.76123
1154.479, 21.66602
1155.569, 80.04688
1156.659, 72.06348
1157.750, 73.24609
1158.839, 73.74707
1159.929, 69.28906
1161.019, 62.78809
1162.108, 46.06445
1163.198, 56.58545
1164.287, 35.28613
1165.376, 57.02051
1166.465, 71.79883
1167.553, 139.1201
1168.642, 184.8486
1169.730, 161.9473
1170.818, 174.7290
1171.906, 138.8389
1172.994, 93.79346
1174.082, 135.4033
1175.170, 24.22021
1176.257, 48.86426
1177.344, 83.81982
1178.431, 85.67773
1179.518, 100.9785
1180.605, 97.73486
1181.691, 81.62891
1182.778, 52.73291
1183.864, 60.94775
1184.950, 9.327637
1186.036, 29.35303
1187.122, 19.00098
1188.207, 77.84766
1189.292, 5.701172
1190.378, 52.73047
1191.463, 34.58789
1192.548, 72.45117
1193.632, 0.5488280
1194.717, 153.0903
1195.801, 10.40332
1196.886, 86.16992
1197.970, 13.00586
1199.054, 59.54688
1200.137, 73.98828
1201.221, 22.18262
1202.305, 116.2144
1203.388, 148.2896
1204.471, 81.19092
1205.554, 7.995605
1206.637, 163.9326
1207.719, 74.98633
1208.802, 98.63916
1209.884, 30.53369
1210.966, 95.64551
1212.048, 58.12256
1213.130, 129.5444
1214.212, 19.29590
1215.293, 61.23730
1216.374, 57.95703
1217.456, 129.3530
1218.536, 42.44336
1219.617, 33.47510
1220.698, 134.7617
1221.778, 113.6753
1222.859, 56.60010
1223.939, 116.4189
1225.019, 57.18701
1226.099, 120.1255
1227.178, 104.7710
1228.258, 1.359863
1229.337, 43.85059
1230.417, 94.26172
1231.496, 158.6099
1232.574, 166.0820
1233.653, 170.2329
1234.732, 165.4189
1235.810, 146.5483
1236.888, 100.6211
1237.966, 200.6245
1239.044, 123.5732
1240.122, 139.4644
1241.199, 245.4463
1242.277, 134.3022
1243.354, 136.2305
1244.431, 186.8911
1245.508, 127.4941
1246.585, 178.0293
1247.661, 178.2383
1248.738, 276.9429
1249.814, 205.3042
1250.890, 242.6064
1251.966, 265.8506
1253.042, 175.0942
1254.117, 168.2188
1255.193, 152.6650
1256.268, 131.2744
1257.343, 146.1948
1258.418, 156.4141
1259.493, 251.8286
1260.567, 213.5547
1261.642, 237.2188
1262.716, 277.8359
1263.790, 197.4146
1264.864, 221.0571
1265.938, 263.5942
1267.011, 222.0532
1268.085, 297.5278
1269.158, 320.5513
1270.231, 275.9580
1271.304, 317.9487
1272.377, 240.1260
1273.450, 303.3472
1274.522, 299.2349
1275.594, 281.5483
1276.666, 301.5127
1277.738, 302.4507
1278.810, 265.6611
1279.882, 288.5610
1280.953, 316.1279
1282.025, 361.6948
1283.096, 198.1792
1284.167, 367.2139
1285.238, 252.7520
1286.308, 280.6685
1287.379, 379.2266
1288.449, 367.6206
1289.519, 244.0776
1290.589, 356.6909
1291.659, 308.9243
1292.729, 529.5430
1293.798, 410.7812
1294.868, 710.2939
1295.937, 228.5400
1297.006, 285.3354
1298.075, 166.0415
1299.143, 143.9604
1300.212, 244.8530
1301.280, 202.7891
1302.348, 151.3452
1303.416, 154.0801
1304.484, 135.0562
1305.552, 93.33301
1306.620, 134.6782
1307.687, 168.7051
1308.754, 173.6909
1309.821, 120.5752
1310.888, 109.3335
1311.955, 106.6592
1313.021, 147.3359
1314.088, 137.4683
1315.154, 123.7104
1316.220, 138.6729
1317.286, 123.2598
1318.352, 136.4492
1319.417, 102.5127
1320.483, 102.7407
1321.548, 95.03809
1322.613, 163.9224
1323.678, 165.1558
1324.743, 133.0205
1325.807, 99.08838
1326.872, 120.4600
1327.936, 129.3208
1329.000, 176.2217
1330.064, 200.5293
1331.128, 181.4961
1332.191, 214.5874
1333.255, 275.2349
1334.318, 177.8149
1335.381, 140.5234
1336.444, 279.6997
1337.507, 174.0679
1338.569, 93.94727
1339.632, 242.6914
1340.694, 299.7988
1341.756, 131.1855
1342.818, 179.8164
1343.880, 281.7222
1344.941, 146.2915
1346.003, 209.3125
1347.064, 254.7524
1348.125, 126.8540
1349.186, 245.7397
1350.247, 199.1875
1351.308, 216.0215
1352.368, 206.6235
1353.428, 147.1631
1354.489, 292.4873
1355.549, 230.3755
1356.608, 289.6011
1357.668, 239.3027
1358.727, 242.5708
1359.787, 171.9307
1360.846, 241.2852
1361.905, 222.7524
1362.964, 218.9702
1364.022, 292.9399
1365.081, 286.7568
1366.139, 287.0239
1367.197, 190.6406
1368.255, 151.3335
1369.313, 169.5508
1370.371, 135.7998
1371.428, 202.2871
1372.486, 207.2822
1373.543, 253.0972
1374.600, 185.7476
1375.657, 178.3438
1376.713, 182.4419
1377.770, 212.3750
1378.826, 192.2388
1379.882, 167.1543
1380.938, 233.3975
1381.994, 208.6338
1383.050, 238.3232
1384.106, 249.4268
1385.161, 242.2456
1386.216, 248.3433
1387.271, 231.4106
1388.326, 200.6704
1389.381, 166.0786
1390.435, 160.2578
1391.490, 110.5596
1392.544, 137.6865
1393.598, 141.0503
1394.652, 121.0864
1395.705, 34.67188
1396.759, 107.1416
1397.812, 97.38770
1398.866, 82.75684
1399.919, 133.6465
1400.972, 114.9204
1402.024, 204.0581
1403.077, 192.0928
1404.129, 111.1807
1405.181, 40.24756
1406.233, 208.1401
1407.285, 193.1206
1408.337, 144.1646
1409.389, 140.3457
1410.440, 104.5342
1411.491, 156.6299
1412.542, 107.3086
1413.593, 225.0972
1414.644, 167.1494
1415.695, 250.1855
1416.745, 173.7739
1417.795, 139.7827
1418.845, 206.6250
1419.895, 135.5908
1420.945, 189.5366
1421.995, 211.4683
1423.044, 192.8745
1424.093, 171.6206
1425.142, 164.5845
1426.191, 177.3320
1427.240, 204.0620
1428.289, 207.6538
1429.337, 230.4888
1430.385, 220.1313
1431.433, 208.2017
1432.481, 180.5225
1433.529, 158.2490
1434.577, 92.19336
1435.624, 128.8159
1436.672, 104.0200
1437.719, 151.2817
1438.766, 101.5562
1439.812, 45.14844
1440.859, 178.4917
1441.905, 172.9072
1442.952, 145.4717
1443.998, 125.9492
1445.044, 114.4292
1446.090, 61.62451
1447.135, 200.7969
1448.181, 146.8257
1449.226, 186.8911
1450.271, 128.3721
1451.316, 159.0151
1452.361, 182.2241
1453.405, 80.47314
1454.450, 79.73877
1455.494, 33.80713
1456.538, 74.29834
1457.582, 41.71094
1458.626, 73.52588
1459.670, 175.6885
1460.713, 112.1113
1461.757, 184.1660
1462.800, 148.4746
1463.843, 27.54639
1464.886, 2.878906
1465.928, 95.25635
1466.971, 67.53125
1468.013, 0.1142580
1469.055, 122.2197
1470.097, 171.5469
1471.139, 175.6631
1472.181, 23.41895
1473.222, 84.82373
1474.263, 81.06152
1475.305, 72.74414
1476.346, 64.45996
1477.386, 49.57568
1478.427, 78.76270
1479.468, 111.9683
1480.508, 88.17822
1481.548, 105.3604
1482.588, 22.17871
1483.628, 174.0576
1484.668, 105.8691
1485.707, 134.3115
1486.747, 46.82959
1487.786, 96.69727
1488.825, 159.5542
1489.864, 116.7632
1490.902, 197.8384
1491.941, 18.37842
1492.979, 38.49219
1494.017, 11.38867
1495.055, 154.7324
1496.093, 33.14160
1497.131, 38.97852
1498.168, 164.1128
1499.206, 94.26318
1500.243, 164.4419
1501.280, 100.6372
1502.317, 22.85742
1503.354, 135.1206
1504.390, 125.1982
1505.426, 151.4023
1506.463, 31.08301
1507.499, 139.4121
1508.535, 96.76465
1509.570, 85.74463
1510.606, 94.15332
1511.641, 2.417480
1512.676, 196.0303
1513.711, 193.0674
1514.746, 157.9985
1515.781, 143.2876
1516.816, 79.72949
1517.850, 114.1748
1518.884, 83.59033
1519.918, 29.73389
1520.952, 151.6919
1521.986, 121.0630
1523.019, 120.8535
1524.053, 83.53223
1525.086, 33.85645
1526.119, 224.7402
1527.152, 194.6963
1528.185, 192.8442
1529.217, 81.80566
1530.250, 76.35107
1531.282, 131.3218
1532.314, 221.0815
1533.346, 83.49316
1534.377, 164.7627
1535.409, 73.74316
1536.440, 127.1826
1537.472, 56.77686
1538.503, 62.07812
1539.534, 125.6665
1540.564, 149.8188
1541.595, 139.8916
1542.625, 165.0308
1543.656, 56.51562
1544.686, 124.2280
1545.716, 164.8320
1546.745, 52.55225
1547.775, 26.00781
1548.804, 76.53467
1549.834, 104.3994
1550.863, 58.18213
1551.892, 88.84814
1552.920, 163.6978
1553.949, 240.9902
1554.977, 218.2861
1556.006, 250.6069
1557.034, 133.9521
1558.062, 97.50049
1559.089, 152.1582
1560.117, 39.89941
1561.144, 3.997070
1562.172, 5.302246
1563.199, 58.96045
1564.226, 8.125977
1565.252, 87.17529
1566.279, 110.9653
1567.305, 150.5977
1568.332, 162.1392
1569.358, 85.37256
1570.384, 87.13818
1571.409, 0.0000000E+00
##END=



