##NAMES=Axinite-(Fe)
##RRUFFID=R040074
##IDEAL CHEMISTRY=Ca_4_Fe^2+^_2_Al_4_[B_2_Si_8_O_30_](OH)_2_
##LOCALITY=Luning, Nevada, USA
##OWNER=RRUFF
##SOURCE=University of Arizona Mineral Museum
##DESCRIPTION=Pale brown wedge-shaped crystal
##STATUS=The identification of this mineral has been confirmed by X-ray diffraction and chemical analysis
##URL=rruff.info/R040074
##MEASURED CHEMISTRY=(Ca_0.98_Mn_0.01_)_2_(Fe_0.41_Mg_0.39_Mn_0.20_)Al_1.95_B_1.20_Si_3.90_O_15_(OH)
##PIN_ID=L00197
##ORIENTATION=Laser parallel to c* (0 0 1). Fiducial mark perpendicular to laser is parallel to -a [-1 0 0]
91.398, 0.000
92.793, 14.654
94.188, 8.146
95.582, 91.000
96.976, 251.686
98.370, 309.447
99.764, 698.393
101.157, 1153.375
102.550, 1844.854
103.943, 2912.010
105.336, 4690.850
106.729, 6491.220
108.121, 8142.938
109.513, 9016.198
110.905, 8863.001
112.297, 8271.525
113.688, 6957.406
115.079, 5814.815
116.470, 4683.396
117.861, 4012.885
119.251, 3043.094
120.642, 2433.877
122.032, 1915.133
123.422, 1406.777
124.811, 926.744
126.201, 425.377
127.590, 66.685
128.979, 28.115
130.367, 123.088
131.756, 90.126
133.144, 67.902
134.532, 396.794
135.920, 680.576
137.307, 1485.401
138.695, 2235.658
140.082, 3185.412
141.469, 3834.725
142.856, 4343.643
144.242, 4822.211
145.628, 4910.483
147.014, 5108.500
148.400, 5296.289
149.786, 5733.877
151.171, 5991.283
152.556, 6328.527
153.941, 6185.625
155.325, 5702.588
156.710, 5129.430
158.094, 4316.159
159.478, 3792.790
160.862, 3436.967
162.245, 3313.185
163.629, 3425.384
165.012, 3436.024
166.395, 3786.915
167.777, 4277.040
169.160, 5097.396
170.542, 6027.945
171.924, 6288.668
173.306, 6429.560
174.687, 5840.599
176.068, 5141.748
177.449, 4023.034
178.830, 2914.477
180.211, 1875.080
181.591, 1126.845
182.972, 707.772
184.351, 282.857
185.731, 376.091
187.111, 586.472
188.490, 1163.994
189.869, 2111.656
191.248, 3284.457
192.626, 4317.389
194.005, 4940.402
195.383, 5023.480
196.761, 4296.806
198.139, 3450.424
199.516, 2924.237
200.893, 3038.148
202.271, 3422.149
203.647, 3986.239
205.024, 4680.410
206.400, 5264.664
207.777, 5728.997
209.152, 6183.403
210.528, 6217.867
211.904, 6552.365
213.279, 6216.897
214.654, 5991.461
216.029, 5836.060
217.403, 5360.694
218.778, 4855.362
220.152, 3920.066
221.526, 3424.806
222.900, 2509.581
224.273, 1824.391
225.646, 1178.236
227.019, 571.118
228.392, 202.102
229.765, 99.974
231.137, 321.992
232.509, 534.559
233.881, 580.098
235.253, 494.312
236.625, 354.508
237.996, 109.688
239.367, 18.152
240.738, 152.041
242.108, 348.146
243.479, 475.484
244.849, 415.596
246.219, 804.091
247.589, 1112.190
248.958, 1572.243
250.328, 2260.299
251.697, 2906.357
253.065, 3432.417
254.434, 3818.479
255.803, 4024.540
257.171, 4109.821
258.539, 4215.105
259.906, 4687.151
261.274, 5369.559
262.641, 5924.020
264.008, 7410.972
265.375, 8668.121
266.742, 10245.427
268.108, 11662.843
269.475, 13000.361
270.840, 13867.970
272.206, 13885.666
273.572, 13823.441
274.937, 13021.284
276.302, 11908.994
277.667, 10496.652
279.032, 8904.370
280.396, 7602.138
281.760, 6289.950
283.125, 5487.803
284.488, 4825.696
285.852, 4543.625
287.215, 4231.585
288.578, 4389.574
289.941, 4427.588
291.304, 4675.625
292.666, 5203.646
294.029, 5551.005
295.391, 6184.622
296.753, 6730.290
298.114, 7339.223
299.476, 7962.065
300.837, 8205.909
302.198, 8748.438
303.558, 9064.989
304.919, 9274.536
306.279, 9553.232
307.639, 9301.012
308.999, 8978.781
310.359, 8266.543
311.718, 7394.295
313.077, 7262.042
314.436, 6339.788
315.795, 6387.532
317.154, 6645.276
318.512, 7273.017
319.870, 7280.754
321.228, 7288.487
322.586, 6616.217
323.943, 5613.944
325.300, 4841.585
326.657, 4078.662
328.014, 3555.067
329.371, 3211.184
330.727, 3057.317
332.083, 3053.477
333.439, 2959.661
334.795, 3185.872
336.150, 3492.108
337.506, 4028.376
338.861, 5404.678
340.215, 6771.017
341.570, 9037.395
342.924, 10633.807
344.279, 12070.253
345.633, 12336.719
346.986, 12403.205
348.340, 11399.710
349.693, 10536.227
351.046, 10042.763
352.399, 9249.306
353.752, 8355.866
355.104, 7502.434
356.457, 5849.014
357.809, 4355.604
359.160, 2952.205
360.512, 1994.518
361.863, 1251.051
363.214, 709.125
364.565, 387.234
365.916, 128.378
367.267, 64.508
368.617, 44.973
369.967, 109.581
371.317, 125.257
372.666, 223.477
374.016, 290.250
375.365, 349.834
376.714, 343.189
378.063, 465.391
379.411, 589.537
380.760, 877.792
382.108, 1230.607
383.456, 1767.418
384.803, 2721.514
386.151, 3954.556
387.498, 5436.935
388.845, 7198.494
390.192, 8594.054
391.539, 9419.934
392.885, 9439.612
394.231, 8556.550
395.577, 7031.848
396.923, 5612.920
398.269, 4587.976
399.614, 4041.109
400.959, 3589.507
402.304, 3515.328
403.649, 3261.582
404.993, 2869.812
406.337, 2717.018
407.681, 2583.200
409.025, 2833.360
410.369, 3332.500
411.712, 4488.620
413.055, 6394.718
414.398, 8670.797
415.741, 11196.853
417.084, 12532.891
418.426, 12838.905
419.768, 11924.905
421.110, 10360.891
422.452, 9486.855
423.793, 8752.800
425.134, 8518.718
426.475, 8284.615
427.816, 8170.485
429.157, 7526.328
430.497, 7072.143
431.837, 6437.929
433.177, 5543.688
434.517, 4639.415
435.857, 3955.112
437.196, 3470.777
438.535, 3209.412
439.874, 3412.016
441.213, 4237.589
442.551, 5153.128
443.889, 6058.997
445.227, 6445.211
446.565, 5891.327
447.903, 4827.134
449.240, 3612.508
450.577, 2393.847
451.914, 1651.151
453.251, 953.420
454.588, 649.653
455.924, 425.854
457.260, 190.040
458.596, 121.196
459.932, 30.692
461.267, 46.667
462.602, 25.737
463.938, 89.892
465.272, 44.835
466.607, 163.508
467.941, 419.137
469.276, 672.728
470.610, 836.330
471.943, 1132.795
473.277, 1242.795
474.610, 1455.633
475.944, 1687.379
477.276, 2247.799
478.609, 3249.979
479.942, 4548.818
481.274, 6893.335
482.606, 9827.885
483.938, 13212.500
485.270, 15087.192
486.601, 16051.930
487.932, 14116.736
489.263, 10651.597
490.594, 7856.500
491.925, 5081.424
493.255, 3546.369
494.585, 2542.779
495.915, 1850.481
497.245, 1676.139
498.575, 1476.907
499.904, 1488.248
501.233, 1604.234
502.562, 1915.795
503.891, 2275.459
505.219, 2581.926
506.548, 2947.345
507.876, 3080.382
509.203, 3103.884
510.531, 3232.345
511.859, 2736.766
513.186, 2485.146
514.513, 1836.506
515.840, 1307.846
517.166, 1023.162
518.493, 561.455
519.819, 300.719
521.145, 90.955
522.470, 46.861
523.796, 253.780
525.121, 428.913
526.446, 284.777
527.771, 401.290
529.096, 291.999
530.421, 261.071
531.745, 110.396
533.069, 55.461
534.393, 93.595
535.716, 115.785
537.040, 336.911
538.363, 139.985
539.686, 321.998
541.009, 186.957
542.331, 186.858
543.654, 143.700
544.976, 149.480
546.298, 17.802
547.620, 164.189
548.941, 68.760
550.263, 233.462
551.584, 94.386
552.905, 113.419
554.225, 19.483
555.546, 80.448
556.866, 305.505
558.186, 471.645
559.506, 882.836
560.826, 866.014
562.145, 1007.147
563.465, 1057.231
564.784, 999.266
566.103, 1152.250
567.421, 1304.185
568.740, 1648.069
570.058, 2024.904
571.376, 2372.689
572.694, 2887.423
574.011, 2908.107
575.329, 3160.740
576.646, 3102.324
577.963, 2796.856
579.279, 2665.337
580.596, 2416.769
581.912, 2440.150
583.228, 2636.478
584.544, 3073.757
585.860, 3486.983
587.175, 4095.159
588.491, 4415.284
589.806, 4485.357
591.121, 4215.380
592.435, 3603.351
593.750, 2816.271
595.064, 2123.139
596.378, 1521.956
597.692, 1110.721
599.006, 762.435
600.319, 542.097
601.632, 422.840
602.945, 332.660
604.258, 348.049
605.571, 414.204
606.883, 575.590
608.195, 776.924
609.507, 1059.208
610.819, 1480.440
612.131, 1837.099
613.442, 2327.749
614.753, 2766.826
616.064, 3267.111
617.375, 3823.047
618.685, 4086.999
619.995, 4359.879
621.306, 4084.008
622.615, 3609.045
623.925, 2916.025
625.235, 2000.793
626.544, 1449.417
627.853, 811.992
629.162, 544.517
630.471, 365.854
631.779, 157.139
633.087, 178.096
634.395, 261.245
635.703, 332.511
637.011, 436.765
638.318, 643.720
639.625, 979.610
640.932, 1265.356
642.239, 1361.126
643.546, 1590.575
644.852, 1554.698
646.158, 1521.651
647.464, 1363.950
648.770, 1040.151
650.076, 928.653
651.381, 568.105
652.686, 490.064
653.991, 289.485
655.296, 192.828
656.600, 164.082
657.905, 138.242
659.209, 151.300
660.513, 262.262
661.817, 280.146
663.120, 477.951
664.423, 558.688
665.726, 788.358
667.029, 1165.969
668.332, 1483.613
669.635, 2032.589
670.937, 2563.369
672.239, 3352.642
673.541, 4187.109
674.842, 5056.759
676.144, 5525.947
677.445, 5545.548
678.746, 5211.276
680.047, 4531.976
681.348, 3674.461
682.648, 2996.067
683.948, 2347.574
685.248, 1958.527
686.548, 1664.255
687.848, 1319.860
689.147, 1375.864
690.447, 1250.259
691.746, 1349.786
693.044, 1457.486
694.343, 1454.283
695.641, 1925.078
696.940, 2103.707
698.238, 2605.720
699.535, 3126.680
700.833, 3724.297
702.130, 4787.911
703.427, 6127.129
704.724, 7667.110
706.021, 9803.039
707.318, 12338.581
708.614, 15702.818
709.910, 20235.824
711.206, 24967.084
712.502, 29289.666
713.798, 31533.607
715.093, 32458.203
716.388, 30362.863
717.683, 25727.477
718.978, 22122.049
720.272, 16946.572
721.567, 13801.064
722.861, 10505.511
724.155, 8329.924
725.448, 6714.289
726.742, 5288.617
728.035, 4452.905
729.328, 3507.154
730.621, 2898.364
731.914, 2523.536
733.206, 1942.670
734.499, 1907.766
735.791, 1486.823
737.083, 1165.845
738.374, 1139.829
739.666, 942.776
740.957, 796.687
742.248, 751.562
743.539, 736.400
744.830, 681.205
746.120, 637.974
747.410, 564.708
748.701, 704.408
749.990, 573.074
751.280, 838.706
752.570, 888.303
753.859, 1051.868
755.148, 1196.401
756.437, 1361.900
757.725, 1663.006
759.014, 1874.703
760.302, 2224.432
761.590, 2520.406
762.878, 3022.748
764.166, 3466.058
765.453, 3869.337
766.740, 4322.587
768.027, 4295.806
769.314, 4058.995
770.601, 3942.156
771.887, 3375.291
773.174, 3428.401
774.460, 2411.509
775.745, 1759.617
777.031, 1499.722
778.316, 1130.839
779.602, 888.938
780.887, 703.014
782.172, 438.063
783.456, 375.085
784.741, 124.081
786.025, 121.524
787.309, 36.937
788.593, 89.395
789.876, 156.629
791.160, 237.739
792.443, 234.649
793.726, 219.375
795.009, 362.267
796.291, 396.397
797.574, 281.785
798.856, 358.367
800.138, 294.184
801.420, 254.201
802.702, 175.394
803.983, 166.723
805.264, 24.182
806.545, 169.821
807.826, 370.476
809.107, 713.117
810.387, 1053.591
811.667, 1408.437
812.947, 1695.581
814.227, 1635.095
815.507, 1544.449
816.786, 1351.943
818.065, 937.430
819.344, 810.243
820.623, 381.534
821.902, 207.810
823.180, 110.070
824.459, 71.688
825.737, 65.505
827.014, 71.377
828.292, 58.306
829.569, 51.283
830.847, 76.305
832.124, 19.380
833.401, 35.477
834.677, 33.573
835.954, 130.386
837.230, 140.469
838.506, 175.637
839.782, 324.924
841.057, 499.304
842.333, 534.766
843.608, 677.272
844.883, 898.823
846.158, 1061.375
847.433, 1238.934
848.707, 1485.491
849.981, 1610.048
851.255, 1701.642
852.529, 1833.238
853.803, 1616.837
855.076, 1697.454
856.350, 1417.075
857.623, 1337.739
858.895, 1334.491
860.168, 1294.291
861.441, 1366.185
862.713, 1073.177
863.985, 1198.219
865.257, 1225.331
866.528, 1081.466
867.800, 1169.622
869.071, 1217.812
870.342, 1162.018
871.613, 1279.269
872.884, 1311.333
874.154, 1420.828
875.425, 1449.151
876.695, 1592.476
877.965, 1651.837
879.234, 1679.230
880.504, 1964.638
881.773, 2064.066
883.042, 2098.519
884.311, 2326.977
885.580, 2598.445
886.848, 2899.923
888.117, 3421.418
889.385, 3602.947
890.653, 4324.499
891.920, 4936.079
893.188, 5877.664
894.455, 6799.254
895.722, 7700.883
896.989, 8842.517
898.256, 9834.175
899.523, 10645.851
900.789, 11387.533
902.055, 11649.228
903.321, 11550.933
904.587, 11822.644
905.852, 11174.373
907.118, 10876.111
908.383, 10127.858
909.648, 9829.625
910.913, 9171.402
912.177, 8143.192
913.442, 7474.998
914.706, 6576.813
915.970, 5778.642
917.233, 5070.478
918.497, 4543.103
919.760, 4144.181
921.024, 3816.046
922.287, 3577.921
923.550, 3499.805
924.812, 3411.697
926.075, 3653.602
927.337, 3815.518
928.599, 3807.441
929.861, 4279.375
931.122, 4321.322
932.384, 4403.275
933.645, 4625.242
934.906, 4427.217
936.167, 4499.207
937.428, 4470.342
938.688, 4621.488
939.948, 5018.916
941.208, 5273.109
942.468, 5653.139
943.728, 6228.137
944.987, 6943.390
946.247, 8159.666
947.506, 9237.046
948.765, 10522.362
950.023, 12204.953
951.282, 12862.831
952.540, 14624.834
953.798, 15149.449
955.056, 15939.117
956.314, 16699.445
957.572, 17218.775
958.829, 18410.559
960.086, 19702.832
961.343, 21425.133
962.600, 23707.457
963.856, 24149.822
965.113, 25232.223
966.369, 24144.666
967.625, 22327.123
968.881, 21199.613
970.136, 18502.121
971.392, 17964.656
972.647, 17437.199
973.902, 17299.672
975.157, 18311.770
976.411, 19440.014
977.666, 20868.725
978.920, 21807.191
980.174, 21656.432
981.428, 21056.088
982.682, 20314.586
983.935, 17815.689
985.188, 17306.248
986.441, 15336.939
987.694, 14619.438
988.947, 14252.005
990.199, 13384.751
991.452, 13517.653
992.704, 12820.489
993.956, 12583.293
995.207, 12779.024
996.459, 12501.850
997.710, 13306.345
998.961, 13719.834
1000.212, 14252.691
1001.463, 15804.854
1002.714, 16418.525
1003.964, 16952.064
1005.214, 17048.814
1006.464, 16302.466
1007.714, 15649.702
1008.964, 13788.476
1010.213, 12083.457
1011.462, 10389.114
1012.711, 8434.490
1013.960, 7477.781
1015.209, 6053.346
1016.457, 5150.095
1017.705, 4577.701
1018.954, 3929.051
1020.201, 3526.114
1021.449, 3240.130
1022.697, 2820.306
1023.944, 2914.173
1025.191, 2837.532
1026.438, 2861.354
1027.685, 2883.389
1028.931, 2763.918
1030.177, 2560.370
1031.423, 2358.459
1032.669, 1986.872
1033.915, 1991.561
1035.161, 1586.935
1036.406, 1492.252
1037.651, 1338.889
1038.896, 1153.810
1040.141, 1174.985
1041.386, 1223.244
1042.630, 1058.793
1043.874, 1119.953
1045.118, 997.276
1046.362, 1103.562
1047.606, 1051.424
1048.849, 1018.471
1050.092, 1136.137
1051.336, 1096.280
1052.578, 1167.065
1053.821, 1189.517
1055.064, 1221.243
1056.306, 1326.312
1057.548, 1369.052
1058.790, 1456.024
1060.032, 1512.386
1061.273, 1597.273
1062.515, 1652.691
1063.756, 1667.077
1064.997, 1502.021
1066.237, 1496.230
1067.478, 1380.995
1068.718, 1136.379
1069.959, 1164.384
1071.199, 1085.535
1072.438, 983.930
1073.678, 1102.008
1074.918, 1124.886
1076.157, 1431.233
1077.396, 1395.383
1078.635, 1759.786
1079.873, 2204.215
1081.112, 2488.479
1082.350, 2803.136
1083.588, 3097.242
1084.826, 2971.979
1086.064, 3186.014
1087.301, 2639.943
1088.539, 2254.335
1089.776, 1888.138
1091.013, 1462.083
1092.250, 1395.727
1093.486, 1339.354
1094.723, 1132.975
1095.959, 1206.655
1097.195, 1080.254
1098.431, 1273.935
1099.666, 1267.644
1100.902, 1351.449
1102.137, 1775.289
1103.372, 1818.949
1104.607, 1972.683
1105.842, 2286.352
1107.076, 2179.944
1108.311, 2163.576
1109.545, 2187.060
1110.779, 1800.466
1112.012, 1853.805
1113.246, 1647.085
1114.479, 1340.404
1115.712, 1383.572
1116.945, 1106.683
1118.178, 1070.482
1119.411, 993.459
1120.643, 946.359
1121.875, 1019.909
1123.108, 1082.644
1124.339, 835.558
1125.571, 705.156
1126.802, 401.698
1128.034, 493.298
1129.265, 481.736
1130.496, 304.210
1131.727, 173.545
1132.957, 188.822
1134.187, 200.112
1135.418, 231.279
1136.648, 190.537
1137.877, 247.416
1139.107, 137.383
1140.336, 159.256
1141.566, 201.036
1142.795, 55.263
1144.023, 234.356
1145.252, 29.747
1146.480, 24.719
1147.709, 209.117
1148.937, 150.563
1150.165, 1.644
1151.392, 28.777
1152.620, 60.155
1153.847, 7.795
1155.074, 65.169
1156.301, 88.384
1157.528, 26.697
1158.755, 36.144
1159.981, 189.717
1161.207, 120.676
1162.433, 187.016
1163.659, 43.760
1164.885, 54.588
1166.110, 111.493
1167.336, 40.458
1168.561, 148.506
1169.786, 84.610
1171.010, 71.239
1172.235, 129.917
1173.459, 102.878
1174.683, 103.411
1175.907, 76.717
1177.131, 9.080
1178.355, 32.484
1179.578, 34.903
1180.801, 41.674
1182.024, 22.235
1183.247, 27.782
1184.470, 4.321
1185.692, 61.148
1186.915, 14.619
1188.137, 29.088
1189.359, 97.449
1190.580, 162.993
1191.802, 53.462
1193.023, 153.088
1194.244, 7.642
1195.465, 26.196
1196.686, 128.755
1197.907, 97.322
1199.127, 129.902
1200.347, 177.502
1201.567, 54.124
1202.787, 286.768
1204.007, 154.431
1205.226, 50.114
1206.446, 374.820
1207.665, 172.551
1208.884, 137.311
1210.102, 274.104
1211.321, 189.934
1212.539, 337.802
1213.758, 361.712
1214.976, 208.667
1216.193, 458.677
1217.411, 395.901
1218.628, 348.516
1219.846, 517.118
1221.063, 265.419
1222.280, 394.811
1223.496, 476.014
1224.713, 395.368
1225.929, 395.973
1227.145, 446.482
1228.361, 330.293
1229.577, 482.313
1230.793, 303.083
1232.008, 520.063
1233.223, 526.111
1234.438, 285.752
1235.653, 484.003
1236.868, 345.786
1238.082, 378.757
1239.297, 400.520
1240.511, 400.673
1241.725, 302.240
1242.938, 327.097
1244.152, 316.999
1245.365, 401.672
1246.578, 252.189
1247.791, 234.704
1249.004, 352.087
1250.217, 227.164
1251.429, 232.662
1252.642, 292.312
1253.854, 207.881
1255.066, 299.198
1256.277, 283.129
1257.489, 288.967
1258.700, 316.992
1259.911, 187.355
1261.122, 294.993
1262.333, 393.352
1263.544, 59.494
1264.754, 276.321
1265.964, 230.971
1267.174, 44.178
1268.384, 286.448
1269.594, 90.930
1270.803, 283.351
1272.013, 227.623
1273.222, 103.338
1274.431, 269.109
1275.640, 95.075
1276.848, 190.306
1278.057, 106.940
1279.265, 83.836
1280.473, 180.177
1281.681, 257.114
1282.888, 153.281
1284.096, 179.725
1285.303, 100.578
1286.510, 121.085
1287.717, 165.117
1288.924, 81.450
1290.131, 3.143
1291.337, 112.325
1292.543, 37.761
1293.749, 73.649
1294.955, 39.282
1296.161, 35.706
1297.366, 32.992
1298.571, 37.210
1299.777, 1.585
1300.981, 84.218
1302.186, 70.062
1303.391, 84.266
1304.595, 0.000
##END=



