##NAMES=Axinite-(Fe)
##RRUFFID=R040074
##IDEAL CHEMISTRY=Ca_4_Fe^2+^_2_Al_4_[B_2_Si_8_O_30_](OH)_2_
##LOCALITY=Luning, Nevada, USA
##OWNER=RRUFF
##SOURCE=University of Arizona Mineral Museum
##DESCRIPTION=Pale brown wedge-shaped crystal
##STATUS=The identification of this mineral has been confirmed by X-ray diffraction and chemical analysis
##URL=rruff.info/R040074
##MEASURED CHEMISTRY=(Ca_0.98_Mn_0.01_)_2_(Fe_0.41_Mg_0.39_Mn_0.20_)Al_1.95_B_1.20_Si_3.90_O_15_(OH)
##PIN_ID=L00239
##ORIENTATION=Laser parallel to b* (0 1 0). Fiducial mark perpendicular to laser is parallel to c [0 0 1]
90.003, 0.000
91.398, 117.170
92.793, 19.998
94.188, 268.243
95.582, 390.314
96.976, 699.787
98.370, 1154.449
99.764, 1530.566
101.157, 2084.152
102.550, 3086.764
103.943, 5008.436
105.336, 7217.593
106.729, 9433.014
108.121, 12494.065
109.513, 17341.049
110.905, 12422.978
112.297, 7288.953
113.688, 4858.289
115.079, 3560.569
116.470, 2845.250
117.861, 2252.020
119.251, 1760.628
120.642, 1420.874
122.032, 1112.591
123.422, 1025.637
124.811, 690.482
126.201, 625.797
127.590, 546.213
128.979, 427.438
130.367, 439.541
131.756, 284.570
133.144, 585.546
134.532, 655.480
135.920, 1002.395
137.307, 1529.314
138.695, 2286.920
140.082, 2863.902
141.469, 3450.956
142.856, 3698.106
144.242, 3785.404
145.628, 3792.894
147.014, 3770.578
148.400, 3848.457
149.786, 4226.529
151.171, 4414.796
152.556, 4683.250
153.941, 4431.900
155.325, 4380.744
156.710, 4259.783
158.094, 4409.008
159.478, 4194.939
160.862, 3846.852
162.245, 3717.217
163.629, 3604.236
165.012, 4239.348
166.395, 4864.818
167.777, 6330.617
169.160, 7546.709
170.542, 8143.071
171.924, 7959.706
173.306, 7066.516
174.687, 5883.277
176.068, 4660.072
177.449, 3446.964
178.830, 2523.990
180.211, 1581.173
181.591, 948.530
182.972, 455.073
184.351, 179.810
185.731, 18.743
187.111, 3.123
188.490, 262.211
189.869, 576.746
191.248, 985.480
192.626, 1184.411
194.005, 1493.639
195.383, 1243.263
196.761, 943.540
198.139, 1034.539
199.516, 1295.924
200.893, 1937.441
202.271, 2429.089
203.647, 3040.865
205.024, 3652.771
206.400, 4174.806
207.777, 4386.965
209.152, 4519.232
210.528, 4571.596
211.904, 4564.043
213.279, 4246.581
214.654, 4059.266
216.029, 3602.210
217.403, 3205.311
218.778, 2498.493
220.152, 1851.757
221.526, 1425.097
222.900, 858.512
224.273, 532.007
225.646, 44.587
227.019, 106.696
228.392, 231.703
229.765, 420.482
231.137, 525.743
232.509, 671.353
233.881, 443.865
235.253, 537.312
236.625, 225.704
237.996, 134.959
239.367, 466.678
240.738, 701.448
242.108, 1036.195
243.479, 1860.686
244.849, 2014.752
246.219, 2838.537
247.589, 3182.349
248.958, 3826.226
250.328, 4120.164
251.697, 4314.166
253.065, 4238.227
254.434, 3852.348
255.803, 3727.896
257.171, 3464.346
258.539, 3751.346
259.906, 4120.145
261.274, 4679.782
262.641, 5490.126
264.008, 6541.071
265.375, 7652.538
266.742, 8474.465
268.108, 9296.799
269.475, 9969.496
270.840, 10252.521
272.206, 9875.844
273.572, 9109.434
274.937, 8503.270
276.302, 7627.321
277.667, 6541.574
279.032, 5726.010
280.396, 4930.615
281.760, 4375.379
283.125, 3970.290
284.488, 3725.340
285.852, 3730.521
287.215, 3505.825
288.578, 3791.245
289.941, 4106.777
291.304, 4672.382
292.666, 5468.037
294.029, 6023.749
295.391, 7394.061
296.753, 8144.061
298.114, 9153.185
299.476, 9907.012
300.837, 10348.013
302.198, 10526.237
303.558, 10502.261
304.919, 10660.496
306.279, 9753.650
307.639, 9239.844
308.999, 7836.088
310.359, 6442.375
311.718, 5118.701
313.077, 3845.080
314.436, 3011.557
315.795, 2598.117
317.154, 2294.797
318.512, 2231.521
319.870, 1888.301
321.228, 2295.120
322.586, 3091.975
323.943, 1548.738
325.300, 1515.128
326.657, 1511.068
328.014, 1906.743
329.371, 1852.472
330.727, 1928.250
332.083, 1494.081
333.439, 1229.966
334.795, 1035.914
336.150, 983.152
337.506, 1135.303
338.861, 1328.932
340.215, 1832.109
341.570, 2530.460
342.924, 3316.738
344.279, 4343.062
345.633, 5129.426
346.986, 6415.828
348.340, 7492.270
349.693, 9248.754
351.046, 10405.075
352.399, 10891.628
353.752, 10178.220
355.104, 8424.844
356.457, 6601.500
357.809, 4428.190
359.160, 2876.227
360.512, 1903.745
361.863, 1147.654
363.214, 637.280
364.565, 258.769
365.916, 163.498
367.267, 2.221
368.617, 90.637
369.967, 6.194
371.317, 105.600
372.666, 184.389
374.016, 272.131
375.365, 299.795
376.714, 316.720
378.063, 343.617
379.411, 590.525
380.760, 767.443
382.108, 1344.370
383.456, 2091.307
384.803, 3158.252
386.151, 4485.203
387.498, 5872.163
388.845, 7489.129
390.192, 7963.012
391.539, 8151.871
392.885, 7451.703
394.231, 6135.834
395.577, 4892.002
396.923, 3580.244
398.269, 2693.612
399.614, 2292.307
400.959, 1769.220
402.304, 1676.136
403.649, 1353.055
404.993, 1299.976
406.337, 1316.899
407.681, 1423.828
409.025, 2090.764
410.369, 2717.703
411.712, 4174.648
413.055, 6101.598
414.398, 8458.553
415.741, 10765.511
417.084, 10742.476
418.426, 10149.480
419.768, 8026.528
421.110, 6703.613
422.452, 6090.729
423.793, 5937.868
425.134, 6455.029
426.475, 6602.211
427.816, 7219.406
429.157, 7066.615
430.497, 7033.836
431.837, 6491.064
433.177, 5248.303
434.517, 4265.545
435.857, 3302.793
437.196, 2780.043
438.535, 2377.296
439.874, 2314.550
441.213, 2921.803
442.551, 3229.057
443.889, 3486.307
445.227, 3433.553
446.565, 2570.796
447.903, 1948.034
449.240, 1145.268
450.577, 642.494
451.914, 439.714
453.251, 106.926
454.588, 214.130
455.924, 38.674
457.260, 31.531
458.596, 14.441
459.932, 257.396
461.267, 210.521
462.602, 323.789
463.938, 287.262
465.272, 320.922
466.607, 74.788
467.941, 161.268
469.276, 237.313
470.610, 513.344
471.943, 669.937
473.277, 737.390
474.610, 796.583
475.944, 1002.758
477.276, 1626.711
478.609, 2284.615
479.942, 3534.609
481.274, 5221.570
482.606, 7387.820
483.938, 9114.100
485.270, 9420.438
486.601, 8896.820
487.932, 6253.238
489.263, 4009.748
490.594, 2516.269
491.925, 1592.804
493.255, 1240.307
494.585, 340.554
495.915, 67.570
497.245, 28.734
498.575, 50.610
499.904, 41.541
501.233, 45.897
502.562, 152.059
503.891, 158.200
505.219, 284.318
506.548, 580.416
507.876, 586.492
509.203, 742.546
510.531, 688.579
511.859, 684.593
513.186, 690.614
514.513, 516.621
515.840, 512.639
517.166, 318.668
518.493, 84.696
519.819, 110.744
521.145, 33.216
522.470, 42.739
523.796, 311.330
525.121, 43.474
526.446, 73.192
527.771, 144.448
529.096, 170.977
530.421, 43.735
531.745, 112.869
533.069, 102.447
534.393, 107.725
535.716, 162.966
537.040, 308.178
538.363, 303.362
539.686, 328.518
541.009, 303.646
542.331, 478.744
543.654, 443.814
544.976, 578.855
546.298, 373.868
547.620, 358.851
548.941, 473.805
550.263, 278.742
551.584, 493.689
552.905, 408.682
554.225, 783.744
555.546, 1318.908
556.866, 1714.125
558.186, 2179.416
559.506, 2724.712
560.826, 2939.979
562.145, 2805.213
563.465, 2730.417
564.784, 2655.590
566.103, 2850.730
567.421, 3265.840
568.740, 3830.918
570.058, 4505.963
571.376, 5170.976
572.694, 5575.956
574.011, 5970.905
575.329, 6055.820
576.646, 5720.702
577.963, 5375.552
579.279, 4930.366
580.596, 4735.148
581.912, 4869.894
583.228, 5264.607
584.544, 6159.285
585.860, 6863.928
587.175, 7898.535
588.491, 7933.107
589.806, 7737.644
591.121, 6802.145
592.435, 5306.607
593.750, 4371.035
595.064, 3345.428
596.378, 2699.782
597.692, 2034.101
599.006, 1558.382
600.319, 1542.627
601.632, 1416.834
602.945, 1231.004
604.258, 1455.137
605.571, 1499.232
606.883, 1813.290
608.195, 2007.311
609.507, 2331.293
610.819, 2565.238
612.131, 2789.146
613.442, 2903.014
614.753, 2882.295
616.064, 3101.902
617.375, 3302.400
618.685, 3218.210
619.995, 3516.859
621.306, 2728.301
622.615, 2431.946
623.925, 1743.394
625.235, 1079.942
626.544, 873.707
627.853, 327.191
629.162, 111.057
630.471, 55.517
631.779, 159.672
633.087, 108.159
634.395, 230.736
635.703, 61.620
637.011, 6.533
638.318, 141.613
639.625, 366.156
640.932, 389.414
642.239, 530.224
643.546, 656.662
644.852, 620.620
646.158, 617.164
647.464, 385.545
648.770, 374.598
650.076, 217.707
651.381, 80.075
652.686, 262.366
653.991, 3.369
655.296, 159.431
656.600, 104.008
657.905, 179.026
659.209, 358.871
660.513, 380.789
661.817, 562.666
663.120, 894.504
664.423, 1096.301
665.726, 1448.057
667.029, 1839.924
668.332, 2871.961
669.635, 3780.167
670.937, 4783.121
672.239, 6402.081
673.541, 7431.107
674.842, 9017.691
676.144, 8870.562
677.445, 8646.523
678.746, 7762.193
680.047, 6366.875
681.348, 5204.391
682.648, 4219.060
683.948, 3328.672
685.248, 2919.673
686.548, 2390.924
687.848, 2139.482
689.147, 2138.632
690.447, 2008.806
691.746, 1919.032
693.044, 2149.974
694.343, 2430.917
695.641, 2711.820
696.940, 3042.688
698.238, 3813.519
699.535, 4294.312
700.833, 5635.067
702.130, 6705.787
703.427, 8456.468
704.724, 10917.114
706.021, 13507.725
707.318, 17318.301
708.614, 21818.834
709.910, 27459.336
711.206, 33439.797
712.502, 37030.238
713.798, 38360.617
715.093, 36590.969
716.388, 32291.291
717.683, 26511.566
718.978, 21551.811
720.272, 16762.016
721.567, 13192.188
722.861, 10102.320
724.155, 8282.418
725.448, 6582.480
726.742, 5302.508
728.035, 4482.499
729.328, 3542.456
730.621, 2992.379
731.914, 2522.266
733.206, 2052.119
734.499, 1961.938
735.791, 1451.724
737.083, 1491.476
738.374, 1181.194
739.666, 1130.879
740.957, 930.531
742.248, 800.151
743.539, 879.738
744.830, 679.292
746.120, 798.815
747.410, 638.306
748.701, 517.766
749.990, 647.193
751.280, 496.591
752.570, 815.957
753.859, 845.293
755.148, 794.600
756.437, 1133.876
757.725, 1273.122
759.014, 1422.338
760.302, 1861.524
761.590, 1830.682
762.878, 2479.810
764.166, 2668.909
765.453, 2837.980
766.740, 3197.023
768.027, 2976.038
769.314, 2855.026
770.601, 2504.010
771.887, 2142.988
773.174, 1751.955
774.460, 1280.976
775.745, 970.037
777.031, 859.169
778.316, 658.363
779.602, 537.627
780.887, 216.900
782.172, 276.146
783.456, 175.364
784.741, 83.984
786.025, 51.697
787.309, 82.371
788.593, 23.502
789.876, 272.470
791.160, 155.513
792.443, 160.738
793.726, 313.025
795.009, 134.735
796.291, 256.562
797.574, 188.567
798.856, 150.715
800.138, 352.983
801.420, 65.480
802.702, 78.052
803.983, 59.296
805.264, 255.639
806.545, 319.203
807.826, 555.962
809.107, 876.002
810.387, 1101.549
811.667, 1366.082
812.947, 1352.177
814.227, 1419.503
815.507, 1136.812
816.786, 744.107
818.065, 621.390
819.344, 348.657
820.623, 125.912
821.902, 73.151
823.180, 99.627
824.459, 12.479
825.737, 115.361
827.014, 118.325
828.292, 81.371
829.569, 204.479
830.847, 87.706
832.124, 20.992
833.401, 104.271
834.677, 7.607
835.954, 20.858
837.230, 55.907
838.506, 92.670
839.782, 99.424
841.057, 436.188
842.333, 252.956
843.608, 409.771
844.883, 636.596
846.158, 543.418
847.433, 940.297
848.707, 887.169
849.981, 914.036
851.255, 910.914
852.529, 907.786
853.803, 1004.671
855.076, 891.550
856.350, 878.426
857.623, 1035.355
858.895, 932.281
860.168, 1169.215
861.441, 1146.160
862.713, 843.104
863.985, 990.047
865.257, 966.996
866.528, 993.944
867.800, 1070.961
869.071, 1127.976
870.342, 1334.992
871.613, 1392.050
872.884, 1269.105
874.154, 1556.176
875.425, 1463.274
876.695, 1920.372
877.965, 1777.485
879.234, 1884.601
880.504, 2341.725
881.773, 2018.857
883.042, 2515.993
884.311, 2743.158
885.580, 3170.324
886.848, 3687.494
888.117, 3954.689
889.385, 4651.889
890.653, 5569.117
891.920, 6396.354
893.188, 7943.598
894.455, 8610.846
895.722, 10088.124
896.989, 11295.402
898.256, 12332.696
899.523, 13299.996
900.789, 13627.307
902.055, 14094.624
903.321, 13501.951
904.587, 13039.287
905.852, 12366.637
907.118, 11033.994
908.383, 10161.361
909.648, 9608.740
910.913, 8336.128
912.177, 7603.523
913.442, 6650.930
914.706, 5748.350
915.970, 5255.781
917.233, 4403.224
918.497, 3970.675
919.760, 3768.137
921.024, 3515.609
922.287, 3633.089
923.550, 3160.578
924.812, 3708.087
926.075, 3965.604
927.337, 3843.130
928.599, 4230.663
929.861, 4418.205
931.122, 4245.754
932.384, 4243.310
933.645, 3890.622
934.906, 3858.195
936.167, 3385.360
937.428, 3331.902
938.688, 3298.062
939.948, 3167.434
941.208, 3400.826
942.468, 3419.179
943.728, 3514.942
944.987, 4130.494
946.247, 4336.553
947.506, 5163.869
948.765, 5743.609
950.023, 6317.694
951.282, 6874.234
952.540, 7408.160
953.798, 7640.223
955.056, 8221.587
956.314, 8348.867
957.572, 9286.856
958.829, 10044.879
960.086, 11042.920
961.343, 12591.009
962.600, 13479.120
963.856, 13987.259
965.113, 14295.419
966.369, 13113.590
967.625, 12701.772
968.881, 12229.972
970.136, 11438.183
971.392, 12306.410
972.647, 12654.499
973.902, 13922.392
975.157, 15564.079
976.411, 17031.010
977.666, 19031.922
978.920, 19272.754
980.174, 19356.010
981.428, 18461.656
982.682, 17414.742
983.935, 16111.747
985.188, 15434.032
986.441, 14261.635
987.694, 14439.499
988.947, 13867.791
990.199, 13646.280
991.452, 13608.857
992.704, 13407.543
993.956, 13566.265
995.207, 13317.674
996.459, 13756.454
997.710, 14749.733
998.961, 14878.580
1000.212, 15807.577
1001.463, 16570.154
1002.714, 16799.098
1003.964, 16541.660
1005.214, 15370.662
1006.464, 14499.891
1007.714, 13012.471
1008.964, 11151.569
1010.213, 9972.838
1011.462, 8185.356
1012.711, 6914.691
1013.960, 6054.150
1015.209, 4965.393
1016.457, 4594.764
1017.705, 3790.425
1018.954, 3539.777
1020.201, 3279.747
1021.449, 2538.474
1022.697, 2577.922
1023.944, 2350.347
1025.191, 2165.895
1026.438, 2305.541
1027.685, 1897.918
1028.931, 1977.534
1030.177, 1738.740
1031.423, 1619.976
1032.669, 1709.694
1033.915, 1765.096
1035.161, 1404.885
1036.406, 1664.710
1037.651, 1449.384
1038.896, 1649.370
1040.141, 1695.217
1041.386, 1915.678
1042.630, 1965.688
1043.874, 1836.335
1045.118, 1790.740
1046.362, 1900.865
1047.606, 1572.078
1048.849, 1962.680
1050.092, 1863.590
1051.336, 1993.879
1052.578, 2354.213
1053.821, 2175.582
1055.064, 2516.344
1056.306, 2666.797
1057.548, 2737.526
1058.790, 2808.024
1060.032, 2798.664
1061.273, 2729.067
1062.515, 2859.510
1063.756, 2441.249
1064.997, 2381.749
1066.237, 2092.069
1067.478, 1552.668
1068.718, 1812.985
1069.959, 1413.322
1071.199, 1553.477
1072.438, 1533.650
1073.678, 1395.804
1074.918, 1635.782
1076.157, 1725.739
1077.396, 1865.688
1078.635, 2475.628
1079.873, 2585.496
1081.112, 2885.298
1082.350, 3135.012
1083.588, 2985.998
1084.826, 3115.617
1086.064, 2635.209
1087.301, 2284.773
1088.539, 2194.325
1089.776, 1463.865
1091.013, 1453.426
1092.250, 1452.997
1093.486, 1232.938
1094.723, 1332.514
1095.959, 1152.138
1097.195, 1352.045
1098.431, 1631.712
1099.666, 1271.348
1100.902, 1780.994
1102.137, 2060.702
1103.372, 1920.400
1104.607, 2380.048
1105.842, 2099.659
1107.076, 2389.713
1108.311, 2249.238
1109.545, 1888.702
1110.779, 1758.160
1112.012, 1397.524
1113.246, 1196.847
1114.479, 1196.130
1115.712, 885.335
1116.945, 924.498
1118.178, 924.214
1119.411, 703.289
1120.643, 1102.409
1121.875, 831.222
1123.108, 769.726
1124.339, 531.691
1125.571, 423.828
1126.802, 426.172
1128.034, 448.700
1129.265, 51.370
1130.496, 444.122
1131.727, 26.925
1132.957, 59.774
1134.187, 272.663
1135.418, 24.520
1136.648, 238.344
1137.877, 261.231
1139.107, 95.836
1140.336, 377.026
1141.566, 59.907
1142.795, 67.172
1144.023, 235.785
1145.252, 251.361
1146.480, 191.493
1147.709, 54.341
1148.937, 72.840
1150.165, 240.001
1151.392, 67.132
1152.620, 205.745
1153.847, 58.642
1155.074, 218.467
1156.301, 154.404
1157.528, 32.684
1158.755, 49.778
1159.981, 93.156
1161.207, 76.123
1162.433, 20.874
1163.659, 122.161
1164.885, 244.767
1166.110, 228.348
1167.336, 31.496
1168.561, 125.317
1169.786, 227.915
1171.010, 18.801
1172.235, 65.473
1173.459, 157.905
1174.683, 8.650
1175.907, 214.865
1177.131, 18.448
1178.355, 22.104
1179.578, 235.849
1180.801, 40.316
1182.024, 233.608
1183.247, 247.629
1184.470, 18.258
1185.692, 215.959
1186.915, 29.719
1188.137, 134.716
1189.359, 309.261
1190.580, 133.933
1191.802, 8.737
1193.023, 353.689
1194.244, 108.790
1195.465, 194.051
1196.686, 159.493
1197.907, 745.048
1199.127, 410.677
1200.347, 146.372
1201.567, 242.131
1202.787, 496.532
1204.007, 282.393
1205.226, 389.182
1206.446, 308.835
1207.665, 340.375
1208.884, 485.229
1210.102, 131.363
1211.321, 307.360
1212.539, 437.011
1213.758, 235.520
1214.976, 560.115
1216.193, 297.782
1217.411, 415.203
1218.628, 615.955
1219.846, 40.781
1221.063, 435.108
1222.280, 366.722
1223.496, 251.883
1224.713, 496.510
1225.929, 246.749
1227.145, 318.407
1228.361, 524.385
1229.577, 28.780
1230.793, 235.624
1232.008, 495.686
1233.223, 274.562
1234.438, 346.571
1235.653, 281.655
1236.868, 150.090
1238.082, 668.037
1239.297, 66.648
1240.511, 297.424
1241.725, 403.729
1242.938, 60.475
1244.152, 298.076
1245.365, 293.594
1246.578, 171.117
1247.791, 458.162
1249.004, 136.049
1250.217, 384.289
1251.429, 361.863
1252.642, 0.977
1253.854, 415.684
1255.066, 228.975
1256.277, 52.629
1257.489, 619.488
1258.700, 146.758
1259.911, 204.346
1261.122, 433.531
1262.333, 210.443
1263.544, 3.273
1264.754, 423.531
1265.964, 32.373
1267.174, 394.738
1268.384, 0.000
##END=



