##NAMES=Azurite
##RRUFFID=R050638
##IDEAL CHEMISTRY=Cu^2+^_3_(CO_3_)_2_(OH)_2_
##LOCALITY=Zacatecas, Mexico
##OWNER=RRUFF
##SOURCE=University of Arizona Mineral Museum
##DESCRIPTION=Blue bladed crystals
##STATUS=The identification of this mineral has been confirmed by X-ray diffraction and chemical analysis
##URL=rruff.info/R050638
##MEASURED CHEMISTRY=Cu_3.00_(CO_3_)_2_(OH)_2_
##PIN_ID=M00402
##ORIENTATION=Laser parallel to c* (0 0 1). Fiducial mark perpendicular to laser is parallel to -a [-1 0 0]
52.67100, 0.0000000E+00
53.91000, 27.08289
55.14900, 66.92108
56.38700, 88.31458
57.62600, 87.30212
58.86400, 206.6460
60.10300, 142.9676
61.34100, 68.35382
62.57900, 16.65363
63.81700, 59.48376
65.05400, 38.44263
66.29200, 39.59888
67.52900, 48.70154
68.76700, 271.1521
70.00400, 747.5094
71.24100, 1402.579
72.47700, 1776.167
73.71400, 2317.073
74.95100, 3474.110
76.18700, 4198.280
77.42300, 6832.903
78.65900, 6784.373
79.89500, 7905.396
81.13100, 10328.87
82.36700, 14146.69
83.60200, 19258.80
84.83700, 24562.13
86.07200, 27097.75
87.30800, 25000.66
88.54200, 18856.74
89.77700, 12431.94
91.01200, 8532.138
92.24600, 6957.249
93.48000, 5566.185
94.71400, 4198.880
95.94800, 3875.283
97.18200, 3146.350
98.41600, 2791.046
99.64900, 2932.340
100.8830, 2879.205
102.1160, 2650.619
103.3490, 2850.562
104.5820, 3413.014
105.8150, 4024.959
107.0470, 4607.383
108.2800, 5105.271
109.5120, 6144.613
110.7440, 6825.393
111.9760, 5543.602
113.2080, 5746.230
114.4400, 6928.268
115.6710, 8291.825
116.9030, 8313.619
118.1340, 6482.904
119.3650, 4655.319
120.5960, 3264.087
121.8270, 2775.067
123.0580, 2767.259
124.2880, 3361.664
125.5190, 3092.286
126.7490, 2613.065
127.9790, 2747.821
129.2090, 3405.543
130.4390, 4436.230
131.6680, 5977.887
132.8980, 7630.473
134.1270, 9588.075
135.3560, 10488.75
136.5850, 9569.504
137.8140, 8026.363
139.0430, 7846.336
140.2710, 7154.433
141.5000, 7483.663
142.7280, 7625.034
143.9560, 6816.550
145.1840, 5346.220
146.4120, 4201.045
147.6390, 3458.033
148.8670, 2709.183
150.0940, 2418.498
151.3210, 2379.982
152.5490, 2961.636
153.7750, 3529.461
155.0020, 4264.458
156.2290, 5056.629
157.4550, 5328.974
158.6810, 4859.492
159.9080, 3852.183
161.1340, 2963.050
162.3590, 2550.087
163.5850, 2619.298
164.8110, 2716.678
166.0360, 2803.229
167.2610, 3232.951
168.4860, 3707.842
169.7110, 4596.899
170.9360, 6013.125
172.1610, 7590.519
173.3850, 8722.078
174.6100, 9098.803
175.8340, 8369.694
177.0580, 7244.750
178.2820, 6345.752
179.5050, 6269.153
180.7290, 6840.582
181.9520, 7242.268
183.1760, 6754.035
184.3990, 5656.416
185.6220, 4300.477
186.8450, 3262.407
188.0670, 2709.515
189.2900, 2526.797
190.5120, 2448.248
191.7340, 2600.866
192.9560, 2839.644
194.1780, 2880.578
195.4000, 3024.674
196.6220, 2984.929
197.8430, 3116.340
199.0640, 2928.927
200.2860, 2920.764
201.5070, 3023.387
202.7270, 3175.851
203.9480, 2888.200
205.1690, 2032.267
206.3890, 1053.400
207.6090, 494.7090
208.8290, 417.9919
210.0490, 449.2273
211.2690, 489.7493
212.4890, 563.0823
213.7080, 789.4160
214.9280, 951.1418
216.1470, 908.1814
217.3660, 906.5203
218.5850, 856.1460
219.8030, 658.0466
221.0220, 591.2107
222.2400, 511.6287
223.4590, 327.2957
224.6770, 382.1982
225.8950, 396.3340
227.1120, 418.6917
228.3300, 576.2642
229.5480, 726.0444
230.7650, 849.0264
231.9820, 1061.205
233.1990, 1323.573
234.4160, 1813.125
235.6330, 2400.857
236.8490, 3291.761
238.0660, 4396.837
239.2820, 5667.075
240.4980, 6723.476
241.7140, 7223.035
242.9300, 6992.749
244.1460, 6902.615
245.3610, 7880.630
246.5770, 9976.790
247.7920, 12801.10
249.0070, 16324.54
250.2220, 19217.13
251.4370, 19673.85
252.6510, 16336.71
253.8660, 11655.71
255.0800, 7331.831
256.2940, 4383.083
257.5080, 2846.462
258.7220, 2112.967
259.9360, 2425.596
261.1490, 2603.346
262.3630, 1902.217
263.5760, 1832.202
264.7890, 2070.294
266.0020, 2414.489
267.2150, 2714.784
268.4270, 2873.179
269.6400, 2621.674
270.8520, 2383.268
272.0640, 2075.959
273.2760, 1991.746
274.4880, 2081.632
275.7000, 2305.614
276.9120, 2791.696
278.1230, 3241.875
279.3340, 4068.153
280.5450, 4785.529
281.7560, 5455.006
282.9670, 5826.581
284.1780, 6215.253
285.3880, 5898.023
286.5980, 5274.894
287.8090, 4409.858
289.0190, 3681.919
290.2290, 3015.077
291.4380, 2344.330
292.6480, 1788.678
293.8570, 1470.120
295.0670, 1073.655
296.2760, 821.2837
297.4850, 540.6658
298.6930, 312.8181
299.9020, 100.7241
301.1110, 75.26514
302.3190, 210.1609
303.5270, 206.9880
304.7350, 304.7542
305.9430, 341.4736
307.1510, 331.1418
308.3580, 338.7622
309.5660, 361.3271
310.7730, 342.8333
311.9800, 285.2852
313.1870, 316.6714
314.3940, 245.0051
315.6010, 289.2700
316.8070, 61.48853
318.0130, 36.71338
319.2200, 52.68164
320.4260, 273.7407
321.6310, 451.9019
322.8370, 645.1619
324.0430, 914.4583
325.2480, 1212.751
326.4540, 1637.004
327.6590, 1912.203
328.8640, 2280.374
330.0680, 2807.536
331.2730, 3172.730
332.4780, 3514.023
333.6820, 3625.416
334.8860, 3666.896
336.0900, 3281.723
337.2940, 2835.380
338.4980, 2373.137
339.7010, 1921.974
340.9050, 1497.906
342.1080, 1143.854
343.3110, 879.9707
344.5140, 821.1772
345.7170, 682.5127
346.9200, 624.0730
348.1220, 634.6372
349.3240, 726.3086
350.5270, 713.1011
351.7290, 846.0071
352.9310, 962.0183
354.1320, 1123.140
355.3340, 1382.374
356.5350, 1544.736
357.7370, 1743.672
358.9380, 1897.259
360.1390, 2354.948
361.3400, 2647.736
362.5400, 2999.619
363.7410, 3468.610
364.9410, 3791.681
366.1410, 4330.845
367.3410, 4786.998
368.5410, 5217.339
369.7410, 5501.592
370.9400, 5786.249
372.1400, 6365.910
373.3390, 6724.599
374.5380, 7126.373
375.7370, 7943.226
376.9360, 8628.160
378.1350, 9505.173
379.3330, 10509.26
380.5310, 11449.43
381.7300, 12433.68
382.9280, 13584.01
384.1260, 14310.40
385.3230, 15191.87
386.5210, 16260.41
387.7180, 17286.03
388.9160, 18740.71
390.1130, 19519.47
391.3100, 21283.30
392.5060, 23278.19
393.7030, 25569.15
394.9000, 27958.18
396.0960, 31101.28
397.2920, 34270.44
398.4880, 38771.66
399.6840, 43232.95
400.8800, 47487.30
402.0750, 50255.70
403.2710, 49526.16
404.4660, 47187.69
405.6610, 41897.27
406.8560, 35758.91
408.0510, 29804.60
409.2450, 24464.36
410.4400, 21022.16
411.6340, 18053.02
412.8280, 15625.94
414.0220, 13737.90
415.2160, 12063.91
416.4100, 10600.97
417.6030, 9384.084
418.7970, 8454.246
419.9900, 7541.453
421.1830, 6770.706
422.3760, 6037.217
423.5690, 5332.350
424.7610, 4831.739
425.9540, 4261.174
427.1460, 3878.651
428.3380, 3432.172
429.5300, 3162.735
430.7220, 2788.339
431.9140, 2475.986
433.1050, 2216.673
434.2970, 1938.400
435.4880, 1763.166
436.6790, 1601.971
437.8700, 1412.814
439.0610, 1274.695
440.2510, 1160.614
441.4420, 990.8877
442.6320, 852.0754
443.8220, 727.1450
445.0120, 581.4292
446.2020, 507.2222
447.3910, 411.2676
448.5810, 363.3159
449.7700, 333.5869
450.9600, 229.2019
452.1490, 167.8511
453.3370, 169.4141
454.5260, 123.0808
455.7150, 40.72266
456.9030, 114.4297
458.0910, 32.13672
459.2800, 26.74536
460.4670, 9.250000
461.6550, 58.88159
462.8430, 39.92334
464.0300, 94.76562
465.2180, 94.05469
466.4050, 39.03613
467.5920, 80.10107
468.7790, 120.4243
469.9650, 42.27344
471.1520, 22.90259
472.3380, 92.56323
473.5250, 62.56787
474.7110, 40.04468
475.8970, 35.55811
477.0820, 21.97803
478.2680, 0.3742680
479.4540, 20.44043
480.6390, 22.06494
481.8240, 28.21729
483.0090, 26.93701
484.1940, 40.60718
485.3780, 40.68555
486.5630, 29.65674
487.7470, 104.0754
488.9320, 9.082764
490.1160, 58.37134
491.3000, 63.43994
492.4830, 82.24756
493.6670, 69.37622
494.8500, 78.86938
496.0340, 57.60693
497.2170, 82.48926
498.4000, 140.8748
499.5820, 2.282715
500.7650, 91.97974
501.9480, 21.74805
503.1300, 77.53027
504.3120, 42.37085
505.4940, 19.63086
506.6760, 62.34692
507.8580, 54.97266
509.0390, 6.221191
510.2210, 67.87183
511.4020, 3.939941
512.5830, 14.30103
513.7640, 19.05371
514.9450, 100.0339
516.1250, 36.81689
517.3060, 65.84912
518.4860, 75.27515
519.6660, 72.87598
520.8460, 87.26221
522.0260, 147.5908
523.2060, 145.9846
524.3850, 198.0505
525.5650, 226.1152
526.7440, 249.5112
527.9230, 348.5669
529.1020, 433.3674
530.2810, 541.6191
531.4590, 704.8547
532.6380, 799.0225
533.8160, 945.0630
534.9940, 1171.451
536.1720, 1317.910
537.3500, 1502.065
538.5270, 1709.248
539.7050, 2037.035
540.8820, 2119.236
542.0590, 2224.539
543.2360, 2331.057
544.4130, 2124.996
545.5900, 1930.556
546.7660, 1773.881
547.9430, 1626.181
549.1190, 1430.215
550.2950, 1172.768
551.4710, 1013.561
552.6470, 926.7263
553.8220, 775.5332
554.9980, 742.3347
556.1730, 616.8223
557.3480, 553.2856
558.5230, 542.7246
559.6980, 508.1392
560.8730, 469.5281
562.0470, 368.8916
563.2220, 402.2290
564.3960, 279.5400
565.5700, 331.8242
566.7440, 309.0815
567.9170, 365.3105
569.0910, 301.5122
570.2640, 315.6855
571.4380, 335.8298
572.6110, 286.9448
573.7840, 272.5713
574.9570, 211.0859
576.1290, 177.1113
577.3020, 158.1064
578.4740, 89.07031
579.6460, 131.0029
580.8180, 84.90405
581.9900, 33.77295
583.1620, 49.60425
584.3330, 22.59839
585.5040, 26.86353
586.6760, 18.18115
587.8470, 17.47388
589.0180, 4.782959
590.1880, 54.24414
591.3590, 34.62769
592.5290, 74.02588
593.7000, 104.4580
594.8700, 75.93677
596.0400, 80.45044
597.2090, 56.01392
598.3790, 68.60864
599.5490, 16.25513
600.7180, 37.91821
601.8870, 23.97949
603.0560, 4.781494
604.2250, 48.64551
605.3940, 38.59497
606.5620, 0.6257320
607.7300, 16.71777
608.8990, 3.748779
610.0670, 30.89160
611.2350, 6.386475
612.4020, 21.73169
613.5700, 26.15259
614.7370, 32.65234
615.9050, 32.23486
617.0720, 10.09985
618.2390, 7.626465
619.4060, 16.31909
620.5720, 46.53784
621.7390, 39.51294
622.9050, 30.48999
624.0710, 9.577637
625.2370, 39.66626
626.4030, 17.91772
627.5690, 56.24780
628.7340, 19.32324
629.9000, 5.281250
631.0650, 54.15552
632.2300, 12.46094
633.3950, 19.84521
634.5600, 88.08887
635.7240, 34.28418
636.8890, 30.42090
638.0530, 3.502930
639.2170, 3.500977
640.3810, 38.97266
641.5450, 7.841553
642.7080, 37.64185
643.8720, 36.38281
645.0350, 23.06323
646.1980, 42.66895
647.3610, 47.00342
648.5240, 40.49438
649.6870, 71.26501
650.8490, 26.64990
652.0120, 24.14746
653.1740, 9.267578
654.3360, 78.40369
655.4980, 41.53931
656.6600, 76.61475
657.8210, 57.63635
658.9830, 49.60083
660.1440, 60.12317
661.3050, 22.35510
662.4660, 60.13831
663.6270, 76.86450
664.7870, 77.07336
665.9480, 60.15344
667.1080, 65.71362
668.2680, 51.21680
669.4280, 66.66113
670.5880, 67.20117
671.7480, 70.38062
672.9070, 77.65637
674.0670, 58.87720
675.2260, 55.04028
676.3850, 69.45178
677.5440, 67.19336
678.7030, 90.18567
679.8610, 133.1248
681.0200, 124.0159
682.1780, 105.8577
683.3360, 156.6490
684.4940, 100.3939
685.6520, 118.0879
686.8090, 118.7322
687.9670, 68.32678
689.1240, 95.86597
690.2810, 163.3533
691.4380, 123.7954
692.5950, 157.1888
693.7520, 155.5367
694.9080, 196.8390
696.0650, 206.0984
697.2210, 213.8290
698.3770, 232.4893
699.5330, 225.6212
700.6880, 247.7109
701.8440, 254.7583
702.9990, 253.7634
704.1550, 273.7268
705.3100, 209.6488
706.4650, 271.5288
707.6190, 257.3671
708.7740, 264.1643
709.9290, 305.9202
711.0830, 360.6351
712.2370, 319.3090
713.3910, 426.9419
714.5450, 385.5343
715.6980, 406.0862
716.8520, 451.5977
718.0050, 462.0691
719.1580, 472.5004
720.3110, 504.8918
721.4640, 609.8455
722.6170, 694.0389
723.7700, 765.0178
724.9220, 897.1777
726.0740, 937.5261
727.2260, 1048.354
728.3780, 1149.469
729.5300, 1263.727
730.6810, 1413.964
731.8330, 1547.591
732.9840, 1733.171
734.1350, 1893.543
735.2860, 2067.538
736.4370, 2327.973
737.5880, 2517.530
738.7380, 2697.232
739.8880, 2762.532
741.0390, 2844.641
742.1890, 2959.843
743.3380, 2839.241
744.4880, 2739.187
745.6380, 2600.437
746.7870, 2622.597
747.9360, 2550.492
749.0850, 2474.857
750.2340, 2422.437
751.3830, 2498.979
752.5310, 2588.170
753.6800, 2756.305
754.8280, 2981.566
755.9760, 3269.779
757.1240, 3632.876
758.2720, 4020.236
759.4190, 4515.776
760.5670, 4870.779
761.7140, 5485.206
762.8610, 5939.888
764.0080, 6237.713
765.1550, 6314.846
766.3020, 6362.525
767.4480, 6097.602
768.5950, 5776.387
769.7410, 5397.378
770.8870, 4749.618
772.0330, 4196.525
773.1780, 3669.054
774.3240, 3219.325
775.4690, 2807.973
776.6140, 2435.033
777.7590, 2139.589
778.9040, 1909.839
780.0490, 1701.001
781.1940, 1444.133
782.3380, 1314.191
783.4820, 1298.812
784.6260, 1184.959
785.7700, 1020.179
786.9140, 934.2007
788.0580, 848.9119
789.2010, 835.5095
790.3450, 812.0310
791.4880, 755.0200
792.6310, 754.7605
793.7730, 712.8091
794.9160, 674.3281
796.0590, 626.5630
797.2010, 661.6030
798.3430, 568.8359
799.4850, 622.1060
800.6270, 576.2896
801.7690, 674.7788
802.9100, 638.2473
804.0520, 631.3630
805.1930, 698.5740
806.3340, 771.4617
807.4750, 794.6533
808.6160, 847.8379
809.7560, 922.2847
810.8970, 1047.401
812.0370, 1099.363
813.1770, 1267.229
814.3170, 1420.375
815.4570, 1557.470
816.5960, 1724.935
817.7360, 1846.962
818.8750, 1974.862
820.0140, 1934.683
821.1530, 1903.735
822.2920, 1943.301
823.4310, 2066.120
824.5690, 2247.853
825.7070, 2483.868
826.8460, 2810.337
827.9840, 3194.542
829.1220, 3495.346
830.2590, 3890.482
831.3970, 4282.597
832.5340, 4478.000
833.6710, 4592.397
834.8080, 4580.793
835.9450, 4535.187
837.0820, 4582.577
838.2190, 4413.964
839.3550, 4268.350
840.4910, 3997.734
841.6270, 3679.117
842.7630, 3412.499
843.8990, 3155.880
845.0350, 2757.260
846.1700, 2472.640
847.3060, 2144.020
848.4410, 1932.400
849.5760, 1648.781
850.7100, 1384.161
851.8450, 1231.543
852.9800, 1051.926
854.1140, 828.3108
855.2480, 773.6965
856.3820, 661.0845
857.5160, 580.4744
858.6500, 523.9746
859.7830, 400.3733
860.9170, 398.7891
862.0500, 312.2231
863.1830, 335.6743
864.3160, 266.1340
865.4480, 230.6379
866.5810, 113.1389
867.7130, 153.6619
868.8460, 145.7534
869.9780, 166.3618
871.1100, 106.0398
872.2410, 153.7068
873.3730, 46.47168
874.5050, 100.3677
875.6360, 120.4878
876.7670, 52.82080
877.8980, 66.00610
879.0290, 113.0134
880.1590, 44.97437
881.2900, 28.09961
882.4200, 99.42090
883.5500, 101.6235
884.6800, 94.71924
885.8100, 75.67554
886.9400, 113.0457
888.0690, 133.1677
889.1990, 90.11353
890.3280, 86.19141
891.4570, 115.8606
892.5860, 80.98657
893.7140, 93.13574
894.8430, 81.30176
895.9710, 75.50732
897.1000, 70.72778
898.2280, 40.99194
899.3560, 179.2810
900.4830, 102.6094
901.6110, 97.96484
902.7380, 141.3577
903.8660, 71.77002
904.9930, 122.2080
906.1200, 68.66040
907.2460, 97.13965
908.3730, 105.6387
909.5000, 127.1611
910.6260, 154.8809
911.7520, 192.2610
912.8780, 199.8462
914.0040, 229.4573
915.1290, 227.0891
916.2550, 291.7561
917.3800, 317.6990
918.5050, 401.1467
919.6300, 396.8728
920.7550, 412.6174
921.8800, 432.3801
923.0040, 477.1650
924.1290, 580.9661
925.2530, 650.7891
926.3770, 783.6333
927.5010, 898.5015
928.6250, 965.3872
929.7480, 1148.293
930.8720, 1301.216
931.9950, 1520.158
933.1180, 1645.119
934.2410, 1867.108
935.3640, 2008.120
936.4860, 2111.156
937.6090, 2185.757
938.7310, 2317.279
939.8530, 2204.370
940.9750, 2154.487
942.0970, 2089.625
943.2180, 1880.782
944.3400, 1781.960
945.4610, 1511.163
946.5820, 1434.385
947.7030, 1190.627
948.8240, 1054.900
949.9450, 943.1914
951.0650, 786.5032
952.1860, 664.8320
953.3060, 649.1792
954.4260, 612.5437
955.5460, 471.9285
956.6650, 420.3330
957.7850, 389.7583
958.9040, 363.2029
960.0230, 311.6636
961.1420, 332.1443
962.2610, 326.6426
963.3800, 279.1558
964.4990, 257.6853
965.6170, 276.2300
966.7350, 235.7898
967.8530, 237.3647
968.9710, 227.9534
970.0890, 183.5566
971.2070, 216.1750
972.3240, 208.8098
973.4410, 147.4612
974.5580, 144.1277
975.6750, 148.8110
976.7920, 131.5078
977.9090, 156.2200
979.0250, 171.9458
980.1410, 111.6855
981.2580, 136.4380
982.3740, 71.20605
983.4890, 174.9873
984.6050, 127.7820
985.7200, 119.5911
986.8360, 84.41382
987.9510, 72.25049
989.0660, 45.12671
990.1810, 46.96436
991.2950, 17.84106
992.4100, 7.263672
993.5240, 34.64380
994.6390, 58.56396
995.7530, 55.49805
996.8660, 10.44434
997.9800, 26.40356
999.0940, 1.624512
1000.207, 26.35913
1001.320, 38.35571
1002.433, 96.63574
1003.546, 0.3540040
1004.659, 2.644775
1005.772, 60.37012
1006.884, 38.60254
1007.996, 8.572266
1009.108, 16.52954
1010.220, 50.47900
1011.332, 69.43237
1012.444, 40.39600
1013.555, 5.045654
1014.666, 41.00073
1015.777, 16.95630
1016.888, 11.90601
1017.999, 37.84863
1019.110, 37.89746
1020.220, 14.71704
1021.331, 3.784912
1022.441, 53.42163
1023.551, 33.64917
1024.661, 67.27075
1025.770, 11.05151
1026.880, 20.12524
1027.989, 58.20728
1029.098, 21.48193
1030.207, 74.68140
1031.316, 47.08911
1032.425, 41.78442
1033.533, 24.66626
1034.642, 7.795654
1035.750, 36.93213
1036.858, 4.075195
1037.966, 35.51562
1039.073, 28.67114
1040.181, 40.83276
1041.288, 71.00000
1042.396, 75.76636
1043.503, 102.9458
1044.610, 100.1316
1045.716, 90.41748
1046.823, 124.6140
1047.929, 104.3918
1049.036, 158.4248
1050.142, 90.63525
1051.248, 153.8511
1052.353, 139.1252
1053.459, 98.37476
1054.564, 180.6067
1055.670, 179.4333
1056.775, 214.6750
1057.880, 188.0642
1058.985, 173.3315
1060.089, 200.5850
1061.194, 194.1746
1062.298, 220.5168
1063.402, 242.8296
1064.506, 256.3193
1065.610, 318.5974
1066.713, 306.9966
1067.817, 333.0310
1068.920, 298.9224
1070.023, 388.2134
1071.126, 379.5200
1072.229, 478.9692
1073.332, 454.0740
1074.435, 476.4736
1075.537, 529.0742
1076.639, 632.9263
1077.741, 681.4399
1078.843, 747.0479
1079.945, 854.4744
1081.046, 951.0559
1082.148, 1120.641
1083.249, 1219.084
1084.350, 1449.400
1085.451, 1656.454
1086.551, 1947.104
1087.652, 2418.260
1088.752, 3031.794
1089.853, 3798.883
1090.953, 4784.884
1092.053, 5779.326
1093.152, 7060.746
1094.252, 8428.144
1095.351, 9935.536
1096.451, 11147.03
1097.550, 11425.50
1098.649, 10753.95
1099.748, 9388.625
1100.846, 7303.101
1101.945, 5597.723
1103.043, 4227.390
1104.141, 3918.430
1105.239, 2779.967
1106.337, 2276.162
1107.434, 1705.283
1108.532, 1469.647
1109.629, 1253.416
1110.726, 1080.794
1111.823, 973.2424
1112.920, 774.5562
1114.017, 780.2651
1115.113, 677.5840
1116.210, 637.9893
1117.306, 595.5466
1118.402, 561.9697
1119.498, 456.4705
1120.593, 460.8901
1121.689, 476.1299
1122.784, 391.5374
1123.879, 389.0293
1124.974, 369.2854
1126.069, 315.5439
1127.164, 322.0308
1128.259, 330.2402
1129.353, 304.5840
1130.447, 218.7825
1131.541, 236.0161
1132.635, 211.4067
1133.729, 140.5879
1134.822, 135.3662
1135.916, 124.5449
1137.009, 125.3582
1138.102, 92.75220
1139.195, 111.2654
1140.288, 93.96167
1141.380, 83.92236
1142.473, 106.4971
1143.565, 116.2366
1144.657, 9.715088
1145.749, 48.33008
1146.841, 42.36157
1147.932, 37.13232
1149.024, 59.96240
1150.115, 0.1181640
1151.206, 10.87646
1152.297, 20.22046
1153.388, 10.28418
1154.479, 28.82031
1155.569, 34.93701
1156.659, 6.362061
1157.750, 29.34058
1158.839, 17.31201
1159.929, 10.47241
1161.019, 11.56689
1162.108, 42.24341
1163.198, 30.67456
1164.287, 15.42871
1165.376, 46.53760
1166.465, 33.49219
1167.553, 35.37671
1168.642, 7.230469
1169.730, 22.07666
1170.818, 68.93701
1171.906, 38.76489
1172.994, 32.28516
1174.082, 24.50488
1175.170, 34.48975
1176.257, 14.26392
1177.344, 43.07373
1178.431, 1.830566
1179.518, 35.42627
1180.605, 31.28394
1181.691, 30.14014
1182.778, 18.11426
1183.864, 26.01733
1184.950, 83.03882
1186.036, 1.885498
1187.122, 61.88672
1188.207, 13.68823
1189.292, 31.48120
1190.378, 55.10596
1191.463, 7.954834
1192.548, 18.65942
1193.632, 27.42310
1194.717, 11.45996
1195.801, 39.23169
1196.886, 23.16333
1197.970, 38.36938
1199.054, 10.98730
1200.137, 41.54102
1201.221, 39.32520
1202.305, 14.27759
1203.388, 18.25439
1204.471, 21.82690
1205.554, 9.257813
1206.637, 3.068359
1207.719, 8.405273
1208.802, 9.145752
1209.884, 20.81616
1210.966, 29.73486
1212.048, 46.78613
1213.130, 19.15723
1214.212, 50.46143
1215.293, 0.6430660
1216.374, 7.899170
1217.456, 2.501709
1218.536, 9.000488
1219.617, 1.475586
1220.698, 3.9062999E-02
1221.778, 25.40063
1222.859, 31.72363
1223.939, 37.10132
1225.019, 38.46362
1226.099, 15.92944
1227.178, 21.27051
1228.258, 24.72485
1229.337, 5.982666
1230.417, 20.09253
1231.496, 7.180420
1232.574, 5.592529
1233.653, 2.124512
1234.732, 2.820801
1235.810, 5.208496
1236.888, 3.989868
1237.966, 47.39673
1239.044, 1.773438
1240.122, 43.95093
1241.199, 26.94116
1242.277, 59.21631
1243.354, 2.225098
1244.431, 57.36597
1245.508, 36.52905
1246.585, 6.446533
1247.661, 31.44287
1248.738, 12.46924
1249.814, 31.35425
1250.890, 77.25244
1251.966, 33.11841
1253.042, 12.97656
1254.117, 42.86084
1255.193, 66.69019
1256.268, 11.51050
1257.343, 80.31689
1258.418, 44.11206
1259.493, 109.8943
1260.567, 61.66870
1261.642, 30.43481
1262.716, 111.1921
1263.790, 46.94116
1264.864, 75.69678
1265.938, 5.554199
1267.011, 25.17993
1268.085, 1.096680
1269.158, 6.384033
1270.231, 37.31177
1271.304, 86.99634
1272.377, 93.67773
1273.450, 56.36133
1274.522, 71.72632
1275.594, 41.39819
1276.666, 60.06592
1277.738, 78.72705
1278.810, 92.38086
1279.882, 43.34155
1280.953, 91.66357
1282.025, 79.43799
1283.096, 102.7825
1284.167, 55.41235
1285.238, 114.0330
1286.308, 86.40112
1287.379, 116.0188
1288.449, 26.62891
1289.519, 64.04443
1290.589, 26.53467
1291.659, 80.98071
1292.729, 94.55322
1293.798, 62.61230
1294.868, 64.16943
1295.937, 79.71997
1297.006, 123.2646
1298.075, 85.51147
1299.143, 81.04248
1300.212, 90.56470
1301.280, 57.07666
1302.348, 130.9834
1303.416, 38.46948
1304.484, 118.9399
1305.552, 77.30176
1306.620, 102.7441
1307.687, 94.59961
1308.754, 113.1970
1309.821, 50.61450
1310.888, 21.02393
1311.955, 36.37720
1313.021, 6.750000
1314.088, 47.13550
1315.154, 6.915527
1316.220, 53.26855
1317.286, 53.45923
1318.352, 121.7520
1319.417, 37.03662
1320.483, 68.95093
1321.548, 53.06934
1322.613, 4.841553
1323.678, 47.06250
1324.743, 85.17139
1325.807, 103.1621
1326.872, 66.24072
1327.936, 87.96216
1329.000, 25.02588
1330.064, 5.933105
1331.128, 132.9570
1332.191, 14.81616
1333.255, 124.1072
1334.318, 2.819824
1335.381, 67.27197
1336.444, 56.05347
1337.507, 24.73218
1338.569, 75.58276
1339.632, 49.00879
1340.694, 82.94336
1341.756, 96.74878
1342.818, 13.32593
1343.880, 33.85278
1344.941, 17.49365
1346.003, 19.79443
1347.064, 42.75049
1348.125, 43.29370
1349.186, 38.88379
1350.247, 64.91650
1351.308, 50.17432
1352.368, 32.35571
1353.428, 45.64526
1354.489, 53.48633
1355.549, 24.49829
1356.608, 69.39697
1357.668, 102.3657
1358.727, 31.54785
1359.787, 49.27832
1360.846, 104.9814
1361.905, 45.46045
1362.964, 124.0151
1364.022, 77.97925
1365.081, 97.46289
1366.139, 16.73999
1367.197, 61.55103
1368.255, 104.8413
1369.313, 35.04004
1370.371, 97.45215
1371.428, 63.41992
1372.486, 56.83594
1373.543, 123.0859
1374.600, 93.08667
1375.657, 84.31299
1376.713, 116.3928
1377.770, 111.4580
1378.826, 120.8745
1379.882, 107.1182
1380.938, 149.4812
1381.994, 196.8818
1383.050, 171.1624
1384.106, 197.5142
1385.161, 214.1309
1386.216, 257.6028
1387.271, 258.1152
1388.326, 205.4905
1389.381, 169.7925
1390.435, 191.2739
1391.490, 209.6511
1392.544, 211.2942
1393.598, 240.8691
1394.652, 285.8438
1395.705, 258.9878
1396.759, 247.8423
1397.812, 301.2151
1398.866, 323.0667
1399.919, 306.2932
1400.972, 355.3108
1402.024, 382.7476
1403.077, 456.8240
1404.129, 550.0718
1405.181, 624.1265
1406.233, 729.4036
1407.285, 826.4990
1408.337, 1030.697
1409.389, 1197.137
1410.440, 1381.509
1411.491, 1709.592
1412.542, 2151.965
1413.593, 2644.365
1414.644, 3328.578
1415.695, 4225.417
1416.745, 4990.420
1417.795, 6000.221
1418.845, 6542.394
1419.895, 6755.550
1420.945, 6568.789
1421.995, 5993.295
1423.044, 5243.778
1424.093, 4586.216
1425.142, 3924.360
1426.191, 3800.188
1427.240, 4963.728
1428.289, 4057.621
1429.337, 4312.341
1430.385, 4356.769
1431.433, 4344.298
1432.481, 3879.677
1433.529, 3177.935
1434.577, 2577.943
1435.624, 1899.122
1436.672, 1391.018
1437.719, 1170.252
1438.766, 929.7957
1439.812, 717.3103
1440.859, 671.6230
1441.905, 561.3496
1442.952, 477.7517
1443.998, 446.8635
1445.044, 373.3694
1446.090, 401.0403
1447.135, 363.6953
1448.181, 308.4500
1449.226, 347.4495
1450.271, 376.0613
1451.316, 343.5732
1452.361, 439.4426
1453.405, 569.4343
1454.450, 692.6780
1455.494, 956.0249
1456.538, 1330.260
1457.582, 1589.658
1458.626, 1866.663
1459.670, 1907.657
1460.713, 1889.697
1461.757, 1397.823
1462.800, 1144.079
1463.843, 718.1248
1464.886, 454.1387
1465.928, 378.5791
1466.971, 274.5474
1468.013, 223.8394
1469.055, 237.2939
1470.097, 199.3726
1471.139, 158.6865
1472.181, 149.7893
1473.222, 114.7910
1474.263, 124.2100
1475.305, 150.5623
1476.346, 102.0354
1477.386, 124.4636
1478.427, 98.94116
1479.468, 182.4148
1480.508, 145.8818
1481.548, 175.3274
1482.588, 106.7507
1483.628, 101.1536
1484.668, 173.5505
1485.707, 168.9570
1486.747, 132.3530
1487.786, 105.7295
1488.825, 106.0850
1489.864, 109.4194
1490.902, 100.0620
1491.941, 114.0183
1492.979, 91.68140
1494.017, 95.92310
1495.055, 76.32275
1496.093, 86.90747
1497.131, 72.06812
1498.168, 90.19214
1499.206, 112.2793
1500.243, 89.34375
1501.280, 104.7290
1502.317, 126.4866
1503.354, 84.57690
1504.390, 84.64160
1505.426, 34.66553
1506.463, 55.65723
1507.499, 107.6633
1508.535, 1439.726
1509.570, 684.8364
1510.606, 769.3811
1511.641, 63.02954
1512.676, 79.64819
1513.711, 66.28833
1514.746, 72.93994
1515.781, 65.60522
1516.816, 31.29443
1517.850, 126.0029
1518.884, 141.7344
1519.918, 787.4844
1520.952, 471.4302
1521.986, 523.2739
1523.019, 230.2478
1524.053, 140.2124
1525.086, 160.5186
1526.119, 77.27661
1527.152, 132.3445
1528.185, 107.9424
1529.217, 171.9502
1530.250, 124.5198
1531.282, 123.5784
1532.314, 141.3608
1533.346, 77.51318
1534.377, 97.01245
1535.409, 133.1350
1536.440, 89.43433
1537.472, 79.78076
1538.503, 119.7671
1539.534, 143.0002
1540.564, 140.3799
1541.595, 151.6658
1542.625, 115.7249
1543.656, 115.2925
1544.686, 69.14355
1545.716, 35.24731
1546.745, 46.00195
1547.775, 53.96118
1548.804, 90.31445
1549.834, 149.4043
1550.863, 212.8003
1551.892, 322.9492
1552.920, 432.6670
1553.949, 593.8130
1554.977, 660.9385
1556.006, 447.4121
1557.034, 173.7839
1558.062, 38.64868
1559.089, 15.88525
1560.117, 14.33154
1561.144, 18.14868
1562.172, 17.35132
1563.199, 11.33032
1564.226, 119.7590
1565.252, 127.0371
1566.279, 106.4619
1567.305, 84.16504
1568.332, 13.37231
1569.358, 111.6401
1570.384, 7.615234
1571.409, 0.0000000E+00
##END=



