##NAMES=Baddeleyite
##RRUFFID=R060016
##IDEAL CHEMISTRY=Zr^4+^O_2_
##LOCALITY=Wet Loo, Myanmar
##OWNER=RRUFF
##SOURCE=American Museum of Natural History
##DESCRIPTION=Brown crystal fragment
##STATUS=The identification of this mineral has been confirmed by X-ray diffraction and chemical analysis
##URL=rruff.info/R060016
##MEASURED CHEMISTRY=(Zr_0.99_Ti_0.01_)_Î£=1_O_2_
##PIN_ID=M00268
##ORIENTATION=Laser parallel to b* (0 1 0). Fiducial mark perpendicular to laser is parallel to -c [0 0 -1]
129.5460, 0.0000000E+00
130.7790, 38.24756
132.0110, 2.063477
133.2430, 77.85986
134.4750, 119.7192
135.7070, 95.05322
136.9380, 32.25293
138.1700, 117.6021
139.4010, 48.16602
140.6330, 30.39893
141.8640, 20.82568
143.0950, 62.64355
144.3250, 78.79883
145.5560, 50.45703
146.7860, 29.45850
148.0160, 6.675293
149.2470, 3.973145
150.4760, 93.44043
151.7060, 214.8350
152.9360, 63.13281
154.1650, 192.2559
155.3950, 283.1348
156.6240, 327.7056
157.8530, 414.9106
159.0820, 509.6963
160.3100, 540.0176
161.5390, 818.8296
162.7670, 866.0957
163.9950, 1036.782
165.2230, 1299.906
166.4510, 1733.546
167.6790, 2187.717
168.9060, 2621.387
170.1340, 3765.498
171.3610, 3851.003
172.5880, 5084.858
173.8150, 7068.032
175.0420, 9672.488
176.2690, 12892.21
177.4950, 15024.16
178.7210, 14243.34
179.9470, 11617.71
181.1730, 8587.264
182.3990, 6460.988
183.6250, 5266.871
184.8500, 4959.898
186.0760, 5507.063
187.3010, 6798.353
188.5260, 9209.761
189.7510, 11724.28
190.9750, 12324.90
192.2000, 10296.62
193.4240, 7592.417
194.6490, 5320.307
195.8730, 3722.274
197.0970, 2694.314
198.3200, 2043.532
199.5440, 1852.250
200.7670, 1731.948
201.9910, 1531.540
203.2140, 1512.860
204.4370, 1391.426
205.6590, 1259.078
206.8820, 1297.825
208.1050, 1227.503
209.3270, 1217.047
210.5490, 1186.492
211.7710, 1162.302
212.9930, 1183.134
214.2150, 1162.348
215.4360, 1192.500
216.6570, 1253.599
217.8790, 1493.648
219.1000, 1665.652
220.3210, 1835.617
221.5410, 1970.543
222.7620, 1589.438
223.9820, 1411.300
225.2030, 1336.134
226.4230, 1167.942
227.6430, 910.7251
228.8620, 885.4854
230.0820, 799.4995
231.3010, 856.9453
232.5210, 769.6470
233.7400, 769.3306
234.9590, 725.9980
236.1780, 768.6494
237.3960, 687.2871
238.6150, 705.9102
239.8330, 805.5190
241.0510, 755.1138
242.2690, 876.6953
243.4870, 851.2632
244.7050, 932.8164
245.9230, 911.3564
247.1400, 890.8828
248.3570, 1019.396
249.5740, 925.8936
250.7910, 996.3794
252.0080, 1119.851
253.2240, 1103.310
254.4410, 1137.755
255.6570, 1071.188
256.8730, 1176.608
258.0890, 1268.015
259.3050, 1268.409
260.5210, 1126.792
261.7360, 1151.162
262.9510, 1136.520
264.1670, 1027.866
265.3820, 1121.201
266.5960, 1023.352
267.8110, 967.8413
269.0260, 1054.288
270.2400, 1123.976
271.4540, 1023.943
272.6680, 1235.396
273.8820, 1216.854
275.0960, 1331.644
276.3090, 1212.576
277.5230, 1411.912
278.7360, 1303.849
279.9490, 1604.484
281.1620, 1572.320
282.3750, 1763.874
283.5880, 1719.484
284.8000, 1982.928
286.0120, 1990.504
287.2240, 2247.938
288.4360, 2260.109
289.6480, 2284.030
290.8600, 2540.048
292.0710, 2642.157
293.2830, 2665.349
294.4940, 2886.621
295.7050, 3045.930
296.9160, 3249.341
298.1260, 3441.816
299.3370, 3684.349
300.5470, 3990.936
301.7580, 4410.575
302.9680, 4877.263
304.1770, 5344.993
305.3870, 5702.767
306.5970, 5935.581
307.8060, 5816.431
309.0150, 5386.316
310.2250, 4917.234
311.4340, 4442.182
312.6420, 4107.946
313.8510, 3675.163
315.0590, 3481.191
316.2680, 3316.240
317.4760, 3098.308
318.6840, 3222.394
319.8920, 3193.497
321.0990, 3394.616
322.3070, 3671.748
323.5140, 3736.893
324.7210, 4126.050
325.9280, 4519.219
327.1350, 4904.396
328.3420, 5572.584
329.5490, 6352.781
330.7550, 7104.984
331.9610, 7543.195
333.1670, 7311.413
334.3730, 6755.636
335.5790, 5937.867
336.7840, 5066.101
337.9900, 4490.341
339.1950, 4027.584
340.4000, 4147.831
341.6050, 4043.083
342.8100, 4552.337
344.0150, 5284.593
345.2190, 5978.849
346.4230, 6457.101
347.6280, 6514.343
348.8320, 6044.577
350.0350, 5115.797
351.2390, 4281.003
352.4430, 3415.196
353.6460, 2561.376
354.8490, 2062.543
356.0520, 1655.699
357.2550, 1410.843
358.4580, 1069.976
359.6600, 1038.097
360.8630, 990.2080
362.0650, 785.3091
363.2670, 903.4004
364.4690, 841.4814
365.6710, 847.5527
366.8720, 883.6152
368.0740, 1014.668
369.2750, 1080.712
370.4760, 1328.747
371.6770, 1430.774
372.8780, 1726.792
374.0780, 2251.801
375.2790, 2763.803
376.4790, 3322.796
377.6790, 3744.781
378.8790, 3734.759
380.0790, 3439.729
381.2790, 3094.692
382.4780, 2690.647
383.6780, 2294.595
384.8770, 1903.536
386.0760, 1583.515
387.2750, 1233.397
388.4730, 1014.318
389.6720, 775.2319
390.8700, 587.4111
392.0690, 495.0420
393.2670, 279.9385
394.4650, 211.8286
395.6620, 154.9751
396.8600, 163.5942
398.0570, 113.4697
399.2550, 108.3408
400.4520, 34.79346
401.6490, 72.95117
402.8450, 36.14258
404.0420, 0.6420900
405.2390, 109.5884
406.4350, 164.8608
407.6310, 200.1899
408.8270, 253.5850
410.0230, 85.06006
411.2190, 149.6216
412.4140, 128.2671
413.6090, 308.0542
414.8050, 180.0762
416.0000, 124.2378
417.1940, 211.5762
418.3890, 202.0762
419.5840, 170.7622
420.7780, 147.5449
421.9720, 159.4121
423.1660, 51.36816
424.3600, 53.35889
425.5540, 101.3857
426.7480, 83.47070
427.9410, 52.39453
429.1340, 83.26807
430.3270, 93.14990
431.5200, 38.04492
432.7130, 36.94873
433.9060, 116.8589
435.0980, 61.77539
436.2900, 94.69775
437.4830, 90.62695
438.6750, 229.5615
439.8660, 179.5020
441.0580, 203.4473
442.2500, 285.3989
443.4410, 259.3555
444.6320, 212.3164
445.8230, 260.2827
447.0140, 247.2534
448.2050, 331.2295
449.3950, 485.2100
450.5860, 413.1953
451.7760, 496.1851
452.9660, 581.1792
454.1560, 588.1782
455.3450, 817.1821
456.5350, 878.1899
457.7240, 965.2031
458.9140, 1142.220
460.1030, 1306.242
461.2920, 1536.269
462.4810, 1906.301
463.6690, 2408.336
464.8580, 2762.378
466.0460, 3326.425
467.2340, 4107.476
468.4220, 4905.532
469.6100, 6058.594
470.7970, 7252.662
471.9850, 8563.732
473.1720, 9647.812
474.3590, 10434.90
475.5460, 9976.988
476.7330, 8985.084
477.9200, 7458.185
479.1060, 6088.292
480.2930, 5029.406
481.4790, 3776.527
482.6650, 3015.654
483.8510, 2493.789
485.0370, 1901.929
486.2220, 1693.077
487.4080, 1561.231
488.5930, 1423.394
489.7780, 1367.562
490.9630, 1257.739
492.1480, 1419.925
493.3320, 1357.117
494.5170, 1516.318
495.7010, 1574.527
496.8850, 1785.745
498.0690, 1947.971
499.2530, 2057.207
500.4360, 2182.452
501.6200, 2129.706
502.8030, 2088.970
503.9860, 1717.242
505.1690, 1367.525
506.3520, 1171.819
507.5350, 842.1226
508.7170, 702.4370
509.9000, 650.7622
511.0820, 516.0977
512.2640, 475.4443
513.4460, 430.4536
514.6270, 331.1787
515.8090, 388.5664
516.9900, 403.9663
518.1710, 410.3818
519.3530, 426.1235
520.5330, 371.2544
521.7140, 414.7261
522.8950, 473.2183
524.0750, 454.7241
525.2550, 578.2534
526.4350, 614.7959
527.6150, 683.3516
528.7950, 738.9233
529.9750, 948.5171
531.1540, 1129.150
532.3340, 1269.831
533.5130, 1424.553
534.6920, 1823.314
535.8700, 1835.122
537.0490, 2147.946
538.2280, 2100.806
539.4060, 1937.697
540.5840, 1855.606
541.7620, 1665.552
542.9400, 1477.536
544.1180, 1358.318
545.2950, 1291.315
546.4720, 1327.427
547.6500, 1334.021
548.8270, 1458.188
550.0040, 1680.160
551.1800, 1784.834
552.3570, 2002.119
553.5330, 2434.403
554.7090, 2524.062
555.8850, 2891.484
557.0610, 2947.994
558.2370, 2875.064
559.4130, 2686.714
560.5880, 2330.030
561.7630, 2075.387
562.9380, 1786.306
564.1130, 1349.579
565.2880, 1284.530
566.4630, 921.4551
567.6370, 930.6665
568.8120, 790.0166
569.9860, 631.7251
571.1600, 717.4658
572.3330, 597.2373
573.5070, 598.0405
574.6810, 527.8755
575.8540, 329.7422
577.0270, 366.6401
578.2000, 237.5703
579.3730, 342.5527
580.5460, 280.5664
581.7180, 232.6133
582.8910, 279.6963
584.0630, 393.8115
585.2350, 316.9590
586.4070, 414.1387
587.5780, 303.3506
588.7500, 318.5938
589.9210, 409.8701
591.0930, 412.1782
592.2640, 660.5190
593.4350, 610.8926
594.6050, 703.2983
595.7760, 910.7368
596.9460, 985.2095
598.1170, 1208.714
599.2870, 1359.252
600.4570, 1574.824
601.6260, 1925.428
602.7960, 2112.064
603.9650, 2362.733
605.1350, 2776.588
606.3040, 3175.540
607.4730, 3650.954
608.6420, 4149.767
609.8100, 4703.611
610.9790, 5142.489
612.1470, 5488.401
613.3150, 5842.347
614.4830, 6055.326
615.6510, 6093.339
616.8190, 6072.384
617.9860, 5900.466
619.1540, 5473.581
620.3210, 5439.729
621.4880, 5301.910
622.6550, 5150.123
623.8220, 5350.369
624.9880, 5603.651
626.1550, 6065.965
627.3210, 6708.313
628.4870, 7564.697
629.6530, 8659.115
630.8190, 10092.57
631.9840, 11286.05
633.1500, 12762.57
634.3150, 13903.12
635.4800, 14888.71
636.6450, 15143.33
637.8100, 14662.98
638.9740, 13802.66
640.1390, 12498.38
641.3030, 10866.13
642.4670, 9445.910
643.6310, 7743.724
644.7950, 6486.571
645.9590, 5648.450
647.1220, 4650.362
648.2850, 3929.308
649.4490, 3420.284
650.6120, 2996.293
651.7740, 2524.333
652.9370, 2230.407
654.1000, 1926.864
655.2620, 1767.002
656.4240, 1617.218
657.5860, 1409.988
658.7480, 1321.545
659.9100, 1169.005
661.0710, 1021.712
662.2330, 932.7139
663.3940, 868.0718
664.5550, 755.7402
665.7160, 743.1606
666.8770, 798.6113
668.0370, 747.5371
669.1980, 656.7134
670.3580, 589.8169
671.5180, 573.2271
672.6780, 518.4561
673.8380, 588.2246
674.9970, 531.0762
676.1570, 552.2075
677.3160, 540.3135
678.4750, 555.7842
679.6340, 543.0327
680.7930, 543.6099
681.9520, 633.5391
683.1100, 672.6284
684.2680, 637.7271
685.4270, 722.1753
686.5850, 702.3271
687.7420, 784.6206
688.9000, 774.7852
690.0580, 798.0835
691.2150, 925.3867
692.3720, 936.1934
693.5290, 1000.804
694.6860, 1030.512
695.8430, 1104.227
696.9990, 1115.995
698.1560, 1170.829
699.3120, 1166.225
700.4680, 1300.234
701.6240, 1342.526
702.7800, 1376.331
703.9350, 1459.566
705.0900, 1522.018
706.2460, 1589.140
707.4010, 1564.517
708.5560, 1545.716
709.7110, 1525.169
710.8650, 1454.642
712.0200, 1381.133
713.1740, 1326.644
714.3280, 1198.176
715.4820, 1065.747
716.6360, 1152.316
717.7890, 901.5654
718.9430, 826.1870
720.0960, 644.8252
721.2490, 678.4248
722.4020, 535.1846
723.5550, 625.8765
724.7080, 518.5879
725.8600, 406.3296
727.0130, 302.3516
728.1650, 372.2231
729.3170, 409.5747
730.4690, 416.1558
731.6200, 299.7612
732.7720, 342.1997
733.9230, 321.0078
735.0740, 297.5654
736.2250, 362.4038
737.3760, 264.1211
738.5270, 327.5820
739.6780, 326.4639
740.8280, 354.9097
741.9780, 319.3281
743.1280, 304.4409
744.2780, 422.2236
745.4280, 414.2026
746.5770, 400.2563
747.7270, 352.2578
748.8760, 364.2710
750.0250, 351.7554
751.1740, 359.9590
752.3230, 325.0039
753.4720, 339.2700
754.6200, 480.4287
755.7680, 428.1289
756.9160, 401.2114
758.0640, 470.3022
759.2120, 366.4014
760.3600, 397.5088
761.5070, 456.6240
762.6550, 297.4214
763.8020, 358.5522
764.9490, 331.6899
766.0960, 375.1807
767.2420, 336.6230
768.3890, 227.6562
769.5350, 236.8340
770.6810, 217.0171
771.8270, 147.2075
772.9730, 220.4033
774.1190, 35.00439
775.2640, 97.21045
776.4100, 151.4214
777.5550, 101.6357
778.7000, 102.8545
779.8450, 125.0771
780.9900, 32.30469
782.1340, 60.53516
783.2790, 91.76904
784.4230, 66.00488
785.5670, 48.24365
786.7110, 41.48389
787.8550, 69.72607
788.9980, 13.96973
790.1420, 33.45410
791.2850, 43.54102
792.4280, 24.69141
793.5710, 1.063477
794.7140, 21.83105
795.8560, 13.60449
796.9990, 7.381836
798.1410, 75.16211
799.2830, 42.97607
800.4250, 8.192383
801.5670, 51.63965
802.7090, 64.50488
803.8500, 12.64648
804.9920, 12.21387
806.1330, 36.03809
807.2740, 98.92480
808.4150, 133.8628
809.5550, 104.7510
810.6960, 96.70898
811.8360, 119.6855
812.9760, 6.751953
814.1160, 72.58008
815.2560, 60.74707
816.3960, 4.944336
817.5350, 75.16650
818.6750, 4.559570
819.8140, 63.56006
820.9530, 29.81934
822.0920, 0.2397460
823.2310, 10.67383
824.3690, 59.12598
825.5080, 22.92529
826.6460, 86.16504
827.7840, 3.729492
828.9220, 45.56641
830.0600, 68.08936
831.1970, 0.9511720
832.3350, 0.3129880
833.4720, 41.67383
834.6090, 101.2119
835.7460, 13.50928
836.8830, 57.58496
838.0190, 77.14258
839.1560, 34.93945
840.2920, 60.21338
841.4280, 9.648438
842.5640, 66.53125
843.7000, 52.63574
844.8360, 16.33203
845.9710, 49.19141
847.1070, 110.2788
848.2420, 55.24219
849.3770, 96.19775
850.5120, 169.7007
851.6460, 54.61768
852.7810, 84.51709
853.9150, 38.29639
855.0490, 115.8184
856.1830, 185.6240
857.3170, 28.16797
858.4510, 62.93018
859.5840, 174.6719
860.7180, 176.1450
861.8510, 177.2788
862.9840, 137.9937
864.1170, 100.8076
865.2500, 164.4648
866.3820, 128.1021
867.5150, 187.7202
868.6470, 210.3188
869.7790, 162.8970
870.9110, 66.45508
872.0430, 137.9902
873.1740, 82.50488
874.3060, 188.0005
875.4370, 100.6147
876.5680, 186.0698
877.6990, 169.6392
878.8300, 53.05225
879.9600, 65.46533
881.0910, 132.8213
882.2210, 51.15576
883.3510, 156.4590
884.4810, 173.7485
885.6110, 78.01660
886.7410, 99.25928
887.8700, 136.4780
888.9990, 98.67432
890.1290, 112.8467
891.2580, 75.99512
892.3860, 181.1309
893.5150, 196.2349
894.6440, 192.3789
895.7720, 184.4365
896.9000, 174.4717
898.0280, 80.48291
899.1560, 155.4653
900.2840, 198.4233
901.4110, 102.4829
902.5390, 65.58252
903.6660, 188.3262
904.7930, 200.1611
905.9200, 339.9990
907.0470, 212.1836
908.1730, 195.9971
909.3000, 107.8086
910.4260, 240.6831
911.5520, 312.3833
912.6780, 212.0654
913.8030, 216.8506
914.9290, 265.4766
916.0540, 237.4229
917.1800, 228.0176
918.3050, 206.7065
919.4300, 206.2314
920.5550, 204.8296
921.6790, 197.2070
922.8040, 213.6538
923.9280, 207.0767
925.0520, 208.4736
926.1760, 242.8452
927.3000, 198.9355
928.4230, 177.3711
929.5470, 203.7959
930.6700, 215.6138
931.7930, 222.7773
932.9160, 231.8413
934.0390, 226.5913
935.1620, 219.0918
936.2840, 212.3564
937.4070, 179.2002
938.5290, 182.4497
939.6510, 184.0063
940.7730, 171.2871
941.8940, 188.7407
943.0160, 176.5977
944.1370, 140.7290
945.2580, 138.9458
946.3800, 126.8999
947.5000, 124.7354
948.6210, 96.37939
949.7420, 132.8291
950.8620, 127.9209
951.9820, 131.2363
953.1020, 48.22656
954.2220, 42.86133
955.3420, 109.3550
956.4620, 184.8926
957.5810, 140.0806
958.7000, 163.6499
959.8190, 64.10791
960.9380, 74.15771
962.0570, 131.7891
963.1760, 17.49414
964.2940, 77.28320
965.4120, 20.73682
966.5300, 123.2324
967.6480, 117.6030
968.7660, 82.97900
969.8840, 151.3394
971.0010, 42.39160
972.1190, 126.6943
973.2360, 5.769531
974.3530, 126.6133
975.4690, 148.8350
976.5860, 147.1870
977.7030, 88.78711
978.8190, 24.94531
979.9350, 43.30469
981.0510, 88.40820
982.1670, 163.6011
983.2830, 112.6631
984.3980, 40.70459
985.5130, 133.3228
986.6290, 185.3003
987.7440, 19.72314
988.8590, 58.55664
989.9730, 159.4624
991.0880, 28.48438
992.2020, 229.4038
993.3160, 113.1587
994.4300, 27.97949
995.5440, 24.22510
996.6580, 107.6597
997.7720, 79.38623
998.8850, 250.0923
999.9980, 247.7788
1001.111, 261.4463
1002.224, 332.0952
1003.337, 223.7251
1004.450, 124.3354
1005.562, 160.6108
1006.674, 229.3120
1007.786, 116.4531
1008.898, 78.10352
1010.010, 236.5933
1011.122, 78.09033
1012.233, 121.5679
1013.344, 102.1270
1014.455, 179.9717
1015.566, 163.3945
1016.677, 171.7363
1017.788, 189.0903
1018.898, 209.4668
1020.009, 148.5225
1021.119, 221.6934
1022.229, 158.0176
1023.339, 144.1646
1024.448, 162.3589
1025.558, 104.2744
1026.667, 135.7246
1027.776, 90.96191
1028.885, 152.1812
1029.994, 219.3848
1031.103, 112.5708
1032.211, 253.0664
1033.320, 134.2192
1034.428, 73.35596
1035.536, 60.12939
1036.644, 3.925293
1037.751, 12.34424
1038.859, 97.18652
1039.966, 37.21436
1041.074, 90.22217
1042.181, 84.21484
1043.288, 61.79443
1044.394, 162.7754
1045.501, 94.72021
1046.607, 63.64893
1047.713, 173.5615
1048.820, 35.45947
1049.925, 89.33984
1051.031, 60.20410
1052.137, 121.0532
1053.242, 124.8877
1054.348, 136.7080
1055.453, 140.0068
1056.558, 96.30518
1057.662, 106.0830
1058.767, 98.84619
1059.871, 64.59570
1060.976, 59.33789
1062.080, 46.15723
1063.184, 57.41309
1064.288, 36.46875
1065.391, 84.22656
1066.495, 100.9028
1067.598, 82.66406
1068.701, 56.49023
1069.804, 127.1509
1070.907, 112.8091
1072.010, 66.45557
1073.112, 32.08936
1074.214, 57.14746
1075.317, 16.43115
1076.419, 124.0566
1077.521, 60.58301
1078.622, 110.1382
1079.724, 44.66895
1080.825, 31.24170
1081.926, 104.5571
1083.027, 105.1748
1084.128, 172.7900
1085.229, 97.41064
1086.329, 102.0449
1087.430, 173.5068
1088.530, 65.07373
1089.630, 82.77295
1090.730, 52.46533
1091.830, 54.15283
1092.929, 6.299805
1094.029, 37.72217
1095.128, 34.26562
1096.227, 71.21045
1097.326, 100.6265
1098.425, 77.11865
1099.523, 124.7847
1100.622, 90.42529
1101.720, 56.86768
1102.818, 17.53076
1103.916, 57.58740
1105.014, 64.22803
1106.111, 8.892090
1107.209, 72.56396
1108.306, 44.77197
1109.403, 9.865234
1110.500, 73.40430
1111.597, 101.0537
1112.694, 138.1758
1113.790, 23.71240
1114.887, 80.34814
1115.983, 138.9702
1117.079, 2.979980
1118.174, 130.6299
1119.270, 120.2329
1120.366, 109.5249
1121.461, 61.84424
1122.556, 10.44824
1123.651, 97.28857
1124.746, 73.88330
1125.841, 79.47217
1126.935, 208.3076
1128.030, 31.54297
1129.124, 62.99170
1130.218, 106.4033
1131.312, 179.9473
1132.405, 37.48535
1133.499, 135.0181
1134.592, 70.54590
1135.686, 38.06934
1136.779, 24.58789
1137.871, 0.9985350
1138.964, 11.07666
1140.057, 2.131836
1141.149, 33.46582
1142.241, 59.95410
1143.334, 82.30371
1144.425, 57.78418
1145.517, 99.23486
1146.609, 49.71484
1147.700, 131.1909
1148.791, 32.33203
1149.883, 124.7588
1150.974, 0.7880860
1152.064, 121.6616
1153.155, 81.28369
1154.245, 10.72705
1155.336, 25.16943
1156.426, 21.39209
1157.516, 2.359375
1158.606, 92.44775
1159.695, 66.80469
1160.785, 89.80127
1161.874, 163.7324
1162.963, 76.14453
1164.052, 92.55762
1165.141, 148.9678
1166.230, 85.25244
1167.318, 104.4688
1168.406, 46.00977
1169.495, 118.4346
1170.583, 74.83008
1171.670, 64.85254
1172.758, 91.22070
1173.846, 9.564453
1174.933, 4.818359
1176.020, 44.28125
1177.107, 116.6753
1178.194, 60.94092
1179.281, 95.34082
1180.367, 89.10254
1181.454, 28.77148
1182.540, 86.03027
1183.626, 109.4268
1184.712, 142.8228
1185.798, 129.9199
1186.883, 47.61328
1187.969, 62.00830
1189.054, 74.40381
1190.139, 5.798828
1191.224, 44.09668
1192.309, 21.37549
1193.393, 22.59424
1194.478, 74.87158
1195.562, 24.97803
1196.646, 83.40527
1197.730, 3.208008
1198.814, 26.82568
1199.897, 158.4365
1200.981, 108.8140
1202.064, 24.19287
1203.147, 43.50781
1204.230, 3.363770
1205.313, 3.081055
1206.396, 20.87646
1207.478, 96.25781
1208.560, 54.56592
1209.642, 72.95020
1210.724, 2.200684
1211.806, 98.36816
1212.888, 155.7578
1213.969, 64.14844
1215.051, 19.53955
1216.132, 61.93262
1217.213, 11.33105
1218.294, 85.73633
1219.374, 11.12012
1220.455, 35.52686
1221.535, 103.8652
1222.616, 76.21387
1223.696, 157.1567
1224.775, 151.4497
1225.855, 12.73193
1226.935, 124.1650
1228.014, 11.39893
1229.093, 224.0420
1230.172, 196.4834
1231.251, 196.9268
1232.330, 28.36328
1233.408, 8.375000
1234.487, 18.08545
1235.565, 0.5483400
1236.643, 146.7769
1237.721, 21.25098
1238.799, 68.40283
1239.876, 154.6582
1240.954, 90.13770
1242.031, 1.623047
1243.108, 134.4897
1244.185, 128.8765
1245.262, 181.5371
1246.338, 196.0942
1247.415, 80.95703
1248.491, 190.4722
1249.567, 51.99072
1250.643, 59.52539
1251.719, 19.06250
1252.795, 116.4668
1253.870, 63.01221
1254.945, 105.5605
1256.021, 148.3447
1257.096, 61.90088
1258.170, 140.3345
1259.245, 119.9102
1260.320, 156.4893
1261.394, 238.0708
1262.468, 109.6553
1263.542, 184.2432
1264.616, 158.8330
1265.690, 35.42578
1266.763, 143.9941
1267.836, 182.4653
1268.910, 129.3296
1269.983, 122.8198
1271.055, 206.4292
1272.128, 157.0459
1273.201, 74.66699
1274.273, 147.2910
1275.345, 119.9189
1276.417, 130.5493
1277.489, 49.19141
1278.561, 45.13086
1279.632, 67.50293
1280.704, 224.9819
1281.775, 9.376953
1282.846, 145.2656
1283.917, 137.8589
1284.988, 58.50879
1286.058, 56.89014
1287.129, 146.3511
1288.199, 80.01172
1289.269, 6.322754
1290.339, 118.3447
1291.409, 87.01611
1292.478, 178.6914
1293.548, 144.3711
1294.617, 179.0537
1295.686, 98.74023
1296.755, 217.4316
1297.824, 103.1353
1298.893, 181.8457
1299.961, 137.5605
1301.029, 122.2798
1302.097, 40.00391
1303.165, 110.7275
1304.233, 4.562500
1305.301, 206.1719
1306.368, 30.91016
1307.436, 278.6519
1308.503, 182.3975
1309.570, 204.1489
1310.637, 271.9038
1311.703, 248.6631
1312.770, 291.4258
1313.836, 299.1924
1314.902, 209.9629
1315.968, 275.7373
1317.034, 226.5156
1318.100, 139.2983
1319.165, 178.0854
1320.231, 102.8770
1321.296, 195.6729
1322.361, 152.5308
1323.426, 180.2798
1324.491, 126.0225
1325.555, 136.8379
1326.620, 135.5771
1327.684, 190.2510
1328.748, 65.08105
1329.812, 157.9160
1330.875, 82.75586
1331.939, 160.6001
1333.002, 157.3735
1334.066, 125.1602
1335.129, 87.02295
1336.192, 103.8911
1337.254, 118.7642
1338.317, 128.6421
1339.379, 110.5249
1340.442, 130.2134
1341.504, 130.3091
1342.566, 155.2065
1343.628, 129.1074
1344.689, 154.0137
1345.751, 96.92480
1346.812, 92.84131
1347.873, 14.76318
1348.934, 81.68799
1349.995, 70.64844
1351.055, 160.5542
1352.116, 126.4971
1353.176, 137.4463
1354.236, 170.4004
1355.296, 37.36035
1356.356, 221.0220
1357.416, 1.992188
1358.475, 60.96729
1359.535, 141.9478
1360.594, 129.5298
1361.653, 165.4131
1362.712, 93.32080
1363.770, 167.3198
1364.829, 139.3281
1365.887, 132.3418
1366.945, 125.3755
1368.003, 20.41504
1369.061, 48.46045
1370.119, 16.33154
1371.177, 168.7236
1372.234, 9.216309
1373.291, 132.6909
1374.348, 102.7627
1375.405, 71.84180
1376.462, 172.1255
1377.518, 103.2163
1378.575, 146.3135
1379.631, 52.41553
1380.687, 174.5249
1381.743, 154.6396
1382.799, 11.23926
1383.854, 126.8867
1384.910, 108.0190
1385.965, 71.16699
1387.020, 57.32080
1388.075, 61.39404
1389.130, 31.99658
1390.184, 99.81982
1391.239, 17.99902
1392.293, 61.20264
1393.347, 102.3955
1394.401, 78.59521
1395.455, 144.8022
1396.509, 36.01953
1397.562, 167.2446
1398.615, 83.44482
1399.669, 7.684082
1400.722, 76.89453
1401.774, 87.11133
1402.827, 123.3354
1403.879, 49.31543
1404.932, 225.5332
1405.984, 140.1328
1407.036, 153.3403
1408.088, 196.5503
1409.139, 117.5903
1410.191, 193.8101
1411.242, 158.0342
1412.294, 125.2637
1413.345, 62.50244
1414.395, 184.8228
1415.446, 132.0713
1416.497, 72.22705
1417.547, 124.4829
1418.597, 60.74121
1419.647, 22.97412
1420.697, 50.62061
1421.747, 178.3931
1422.796, 87.57520
1423.846, 179.7568
1424.895, 240.9385
1425.944, 192.1191
1426.993, 103.2925
1428.042, 55.46191
1429.090, 155.6250
1430.139, 67.78320
1431.187, 190.8809
1432.235, 140.0400
1433.283, 143.1992
1434.331, 230.4546
1435.378, 183.6230
1436.426, 286.8013
1437.473, 196.9600
1438.520, 209.1021
1439.567, 226.3672
1440.614, 336.6406
1441.661, 224.9219
1442.707, 306.2119
1443.753, 263.5098
1444.799, 306.8213
1445.845, 259.1465
1446.891, 333.4922
1447.937, 240.8477
1448.982, 324.2119
1450.028, 375.5869
1451.073, 261.9707
1452.118, 346.3643
1453.163, 311.7656
1454.207, 298.1768
1455.252, 494.5977
1456.296, 369.0283
1457.340, 416.4668
1458.384, 306.9160
1459.428, 392.3750
1460.472, 370.8457
1461.515, 293.3271
1462.559, 122.8057
1463.602, 172.2803
1464.645, 218.7656
1465.688, 162.2598
1466.731, 269.7637
1467.773, 297.7764
1468.816, 225.0557
1469.858, 262.5439
1470.900, 226.0371
1471.942, 188.5391
1472.983, 128.0498
1474.025, 97.24023
1475.066, 176.7627
1476.108, 280.2939
1477.149, 169.8311
1478.190, 108.3760
1479.230, 69.92871
1480.271, 200.4893
1481.311, 223.0498
1482.352, 212.6113
1483.392, 313.1797
1484.432, 108.7314
1485.472, 42.68457
1486.511, 176.9092
1487.551, 126.5117
1488.590, 138.1240
1489.629, 64.74414
1490.668, 26.37305
1491.707, 130.0107
1492.745, 163.6611
1493.784, 57.32227
1494.822, 17.00586
1495.860, 148.6807
1496.898, 60.38086
1497.936, 26.90234
1498.974, 67.82910
1500.011, 114.5742
1501.049, 0.3359380
1502.086, 82.11328
1503.123, 33.90723
1504.160, 182.7148
1505.196, 89.53906
1506.233, 48.37793
1507.269, 125.2305
1508.305, 128.0977
1509.341, 88.98047
1510.377, 61.87891
1511.413, 50.79102
1512.449, 26.71973
1513.484, 145.6621
1514.519, 127.6221
1515.554, 176.6035
1516.589, 19.61523
1517.624, 80.64648
1518.658, 216.7021
1519.693, 82.78516
1520.727, 120.8887
1521.761, 55.01562
1522.795, 2.832031
1523.829, 144.3457
1524.862, 116.0488
1525.896, 177.0430
1526.929, 39.05078
1527.962, 16.92383
1528.995, 145.8604
1530.028, 213.7803
1531.060, 123.4902
1532.093, 160.3730
1533.125, 194.0156
1534.157, 123.6377
1535.189, 127.2344
1536.221, 52.79883
1537.253, 69.32520
1538.284, 13.80469
1539.316, 49.22949
1540.347, 81.48535
1541.378, 33.75293
1542.408, 132.9180
1543.439, 59.70410
1544.470, 83.73730
1545.500, 62.95508
1546.530, 29.15039
1547.560, 150.6377
1548.590, 174.9639
1549.620, 52.05762
1550.649, 167.0889
1551.679, 118.4844
1552.708, 116.4492
1553.737, 104.6357
1554.766, 140.0752
1555.794, 67.46191
1556.823, 172.9424
1557.851, 1.118164
1558.879, 40.48926
1559.907, 40.70703
1560.935, 42.47070
1561.963, 0.0000000E+00
##END=



