##NAMES=Bertrandite
##RRUFFID=R060800
##IDEAL CHEMISTRY=Be_4_Si_2_O_7_(OH)_2_
##LOCALITY=Golconda mine, Governador Valadares, Minas Gerais, Brazil
##OWNER=RRUFF
##SOURCE=Bob Jenkins
##DESCRIPTION=Colorless pseudohexagonal prisms
##STATUS=The identification of this mineral is confirmed by single-crystal X-ray diffraction and chemical analysis.
##URL=rruff.info/R060800
##MEASURED CHEMISTRY=Be_4.00_Si_2.00_O_7_(OH)_2_
##PIN_ID=M00406
##ORIENTATION=Laser parallel to b* (0 1 0). Fiducial mark perpendicular to laser is parallel to c [0 0 1]
123.0580, 0.0000000E+00
124.2880, 7.415039
125.5190, 111.6880
126.7490, 19.38623
127.9790, 26.41064
129.2090, 2.377930
130.4390, 143.1387
131.6680, 108.0596
132.8980, 21.48633
134.1270, 154.2402
135.3560, 122.1660
136.5850, 32.86914
137.8140, 20.02734
139.0430, 87.76172
140.2710, 20.25439
141.5000, 36.43799
142.7280, 83.25732
143.9560, 54.65820
145.1840, 78.52930
146.4120, 3.003418
147.6390, 81.86084
148.8670, 91.13867
150.0940, 86.80664
151.3210, 152.8398
152.5490, 9.216309
153.7750, 184.9160
155.0020, 190.9194
156.2290, 93.20996
157.4550, 271.7744
158.6810, 244.5977
159.9080, 280.6660
161.1340, 302.9907
162.3590, 345.5391
163.5850, 452.2891
164.8110, 388.2070
166.0360, 522.2837
167.2610, 693.5112
168.4860, 949.8809
169.7110, 1374.386
170.9360, 2057.021
172.1610, 3239.865
173.3850, 4430.885
174.6100, 5747.020
175.8340, 6693.282
177.0580, 7897.677
178.2820, 10817.20
179.5050, 15045.85
180.7290, 19374.62
181.9520, 21310.51
183.1760, 19193.49
184.3990, 15437.58
185.6220, 12081.78
186.8450, 10087.08
188.0670, 8239.482
189.2900, 6931.986
190.5120, 6439.584
191.7340, 7377.273
192.9560, 9804.048
194.1780, 13641.91
195.4000, 18018.84
196.6220, 20678.83
197.8430, 23318.55
199.0640, 29047.56
200.2860, 38035.61
201.5070, 47756.41
202.7270, 54906.43
203.9480, 50581.43
205.1690, 39595.44
206.3890, 30595.48
207.6090, 23307.56
208.8290, 17076.66
210.0490, 11330.81
211.2690, 7160.987
212.4890, 4494.202
213.7080, 3353.453
214.9280, 3075.743
216.1470, 3098.070
217.3660, 3820.436
218.5850, 5058.839
219.8030, 6363.307
221.0220, 7190.697
222.2400, 8212.373
223.4590, 10879.96
224.6770, 14944.68
225.8950, 19646.54
227.1120, 22604.64
228.3300, 21533.97
229.5480, 17991.42
230.7650, 14551.94
231.9820, 11604.48
233.1990, 9087.046
234.4160, 6736.621
235.6330, 5014.214
236.8490, 4554.823
238.0660, 4449.446
239.2820, 4392.086
240.4980, 4051.742
241.7140, 3434.413
242.9300, 2684.100
244.1460, 2180.802
245.3610, 1749.560
246.5770, 1298.433
247.7920, 863.4263
249.0070, 680.4551
250.2220, 506.5508
251.4370, 459.7104
252.6510, 356.8843
253.8660, 335.0654
255.0800, 371.2510
256.2940, 252.4419
257.5080, 401.6377
258.7220, 508.8379
259.9360, 361.0430
261.1490, 334.2515
262.3630, 102.4639
263.5760, 237.6797
264.7890, 145.8979
266.0020, 88.12158
267.2150, 121.3525
268.4270, 37.59326
269.6400, 98.20557
270.8520, 27.29053
272.0640, 64.13086
273.2760, 63.24023
274.4880, 0.6357420
275.7000, 19.44531
276.9120, 4.072266
278.1230, 30.49219
279.3340, 19.17676
280.5450, 6.8847999E-02
281.7560, 12.76367
282.9670, 106.2295
284.1780, 130.2056
285.3880, 226.9980
286.5980, 324.3706
287.8090, 421.5146
289.0190, 540.7324
290.2290, 636.0034
291.4380, 735.3242
292.6480, 1030.692
293.8570, 1395.106
295.0670, 1804.564
296.2760, 2411.062
297.4850, 2420.602
298.6930, 1931.178
299.9020, 1333.791
301.1110, 1077.439
302.3190, 736.1211
303.5270, 493.8350
304.7350, 277.5801
305.9430, 196.3550
307.1510, 155.1587
308.3580, 83.98877
309.5660, 63.84619
310.7730, 57.72803
311.9800, 54.63525
313.1870, 99.56641
314.3940, 40.17188
315.6010, 98.80127
316.8070, 68.20312
318.0130, 56.19385
319.2200, 27.83008
320.4260, 13.03076
321.6310, 221.7485
322.8370, 222.9629
324.0430, 111.6479
325.2480, 184.7783
326.4540, 387.5684
327.6590, 384.2603
328.8640, 482.6309
330.0680, 495.2437
331.2730, 405.4829
332.4780, 450.3340
333.6820, 430.9937
334.8860, 371.5322
336.0900, 370.2637
337.2940, 255.5039
338.4980, 288.2490
339.7010, 271.5054
340.9050, 286.7690
342.1080, 342.0391
343.3110, 332.3120
344.5140, 501.5923
345.7170, 536.8779
346.9200, 920.1665
348.1220, 1156.462
349.3240, 1441.764
350.5270, 1857.072
351.7290, 2058.388
352.9310, 2235.708
354.1320, 2628.034
355.3340, 3167.367
356.5350, 3187.705
357.7370, 3028.047
358.9380, 3083.704
360.1390, 2865.038
361.3400, 2654.104
362.5400, 2385.466
363.7410, 2012.007
364.9410, 1618.515
366.1410, 1201.983
367.3410, 937.1348
368.5410, 632.2583
369.7410, 621.8242
370.9400, 225.3374
372.1400, 337.3857
373.3390, 212.9854
374.5380, 293.6265
375.7370, 235.4541
376.9360, 335.7944
378.1350, 326.8989
379.3330, 428.2822
380.5310, 372.6621
381.7300, 487.0591
382.9280, 604.4517
384.1260, 598.8398
385.3230, 659.2241
386.5210, 636.6035
387.7180, 578.9785
388.9160, 504.3491
390.1130, 499.7139
391.3100, 288.0728
392.5060, 311.4253
393.7030, 263.7715
394.9000, 279.1104
396.0960, 252.4419
397.2920, 289.7661
398.4880, 232.0830
399.6840, 236.3916
400.8800, 318.6934
402.0750, 315.9863
403.2710, 386.2715
404.4660, 445.1333
405.6610, 433.8188
406.8560, 604.5234
408.0510, 719.7769
409.2450, 864.6577
410.4400, 937.0146
411.6340, 1054.940
412.8280, 1100.491
414.0220, 1139.709
415.2160, 1199.289
416.4100, 1176.506
417.6030, 1049.724
418.7970, 1129.131
419.9900, 845.3516
421.1830, 912.5298
422.3760, 566.3179
423.5690, 413.5342
424.7610, 450.7334
425.9540, 432.9453
427.1460, 373.1606
428.3380, 369.3721
429.5300, 333.5806
430.7220, 456.7842
431.9140, 289.9834
433.1050, 506.1782
434.2970, 519.3687
435.4880, 556.5532
436.6790, 471.7324
437.8700, 584.9062
439.0610, 563.0732
440.2510, 484.2349
441.4420, 484.3901
442.6320, 455.5396
443.8220, 490.6821
445.0120, 631.8174
446.2020, 711.9458
447.3910, 660.0669
448.5810, 564.1802
449.7700, 490.2866
450.9600, 413.3843
452.1490, 266.4741
453.3370, 339.5562
454.5260, 132.6299
455.7150, 147.6953
456.9030, 29.75195
458.0910, 134.1172
459.2800, 76.15283
460.4670, 215.6709
461.6550, 80.55811
462.8430, 50.06299
464.0300, 33.08496
465.2180, 71.13037
466.4050, 1.759766
467.5920, 68.38965
468.7790, 1.426758
469.9650, 91.67383
471.1520, 117.7974
472.3380, 105.1875
473.5250, 114.6611
474.7110, 60.22412
475.8970, 40.84766
477.0820, 38.52100
478.2680, 6.754883
479.4540, 122.0054
480.6390, 33.24512
481.8240, 183.4683
483.0090, 99.68018
484.1940, 260.8809
485.3780, 347.0703
486.5630, 508.2480
487.7470, 496.4146
488.9320, 515.5698
490.1160, 419.7134
491.3000, 414.7949
492.4830, 369.2988
493.6670, 341.0747
494.8500, 285.1714
496.0340, 261.2568
497.2170, 228.3296
498.4000, 200.3916
499.5820, 182.1597
500.7650, 158.1392
501.9480, 143.5039
503.1300, 118.2158
504.3120, 90.51758
505.4940, 62.50537
506.6760, 15.52002
507.8580, 20.41260
509.0390, 41.67725
510.2210, 104.8228
511.4020, 48.05566
512.5830, 0.6528320
513.7640, 34.32812
514.9450, 17.98438
516.1250, 30.41846
517.3060, 17.74072
518.4860, 24.70557
519.6660, 11.79932
520.8460, 153.7637
522.0260, 124.2275
523.2060, 134.4058
524.3850, 212.8423
525.5650, 225.2661
526.7440, 296.6758
527.9230, 433.0723
529.1020, 627.4561
530.2810, 684.8262
531.4590, 946.1836
532.6380, 1133.527
533.8160, 1596.857
534.9940, 1847.174
536.1720, 1901.479
537.3500, 1556.770
538.5270, 1260.047
539.7050, 889.3115
540.8820, 583.5625
542.0590, 366.8018
543.2360, 375.0283
544.4130, 226.2402
545.5900, 176.4404
546.7660, 115.6270
547.9430, 56.80078
549.1190, 135.9570
550.2950, 47.10156
551.4710, 80.22559
552.6470, 44.33594
553.8220, 62.42773
554.9980, 104.5020
556.1730, 42.56445
557.3480, 135.6094
558.5230, 150.6416
559.6980, 26.66113
560.8730, 166.6562
562.0470, 145.6387
563.2220, 265.6143
564.3960, 328.5801
565.5700, 278.5312
566.7440, 406.4795
567.9170, 521.4355
569.0910, 795.3779
570.2640, 1081.309
571.4380, 1407.227
572.6110, 1650.146
573.7840, 2042.073
574.9570, 2432.988
576.1290, 2834.892
577.3020, 2915.789
578.4740, 2682.694
579.6460, 2224.607
580.8180, 1764.529
581.9900, 1388.454
583.1620, 1090.371
584.3330, 752.2773
585.5040, 537.1719
586.6760, 519.0547
587.8470, 294.9248
589.0180, 331.7822
590.1880, 208.6309
591.3590, 169.4814
592.5290, 125.3350
593.7000, 154.1953
594.8700, 135.0430
596.0400, 115.8789
597.2090, 88.70312
598.3790, 127.2080
599.5490, 117.0127
600.7180, 139.8096
601.8870, 152.6006
603.0560, 42.38867
604.2250, 114.0664
605.3940, 117.1113
606.5620, 128.7275
607.7300, 232.8799
608.8990, 84.59277
610.0670, 10.65137
611.2350, 36.80762
612.4020, 231.2881
613.5700, 260.5303
614.7370, 173.1514
615.9050, 249.1631
617.0720, 172.3691
618.2390, 312.7002
619.4060, 335.8408
620.5720, 431.4736
621.7390, 417.6025
622.9050, 329.2236
624.0710, 340.8379
625.2370, 263.4463
626.4030, 232.0488
627.5690, 300.6445
628.7340, 234.2344
629.9000, 123.8193
631.0650, 82.39746
632.2300, 155.9697
633.3950, 41.53711
634.5600, 153.0986
635.7240, 21.65527
636.8890, 141.2061
638.0530, 172.7520
639.2170, 124.2920
640.3810, 84.82715
641.5450, 97.53613
642.7080, 45.88281
643.8720, 102.4023
645.0350, 126.9180
646.1980, 154.2529
647.3610, 156.6152
648.5240, 166.9971
649.6870, 161.9941
650.8490, 74.41699
652.0120, 151.6963
653.1740, 12.02637
654.3360, 35.81738
655.4980, 87.94727
656.6600, 34.77930
657.8210, 65.18848
658.9830, 36.63770
660.1440, 68.67969
661.3050, 9.702148
662.4660, 88.91797
663.6270, 61.41992
664.7870, 64.75586
665.9480, 208.0908
667.1080, 172.4248
668.2680, 306.7588
669.4280, 257.0918
670.5880, 463.4248
671.7480, 497.7568
672.9070, 536.0879
674.0670, 777.4199
675.2260, 1004.752
676.3850, 1243.083
677.5440, 1535.414
678.7030, 1813.746
679.8610, 2174.077
681.0200, 2613.408
682.1780, 3077.742
683.3360, 3838.075
684.4940, 4569.410
685.6520, 5510.744
686.8090, 6073.079
687.9670, 6571.972
689.1240, 6977.310
690.2810, 6599.012
691.4380, 6298.230
692.5950, 5418.873
693.7520, 4791.885
694.9080, 4209.230
696.0650, 3843.478
697.2210, 3575.196
698.3770, 3524.549
699.5330, 3668.701
700.6880, 3958.946
701.8440, 4485.107
702.9990, 5130.768
704.1550, 6035.130
705.3100, 7116.051
706.4650, 8283.115
707.6190, 9729.488
708.7740, 10685.86
709.9290, 11020.24
711.0830, 11203.61
712.2370, 10169.81
713.3910, 9060.194
714.5450, 7714.582
715.6980, 6310.264
716.8520, 5004.567
718.0050, 4102.017
719.1580, 3227.782
720.3110, 2662.919
721.4640, 2268.871
722.6170, 1782.277
723.7700, 1544.685
724.9220, 1385.096
726.0740, 1244.510
727.2260, 1262.926
728.3780, 1079.792
729.5300, 1092.396
730.6810, 1141.993
731.8330, 1105.513
732.9840, 1118.942
734.1350, 1004.376
735.2860, 1043.811
736.4370, 886.2490
737.5880, 734.6934
738.7380, 815.7705
739.8880, 787.2207
741.0390, 796.9971
742.1890, 839.9580
743.3380, 957.4199
744.4880, 986.9033
745.6380, 1221.416
746.7870, 1388.941
747.9360, 1806.499
749.0850, 2135.943
750.2340, 2552.374
751.3830, 2832.025
752.5310, 3040.716
753.6800, 3146.453
754.8280, 3003.218
755.9760, 2636.010
757.1240, 2427.823
758.2720, 2133.651
759.4190, 1879.484
760.5670, 1720.323
761.7140, 1634.168
762.8610, 1683.019
764.0080, 1933.875
765.1550, 2075.736
766.3020, 2469.603
767.4480, 2711.476
768.5950, 3136.354
769.7410, 3355.236
770.8870, 3341.127
772.0330, 3196.023
773.1780, 2865.926
774.3240, 2245.833
775.4690, 1761.746
776.6140, 1465.667
777.7590, 1139.593
778.9040, 888.5254
780.0490, 660.4648
781.1940, 589.4111
782.3380, 431.3633
783.4820, 245.3223
784.6260, 423.2891
785.7700, 261.2764
786.9140, 243.2754
788.0580, 235.3037
789.2010, 205.3760
790.3450, 243.4805
791.4880, 211.6006
792.6310, 237.7314
793.7730, 232.9102
794.9160, 174.5029
796.0590, 95.68750
797.2010, 198.9004
798.3430, 218.6396
799.4850, 173.8760
800.6270, 267.3906
801.7690, 114.6445
802.9100, 224.9062
804.0520, 64.17676
805.1930, 322.4551
806.3340, 147.7422
807.4750, 288.0400
808.6160, 371.3457
809.7560, 473.6602
810.8970, 460.9834
812.0370, 784.3154
813.1770, 1050.657
814.3170, 1338.010
815.4570, 1754.371
816.5960, 2113.740
817.7360, 2343.121
818.8750, 2632.511
820.0140, 2580.909
821.1530, 2460.318
822.2920, 2135.738
823.4310, 1885.165
824.5690, 1361.604
825.7070, 1152.055
826.8460, 1007.515
827.9840, 643.9873
829.1220, 534.4717
830.2590, 326.9688
831.3970, 313.4775
832.5340, 293.9961
833.6710, 201.5293
834.8080, 84.07227
835.9450, 58.63086
837.0820, 24.21680
838.2190, 21.18457
839.3550, 64.41406
840.4910, 132.0225
841.6270, 32.35840
842.7630, 89.74512
843.8990, 69.83887
845.0350, 44.43262
846.1700, 12.03711
847.3060, 59.34863
848.4410, 91.75000
849.5760, 29.81543
850.7100, 63.39160
851.8450, 27.02051
852.9800, 93.43555
854.1140, 78.88281
855.2480, 101.3564
856.3820, 54.86621
857.5160, 32.39062
858.6500, 140.0820
859.7830, 71.56445
860.9170, 101.0576
862.0500, 145.5605
863.1830, 11.07617
864.3160, 9.397461
865.4480, 63.83691
866.5810, 63.74219
867.7130, 80.76562
868.8460, 5.740234
869.9780, 13.25684
871.1100, 74.79590
872.2410, 103.3672
873.3730, 100.4414
874.5050, 14.44336
875.6360, 133.1953
876.7670, 7.154297
877.8980, 90.50195
879.0290, 35.17578
880.1590, 172.8594
881.2900, 228.5547
882.4200, 127.2598
883.5500, 224.9775
884.6800, 188.7051
885.8100, 155.4502
886.9400, 192.2070
888.0690, 132.9736
889.1990, 188.7520
890.3280, 108.5400
891.4570, 122.3379
892.5860, 225.1465
893.7140, 102.9658
894.8430, 53.79395
895.9710, 164.6338
897.1000, 162.4824
898.2280, 210.3408
899.3560, 42.21094
900.4830, 210.0889
901.6110, 277.9795
902.7380, 161.8789
903.8660, 394.7881
904.9930, 270.7070
906.1200, 536.6377
907.2460, 418.5781
908.3730, 449.5283
909.5000, 513.4893
910.6260, 639.4590
911.7520, 756.4395
912.8780, 963.4307
914.0040, 1166.433
915.1290, 1639.443
916.2550, 2155.466
917.3800, 2752.498
918.5050, 3836.540
919.6300, 5198.594
920.7550, 6903.654
921.8800, 9053.728
923.0040, 11143.81
924.1290, 13326.92
925.2530, 14758.02
926.3770, 14242.14
927.5010, 12513.27
928.6250, 10013.42
929.7480, 7907.592
930.8720, 5933.787
931.9950, 4420.989
933.1180, 3559.206
934.2410, 2736.465
935.3640, 2316.732
936.4860, 1983.035
937.6090, 1532.346
938.7310, 1396.675
939.8530, 1262.013
940.9750, 1260.361
942.0970, 1276.717
943.2180, 1248.087
944.3400, 1515.477
945.4610, 1613.876
946.5820, 1534.312
947.7030, 1561.773
948.8240, 1618.245
949.9450, 1522.727
951.0650, 1274.216
952.1860, 1268.715
953.3060, 1139.223
954.4260, 904.7412
955.5460, 786.2754
956.6650, 753.2188
957.7850, 729.3701
958.9040, 782.9336
960.0230, 744.5059
961.1420, 818.0859
962.2610, 740.6758
963.3800, 912.2734
964.4990, 748.8818
965.6170, 1010.499
966.7350, 996.1250
967.8530, 868.7578
968.9710, 1074.400
970.0890, 1178.351
971.2070, 1299.291
972.3240, 1452.360
973.4410, 1797.043
974.5580, 2144.727
975.6750, 2493.416
976.7920, 3082.560
977.9090, 3623.590
979.0250, 4478.318
980.1410, 5441.055
981.2580, 6754.800
982.3740, 8229.564
983.4890, 10223.51
984.6050, 11564.28
985.7200, 12936.06
986.8360, 13481.55
987.9510, 13330.43
989.0660, 12423.19
990.1810, 10885.63
991.2950, 9221.716
992.4100, 7673.997
993.5240, 6234.837
994.6390, 5047.685
995.7530, 4160.543
996.8660, 3295.408
997.9800, 2802.283
999.0940, 2312.725
1000.207, 2023.436
1001.320, 1676.165
1002.433, 1604.998
1003.546, 1350.918
1004.659, 1320.007
1005.772, 981.4805
1006.884, 999.4258
1007.996, 789.6895
1009.108, 671.7754
1010.220, 543.7451
1011.332, 471.7490
1012.444, 526.6250
1013.555, 450.6182
1014.666, 404.6201
1015.777, 506.6279
1016.888, 396.6436
1017.999, 418.6670
1019.110, 329.6973
1020.220, 260.7422
1021.331, 399.7949
1022.441, 353.8535
1023.551, 420.9189
1024.661, 381.9912
1025.770, 339.0723
1026.880, 407.1592
1027.989, 199.2568
1029.098, 402.3613
1030.207, 329.4717
1031.316, 187.5889
1032.425, 221.7129
1033.533, 120.8447
1034.642, 171.9824
1035.750, 235.1270
1036.858, 96.27832
1037.966, 64.43555
1039.073, 143.6006
1040.181, 180.7715
1041.288, 65.94922
1042.396, 80.13281
1043.503, 193.3223
1044.610, 129.5186
1045.716, 154.7217
1046.823, 116.9932
1047.929, 202.2070
1049.036, 99.42871
1050.142, 166.6562
1051.248, 101.8887
1052.353, 65.12891
1053.459, 289.3740
1054.564, 88.62402
1055.670, 217.8799
1056.775, 0.1416020
1057.880, 79.41016
1058.985, 310.6816
1060.089, 177.8594
1061.194, 231.1416
1062.298, 508.4307
1063.402, 534.9453
1064.506, 525.2461
1065.610, 734.8545
1066.713, 843.5312
1067.817, 851.8428
1068.920, 813.7354
1070.023, 891.0557
1071.126, 940.2842
1072.229, 845.6123
1073.332, 899.2861
1074.435, 846.2822
1075.537, 828.4521
1076.639, 634.3193
1077.741, 463.6660
1078.843, 594.3682
1079.945, 666.6289
1081.046, 388.2402
1082.148, 531.5986
1083.249, 565.9600
1084.350, 530.3232
1085.451, 565.8877
1086.551, 362.2549
1087.652, 218.4150
1088.752, 231.7881
1089.853, 244.1631
1090.953, 213.1641
1092.053, 138.5430
1093.152, 81.92383
1094.252, 134.3066
1095.351, 195.6924
1096.451, 38.41992
1097.550, 130.8066
1098.649, 179.1953
1099.748, 100.5859
1100.846, 15.97656
1101.945, 25.63184
1103.043, 42.23828
1104.141, 8.867188
1105.239, 105.5029
1106.337, 29.87793
1107.434, 86.25391
1108.532, 62.63086
1109.629, 1.015625
1110.726, 119.7041
1111.823, 47.11426
1112.920, 84.52441
1114.017, 136.9355
1115.113, 203.3613
1116.210, 158.8076
1117.306, 305.2539
1118.402, 296.7021
1119.498, 298.1543
1120.593, 441.6309
1121.689, 439.1240
1122.784, 434.6416
1123.879, 440.1709
1124.974, 471.7080
1126.069, 339.2451
1127.164, 145.7812
1128.259, 177.3164
1129.353, 144.8516
1130.447, 110.6133
1131.541, 55.86426
1132.635, 35.35449
1133.729, 14.14160
1134.822, 47.37500
1135.916, 32.11035
1137.009, 85.61523
1138.102, 60.83008
1139.195, 33.72559
1140.288, 104.2998
1141.380, 57.07031
1142.473, 124.4395
1143.565, 0.8095700
1144.657, 70.17383
1145.749, 147.5381
1146.841, 158.8994
1147.932, 119.2598
1149.024, 67.61914
1150.115, 13.97754
1151.206, 60.73633
1152.297, 120.1006
1153.388, 165.4619
1154.479, 191.0625
1155.569, 63.17969
1156.659, 165.5449
1157.750, 208.9082
1158.839, 54.86426
1159.929, 242.2227
1161.019, 123.5791
1162.108, 275.9336
1163.198, 298.2861
1164.287, 311.6533
1165.376, 255.0176
1166.465, 306.4043
1167.553, 219.7891
1168.642, 151.1709
1169.730, 219.6240
1170.818, 187.0020
1171.906, 203.3770
1172.994, 202.7490
1174.082, 209.1182
1175.170, 111.4854
1176.257, 236.8496
1177.344, 16.20996
1178.431, 121.5674
1179.518, 186.9219
1180.605, 148.2725
1181.691, 94.62109
1182.778, 194.9658
1183.864, 50.30664
1184.950, 123.6455
1186.036, 135.9805
1187.122, 247.3135
1188.207, 27.62305
1189.292, 88.94922
1190.378, 32.72949
1191.463, 169.5635
1192.548, 58.85156
1193.632, 15.13770
1194.717, 31.41602
1195.801, 12.69238
1196.886, 55.04004
1197.970, 73.18652
1199.054, 6.259766
1200.137, 95.70215
1201.221, 15.08789
1202.305, 49.09961
1203.388, 44.28320
1204.471, 102.4648
1205.554, 2.640625
1206.637, 24.19531
1207.719, 107.9414
1208.802, 84.92480
1209.884, 45.85059
1210.966, 19.18555
1212.048, 147.2158
1213.130, 103.2412
1214.212, 113.2627
1215.293, 23.27930
1216.374, 116.2910
1217.456, 11.41211
1218.536, 91.57422
1219.617, 124.5547
1220.698, 8.533203
1221.778, 73.49902
1222.859, 118.4609
1223.939, 92.41992
1225.019, 99.37305
1226.099, 18.32227
1227.178, 83.26367
1228.258, 217.1992
1229.337, 168.1318
1230.417, 192.0596
1231.496, 126.9824
1232.574, 49.60156
1233.653, 116.7070
1234.732, 52.21387
1235.810, 118.1191
1236.888, 73.02051
1237.966, 150.9170
1239.044, 153.8096
1240.122, 34.50098
1241.199, 115.3535
1242.277, 320.2031
1243.354, 62.04785
1244.431, 334.8867
1245.508, 169.7227
1246.585, 236.5527
1247.661, 142.3779
1248.738, 100.1992
1249.814, 118.0146
1250.890, 119.8232
1251.966, 129.6279
1253.042, 215.4258
1254.117, 143.2197
1255.193, 257.0078
1256.268, 72.79297
1257.343, 167.5732
1258.418, 63.34668
1259.493, 226.1152
1260.567, 83.87402
1261.642, 118.6309
1262.716, 83.38281
1263.790, 137.0859
1264.864, 215.8262
1265.938, 61.40137
1267.011, 201.5967
1268.085, 197.3223
1269.158, 213.3623
1270.231, 117.3242
1271.304, 121.0469
1272.377, 124.7529
1273.450, 178.2168
1274.522, 162.9150
1275.594, 147.6074
1276.666, 281.2969
1277.738, 187.9805
1278.810, 59.66113
1279.882, 14.66309
1280.953, 260.2158
1282.025, 158.8691
1283.096, 137.5176
1284.167, 145.1631
1285.238, 56.55469
1286.308, 96.19238
1287.379, 0.1435550
1288.449, 138.4795
1289.519, 127.0977
1290.589, 143.8545
1291.659, 74.46387
1292.729, 251.0342
1293.798, 129.6348
1294.868, 252.0449
1295.937, 107.6846
1297.006, 358.2705
1298.075, 45.87500
1299.143, 165.4668
1300.212, 151.0879
1301.280, 133.6709
1302.348, 80.24902
1303.416, 125.8232
1304.484, 121.3926
1305.552, 125.9570
1306.620, 119.5547
1307.687, 106.5117
1308.754, 118.5635
1309.821, 85.11230
1310.888, 166.6553
1311.955, 188.1943
1313.021, 168.7285
1314.088, 256.2578
1315.154, 303.7812
1316.220, 176.3008
1317.286, 205.8164
1318.352, 315.3262
1319.417, 252.9355
1320.483, 305.4385
1321.548, 224.9365
1322.613, 262.2061
1323.678, 271.6846
1324.743, 204.8584
1325.807, 168.9629
1326.872, 93.43359
1327.936, 43.32422
1329.000, 167.7891
1330.064, 169.3457
1331.128, 299.8027
1332.191, 161.2578
1333.255, 137.7090
1334.318, 121.3291
1335.381, 144.2510
1336.444, 95.69336
1337.507, 59.78125
1338.569, 50.31250
1339.632, 52.03516
1340.694, 185.9307
1341.756, 86.36523
1342.818, 172.7832
1343.880, 178.0010
1344.941, 3.416016
1346.003, 63.03516
1347.064, 93.44043
1348.125, 196.8447
1349.186, 100.6240
1350.247, 227.0264
1351.308, 241.4277
1352.368, 128.8271
1353.428, 95.22461
1354.489, 156.2812
1355.549, 61.67578
1356.608, 81.07031
1357.668, 101.4590
1358.727, 217.8457
1359.787, 148.2314
1360.846, 36.39355
1361.905, 206.9912
1362.964, 212.3770
1364.022, 88.76172
1365.081, 182.1689
1366.139, 64.54004
1367.197, 10.09180
1368.255, 131.9824
1369.313, 80.33398
1370.371, 147.6855
1371.428, 192.0352
1372.486, 146.4619
1373.543, 213.7412
1374.600, 173.0186
1375.657, 278.2949
1376.713, 61.57031
1377.770, 111.8438
1378.826, 139.1152
1379.882, 179.3857
1380.938, 185.7041
1381.994, 131.0508
1383.050, 155.9170
1384.106, 137.1816
1385.161, 51.44531
1386.216, 86.70801
1387.271, 103.9697
1388.326, 76.25977
1389.381, 87.54883
1390.435, 14.16309
1391.490, 196.1240
1392.544, 158.4102
1393.598, 76.70508
1394.652, 120.0742
1395.705, 8.609375
1396.759, 67.71484
1397.812, 50.06641
1398.866, 157.4180
1399.919, 120.1484
1400.972, 58.12012
1402.024, 81.46973
1403.077, 82.82031
1404.129, 89.16895
1405.181, 124.5186
1406.233, 206.8652
1407.285, 34.19043
1408.337, 153.1455
1409.389, 59.48145
1410.440, 250.1377
1411.491, 26.52832
1412.542, 126.0146
1413.593, 47.34570
1414.644, 73.08203
1415.695, 94.45117
1416.745, 20.77637
1417.795, 124.1016
1418.845, 61.56934
1419.895, 117.7451
1420.945, 90.93848
1421.995, 44.35645
1423.044, 76.65332
1424.093, 50.95410
1425.142, 178.1533
1426.191, 52.46094
1427.240, 240.7725
1428.289, 272.0908
1429.337, 168.4121
1430.385, 93.73145
1431.433, 227.0498
1432.481, 107.3730
1433.529, 138.7021
1434.577, 282.2314
1435.624, 172.5762
1436.672, 212.9277
1437.719, 248.1143
1438.766, 218.3682
1439.812, 273.3467
1440.859, 305.8057
1441.905, 327.9434
1442.952, 303.3936
1443.998, 306.4678
1445.044, 321.1680
1446.090, 330.4014
1447.135, 353.1914
1448.181, 383.8477
1449.226, 420.1201
1450.271, 463.5029
1451.316, 533.9238
1452.361, 448.2686
1453.405, 476.7090
1454.450, 352.1475
1455.494, 441.6074
1456.538, 506.1064
1457.582, 404.6709
1458.626, 471.2402
1459.670, 432.8105
1460.713, 500.0732
1461.757, 302.6641
1462.800, 417.2627
1463.843, 341.8652
1464.886, 360.4727
1465.928, 238.0840
1466.971, 221.6992
1468.013, 236.4043
1469.055, 138.9941
1470.097, 155.1572
1471.139, 133.6582
1472.181, 125.8135
1473.222, 161.4434
1474.263, 156.0771
1475.305, 259.7168
1476.346, 341.3623
1477.386, 307.5254
1478.427, 349.6445
1479.468, 248.3330
1480.508, 323.9980
1481.548, 274.6689
1482.588, 258.0234
1483.628, 143.6943
1484.668, 189.3721
1485.707, 269.1680
1486.747, 125.8320
1487.786, 266.5166
1488.825, 181.2080
1489.864, 72.90723
1490.902, 124.2822
1491.941, 118.9707
1492.979, 270.9629
1494.017, 104.5752
1495.055, 162.2510
1496.093, 139.7041
1497.131, 46.94531
1498.168, 97.88574
1499.206, 171.3252
1500.243, 122.6924
1501.280, 107.1162
1502.317, 134.0391
1503.354, 105.2227
1504.390, 130.3848
1505.426, 84.80371
1506.463, 36.22559
1507.499, 5.348633
1508.535, 84.07715
1509.570, 186.5029
1510.606, 87.93262
1511.641, 101.3838
1512.676, 97.84277
1513.711, 124.3018
1514.746, 118.7568
1515.781, 104.2080
1516.816, 100.6504
1517.850, 111.0908
1518.884, 60.52051
1519.918, 169.9395
1520.952, 117.3770
1521.986, 126.8350
1523.019, 247.3037
1524.053, 172.6016
1525.086, 296.2080
1526.119, 160.6387
1527.152, 147.0547
1528.185, 217.4717
1529.217, 298.8887
1530.250, 156.3105
1531.282, 128.7158
1532.314, 158.0752
1533.346, 215.5635
1534.377, 19.07617
1535.409, 207.3262
1536.440, 33.27344
1537.472, 159.2461
1538.503, 287.2422
1539.534, 76.26660
1540.564, 184.5557
1541.595, 243.5527
1542.625, 165.5771
1543.656, 156.6338
1544.686, 109.7246
1545.716, 160.8525
1546.745, 180.7900
1547.775, 120.0010
1548.804, 46.73828
1549.834, 216.5830
1550.863, 175.9707
1551.892, 142.4385
1552.920, 353.9971
1553.949, 187.5840
1554.977, 255.7695
1556.006, 244.3867
1557.034, 155.8857
1558.062, 64.80664
1559.089, 214.8184
1560.117, 341.9424
1561.144, 189.9443
1562.172, 65.38184
1563.199, 124.1162
1564.226, 54.36816
1565.252, 111.0576
1566.279, 15.40527
1567.305, 87.30762
1568.332, 0.7099610
1569.358, 113.0273
1570.384, 183.3066
1571.409, 13.60547
1572.435, 0.0000000E+00
##END=



