##NAMES=Bikitaite
##RRUFFID=R050160
##IDEAL CHEMISTRY=LiAlSi_2_O_6_&#183;H_2_O
##LOCALITY=Foote mine, Kings Mountain, Cleveland County, North Carolina, USA
##OWNER=RRUFF
##SOURCE=Jim McGlasson
##DESCRIPTION=Colorless prismatic crystals
##STATUS=The identification of this mineral has been confirmed by X-ray diffraction and chemical analysis
##URL=rruff.info/R050160
##MEASURED CHEMISTRY=Li_1.00_Si_2.00_O_6_Â·1.25H_2_O ; Li not measured but estimated by stoichiometry
##PIN_ID=M00374
##ORIENTATION=Laser parallel to c* (0 0 1). Fiducial mark perpendicular to laser is parallel to a [1 0 0]
77.333, 0.000
78.729, 686.568
80.125, 1061.227
81.521, 1713.322
82.916, 2053.668
84.311, 2120.164
85.706, 1941.783
87.101, 1635.721
88.496, 1717.453
89.890, 2142.316
91.284, 2989.383
92.678, 3444.422
94.071, 4578.000
95.465, 5338.162
96.858, 6226.936
98.251, 7013.980
99.644, 7591.359
101.036, 8426.418
102.428, 8934.566
103.820, 9529.824
105.212, 10234.604
106.604, 10597.676
107.995, 11079.488
109.387, 10881.789
110.777, 10998.129
112.168, 10011.879
113.559, 8961.332
114.949, 7884.738
116.339, 6732.312
117.729, 5442.248
119.119, 4133.709
120.508, 2731.838
121.897, 2132.783
123.286, 1071.689
124.675, 417.682
126.063, 121.465
127.452, 221.551
128.840, 219.918
130.228, 71.859
131.615, 559.623
133.003, 736.301
134.390, 1115.443
135.777, 1420.771
137.164, 2388.400
138.550, 2763.811
139.937, 3545.680
141.323, 3892.654
142.709, 4492.883
144.094, 4667.195
145.480, 5099.559
146.865, 4962.912
148.250, 4912.242
149.635, 4836.555
151.019, 4567.861
152.403, 4640.174
153.788, 4591.492
155.171, 4799.834
156.555, 4615.193
157.939, 4432.584
159.322, 4396.004
160.705, 3977.420
162.088, 3664.846
163.470, 3182.443
164.853, 2761.293
166.235, 2311.430
167.617, 1972.865
168.998, 1481.604
170.380, 945.645
171.761, 492.973
173.142, 394.582
174.523, 48.393
175.904, 172.154
177.284, 334.207
178.664, 568.521
180.044, 535.004
181.424, 520.455
182.803, 616.693
184.183, 535.725
185.562, 484.592
186.940, 350.443
188.319, 159.217
189.698, 54.910
191.076, 406.477
192.454, 850.939
193.831, 1443.482
195.209, 2288.098
196.586, 3072.785
197.963, 4101.465
199.340, 5045.627
200.717, 5854.320
202.093, 6265.219
203.470, 6440.545
204.846, 5905.018
206.221, 5452.008
207.597, 4848.078
208.972, 3994.223
210.347, 3909.180
211.722, 4083.490
213.097, 4220.115
214.472, 4779.088
215.846, 5058.684
217.220, 5372.246
218.594, 5447.926
219.967, 5265.723
221.341, 4608.631
222.714, 3911.643
224.087, 3325.754
225.460, 2789.959
226.832, 2351.254
228.204, 1913.641
229.577, 1493.119
230.948, 1361.682
232.320, 1250.334
233.692, 1408.070
235.063, 1486.889
236.434, 1594.791
237.805, 1895.777
239.175, 2093.840
240.545, 2869.984
241.916, 3092.213
243.286, 3678.668
244.655, 4095.434
246.025, 4850.727
247.394, 5338.734
248.763, 5658.977
250.132, 6468.148
251.501, 6553.020
252.869, 7025.434
254.237, 7140.316
255.605, 7204.531
256.973, 6762.980
258.340, 5903.605
259.708, 4806.395
261.075, 3823.268
262.442, 2950.189
263.808, 1957.150
265.175, 1566.135
266.541, 1064.137
267.907, 626.008
269.273, 305.525
270.639, 151.119
272.004, 42.998
273.369, 144.027
274.734, 227.248
276.099, 338.672
277.463, 124.314
278.828, 27.115
280.192, 156.957
281.556, 392.961
282.919, 634.898
284.283, 1072.789
285.646, 1237.641
287.009, 1633.436
288.372, 2275.182
289.734, 2532.904
291.097, 2802.605
292.459, 3066.830
293.821, 2973.395
295.183, 3271.967
296.544, 2988.193
297.905, 3089.965
299.266, 2908.678
300.627, 2580.430
301.988, 2178.221
303.348, 1650.047
304.709, 1392.902
306.069, 1383.779
307.428, 1291.680
308.788, 1048.602
310.147, 1062.543
311.507, 798.506
312.865, 717.498
314.224, 317.518
315.583, 349.559
316.941, 59.678
318.299, 56.197
319.657, 10.055
321.015, 20.932
322.372, 16.186
323.729, 105.711
325.086, 27.650
326.443, 89.617
327.800, 224.379
329.156, 88.389
330.512, 17.400
331.868, 315.391
333.224, 667.398
334.579, 812.416
335.935, 1144.447
337.290, 1268.488
338.645, 1780.068
339.999, 2121.537
341.354, 2230.877
342.708, 2612.115
344.062, 2644.490
345.416, 2995.857
346.769, 3012.275
348.123, 2996.875
349.476, 3214.736
350.829, 3413.742
352.182, 3621.896
353.534, 3479.842
354.887, 3209.627
356.239, 3121.445
357.591, 3224.277
358.942, 3395.125
360.294, 3655.990
361.645, 3738.836
362.996, 4203.570
364.347, 4632.223
365.698, 5282.748
367.048, 6211.203
368.398, 7002.617
369.748, 8114.047
371.098, 9647.492
372.448, 11390.951
373.797, 12928.434
375.146, 15136.930
376.495, 17922.449
377.844, 19398.998
379.192, 22042.568
380.540, 22952.166
381.889, 24137.791
383.236, 24671.447
384.584, 24451.117
385.932, 24498.814
387.279, 24269.545
388.626, 24247.293
389.973, 23574.059
391.319, 24441.854
392.666, 23912.668
394.012, 23565.502
395.358, 23084.352
396.704, 21623.230
398.049, 20379.125
399.394, 17591.041
400.740, 15793.973
402.084, 13650.926
403.429, 11871.312
404.774, 11317.299
406.118, 9669.320
407.462, 8684.367
408.806, 8128.414
410.150, 7737.789
411.493, 7462.828
412.836, 7005.961
414.179, 6588.439
415.522, 6795.619
416.865, 6387.643
418.207, 6062.711
419.549, 5971.170
420.891, 5661.221
422.233, 5197.100
423.575, 4355.988
424.916, 4355.459
426.257, 4203.293
427.598, 3739.211
428.939, 3618.148
430.279, 3144.951
431.619, 3104.979
432.959, 3130.012
434.299, 3362.984
435.639, 3257.973
436.978, 3438.635
438.318, 3567.598
439.657, 4079.412
440.996, 4468.273
442.334, 4632.523
443.673, 5112.619
445.011, 5565.617
446.349, 5836.141
447.687, 5994.273
449.024, 6005.299
450.361, 5445.232
451.699, 5165.131
453.036, 4550.152
454.372, 4205.527
455.709, 3527.225
457.045, 3585.570
458.381, 3201.102
459.717, 3437.625
461.053, 3436.143
462.388, 3961.652
463.724, 4321.156
465.059, 4620.650
466.394, 5218.139
467.728, 6021.619
469.063, 6246.088
470.397, 6874.551
471.731, 7863.004
473.065, 8060.799
474.398, 9320.914
475.732, 9367.336
477.065, 10417.793
478.398, 11097.602
479.731, 12325.717
481.063, 13785.119
482.396, 15770.031
483.728, 18247.945
485.060, 20434.299
486.391, 22867.533
487.723, 24149.055
489.054, 25153.225
490.385, 25169.271
491.716, 23663.193
493.047, 21929.518
494.377, 20152.820
495.708, 18379.295
497.038, 16260.631
498.368, 14442.379
499.697, 13253.725
501.027, 12165.996
502.356, 10604.066
503.685, 9974.709
505.014, 8736.535
506.342, 8161.836
507.671, 7280.828
508.999, 6617.307
510.327, 6020.811
511.655, 5481.760
512.982, 5212.768
514.310, 4699.467
515.637, 4737.260
516.964, 3992.328
518.291, 4068.820
519.617, 3622.297
520.944, 3146.756
522.270, 3316.201
523.596, 2851.623
524.921, 2788.033
526.247, 2556.424
527.572, 2323.799
528.897, 2655.156
530.222, 2680.496
531.547, 3071.820
532.871, 2606.123
534.196, 2612.410
535.520, 3139.676
536.844, 2865.926
538.167, 3062.156
539.491, 3103.367
540.814, 2986.557
542.137, 2716.729
543.460, 2384.879
544.783, 1774.010
546.105, 1767.117
547.427, 1418.207
548.749, 1059.271
550.071, 989.318
551.393, 782.342
552.714, 1003.340
554.035, 731.316
555.356, 478.270
556.677, 395.201
557.998, 451.107
559.318, 384.990
560.638, 393.850
561.958, 28.316
563.278, 161.473
564.597, 182.238
565.917, 148.980
567.236, 224.695
568.555, 16.383
569.874, 108.043
571.192, 73.850
572.511, 6.455
573.829, 146.252
575.147, 95.211
576.464, 64.354
577.782, 70.266
579.099, 221.527
580.416, 7.875
581.733, 274.816
583.050, 11.590
584.366, 247.170
585.683, 107.182
586.999, 1.383
588.315, 198.477
589.630, 91.645
590.946, 258.900
592.261, 92.639
593.576, 10.236
594.891, 10.594
596.206, 4.271
597.520, 153.359
598.834, 52.307
600.148, 48.188
601.462, 61.547
602.776, 44.828
604.089, 52.945
605.402, 69.236
606.715, 89.420
608.028, 56.465
609.341, 119.371
610.653, 81.500
611.965, 77.924
613.277, 24.480
614.589, 3.502
615.901, 223.809
617.212, 337.086
618.523, 572.340
619.834, 648.551
621.145, 787.932
622.456, 780.078
623.766, 1115.191
625.076, 724.270
626.386, 865.318
627.696, 246.330
629.006, 594.311
630.315, 26.258
631.624, 13.158
632.933, 356.004
634.242, 168.182
635.551, 13.482
636.859, 127.727
638.167, 273.875
639.475, 9.547
640.783, 270.994
642.090, 384.529
643.398, 517.979
644.705, 204.557
646.012, 407.859
647.318, 535.428
648.625, 573.061
649.931, 348.484
651.237, 392.000
652.543, 251.078
653.849, 440.523
655.155, 183.930
656.460, 336.117
657.765, 161.461
659.070, 20.430
660.375, 300.551
661.679, 19.375
662.984, 88.100
664.288, 143.893
665.592, 37.439
666.895, 301.906
668.199, 201.662
669.502, 179.969
670.805, 278.221
672.108, 15.611
673.411, 183.686
674.713, 481.713
676.016, 379.094
677.318, 646.035
678.620, 769.936
679.921, 962.008
681.223, 1099.121
682.524, 923.006
683.825, 1410.738
685.126, 1352.428
686.427, 1245.074
687.727, 1183.680
689.028, 1028.242
690.328, 1324.762
691.628, 1317.240
692.927, 1379.678
694.227, 1152.072
695.526, 1878.426
696.825, 1705.736
698.124, 2046.006
699.423, 1799.234
700.721, 2030.420
702.020, 2038.562
703.318, 2071.668
704.616, 1620.729
705.913, 1913.748
707.211, 2311.725
708.508, 1974.660
709.805, 1612.557
711.102, 1822.408
712.399, 1579.219
713.695, 2321.988
714.992, 1126.717
716.288, 883.404
717.584, 663.049
718.879, 490.236
720.175, 883.801
721.470, 615.322
722.765, 687.805
724.060, 642.244
725.355, 444.311
726.649, 295.670
727.944, 580.875
729.238, 165.684
730.532, 399.721
731.825, 378.857
733.119, 153.879
734.412, 14.553
735.705, 36.332
736.998, 39.682
738.291, 143.203
739.584, 180.438
740.876, 323.236
742.168, 150.117
743.460, 92.387
744.752, 51.957
746.043, 218.229
747.334, 178.711
748.626, 12.361
749.916, 190.848
751.207, 51.283
752.498, 154.184
753.788, 51.617
755.078, 192.016
756.368, 117.777
757.658, 66.631
758.947, 392.973
760.237, 50.012
761.526, 187.314
762.815, 194.688
764.104, 175.090
765.392, 192.473
766.680, 5.330
767.969, 517.467
769.257, 106.924
770.544, 317.697
771.832, 349.246
773.119, 258.760
774.406, 518.240
775.693, 211.688
776.980, 531.104
778.267, 532.486
779.553, 704.836
780.839, 519.156
782.125, 694.443
783.411, 479.699
784.697, 421.922
785.982, 397.762
787.267, 498.238
788.552, 350.367
789.837, 653.426
791.122, 200.754
792.406, 217.238
793.690, 223.248
794.974, 236.047
796.258, 271.006
797.542, 11.939
798.825, 252.836
800.108, 53.508
801.391, 246.346
802.674, 199.211
803.957, 125.955
805.239, 405.818
806.522, 202.436
807.804, 253.062
809.085, 280.658
810.367, 112.146
811.649, 190.385
812.930, 28.014
814.211, 7.086
815.492, 250.385
816.772, 121.785
818.053, 100.871
819.333, 160.592
820.613, 218.541
821.893, 108.855
823.173, 144.791
824.452, 378.697
825.732, 71.910
827.011, 260.996
828.290, 153.770
829.568, 30.082
830.847, 408.406
832.125, 336.707
833.403, 70.990
834.681, 49.254
835.959, 93.500
837.236, 290.729
838.514, 454.938
839.791, 370.152
841.068, 259.350
842.345, 867.557
843.621, 384.746
844.898, 358.918
846.174, 624.096
847.450, 302.260
848.726, 363.404
850.001, 433.529
851.277, 491.639
852.552, 650.729
853.827, 667.803
855.102, 275.859
856.376, 1037.900
857.651, 1013.924
858.925, 961.930
860.199, 859.922
861.473, 869.896
862.746, 1120.855
864.020, 449.801
865.293, 823.730
866.566, 589.645
867.839, 741.543
869.112, 528.428
870.384, 576.295
871.656, 294.148
872.928, 752.998
874.200, 575.830
875.472, 456.648
876.744, 526.453
878.015, 439.242
879.286, 540.020
880.557, 556.609
881.828, 571.363
883.098, 479.387
884.369, 632.160
885.639, 375.924
886.909, 460.975
888.178, 351.318
889.448, 772.645
890.717, 403.893
891.987, 417.016
893.256, 630.291
894.524, 430.098
895.793, 456.445
897.061, 449.322
898.330, 219.883
899.598, 714.318
900.865, 701.598
902.133, 497.432
903.401, 572.811
904.668, 591.461
905.935, 469.693
907.202, 535.686
908.468, 688.074
909.735, 662.186
911.001, 528.363
912.267, 487.229
913.533, 532.781
914.799, 368.295
916.064, 732.840
917.330, 396.338
918.595, 146.113
919.860, 566.020
921.124, 295.561
922.389, 505.170
923.653, 246.184
924.918, 572.193
926.182, 580.188
927.445, 645.193
928.709, 496.020
929.972, 621.043
931.236, 535.062
932.499, 747.080
933.761, 391.096
935.024, 447.105
936.286, 885.113
937.549, 254.115
938.811, 872.123
940.073, 666.137
941.334, 624.143
942.596, 865.203
943.857, 749.111
945.118, 546.912
946.379, 960.068
947.640, 1313.180
948.900, 1321.264
950.161, 1623.352
951.421, 1910.205
952.681, 2585.604
953.940, 3276.250
955.200, 3888.625
956.459, 5126.164
957.719, 5732.977
958.978, 6205.898
960.236, 6900.965
961.495, 7922.568
962.753, 8421.730
964.012, 8974.756
965.270, 9707.658
966.527, 9621.211
967.785, 9237.227
969.043, 7951.289
970.300, 6616.326
971.557, 5669.891
972.814, 4812.014
974.071, 4676.424
975.327, 3860.678
976.583, 3339.221
977.840, 2668.246
979.095, 2069.922
980.351, 1944.381
981.607, 1447.910
982.862, 1040.594
984.117, 2169.328
985.372, 1198.803
986.627, 1723.859
987.882, 1986.162
989.136, 1838.574
990.390, 2763.477
991.644, 3241.875
992.898, 4322.354
994.152, 5865.965
995.405, 7797.354
996.659, 11145.148
997.912, 13730.004
999.165, 16064.406
1000.417, 15468.801
1001.670, 14534.184
1002.922, 11006.555
1004.174, 8527.914
1005.426, 6532.328
1006.678, 4845.730
1007.930, 4201.121
1009.181, 3571.502
1010.432, 3443.871
1011.683, 3223.229
1012.934, 3456.572
1014.185, 3755.906
1015.435, 3547.230
1016.685, 3301.541
1017.935, 3401.834
1019.185, 3236.115
1020.435, 2497.383
1021.684, 2528.637
1022.934, 2238.875
1024.183, 1665.100
1025.432, 1615.309
1026.680, 1162.504
1027.929, 1161.684
1029.177, 1020.846
1030.425, 1201.996
1031.673, 778.848
1032.921, 826.967
1034.169, 777.633
1035.416, 847.475
1036.663, 527.346
1037.911, 554.135
1039.157, 435.570
1040.404, 484.018
1041.650, 771.412
1042.897, 355.775
1044.143, 450.809
1045.389, 562.869
1046.634, 378.320
1047.880, 459.518
1049.125, 306.795
1050.371, 620.281
1051.615, 235.416
1052.860, 836.518
1054.105, 483.668
1055.349, 317.904
1056.593, 177.949
1057.837, 678.639
1059.081, 300.738
1060.325, 420.855
1061.568, 341.352
1062.812, 392.779
1064.055, 360.951
1065.298, 388.127
1066.540, 270.094
1067.783, 186.172
1069.025, 785.979
1070.267, 92.043
1071.509, 159.611
1072.751, 612.617
1073.993, 271.387
1075.234, 541.115
1076.475, 551.031
1077.716, 424.627
1078.957, 522.092
1080.198, 1035.396
1081.438, 639.277
1082.679, 980.285
1083.919, 580.801
1085.159, 1069.684
1086.398, 1253.156
1087.638, 761.963
1088.877, 585.459
1090.116, 482.928
1091.355, 372.914
1092.594, 266.322
1093.833, 83.359
1095.071, 7.871
1096.309, 426.172
1097.547, 33.045
1098.785, 61.277
1100.023, 90.727
1101.260, 294.885
1102.498, 194.188
1103.735, 187.730
1104.972, 125.316
1106.208, 103.113
1107.445, 46.059
1108.681, 323.838
1109.918, 173.365
1111.154, 72.354
1112.389, 72.625
1113.625, 34.752
1114.860, 33.072
1116.096, 118.547
1117.331, 155.008
1118.566, 49.188
1119.800, 108.750
1121.035, 354.918
1122.269, 43.523
1123.503, 118.035
1124.737, 65.049
1125.971, 130.398
1127.205, 37.223
1128.438, 446.650
1129.671, 90.613
1130.904, 271.020
1132.137, 257.607
1133.370, 275.754
1134.602, 115.459
1135.834, 100.596
1137.066, 511.635
1138.298, 54.021
1139.530, 526.787
1140.762, 78.342
1141.993, 288.146
1143.224, 428.234
1144.455, 48.754
1145.686, 255.369
1146.917, 386.486
1148.147, 633.990
1149.377, 539.473
1150.607, 715.604
1151.837, 831.830
1153.067, 1022.180
1154.296, 1334.562
1155.526, 1094.146
1156.755, 1693.410
1157.984, 1510.975
1159.213, 1708.832
1160.441, 1645.461
1161.670, 1613.945
1162.898, 1438.727
1164.126, 1535.988
1165.354, 1409.553
1166.581, 1261.719
1167.809, 745.188
1169.036, 1084.262
1170.263, 977.855
1171.490, 853.832
1172.717, 725.766
1173.943, 664.652
1175.170, 485.816
1176.396, 935.609
1177.622, 608.348
1178.848, 231.781
1180.073, 576.422
1181.299, 271.012
1182.524, 226.547
1183.749, 216.031
1184.974, 253.535
1186.199, 340.426
1187.423, 336.191
1188.648, 351.973
1189.872, 367.457
1191.096, 205.367
1192.320, 195.949
1193.543, 364.770
1194.767, 21.535
1195.990, 163.109
1197.213, 5.941
1198.436, 429.137
1199.659, 197.785
1200.881, 421.598
1202.104, 158.422
1203.326, 626.934
1204.548, 44.344
1205.770, 425.090
1206.991, 178.906
1208.213, 330.180
1209.434, 87.559
1210.655, 164.566
1211.876, 158.578
1213.096, 500.969
1214.317, 173.875
1215.537, 233.594
1216.757, 408.379
1217.977, 280.773
1219.197, 410.750
1220.417, 222.457
1221.636, 226.039
1222.855, 175.562
1224.074, 27.824
1225.293, 271.527
1226.512, 303.828
1227.731, 399.074
1228.949, 142.262
1230.167, 234.574
1231.385, 378.668
1232.603, 231.703
1233.820, 154.684
1235.038, 587.598
1236.255, 582.789
1237.472, 321.598
1238.689, 632.348
1239.906, 296.051
1241.122, 173.941
1242.338, 647.453
1243.555, 309.984
1244.771, 484.480
1245.986, 162.039
1247.202, 707.656
1248.417, 263.977
1249.633, 221.824
1250.848, 594.578
1252.063, 306.309
1253.277, 202.582
1254.492, 420.082
1255.706, 196.984
1256.920, 5.297
1258.134, 194.820
1259.348, 422.879
1260.562, 392.059
1261.775, 20.250
1262.988, 180.930
1264.201, 200.242
1265.414, 340.531
1266.627, 154.914
1267.839, 289.312
1269.052, 260.305
1270.264, 368.477
1271.476, 276.367
1272.688, 431.473
1273.899, 234.129
1275.111, 490.941
1276.322, 384.234
1277.533, 419.711
1278.744, 23.926
1279.955, 334.438
1281.165, 219.074
1282.376, 230.598
1283.586, 148.059
1284.796, 248.977
1286.006, 224.277
1287.215, 284.438
1288.425, 35.641
1289.634, 137.445
1290.843, 135.992
1292.052, 312.453
1293.261, 209.277
1294.469, 203.055
1295.678, 275.785
1296.886, 241.461
1298.094, 208.914
1299.302, 181.602
1300.509, 381.059
1301.717, 186.473
1302.924, 102.836
1304.131, 260.141
1305.338, 302.406
1306.545, 92.629
1307.752, 241.801
1308.958, 700.930
1310.164, 271.016
1311.370, 689.051
1312.576, 270.039
1313.782, 513.984
1314.987, 214.887
1316.193, 578.742
1317.398, 504.555
1318.603, 711.324
1319.807, 268.051
1321.012, 523.734
1322.216, 567.375
1323.421, 166.977
1324.625, 493.812
1325.829, 617.320
1327.032, 410.238
1328.236, 379.918
1329.439, 142.484
1330.642, 213.145
1331.845, 231.090
1333.048, 212.977
1334.251, 67.113
1335.453, 155.777
1336.656, 218.945
1337.858, 91.965
1339.060, 162.734
1340.261, 144.641
1341.463, 381.426
1342.664, 211.957
1343.866, 89.789
1345.067, 274.617
1346.267, 258.355
1347.468, 335.957
1348.669, 556.711
1349.869, 228.809
1351.069, 20.445
1352.269, 595.027
1353.469, 300.215
1354.668, 291.430
1355.868, 669.883
1357.067, 14.297
1358.266, 645.883
1359.465, 562.832
1360.664, 431.508
1361.862, 251.121
1363.061, 167.312
1364.259, 279.707
1365.457, 524.309
1366.655, 392.328
1367.852, 258.121
1369.050, 627.824
1370.247, 615.305
1371.444, 330.266
1372.641, 485.609
1373.838, 242.746
1375.035, 433.766
1376.231, 542.809
1377.427, 404.188
1378.623, 363.113
1379.819, 210.270
1381.015, 575.727
1382.211, 381.340
1383.406, 463.469
1384.601, 679.824
1385.796, 536.145
1386.991, 452.965
1388.185, 320.047
1389.380, 453.605
1390.574, 427.387
1391.768, 499.633
1392.962, 237.605
1394.156, 337.074
1395.350, 701.664
1396.543, 458.703
1397.736, 482.281
1398.929, 325.461
1400.122, 653.031
1401.315, 613.465
1402.507, 538.617
1403.700, 546.449
1404.892, 379.469
1406.084, 248.578
1407.276, 687.176
1408.467, 233.734
1409.659, 390.934
1410.850, 740.641
1412.041, 353.066
1413.232, 817.477
1414.423, 558.926
1415.614, 657.980
1416.804, 632.434
1417.994, 702.559
1419.184, 660.250
1420.374, 1024.891
1421.564, 581.168
1422.753, 659.160
1423.943, 503.656
1425.132, 797.551
1426.321, 719.367
1427.510, 659.172
1428.698, 716.918
1429.887, 705.062
1431.075, 769.492
1432.263, 798.000
1433.451, 1014.391
1434.639, 1205.391
1435.827, 954.348
1437.014, 1332.770
1438.201, 1692.832
1439.388, 1183.910
1440.575, 1665.820
1441.762, 1600.836
1442.949, 1782.473
1444.135, 1889.469
1445.321, 2099.113
1446.507, 1913.828
1447.693, 2049.363
1448.879, 1909.219
1450.064, 2085.020
1451.250, 1941.410
1452.435, 2544.062
1453.620, 2257.059
1454.805, 2354.629
1455.989, 2486.191
1457.174, 2069.703
1458.358, 2450.156
1459.542, 2405.535
1460.726, 1945.746
1461.910, 2345.434
1463.093, 1675.074
1464.277, 1544.641
1465.460, 1736.168
1466.643, 1361.672
1467.826, 1784.090
1469.009, 1287.891
1470.191, 1191.852
1471.373, 1357.012
1472.556, 1625.172
1473.738, 917.316
1474.919, 1356.430
1476.101, 1266.500
1477.283, 1151.551
1478.464, 1043.973
1479.645, 1045.691
1480.826, 827.809
1482.007, 1395.043
1483.187, 832.371
1484.368, 1144.809
1485.548, 1109.375
1486.728, 885.062
1487.908, 666.859
1489.088, 1636.770
1490.268, 705.816
1491.447, 727.023
1492.626, 321.398
1493.805, 837.965
1494.984, 631.727
1496.163, 521.719
1497.341, 664.961
1498.520, 402.465
1499.698, 493.230
1500.876, 54.289
1502.054, 205.688
1503.232, 4.555
1504.409, 24.453
1505.586, 370.000
1506.763, 206.855
1507.940, 108.141
1509.117, 117.914
1510.294, 357.223
1511.470, 88.121
1512.647, 400.672
1513.823, 344.117
1514.999, 500.230
1516.174, 26.246
1517.350, 612.555
1518.526, 321.395
1519.701, 267.922
1520.876, 424.137
1522.051, 369.215
1523.226, 441.094
1524.400, 11.719
1525.574, 0.000
##END=



