##NAMES=Brazilianite
##RRUFFID=R050126
##IDEAL CHEMISTRY=NaAl_3_(PO_4_)_2_(OH)_4_
##LOCALITY=Linopolis, Minas Gerais, Brazil
##OWNER=RRUFF
##SOURCE=Carlos and Paulo Vasconcelos
##DESCRIPTION=Pair of greenish yellow elongated crystals
##STATUS=The identification of this mineral has been confirmed by X-ray diffraction and chemical analysis
##URL=rruff.info/R050126
##MEASURED CHEMISTRY=Na_1.00_Al_3.00_(P_1.00_O_4_)_2_((OH)_3.80_F_0.20_)_Î£=4_
##PIN_ID=L00537
##ORIENTATION=Laser parallel to b* (0 1 0). Fiducial mark perpendicular to laser is parallel to c [0 0 1]
134.381, 0.000
135.776, 34.399
137.170, 117.000
138.564, 6.698
139.958, 145.642
141.351, 136.521
142.745, 253.151
144.138, 280.803
145.530, 358.329
146.923, 599.254
148.315, 661.615
149.707, 766.240
151.099, 595.589
152.490, 567.728
153.881, 329.839
155.272, 290.114
156.663, 218.908
158.054, 70.315
159.444, 184.321
160.834, 124.930
162.224, 338.925
163.613, 404.459
165.002, 608.065
166.391, 874.749
167.780, 1497.476
169.169, 2472.474
170.557, 3851.295
171.945, 6495.932
173.333, 9133.384
174.720, 11525.674
176.108, 10648.822
177.495, 7183.167
178.881, 4397.676
180.268, 2378.801
181.654, 1418.581
183.040, 790.047
184.426, 518.229
185.812, 335.150
187.197, 153.834
188.582, 125.297
189.967, 9.559
191.351, 51.632
192.736, 76.476
194.120, 25.753
195.504, 8.815
196.887, 56.239
198.271, 131.896
199.654, 70.570
201.036, 195.047
202.419, 219.939
203.801, 228.599
205.184, 279.904
206.565, 294.063
207.947, 463.088
209.328, 405.986
210.710, 621.759
212.090, 672.414
213.471, 615.961
214.851, 697.153
216.232, 591.883
217.611, 833.427
218.991, 914.555
220.370, 1253.556
221.750, 1320.584
223.129, 1152.506
224.507, 975.467
225.886, 682.463
227.264, 659.493
228.642, 551.552
230.019, 758.639
231.397, 907.751
232.774, 1005.883
234.151, 1078.026
235.528, 744.183
236.904, 560.349
238.281, 286.526
239.656, 197.713
241.032, 299.908
242.408, 442.113
243.783, 650.325
245.158, 816.538
246.533, 1168.709
247.907, 1138.808
249.282, 1212.853
250.656, 1498.903
252.029, 1819.959
253.403, 2860.021
254.776, 3520.090
256.149, 3983.164
257.522, 2999.433
258.895, 1642.396
260.267, 928.160
261.639, 224.908
263.011, 105.132
264.382, 53.552
265.754, 65.445
267.125, 41.743
268.496, 12.050
269.866, 210.181
271.237, 185.434
272.607, 366.711
273.977, 418.010
275.346, 480.334
276.716, 707.681
278.085, 784.051
279.454, 1011.444
280.823, 960.858
282.191, 1060.252
283.559, 985.536
284.927, 919.781
286.295, 1081.045
287.662, 803.331
289.030, 817.638
290.397, 524.968
291.763, 443.320
293.130, 260.694
294.496, 69.092
295.862, 72.513
297.228, 105.043
298.594, 40.619
299.959, 73.054
301.324, 82.862
302.689, 44.002
304.053, 100.286
305.418, 38.600
306.782, 37.496
308.146, 192.396
309.509, 367.285
310.873, 427.167
312.236, 939.041
313.599, 1182.903
314.961, 1700.735
316.324, 1710.528
317.686, 1788.288
319.048, 1723.020
320.409, 1476.727
321.771, 1511.411
323.132, 1395.074
324.493, 1456.718
325.854, 1347.344
327.214, 1193.928
328.574, 1265.344
329.934, 1002.664
331.294, 1074.878
332.654, 826.084
334.013, 910.284
335.372, 877.479
336.731, 709.669
338.089, 793.857
339.448, 606.042
340.806, 664.222
342.164, 541.390
343.521, 548.546
344.879, 615.691
346.236, 562.829
347.593, 796.958
348.949, 701.083
350.306, 1038.203
351.662, 1187.320
353.018, 1389.393
354.373, 1900.557
355.729, 2206.263
357.084, 3113.315
358.439, 3686.578
359.794, 4394.791
361.148, 4942.187
362.503, 4414.304
363.857, 4157.997
365.210, 3061.911
366.564, 2300.772
367.917, 1789.635
369.270, 1194.501
370.623, 1079.371
371.976, 676.245
373.328, 545.125
374.680, 329.012
376.032, 78.906
377.384, 24.807
378.735, 179.265
380.086, 71.456
381.437, 145.736
382.788, 52.111
384.138, 15.548
385.488, 59.967
386.838, 5.360
388.188, 67.696
389.538, 85.000
390.887, 128.294
392.236, 207.557
393.585, 81.839
394.933, 146.082
396.282, 52.325
397.630, 35.555
398.977, 59.240
400.325, 229.049
401.672, 268.874
403.020, 519.712
404.366, 539.566
405.713, 863.435
407.059, 1031.318
408.406, 1230.216
409.752, 1674.130
411.097, 1808.059
412.443, 2327.004
413.788, 2394.966
415.133, 2703.943
416.478, 2880.936
417.822, 2659.945
419.167, 2754.971
420.511, 2290.950
421.854, 2249.871
423.198, 2066.788
424.541, 1916.701
425.884, 2140.222
427.227, 1909.766
428.570, 2085.140
429.912, 1955.745
431.254, 1864.539
432.596, 1964.330
433.938, 1842.059
435.280, 2193.891
436.621, 2273.745
437.962, 2788.619
439.303, 3321.515
440.643, 3669.432
441.983, 4476.370
443.323, 4216.327
444.663, 4186.307
446.003, 3725.312
447.342, 2929.339
448.681, 2662.387
450.020, 2099.460
451.359, 1983.553
452.697, 1938.682
454.035, 1893.831
455.373, 2050.001
456.711, 1930.830
458.048, 2320.734
459.386, 2227.125
460.723, 2516.671
462.059, 2761.226
463.396, 2913.218
464.732, 3506.702
466.068, 3586.740
467.404, 4048.590
468.740, 4306.670
470.075, 4205.040
471.410, 4239.419
472.745, 3478.822
474.080, 3211.244
475.414, 2427.679
476.748, 1887.148
478.082, 1526.632
479.416, 1063.146
480.749, 1042.676
482.083, 747.218
483.416, 704.795
484.749, 774.395
486.081, 653.023
487.413, 839.684
488.745, 687.358
490.077, 937.060
491.409, 1019.779
492.740, 1015.528
494.072, 1368.315
495.402, 1384.117
496.733, 1797.967
498.064, 2080.844
499.394, 2316.753
500.724, 2893.699
502.054, 3013.669
503.383, 3537.688
504.712, 3549.725
506.041, 3897.783
507.370, 4003.871
508.699, 3764.973
510.027, 4101.097
511.355, 3943.235
512.683, 4108.387
514.011, 4392.554
515.338, 4173.739
516.666, 4663.939
517.993, 4480.179
519.319, 4864.447
520.646, 4961.730
521.972, 4843.051
523.298, 5265.383
524.624, 5065.732
525.950, 5698.095
527.275, 5718.472
528.600, 5982.865
529.925, 6874.271
531.250, 6755.691
532.574, 7647.127
533.898, 7898.596
535.222, 8210.156
536.546, 8561.633
537.869, 7957.855
539.193, 8398.970
540.516, 7670.858
541.839, 7282.567
543.161, 7203.595
544.484, 6276.845
545.806, 6580.028
547.128, 5836.330
548.449, 6025.180
549.771, 6018.654
551.092, 5654.297
552.413, 6523.042
553.734, 6363.559
555.054, 7331.817
556.374, 7993.066
557.694, 8877.219
559.014, 10628.927
560.334, 10940.647
561.653, 12382.384
562.972, 12914.134
564.291, 12865.906
565.610, 13867.689
566.928, 13169.482
568.247, 13831.296
569.565, 13033.121
570.882, 12284.977
572.200, 11776.845
573.517, 9818.726
574.834, 9030.629
576.151, 7482.544
577.468, 6533.474
578.784, 5950.412
580.100, 5000.359
581.416, 4818.322
582.732, 4237.292
584.047, 4116.287
585.362, 4158.292
586.677, 3888.338
587.992, 4336.443
589.307, 4119.566
590.621, 4511.773
591.935, 4859.944
593.249, 5115.123
594.563, 6140.322
595.876, 6408.530
597.189, 7745.917
598.502, 9018.141
599.815, 9900.373
601.127, 11342.613
602.440, 11264.860
603.752, 11378.057
605.064, 10410.319
606.375, 8572.587
607.686, 7945.386
608.998, 6448.667
610.308, 5993.688
611.619, 5561.982
612.930, 5214.279
614.240, 5325.976
615.550, 4869.288
616.860, 5185.137
618.169, 4906.627
619.478, 4556.014
620.787, 4439.123
622.096, 3663.581
623.405, 3523.172
624.713, 3048.943
626.021, 2728.473
627.329, 2854.920
628.637, 2509.482
629.945, 2745.253
631.252, 2703.442
632.559, 2802.216
633.866, 3196.938
635.172, 3130.822
636.479, 3521.442
637.785, 3288.707
639.091, 3279.390
640.396, 3289.784
641.702, 2797.784
643.007, 2777.589
644.312, 2325.517
645.617, 2021.092
646.921, 2094.131
648.226, 1688.923
649.530, 1774.396
650.834, 1640.998
652.137, 1623.709
653.441, 1743.888
654.744, 1510.366
656.047, 1796.291
657.350, 1663.357
658.652, 1768.589
659.954, 1935.252
661.256, 1766.288
662.558, 2098.548
663.860, 1865.113
665.161, 1801.616
666.462, 1853.643
667.763, 1448.131
669.064, 1456.611
670.365, 1229.085
671.665, 1027.550
672.965, 962.007
674.265, 698.455
675.564, 745.895
676.864, 530.326
678.163, 516.749
679.462, 452.161
680.760, 238.565
682.059, 409.959
683.357, 244.344
684.655, 193.719
685.953, 218.083
687.250, 61.438
688.548, 158.781
689.845, 38.115
691.142, 20.437
692.438, 72.748
693.735, 76.953
695.031, 5.292
696.327, 65.432
697.623, 135.188
698.918, 28.994
700.214, 161.805
701.509, 83.729
702.804, 155.701
704.098, 114.772
705.393, 44.905
706.687, 169.061
707.981, 57.294
709.275, 149.526
710.568, 64.837
711.861, 18.168
713.155, 49.737
714.447, 104.870
715.740, 130.465
717.032, 91.079
718.325, 255.646
719.617, 196.039
720.908, 354.578
722.200, 303.179
723.491, 359.681
724.782, 483.177
726.073, 315.107
727.364, 470.573
728.654, 327.029
729.944, 255.338
731.234, 348.757
732.524, 181.245
733.814, 282.631
735.103, 251.002
736.392, 143.480
737.681, 206.040
738.969, 139.983
740.258, 202.302
741.546, 129.589
742.834, 101.314
744.122, 218.567
745.409, 87.801
746.697, 238.101
747.984, 222.299
749.270, 449.837
750.557, 333.708
751.844, 65.142
753.130, 173.265
754.416, 143.369
755.701, 130.455
756.987, 149.522
758.272, 25.570
759.557, 122.589
760.842, 131.589
762.127, 39.570
763.411, 182.526
764.695, 5.537
765.979, 118.354
767.263, 125.227
768.547, 47.080
769.830, 169.909
771.113, 41.718
772.396, 79.503
773.679, 147.266
774.961, 37.010
776.243, 137.727
777.525, 6.423
778.807, 58.078
780.089, 116.709
781.370, 5.679
782.651, 109.884
783.932, 5.427
785.213, 15.926
786.493, 62.389
787.773, 41.171
789.053, 54.201
790.333, 23.450
791.613, 38.840
792.892, 83.103
794.171, 35.657
795.450, 2.520
796.729, 10.348
798.007, 28.266
799.285, 106.755
800.563, 14.244
801.841, 58.705
803.119, 21.370
804.396, 39.501
805.673, 69.303
806.950, 80.915
808.227, 6.219
809.504, 13.572
810.780, 47.975
812.056, 13.552
813.332, 89.958
814.607, 41.442
815.883, 11.816
817.158, 9.847
818.433, 103.442
819.708, 14.712
820.982, 143.947
822.256, 159.163
823.531, 94.360
824.804, 209.539
826.078, 184.698
827.352, 243.840
828.625, 441.963
829.898, 306.068
831.170, 485.155
832.443, 447.224
833.715, 434.274
834.988, 542.307
836.259, 391.323
837.531, 465.320
838.803, 404.301
840.074, 355.264
841.345, 417.210
842.616, 184.139
843.886, 284.032
845.157, 240.830
846.427, 197.708
847.697, 249.794
848.966, 145.450
850.236, 153.145
851.505, 152.405
852.774, 46.274
854.043, 176.753
855.312, 100.080
856.580, 85.840
857.849, 118.123
859.117, 24.745
860.384, 201.531
861.652, 35.291
862.919, 71.220
864.186, 147.425
865.453, 43.479
866.720, 87.512
867.986, 10.143
869.253, 32.237
870.519, 42.363
871.784, 65.048
873.050, 53.504
874.315, 2.953
875.581, 52.421
876.846, 14.082
878.110, 109.425
879.375, 18.011
880.639, 4.438
881.903, 86.145
883.167, 83.229
884.431, 37.406
885.694, 34.939
886.957, 50.277
888.220, 39.394
889.483, 73.917
890.746, 73.780
892.008, 2.488
893.270, 49.749
894.532, 68.997
895.794, 146.226
897.056, 18.443
898.317, 41.390
899.578, 93.811
900.839, 69.977
902.099, 56.207
903.360, 29.385
904.620, 20.390
905.880, 140.561
907.140, 9.726
908.399, 61.887
909.659, 108.043
910.918, 32.256
912.177, 239.407
913.435, 115.554
914.694, 181.177
915.952, 255.321
917.210, 112.732
918.468, 308.872
919.726, 175.010
920.983, 225.754
922.240, 410.888
923.497, 198.489
924.754, 384.491
926.011, 326.621
927.267, 325.061
928.523, 513.193
929.779, 446.215
931.035, 527.104
932.290, 640.240
933.546, 550.481
934.801, 842.620
936.056, 728.552
937.310, 854.069
938.565, 984.007
939.819, 974.000
941.073, 1283.849
942.327, 1341.965
943.580, 1441.439
944.833, 1829.516
946.087, 1755.884
947.340, 2251.649
948.592, 2348.624
949.845, 2451.479
951.097, 2848.718
952.349, 2742.506
953.601, 3027.544
954.853, 3158.922
956.104, 2927.172
957.355, 3437.318
958.606, 3251.007
959.857, 3373.400
961.108, 3771.362
962.358, 3715.184
963.608, 4408.844
964.858, 4731.094
966.108, 5067.975
967.357, 6130.635
968.607, 6368.002
969.856, 7833.435
971.105, 8750.349
972.353, 9038.809
973.602, 10737.277
974.850, 10315.785
976.098, 10784.305
977.346, 10872.836
978.594, 9871.388
979.841, 10279.951
981.088, 9738.525
982.335, 9557.113
983.582, 10295.710
984.828, 10084.332
986.075, 11132.967
987.321, 12091.612
988.567, 11900.295
989.812, 13218.995
991.058, 11977.708
992.303, 11376.442
993.548, 10755.193
994.793, 8953.957
996.038, 8592.735
997.282, 7511.527
998.526, 6900.368
999.770, 7199.223
1001.014, 6194.114
1002.258, 6630.056
1003.501, 6787.010
1004.744, 6690.047
1005.987, 7574.124
1007.230, 7423.259
1008.473, 8352.447
1009.715, 9491.664
1010.957, 10050.944
1012.199, 12400.270
1013.441, 13739.652
1014.682, 15759.076
1015.923, 19266.748
1017.164, 20156.229
1018.405, 23655.746
1019.646, 24954.244
1020.886, 24553.789
1022.127, 26710.531
1023.367, 24090.133
1024.606, 23349.676
1025.846, 22437.316
1027.085, 19656.967
1028.325, 19251.188
1029.564, 17380.877
1030.802, 15950.574
1032.041, 15766.423
1033.279, 14086.165
1034.517, 13994.837
1035.755, 13574.619
1036.993, 12194.418
1038.230, 13123.116
1039.468, 11692.957
1040.705, 11499.972
1041.942, 11559.839
1043.178, 10219.759
1044.415, 10447.222
1045.651, 9377.167
1046.887, 8498.780
1048.123, 8387.675
1049.358, 7071.450
1050.594, 6760.114
1051.829, 6380.158
1053.064, 5289.814
1054.299, 5551.897
1055.533, 4807.001
1056.768, 4468.123
1058.002, 4617.266
1059.236, 3999.087
1060.469, 4205.272
1061.703, 4131.477
1062.936, 4159.546
1064.169, 4594.792
1065.402, 4453.700
1066.635, 4850.999
1067.867, 5324.318
1069.100, 5050.891
1070.332, 5758.254
1071.564, 5686.635
1072.795, 5618.414
1074.027, 5971.839
1075.258, 5316.280
1076.489, 5399.671
1077.720, 5288.157
1078.950, 4754.052
1080.181, 5074.586
1081.411, 4566.139
1082.641, 4323.854
1083.871, 4605.460
1085.100, 3933.095
1086.330, 4136.299
1087.559, 3915.984
1088.788, 3544.157
1090.016, 3753.906
1091.245, 3238.691
1092.473, 3137.311
1093.701, 3143.139
1094.929, 2736.009
1096.157, 2817.594
1097.384, 2623.527
1098.612, 2340.543
1099.839, 2592.126
1101.066, 2239.154
1102.292, 2267.822
1103.519, 2441.912
1104.745, 2079.040
1105.971, 2565.074
1107.197, 2486.279
1108.423, 2644.828
1109.648, 3064.121
1110.873, 3124.429
1112.098, 3821.125
1113.323, 4278.511
1114.548, 4735.969
1115.772, 5738.224
1116.996, 5669.685
1118.220, 5634.630
1119.444, 5491.503
1120.667, 4234.017
1121.891, 4052.030
1123.114, 3337.574
1124.337, 2687.132
1125.560, 2758.934
1126.782, 2029.520
1128.004, 1788.128
1129.227, 1742.744
1130.448, 1309.372
1131.670, 1334.219
1132.892, 1150.875
1134.113, 943.544
1135.334, 1084.543
1136.555, 804.237
1137.776, 748.163
1138.996, 816.484
1140.216, 636.215
1141.436, 804.073
1142.656, 670.869
1143.876, 540.635
1145.095, 707.365
1146.315, 508.156
1147.534, 693.001
1148.753, 740.199
1149.971, 492.022
1151.190, 632.713
1152.408, 510.654
1153.626, 426.508
1154.844, 585.231
1156.061, 347.103
1157.279, 421.983
1158.496, 490.342
1159.713, 322.239
1160.930, 411.059
1162.146, 323.958
1163.363, 266.887
1164.579, 385.335
1165.795, 215.422
1167.010, 350.376
1168.226, 279.228
1169.441, 184.208
1170.657, 317.193
1171.871, 238.344
1173.086, 152.351
1174.301, 336.708
1175.515, 138.899
1176.729, 190.946
1177.943, 169.257
1179.157, 116.331
1180.370, 210.410
1181.584, 86.031
1182.797, 88.124
1184.010, 135.281
1185.222, 8.510
1186.435, 110.619
1187.647, 112.057
1188.859, 0.255
1190.071, 111.387
1191.283, 17.339
1192.494, 52.512
1193.706, 91.708
1194.917, 91.226
1196.128, 45.885
1197.338, 51.531
1198.549, 24.178
1199.759, 93.942
1200.969, 14.339
1202.179, 12.460
1203.389, 176.583
1204.598, 24.243
1205.807, 76.875
1207.016, 109.224
1208.225, 27.571
1209.434, 85.538
1210.642, 21.657
1211.850, 18.444
1213.058, 129.545
1214.266, 8.775
1215.474, 109.320
1216.681, 79.415
1217.889, 12.292
1219.096, 107.794
1220.302, 10.882
1221.509, 24.033
1222.715, 52.041
1223.922, 31.791
1225.128, 55.265
1226.334, 78.319
1227.539, 42.266
1228.745, 67.761
1229.950, 15.786
1231.155, 11.551
1232.360, 145.461
1233.564, 59.174
1234.769, 61.852
1235.973, 49.821
1237.177, 62.587
1238.381, 122.352
1239.584, 16.281
1240.787, 42.368
1241.991, 107.494
1243.194, 94.411
1244.396, 38.540
1245.599, 69.263
1246.801, 52.902
1248.004, 49.862
1249.206, 71.615
1250.407, 22.719
1251.609, 67.984
1252.810, 28.315
1254.012, 19.649
1255.212, 83.322
1256.413, 58.967
1257.614, 80.673
1258.814, 19.269
1260.014, 16.671
1261.214, 110.891
1262.414, 6.446
1263.614, 9.061
1264.813, 83.581
1266.012, 87.917
1267.211, 47.715
1268.410, 49.170
1269.609, 18.378
1270.807, 154.159
1272.005, 48.555
1273.203, 78.060
1274.401, 117.388
1275.598, 15.292
1276.796, 67.182
1277.993, 87.468
1279.190, 79.258
1280.387, 117.979
1281.583, 26.196
1282.780, 18.594
1283.976, 83.578
1285.172, 38.739
1286.368, 57.977
1287.563, 118.094
1288.759, 21.805
1289.954, 145.650
1291.149, 62.712
1292.343, 27.759
1293.538, 111.838
1294.732, 2.145
1295.927, 54.846
1297.121, 145.819
1298.314, 17.777
1299.508, 112.717
1300.701, 121.642
1301.895, 9.448
1303.087, 126.436
1304.280, 19.303
1305.473, 18.145
1306.665, 154.965
1307.857, 8.231
1309.049, 56.540
1310.241, 108.292
1311.433, 60.975
1312.624, 178.708
1313.815, 142.356
1315.006, 58.969
1316.197, 180.565
1317.388, 45.142
1318.578, 63.699
1319.768, 173.234
1320.958, 52.752
1322.148, 155.251
1323.338, 147.731
1324.527, 13.194
1325.716, 136.631
1326.906, 91.050
1328.094, 23.449
1329.283, 197.996
1330.471, 54.355
1331.660, 92.696
1332.848, 137.996
1334.035, 10.301
1335.223, 192.575
1336.411, 90.180
1337.598, 30.418
1338.785, 199.866
1339.972, 42.065
1341.158, 70.243
1342.345, 190.857
1343.531, 57.999
1344.717, 165.122
1345.903, 151.329
1347.089, 100.702
1348.274, 144.142
1349.459, 64.958
1350.644, 93.000
1351.829, 156.231
1353.014, 37.242
1354.198, 172.591
1355.383, 126.566
1356.567, 42.526
1357.751, 180.238
1358.934, 125.171
1360.118, 72.089
1361.301, 225.615
1362.484, 121.951
1363.667, 127.827
1364.850, 193.763
1366.032, 95.703
1367.215, 159.161
1368.397, 166.993
1369.579, 56.816
1370.760, 186.469
1371.942, 126.362
1373.123, 40.110
1374.304, 179.298
1375.485, 57.559
1376.666, 104.781
1377.847, 220.854
1379.027, 36.240
1380.207, 134.412
1381.387, 159.806
1382.567, 38.971
1383.747, 203.186
1384.926, 58.107
1386.105, 13.993
1387.284, 232.328
1388.463, 7.594
1389.641, 120.074
1390.820, 161.762
1391.998, 5.520
1393.176, 179.826
1394.354, 173.355
1395.532, 41.309
1396.709, 284.752
1397.886, 84.607
1399.063, 96.982
1400.240, 225.818
1401.417, 18.677
1402.593, 109.725
1403.769, 159.832
1404.945, 69.304
1406.121, 153.828
1407.297, 147.505
1408.472, 49.351
1409.648, 217.179
1410.823, 81.851
1411.998, 55.474
1413.172, 268.944
1414.347, 51.097
1415.521, 177.721
1416.695, 140.267
1417.869, 34.559
1419.043, 142.338
1420.216, 116.402
1421.390, 78.798
1422.563, 227.913
1423.736, 70.456
1424.909, 105.228
1426.081, 129.323
1427.254, 46.700
1428.426, 140.239
1429.598, 165.519
1430.770, 5.319
1431.941, 233.900
1433.113, 165.802
1434.284, 57.369
1435.455, 206.137
1436.626, 87.828
1437.796, 83.652
1438.967, 230.437
1440.137, 108.825
1441.307, 157.519
1442.477, 249.006
1443.646, 64.649
1444.816, 259.568
1445.985, 189.896
1447.154, 61.711
1448.323, 264.126
1449.492, 120.321
1450.660, 103.870
1451.829, 284.923
1452.997, 64.178
1454.165, 173.159
1455.332, 245.232
1456.500, 59.570
1457.667, 233.195
1458.834, 243.293
1460.001, 93.462
1461.168, 257.728
1462.335, 133.784
1463.501, 110.597
1464.667, 302.758
1465.833, 75.626
1466.999, 143.582
1468.165, 229.433
1469.330, 2.725
1470.495, 213.986
1471.660, 185.229
1472.825, 66.184
1473.990, 218.489
1475.154, 93.522
1476.318, 108.573
1477.482, 193.753
1478.646, 116.936
1479.810, 110.084
1480.974, 220.195
1482.137, 27.307
1483.300, 180.425
1484.463, 163.575
1485.626, 12.766
1486.788, 236.232
1487.950, 169.797
1489.113, 20.418
1490.275, 252.085
1491.436, 25.801
1492.598, 41.573
1493.759, 243.418
1494.920, 70.242
1496.081, 143.124
1497.242, 157.135
1498.403, 40.229
1499.563, 199.422
1500.724, 139.373
1501.884, 8.093
1503.043, 182.402
1504.203, 148.274
1505.363, 26.366
1506.522, 261.203
1507.681, 56.200
1508.840, 106.329
1509.999, 209.552
1511.157, 24.872
1512.315, 146.679
1513.474, 168.483
1514.632, 0.477
1515.789, 199.542
1516.947, 0.000
##END=



