##NAMES=Brazilianite
##RRUFFID=R050319
##IDEAL CHEMISTRY=NaAl_3_(PO_4_)_2_(OH)_4_
##LOCALITY=Minas Gerais, Brazil
##OWNER=RRUFF
##SOURCE=American Museum of Natural History
##DESCRIPTION=Pale green fragment
##STATUS=The identification of this mineral has been confirmed by X-ray diffraction and chemical analysis
##URL=rruff.info/R050319
##MEASURED CHEMISTRY=Na_1.00_Al_3.00_(PO_4_)_2_(OH)_4_
##PIN_ID=M00315
##ORIENTATION=Laser parallel to c* (0 0 1). Fiducial mark perpendicular to laser is parallel to a [1 0 0]
81.13100, 0.0000000E+00
82.36700, 414.6982
83.60200, 926.4355
84.83700, 1378.350
86.07200, 2002.299
87.30800, 2505.050
88.54200, 3021.535
89.77700, 3220.287
91.01200, 2774.345
92.24600, 2362.884
93.48000, 1599.079
94.71400, 1775.346
95.94800, 2087.108
97.18200, 2413.194
98.41600, 2520.407
99.64900, 2823.108
100.8830, 3912.253
102.1160, 5209.832
103.3490, 6625.693
104.5820, 7639.173
105.8150, 7224.303
107.0470, 6169.708
108.2800, 5104.614
109.5120, 4327.016
110.7440, 3704.856
111.9760, 2962.011
113.2080, 3051.415
114.4400, 3405.263
115.6710, 3449.668
116.9030, 2534.476
118.1340, 1901.518
119.3650, 974.6523
120.5960, 524.7793
121.8270, 23.84570
123.0580, 90.19238
124.2880, 29.40820
125.5190, 80.87793
126.7490, 182.6719
127.9790, 115.8486
129.2090, 175.4648
130.4390, 183.5830
131.6680, 228.2705
132.8980, 253.5713
134.1270, 297.5098
135.3560, 17.10938
136.5850, 177.6104
137.8140, 546.6309
139.0430, 839.9355
140.2710, 1014.510
141.5000, 1370.338
142.7280, 1831.409
143.9560, 2157.818
145.1840, 2668.121
146.4120, 3082.192
147.6390, 3024.756
148.8670, 2906.666
150.0940, 2563.388
151.3210, 2126.888
152.5490, 1846.179
153.7750, 1625.276
155.0020, 1797.168
156.2290, 2079.887
157.4550, 2326.532
158.6810, 2628.183
159.9080, 2915.032
161.1340, 3313.269
162.3590, 4209.770
163.5850, 5007.547
164.8110, 5716.355
166.0360, 6067.115
167.2610, 5610.811
168.4860, 5206.412
169.7110, 5265.926
170.9360, 5600.359
172.1610, 5708.722
173.3850, 5241.024
174.6100, 4596.274
175.8340, 3643.426
177.0580, 2801.427
178.2820, 2395.187
179.5050, 1825.697
180.7290, 1512.896
181.9520, 1314.810
183.1760, 1277.725
184.3990, 1114.654
185.6220, 1113.601
186.8450, 1247.565
188.0670, 1212.552
189.2900, 1275.560
190.5120, 1354.588
191.7340, 1388.639
192.9560, 1465.714
194.1780, 1423.812
195.4000, 1591.932
196.6220, 1484.076
197.8430, 1503.245
199.0640, 1389.440
200.2860, 1296.659
201.5070, 1266.904
202.7270, 1237.178
203.9480, 930.4756
205.1690, 679.8018
206.3890, 741.3623
207.6090, 932.7910
208.8290, 1201.096
210.0490, 1385.851
211.2690, 1836.906
212.4890, 2267.701
213.7080, 2468.757
214.9280, 2728.588
216.1470, 3190.970
217.3660, 3665.737
218.5850, 3882.569
219.8030, 3889.460
221.0220, 3697.395
222.2400, 3160.370
223.4590, 2836.382
224.6770, 2470.436
225.8950, 2131.530
227.1120, 2202.670
228.3300, 2288.867
229.5480, 2154.596
230.7650, 2260.705
231.9820, 2302.688
233.1990, 2485.260
234.4160, 2513.240
235.6330, 2544.340
236.8490, 2928.906
238.0660, 2978.727
239.2820, 3223.010
240.4980, 3583.972
241.7140, 3756.464
242.9300, 3936.088
244.1460, 4177.350
245.3610, 4171.330
246.5770, 3979.792
247.7920, 3974.271
249.0070, 4255.572
250.2220, 5181.688
251.4370, 6017.410
252.6510, 6859.725
253.8660, 6421.532
255.0800, 5336.070
256.2940, 3893.748
257.5080, 2926.556
258.7220, 2022.488
259.9360, 1869.541
261.1490, 1534.706
262.3630, 1416.977
263.5760, 1232.349
264.7890, 1297.816
266.0020, 1319.373
267.2150, 1559.017
268.4270, 1949.420
269.6400, 1975.787
270.8520, 2442.348
272.0640, 2293.660
273.2760, 2244.021
274.4880, 2506.998
275.7000, 2379.178
276.9120, 2436.137
278.1230, 2068.878
279.3340, 1718.438
280.5450, 1382.801
281.7560, 1175.320
282.9670, 982.8652
284.1780, 1006.473
285.3880, 1173.139
286.5980, 1317.865
287.8090, 1361.648
289.0190, 1535.330
290.2290, 1556.389
291.4380, 1780.335
292.6480, 2033.317
293.8570, 2122.324
295.0670, 2182.351
296.2760, 2153.397
297.4850, 2034.466
298.6930, 1784.557
299.9020, 1565.672
301.1110, 1231.811
302.3190, 1335.979
303.5270, 1214.172
304.7350, 1454.394
305.9430, 1567.641
307.1510, 1831.913
308.3580, 2212.211
309.5660, 2780.530
310.7730, 3187.872
311.9800, 3803.239
313.1870, 3871.630
314.3940, 4007.045
315.6010, 3929.486
316.8070, 3497.953
318.0130, 2871.449
319.2200, 2473.972
320.4260, 2037.523
321.6310, 1751.104
322.8370, 1278.716
324.0430, 978.3584
325.2480, 695.0342
326.4540, 567.7461
327.6590, 209.4941
328.8640, 88.28027
330.0680, 35.90332
331.2730, 199.0820
332.4780, 295.2949
333.6820, 429.5645
334.8860, 481.9736
336.0900, 418.3848
337.2940, 493.9307
338.4980, 493.5801
339.7010, 356.3311
340.9050, 514.5723
342.1080, 293.0781
343.3110, 614.0566
344.5140, 499.1650
345.7170, 305.3740
346.9200, 175.6348
348.1220, 0.9160160
349.3240, 111.8242
350.5270, 406.6064
351.7290, 647.3867
352.9310, 1026.016
354.1320, 1410.385
355.3340, 1718.499
356.5350, 2027.385
357.7370, 2197.059
358.9380, 2161.446
360.1390, 2017.726
361.3400, 1515.045
362.5400, 1202.428
363.7410, 1013.874
364.9410, 694.3838
366.1410, 479.9590
367.3410, 464.5996
368.5410, 463.3047
369.7410, 516.0742
370.9400, 449.9102
372.1400, 288.8125
373.3390, 288.7930
374.5380, 425.8379
375.7370, 124.9434
376.9360, 82.10449
378.1350, 162.3184
379.3330, 47.41504
380.5310, 75.13672
381.7300, 171.8564
382.9280, 291.6182
384.1260, 85.47461
385.3230, 210.3340
386.5210, 106.2451
387.7180, 213.1631
388.9160, 174.1318
390.1130, 59.86621
391.3100, 272.9189
392.5060, 266.0264
393.7030, 275.1895
394.9000, 627.4111
396.0960, 786.6934
397.2920, 1042.037
398.4880, 1213.445
399.6840, 1398.921
400.8800, 1637.955
402.0750, 1925.074
403.2710, 2075.750
404.4660, 2363.520
405.6610, 2562.411
406.8560, 2733.436
408.0510, 2667.581
409.2450, 2881.848
410.4400, 2793.272
411.6340, 2787.864
412.8280, 2808.618
414.0220, 2415.565
415.2160, 2228.664
416.4100, 2021.935
417.6030, 1632.396
418.7970, 1393.998
419.9900, 1260.789
421.1830, 1117.775
422.3760, 894.9600
423.5690, 682.3232
424.7610, 972.8818
425.9540, 1148.571
427.1460, 1334.412
428.3380, 1836.355
429.5300, 2270.423
430.7220, 2961.595
431.9140, 3715.854
433.1050, 4908.184
434.2970, 5653.582
435.4880, 6952.048
436.6790, 7832.584
437.8700, 9030.189
439.0610, 9637.866
440.2510, 9867.612
441.4420, 9374.430
442.6320, 8308.316
443.8220, 7305.275
445.0120, 6215.305
446.2020, 5355.406
447.3910, 5003.582
448.5810, 4792.828
449.7700, 4721.146
450.9600, 5034.537
452.1490, 5264.002
453.3370, 5527.539
454.5260, 5871.151
455.7150, 6273.947
456.9030, 6767.600
458.0910, 7212.437
459.2800, 7629.350
460.4670, 8038.957
461.6550, 8383.402
462.8430, 8774.543
464.0300, 9159.762
465.2180, 9482.055
466.4050, 9392.430
467.5920, 9165.882
468.7790, 8497.410
469.9650, 7554.020
471.1520, 6841.705
472.3380, 6107.785
473.5250, 5438.281
474.7110, 5134.753
475.8970, 4856.730
477.0820, 4845.987
478.2680, 5167.326
479.4540, 5025.543
480.6390, 5638.497
481.8240, 5873.638
483.0090, 6366.988
484.1940, 6665.246
485.3780, 7034.656
486.5630, 7326.451
487.7470, 7712.167
488.9320, 7745.430
490.1160, 8103.492
491.3000, 8593.300
492.4830, 9096.586
493.6670, 9645.965
494.8500, 10411.44
496.0340, 11182.02
497.2170, 12105.70
498.4000, 12789.48
499.5820, 13551.37
500.7650, 13883.36
501.9480, 14625.45
503.1300, 14809.65
504.3120, 15022.96
505.4940, 15235.38
506.6760, 15545.89
507.8580, 15539.52
509.0390, 15709.26
510.2210, 15509.09
511.4020, 15636.04
512.5830, 15320.09
513.7640, 15100.24
514.9450, 14732.50
516.1250, 14433.87
517.3060, 14114.34
518.4860, 13512.91
519.6660, 13883.59
520.8460, 13462.38
522.0260, 13712.41
523.2060, 13919.27
524.3850, 14078.12
525.5650, 14648.70
526.7440, 15351.69
527.9230, 15766.18
529.1020, 16646.58
530.2810, 17195.42
531.4590, 17547.63
532.6380, 17646.48
533.8160, 17549.44
534.9940, 16957.50
536.1720, 16616.67
537.3500, 15969.95
538.5270, 15227.33
539.7050, 14266.82
540.8820, 13297.42
542.0590, 12749.13
543.2360, 12110.94
544.4130, 12059.86
545.5900, 11866.79
546.7660, 12142.46
547.9430, 12811.06
549.1190, 13381.52
550.2950, 14361.70
551.4710, 15810.98
552.6470, 17112.26
553.8220, 18537.12
554.9980, 20144.61
556.1730, 21908.67
557.3480, 23079.59
558.5230, 24156.18
559.6980, 24106.05
560.8730, 24287.16
562.0470, 24104.08
563.2220, 23878.36
564.3960, 23515.40
565.5700, 22804.73
566.7440, 22048.66
567.9170, 20744.66
569.0910, 19094.00
570.2640, 17714.14
571.4380, 15661.38
572.6110, 14369.61
573.7840, 12805.84
574.9570, 11931.16
576.1290, 10993.57
577.3020, 10104.06
578.4740, 9515.649
579.6460, 9431.314
580.8180, 9076.060
581.9900, 8836.880
583.1620, 8776.780
584.3330, 8437.755
585.5040, 8882.811
586.6760, 8912.961
587.8470, 9106.212
589.0180, 10087.54
590.1880, 10819.99
591.3590, 11799.52
592.5290, 13287.14
593.7000, 14657.86
594.8700, 16270.67
596.0400, 17597.57
597.2090, 19144.59
598.3790, 20433.68
599.5490, 20770.94
600.7180, 20709.28
601.8870, 19893.71
603.0560, 18011.25
604.2250, 16435.89
605.3940, 14556.67
606.5620, 13085.53
607.7300, 12186.49
608.8990, 11291.56
610.0670, 10568.74
611.2350, 10152.03
612.4020, 10095.43
613.5700, 9877.922
614.7370, 9949.555
615.9050, 9438.333
617.0720, 8861.310
618.2390, 8086.520
619.4060, 7634.945
620.5720, 7166.597
621.7390, 6672.832
622.9050, 6354.427
624.0710, 5970.891
625.2370, 5811.377
626.4030, 5680.037
627.5690, 5607.914
628.7340, 5725.957
629.9000, 6308.207
631.0650, 6087.538
632.2300, 6233.937
633.3950, 6411.383
634.5600, 6133.879
635.7240, 5936.419
636.8890, 5779.041
638.0530, 5229.705
639.2170, 4658.410
640.3810, 4224.156
641.5450, 3843.945
642.7080, 3331.774
643.8720, 3223.642
645.0350, 2930.545
646.1980, 2848.484
647.3610, 2934.459
648.5240, 2665.470
649.6870, 3013.514
650.8490, 3144.589
652.0120, 3411.697
653.1740, 3330.836
654.3360, 3587.005
655.4980, 3679.203
656.6600, 3990.430
657.8210, 3976.686
658.9830, 4191.967
660.1440, 4038.273
661.3050, 3957.605
662.4660, 3814.982
663.6270, 3448.405
664.7870, 3055.897
665.9480, 2917.484
667.1080, 2480.119
668.2680, 2063.824
669.4280, 1781.580
670.5880, 1659.404
671.7480, 1513.290
672.9070, 1034.192
674.0670, 1044.109
675.2260, 826.0410
676.3850, 732.9863
677.5440, 558.9434
678.7030, 373.9141
679.8610, 360.8945
681.0200, 233.8857
682.1780, 80.88574
683.3360, 91.89355
684.4940, 102.0908
685.6520, 212.1221
686.8090, 257.2588
687.9670, 198.5254
689.1240, 205.8945
690.2810, 339.3721
691.4380, 383.0273
692.5950, 339.8838
693.7520, 360.9238
694.9080, 266.1592
696.0650, 293.5449
697.2210, 283.8955
698.3770, 130.8086
699.5330, 284.6104
700.6880, 293.5801
701.8440, 262.7236
702.9990, 169.7383
704.1550, 188.0430
705.3100, 177.7627
706.4650, 275.4307
707.6190, 75.30078
708.7740, 170.8770
709.9290, 83.44238
711.0830, 10.84766
712.2370, 222.0029
713.3910, 189.9414
714.5450, 449.7598
715.6980, 342.2373
716.8520, 380.8613
718.0050, 582.3193
719.1580, 607.5781
720.3110, 483.2441
721.4640, 670.1299
722.6170, 650.6699
723.7700, 616.4502
724.9220, 758.2520
726.0740, 661.5430
727.2260, 440.8037
728.3780, 637.7734
729.5300, 430.6484
730.6810, 438.0098
731.8330, 467.7129
732.9840, 277.5088
734.1350, 345.3076
735.2860, 448.0010
736.4370, 390.7842
737.5880, 495.3564
738.7380, 464.2324
739.8880, 578.7070
741.0390, 617.3711
742.1890, 656.6914
743.3380, 744.9482
744.4880, 732.1406
745.6380, 792.4072
746.7870, 679.6025
747.9360, 738.2900
749.0850, 684.1152
750.2340, 821.4619
751.3830, 996.1494
752.5310, 994.4883
753.6800, 1013.877
754.8280, 989.3086
755.9760, 1123.646
757.1240, 1067.226
758.2720, 1093.110
759.4190, 1260.705
760.5670, 1341.275
761.7140, 1351.103
762.8610, 1395.019
764.0080, 1503.066
765.1550, 1550.404
766.3020, 1567.554
767.4480, 1446.958
768.5950, 1621.090
769.7410, 1409.065
770.8870, 1507.216
772.0330, 1355.700
773.1780, 1416.475
774.3240, 1499.577
775.4690, 1391.215
776.6140, 1382.784
777.7590, 1405.283
778.9040, 1558.209
780.0490, 1376.569
781.1940, 1473.857
782.3380, 1322.074
783.4820, 1433.222
784.6260, 1417.297
785.7700, 1489.300
786.9140, 1500.230
788.0580, 1575.090
789.2010, 1721.875
790.3450, 1864.588
791.4880, 2014.228
792.6310, 2071.793
793.7730, 2198.285
794.9160, 2001.703
796.0590, 2180.049
797.2010, 2375.318
798.3430, 2194.512
799.4850, 2381.631
800.6270, 2247.676
801.7690, 2562.645
802.9100, 2471.539
804.0520, 2344.354
805.1930, 2366.095
806.3340, 2231.758
807.4750, 2124.344
808.6160, 2158.852
809.7560, 2012.281
810.8970, 1877.631
812.0370, 1658.903
813.1770, 1878.099
814.3170, 1762.214
815.4570, 1618.250
816.5960, 1561.209
817.7360, 1364.088
818.8750, 1337.890
820.0140, 1205.611
821.1530, 1218.252
822.2920, 1170.910
823.4310, 1112.858
824.5690, 1042.291
825.7070, 996.6963
826.8460, 880.6074
827.9840, 861.0391
829.1220, 811.5146
830.2590, 679.4111
831.3970, 500.7119
832.5340, 630.4648
833.6710, 702.3887
834.8080, 490.6562
835.9450, 378.6758
837.0820, 534.4766
838.2190, 343.4805
839.3550, 237.1582
840.4910, 248.0859
841.6270, 166.7480
842.7630, 299.8223
843.8990, 81.84375
845.0350, 170.5352
846.1700, 29.45508
847.3060, 20.26367
848.4410, 31.09180
849.5760, 88.91016
850.7100, 11.66016
851.8450, 35.31641
852.9800, 30.88867
854.1140, 59.37500
855.2480, 64.78906
856.3820, 92.12891
857.5160, 77.02539
858.6500, 94.61719
859.7830, 40.76562
860.9170, 14.16406
862.0500, 39.19531
863.1830, 49.65234
864.3160, 100.5664
865.4480, 4.935547
866.5810, 39.59961
867.7130, 84.93750
868.8460, 8.312500
869.9780, 35.38281
871.1100, 96.26172
872.2410, 13.27930
873.3730, 243.3926
874.5050, 57.72070
875.6360, 1.835938
876.7670, 130.6953
877.8980, 111.3730
879.0290, 192.1973
880.1590, 18.19922
881.2900, 117.2949
882.4200, 118.5293
883.5500, 112.9043
884.6800, 165.4141
885.8100, 128.5469
886.9400, 72.90039
888.0690, 133.8223
889.1990, 25.88672
890.3280, 125.0332
891.4570, 158.3145
892.5860, 37.74414
893.7140, 141.2578
894.8430, 107.9082
895.9710, 126.6758
897.1000, 34.43164
898.2280, 16.12305
899.3560, 80.49609
900.4830, 57.41797
901.6110, 22.29297
902.7380, 6.875000
903.8660, 44.90430
904.9930, 78.64453
906.1200, 17.34766
907.2460, 6.988281
908.3730, 43.62891
909.5000, 144.7930
910.6260, 133.6738
911.7520, 119.1094
912.8780, 204.5098
914.0040, 13.12109
915.1290, 394.2031
916.2550, 131.5000
917.3800, 311.2559
918.5050, 693.0000
919.6300, 456.2031
920.7550, 486.3789
921.8800, 385.5254
923.0040, 475.6445
924.1290, 308.7363
925.2530, 608.8008
926.3770, 508.8418
927.5010, 617.8535
928.6250, 807.8438
929.7480, 619.8086
930.8720, 765.7500
931.9950, 1059.676
933.1180, 1032.586
934.2410, 1069.484
935.3640, 1174.361
936.4860, 1382.217
937.6090, 1475.055
938.7310, 1578.871
939.8530, 1692.689
940.9750, 1813.490
942.0970, 1944.277
943.2180, 2178.051
944.3400, 2330.834
945.4610, 2436.600
946.5820, 2776.355
947.7030, 2877.098
948.8240, 3009.828
949.9450, 3184.549
951.0650, 3480.254
952.1860, 3692.949
953.3060, 3915.637
954.4260, 4125.311
955.5460, 4211.977
956.6650, 4751.637
957.7850, 5017.320
958.9040, 5489.076
960.0230, 6003.918
961.1420, 6839.824
962.2610, 7605.809
963.3800, 8385.887
964.4990, 9328.092
965.6170, 10389.38
966.7350, 11777.80
967.8530, 13209.30
968.9710, 14972.87
970.0890, 16141.52
971.2070, 17431.23
972.3240, 18541.03
973.4410, 19577.95
974.5580, 20239.65
975.6750, 20373.59
976.7920, 20912.89
977.9090, 21217.07
979.0250, 21686.38
980.1410, 22472.41
981.2580, 23812.39
982.3740, 24983.22
983.4890, 27076.76
984.6050, 28995.22
985.7200, 30499.82
986.8360, 31853.78
987.9510, 32039.59
989.0660, 32124.55
990.1810, 30196.73
991.2950, 27765.50
992.4100, 25445.04
993.5240, 22530.93
994.6390, 20402.62
995.7530, 18684.29
996.8660, 16977.46
997.9800, 15787.67
999.0940, 15231.16
1000.207, 14681.78
1001.320, 14344.92
1002.433, 14219.74
1003.546, 14376.46
1004.659, 14652.61
1005.772, 15372.04
1006.884, 16176.77
1007.996, 17378.21
1009.108, 18717.42
1010.220, 20535.53
1011.332, 22893.43
1012.444, 25508.68
1013.555, 28688.98
1014.666, 31425.34
1015.777, 34207.61
1016.888, 36469.96
1017.999, 38228.80
1019.110, 39074.51
1020.220, 39083.71
1021.331, 38481.57
1022.441, 36929.77
1023.551, 35475.92
1024.661, 33296.00
1025.770, 31432.18
1026.880, 29524.10
1027.989, 28136.74
1029.098, 26950.65
1030.207, 25490.60
1031.316, 24498.27
1032.425, 24076.86
1033.533, 23388.30
1034.642, 22738.43
1035.750, 22581.36
1036.858, 22168.78
1037.966, 21901.07
1039.073, 21781.50
1040.181, 21256.74
1041.288, 21124.62
1042.396, 19957.19
1043.503, 19706.42
1044.610, 18696.09
1045.716, 17896.81
1046.823, 16995.58
1047.929, 15907.91
1049.036, 15236.78
1050.142, 14278.70
1051.248, 13492.67
1052.353, 12833.69
1053.459, 12497.77
1054.564, 11879.89
1055.670, 11606.07
1056.775, 11070.30
1057.880, 11181.58
1058.985, 10859.91
1060.089, 10621.30
1061.194, 10520.74
1062.298, 10162.23
1063.402, 9880.779
1064.506, 9799.762
1065.610, 9932.049
1066.713, 9562.201
1067.817, 9508.965
1068.920, 9372.777
1070.023, 9245.646
1071.126, 9217.570
1072.229, 9256.477
1073.332, 9311.508
1074.435, 9299.520
1075.537, 9031.660
1076.639, 9106.988
1077.741, 8669.238
1078.843, 8608.133
1079.945, 8099.508
1081.046, 8048.270
1082.148, 7801.734
1083.249, 7354.260
1084.350, 7123.836
1085.451, 6635.480
1086.551, 6004.170
1087.652, 5528.914
1088.752, 5299.982
1089.853, 4874.180
1090.953, 4652.887
1092.053, 4192.012
1093.152, 4150.447
1094.252, 3819.039
1095.351, 3549.484
1096.451, 3167.346
1097.550, 3464.000
1098.649, 3347.643
1099.748, 3156.980
1100.846, 3280.371
1101.945, 3249.809
1103.043, 3355.109
1104.141, 3607.748
1105.239, 3832.094
1106.337, 4297.387
1107.434, 4777.428
1108.532, 5493.746
1109.629, 6269.527
1110.726, 7179.873
1111.823, 8505.566
1112.920, 9950.312
1114.017, 11548.21
1115.113, 12792.20
1116.210, 13385.31
1117.306, 13660.11
1118.402, 13212.51
1119.498, 12375.79
1120.593, 11770.13
1121.689, 10602.06
1122.784, 9811.512
1123.879, 9276.012
1124.974, 8713.477
1126.069, 8194.621
1127.164, 7841.818
1128.259, 7486.529
1129.353, 6755.414
1130.447, 6652.244
1131.541, 5960.676
1132.635, 5876.707
1133.729, 5308.291
1134.822, 5177.398
1135.916, 5000.281
1137.009, 5041.516
1138.102, 5204.832
1139.195, 5173.223
1140.288, 5493.717
1141.380, 6022.352
1142.473, 6491.379
1143.565, 7147.100
1144.657, 7919.904
1145.749, 8875.809
1146.841, 9321.770
1147.932, 9602.840
1149.024, 9496.965
1150.115, 8482.248
1151.206, 7520.297
1152.297, 6401.182
1153.388, 5720.121
1154.479, 4581.666
1155.569, 3714.975
1156.659, 3344.359
1157.750, 2859.113
1158.839, 2782.801
1159.929, 2251.684
1161.019, 2140.734
1162.108, 1844.756
1163.198, 1663.914
1164.287, 1537.000
1165.376, 1606.139
1166.465, 1482.430
1167.553, 1368.299
1168.642, 1198.529
1169.730, 1227.789
1170.818, 1015.074
1171.906, 1003.387
1172.994, 876.7285
1174.082, 760.0957
1175.170, 734.5273
1176.257, 722.9824
1177.344, 658.4609
1178.431, 581.9629
1179.518, 643.4941
1180.605, 484.0449
1181.691, 348.6191
1182.778, 360.2168
1183.864, 309.8340
1184.950, 378.4727
1186.036, 316.1328
1187.122, 99.81250
1188.207, 226.5117
1189.292, 57.23438
1190.378, 278.9707
1191.463, 167.7285
1192.548, 124.5059
1193.632, 233.2969
1194.717, 68.89062
1195.801, 76.07617
1196.886, 69.26562
1197.970, 220.5469
1199.054, 47.37695
1200.137, 122.2188
1201.221, 112.0781
1202.305, 125.0488
1203.388, 14.80078
1204.471, 45.33594
1205.554, 234.5312
1206.637, 142.5918
1207.719, 118.2520
1208.802, 29.89453
1209.884, 5.962891
1210.966, 18.16602
1212.048, 94.70898
1213.130, 105.5957
1214.212, 53.49023
1215.293, 7.396484
1216.374, 152.3086
1217.456, 67.23242
1218.536, 10.83789
1219.617, 13.17188
1220.698, 128.1367
1221.778, 115.2480
1222.859, 82.40234
1223.939, 133.5840
1225.019, 35.82227
1226.099, 116.0703
1227.178, 10.36719
1228.258, 122.6641
1229.337, 135.9805
1230.417, 40.63086
1231.496, 124.2930
1232.574, 73.05273
1233.653, 4.568359
1234.732, 132.7598
1235.810, 33.79102
1236.888, 14.65625
1237.966, 3.953125
1239.044, 39.58203
1240.122, 0.1972660
1241.199, 217.2793
1242.277, 103.8770
1243.354, 119.5371
1244.431, 21.27148
1245.508, 29.97070
1246.585, 77.78516
1247.661, 68.60156
1248.738, 33.53125
1249.814, 35.66016
1250.890, 69.21484
1251.966, 218.6562
1253.042, 148.7227
1254.117, 6.218750
1255.193, 126.1836
1256.268, 21.75781
1257.343, 101.6855
1258.418, 50.38867
1259.493, 185.4902
1260.567, 69.63477
1261.642, 28.82227
1262.716, 83.05859
1263.790, 74.62695
1264.864, 50.69531
1265.938, 63.91797
1267.011, 196.5215
1268.085, 98.88281
1269.158, 95.61914
1270.231, 96.88867
1271.304, 12.73242
1272.377, 231.0957
1273.450, 266.4492
1274.522, 160.7871
1275.594, 203.1094
1276.666, 27.42188
1277.738, 202.6953
1278.810, 10.95703
1279.882, 1.169922
1280.953, 25.97852
1282.025, 78.09961
1283.096, 122.7168
1284.167, 75.79492
1285.238, 77.84961
1286.308, 310.8750
1287.379, 22.11719
1288.449, 173.8164
1289.519, 23.26758
1290.589, 384.5723
1291.659, 29.39258
1292.729, 299.1875
1293.798, 241.9336
1294.868, 81.65820
1295.937, 98.35156
1297.006, 398.0156
1298.075, 152.6562
1299.143, 354.2734
1300.212, 191.8672
1301.280, 299.4375
1302.348, 268.9844
1303.416, 311.5117
1304.484, 302.0117
1305.552, 340.4902
1306.620, 335.9395
1307.687, 305.3691
1308.754, 391.7715
1309.821, 310.1504
1310.888, 209.5059
1311.955, 318.8340
1313.021, 381.1387
1314.088, 292.5996
1315.154, 331.8516
1316.220, 242.0801
1317.286, 290.2852
1318.352, 399.4629
1319.417, 426.6191
1320.483, 205.7480
1321.548, 381.8516
1322.613, 191.9258
1323.678, 325.5938
1324.743, 319.9805
1325.807, 385.5293
1326.872, 423.4961
1327.936, 469.4590
1329.000, 468.3711
1330.064, 345.2539
1331.128, 386.1777
1332.191, 436.0059
1333.255, 310.8809
1334.318, 555.6504
1335.381, 285.2461
1336.444, 483.9473
1337.507, 339.0293
1338.569, 323.9805
1339.632, 572.2500
1340.694, 416.8359
1341.756, 345.3906
1342.818, 462.9180
1343.880, 287.4043
1344.941, 328.8730
1346.003, 401.3105
1347.064, 148.4512
1348.125, 132.4883
1349.186, 641.0469
1350.247, 303.2129
1351.308, 466.0801
1352.368, 451.8223
1353.428, 475.7324
1354.489, 459.2520
1355.549, 458.0059
1356.608, 400.7949
1357.668, 332.9141
1358.727, 190.0059
1359.787, 414.0723
1360.846, 494.2773
1361.905, 179.4414
1362.964, 332.6465
1364.022, 311.5879
1365.081, 156.4590
1366.139, 233.7168
1367.197, 166.8906
1368.255, 271.8242
1369.313, 195.7871
1370.371, 227.7246
1371.428, 399.5391
1372.486, 252.3145
1373.543, 160.9961
1374.600, 380.0234
1375.657, 301.4902
1376.713, 256.1035
1377.770, 269.6953
1378.826, 43.72852
1379.882, 331.2676
1380.938, 373.7852
1381.994, 177.3574
1383.050, 166.2734
1384.106, 406.1680
1385.161, 156.8398
1386.216, 233.3223
1387.271, 405.1914
1388.326, 264.1250
1389.381, 374.4180
1390.435, 226.1836
1391.490, 127.4863
1392.544, 268.0547
1393.598, 388.3145
1394.652, 172.5527
1395.705, 306.7578
1396.759, 144.9609
1397.812, 28.92578
1398.866, 192.8262
1399.919, 160.3926
1400.972, 307.5039
1402.024, 315.9863
1403.077, 134.6914
1404.129, 275.7207
1405.181, 236.7617
1406.233, 152.7012
1407.285, 24.04883
1408.337, 141.4316
1409.389, 7.091797
1410.440, 285.8477
1411.491, 365.0586
1412.542, 223.2559
1413.593, 156.1562
1414.644, 287.1602
1415.695, 328.0352
1416.745, 273.7754
1417.795, 296.8828
1418.845, 72.21094
1419.895, 221.9609
1420.945, 162.7012
1421.995, 159.3047
1423.044, 311.3496
1424.093, 290.0410
1425.142, 93.72266
1426.191, 302.3887
1427.240, 140.0449
1428.289, 143.6914
1429.337, 303.3262
1430.385, 188.9473
1431.433, 204.5586
1432.481, 229.1582
1433.529, 87.75195
1434.577, 280.3379
1435.624, 112.9219
1436.672, 129.5586
1437.719, 194.1387
1438.766, 181.7168
1439.812, 38.30078
1440.859, 300.8867
1441.905, 203.5703
1442.952, 323.1777
1443.998, 205.8027
1445.044, 162.2734
1446.090, 301.9336
1447.135, 335.7910
1448.181, 88.25586
1449.226, 261.6855
1450.271, 230.0840
1451.316, 145.4238
1452.361, 183.7246
1453.405, 62.99414
1454.450, 365.2402
1455.494, 220.4590
1456.538, 320.6250
1457.582, 251.7383
1458.626, 276.7949
1459.670, 263.5820
1460.713, 297.6855
1461.757, 162.6484
1462.800, 150.6582
1463.843, 9.695313
1464.886, 145.7520
1465.928, 284.7812
1466.971, 121.7910
1468.013, 234.7559
1469.055, 203.5859
1470.097, 337.4766
1471.139, 92.50391
1472.181, 285.6816
1473.222, 134.8867
1474.263, 307.1484
1475.305, 168.4023
1476.346, 106.3301
1477.386, 241.5645
1478.427, 289.8906
1479.468, 236.1973
1480.508, 133.5156
1481.548, 108.9414
1482.588, 101.4180
1483.628, 60.90430
1484.668, 45.47656
1485.707, 218.0430
1486.747, 3.361328
1487.786, 215.2129
1488.825, 290.7949
1489.864, 288.8750
1490.902, 203.6035
1491.941, 247.9453
1492.979, 110.7109
1494.017, 208.3281
1495.055, 360.0215
1496.093, 294.1230
1497.131, 148.4316
1498.168, 179.1738
1499.206, 256.9062
1500.243, 279.6328
1501.280, 292.3535
1502.317, 332.1660
1503.354, 343.7734
1504.390, 344.4746
1505.426, 306.1816
1506.463, 177.5098
1507.499, 175.1855
1508.535, 71.84961
1509.570, 28.50000
1510.606, 27.68555
1511.641, 32.67383
1512.676, 7.412109
1513.711, 76.07227
1514.746, 255.7422
1515.781, 359.4277
1516.816, 243.1758
1517.850, 122.1855
1518.884, 120.9590
1519.918, 233.7500
1520.952, 112.5742
1521.986, 62.42188
1523.019, 36.28711
1524.053, 13.47461
1525.086, 222.1484
1526.119, 76.12305
1527.152, 24.10742
1528.185, 331.1074
1529.217, 180.4570
1530.250, 36.61328
1531.282, 198.9941
1532.314, 220.4570
1533.346, 103.9531
1534.377, 298.4785
1535.409, 241.0371
1536.440, 304.6250
1537.472, 252.2520
1538.503, 311.9219
1539.534, 174.6504
1540.564, 75.40234
1541.595, 229.8945
1542.625, 54.84180
1543.656, 192.1777
1544.686, 127.5586
1545.716, 56.98438
1546.745, 172.4375
1547.775, 273.6035
1548.804, 190.0000
1549.834, 209.3086
1550.863, 182.7637
1551.892, 131.1973
1552.920, 144.5879
1553.949, 223.9219
1554.977, 347.1758
1556.006, 311.6250
1557.034, 330.8535
1558.062, 291.3301
1559.089, 56.93164
1560.117, 30.93750
1561.144, 59.22266
1562.172, 153.8613
1563.199, 142.0254
1564.226, 170.8730
1565.252, 44.40234
1566.279, 184.2637
1567.305, 130.3926
1568.332, 1.369141
1569.358, 157.0098
1570.384, 0.0000000E+00
##END=



