##NAMES=Calcite
##RRUFFID=R050009
##IDEAL CHEMISTRY=CaCO_3_
##LOCALITY=Amparo mine, Rodeo, Durango, Mexico
##OWNER=RRUFF
##SOURCE=Eugene Schlepp
##DESCRIPTION=Colorless cleavage rhomb
##STATUS=The identification of this mineral has been confirmed by X-ray diffraction and chemical analysis
##URL=rruff.info/R050009
##MEASURED CHEMISTRY=Ca_1.00_CO_3_; trace amounts of Mn
##PIN_ID=L00060
##ORIENTATION=Laser parallel to c* (0 0 1). Fiducial mark perpendicular to laser is parallel to a [1 0 0]
74.61800, 0.0000000E+00
75.86200, 0.2303470
77.10600, 36.61169
78.34900, 59.54114
79.59300, 49.52246
80.83600, 22.51855
82.07900, 20.06677
83.32100, 38.30518
84.56400, 19.56677
85.80600, 77.49194
87.04800, 43.05566
88.29000, 41.64673
89.53200, 65.13989
90.77400, 68.27222
92.01500, 43.79565
93.25700, 74.41040
94.49800, 21.05688
95.73900, 74.76636
96.98000, 1.473999
98.22000, 76.32397
99.46100, 65.15320
100.7010, 32.00537
101.9410, 1.124756
103.1810, 61.76514
104.4210, 63.70642
105.6600, 30.86841
106.9000, 14.98267
108.1390, 68.32422
109.3780, 45.60071
110.6170, 70.84717
111.8550, 45.06738
113.0940, 82.26440
114.3320, 95.52197
115.5700, 139.8330
116.8080, 85.11768
118.0460, 101.3801
119.2830, 68.61963
120.5210, 102.8384
121.7580, 46.03796
122.9950, 82.25977
124.2320, 46.42627
125.4690, 68.57947
126.7050, 109.7207
127.9410, 84.85083
129.1780, 60.97058
130.4140, 122.0804
131.6490, 66.44495
132.8850, 68.53247
134.1200, 73.25342
135.3560, 85.91040
136.5910, 74.85889
137.8260, 107.8308
139.0610, 95.15576
140.2950, 98.72437
141.5290, 71.61694
142.7640, 125.5964
143.9980, 124.4878
145.2320, 198.3833
146.4650, 174.2832
147.6990, 203.1836
148.9320, 242.0894
150.1650, 283.0066
151.3980, 367.9341
152.6310, 545.8916
153.8640, 533.9031
155.0960, 658.8110
156.3280, 674.7229
157.5600, 621.6377
158.7920, 538.5535
160.0240, 395.5220
161.2560, 277.4304
162.4870, 257.3364
163.7180, 208.2410
164.9490, 163.1384
166.1800, 172.0303
167.4110, 102.9290
168.6410, 121.8357
169.8720, 102.7471
171.1020, 47.65991
172.3320, 102.5852
173.5620, 115.5222
174.7910, 105.4600
176.0210, 116.3984
177.2500, 63.33789
178.4790, 89.27881
179.7080, 108.2202
180.9370, 76.16235
182.1650, 115.1035
183.3940, 91.04419
184.6220, 69.98633
185.8500, 76.93042
187.0780, 23.87598
188.3050, 54.82275
189.5330, 123.7688
190.7600, 69.71484
191.9870, 4.338623
193.2140, 114.6926
194.4410, 24.35400
195.6680, 107.5979
196.8940, 89.54858
198.1200, 94.77222
199.3470, 108.7346
200.5720, 116.7788
201.7980, 66.77734
203.0240, 13.35718
204.2490, 26.69849
205.4740, 110.2393
206.6990, 74.29858
207.9240, 48.40356
209.1490, 124.3105
210.3740, 37.21680
211.5980, 80.12305
212.8220, 80.02759
214.0460, 97.03857
215.2700, 61.16870
216.4930, 113.1299
217.7170, 74.28394
218.9400, 73.76855
220.1630, 88.03882
221.3860, 54.98755
222.6090, 73.56836
223.8320, 75.75269
225.0540, 75.06201
226.2760, 82.34399
227.4980, 51.61597
228.7200, 69.18604
229.9420, 127.3657
231.1630, 37.45972
232.3850, 97.63086
233.6060, 54.94971
234.8270, 89.03882
236.0480, 140.1179
237.2690, 85.21851
238.4890, 88.22168
239.7090, 158.2947
240.9290, 51.30591
242.1490, 142.1877
243.3690, 87.20142
244.5890, 38.58325
245.8080, 59.59839
247.0270, 115.6140
248.2470, 86.56934
249.4650, 100.0459
250.6840, 134.0681
251.9030, 146.0901
253.1210, 157.2551
254.3390, 134.8604
255.5570, 152.8784
256.7750, 133.8921
257.9930, 93.97827
259.2100, 100.4282
260.4280, 142.4395
261.6450, 180.8059
262.8620, 117.8130
264.0790, 216.8181
265.2950, 142.8213
266.5120, 242.8232
267.7280, 279.8230
268.9440, 240.4619
270.1600, 289.4585
271.3760, 272.4531
272.5920, 322.4456
273.8070, 424.4375
275.0220, 402.4412
276.2370, 545.4307
277.4520, 630.4182
278.6670, 775.4465
279.8820, 941.4302
281.0960, 1033.509
282.3100, 1184.488
283.5240, 1160.442
284.7380, 1065.418
285.9520, 870.3682
287.1650, 673.2981
288.3780, 603.2336
289.5920, 479.1614
290.8050, 345.1440
292.0170, 346.1064
293.2300, 217.2708
294.4430, 253.2263
295.6550, 292.2664
296.8670, 209.1892
298.0790, 112.4570
299.2910, 127.3789
300.5020, 155.2817
301.7140, 84.18359
302.9250, 103.1619
304.1360, 63.14136
305.3470, 45.04028
306.5580, 53.94507
307.7680, 58.19385
308.9780, 71.22559
310.1890, 28.12085
311.3990, 52.61426
312.6090, 64.53125
313.8180, 64.42285
315.0280, 100.3667
316.2370, 82.27539
317.4460, 66.15356
318.6550, 3.766846
319.8640, 32.65454
321.0730, 56.56152
322.2810, 9.505615
323.4890, 105.3738
324.6980, 23.37598
325.9060, 76.25317
327.1130, 32.19385
328.3210, 4.933105
329.5280, 53.93677
330.7360, 43.62256
331.9430, 104.4890
333.1500, 55.31201
334.3560, 59.17480
335.5630, 57.04053
336.7690, 17.90454
337.9760, 14.19897
339.1820, 35.05811
340.3870, 86.01099
341.5930, 58.93018
342.7990, 87.82153
344.0040, 104.6750
345.2090, 90.61621
346.4140, 58.46118
347.6190, 45.30371
348.8240, 72.04492
350.0280, 32.82617
351.2330, 18.66113
352.4370, 86.56885
353.6410, 1.523682
354.8440, 21.32178
356.0480, 61.21997
357.2520, 4.128906
358.4550, 12.04712
359.6580, 40.96240
360.8610, 43.86450
362.0640, 43.46191
363.2660, 66.54419
364.4690, 25.39331
365.6710, 37.19995
366.8730, 20.00439
368.0750, 66.80347
369.2770, 63.59985
370.4780, 109.4897
371.6800, 35.27954
372.8810, 19.75610
374.0820, 48.01538
375.2830, 14.19775
376.4830, 82.94849
377.6840, 2.117188
378.8840, 87.63965
380.0840, 30.38843
381.2840, 26.13452
382.4840, 77.10034
383.6840, 15.97827
384.8830, 71.71509
386.0830, 34.56421
387.2820, 73.30884
388.4810, 71.16357
389.6800, 50.87280
390.8780, 72.62305
392.0770, 117.6873
393.2750, 99.49780
394.4730, 104.2952
395.6710, 77.16748
396.8690, 56.96948
398.0660, 0.7053220
399.2640, 78.44263
400.4610, 158.1768
401.6580, 22.90820
402.8550, 5.364258
404.0520, 44.35620
405.2490, 3.925049
406.4450, 40.78613
407.6410, 60.49487
408.8370, 51.20142
410.0330, 120.0405
411.2290, 59.74097
412.4240, 24.56152
413.6200, 80.11865
414.8150, 40.79565
416.0100, 86.47754
417.2050, 60.31470
418.4000, 37.15698
419.5940, 44.82153
420.7880, 51.48267
421.9830, 29.93286
423.1770, 60.87231
424.3700, 15.52368
425.5640, 34.31396
426.7580, 65.05493
427.9510, 34.78809
429.1440, 85.42529
430.3370, 65.05957
431.5300, 38.82397
432.7220, 44.45166
433.9150, 27.08398
435.1070, 31.78394
436.2990, 1.598877
437.4910, 33.01294
438.6830, 12.67627
439.8750, 53.37744
441.0660, 3.875977
442.2570, 42.83325
443.4480, 78.25684
444.6390, 48.94263
445.8300, 22.70898
447.0210, 22.29053
448.2110, 71.86841
449.4010, 39.44287
450.5910, 3.765137
451.7810, 8.811523
452.9710, 90.38330
454.1610, 8.109375
455.3500, 35.45532
456.5390, 43.19775
457.7280, 28.75562
458.9170, 38.02905
460.1060, 46.58008
461.2940, 9.871582
462.4830, 78.49316
463.6710, 37.06128
464.8590, 30.62256
466.0470, 63.32788
467.2350, 11.86572
468.4220, 41.31201
469.6090, 25.84204
470.7970, 59.40820
471.9840, 77.59937
473.1700, 11.88159
474.3570, 92.62280
475.5440, 27.12842
476.7300, 85.63037
477.9160, 85.11353
479.1020, 72.60889
480.2880, 19.04224
481.4740, 57.40796
482.6590, 41.09619
483.8440, 27.58691
485.0300, 34.46997
486.2140, 54.95264
487.3990, 20.43140
488.5840, 52.90601
489.7680, 113.4197
490.9530, 30.11914
492.1370, 44.58325
493.3210, 68.02148
494.5040, 25.39673
495.6880, 24.85791
496.8720, 39.07788
498.0550, 16.45728
499.2380, 23.20996
500.4210, 20.52344
501.6040, 20.64844
502.7860, 23.11694
503.9690, 30.55713
505.1510, 44.99707
506.3330, 34.43018
507.5150, 95.79858
508.6970, 80.21313
509.8780, 71.55176
511.0600, 99.97363
512.2410, 21.52246
513.4220, 87.93115
514.6030, 2.317383
515.7840, 106.3706
516.9640, 40.33057
518.1440, 18.82812
519.3250, 1.226807
520.5050, 42.39697
521.6850, 55.78638
522.8640, 51.14355
524.0440, 18.50903
525.2230, 17.13989
526.4020, 101.1174
527.5820, 22.35596
528.7600, 116.6829
529.9390, 20.02441
531.1180, 88.36133
532.2960, 47.14990
533.4740, 18.10693
534.6520, 39.20532
535.8300, 28.73218
537.0080, 17.03467
538.1850, 33.56396
539.3630, 56.07349
540.5400, 54.76270
541.7170, 96.53564
542.8940, 81.81494
544.0700, 74.01782
545.2470, 108.8469
546.4230, 49.18604
547.5990, 156.0916
548.7750, 68.45483
549.9510, 69.95605
551.1270, 17.21362
552.3020, 142.4663
553.4780, 78.71460
554.6530, 117.3171
555.8280, 119.5557
557.0030, 46.79004
558.1770, 9.019531
559.3520, 7.243164
560.5260, 59.51587
561.7000, 54.72949
562.8740, 30.93848
564.0480, 103.0989
565.2220, 119.2976
566.3950, 15.38818
567.5680, 26.55200
568.7420, 27.73560
569.9150, 93.89111
571.0870, 57.06592
572.2600, 18.23608
573.4320, 127.3943
574.6050, 48.55396
575.7770, 31.65381
576.9490, 78.79688
578.1210, 85.73486
579.2920, 37.87720
580.4640, 27.92847
581.6350, 16.50488
582.8060, 23.90161
583.9770, 10.94824
585.1480, 28.18994
586.3190, 8.322510
587.4890, 91.41138
588.6590, 117.4541
589.8290, 105.5713
590.9990, 4.317871
592.1690, 88.22876
593.3390, 65.19507
594.5080, 103.3457
595.6770, 115.8855
596.8470, 11.94897
598.0160, 104.0322
599.1840, 7.806885
600.3530, 100.3164
601.5210, 81.48340
602.6900, 72.08008
603.8580, 36.13232
605.0260, 53.97217
606.1930, 52.96558
607.3610, 146.2246
608.5280, 136.2358
609.6960, 77.26587
610.8630, 37.22510
612.0300, 4.248779
613.1970, 122.2676
614.3630, 134.6150
615.5300, 70.69922
616.6960, 78.75903
617.8620, 11.14331
619.0280, 69.84058
620.1940, 46.81885
621.3590, 89.69385
622.5250, 2.663086
623.6900, 117.6191
624.8550, 1.475830
626.0200, 70.47534
627.1850, 60.49170
628.3490, 89.38306
629.5140, 50.31543
630.6780, 5.242676
631.8420, 70.40698
633.0060, 75.32056
634.1700, 64.22876
635.3330, 142.1382
636.4970, 66.95728
637.6600, 93.09253
638.8230, 35.86719
639.9860, 130.7114
641.1490, 63.49072
642.3110, 56.49365
643.4740, 86.32788
644.6360, 63.12988
645.7980, 87.30493
646.9600, 87.33862
648.1220, 77.28760
649.2840, 81.12231
650.4450, 63.95337
651.6060, 32.77783
652.7670, 102.4980
653.9280, 76.38379
655.0890, 140.1611
656.2500, 3.035645
657.4100, 41.74023
658.5700, 73.56104
659.7300, 115.1667
660.8900, 75.08398
662.0500, 105.6025
663.2100, 63.76733
664.3690, 65.48877
665.5280, 70.10791
666.6880, 40.86157
667.8460, 80.75513
669.0050, 99.66064
670.1640, 66.29321
671.3220, 18.00635
672.4810, 1.300049
673.6390, 135.0527
674.7970, 12.67798
675.9540, 126.4749
677.1120, 9.992676
678.2690, 13.57056
679.4270, 52.44678
680.5840, 129.1936
681.7410, 110.8159
682.8980, 77.47339
684.0540, 131.0825
685.2110, 48.90845
686.3670, 70.77051
687.5230, 41.61743
688.6790, 11.07715
689.8350, 82.66992
690.9900, 126.3569
692.1460, 173.9363
693.3010, 88.55664
694.4560, 168.1133
695.6110, 112.7769
696.7660, 261.3110
697.9210, 95.81982
699.0750, 53.34082
700.2290, 116.8604
701.3840, 77.49316
702.5370, 160.9331
703.6910, 107.4478
704.8450, 155.9668
705.9980, 236.5234
707.1520, 407.0381
708.3050, 683.4761
709.4580, 825.3813
710.6110, 1397.867
711.7630, 2014.323
712.9160, 2444.796
714.0680, 1985.461
715.2200, 1418.656
716.3720, 782.6367
717.5240, 480.4180
718.6760, 319.8027
719.8270, 161.2534
720.9780, 168.5435
722.1300, 104.8599
723.2810, 134.5781
724.4310, 124.8950
725.5820, 69.20801
726.7330, 112.6777
727.8830, 82.20117
729.0330, 33.38477
730.1830, 42.00000
731.3330, 123.5420
732.4830, 8.045410
733.6320, 68.29199
734.7810, 110.9331
735.9310, 143.5234
737.0800, 48.11865
738.2290, 62.70166
739.3770, 54.99707
740.5260, 17.33643
741.6740, 93.61621
742.8220, 36.19385
743.9700, 128.1968
745.1180, 28.48242
746.2660, 56.70361
747.4130, 131.2817
748.5610, 98.48779
749.7080, 163.6318
750.8550, 116.5918
752.0020, 46.02441
753.1490, 64.22656
754.2950, 54.61572
755.4420, 58.77197
756.5880, 87.93359
757.7340, 87.67139
758.8800, 96.77002
760.0250, 101.7798
761.1710, 101.7393
762.3160, 80.12988
763.4620, 73.65527
764.6070, 65.17432
765.7520, 71.58740
766.8960, 96.67334
768.0410, 112.1909
769.1850, 11.75879
770.3300, 122.9102
771.4740, 109.0332
772.6180, 64.07227
773.7610, 134.2178
774.9050, 11.43555
776.0480, 104.6860
777.1920, 72.69629
778.3350, 142.8315
779.4780, 29.83936
780.6200, 8.185059
781.7630, 93.81250
782.9060, 7.746094
784.0480, 53.92822
785.1900, 35.84424
786.3320, 133.8599
787.4740, 119.0547
788.6150, 118.1279
789.7570, 124.8721
790.8980, 67.74268
792.0390, 49.60303
793.1800, 143.4541
794.3210, 109.9009
795.4620, 53.95898
796.6020, 136.7803
797.7420, 51.95898
798.8830, 57.14209
800.0230, 82.10889
801.1620, 43.20312
802.3020, 116.0205
803.4420, 19.82129
804.5810, 148.6924
805.7200, 38.68408
806.8590, 75.60889
807.9980, 88.33789
809.1370, 76.95703
810.2750, 133.2515
811.4140, 123.4824
812.5520, 30.64404
813.6900, 99.44385
814.8280, 120.8921
815.9650, 26.42383
817.1030, 56.44141
818.2400, 141.0889
819.3780, 74.86816
820.5150, 130.4932
821.6520, 32.13037
822.7880, 21.66064
823.9250, 24.25244
825.0610, 23.27295
826.1980, 81.09961
827.3340, 24.64355
828.4700, 81.57324
829.6050, 70.49658
830.7410, 210.2256
831.8760, 58.72754
833.0120, 125.2344
834.1470, 52.71533
835.2820, 46.31982
836.4160, 124.7124
837.5510, 62.87842
838.6860, 124.3169
839.8200, 87.96094
840.9540, 98.27588
842.0880, 47.92871
843.2220, 67.38672
844.3550, 71.99805
845.4890, 7.515137
846.6220, 122.1421
847.7550, 66.80371
848.8880, 119.3682
850.0210, 44.09082
851.1540, 99.40771
852.2860, 0.7368160
853.4190, 13.55029
854.5510, 106.7876
855.6830, 66.01416
856.8150, 107.1973
857.9460, 101.7539
859.0780, 66.13281
860.2090, 99.32129
861.3410, 75.50000
862.4720, 79.35400
863.6020, 64.94385
864.7330, 89.12598
865.8640, 36.61914
866.9940, 50.36426
868.1240, 79.47656
869.2540, 92.52393
870.3840, 18.56787
871.5140, 1.943359
872.6440, 26.23633
873.7730, 94.37598
874.9020, 126.0181
876.0320, 84.13477
877.1600, 96.85107
878.2890, 124.2417
879.4180, 54.73535
880.5460, 76.83203
881.6750, 98.59180
882.8030, 7.599609
883.9310, 122.7563
885.0590, 8.298828
886.1860, 142.8335
887.3140, 34.90771
888.4410, 88.90918
889.5680, 41.72656
890.6950, 103.4907
891.8220, 123.2812
892.9490, 69.31592
894.0750, 130.1890
895.2020, 2.081055
896.3280, 81.34326
897.4540, 33.41748
898.5800, 60.51367
899.7050, 82.58789
900.8310, 22.39209
901.9560, 113.3862
903.0820, 54.18750
904.2070, 92.03223
905.3320, 76.51367
906.4560, 81.28271
907.5810, 100.1953
908.7050, 71.86035
909.8300, 22.05371
910.9540, 70.51758
912.0780, 68.22998
913.2010, 62.88379
914.3250, 91.52051
915.4480, 90.02393
916.5720, 86.63623
917.6950, 107.3750
918.8180, 37.70215
919.9410, 182.3672
921.0630, 72.79199
922.1860, 0.6328130
923.3080, 144.4883
924.4300, 100.0801
925.5520, 109.6611
926.6740, 124.1567
927.7960, 136.5654
928.9170, 59.12646
930.0390, 21.66553
931.1600, 135.1172
932.2810, 12.63232
933.4020, 8.990234
934.5230, 58.35547
935.6430, 22.81055
936.7640, 90.08984
937.8840, 93.53955
939.0040, 169.6973
940.1240, 43.13672
941.2440, 56.37305
942.3630, 111.7500
943.4830, 16.15430
944.6020, 117.5215
945.7210, 126.9175
946.8400, 51.30225
947.9590, 74.45215
949.0770, 100.8130
950.1960, 82.16504
951.3140, 2.264648
952.4320, 101.4746
953.5500, 67.79199
954.6680, 149.0552
955.7860, 97.34961
956.9030, 201.4111
958.0210, 165.9141
959.1380, 112.4253
960.2550, 87.80078
961.3720, 119.0234
962.4890, 6.999512
963.6050, 6.197754
964.7220, 50.33594
965.8380, 168.5269
966.9540, 98.59229
968.0700, 119.7612
969.1860, 70.77881
970.3010, 140.7578
971.4170, 36.10645
972.5320, 133.8857
973.6470, 51.97510
974.7620, 54.95215
975.8770, 45.08008
976.9910, 88.91309
978.1060, 49.81689
979.2200, 69.80029
980.3340, 40.42822
981.4480, 29.96484
982.5620, 50.77051
983.6760, 10.51318
984.7890, 66.50684
985.9030, 69.63281
987.0160, 26.30957
988.1290, 148.9141
989.2420, 203.8184
990.3550, 42.12793
991.4670, 17.72949
992.5800, 57.67432
993.6920, 120.4751
994.8040, 138.3979
995.9160, 97.12402
997.0280, 87.85400
998.1390, 73.58740
999.2510, 151.6807
1000.362, 23.35791
1001.473, 149.2910
1002.584, 142.0083
1003.695, 228.0933
1004.805, 31.49512
1005.916, 47.99756
1007.026, 49.41260
1008.136, 21.81006
1009.246, 57.89014
1010.356, 65.61719
1011.466, 60.39404
1012.576, 30.10059
1013.685, 77.74414
1014.794, 105.2959
1015.903, 70.22168
1017.012, 55.90527
1018.121, 142.4971
1019.229, 54.24170
1020.338, 65.80859
1021.446, 44.11230
1022.554, 125.8740
1023.662, 146.2402
1024.770, 119.5571
1025.878, 72.06689
1026.985, 177.9331
1028.092, 101.6953
1029.200, 48.11133
1030.307, 52.57764
1031.413, 41.72607
1032.520, 38.35742
1033.627, 91.68359
1034.733, 58.97852
1035.839, 170.3574
1036.945, 100.9702
1038.051, 177.5405
1039.157, 170.8032
1040.262, 77.33252
1041.368, 169.6724
1042.473, 5.225098
1043.578, 149.7705
1044.683, 132.9600
1045.788, 155.5762
1046.893, 117.7085
1047.997, 182.2803
1049.101, 134.7979
1050.205, 96.17285
1051.309, 127.0459
1052.413, 78.27051
1053.517, 188.5312
1054.621, 63.63037
1055.724, 56.33887
1056.827, 269.5732
1057.930, 213.7676
1059.033, 139.1533
1060.136, 154.5630
1061.238, 114.7207
1062.341, 244.6772
1063.443, 103.6885
1064.545, 313.8472
1065.647, 264.6548
1066.749, 307.1914
1067.850, 356.7090
1068.952, 354.9883
1070.053, 365.3833
1071.154, 306.3901
1072.255, 281.4722
1073.356, 349.7871
1074.457, 411.6025
1075.557, 530.6826
1076.658, 549.3560
1077.758, 799.3174
1078.858, 876.3491
1079.958, 1457.434
1081.057, 2089.247
1082.157, 3785.445
1083.256, 7241.714
1084.356, 15326.19
1085.455, 30124.50
1086.554, 41514.23
1087.653, 33321.29
1088.751, 18071.36
1089.850, 7798.469
1090.948, 3584.289
1092.046, 1817.517
1093.144, 1156.264
1094.242, 861.2988
1095.340, 544.6816
1096.437, 517.5039
1097.534, 442.1680
1098.632, 374.0566
1099.729, 257.0723
1100.826, 254.8818
1101.922, 304.7891
1103.019, 207.4790
1104.115, 271.4380
1105.212, 203.1582
1106.308, 196.8950
1107.404, 172.6523
1108.499, 219.1724
1109.595, 239.3994
1110.691, 104.0625
1111.786, 218.5254
1112.881, 83.12451
1113.976, 196.3940
1115.071, 109.1484
1116.166, 42.55029
1117.260, 152.7915
1118.355, 61.25537
1119.449, 121.4570
1120.543, 168.2295
1121.637, 61.87256
1122.731, 155.7036
1123.824, 102.4404
1124.918, 103.8184
1126.011, 102.7866
1127.104, 180.2153
1128.197, 184.6484
1129.290, 109.0151
1130.382, 44.29395
1131.475, 25.93213
1132.567, 105.5225
1133.659, 115.8921
1134.751, 40.23047
1135.843, 213.5532
1136.935, 70.67725
1138.027, 162.8315
1139.118, 110.8188
1140.209, 123.4141
1141.300, 101.4751
1142.391, 100.0732
1143.482, 114.1133
1144.573, 89.49023
1145.663, 157.5708
1146.754, 57.13281
1147.844, 25.14893
1148.934, 218.0991
1150.024, 83.23975
1151.113, 137.1470
1152.203, 140.3428
1153.292, 73.18018
1154.381, 118.2505
1155.470, 67.20703
1156.559, 164.7920
1157.648, 18.66211
1158.737, 45.78467
1159.825, 125.7070
1160.913, 52.53955
1162.001, 276.6606
1163.089, 39.66113
1164.177, 276.2646
1165.265, 74.26709
1166.352, 203.4492
1167.440, 30.25977
1168.527, 81.42188
1169.614, 172.1987
1170.701, 74.96680
1171.788, 158.5029
1172.874, 57.28516
1173.961, 10.00488
1175.047, 155.0679
1176.133, 31.97510
1177.219, 228.6304
1178.305, 60.26953
1179.390, 69.62207
1180.476, 99.24609
1181.561, 2.331055
1182.646, 80.89160
1183.731, 5.551270
1184.816, 174.2397
1185.901, 263.6621
1186.985, 128.3110
1188.070, 134.7798
1189.154, 86.48145
1190.238, 77.96289
1191.322, 135.7148
1192.406, 140.3042
1193.489, 86.69287
1194.573, 131.7847
1195.656, 125.3032
1196.739, 143.6426
1197.822, 150.4097
1198.905, 267.8804
1199.988, 51.64893
1201.070, 197.2412
1202.153, 131.8140
1203.235, 17.16357
1204.317, 147.6123
1205.399, 124.0742
1206.481, 133.3706
1207.562, 19.45361
1208.644, 127.0054
1209.725, 61.44775
1210.806, 228.8862
1211.887, 78.41748
1212.968, 40.11182
1214.049, 167.6040
1215.129, 43.87256
1216.209, 160.0981
1217.290, 96.09131
1218.370, 90.31494
1219.450, 81.78809
1220.529, 164.8760
1221.609, 48.12354
1222.688, 211.4629
1223.768, 90.34375
1224.847, 249.6758
1225.926, 39.52197
1227.005, 118.7661
1228.083, 113.8062
1229.162, 76.86377
1230.240, 126.8501
1231.318, 68.66992
1232.396, 175.4448
1233.474, 157.1543
1234.552, 135.8887
1235.629, 78.05518
1236.707, 145.7202
1237.784, 116.8057
1238.861, 5.475098
1239.938, 81.34521
1241.015, 203.9258
1242.092, 68.97021
1243.168, 281.5596
1244.244, 57.06738
1245.321, 121.4858
1246.397, 156.0024
1247.473, 136.7427
1248.548, 199.4224
1249.624, 89.57812
1250.699, 117.2412
1251.775, 80.48584
1252.850, 17.59229
1253.925, 131.2178
1254.999, 30.46436
1256.074, 251.6714
1257.148, 147.5698
1258.223, 150.9819
1259.297, 182.1792
1260.371, 96.17480
1261.445, 278.6641
1262.519, 154.2363
1263.592, 187.3662
1264.666, 243.5771
1265.739, 18.28711
1266.812, 137.5693
1267.885, 15.35059
1268.958, 231.6133
1270.030, 168.7490
1271.103, 34.90039
1272.175, 159.8252
1273.247, 44.94531
1274.319, 245.7217
1275.391, 66.65039
1276.463, 197.4277
1277.535, 156.8701
1278.606, 156.0156
1279.677, 216.1074
1280.748, 99.50293
1281.819, 186.4795
1282.890, 210.2627
1283.961, 43.97070
1285.031, 191.9150
1286.102, 148.4580
1287.172, 120.0068
1288.242, 217.6943
1289.312, 83.32227
1290.381, 52.70117
1291.451, 72.00977
1292.520, 251.2334
1293.590, 27.56836
1294.659, 126.7549
1295.728, 207.2803
1296.797, 41.89355
1297.865, 182.3301
1298.934, 154.1006
1300.002, 18.34961
1301.070, 143.0293
1302.138, 44.20117
1303.206, 66.98242
1304.274, 100.2998
1305.341, 307.1426
1306.409, 267.4160
1307.476, 4.337891
1308.543, 150.2705
1309.610, 22.30664
1310.677, 227.8594
1311.744, 114.7920
1312.810, 89.91309
1313.877, 121.0518
1314.943, 56.17090
1316.009, 159.2139
1317.075, 98.70215
1318.140, 146.8486
1319.206, 77.61816
1320.272, 110.0371
1321.337, 197.0205
1322.402, 31.24219
1323.467, 118.3779
1324.532, 163.1992
1325.596, 53.32031
1326.661, 120.2383
1327.725, 45.25000
1328.790, 82.65918
1329.854, 82.98730
1330.918, 132.7246
1331.981, 104.0322
1333.045, 96.79395
1334.108, 133.2646
1335.172, 171.2227
1336.235, 81.06348
1337.298, 80.88672
1338.361, 77.16016
1339.423, 50.87109
1340.486, 19.17480
1341.548, 50.29688
1342.611, 99.95898
1343.673, 105.0576
1344.735, 193.1865
1345.796, 97.46777
1346.858, 34.88965
1347.919, 122.2734
1348.981, 79.84570
1350.042, 52.82129
1351.103, 173.2705
1352.164, 45.72852
1353.225, 274.1875
1354.285, 58.63867
1355.346, 102.7900
1356.406, 93.90430
1357.466, 105.8398
1358.526, 140.9561
1359.586, 146.8037
1360.645, 192.0107
1361.705, 150.1611
1362.764, 42.23535
1363.823, 217.4326
1364.882, 56.50977
1365.941, 154.1338
1367.000, 100.5156
1368.059, 66.67773
1369.117, 35.43066
1370.175, 110.1611
1371.233, 175.3672
1372.291, 152.8877
1373.349, 83.66211
1374.407, 84.55469
1375.464, 30.35840
1376.522, 3.000977
1377.579, 89.34863
1378.636, 22.47559
1379.693, 6.924805
1380.750, 66.07324
1381.806, 152.7168
1382.863, 194.9229
1383.919, 21.63770
1384.975, 120.2988
1386.031, 19.94434
1387.087, 127.8389
1388.143, 10.20215
1389.199, 43.80566
1390.254, 203.3701
1391.309, 54.92383
1392.364, 211.6523
1393.419, 210.1250
1394.474, 157.7900
1395.529, 167.3320
1396.583, 120.7852
1397.638, 90.21973
1398.692, 137.1172
1399.746, 99.64746
1400.800, 162.5469
1401.853, 189.8926
1402.907, 107.8350
1403.960, 152.1436
1405.014, 84.41797
1406.067, 43.67285
1407.120, 24.92578
1408.173, 109.9062
1409.225, 92.12402
1410.278, 150.3223
1411.330, 223.9941
1412.383, 0.1562500
1413.435, 72.58594
1414.487, 61.55469
1415.538, 177.6611
1416.590, 137.5166
1417.641, 30.88770
1418.693, 188.7510
1419.744, 20.73926
1420.795, 178.0498
1421.846, 185.9004
1422.897, 3.851563
1423.947, 249.3613
1424.998, 65.27148
1426.048, 51.15527
1427.098, 155.3057
1428.148, 107.1064
1429.198, 261.6689
1430.247, 143.1963
1431.297, 240.7744
1432.346, 342.9609
1433.396, 398.7402
1434.445, 750.7656
1435.494, 702.4854
1436.542, 625.6318
1437.591, 590.0342
1438.639, 444.5703
1439.688, 404.9971
1440.736, 204.6758
1441.784, 220.9316
1442.832, 15.41504
1443.880, 161.9590
1444.927, 191.6289
1445.975, 44.90039
1447.022, 164.9805
1448.069, 280.1934
1449.116, 6.729492
1450.163, 256.5986
1451.209, 7.470703
1452.256, 128.9961
1453.302, 100.9580
1454.348, 241.5879
1455.394, 228.4873
1456.440, 23.65430
1457.486, 118.7627
1458.532, 135.8906
1459.577, 0.6503910
1460.623, 66.93750
1461.668, 103.5977
1462.713, 83.72852
1463.758, 236.2354
1464.802, 121.0176
1465.847, 176.8135
1466.891, 190.5430
1467.936, 118.0439
1468.980, 161.6953
1470.024, 21.74219
1471.067, 208.8652
1472.111, 4.556641
1473.155, 97.03027
1474.198, 102.8232
1475.241, 280.0098
1476.284, 123.0312
1477.327, 58.32520
1478.370, 110.7090
1479.413, 18.63184
1480.455, 148.1123
1481.497, 151.9521
1482.540, 218.8125
1483.582, 148.8262
1484.624, 211.0361
1485.665, 128.2021
1486.707, 150.9092
1487.748, 248.6191
1488.790, 45.79004
1489.831, 183.0879
1490.872, 14.24219
1491.912, 203.1543
1492.953, 123.7383
1493.994, 111.2627
1495.034, 132.4785
1496.074, 77.81250
1497.114, 288.2852
1498.154, 196.7109
1499.194, 150.0293
1500.234, 166.5186
1501.273, 21.75293
1502.313, 148.6719
1503.352, 29.47949
1504.391, 17.32812
1505.430, 201.1094
1506.468, 190.5361
1507.507, 159.9629
1508.545, 259.3545
1509.584, 299.7031
1510.622, 113.0459
1511.660, 101.1240
1512.698, 203.5889
1513.735, 208.8555
1514.773, 292.7129
1515.810, 219.4238
1516.848, 88.34082
1517.885, 117.4268
1518.922, 73.35156
1519.958, 182.0527
1520.995, 174.2646
1522.032, 139.1348
1523.068, 334.1934
1524.104, 103.9707
1525.140, 173.5293
1526.176, 267.1807
1527.212, 284.7588
1528.248, 212.6445
1529.283, 332.7305
1530.318, 202.6406
1531.353, 197.5615
1532.389, 161.4111
1533.423, 247.3311
1534.458, 305.1475
1535.493, 353.1260
1536.527, 228.3340
1537.561, 58.19434
1538.596, 182.8711
1539.630, 230.6289
1540.663, 115.5029
1541.697, 285.9570
1542.731, 285.3779
1543.764, 288.7354
1544.797, 228.6582
1545.830, 194.4492
1546.863, 163.7314
1547.896, 283.2852
1548.929, 338.2031
1549.961, 215.4844
1550.994, 81.72559
1552.026, 258.3311
1553.058, 90.62891
1554.090, 118.9551
1555.121, 197.2617
1556.153, 60.50391
1557.185, 155.8506
1558.216, 285.3262
1559.247, 183.6758
1560.278, 279.7725
1561.309, 43.35547
1562.340, 195.6133
1563.370, 164.6992
1564.401, 119.0098
1565.431, 265.3721
1566.461, 254.1211
1567.491, 184.0908
1568.521, 136.3203
1569.551, 235.8184
1570.580, 306.8057
1571.610, 169.5605
1572.639, 52.66699
1573.668, 210.3086
1574.697, 196.2461
1575.726, 34.10645
1576.754, 0.3496090
1577.783, 0.0000000E+00
##END=



