##NAMES=Cassiterite
##RRUFFID=R040017
##IDEAL CHEMISTRY=SnO_2_
##LOCALITY=Bolivia
##OWNER=RRUFF
##SOURCE=University of Arizona Mineral Museum
##DESCRIPTION=Dark brown short prismatic single crystals
##STATUS=The identification of this mineral has been confirmed by X-ray diffraction and chemical analysis
##URL=rruff.info/R040017
##MEASURED CHEMISTRY=Sn_1.00_O_2_; trace amounts of Fe
##PIN_ID=L00125
##ORIENTATION=Laser parallel to -a* (-1 0 0). Fiducial mark perpendicular to laser is parallel to c [0 0 1]
130.329, 0.000
131.719, 98.650
133.110, 43.464
134.500, 8.955
135.890, 10.216
137.280, 37.744
138.669, 7.758
140.059, 51.664
141.448, 195.735
142.837, 108.400
144.225, 173.317
145.614, 164.176
147.002, 72.772
148.390, 287.011
149.778, 289.913
151.166, 235.044
152.553, 381.034
153.940, 337.690
155.327, 477.997
156.714, 487.984
158.100, 607.626
159.486, 646.134
160.872, 710.689
162.258, 787.729
163.644, 787.052
165.029, 988.979
166.414, 929.764
167.799, 1080.941
169.184, 1095.572
170.568, 1183.596
171.952, 1305.965
173.336, 1309.703
174.720, 1557.081
176.104, 1576.373
177.487, 1654.913
178.870, 1719.039
180.253, 1822.759
181.636, 2013.979
183.018, 2019.647
184.400, 2183.502
185.782, 2206.510
187.164, 2495.188
188.546, 2632.704
189.927, 2598.112
191.308, 2879.595
192.689, 2804.449
194.070, 3090.791
195.450, 3135.210
196.830, 3318.635
198.210, 3512.556
199.590, 3515.201
200.970, 3754.304
202.349, 3977.137
203.728, 4067.111
205.107, 4142.688
206.486, 4217.381
207.864, 4511.222
209.243, 4544.233
210.621, 4796.451
211.998, 4807.903
213.376, 5038.724
214.753, 5089.232
216.130, 5270.926
217.507, 5605.440
218.884, 5622.099
220.261, 5940.032
221.637, 5780.826
223.013, 5993.791
224.389, 6091.563
225.764, 5992.125
227.140, 6130.477
228.515, 6069.129
229.890, 6152.961
231.264, 6049.306
232.639, 5989.352
234.013, 6108.711
235.387, 5776.153
236.761, 5860.029
238.135, 5674.125
239.508, 5717.534
240.881, 5523.117
242.254, 5299.012
243.627, 5151.431
244.999, 4838.962
246.372, 4696.815
247.744, 4385.887
249.116, 4166.199
250.487, 4006.611
251.859, 3573.375
253.230, 3372.248
254.601, 3046.459
255.972, 2771.262
257.342, 2385.825
258.712, 2128.459
260.083, 1815.987
261.452, 1450.484
262.822, 1225.815
264.192, 953.294
265.561, 724.414
266.930, 472.641
268.299, 250.067
269.667, 75.240
271.036, 100.424
272.404, 16.381
273.772, 85.720
275.139, 493.529
276.507, 1065.170
277.874, 1820.645
279.241, 2845.953
280.608, 3395.097
281.974, 3857.045
283.341, 4040.698
284.707, 3765.009
286.073, 3658.134
287.439, 3051.115
288.804, 2667.952
290.170, 2268.649
291.535, 1879.206
292.899, 1506.628
294.264, 1310.917
295.629, 1187.247
296.993, 919.432
298.357, 895.413
299.720, 740.566
301.084, 727.645
302.447, 583.730
303.811, 492.720
305.173, 444.743
306.536, 310.707
307.899, 300.595
309.261, 268.395
310.623, 192.097
311.985, 157.689
313.346, 114.956
314.708, 91.504
316.069, 34.709
317.430, 13.768
318.790, 35.328
320.151, 88.406
321.511, 4.013
322.871, 26.398
324.231, 1.356
325.591, 7.713
326.950, 44.395
328.310, 7.698
329.669, 24.812
331.027, 8.870
332.386, 47.755
333.744, 15.150
335.102, 54.137
336.460, 21.368
337.818, 21.688
339.175, 44.176
340.533, 24.240
341.890, 43.498
343.247, 27.948
344.603, 24.401
345.960, 13.557
347.316, 23.485
348.672, 27.736
350.028, 15.198
351.383, 93.871
352.738, 70.780
354.094, 116.922
355.448, 132.314
356.803, 51.962
358.158, 157.843
359.512, 116.981
360.866, 144.361
362.220, 159.992
363.573, 107.914
364.927, 181.271
366.280, 186.015
367.633, 224.002
368.986, 186.224
370.338, 177.669
371.690, 185.329
373.043, 107.202
374.394, 120.265
375.746, 117.518
377.098, 80.956
378.449, 22.570
379.800, 28.652
381.151, 11.709
382.501, 119.591
383.852, 119.297
385.202, 101.816
386.552, 218.139
387.901, 268.243
389.251, 274.121
390.600, 184.781
391.949, 274.216
393.298, 292.408
394.647, 314.391
395.995, 359.148
397.344, 319.684
398.692, 366.006
400.039, 359.131
401.387, 445.059
402.734, 425.791
404.082, 481.318
405.429, 546.598
406.775, 557.605
408.122, 602.360
409.468, 617.850
410.814, 646.079
412.160, 786.016
413.506, 776.656
414.851, 813.023
416.197, 830.170
417.542, 826.114
418.886, 870.926
420.231, 826.626
421.575, 873.225
422.920, 983.735
424.264, 935.156
425.607, 1060.493
426.951, 1042.751
428.294, 1150.309
429.637, 1265.746
430.980, 1276.692
432.323, 1376.964
433.666, 1333.474
435.008, 1530.304
436.350, 1528.904
437.692, 1557.123
439.033, 1652.820
440.375, 1620.468
441.716, 1648.068
443.057, 1556.620
444.398, 1682.125
445.738, 1631.585
447.079, 1705.001
448.419, 1714.375
449.759, 1764.705
451.099, 1842.007
452.438, 1927.288
453.777, 2009.549
455.116, 2028.809
456.455, 2180.045
457.794, 2216.217
459.132, 2255.321
460.471, 2370.347
461.809, 2418.937
463.147, 2500.387
464.484, 2596.150
465.822, 2682.447
467.159, 2789.461
468.496, 2984.838
469.832, 3100.096
471.169, 3438.018
472.505, 3749.236
473.842, 4100.106
475.177, 4293.438
476.513, 4229.433
477.849, 4113.350
479.184, 3920.427
480.519, 4002.424
481.854, 3745.132
483.189, 3913.985
484.523, 4019.365
485.857, 4064.278
487.191, 4223.720
488.525, 4354.844
489.859, 4463.236
491.192, 4460.328
492.525, 4574.554
493.858, 4674.313
495.191, 4788.908
496.524, 5018.191
497.856, 5099.968
499.188, 5071.711
500.520, 5137.505
501.852, 4851.502
503.183, 4962.590
504.514, 4759.262
505.846, 4784.818
507.176, 4674.959
508.507, 4567.786
509.838, 4571.311
511.168, 4392.586
512.498, 4421.893
513.828, 4240.619
515.157, 4153.422
516.487, 4029.237
517.816, 3800.076
519.145, 3766.253
520.474, 3511.985
521.802, 3404.989
523.131, 3353.011
524.459, 3192.303
525.787, 3121.997
527.114, 3069.407
528.442, 3055.450
529.769, 3060.885
531.096, 3060.301
532.423, 3149.427
533.750, 3121.907
535.076, 3152.601
536.403, 3220.506
537.729, 3497.744
539.055, 3588.690
540.380, 3558.712
541.706, 3801.457
543.031, 3701.497
544.356, 3548.526
545.681, 3560.400
547.005, 3362.240
548.330, 3333.400
549.654, 3110.570
550.978, 2982.119
552.302, 3130.264
553.625, 2968.475
554.949, 2959.769
556.272, 2919.243
557.595, 2816.546
558.917, 2712.037
560.240, 2644.496
561.562, 2745.312
562.884, 2508.047
564.206, 2487.014
565.528, 2501.257
566.849, 2368.548
568.171, 2346.033
569.492, 2281.589
570.813, 2308.273
572.133, 2248.553
573.454, 2132.808
574.774, 2214.167
576.094, 2011.525
577.414, 2048.880
578.733, 2032.235
580.053, 1970.589
581.372, 1976.945
582.691, 1928.300
584.010, 1987.656
585.328, 1939.013
586.647, 1918.372
587.965, 1997.736
589.283, 1947.109
590.601, 2019.498
591.918, 2073.914
593.235, 2067.399
594.553, 2174.931
595.869, 2242.490
597.186, 2293.059
598.503, 2379.631
599.819, 2537.209
601.135, 2672.791
602.451, 2719.378
603.767, 2933.969
605.082, 3104.566
606.397, 3271.168
607.713, 3580.776
609.027, 3664.711
610.342, 4027.720
611.657, 4288.056
612.971, 4562.833
614.285, 5081.324
615.599, 5360.349
616.912, 6169.768
618.226, 6898.295
619.539, 7529.496
620.852, 9221.832
622.165, 10163.608
623.477, 12375.801
624.790, 14698.958
626.102, 18732.754
627.414, 23648.287
628.726, 29614.281
630.037, 38451.465
631.349, 45979.160
632.660, 53315.340
633.971, 57896.625
635.281, 54932.188
636.592, 50639.551
637.902, 42047.516
639.212, 33822.574
640.522, 27475.717
641.832, 21667.078
643.142, 17704.227
644.451, 14371.420
645.760, 12016.219
647.069, 10522.998
648.378, 8817.303
649.686, 7931.611
650.994, 6929.838
652.303, 6298.458
653.610, 5727.347
654.918, 5177.480
656.226, 4925.187
657.533, 4406.583
658.840, 4219.219
660.147, 3913.903
661.453, 3563.640
662.760, 3501.257
664.066, 3227.904
665.372, 3203.585
666.678, 3043.643
667.984, 2938.481
669.289, 3011.368
670.594, 2761.237
671.899, 2824.163
673.204, 2766.156
674.509, 2698.220
675.813, 2646.336
677.117, 2622.611
678.421, 2553.873
679.725, 2616.461
681.029, 2563.920
682.332, 2667.401
683.635, 2664.967
684.938, 2812.619
686.241, 2902.367
687.544, 2877.201
688.846, 3183.118
690.148, 3066.119
691.450, 3258.185
692.752, 3374.318
694.054, 3558.518
695.355, 3659.774
696.656, 3585.072
697.957, 3355.400
699.258, 3256.760
700.559, 2821.145
701.859, 2554.555
703.159, 2167.991
704.459, 1859.449
705.759, 1678.927
707.058, 1451.425
708.358, 1363.946
709.657, 1344.486
710.956, 1397.047
712.254, 1331.626
713.553, 1291.224
714.851, 1394.840
716.149, 1364.474
717.447, 1413.127
718.745, 1387.796
720.043, 1312.482
721.340, 1343.184
722.637, 1299.899
723.934, 1280.629
725.231, 1146.373
726.527, 1084.129
727.823, 1157.897
729.120, 1002.675
730.415, 1032.463
731.711, 980.260
733.007, 983.065
734.302, 882.880
735.597, 860.704
736.892, 896.536
738.187, 833.376
739.481, 846.226
740.775, 772.084
742.070, 748.950
743.363, 670.824
744.657, 679.708
745.951, 648.598
747.244, 609.497
748.537, 580.403
749.830, 529.317
751.123, 510.238
752.415, 450.166
753.707, 421.100
754.999, 371.042
756.291, 334.990
757.583, 250.944
758.874, 246.905
760.166, 212.872
761.457, 146.845
762.748, 54.825
764.038, 52.189
765.329, 89.222
766.619, 93.292
767.909, 133.401
769.199, 75.570
770.489, 100.772
771.778, 89.019
773.067, 35.305
774.357, 27.608
775.645, 47.923
776.934, 36.260
778.223, 42.615
779.511, 58.991
780.799, 68.650
782.087, 96.838
783.374, 103.329
784.662, 120.874
785.949, 127.482
787.236, 102.159
788.523, 181.891
789.810, 88.722
791.096, 116.602
792.383, 124.548
793.669, 75.563
794.955, 41.624
796.240, 7.714
797.526, 105.817
798.811, 104.983
800.096, 64.213
801.381, 95.484
802.666, 52.816
803.950, 51.615
805.234, 114.593
806.518, 37.071
807.802, 74.581
809.086, 77.143
810.370, 34.757
811.653, 7.596
812.936, 33.937
814.219, 33.274
815.502, 31.609
816.784, 107.938
818.066, 84.267
819.348, 84.594
820.630, 26.919
821.912, 50.238
823.194, 48.553
824.475, 81.865
825.756, 88.174
827.037, 74.481
828.318, 86.783
829.598, 72.083
830.878, 49.378
832.158, 69.668
833.438, 36.953
834.718, 59.229
835.998, 156.500
837.277, 106.765
838.556, 228.023
839.835, 157.276
841.114, 260.521
842.392, 250.760
843.671, 295.990
844.949, 434.212
846.227, 436.426
847.504, 517.632
848.782, 573.828
850.059, 586.015
851.337, 709.193
852.613, 614.360
853.890, 670.519
855.167, 704.667
856.443, 590.805
857.719, 754.933
858.995, 704.050
860.271, 679.157
861.547, 793.253
862.822, 787.339
864.097, 766.415
865.372, 751.479
866.647, 650.532
867.922, 742.574
869.196, 650.611
870.470, 617.635
871.744, 658.654
873.018, 623.661
874.292, 601.656
875.565, 610.640
876.838, 528.612
878.111, 578.573
879.384, 482.524
880.657, 416.462
881.929, 443.398
883.201, 397.323
884.473, 401.237
885.745, 307.148
887.017, 308.049
888.288, 309.938
889.559, 271.834
890.831, 331.717
892.101, 288.588
893.372, 274.448
894.643, 269.296
895.913, 186.146
897.183, 249.985
898.453, 182.812
899.722, 243.632
900.992, 218.442
902.261, 208.250
903.530, 227.054
904.799, 227.848
906.068, 224.566
907.336, 252.425
908.605, 222.215
909.873, 228.997
911.141, 236.770
912.408, 216.538
913.676, 292.299
914.943, 226.050
916.211, 236.791
917.477, 276.198
918.744, 188.528
920.011, 229.525
921.277, 207.074
922.543, 232.906
923.809, 237.243
925.075, 219.086
926.341, 248.862
927.606, 241.960
928.871, 246.918
930.136, 254.437
931.401, 260.538
932.666, 266.676
933.930, 316.179
935.194, 211.951
936.458, 301.272
937.722, 210.410
938.986, 264.053
940.249, 286.206
941.512, 276.280
942.776, 262.100
944.038, 287.129
945.301, 286.592
946.564, 299.001
947.826, 265.342
949.088, 355.500
950.350, 315.889
951.611, 324.271
952.873, 404.077
954.134, 321.946
955.395, 416.324
956.656, 370.728
957.917, 347.247
959.178, 473.419
960.438, 377.354
961.698, 456.091
962.958, 510.284
964.218, 504.818
965.477, 535.156
966.737, 590.489
967.996, 590.796
969.255, 616.265
970.514, 613.734
971.772, 679.202
973.031, 744.334
974.289, 678.731
975.547, 765.119
976.805, 628.585
978.062, 620.052
979.320, 644.518
980.577, 588.984
981.834, 538.451
983.091, 473.837
984.348, 488.303
985.604, 442.519
986.861, 353.945
988.117, 397.412
989.373, 344.880
990.628, 276.348
991.884, 324.817
993.139, 262.287
994.394, 249.757
995.649, 290.228
996.904, 231.699
998.158, 244.171
999.413, 218.645
1000.667, 256.118
1001.921, 251.593
1003.175, 256.069
1004.428, 323.546
1005.682, 277.024
1006.935, 224.503
1008.188, 283.984
1009.441, 214.465
1010.693, 282.948
1011.946, 272.432
1013.198, 240.918
1014.450, 312.405
1015.702, 288.893
1016.954, 282.383
1018.205, 308.875
1019.457, 255.396
1020.708, 284.891
1021.959, 352.377
1023.209, 237.875
1024.460, 389.374
1025.710, 278.918
1026.960, 308.421
1028.210, 333.927
1029.460, 270.706
1030.710, 345.216
1031.959, 319.800
1033.208, 292.461
1034.457, 348.990
1035.706, 287.957
1036.955, 344.722
1038.203, 333.249
1039.451, 285.007
1040.699, 360.540
1041.947, 270.236
1043.195, 256.775
1044.442, 376.531
1045.690, 256.274
1046.937, 339.995
1048.184, 228.706
1049.430, 198.529
1050.677, 292.421
1051.923, 181.611
1053.169, 153.922
1054.415, 156.028
1055.661, 102.496
1056.907, 162.051
1058.152, 84.586
1059.397, 86.889
1060.642, 121.466
1061.887, 24.648
1063.132, 96.533
1064.376, 90.637
1065.620, 58.922
1066.864, 63.555
1068.108, 24.031
1069.352, 42.864
1070.595, 94.544
1071.839, 41.567
1073.082, 73.304
1074.325, 27.068
1075.567, 37.978
1076.810, 141.875
1078.052, 64.684
1079.294, 26.531
1080.536, 98.366
1081.778, 54.216
1083.020, 14.083
1084.261, 10.970
1085.502, 1.885
1086.743, 109.830
1087.984, 11.808
1089.225, 113.823
1090.465, 57.867
1091.706, 41.962
1092.946, 108.084
1094.186, 38.241
1095.425, 58.434
1096.665, 88.652
1097.904, 57.885
1099.143, 82.127
1100.382, 70.403
1101.621, 92.711
1102.859, 160.043
1104.098, 121.406
1105.336, 62.789
1106.574, 216.194
1107.812, 94.634
1109.049, 155.095
1110.287, 121.583
1111.524, 142.099
1112.761, 175.649
1113.998, 113.207
1115.235, 147.776
1116.471, 192.357
1117.707, 121.942
1118.944, 181.540
1120.180, 189.141
1121.415, 167.749
1122.651, 239.379
1123.886, 160.016
1125.121, 255.667
1126.356, 237.332
1127.591, 236.005
1128.826, 268.692
1130.060, 253.394
1131.294, 239.097
1132.528, 293.819
1133.762, 263.549
1134.996, 258.285
1136.229, 277.027
1137.463, 249.772
1138.696, 278.522
1139.929, 254.548
1141.162, 229.030
1142.394, 218.792
1143.626, 193.556
1144.859, 176.321
1146.091, 189.089
1147.322, 167.859
1148.554, 171.631
1149.785, 132.408
1151.017, 154.184
1152.248, 169.961
1153.479, 113.739
1154.709, 68.513
1155.940, 129.291
1157.170, 62.067
1158.400, 67.626
1159.630, 72.615
1160.860, 48.388
1162.089, 22.157
1163.319, 27.925
1164.548, 59.690
1165.777, 53.452
1167.006, 23.787
1168.234, 42.961
1169.463, 22.293
1170.691, 28.439
1171.919, 21.169
1173.147, 4.895
1174.375, 38.641
1175.602, 20.518
1176.830, 5.767
1178.057, 28.200
1179.284, 38.008
1180.511, 1.024
1181.737, 23.025
1182.963, 43.147
1184.190, 3.114
1185.416, 32.790
1186.642, 70.341
1187.867, 50.481
1189.093, 0.573
1190.318, 41.278
1191.543, 0.604
1192.768, 51.692
1193.993, 1.301
1195.217, 3.410
1196.442, 18.673
1197.666, 1.692
1198.890, 40.373
1200.114, 25.681
1201.337, 4.365
1202.561, 27.427
1203.784, 28.335
1205.007, 59.087
1206.230, 6.001
1207.452, 10.306
1208.675, 20.218
1209.897, 14.810
1211.119, 1.087
1212.341, 3.735
1213.563, 58.866
1214.785, 6.002
1216.006, 23.681
1217.227, 145.279
1218.448, 4.865
1219.669, 109.230
1220.890, 92.636
1222.110, 43.080
1223.330, 50.140
1224.551, 142.405
1225.771, 70.479
1226.990, 138.486
1228.210, 122.463
1229.429, 162.576
1230.648, 138.520
1231.867, 140.379
1233.086, 160.352
1234.305, 125.245
1235.523, 136.120
1236.741, 131.978
1237.960, 171.818
1239.177, 127.653
1240.395, 166.482
1241.613, 91.306
1242.830, 154.123
1244.047, 117.934
1245.264, 112.822
1246.481, 192.846
1247.697, 173.637
1248.914, 162.727
1250.130, 232.503
1251.346, 118.499
1252.562, 186.572
1253.778, 201.323
1254.993, 128.951
1256.209, 188.041
1257.424, 200.160
1258.639, 211.924
1259.853, 248.149
1261.068, 210.073
1262.282, 239.240
1263.497, 217.458
1264.711, 178.061
1265.924, 246.803
1267.138, 242.698
1268.352, 243.132
1269.565, 228.291
1270.778, 221.176
1271.991, 199.136
1273.204, 235.518
1274.416, 194.635
1275.629, 197.518
1276.841, 252.672
1278.053, 222.600
1279.265, 274.997
1280.476, 230.447
1281.688, 235.711
1282.899, 257.990
1284.110, 215.579
1285.321, 265.041
1286.532, 264.331
1287.743, 261.380
1288.953, 263.664
1290.163, 220.498
1291.373, 303.692
1292.583, 314.056
1293.793, 250.009
1295.002, 289.678
1296.211, 258.239
1297.421, 206.151
1298.629, 285.683
1299.838, 245.895
1301.047, 244.025
1302.255, 295.457
1303.463, 255.561
1304.671, 251.165
1305.879, 233.333
1307.087, 186.334
1308.294, 263.523
1309.502, 209.551
1310.709, 249.566
1311.916, 236.788
1313.122, 201.689
1314.329, 193.712
1315.535, 212.619
1316.741, 196.498
1317.948, 218.357
1319.153, 186.147
1320.359, 154.958
1321.564, 210.706
1322.770, 132.116
1323.975, 173.740
1325.180, 121.248
1326.385, 104.590
1327.589, 156.969
1328.794, 99.827
1329.998, 128.814
1331.202, 135.938
1332.406, 133.769
1333.609, 77.770
1334.813, 158.569
1336.016, 73.441
1337.219, 105.043
1338.422, 80.760
1339.625, 66.273
1340.827, 88.743
1342.030, 77.045
1343.232, 47.229
1344.434, 124.077
1345.636, 40.740
1346.838, 68.559
1348.039, 50.971
1349.240, 5.230
1350.442, 41.452
1351.643, 78.885
1352.843, 38.948
1354.044, 134.346
1355.244, 63.983
1356.445, 20.344
1357.645, 73.472
1358.845, 28.199
1360.044, 59.045
1361.244, 67.498
1362.443, 67.076
1363.642, 108.293
1364.841, 94.766
1366.040, 82.186
1367.239, 169.389
1368.437, 116.566
1369.635, 157.788
1370.833, 169.939
1372.031, 178.063
1373.229, 136.140
1374.427, 186.168
1375.624, 203.159
1376.821, 194.117
1378.018, 256.050
1379.215, 199.971
1380.412, 248.903
1381.608, 193.897
1382.804, 240.821
1384.000, 278.726
1385.196, 194.612
1386.392, 225.478
1387.588, 240.322
1388.783, 155.145
1389.978, 121.944
1391.173, 180.713
1392.368, 104.439
1393.563, 189.109
1394.757, 124.721
1395.952, 105.275
1397.146, 230.766
1398.340, 38.178
1399.534, 96.507
1400.727, 87.749
1401.921, 31.082
1403.114, 72.013
1404.307, 1.951
1405.500, 5.967
1406.692, 69.963
1407.885, 13.160
1409.077, 28.667
1410.270, 21.439
1411.462, 42.837
1412.653, 11.845
1413.845, 18.520
1415.036, 19.925
1416.228, 5.632
1417.419, 22.849
1418.610, 19.367
1419.801, 63.089
1420.991, 36.478
1422.182, 3.887
1423.372, 37.025
1424.562, 5.857
1425.752, 46.191
1426.941, 26.678
1428.131, 32.192
1429.320, 41.358
1430.509, 8.568
1431.698, 39.532
1432.887, 79.182
1434.076, 42.266
1435.264, 30.640
1436.452, 57.822
1437.641, 14.655
1438.828, 96.836
1440.016, 53.951
1441.204, 92.520
1442.391, 162.163
1443.578, 33.758
1444.765, 99.960
1445.952, 174.533
1447.139, 73.302
1448.325, 152.635
1449.512, 195.741
1450.698, 141.175
1451.884, 176.655
1453.070, 177.183
1454.255, 124.685
1455.441, 259.135
1456.626, 166.355
1457.811, 214.207
1458.996, 246.811
1460.181, 213.812
1461.365, 227.927
1462.549, 293.221
1463.734, 212.350
1464.918, 261.641
1466.102, 249.421
1467.285, 207.627
1468.469, 281.206
1469.652, 193.187
1470.835, 198.753
1472.018, 263.394
1473.201, 131.789
1474.383, 152.395
1475.566, 169.737
1476.748, 96.736
1477.930, 123.204
1479.112, 179.949
1480.294, 49.018
1481.475, 191.541
1482.657, 104.881
1483.838, 99.772
1485.019, 137.754
1486.200, 65.079
1487.381, 68.783
1488.561, 154.248
1489.741, 54.376
1490.922, 109.504
1492.101, 191.409
1493.281, 21.356
1494.461, 95.724
1495.640, 113.669
1496.820, 40.993
1497.999, 202.861
1499.178, 105.368
1500.356, 72.839
1501.535, 121.601
1502.713, 87.424
1503.892, 102.428
1505.070, 148.315
1506.247, 97.263
1507.425, 158.189
1508.603, 128.488
1509.780, 97.208
1510.957, 202.183
1512.134, 68.280
1513.311, 45.506
1514.488, 171.846
1515.664, 114.264
1516.840, 73.661
1518.017, 105.037
1519.192, 8.017
1520.368, 82.865
1521.544, 77.315
1522.719, 0.000
##END=



