##NAMES=Cassiterite
##RRUFFID=R040017
##IDEAL CHEMISTRY=SnO_2_
##LOCALITY=Bolivia
##OWNER=RRUFF
##SOURCE=University of Arizona Mineral Museum
##DESCRIPTION=Dark brown short prismatic single crystals
##STATUS=The identification of this mineral has been confirmed by X-ray diffraction and chemical analysis
##URL=rruff.info/R040017
##MEASURED CHEMISTRY=Sn_1.00_O_2_; trace amounts of Fe
##PIN_ID=M00048
##ORIENTATION=Laser parallel to -c* (0 0 -1). Fiducial mark perpendicular to laser is parallel to a [1 0 0]
92.678, 0.000
94.071, 65.743
95.465, 54.198
96.858, 99.167
98.251, 8.044
99.644, 126.639
101.036, 133.412
102.428, 111.710
103.820, 131.037
105.212, 261.394
106.604, 342.816
107.995, 365.367
109.387, 388.557
110.777, 496.810
112.168, 524.890
113.559, 697.985
114.949, 741.455
116.339, 846.115
117.729, 1039.176
119.119, 988.084
120.508, 1384.988
121.897, 1493.359
123.286, 1582.015
124.675, 1738.767
126.063, 1433.177
127.452, 1115.389
128.840, 860.174
130.228, 842.003
131.615, 673.824
133.003, 756.697
134.390, 791.025
135.777, 703.972
137.164, 777.755
138.550, 854.726
139.937, 986.881
141.323, 872.922
142.709, 894.223
144.094, 831.441
145.480, 819.498
146.865, 971.287
148.250, 971.130
149.635, 1107.945
151.019, 1071.047
152.403, 1098.891
153.788, 1072.410
155.171, 1075.470
156.555, 1054.563
157.939, 968.819
159.322, 1030.394
160.705, 1023.864
162.088, 1056.186
163.470, 958.072
164.853, 957.531
166.235, 1004.607
167.617, 1034.624
168.998, 942.949
170.380, 940.965
171.761, 874.904
173.142, 755.979
174.523, 703.545
175.904, 611.934
177.284, 520.512
178.664, 457.580
180.044, 365.078
181.424, 359.544
182.803, 200.873
184.183, 269.676
185.562, 79.478
186.940, 151.054
188.319, 151.579
189.698, 103.908
191.076, 107.093
192.454, 149.961
193.831, 54.617
195.209, 113.297
196.586, 62.252
197.963, 60.436
199.340, 67.036
200.717, 20.400
202.093, 58.630
203.470, 8.124
204.846, 2.666
206.221, 83.437
207.597, 47.184
208.972, 62.556
210.347, 35.672
211.722, 18.825
213.097, 20.924
214.472, 1.517
215.846, 76.515
217.220, 80.570
218.594, 24.244
219.967, 169.762
221.341, 168.625
222.714, 117.665
224.087, 35.760
225.460, 88.667
226.832, 83.670
228.204, 12.600
229.577, 27.980
230.948, 14.028
232.320, 48.874
233.692, 33.654
235.063, 60.577
236.434, 13.827
237.805, 21.979
239.175, 49.463
240.545, 119.511
241.916, 100.591
243.286, 124.868
244.655, 75.435
246.025, 106.081
247.394, 174.092
248.763, 143.844
250.132, 149.564
251.501, 175.460
252.869, 190.154
254.237, 243.702
255.605, 233.113
256.973, 295.406
258.340, 249.480
259.708, 273.829
261.075, 295.429
262.442, 334.885
263.808, 284.333
265.175, 376.062
266.541, 433.124
267.907, 457.265
269.273, 351.188
270.639, 412.600
272.004, 406.456
273.369, 397.212
274.734, 481.222
276.099, 392.412
277.463, 474.255
278.828, 487.487
280.192, 531.620
281.556, 507.753
282.919, 504.432
284.283, 568.408
285.646, 594.564
287.009, 561.469
288.372, 605.422
289.734, 510.698
291.097, 536.991
292.459, 615.315
293.821, 583.841
295.183, 566.236
296.544, 604.107
297.905, 623.631
299.266, 626.800
300.627, 535.609
301.988, 650.043
303.348, 557.087
304.709, 612.704
306.069, 597.926
307.428, 683.771
308.788, 547.232
310.147, 548.312
311.507, 570.981
312.865, 564.277
314.224, 509.121
315.583, 568.508
316.941, 602.526
318.299, 527.190
319.657, 494.382
321.015, 520.444
322.372, 531.887
323.729, 529.573
325.086, 472.744
326.443, 485.706
327.800, 476.425
329.156, 484.530
330.512, 464.498
331.868, 473.397
333.224, 419.720
334.579, 422.872
335.935, 457.597
337.290, 380.693
338.645, 362.454
339.999, 397.728
341.354, 390.518
342.708, 361.897
344.062, 382.426
345.416, 316.831
346.769, 318.579
348.123, 227.076
349.476, 308.520
350.829, 290.369
352.182, 258.173
353.534, 232.054
354.887, 207.608
356.239, 217.582
357.591, 171.083
358.942, 129.981
360.294, 141.634
361.645, 105.197
362.996, 76.304
364.347, 2.645
365.698, 10.953
367.048, 22.544
368.398, 97.480
369.748, 48.873
371.098, 77.030
372.448, 41.195
373.797, 116.705
375.146, 104.027
376.495, 61.701
377.844, 79.188
379.192, 70.757
380.540, 0.720
381.889, 55.520
383.236, 25.256
384.584, 105.982
385.932, 164.027
387.279, 70.188
388.626, 106.708
389.973, 21.118
391.319, 22.823
392.666, 12.333
394.012, 17.131
395.358, 6.460
396.704, 12.582
398.049, 5.169
399.394, 3.111
400.740, 86.999
402.084, 69.162
403.429, 113.229
404.774, 200.983
406.118, 216.201
407.462, 278.449
408.806, 396.390
410.150, 598.255
411.493, 655.792
412.836, 810.438
414.179, 888.601
415.522, 989.681
416.865, 1046.585
418.207, 1088.243
419.549, 925.545
420.891, 986.787
422.233, 993.451
423.575, 932.575
424.916, 935.358
426.257, 1052.792
427.598, 1128.911
428.939, 1265.775
430.279, 1367.648
431.619, 1510.987
432.959, 1729.492
434.299, 1833.885
435.639, 2061.153
436.978, 2274.690
438.318, 2412.774
439.657, 2559.121
440.996, 2864.447
442.334, 3157.884
443.673, 3317.147
445.011, 3653.327
446.349, 4094.706
447.687, 4674.129
449.024, 5279.351
450.361, 5869.695
451.699, 6789.583
453.036, 7579.526
454.372, 8719.742
455.709, 9899.775
457.045, 10469.681
458.381, 11159.698
459.717, 11089.751
461.053, 10589.773
462.388, 9519.373
463.724, 8679.410
465.059, 7419.024
466.394, 6388.833
467.728, 5498.548
469.063, 4644.591
470.397, 4161.037
471.731, 3497.461
473.065, 3191.956
474.398, 2856.403
475.732, 2625.603
477.065, 2415.035
478.398, 2220.598
479.731, 2068.835
481.063, 2025.926
482.396, 1960.122
483.728, 1929.358
485.060, 1969.581
486.391, 1897.563
487.723, 1977.600
489.054, 1789.599
490.385, 1917.637
491.716, 1833.599
493.047, 1769.604
494.377, 1803.394
495.708, 1732.207
497.038, 1740.178
498.368, 1646.844
499.697, 1524.449
501.027, 1510.222
502.356, 1508.985
503.685, 1340.653
505.014, 1325.435
506.342, 1233.972
507.671, 1093.558
508.999, 1091.795
510.327, 1006.431
511.655, 921.037
512.982, 889.555
514.310, 803.018
515.637, 721.574
516.964, 653.161
518.291, 540.308
519.617, 490.562
520.944, 400.933
522.270, 325.215
523.596, 315.438
524.921, 311.960
526.247, 264.935
527.572, 269.477
528.897, 248.914
530.222, 222.526
531.547, 243.850
532.871, 266.337
534.196, 293.867
535.520, 346.312
536.844, 399.268
538.167, 394.473
539.491, 604.207
540.814, 524.080
542.137, 561.713
543.460, 432.046
544.783, 441.771
546.105, 351.796
547.427, 351.502
548.749, 324.423
550.071, 323.050
551.393, 281.775
552.714, 314.891
554.035, 228.763
555.356, 174.336
556.677, 150.792
557.998, 152.647
559.318, 110.831
560.638, 148.518
561.958, 31.210
563.278, 62.151
564.597, 69.527
565.917, 0.970
567.236, 106.611
568.555, 2.228
569.874, 45.875
571.192, 18.557
572.511, 24.728
573.829, 15.017
575.147, 34.205
576.464, 19.398
577.782, 31.557
579.099, 54.690
580.416, 4.209
581.733, 40.856
583.050, 5.892
584.366, 25.120
585.683, 37.830
586.999, 19.267
588.315, 95.400
589.630, 122.591
590.946, 251.833
592.261, 258.121
593.576, 348.172
594.891, 447.887
596.206, 514.353
597.520, 562.896
598.834, 684.506
600.148, 744.182
601.462, 962.911
602.776, 1227.707
604.089, 1299.571
605.402, 1540.491
606.715, 1779.459
608.028, 1961.474
609.341, 2188.541
610.653, 2350.652
611.965, 2692.805
613.277, 2987.998
614.589, 3410.110
615.901, 3791.504
617.212, 4442.828
618.523, 5147.190
619.834, 5860.594
621.145, 6884.042
622.456, 8497.525
623.766, 10071.049
625.076, 12484.608
626.386, 15938.211
627.696, 20091.852
629.006, 24935.529
630.315, 30019.254
631.624, 33543.008
632.933, 34976.801
634.242, 32570.633
635.551, 28594.508
636.859, 23588.422
638.167, 18752.369
639.475, 14686.357
640.783, 11820.384
642.090, 9574.447
643.398, 7838.548
644.705, 6752.689
646.012, 5756.867
647.318, 5121.083
648.625, 4288.337
649.931, 4040.630
651.237, 3685.958
652.543, 3204.328
653.849, 2989.735
655.155, 2840.180
656.460, 2546.664
657.765, 2376.188
659.070, 2251.750
660.375, 2115.351
661.679, 1984.991
662.984, 1924.669
664.288, 1909.387
665.592, 1701.145
666.895, 1711.942
668.199, 1615.779
669.502, 1524.655
670.805, 1643.571
672.108, 1449.526
673.411, 1518.521
674.713, 1467.555
676.016, 1326.629
677.318, 1324.008
678.620, 1386.162
679.921, 1324.356
681.223, 1366.554
682.524, 1342.831
683.825, 1376.987
685.126, 1353.617
686.427, 1396.630
687.727, 1415.119
689.028, 1394.666
690.328, 1506.261
691.628, 1396.924
692.927, 1605.644
694.227, 1470.414
695.526, 1544.237
696.825, 1346.110
698.124, 1303.021
699.423, 1148.978
700.721, 915.969
702.020, 774.993
703.318, 715.048
704.616, 668.137
705.913, 593.255
707.211, 612.407
708.508, 521.590
709.805, 516.810
711.102, 581.060
712.399, 567.342
713.695, 511.659
714.992, 464.008
716.288, 588.386
717.584, 578.792
718.879, 489.225
720.175, 521.684
721.470, 488.167
722.765, 418.651
724.060, 441.211
725.355, 435.754
726.649, 429.503
727.944, 376.131
729.238, 370.666
730.532, 405.566
731.825, 342.703
733.119, 368.495
734.412, 307.143
735.705, 383.069
736.998, 376.256
738.291, 352.666
739.584, 346.588
740.876, 357.146
742.168, 386.194
743.460, 402.034
744.752, 457.156
746.043, 410.547
747.334, 324.898
748.626, 461.615
749.916, 447.412
751.207, 484.248
752.498, 534.641
753.788, 614.753
755.078, 599.722
756.368, 626.659
757.658, 733.847
758.947, 823.339
760.237, 911.562
761.526, 998.458
762.815, 1293.786
764.104, 1493.559
765.392, 1864.611
766.680, 2370.547
767.969, 3046.374
769.257, 3554.818
770.544, 4259.268
771.832, 4897.410
773.119, 5252.658
774.406, 5210.569
775.693, 5169.310
776.980, 4786.044
778.267, 4549.151
779.553, 3983.010
780.839, 3541.771
782.125, 2926.976
783.411, 2687.646
784.697, 2401.497
785.982, 2078.347
787.267, 2068.880
788.552, 1865.404
789.837, 1918.076
791.122, 1729.668
792.406, 1696.210
793.690, 1603.688
794.974, 1443.189
796.258, 1449.583
797.542, 1242.842
798.825, 1236.277
800.108, 1090.459
801.391, 1022.771
802.674, 929.950
803.957, 922.127
805.239, 801.304
806.522, 687.478
807.804, 633.649
809.085, 652.818
810.367, 589.983
811.649, 514.144
812.930, 474.302
814.211, 401.455
815.492, 415.604
816.772, 360.749
818.053, 276.888
819.333, 180.022
820.613, 157.149
821.893, 138.270
823.173, 117.384
824.452, 82.491
825.732, 13.591
827.011, 39.683
828.290, 85.767
829.568, 27.843
830.847, 32.090
832.125, 15.957
833.403, 15.993
834.681, 22.979
835.959, 27.029
837.236, 57.973
838.514, 4.011
839.791, 32.062
841.068, 32.860
842.345, 17.771
843.621, 59.670
844.898, 8.558
846.174, 122.432
847.450, 65.294
848.726, 51.142
850.001, 136.978
851.277, 153.799
852.552, 71.605
853.827, 112.398
855.102, 126.175
856.376, 60.938
857.651, 185.686
858.925, 135.416
860.199, 304.131
861.473, 169.830
862.746, 133.513
864.020, 154.181
865.293, 190.832
866.566, 202.466
867.839, 124.082
869.112, 119.680
870.384, 163.261
871.656, 117.825
872.928, 158.371
874.200, 103.898
875.472, 109.406
876.744, 82.896
878.015, 102.366
879.286, 54.816
880.557, 92.247
881.828, 67.658
883.098, 44.049
884.369, 18.416
885.639, 9.510
886.909, 53.063
888.178, 0.347
889.448, 9.595
890.717, 18.807
891.987, 33.010
893.256, 7.117
894.524, 37.795
895.793, 5.231
897.061, 61.784
898.330, 32.878
899.598, 15.034
900.865, 99.244
902.133, 35.554
903.401, 50.930
904.668, 122.380
905.935, 84.944
907.202, 81.604
908.468, 32.281
909.735, 83.101
911.001, 87.016
912.267, 34.028
913.533, 12.015
914.799, 2.158
916.064, 24.357
917.330, 23.427
918.595, 27.315
919.860, 31.035
921.124, 42.723
922.389, 43.870
923.653, 9.820
924.918, 52.861
926.182, 34.510
927.445, 40.137
928.709, 78.628
929.972, 63.099
931.236, 74.497
932.499, 43.899
933.761, 63.098
935.024, 90.320
936.286, 80.488
937.549, 81.950
938.811, 116.177
940.073, 120.187
941.334, 97.416
942.596, 107.509
943.857, 121.763
945.118, 138.723
946.379, 134.832
947.640, 161.853
948.900, 195.734
950.161, 154.765
951.421, 262.527
952.681, 186.418
953.940, 255.072
955.200, 332.695
956.459, 288.523
957.719, 302.283
958.978, 256.814
960.236, 272.089
961.495, 351.917
962.753, 302.357
964.012, 342.766
965.270, 370.423
966.527, 395.883
967.785, 414.438
969.043, 423.043
970.300, 439.811
971.557, 436.030
972.814, 449.217
974.071, 470.373
975.327, 399.497
976.583, 452.591
977.840, 374.657
979.095, 356.692
980.351, 379.785
981.607, 352.837
982.862, 376.540
984.117, 355.449
985.372, 323.327
986.627, 268.361
987.882, 266.294
989.136, 302.302
990.390, 288.016
991.644, 293.645
992.898, 256.189
994.152, 291.928
995.405, 278.763
996.659, 285.633
997.912, 319.214
999.165, 276.742
1000.417, 299.596
1001.670, 300.158
1002.922, 302.695
1004.174, 309.371
1005.426, 314.871
1006.678, 333.536
1007.930, 328.854
1009.181, 361.232
1010.432, 353.531
1011.683, 352.990
1012.934, 374.557
1014.185, 327.270
1015.435, 362.502
1016.685, 363.012
1017.935, 389.176
1019.185, 361.395
1020.435, 339.711
1021.684, 361.248
1022.934, 375.555
1024.183, 349.759
1025.432, 443.876
1026.680, 400.012
1027.929, 440.052
1029.177, 441.181
1030.425, 380.395
1031.673, 391.416
1032.921, 422.310
1034.169, 423.962
1035.416, 462.975
1036.663, 455.439
1037.911, 444.904
1039.157, 419.835
1040.404, 415.175
1041.650, 457.835
1042.897, 409.437
1044.143, 437.247
1045.389, 443.228
1046.634, 360.869
1047.880, 345.199
1049.125, 381.281
1050.371, 272.579
1051.615, 270.310
1052.860, 279.016
1054.105, 263.814
1055.349, 270.812
1056.593, 248.917
1057.837, 172.272
1059.081, 274.818
1060.325, 187.468
1061.568, 218.253
1062.812, 144.349
1064.055, 166.637
1065.298, 178.495
1066.540, 144.983
1067.783, 108.027
1069.025, 136.244
1070.267, 132.431
1071.509, 115.015
1072.751, 98.529
1073.993, 94.139
1075.234, 91.879
1076.475, 84.908
1077.716, 106.064
1078.957, 102.129
1080.198, 109.940
1081.438, 99.887
1082.679, 137.013
1083.919, 121.673
1085.159, 125.756
1086.398, 46.685
1087.638, 93.559
1088.877, 139.733
1090.116, 76.849
1091.355, 100.775
1092.594, 53.757
1093.833, 116.041
1095.071, 72.095
1096.309, 85.317
1097.547, 110.408
1098.785, 66.614
1100.023, 122.838
1101.260, 84.074
1102.498, 136.156
1103.735, 156.396
1104.972, 75.566
1106.208, 83.850
1107.445, 153.062
1108.681, 98.166
1109.918, 142.503
1111.154, 128.748
1112.389, 170.068
1113.625, 61.230
1114.860, 100.455
1116.096, 108.441
1117.331, 134.404
1118.566, 142.347
1119.800, 146.475
1121.035, 154.177
1122.269, 152.170
1123.503, 162.250
1124.737, 175.344
1125.971, 169.178
1127.205, 149.312
1128.438, 100.228
1129.671, 102.361
1130.904, 114.184
1132.137, 126.254
1133.370, 132.104
1134.602, 82.929
1135.834, 90.241
1137.066, 104.973
1138.298, 64.757
1139.530, 75.612
1140.762, 76.417
1141.993, 96.083
1143.224, 64.732
1144.455, 47.360
1145.686, 108.967
1146.917, 128.589
1148.147, 27.160
1149.377, 88.921
1150.607, 86.606
1151.837, 45.119
1153.067, 78.771
1154.296, 31.411
1155.526, 105.946
1156.755, 83.537
1157.984, 94.017
1159.213, 47.505
1160.441, 16.884
1161.670, 4.248
1162.898, 76.643
1164.126, 12.146
1165.354, 76.455
1166.581, 54.734
1167.809, 22.995
1169.036, 0.360
1170.263, 12.792
1171.490, 25.179
1172.717, 37.617
1173.943, 25.032
1175.170, 32.511
1176.396, 11.878
1177.622, 4.698
1178.848, 12.700
1180.073, 11.240
1181.299, 32.331
1182.524, 41.582
1183.749, 61.513
1184.974, 55.622
1186.199, 26.125
1187.423, 25.126
1188.648, 24.301
1189.872, 19.502
1191.096, 53.562
1192.320, 36.807
1193.543, 20.024
1194.767, 25.030
1195.990, 16.963
1197.213, 2.655
1198.436, 15.441
1199.659, 3.604
1200.881, 4.325
1202.104, 17.890
1203.326, 56.774
1204.548, 28.586
1205.770, 0.303
1206.991, 12.022
1208.213, 28.086
1209.434, 14.243
1210.655, 46.473
1211.876, 41.653
1213.096, 20.093
1214.317, 55.306
1215.537, 37.352
1216.757, 66.332
1217.977, 58.476
1219.197, 69.421
1220.417, 84.325
1221.636, 90.134
1222.855, 60.927
1224.074, 66.690
1225.293, 96.554
1226.512, 51.456
1227.731, 73.303
1228.949, 49.099
1230.167, 49.047
1231.385, 70.923
1232.603, 59.324
1233.820, 67.440
1235.038, 66.119
1236.255, 77.021
1237.472, 83.686
1238.689, 102.455
1239.906, 15.975
1241.122, 80.744
1242.338, 29.362
1243.555, 93.114
1244.771, 99.942
1245.986, 27.459
1247.202, 107.430
1248.417, 108.114
1249.633, 67.876
1250.848, 101.628
1252.063, 46.317
1253.277, 58.011
1254.492, 93.831
1255.706, 17.588
1256.920, 34.327
1258.134, 11.015
1259.348, 43.848
1260.562, 23.374
1261.775, 75.103
1262.988, 78.027
1264.201, 91.699
1265.414, 121.861
1266.627, 89.779
1267.839, 80.547
1269.052, 11.148
1270.264, 23.143
1271.476, 13.577
1272.688, 10.089
1273.899, 60.605
1275.111, 8.947
1276.322, 76.777
1277.533, 14.330
1278.744, 65.990
1279.955, 67.565
1281.165, 2.048
1282.376, 68.420
1283.586, 66.856
1284.796, 45.160
1286.006, 57.261
1287.215, 85.753
1288.425, 85.210
1289.634, 94.127
1290.843, 100.537
1292.052, 76.862
1293.261, 87.605
1294.469, 34.569
1295.678, 47.871
1296.886, 86.059
1298.094, 46.063
1299.302, 44.197
1300.509, 64.115
1301.717, 46.337
1302.924, 68.147
1304.131, 61.624
1305.338, 88.558
1306.545, 81.342
1307.752, 67.938
1308.958, 38.104
1310.164, 78.818
1311.370, 81.839
1312.576, 83.762
1313.782, 51.547
1314.987, 30.070
1316.193, 35.781
1317.398, 18.649
1318.603, 19.715
1319.807, 9.133
1321.012, 21.913
1322.216, 10.594
1323.421, 10.975
1324.625, 17.352
1325.829, 68.291
1327.032, 26.021
1328.236, 24.220
1329.439, 36.590
1330.642, 1.359
1331.845, 72.966
1333.048, 28.529
1334.251, 20.059
1335.453, 48.492
1336.656, 10.078
1337.858, 13.581
1339.060, 10.999
1340.261, 11.403
1341.463, 41.754
1342.664, 36.898
1343.866, 25.214
1345.067, 47.446
1346.267, 15.517
1347.468, 8.196
1348.669, 6.764
1349.869, 34.531
1351.069, 14.638
1352.269, 56.358
1353.469, 48.609
1354.668, 30.214
1355.868, 44.065
1357.067, 2.308
1358.266, 23.443
1359.465, 25.707
1360.664, 85.878
1361.862, 25.153
1363.061, 63.377
1364.259, 35.632
1365.457, 128.935
1366.655, 95.228
1367.852, 89.408
1369.050, 62.601
1370.247, 46.855
1371.444, 106.961
1372.641, 99.146
1373.838, 108.219
1375.035, 105.281
1376.231, 54.424
1377.427, 153.509
1378.623, 154.620
1379.819, 104.720
1381.015, 55.860
1382.211, 52.015
1383.406, 82.167
1384.601, 97.044
1385.796, 50.194
1386.991, 28.134
1388.185, 32.296
1389.380, 72.470
1390.574, 9.492
1391.768, 31.715
1392.962, 68.922
1394.156, 62.952
1395.350, 15.792
1396.543, 20.582
1397.736, 35.141
1398.929, 15.777
1400.122, 49.766
1401.315, 69.741
1402.507, 22.688
1403.700, 26.028
1404.892, 14.495
1406.084, 15.150
1407.276, 37.273
1408.467, 1.160
1409.659, 3.892
1410.850, 27.676
1412.041, 9.143
1413.232, 15.490
1414.423, 20.098
1415.614, 29.489
1416.804, 24.085
1417.994, 6.882
1419.184, 14.590
1420.374, 38.787
1421.564, 26.664
1422.753, 34.578
1423.943, 41.100
1425.132, 26.468
1426.321, 46.469
1427.510, 35.303
1428.698, 20.974
1429.887, 9.654
1431.075, 19.049
1432.263, 79.537
1433.451, 30.071
1434.639, 126.128
1435.827, 0.994
1437.014, 59.521
1438.201, 26.878
1439.388, 66.774
1440.575, 62.631
1441.762, 48.225
1442.949, 57.051
1444.135, 81.855
1445.321, 34.422
1446.507, 57.888
1447.693, 137.507
1448.879, 46.428
1450.064, 101.385
1451.250, 13.594
1452.435, 49.776
1453.620, 80.844
1454.805, 123.050
1455.989, 93.186
1457.174, 125.395
1458.358, 103.555
1459.542, 76.687
1460.726, 83.816
1461.910, 104.542
1463.093, 129.296
1464.277, 79.263
1465.460, 98.066
1466.643, 101.668
1467.826, 115.315
1469.009, 134.060
1470.191, 178.397
1471.373, 162.939
1472.556, 170.868
1473.738, 147.844
1474.919, 137.164
1476.101, 137.797
1477.283, 114.419
1478.464, 97.037
1479.645, 124.718
1480.826, 82.300
1482.007, 97.068
1483.187, 102.813
1484.368, 80.391
1485.548, 128.991
1486.728, 99.423
1487.908, 73.092
1489.088, 100.740
1490.268, 97.251
1491.447, 40.889
1492.626, 125.455
1493.805, 63.475
1494.984, 18.831
1496.163, 83.072
1497.341, 154.187
1498.520, 114.173
1499.698, 185.032
1500.876, 138.753
1502.054, 97.328
1503.232, 163.809
1504.409, 93.383
1505.586, 142.352
1506.763, 126.679
1507.940, 156.302
1509.117, 160.731
1510.294, 213.424
1511.470, 184.160
1512.647, 144.904
1513.823, 197.663
1514.999, 123.481
1516.174, 147.370
1517.350, 43.378
1518.526, 90.573
1519.701, 122.029
1520.876, 142.735
1522.051, 98.663
1523.226, 86.828
1524.400, 66.294
1525.574, 92.154
1526.749, 48.515
1527.923, 83.472
1529.097, 70.179
1530.270, 56.901
1531.444, 0.982
1532.617, 25.143
1533.790, 0.000
##END=



