##NAMES=Cassiterite
##RRUFFID=R040072
##IDEAL CHEMISTRY=SnO_2_
##LOCALITY=Bolivia
##OWNER=RRUFF
##SOURCE=University of Arizona Mineral Museum
##DESCRIPTION=Black fragment
##STATUS=The identification of this mineral has been confirmed by X-ray diffraction and chemical analysis
##URL=rruff.info/R040072
##MEASURED CHEMISTRY=Sn_0.99_O_2_
##PIN_ID=M00007
##ORIENTATION=Laser parallel to a* (1 0 0). Fiducial mark perpendicular to laser is parallel to c [0 0 1]
185.562, 0.000
186.940, 0.032
188.319, 38.397
189.698, 1.250
191.076, 15.550
192.454, 44.707
193.831, 117.338
195.209, 58.255
196.586, 47.667
197.963, 59.008
199.340, 192.247
200.717, 39.454
202.093, 109.312
203.470, 41.443
204.846, 72.570
206.221, 83.897
207.597, 125.213
208.972, 84.746
210.347, 123.795
211.722, 139.807
213.097, 141.199
214.472, 236.185
215.846, 251.682
217.220, 340.767
218.594, 374.823
219.967, 330.170
221.341, 368.696
222.714, 321.267
224.087, 326.583
225.460, 338.678
226.832, 237.255
228.204, 211.111
229.577, 127.969
230.948, 165.968
232.320, 177.871
233.692, 130.254
235.063, 147.248
236.434, 124.292
237.805, 128.138
239.175, 50.074
240.545, 83.471
241.916, 122.243
243.286, 126.249
244.655, 67.107
246.025, 133.430
247.394, 84.676
248.763, 142.535
250.132, 106.444
251.501, 141.875
252.869, 136.899
254.237, 104.579
255.605, 124.126
256.973, 119.782
258.340, 150.520
259.708, 162.543
261.075, 101.765
262.442, 109.142
263.808, 107.803
265.175, 119.729
266.541, 133.030
267.907, 136.147
269.273, 163.289
270.639, 192.926
272.004, 191.486
273.369, 132.448
274.734, 110.298
276.099, 47.438
277.463, 37.110
278.828, 57.600
280.192, 67.106
281.556, 23.809
282.919, 39.282
284.283, 14.334
285.646, 24.689
287.009, 95.094
288.372, 40.564
289.734, 60.260
291.097, 96.061
292.459, 101.264
293.821, 99.796
295.183, 77.160
296.544, 82.402
297.905, 113.596
299.266, 120.743
300.627, 68.842
301.988, 169.890
303.348, 55.886
304.709, 69.831
306.069, 39.719
307.428, 1.365
308.788, 83.401
310.147, 34.108
311.507, 16.759
312.865, 40.335
314.224, 11.816
315.583, 28.788
316.941, 25.464
318.299, 26.626
319.657, 3.282
321.015, 16.752
322.372, 8.732
323.729, 16.660
325.086, 33.541
326.443, 31.376
327.800, 21.161
329.156, 43.878
330.512, 2.543
331.868, 14.845
333.224, 7.311
334.579, 45.827
335.935, 15.605
337.290, 34.003
338.645, 53.646
339.999, 8.323
341.354, 11.052
342.708, 2.844
344.062, 34.702
345.416, 43.613
346.769, 32.562
348.123, 50.931
349.476, 47.899
350.829, 25.989
352.182, 37.173
353.534, 10.190
354.887, 43.501
356.239, 12.721
357.591, 14.781
358.942, 21.361
360.294, 59.742
361.645, 13.712
362.996, 44.949
364.347, 35.023
365.698, 34.983
367.048, 29.396
368.398, 25.870
369.748, 16.514
371.098, 48.844
372.448, 13.849
373.797, 41.805
375.146, 0.606
376.495, 31.169
377.844, 44.600
379.192, 68.860
380.540, 69.962
381.889, 75.915
383.236, 62.720
384.584, 111.385
385.932, 80.925
387.279, 75.325
388.626, 135.593
389.973, 149.733
391.319, 150.733
392.666, 90.249
394.012, 74.741
395.358, 137.077
396.704, 147.018
398.049, 142.705
399.394, 177.144
400.740, 203.463
402.084, 189.960
403.429, 206.744
404.774, 202.772
406.118, 226.740
407.462, 225.138
408.806, 260.982
410.150, 344.347
411.493, 319.034
412.836, 289.405
414.179, 241.878
415.522, 285.242
416.865, 267.283
418.207, 266.437
419.549, 185.514
420.891, 241.714
422.233, 195.878
423.575, 224.542
424.916, 213.090
426.257, 147.565
427.598, 202.061
428.939, 197.541
430.279, 239.897
431.619, 209.388
432.959, 232.955
434.299, 295.500
435.639, 268.563
436.978, 291.378
438.318, 341.000
439.657, 239.180
440.996, 267.048
442.334, 248.163
443.673, 203.948
445.011, 191.064
446.349, 194.510
447.687, 207.502
449.024, 233.126
450.361, 167.805
451.699, 204.987
453.036, 142.653
454.372, 193.374
455.709, 230.097
457.045, 192.618
458.381, 198.225
459.717, 251.109
461.053, 237.068
462.388, 196.592
463.724, 272.814
465.059, 299.226
466.394, 382.838
467.728, 400.073
469.063, 550.750
470.397, 559.537
471.731, 752.785
473.065, 953.621
474.398, 1127.067
475.732, 1194.848
477.065, 1081.271
478.398, 947.616
479.731, 794.032
481.063, 865.296
482.396, 698.317
483.728, 819.713
485.060, 554.143
486.391, 571.873
487.723, 593.621
489.054, 596.296
490.385, 639.244
491.716, 669.858
493.047, 725.855
494.377, 770.712
495.708, 808.241
497.038, 848.594
498.368, 960.534
499.697, 914.808
501.027, 916.000
502.356, 958.108
503.685, 869.803
505.014, 903.581
506.342, 800.876
507.671, 776.941
508.999, 805.931
510.327, 763.735
511.655, 702.683
512.982, 714.559
514.310, 699.601
515.637, 653.105
516.964, 568.133
518.291, 563.168
519.617, 501.090
520.944, 418.620
522.270, 414.614
523.596, 389.104
524.921, 370.233
526.247, 331.384
527.572, 362.906
528.897, 362.672
530.222, 340.647
531.547, 366.778
532.871, 406.723
534.196, 473.808
535.520, 538.629
536.844, 603.656
538.167, 722.735
539.491, 790.910
540.814, 763.086
542.137, 841.285
543.460, 799.427
544.783, 744.770
546.105, 773.986
547.427, 758.178
548.749, 701.624
550.071, 690.130
551.393, 689.643
552.714, 691.907
554.035, 656.112
555.356, 640.583
556.677, 564.103
557.998, 603.614
559.318, 533.280
560.638, 559.067
561.958, 492.814
563.278, 557.620
564.597, 501.430
565.917, 434.244
567.236, 449.066
568.555, 383.892
569.874, 353.726
571.192, 398.566
572.511, 364.413
573.829, 350.267
575.147, 394.127
576.464, 316.997
577.782, 350.876
579.099, 269.763
580.416, 347.659
581.733, 285.565
583.050, 310.481
584.366, 310.409
585.683, 335.280
586.999, 296.230
588.315, 300.193
589.630, 330.168
590.946, 334.154
592.261, 373.153
593.576, 373.168
594.891, 363.197
596.206, 423.242
597.520, 465.322
598.834, 534.429
600.148, 497.562
601.462, 566.713
602.776, 736.891
604.089, 655.109
605.402, 776.354
606.715, 917.624
608.028, 928.910
609.341, 1018.217
610.653, 1106.542
611.965, 1157.881
613.277, 1296.236
614.589, 1434.608
615.901, 1611.001
617.212, 1841.405
618.523, 2148.827
619.834, 2356.237
621.145, 2831.692
622.456, 3392.167
623.766, 4046.822
625.076, 4992.098
626.386, 6387.622
627.696, 8080.267
629.006, 10391.992
630.315, 13486.160
631.624, 16381.810
632.933, 18994.439
634.242, 19770.561
635.551, 19024.029
636.859, 16608.398
638.167, 13510.604
639.475, 10672.424
640.783, 8336.943
642.090, 6751.494
643.398, 5446.328
644.705, 4534.940
646.012, 3810.906
647.318, 3376.442
648.625, 3058.182
649.931, 2702.438
651.237, 2581.077
652.543, 2317.300
653.849, 2189.291
655.155, 2070.044
656.460, 2025.958
657.765, 1953.922
659.070, 1948.647
660.375, 1900.251
661.679, 1872.230
662.984, 1833.306
664.288, 1901.326
665.592, 1866.428
666.895, 1978.518
668.199, 1954.792
669.502, 2018.074
670.805, 2072.192
672.108, 2054.318
673.411, 2083.569
674.713, 2139.825
676.016, 2119.168
677.318, 2014.032
678.620, 2086.402
679.921, 2024.837
681.223, 2020.069
682.524, 2088.345
683.825, 1998.602
685.126, 1932.149
686.427, 2029.485
687.727, 1944.781
689.028, 1949.085
690.328, 2048.396
691.628, 1918.715
692.927, 2011.043
694.227, 1927.379
695.526, 2048.723
696.825, 1887.074
698.124, 1833.433
699.423, 1768.798
700.721, 1543.171
702.020, 1319.550
703.318, 1217.936
704.616, 994.329
705.913, 905.728
707.211, 939.132
708.508, 795.541
709.805, 819.957
711.102, 800.379
712.399, 729.807
713.695, 695.240
714.992, 721.677
716.288, 752.120
717.584, 774.566
718.879, 672.016
720.175, 676.469
721.470, 671.927
722.765, 602.387
724.060, 661.851
725.355, 611.318
726.649, 567.789
727.944, 540.262
729.238, 505.513
730.532, 478.414
731.825, 464.711
733.119, 446.404
734.412, 447.909
735.705, 469.560
736.998, 459.416
738.291, 370.912
739.584, 391.530
740.876, 389.111
742.168, 409.797
743.460, 395.394
744.752, 306.146
746.043, 334.804
747.334, 246.567
748.626, 280.374
749.916, 284.100
751.207, 299.913
752.498, 310.173
753.788, 279.238
755.078, 271.477
756.368, 225.150
757.658, 214.591
758.947, 149.662
760.237, 116.729
761.526, 156.739
762.815, 122.826
764.104, 34.662
765.392, 53.454
766.680, 21.085
767.969, 21.788
769.257, 21.920
770.544, 9.763
771.832, 20.380
773.119, 79.061
774.406, 43.373
775.693, 44.979
776.980, 30.456
778.267, 25.882
779.553, 17.298
780.839, 39.642
782.125, 22.834
783.411, 0.328
784.697, 48.673
785.982, 71.663
787.267, 19.180
788.552, 77.448
789.837, 33.006
791.122, 47.569
792.406, 7.252
793.690, 10.167
794.974, 47.505
796.258, 47.298
797.542, 66.958
798.825, 46.823
800.108, 83.584
801.391, 27.478
802.674, 30.373
803.957, 54.366
805.239, 9.395
806.522, 52.438
807.804, 19.551
809.085, 43.536
810.367, 60.346
811.649, 42.220
812.930, 40.912
814.211, 4.077
815.492, 53.745
816.772, 32.560
818.053, 64.367
819.333, 37.166
820.613, 45.957
821.893, 12.260
823.173, 10.504
824.452, 57.258
825.732, 107.004
827.011, 31.741
828.290, 33.469
829.568, 15.188
830.847, 1.103
832.125, 19.590
833.403, 10.272
834.681, 65.944
835.959, 52.606
837.236, 65.258
838.514, 9.902
839.791, 51.533
841.068, 89.173
842.345, 64.784
843.621, 103.386
844.898, 95.979
846.174, 165.561
847.450, 218.134
848.726, 202.696
850.001, 223.267
851.277, 241.809
852.552, 215.342
853.827, 246.878
855.102, 173.389
856.376, 254.891
857.651, 220.382
858.925, 216.863
860.199, 333.333
861.473, 309.792
862.746, 273.241
864.020, 226.685
865.293, 232.118
866.566, 260.546
867.839, 246.964
869.112, 221.372
870.384, 249.770
871.656, 247.157
872.928, 154.534
874.200, 155.901
875.472, 171.256
876.744, 149.610
878.015, 167.953
879.286, 189.285
880.557, 173.061
881.828, 113.916
883.098, 147.218
884.369, 83.514
885.639, 36.801
886.909, 83.077
888.178, 49.343
889.448, 22.596
890.717, 99.834
891.987, 60.655
893.256, 70.499
894.524, 46.477
895.793, 68.665
897.061, 32.842
898.330, 56.004
899.598, 32.155
900.865, 3.294
902.133, 42.586
903.401, 29.695
904.668, 35.211
905.935, 0.037
907.202, 0.014
908.468, 30.029
909.735, 12.016
911.001, 21.516
912.267, 21.949
913.533, 23.889
914.799, 21.813
916.064, 31.718
917.330, 34.788
918.595, 70.686
919.860, 53.545
921.124, 21.561
922.389, 32.387
923.653, 74.193
924.918, 8.990
926.182, 85.762
927.445, 14.547
928.709, 5.716
929.972, 55.990
931.236, 70.635
932.499, 24.542
933.761, 9.327
935.024, 81.992
936.286, 45.454
937.549, 18.492
938.811, 65.031
940.073, 22.595
941.334, 56.664
942.596, 51.403
943.857, 71.244
945.118, 44.248
946.379, 64.643
947.640, 100.345
948.900, 43.014
950.161, 81.402
951.421, 44.009
952.681, 59.265
953.940, 52.953
955.200, 97.433
956.459, 74.400
957.719, 72.992
958.978, 47.003
960.236, 68.171
961.495, 189.755
962.753, 99.099
964.012, 148.409
965.270, 141.961
966.527, 116.637
967.785, 175.938
969.043, 150.153
970.300, 203.433
971.557, 211.640
972.814, 208.870
974.071, 237.928
975.327, 220.886
976.583, 237.211
977.840, 190.428
979.095, 172.532
980.351, 134.630
981.607, 124.005
982.862, 123.128
984.117, 113.127
985.372, 112.060
986.627, 117.207
987.882, 100.305
989.136, 84.432
990.390, 127.363
991.644, 55.419
992.898, 102.516
994.152, 76.709
995.405, 73.786
996.659, 78.854
997.912, 92.911
999.165, 77.000
1000.417, 56.082
1001.670, 79.136
1002.922, 76.208
1004.174, 57.217
1005.426, 72.286
1006.678, 113.354
1007.930, 94.436
1009.181, 94.416
1010.432, 102.428
1011.683, 97.380
1012.934, 128.547
1014.185, 117.087
1015.435, 76.825
1016.685, 120.141
1017.935, 103.379
1019.185, 127.447
1020.435, 109.657
1021.684, 114.704
1022.934, 115.861
1024.183, 76.053
1025.432, 105.941
1026.680, 110.213
1027.929, 104.220
1029.177, 141.158
1030.425, 98.241
1031.673, 175.294
1032.921, 92.909
1034.169, 108.011
1035.416, 97.712
1036.663, 161.675
1037.911, 149.153
1039.157, 121.912
1040.404, 78.426
1041.650, 186.323
1042.897, 200.027
1044.143, 146.099
1045.389, 151.704
1046.634, 151.607
1047.880, 103.315
1049.125, 162.209
1050.371, 92.632
1051.615, 26.680
1052.860, 78.229
1054.105, 86.859
1055.349, 36.017
1056.593, 99.247
1057.837, 54.812
1059.081, 80.203
1060.325, 76.276
1061.568, 103.399
1062.812, 77.552
1064.055, 77.942
1065.298, 89.124
1066.540, 21.372
1067.783, 58.906
1069.025, 66.303
1070.267, 23.749
1071.509, 89.849
1072.751, 121.114
1073.993, 84.589
1075.234, 95.906
1076.475, 73.428
1077.716, 63.021
1078.957, 72.478
1080.198, 32.739
1081.438, 109.061
1082.679, 30.011
1083.919, 30.366
1085.159, 81.720
1086.398, 54.914
1087.638, 119.790
1088.877, 62.102
1090.116, 65.283
1091.355, 93.648
1092.594, 97.936
1093.833, 110.321
1095.071, 99.587
1096.309, 115.021
1097.547, 68.372
1098.785, 132.654
1100.023, 126.110
1101.260, 128.484
1102.498, 71.908
1103.735, 126.329
1104.972, 87.808
1106.208, 74.295
1107.445, 73.781
1108.681, 68.937
1109.918, 93.699
1111.154, 91.194
1112.389, 103.683
1113.625, 122.167
1114.860, 91.657
1116.096, 114.145
1117.331, 108.642
1118.566, 91.135
1119.800, 162.625
1121.035, 214.112
1122.269, 384.592
1123.503, 499.073
1124.737, 379.550
1125.971, 287.021
1127.205, 197.485
1128.438, 164.948
1129.671, 156.405
1130.904, 77.863
1132.137, 140.331
1133.370, 162.792
1134.602, 102.259
1135.834, 115.720
1137.066, 112.184
1138.298, 42.642
1139.530, 105.095
1140.762, 121.524
1141.993, 38.966
1143.224, 130.402
1144.455, 74.831
1145.686, 68.259
1146.917, 55.686
1148.147, 55.107
1149.377, 59.755
1150.607, 53.497
1151.837, 75.321
1153.067, 49.711
1154.296, 48.110
1155.526, 42.502
1156.755, 64.887
1157.984, 55.266
1159.213, 109.637
1160.441, 14.003
1161.670, 20.640
1162.898, 55.699
1164.126, 20.968
1165.354, 1.655
1166.581, 27.650
1167.809, 1.054
1169.036, 28.233
1170.263, 1.512
1171.490, 1.218
1172.717, 60.043
1173.943, 36.703
1175.170, 27.523
1176.396, 41.742
1177.622, 4.953
1178.848, 10.155
1180.073, 10.651
1181.299, 18.471
1182.524, 12.309
1183.749, 2.904
1184.974, 9.024
1186.199, 29.100
1187.423, 37.217
1188.648, 30.328
1189.872, 45.581
1191.096, 3.475
1192.320, 49.610
1193.543, 2.688
1194.767, 6.756
1195.990, 1.184
1197.213, 12.689
1198.436, 7.452
1199.659, 14.217
1200.881, 4.837
1202.104, 6.839
1203.326, 32.723
1204.548, 20.271
1205.770, 44.681
1206.991, 34.311
1208.213, 48.650
1209.434, 40.604
1210.655, 2.804
1211.876, 24.772
1213.096, 66.868
1214.317, 8.614
1215.537, 79.508
1216.757, 44.418
1217.977, 22.151
1219.197, 49.045
1220.417, 50.933
1221.636, 70.812
1222.855, 46.688
1224.074, 92.555
1225.293, 81.417
1226.512, 90.018
1227.731, 107.563
1228.949, 104.936
1230.167, 110.650
1231.385, 124.365
1232.603, 92.196
1233.820, 62.999
1235.038, 89.814
1236.255, 45.623
1237.472, 63.423
1238.689, 114.226
1239.906, 91.009
1241.122, 83.784
1242.338, 140.550
1243.555, 96.308
1244.771, 113.058
1245.986, 95.815
1247.202, 67.715
1248.417, 153.439
1249.633, 75.154
1250.848, 136.010
1252.063, 116.715
1253.277, 117.035
1254.492, 154.190
1255.706, 139.035
1256.920, 113.719
1258.134, 116.805
1259.348, 153.736
1260.562, 100.982
1261.775, 148.802
1262.988, 143.370
1264.201, 207.602
1265.414, 172.463
1266.627, 106.721
1267.839, 164.612
1269.052, 158.557
1270.264, 146.809
1271.476, 167.691
1272.688, 150.478
1273.899, 131.102
1275.111, 156.900
1276.322, 162.229
1277.533, 191.883
1278.744, 215.562
1279.955, 207.861
1281.165, 203.675
1282.376, 191.112
1283.586, 220.082
1284.796, 207.949
1286.006, 219.941
1287.215, 227.701
1288.425, 230.204
1289.634, 224.865
1290.843, 212.500
1292.052, 180.398
1293.261, 201.197
1294.469, 269.646
1295.678, 190.224
1296.886, 232.059
1298.094, 214.625
1299.302, 197.366
1300.509, 256.931
1301.717, 268.411
1302.924, 209.944
1304.131, 246.317
1305.338, 214.831
1306.545, 258.173
1307.752, 251.256
1308.958, 227.718
1310.164, 291.729
1311.370, 245.776
1312.576, 196.097
1313.782, 246.142
1314.987, 258.336
1316.193, 211.404
1317.398, 224.423
1318.603, 220.731
1319.807, 200.640
1321.012, 132.799
1322.216, 164.012
1323.421, 156.064
1324.625, 172.123
1325.829, 206.603
1327.032, 169.576
1328.236, 201.919
1329.439, 225.745
1330.642, 167.212
1331.845, 207.233
1333.048, 176.272
1334.251, 111.262
1335.453, 199.288
1336.656, 110.935
1337.858, 151.894
1339.060, 142.603
1340.261, 175.328
1341.463, 136.936
1342.664, 115.875
1343.866, 89.106
1345.067, 84.939
1346.267, 153.463
1347.468, 111.027
1348.669, 96.689
1349.869, 151.981
1351.069, 87.659
1352.269, 111.026
1353.469, 100.684
1354.668, 33.291
1355.868, 83.691
1357.067, 51.194
1358.266, 103.853
1359.465, 110.240
1360.664, 104.893
1361.862, 110.395
1363.061, 106.720
1364.259, 105.597
1365.457, 93.730
1366.655, 111.261
1367.852, 92.672
1369.050, 113.189
1370.247, 70.689
1371.444, 137.174
1372.641, 157.642
1373.838, 127.227
1375.035, 127.533
1376.231, 86.956
1377.427, 130.364
1378.623, 129.697
1379.819, 180.079
1381.015, 127.314
1382.211, 80.613
1383.406, 124.964
1384.601, 145.307
1385.796, 102.645
1386.991, 86.062
1388.185, 124.397
1389.380, 77.738
1390.574, 41.073
1391.768, 105.368
1392.962, 93.741
1394.156, 46.016
1395.350, 86.297
1396.543, 4.563
1397.736, 10.820
1398.929, 44.061
1400.122, 88.273
1401.315, 14.448
1402.507, 27.602
1403.700, 6.739
1404.892, 43.861
1406.084, 48.038
1407.276, 7.021
1408.467, 4.957
1409.659, 6.028
1410.850, 27.985
1412.041, 21.928
1413.232, 5.854
1414.423, 26.748
1415.614, 37.619
1416.804, 1.535
1417.994, 34.283
1419.184, 12.916
1420.374, 34.129
1421.564, 54.644
1422.753, 23.583
1423.943, 8.194
1425.132, 15.039
1426.321, 14.720
1427.510, 15.123
1428.698, 41.238
1429.887, 33.995
1431.075, 14.748
1432.263, 42.515
1433.451, 2.714
1434.639, 6.946
1435.827, 19.816
1437.014, 75.576
1438.201, 47.335
1439.388, 22.898
1440.575, 52.779
1441.762, 19.574
1442.949, 35.382
1444.135, 44.181
1445.321, 51.640
1446.507, 78.193
1447.693, 55.055
1448.879, 40.926
1450.064, 66.809
1451.250, 50.702
1452.435, 73.606
1453.620, 79.919
1454.805, 51.330
1455.989, 102.271
1457.174, 83.227
1458.358, 98.202
1459.542, 97.175
1460.726, 92.189
1461.910, 107.224
1463.093, 101.916
1464.277, 128.989
1465.460, 113.764
1466.643, 132.997
1467.826, 167.260
1469.009, 151.826
1470.191, 124.177
1471.373, 97.066
1472.556, 99.886
1473.738, 110.907
1474.919, 102.364
1476.101, 127.992
1477.283, 95.652
1478.464, 55.990
1479.645, 116.455
1480.826, 114.332
1482.007, 117.554
1483.187, 143.502
1484.368, 115.485
1485.548, 135.886
1486.728, 150.727
1487.908, 45.257
1489.088, 112.424
1490.268, 80.362
1491.447, 97.664
1492.626, 147.458
1493.805, 106.309
1494.984, 33.071
1496.163, 129.068
1497.341, 65.873
1498.520, 98.464
1499.698, 80.830
1500.876, 74.983
1502.054, 125.931
1503.232, 120.855
1504.409, 96.871
1505.586, 132.771
1506.763, 93.810
1507.940, 105.537
1509.117, 159.696
1510.294, 120.297
1511.470, 105.076
1512.647, 139.056
1513.823, 149.019
1514.999, 120.999
1516.174, 89.986
1517.350, 124.026
1518.526, 107.194
1519.701, 168.552
1520.876, 59.148
1522.051, 83.972
1523.226, 114.036
1524.400, 39.342
1525.574, 79.969
1526.749, 26.031
1527.923, 3.366
1529.097, 60.908
1530.270, 61.099
1531.444, 17.702
1532.617, 42.585
1533.790, 0.000
##END=



