##NAMES=Celsian
##RRUFFID=R060152
##IDEAL CHEMISTRY=BaAl_2_Si_2_O_8_
##LOCALITY=Benallt mine, Lleyn, Wales
##OWNER=RRUFF
##SOURCE=Marcus Origlieri
##DESCRIPTION=Colorless to white elongated prismatic crystals
##STATUS=The identification of this mineral is confirmed by single-crystal X-ray diffraction and chemical analysis.
##URL=rruff.info/R060152
##MEASURED CHEMISTRY=(Ba_0.98_K_0.02_[box]_0.02_)_Î£=1_Al_2.00_Si_2.00_O_8_
##PIN_ID=M00479
##ORIENTATION=Laser parallel to -c* (0 0 -1). Fiducial mark perpendicular to laser is parallel to a [1 0 0]
92.44100, 0.0000000E+00
93.67200, 270.3359
94.90400, 747.3203
96.13500, 1749.855
97.36600, 3037.000
98.59700, 5161.035
99.82800, 7474.484
101.0590, 10205.66
102.2900, 13410.36
103.5200, 17606.49
104.7500, 20823.30
105.9810, 24064.75
107.2110, 26310.09
108.4410, 26078.76
109.6700, 23483.74
110.9000, 19225.00
112.1300, 14734.02
113.3590, 10800.95
114.5880, 7767.695
115.8170, 5816.965
117.0460, 4257.438
118.2750, 3576.660
119.5040, 3789.230
120.7320, 5595.984
121.9610, 7898.266
123.1890, 9245.375
124.4170, 7997.316
125.6450, 5183.723
126.8730, 3343.531
128.1010, 2394.344
129.3280, 2266.824
130.5560, 2093.070
131.7830, 1875.871
133.0100, 1483.434
134.2380, 1317.965
135.4640, 1062.285
136.6910, 848.3242
137.9180, 638.0234
139.1440, 464.9219
140.3710, 245.9062
141.5970, 9.328125
142.8230, 440.6758
144.0490, 462.1172
145.2750, 428.8281
146.5000, 332.3359
147.7260, 300.2305
148.9510, 269.4492
150.1770, 438.1797
151.4020, 356.5898
152.6270, 402.8438
153.8520, 84.53125
155.0760, 153.8516
156.3010, 348.5508
157.5250, 367.3633
158.7500, 650.4609
159.9740, 1029.648
161.1980, 1797.742
162.4220, 2584.727
163.6450, 3756.129
164.8690, 4721.297
166.0920, 5707.637
167.3160, 6725.945
168.5390, 7123.809
169.7620, 7556.109
170.9850, 7262.094
172.2080, 6656.367
173.4300, 5474.906
174.6530, 4230.688
175.8750, 3479.684
177.0970, 2842.895
178.3190, 1775.457
179.5410, 1070.230
180.7630, 926.1055
181.9850, 635.1445
183.2060, 189.1836
184.4270, 482.2148
185.6490, 360.0703
186.8700, 144.2344
188.0910, 95.80078
189.3110, 24.24609
190.5320, 148.3828
191.7530, 72.07422
192.9730, 65.37500
194.1930, 122.2383
195.4130, 87.50781
196.6330, 84.74609
197.8530, 121.0586
199.0730, 96.38672
200.2920, 27.27344
201.5120, 99.92188
202.7310, 26.44922
203.9500, 231.8359
205.1690, 21.24609
206.3880, 134.2773
207.6070, 32.60938
208.8250, 92.48438
210.0440, 147.1484
211.2620, 28.38672
212.4800, 86.19531
213.6980, 136.1914
214.9160, 5.417969
216.1340, 440.1406
217.3510, 500.8164
218.5690, 381.0781
219.7860, 711.9102
221.0030, 730.4727
222.2200, 692.8008
223.4370, 648.9492
224.6540, 864.8984
225.8700, 637.6797
227.0870, 707.3906
228.3030, 586.0430
229.5190, 545.6719
230.7350, 773.2852
231.9510, 827.8711
233.1670, 1173.445
234.3820, 1583.074
235.5980, 2345.750
236.8130, 2979.285
238.0280, 4166.785
239.2430, 5351.441
240.4580, 7022.570
241.6730, 8114.359
242.8880, 9809.445
244.1020, 11004.06
245.3160, 11793.71
246.5300, 12180.06
247.7450, 11853.83
248.9580, 11693.86
250.1720, 10219.05
251.3860, 9419.316
252.5990, 8073.477
253.8130, 7097.375
255.0260, 6657.953
256.2390, 5938.234
257.4520, 5729.262
258.6640, 5166.062
259.8770, 4568.832
261.0890, 3960.660
262.3020, 3457.402
263.5140, 2632.516
264.7260, 2451.539
265.9380, 1888.574
267.1500, 1560.652
268.3610, 1412.590
269.5730, 1090.297
270.7840, 1505.285
271.9950, 1181.098
273.2060, 1049.133
274.4170, 702.5938
275.6280, 656.5547
276.8390, 774.4141
278.0490, 384.2500
279.2590, 523.0391
280.4690, 416.7969
281.6800, 688.5156
282.8890, 450.1992
284.0990, 353.8438
285.3090, 360.4336
286.5180, 571.9688
287.7280, 34.42578
288.9370, 599.3320
290.1460, 88.98047
291.3550, 623.8828
292.5630, 662.1719
293.7720, 983.8242
294.9800, 1053.613
296.1890, 1170.074
297.3970, 1256.613
298.6050, 1811.922
299.8130, 2472.637
301.0200, 3342.070
302.2280, 3986.461
303.4360, 4504.816
304.6430, 5429.133
305.8500, 5768.410
307.0570, 5908.652
308.2640, 5281.855
309.4710, 5309.023
310.6770, 4275.289
311.8840, 3432.227
313.0900, 2253.266
314.2960, 1741.262
315.5020, 1156.215
316.7080, 906.1211
317.9140, 586.9766
319.1190, 560.7812
320.3250, 291.5547
321.5300, 348.2812
322.7350, 191.0508
323.9400, 10.50781
325.1450, 214.9297
326.3500, 208.6875
327.5540, 201.5312
328.7580, 84.68750
329.9630, 105.2383
331.1670, 261.3047
332.3710, 131.5469
333.5750, 23.96094
334.7780, 58.96875
335.9820, 485.3164
337.1850, 294.4453
338.3880, 174.4023
339.5920, 8.335938
340.7950, 316.6523
341.9970, 242.7305
343.2000, 289.6445
344.4030, 297.9531
345.6050, 940.9961
346.8070, 1311.406
348.0090, 1632.508
349.2110, 2610.723
350.4130, 3198.055
351.6150, 4056.910
352.8160, 5100.031
354.0170, 6191.359
355.2190, 6908.754
356.4200, 7785.992
357.6210, 7499.723
358.8210, 7120.383
360.0220, 5777.762
361.2220, 4566.016
362.4230, 3435.199
363.6230, 2340.352
364.8230, 1785.480
366.0230, 997.5898
367.2230, 844.6797
368.4220, 370.7539
369.6220, 619.8047
370.8210, 132.1562
372.0200, 2.191406
373.2190, 37.26953
374.4180, 92.39062
375.6170, 54.57422
376.8150, 179.8047
378.0140, 24.20312
379.2120, 377.7266
380.4100, 111.5156
381.6080, 261.5977
382.8060, 41.33203
384.0040, 370.6914
385.2010, 735.6875
386.3980, 561.6484
387.5960, 1543.562
388.7930, 2246.418
389.9900, 3076.207
391.1870, 3634.934
392.3830, 3393.590
393.5800, 3710.184
394.7760, 3442.703
395.9720, 2869.156
397.1680, 1953.539
398.3640, 1362.852
399.5600, 846.1016
400.7560, 564.2852
401.9510, 439.4062
403.1460, 32.46875
404.3420, 85.45703
405.5370, 157.6250
406.7320, 127.1328
407.9260, 62.17188
409.1210, 79.42188
410.3150, 17.03906
411.5100, 8.425781
412.7040, 157.1562
413.8980, 148.1289
415.0920, 18.38281
416.2850, 95.58594
417.4790, 34.76172
418.6720, 91.89453
419.8650, 764.9961
421.0590, 684.0625
422.2510, 1190.914
423.4440, 1232.922
424.6370, 2015.113
425.8290, 2035.051
427.0220, 2467.684
428.2140, 2398.680
429.4060, 2283.281
430.5980, 2125.719
431.7900, 1778.148
432.9810, 1749.676
434.1730, 1487.625
435.3640, 1231.637
436.5550, 1154.777
437.7460, 1216.898
438.9370, 1094.070
440.1280, 1410.332
441.3190, 1503.672
442.5090, 1715.195
443.6990, 2061.652
444.8890, 2341.094
446.0790, 2581.520
447.2690, 3267.930
448.4590, 3542.324
449.6480, 4538.699
450.8380, 5569.062
452.0270, 7003.410
453.2160, 9304.742
454.4050, 11593.06
455.5940, 14753.37
456.7820, 18730.66
457.9710, 23483.93
459.1590, 28835.20
460.3470, 34335.45
461.5350, 38039.68
462.7230, 40096.17
463.9110, 40587.23
465.0990, 38005.34
466.2860, 33962.70
467.4730, 28609.42
468.6600, 24298.41
469.8470, 20294.70
471.0340, 17437.85
472.2210, 15074.59
473.4070, 13004.41
474.5940, 10899.45
475.7800, 8877.648
476.9660, 7246.594
478.1520, 6300.496
479.3380, 5472.645
480.5230, 4773.859
481.7090, 4626.598
482.8940, 4240.934
484.0790, 4040.891
485.2650, 4490.164
486.4490, 4600.164
487.6340, 4909.320
488.8190, 5573.660
490.0030, 6426.047
491.1870, 7601.512
492.3720, 8599.062
493.5550, 10576.66
494.7390, 13078.32
495.9230, 16369.02
497.1060, 20653.77
498.2900, 26907.62
499.4730, 34293.62
500.6560, 45119.69
501.8390, 58886.77
503.0220, 74894.97
504.2040, 93084.25
505.3870, 109619.6
506.5690, 124245.9
507.7510, 130508.4
508.9330, 129837.9
510.1150, 117396.6
511.2970, 100807.3
512.4780, 81981.09
513.6600, 63214.11
514.8410, 48063.35
516.0220, 36611.54
517.2030, 28992.44
518.3840, 23296.85
519.5650, 19461.53
520.7450, 16748.10
521.9250, 15914.70
523.1060, 14764.20
524.2860, 14505.54
525.4660, 14295.60
526.6450, 14137.05
527.8250, 13586.53
529.0040, 12120.07
530.1840, 10625.68
531.3630, 9488.316
532.5420, 7663.051
533.7200, 6319.805
534.8990, 5393.586
536.0780, 4431.387
537.2560, 3824.211
538.4340, 3194.062
539.6120, 2908.941
540.7900, 2794.836
541.9680, 2230.766
543.1460, 2050.711
544.3230, 2209.688
545.5000, 1714.520
546.6770, 1441.125
547.8540, 1745.664
549.0310, 1681.660
550.2080, 1695.500
551.3840, 1517.305
552.5610, 1565.273
553.7370, 1430.301
554.9130, 1221.832
556.0890, 1145.098
557.2650, 981.5430
558.4400, 994.7695
559.6160, 998.5781
560.7910, 1127.891
561.9660, 1064.309
563.1410, 965.7578
564.3160, 1130.250
565.4910, 977.2695
566.6650, 804.3203
567.8400, 718.9102
569.0140, 697.5312
570.1880, 337.1992
571.3620, 465.9102
572.5360, 567.6445
573.7090, 566.4805
574.8830, 224.3516
576.0560, 267.2969
577.2290, 3.726563
578.4020, 109.5000
579.5750, 59.66406
580.7480, 230.3945
581.9200, 258.4922
583.0930, 6.371094
584.2650, 427.7852
585.4370, 865.9727
586.6090, 601.1914
587.7810, 793.4375
588.9520, 520.7148
590.1240, 690.0195
591.2950, 715.3555
592.4660, 1005.723
593.6370, 723.1172
594.8080, 767.5430
595.9790, 932.0000
597.1500, 255.4844
598.3200, 552.0000
599.4900, 100.5430
600.6600, 228.1172
601.8300, 302.7227
603.0000, 223.6445
604.1700, 38.01953
605.3390, 250.6328
606.5080, 213.6836
607.6770, 35.08594
608.8460, 114.0625
610.0150, 183.8125
611.1840, 203.8164
612.3520, 401.8555
613.5210, 458.9531
614.6890, 820.1523
615.8570, 728.4922
617.0250, 803.9453
618.1930, 652.4648
619.3600, 1010.070
620.5280, 950.7070
621.6950, 1482.500
622.8620, 954.3242
624.0290, 1034.227
625.1960, 1379.156
626.3630, 783.1211
627.5290, 996.1133
628.6960, 474.1406
629.8620, 942.4336
631.0280, 527.7500
632.1940, 823.8555
633.3600, 465.9805
634.5250, 312.1367
635.6910, 599.3438
636.8560, 147.5469
638.0210, 752.6133
639.1860, 747.5039
640.3510, 541.9883
641.5150, 176.6367
642.6800, 476.5859
643.8440, 322.5352
645.0080, 833.6641
646.1720, 674.4531
647.3360, 953.4297
648.5000, 618.8242
649.6640, 639.0977
650.8270, 936.8594
651.9900, 866.3750
653.1530, 642.0625
654.3160, 777.5977
655.4790, 917.5234
656.6420, 833.7070
657.8040, 851.9805
658.9660, 692.0469
660.1290, 726.8711
661.2910, 751.5859
662.4520, 678.2852
663.6140, 771.9766
664.7760, 622.2148
665.9370, 912.7461
667.0980, 1134.387
668.2590, 1191.062
669.4200, 1120.602
670.5810, 1250.621
671.7420, 1398.734
672.9020, 1724.883
674.0620, 2072.906
675.2220, 2511.352
676.3820, 2849.953
677.5420, 3612.984
678.7020, 4403.008
679.8610, 5083.031
681.0210, 5194.051
682.1800, 5751.070
683.3390, 5642.652
684.4980, 5524.668
685.6560, 4836.691
686.8150, 3834.715
687.9730, 3462.789
689.1320, 2304.859
690.2900, 1835.562
691.4480, 1607.656
692.6050, 948.7578
693.7630, 881.8750
694.9200, 864.0312
696.0780, 609.1797
697.2350, 638.3281
698.3920, 726.4844
699.5490, 415.6328
700.7050, 914.7812
701.8620, 664.9297
703.0180, 518.0625
704.1740, 640.1953
705.3300, 768.5234
706.4860, 1357.445
707.6420, 1429.570
708.7970, 2133.680
709.9530, 2641.781
711.1080, 2939.883
712.2630, 3342.977
713.4180, 3306.062
714.5730, 3570.141
715.7280, 3409.219
716.8820, 3436.211
718.0360, 2762.266
719.1900, 2604.312
720.3440, 2357.352
721.4980, 1766.383
722.6520, 2432.320
723.8050, 2073.336
724.9590, 1922.344
726.1120, 1865.336
727.2650, 1954.320
728.4180, 1714.297
729.5700, 1598.266
730.7230, 1299.219
731.8750, 855.1641
733.0280, 953.1016
734.1800, 638.5078
735.3320, 399.9375
736.4830, 319.8438
737.6350, 475.7266
738.7860, 284.6172
739.9380, 322.4844
741.0890, 608.3438
742.2400, 270.9375
743.3910, 743.4375
744.5410, 243.2578
745.6920, 815.0938
746.8420, 871.8984
747.9920, 684.1562
749.1420, 1022.930
750.2920, 1222.688
751.4420, 1291.445
752.5910, 1362.180
753.7410, 1285.898
754.8900, 875.6172
756.0390, 801.3125
757.1880, 617.3516
758.3370, 628.6484
759.4850, 399.2969
760.6340, 425.9297
761.7820, 473.5391
762.9300, 371.1719
764.0780, 341.7812
765.2260, 241.2812
766.3730, 180.8203
767.5210, 55.64844
768.6680, 118.1953
769.8150, 246.1328
770.9620, 16.53906
772.1090, 232.7188
773.2560, 0.9609380
774.4020, 384.1562
775.5490, 57.67188
776.6950, 308.5859
777.8410, 93.70312
778.9870, 84.06250
780.1330, 226.1875
781.2780, 113.6172
782.4230, 179.2031
783.5690, 82.14844
784.7140, 270.5625
785.8590, 244.4844
787.0030, 305.5859
788.1480, 25.90625
789.2920, 85.28906
790.4370, 87.43750
791.5810, 257.6172
792.7250, 105.0000
793.8690, 235.7344
795.0120, 76.64062
796.1560, 72.64844
797.2990, 3.765625
798.4420, 351.9141
799.5850, 17.09375
800.7280, 231.2188
801.8710, 298.7734
803.0130, 219.0938
804.1550, 18.71875
805.2980, 46.36719
806.4400, 124.0312
807.5810, 219.8672
808.7230, 213.3281
809.8650, 123.7500
811.0060, 153.1953
812.1470, 323.3594
813.2880, 188.7344
814.4290, 148.2188
815.5700, 412.5703
816.7110, 508.0859
817.8510, 338.2188
818.9910, 517.1641
820.1310, 72.84375
821.2710, 175.4062
822.4110, 513.8906
823.5510, 359.2500
824.6900, 543.5938
825.8290, 598.7734
826.9680, 67.07812
828.1070, 555.9688
829.2460, 603.4531
830.3850, 197.7266
831.5230, 651.5234
832.6620, 308.2266
833.8000, 249.3672
834.9380, 404.6406
836.0760, 336.6797
837.2130, 620.5703
838.3510, 367.1016
839.4880, 242.4609
840.6250, 512.8125
841.7620, 585.1484
842.8990, 476.4609
844.0360, 568.2578
845.1720, 409.0469
846.3090, 565.3125
847.4450, 459.6328
848.5810, 611.9219
849.7170, 543.2031
850.8530, 878.4609
851.9880, 616.7109
853.1240, 758.9297
854.2590, 772.1484
855.3940, 699.3359
856.5290, 920.5156
857.6640, 651.6797
858.7980, 591.8125
859.9330, 784.9531
861.0670, 983.0625
862.2010, 938.1250
863.3350, 885.2266
864.4690, 845.3047
865.6030, 725.3438
866.7360, 421.3828
867.8690, 308.3984
869.0020, 313.3281
870.1350, 246.8203
871.2680, 390.3672
872.4010, 409.3594
873.5330, 381.3359
874.6660, 604.3047
875.7980, 635.2344
876.9300, 731.3047
878.0620, 787.3047
879.1930, 636.3828
880.3250, 520.4609
881.4560, 564.5859
882.5870, 541.7266
883.7180, 425.8672
884.8490, 199.0078
885.9800, 305.1406
887.1100, 434.2812
888.2410, 636.4141
889.3710, 430.5234
890.5010, 599.2500
891.6310, 325.7188
892.7610, 604.7969
893.8900, 625.8750
895.0200, 476.9297
896.1490, 539.9766
897.2780, 290.0078
898.4070, 468.8281
899.5360, 521.0547
900.6640, 706.1016
901.7920, 709.1484
902.9210, 688.1797
904.0490, 722.9688
905.1770, 837.7500
906.3040, 957.7578
907.4320, 916.8359
908.5600, 1050.891
909.6870, 1281.914
910.8140, 1276.953
911.9410, 1153.164
913.0680, 841.5469
914.1940, 1406.367
915.3210, 1075.031
916.4470, 1667.422
917.5730, 1206.836
918.6990, 1293.070
919.8250, 1112.688
920.9500, 1421.258
922.0760, 1454.430
923.2010, 1008.742
924.3260, 1421.578
925.4510, 1310.680
926.5760, 1201.633
927.7010, 1495.859
928.8250, 1729.734
929.9500, 1752.438
931.0740, 1571.148
932.1980, 1500.102
933.3220, 1716.391
934.4450, 1628.625
935.5690, 1822.430
936.6920, 1761.789
937.8150, 1824.156
938.9380, 1823.008
940.0610, 2027.773
941.1840, 1824.508
942.3060, 2187.133
943.4290, 2219.344
944.5510, 2188.023
945.6730, 2129.742
946.7950, 1895.992
947.9160, 1889.039
949.0380, 1791.211
950.1590, 1689.672
951.2800, 1714.695
952.4010, 1760.594
953.5220, 1797.172
954.6430, 1766.758
955.7630, 1677.164
956.8840, 1090.500
958.0040, 1347.500
959.1240, 1389.281
960.2440, 1506.328
961.3640, 1315.461
962.4830, 1269.625
963.6030, 1333.438
964.7220, 1267.281
965.8410, 1508.125
966.9600, 1478.000
968.0780, 1909.898
969.1970, 2210.836
970.3150, 2076.789
971.4340, 2788.758
972.5520, 3522.797
973.6700, 3935.852
974.7870, 4825.914
975.9050, 5723.008
977.0220, 7598.125
978.1390, 9676.914
979.2560, 12166.07
980.3730, 15342.25
981.4900, 17482.88
982.6070, 20547.11
983.7230, 21987.35
984.8390, 22662.61
985.9550, 21173.91
987.0710, 19367.21
988.1870, 17067.55
989.3030, 14204.89
990.4180, 11635.27
991.5330, 9858.664
992.6480, 8977.086
993.7630, 8813.531
994.8780, 8585.992
995.9930, 7623.477
997.1070, 7837.992
998.2210, 7365.523
999.3350, 6901.086
1000.449, 6610.664
1001.563, 6063.273
1002.677, 5218.906
1003.790, 5296.555
1004.903, 5110.234
1006.016, 5587.820
1007.129, 5561.539
1008.242, 6092.297
1009.355, 7514.922
1010.467, 8326.727
1011.579, 8808.367
1012.691, 9928.664
1013.803, 10402.88
1014.915, 10342.95
1016.027, 10151.60
1017.138, 9573.281
1018.249, 8561.523
1019.360, 7395.500
1020.471, 6135.961
1021.582, 5374.984
1022.693, 4938.031
1023.803, 4065.102
1024.913, 3706.188
1026.023, 3392.297
1027.133, 3295.430
1028.243, 2983.586
1029.353, 2784.766
1030.462, 2949.969
1031.571, 2358.195
1032.680, 2905.445
1033.789, 2716.461
1034.898, 2700.750
1036.007, 2283.070
1037.115, 2169.914
1038.223, 2189.305
1039.331, 1843.766
1040.439, 1952.875
1041.547, 1638.406
1042.655, 2205.961
1043.762, 1956.562
1044.869, 2444.172
1045.976, 2544.836
1047.083, 3231.633
1048.190, 4245.492
1049.297, 5112.055
1050.403, 5788.039
1051.509, 7030.094
1052.615, 7633.891
1053.721, 9026.125
1054.827, 8708.406
1055.933, 9058.789
1057.038, 8389.297
1058.143, 7211.844
1059.248, 6834.656
1060.353, 5560.266
1061.458, 5038.719
1062.563, 4069.891
1063.667, 3187.734
1064.771, 2974.672
1065.875, 2632.664
1066.979, 2433.039
1068.083, 2183.164
1069.186, 1887.156
1070.290, 1546.914
1071.393, 793.5625
1072.496, 1302.914
1073.599, 1031.289
1074.702, 795.7266
1075.804, 698.2344
1076.907, 1026.758
1078.009, 378.3828
1079.111, 1017.031
1080.213, 902.6953
1081.315, 777.3828
1082.416, 495.0938
1083.517, 726.8281
1084.619, 749.5781
1085.720, 1017.352
1086.821, 667.1484
1087.921, 489.9609
1089.022, 760.7969
1090.122, 1065.977
1091.222, 629.8594
1092.322, 420.7656
1093.422, 496.6797
1094.522, 87.61719
1095.622, 529.3672
1096.721, 54.35156
1097.820, 562.3516
1098.919, 176.3750
1100.018, 57.42969
1101.117, 437.5156
1102.215, 69.39844
1103.314, 234.6719
1104.412, 595.8672
1105.510, 383.9688
1106.608, 440.0859
1107.705, 190.2266
1108.803, 689.3906
1109.900, 16.42969
1110.997, 113.7422
1112.094, 205.9453
1113.191, 245.8359
1114.288, 426.2734
1115.384, 50.41406
1116.481, 407.5625
1117.577, 400.7344
1118.673, 276.9297
1119.769, 219.1328
1120.864, 154.3672
1121.960, 228.6094
1123.055, 308.8672
1124.150, 401.1484
1125.245, 350.0938
1126.340, 403.1250
1127.434, 344.0938
1128.529, 144.4531
1129.623, 378.8203
1130.717, 235.3984
1131.811, 377.6172
1132.905, 192.0547
1133.999, 92.50781
1135.092, 67.97656
1136.185, 217.4609
1137.279, 104.0312
1138.371, 180.4297
1139.464, 124.9062
1140.557, 226.5938
1141.649, 182.8047
1142.742, 27.78125
1143.834, 287.3750
1144.926, 18.09375
1146.017, 213.8281
1147.109, 5.664063
1148.200, 25.48438
1149.292, 16.32812
1150.383, 135.8281
1151.474, 56.99219
1152.564, 196.1641
1153.655, 556.3359
1154.745, 245.5312
1155.835, 463.7344
1156.925, 63.96875
1158.015, 381.2188
1159.105, 294.4844
1160.195, 106.7656
1161.284, 64.07031
1162.373, 184.3984
1163.462, 261.7422
1164.551, 189.8984
1165.640, 706.3828
1166.728, 681.6797
1167.817, 22.00000
1168.905, 497.3281
1169.993, 408.6719
1171.081, 239.9609
1172.168, 344.3047
1173.256, 381.5859
1174.343, 236.8906
1175.430, 277.2188
1176.517, 308.5547
1177.604, 286.9219
1178.691, 119.2969
1179.777, 15.70312
1180.864, 591.1094
1181.950, 145.5391
1183.036, 45.02344
1184.121, 489.5938
1185.207, 200.6094
1186.293, 61.82031
1187.378, 337.0547
1188.463, 244.3047
1189.548, 37.42969
1190.633, 89.17188
1191.717, 11.03906
1192.802, 190.7344
1193.886, 34.59375
1194.970, 118.5391
1196.054, 157.6875
1197.138, 143.9766
1198.221, 249.6797
1199.305, 309.0234
1200.388, 324.3438
1201.471, 164.1016
1202.554, 230.6250
1203.637, 206.2891
1204.719, 178.2031
1205.801, 276.6328
1206.884, 142.0234
1207.966, 238.4766
1209.048, 242.7109
1210.129, 289.1172
1211.211, 244.1562
1212.292, 227.4062
1213.373, 302.1406
1214.454, 326.2266
1215.535, 270.7812
1216.616, 319.9609
1217.696, 182.1641
1218.777, 50.53125
1219.857, 93.96094
1220.937, 157.5156
1222.017, 442.0000
1223.096, 480.5078
1224.176, 216.0391
1225.255, 124.4219
1226.334, 235.0781
1227.413, 343.5938
1228.492, 346.1250
1229.570, 143.6797
1230.649, 74.75000
1231.727, 50.79688
1232.805, 107.3516
1233.883, 157.0703
1234.961, 398.4531
1236.038, 166.0000
1237.116, 438.5625
1238.193, 249.1562
1239.270, 457.7500
1240.347, 326.7266
1241.424, 171.3672
1242.500, 763.0234
1243.577, 233.2812
1244.653, 637.9844
1245.729, 560.7031
1246.805, 105.4375
1247.880, 309.1953
1248.956, 207.9844
1250.031, 853.7891
1251.106, 704.6172
1252.181, 108.4609
1253.256, 423.3281
1254.331, 117.2188
1255.405, 318.1406
1256.480, 263.0625
1257.554, 416.0156
1258.628, 137.9922
1259.701, 265.9922
1260.775, 356.0078
1261.849, 39.05469
1262.922, 426.1250
1263.995, 819.2188
1265.068, 293.3359
1266.141, 695.4688
1267.213, 630.7422
1268.286, 512.9297
1269.358, 766.1328
1270.430, 538.5078
1271.502, 363.7734
1272.573, 937.2344
1273.645, 526.0781
1274.716, 1036.062
1275.788, 606.2578
1276.859, 670.9062
1277.929, 930.5859
1279.000, 804.7500
1280.071, 839.3750
1281.141, 419.2734
1282.211, 677.8047
1283.281, 283.3672
1284.351, 147.9688
1285.421, 322.6094
1286.490, 302.2578
1287.559, 370.9453
1288.628, 626.6719
1289.697, 553.4141
1290.766, 237.2031
1291.835, 542.0234
1292.903, 684.8750
1293.972, 371.0781
1295.040, 553.0000
1296.108, 496.6484
1297.175, 494.5078
1298.243, 446.4375
1299.310, 502.4844
1300.377, 336.9609
1301.444, 134.0859
1302.511, 584.2500
1303.578, 113.4375
1304.645, 430.6641
1305.711, 383.9375
1306.777, 167.2422
1307.843, 152.5938
1308.909, 348.2891
1309.975, 570.7031
1311.040, 745.1562
1312.105, 377.0000
1313.171, 673.4766
1314.235, 435.0469
1315.300, 499.6719
1316.365, 584.3359
1317.429, 866.0469
1318.494, 729.6250
1319.558, 312.5000
1320.622, 504.5859
1321.685, 667.0859
1322.749, 97.09375
1323.812, 554.1172
1324.876, 321.1797
1325.939, 333.3047
1327.001, 298.4688
1328.064, 170.6719
1329.127, 235.3906
1330.189, 575.5859
1331.251, 760.9844
1332.313, 799.9609
1333.375, 253.5234
1334.437, 463.0078
1335.498, 369.5859
1336.560, 263.8047
1337.621, 580.1016
1338.682, 118.9609
1339.742, 428.2500
1340.803, 430.0625
1341.863, 572.6406
1342.924, 410.5000
1343.984, 342.4922
1345.044, 579.4141
1346.104, 647.5625
1347.163, 450.4141
1348.222, 287.4922
1349.282, 664.0938
1350.341, 873.5625
1351.400, 924.9609
1352.458, 344.6016
1353.517, 573.3125
1354.575, 481.8750
1355.633, 377.0781
1356.691, 727.4844
1357.749, 239.2188
1358.807, 578.4531
1359.864, 589.8125
1360.922, 753.1875
1361.979, 579.4922
1363.036, 515.5625
1364.092, 780.6797
1365.149, 863.6719
1366.205, 660.4062
1367.262, 833.5859
1368.318, 334.2656
1369.374, 425.2188
1370.429, 771.1094
1371.485, 584.6562
1372.540, 764.1484
1373.596, 804.3906
1374.651, 211.2812
1375.705, 719.6250
1376.760, 751.7188
1377.815, 294.6484
1378.869, 765.4375
1379.923, 375.9844
1380.977, 293.5781
1382.031, 442.3125
1383.085, 350.2031
1384.138, 638.0547
1385.191, 559.9453
1386.244, 449.0938
1387.297, 481.0938
1388.350, 108.8359
1389.403, 486.6484
1390.455, 352.2109
1391.507, 472.4141
1392.559, 650.3750
1393.611, 386.3828
1394.663, 590.4844
1395.714, 68.94531
1396.766, 154.6406
1397.817, 175.0625
1398.868, 583.5234
1399.919, 65.78125
1400.969, 134.9531
1402.020, 454.0000
1403.070, 423.5625
1404.120, 539.3906
1405.170, 222.4922
1406.220, 312.2578
1407.270, 290.0078
1408.319, 655.0156
1409.368, 714.3047
1410.417, 405.1406
1411.466, 97.55469
1412.515, 490.6328
1413.563, 219.7656
1414.612, 307.1641
1415.660, 24.64062
1416.708, 61.57031
1417.756, 93.58594
1418.803, 289.3594
1419.851, 11.28906
1420.898, 332.1797
1421.945, 303.5234
1422.992, 384.5391
1424.039, 453.5391
1425.086, 22.91406
1426.132, 1.968750
1427.178, 567.0625
1428.225, 238.6406
1429.270, 90.60938
1430.316, 70.95312
1431.362, 656.5000
1432.407, 679.6250
1433.452, 30.54688
1434.497, 589.6719
1435.542, 405.5859
1436.587, 442.5156
1437.631, 398.9375
1438.676, 379.3828
1439.720, 56.57031
1440.764, 133.7891
1441.807, 536.1172
1442.851, 384.3672
1443.895, 610.2969
1444.938, 149.0469
1445.981, 95.35156
1447.024, 150.0312
1448.066, 251.4844
1449.109, 30.76562
1450.151, 441.1875
1451.194, 432.1016
1452.236, 57.39844
1453.277, 75.89844
1454.319, 27.87500
1455.361, 661.7031
1456.402, 358.0000
1457.443, 12.01562
1458.484, 361.2344
1459.525, 496.4531
1460.565, 309.5547
1461.606, 293.9297
1462.646, 46.32031
1463.686, 111.4062
1464.726, 97.97656
1465.766, 366.8281
1466.805, 28.28125
1467.845, 389.1641
1468.884, 67.02344
1469.923, 456.4141
1470.962, 120.2422
1472.000, 430.6016
1473.039, 30.65625
1474.077, 66.68750
1475.115, 208.5156
1476.153, 493.3203
1477.191, 228.4141
1478.229, 547.3984
1479.266, 354.0859
1480.303, 494.3516
1481.340, 449.8203
1482.377, 174.0000
1483.414, 550.8438
1484.451, 332.5938
1485.487, 516.3516
1486.523, 49.09375
1487.559, 373.4297
1488.595, 527.4766
1489.631, 646.5078
1490.666, 618.0469
1491.701, 523.7656
1492.736, 532.8906
1493.771, 369.7969
1494.806, 44.79688
1495.841, 62.69531
1496.875, 328.1875
1497.909, 515.4766
1498.943, 172.8516
1499.977, 400.6172
1501.011, 371.6719
1502.045, 585.9219
1503.078, 334.4375
1504.111, 637.5547
1505.144, 195.0703
1506.177, 554.6641
1507.209, 696.7266
1508.242, 19.87500
1509.274, 688.2031
1510.306, 141.9922
1511.338, 311.8281
1512.370, 436.5156
1513.402, 209.7734
1514.433, 666.1016
1515.464, 31.93750
1516.495, 167.3750
1517.526, 588.4688
1518.557, 321.0781
1519.587, 728.7891
1520.617, 457.6719
1521.648, 45.00781
1522.678, 632.8984
1523.707, 191.6719
1524.737, 426.5078
1525.766, 99.10156
1526.796, 727.5547
1527.825, 425.5938
1528.854, 166.8203
1529.882, 424.8203
1530.911, 661.5703
1531.939, 293.1328
1532.967, 379.6719
1533.995, 294.5078
1535.023, 588.1328
1536.051, 632.6641
1537.078, 679.4766
1538.106, 142.2891
1539.133, 361.1172
1540.160, 277.2656
1541.186, 181.1484
1542.213, 507.0625
1543.239, 56.03125
1544.266, 375.7578
1545.292, 388.1641
1546.318, 541.6797
1547.343, 390.7266
1548.369, 334.2266
1549.394, 583.0156
1550.419, 663.3047
1551.444, 478.8047
1552.469, 643.5391
1553.494, 185.5234
1554.518, 274.7734
1555.542, 600.5234
1556.566, 433.6094
1557.590, 606.4922
1558.614, 650.8516
1559.638, 108.9609
1560.661, 588.4141
1561.684, 627.2734
1562.707, 213.8203
1563.730, 661.0391
1564.753, 312.1172
1565.775, 330.7734
1566.797, 93.05469
1567.819, 407.2266
1568.841, 560.0859
1569.863, 625.7969
1570.885, 32.04688
1571.906, 555.6719
1572.927, 277.7266
1573.948, 327.8906
1574.969, 470.0078
1575.990, 239.6406
1577.010, 0.0000000E+00
##END=



