##NAMES=Cerussite
##RRUFFID=R050298
##IDEAL CHEMISTRY=Pb^2+^CO_3_
##LOCALITY=Bunker Hill mine, Shoshone County, Idaho, USA
##OWNER=RRUFF
##SOURCE=Eugene Schlepp
##DESCRIPTION=Group of colorless tabular crystals
##STATUS=The identification of this mineral has been confirmed by X-ray diffraction and chemical analysis
##URL=rruff.info/R050298
##MEASURED CHEMISTRY=Pb_1.00_CO_3_
##PIN_ID=L01724
##ORIENTATION=Laser parallel to c* (0 0 1). Fiducial mark perpendicular to laser is parallel to a [1 0 0]
51.43100, 0.0000000E+00
52.67100, 48.11920
53.91000, 15.14252
55.14900, 24.35779
56.38700, 56.54364
57.62600, 81.97974
58.86400, 51.88379
60.10300, 8.595337
61.34100, 15.46118
62.57900, 174.4904
63.81700, 497.2771
65.05400, 1028.859
66.29200, 1756.462
67.52900, 2730.458
68.76700, 3767.335
70.00400, 5126.673
71.24100, 6426.118
72.47700, 7599.352
73.71400, 8492.099
74.95100, 8846.114
76.18700, 8519.195
77.42300, 7714.156
78.65900, 6891.840
79.89500, 6066.111
81.13100, 5253.841
82.36700, 4640.934
83.60200, 4063.301
84.83700, 3802.862
86.07200, 3464.554
87.30800, 3236.323
88.54200, 3039.112
89.77700, 2907.510
91.01200, 2812.306
92.24600, 2788.759
93.48000, 2763.826
94.71400, 2759.563
95.94800, 2839.930
97.18200, 2902.890
98.41600, 2961.413
99.64900, 3022.472
100.8830, 3115.513
102.1160, 3203.765
103.3490, 3330.615
104.5820, 3426.572
105.8150, 3579.948
107.0470, 3725.725
108.2800, 3784.885
109.5120, 3948.413
110.7440, 4068.307
111.9760, 4364.618
113.2080, 4611.305
114.4400, 4981.377
115.6710, 5374.819
116.9030, 5675.577
118.1340, 6007.710
119.3650, 6323.245
120.5960, 6344.164
121.8270, 6311.495
123.0580, 6143.242
124.2880, 5817.242
125.5190, 5584.429
126.7490, 5259.580
127.9790, 5027.737
129.2090, 4864.931
130.4390, 4895.142
131.6680, 4769.364
132.8980, 4733.635
134.1270, 4646.984
135.3560, 4438.424
136.5850, 4111.981
137.8140, 3820.637
139.0430, 3517.423
140.2710, 3119.332
141.5000, 2782.346
142.7280, 2645.497
143.9560, 2363.800
145.1840, 2207.235
146.4120, 1975.791
147.6390, 1987.487
148.8670, 1823.287
150.0940, 1777.221
151.3210, 1696.250
152.5490, 1680.389
153.7750, 1611.620
155.0020, 1446.939
156.2290, 1421.346
157.4550, 1265.841
158.6810, 1160.423
159.9080, 1117.100
161.1340, 1008.863
162.3590, 960.7129
163.5850, 1018.658
164.8110, 892.6777
166.0360, 838.7666
167.2610, 942.9229
168.4860, 832.1479
169.7110, 907.7361
170.9360, 917.7876
172.1610, 981.4448
173.3850, 1012.735
174.6100, 1084.277
175.8340, 1073.884
177.0580, 1101.023
178.2820, 1055.037
179.5050, 1093.846
180.7290, 1040.481
181.9520, 999.1140
183.1760, 952.7603
184.3990, 1012.572
185.6220, 973.0322
186.8450, 1021.807
188.0670, 925.5969
189.2900, 1005.413
190.5120, 1017.573
191.7340, 1029.870
192.9560, 1087.263
194.1780, 1120.246
195.4000, 1189.772
196.6220, 1227.500
197.8430, 1344.013
199.0640, 1414.122
200.2860, 1570.857
201.5070, 1570.141
202.7270, 1619.780
203.9480, 1768.471
205.1690, 1878.297
206.3890, 1958.870
207.6090, 2188.544
208.8290, 2346.333
210.0490, 2398.661
211.2690, 2487.107
212.4890, 2658.501
213.7080, 2849.597
214.9280, 2814.854
216.1470, 2969.101
217.3660, 2931.725
218.5850, 3030.274
219.8030, 2965.362
221.0220, 2881.343
222.2400, 2840.272
223.4590, 2791.476
224.6770, 2730.866
225.8950, 2628.407
227.1120, 2544.019
228.3300, 2502.793
229.5480, 2356.306
230.7650, 2290.906
231.9820, 2078.779
233.1990, 1937.628
234.4160, 1796.600
235.6330, 1630.540
236.8490, 1451.505
238.0660, 1304.672
239.2820, 1250.692
240.4980, 1132.965
241.7140, 1079.547
242.9300, 968.1345
244.1460, 822.4104
245.3610, 776.5310
246.5770, 779.9658
247.7920, 675.4890
249.0070, 676.9858
250.2220, 611.6992
251.4370, 528.0710
252.6510, 462.2388
253.8660, 414.1960
255.0800, 374.1370
256.2940, 392.0229
257.5080, 351.0063
258.7220, 320.9487
259.9360, 255.9983
261.1490, 272.3315
262.3630, 247.2581
263.5760, 183.5728
264.7890, 143.9727
266.0020, 113.4026
267.2150, 76.01416
268.4270, 56.55078
269.6400, 49.44678
270.8520, 36.43262
272.0640, 77.13379
273.2760, 59.49634
274.4880, 54.62720
275.7000, 66.09912
276.9120, 43.61255
278.1230, 25.48999
279.3340, 13.67773
280.5450, 22.89893
281.7560, 6.198486
282.9670, 45.48315
284.1780, 12.05811
285.3880, 25.52319
286.5980, 34.67236
287.8090, 9.618652
289.0190, 81.08887
290.2290, 17.18433
291.4380, 14.52100
292.6480, 34.23315
293.8570, 21.05396
295.0670, 50.65259
296.2760, 50.07397
297.4850, 24.78589
298.6930, 19.49780
299.9020, 51.21021
301.1110, 15.68579
302.3190, 75.32397
303.5270, 9.946045
304.7350, 6.762695
305.9430, 10.50781
307.1510, 10.45850
308.3580, 19.81177
309.5660, 30.43115
310.7730, 22.86914
311.9800, 44.13037
313.1870, 0.1450200
314.3940, 97.26025
315.6010, 30.02051
316.8070, 49.23364
318.0130, 50.76440
319.2200, 20.49829
320.4260, 14.61914
321.6310, 50.28223
322.8370, 64.93457
324.0430, 3.666748
325.2480, 65.88477
326.4540, 73.72632
327.6590, 38.61548
328.8640, 32.59521
330.0680, 59.59912
331.2730, 56.67065
332.4780, 69.77710
333.6820, 27.93774
334.8860, 33.19604
336.0900, 5.491211
337.2940, 10.12427
338.4980, 15.28857
339.7010, 11.73804
340.9050, 19.20850
342.1080, 0.4277340
343.3110, 46.10352
344.5140, 38.63623
345.7170, 60.16748
346.9200, 57.18494
348.1220, 12.26489
349.3240, 39.81885
350.5270, 6.384521
351.7290, 4.3701001E-02
352.9310, 39.46973
354.1320, 31.90381
355.3340, 56.34180
356.5350, 20.78540
357.7370, 12.22534
358.9380, 15.65723
360.1390, 23.11523
361.3400, 20.53027
362.5400, 5.934814
363.7410, 0.3361820
364.9410, 30.70166
366.1410, 39.05542
367.3410, 11.39893
368.5410, 37.31616
369.7410, 22.34204
370.9400, 42.16406
372.1400, 42.41846
373.3390, 58.65747
374.5380, 27.88574
375.7370, 25.31982
376.9360, 8.552002
378.1350, 9.226807
379.3330, 12.86475
380.5310, 38.06030
381.7300, 36.47461
382.9280, 89.69287
384.1260, 1.285400
385.3230, 35.87891
386.5210, 38.82959
387.7180, 101.7605
388.9160, 58.66724
390.1130, 6.568848
391.3100, 96.50122
392.5060, 122.3828
393.7030, 53.18726
394.9000, 67.01233
396.0960, 77.77771
397.2920, 91.50549
398.4880, 96.49011
399.6840, 105.0645
400.8800, 101.9612
402.0750, 109.6265
403.2710, 105.3735
404.4660, 93.26575
405.6610, 137.2153
406.8560, 100.4993
408.0510, 99.34778
409.2450, 71.25232
410.4400, 143.3007
411.6340, 108.9155
412.8280, 87.82605
414.0220, 146.4883
415.2160, 66.87097
416.4100, 76.33765
417.6030, 172.7301
418.7970, 118.0233
419.9900, 163.5460
421.1830, 140.7917
422.3760, 165.1321
423.5690, 149.3342
424.7610, 141.7836
425.9540, 147.1794
427.1460, 128.4890
428.3380, 140.8335
429.5300, 116.4985
430.7220, 156.9834
431.9140, 160.0620
433.1050, 164.8647
434.2970, 160.8501
435.4880, 164.8774
436.6790, 174.1072
437.8700, 177.4926
439.0610, 138.1543
440.2510, 222.7306
441.4420, 188.1357
442.6320, 214.5504
443.8220, 142.9683
445.0120, 157.4741
446.2020, 191.6930
447.3910, 164.9636
448.5810, 244.5951
449.7700, 113.2679
450.9600, 135.6340
452.1490, 156.6803
453.3370, 141.3035
454.5260, 129.1395
455.7150, 166.0581
456.9030, 137.0833
458.0910, 163.6763
459.2800, 118.0261
460.4670, 136.4639
461.6550, 150.9299
462.8430, 166.4600
464.0300, 180.9575
465.2180, 136.9111
466.4050, 138.0496
467.5920, 102.9412
468.7790, 141.8857
469.9650, 140.2905
471.1520, 146.3569
472.3380, 142.6646
473.5250, 142.6179
474.7110, 140.7959
475.8970, 137.3787
477.0820, 144.5493
478.2680, 144.3745
479.4540, 168.0171
480.6390, 154.7749
481.8240, 190.2710
483.0090, 220.8694
484.1940, 125.0176
485.3780, 181.0754
486.5630, 153.5845
487.7470, 167.4126
488.9320, 141.9834
490.1160, 153.6311
491.3000, 173.6377
492.4830, 129.0615
493.6670, 141.2212
494.8500, 141.6475
496.0340, 131.3962
497.2170, 143.9463
498.4000, 136.6882
499.5820, 159.7615
500.7650, 146.8633
501.9480, 119.0894
503.1300, 128.0154
504.3120, 134.7627
505.4940, 121.7690
506.6760, 166.4817
507.8580, 133.3838
509.0390, 159.4841
510.2210, 62.45044
511.4020, 113.3557
512.5830, 82.22900
513.7640, 177.1433
514.9450, 172.9985
516.1250, 143.6521
517.3060, 80.87231
518.4860, 103.0417
519.6660, 102.3303
520.8460, 139.4175
522.0260, 87.60742
523.2060, 62.83545
524.3850, 76.76953
525.5650, 118.2156
526.7440, 73.30786
527.9230, 112.1426
529.1020, 99.01904
530.2810, 114.2524
531.4590, 95.68384
532.6380, 77.84082
533.8160, 82.76025
534.9940, 107.1128
536.1720, 84.09570
537.3500, 91.45093
538.5270, 107.0391
539.7050, 75.86426
540.8820, 60.73096
542.0590, 69.67456
543.2360, 87.54199
544.4130, 68.46948
545.5900, 52.30688
546.7660, 46.87476
547.9430, 28.86157
549.1190, 49.46924
550.2950, 44.07837
551.4710, 33.76050
552.6470, 59.67114
553.8220, 37.24829
554.9980, 49.29932
556.1730, 94.15967
557.3480, 60.50757
558.5230, 64.09326
559.6980, 96.91089
560.8730, 45.38867
562.0470, 143.1775
563.2220, 57.24731
564.3960, 84.00903
565.5700, 68.73755
566.7440, 1.613281
567.9170, 49.04370
569.0910, 58.65186
570.2640, 50.17896
571.4380, 60.37183
572.6110, 64.01050
573.7840, 88.84399
574.9570, 117.5554
576.1290, 36.40894
577.3020, 85.08813
578.4740, 24.70361
579.6460, 60.30347
580.8180, 155.6106
581.9900, 50.20020
583.1620, 133.7808
584.3330, 52.35254
585.5040, 50.67798
586.6760, 127.1597
587.8470, 15.72266
589.0180, 45.25146
590.1880, 115.7898
591.3590, 146.5537
592.5290, 151.4785
593.7000, 61.08521
594.8700, 136.2834
596.0400, 103.2920
597.2090, 77.75049
598.3790, 79.87549
599.5490, 44.33496
600.7180, 39.58887
601.8870, 23.40601
603.0560, 41.77515
604.2250, 32.26221
605.3940, 80.74634
606.5620, 49.95532
607.7300, 63.21558
608.8990, 36.95142
610.0670, 38.97021
611.2350, 77.64844
612.4020, 43.07227
613.5700, 59.51343
614.7370, 67.94702
615.9050, 109.3945
617.0720, 103.8523
618.2390, 116.3728
619.4060, 80.71069
620.5720, 88.29907
621.7390, 77.84009
622.9050, 105.3816
624.0710, 150.9231
625.2370, 178.3274
626.4030, 149.8789
627.5690, 125.4392
628.7340, 129.0081
629.9000, 119.5928
631.0650, 117.1902
632.2300, 144.7905
633.3950, 64.39697
634.5600, 64.00903
635.7240, 140.6221
636.8890, 116.2375
638.0530, 161.8486
639.2170, 154.4546
640.3810, 54.05884
641.5450, 56.66284
642.7080, 54.23779
643.8720, 50.84082
645.0350, 67.44336
646.1980, 23.03442
647.3610, 72.64355
648.5240, 36.25171
649.6870, 60.71924
650.8490, 71.73340
652.0120, 40.35107
653.1740, 42.81592
654.3360, 40.44287
655.4980, 5.931396
656.6600, 71.68774
657.8210, 12.08105
658.9830, 9.654053
660.1440, 56.23828
661.3050, 93.87305
662.4660, 126.4043
663.6270, 78.73926
664.7870, 112.2493
665.9480, 218.8921
667.1080, 173.3601
668.2680, 291.0173
669.4280, 397.6697
670.5880, 538.3276
671.7480, 672.9749
672.9070, 652.5586
674.0670, 730.1743
675.2260, 840.8477
676.3850, 799.4749
677.5440, 623.1677
678.7030, 404.8477
679.8610, 250.5549
681.0200, 210.0413
682.1780, 195.6047
683.3360, 186.2676
684.4940, 139.8264
685.6520, 77.21826
686.8090, 92.52905
687.9670, 58.48438
689.1240, 111.8508
690.2810, 64.13770
691.4380, 77.25317
692.5950, 53.78052
693.7520, 95.98779
694.9080, 105.4175
696.0650, 132.1057
697.2210, 121.6807
698.3770, 92.30176
699.5330, 31.99976
700.6880, 35.44409
701.8440, 9.857666
702.9990, 60.72119
704.1550, 29.41553
705.3100, 33.06470
706.4650, 36.29370
707.6190, 7.189209
708.7740, 11.37402
709.9290, 0.2287600
711.0830, 20.60083
712.2370, 5.750732
713.3910, 3.947754
714.5450, 7.354248
715.6980, 4.056641
716.8520, 30.75928
718.0050, 23.99268
719.1580, 89.64771
720.3110, 60.35254
721.4640, 35.97314
722.6170, 82.69434
723.7700, 173.3303
724.9220, 80.78735
726.0740, 144.4990
727.2260, 106.7029
728.3780, 69.42505
729.5300, 144.1392
730.6810, 139.8569
731.8330, 98.57739
732.9840, 115.2915
734.1350, 70.01538
735.2860, 75.74219
736.4370, 133.4702
737.5880, 119.2004
738.7380, 67.87158
739.8880, 39.52344
741.0390, 31.99390
742.1890, 23.68359
743.3380, 19.26978
744.4880, 41.01221
745.6380, 41.73877
746.7870, 46.97583
747.9360, 94.71411
749.0850, 31.41382
750.2340, 115.1658
751.3830, 2.940186
752.5310, 62.69409
753.6800, 11.44922
754.8280, 19.25098
755.9760, 24.05103
757.1240, 38.25537
758.2720, 2.487549
759.4190, 21.23047
760.5670, 25.97412
761.7140, 47.71851
762.8610, 21.47437
764.0080, 34.88940
765.1550, 30.10400
766.3020, 30.94556
767.4480, 32.33008
768.5950, 31.07788
769.7410, 34.52393
770.8870, 42.23633
772.0330, 40.32275
773.1780, 61.07178
774.3240, 66.54053
775.4690, 73.28955
776.6140, 43.03882
777.7590, 25.78833
778.9040, 87.54614
780.0490, 12.29712
781.1940, 89.08398
782.3380, 51.83887
783.4820, 61.58936
784.6260, 64.29297
785.7700, 94.04370
786.9140, 21.20581
788.0580, 26.53735
789.2010, 4.283447
790.3450, 1.501953
791.4880, 55.56055
792.6310, 29.31104
793.7730, 73.61841
794.9160, 109.3645
796.0590, 28.97461
797.2010, 33.56763
798.3430, 60.31519
799.4850, 62.06299
800.6270, 4.811035
801.7690, 4.560303
802.9100, 21.30957
804.0520, 18.05884
805.1930, 46.80859
806.3340, 25.55835
807.4750, 70.30786
808.6160, 97.65015
809.7560, 96.39917
810.8970, 30.36133
812.0370, 30.11084
813.1770, 52.85986
814.3170, 10.14746
815.4570, 64.89575
816.5960, 0.5537110
817.7360, 70.05737
818.8750, 39.80493
820.0140, 41.55249
821.1530, 56.34473
822.2920, 95.09229
823.4310, 86.37744
824.5690, 87.67603
825.7070, 90.42871
826.8460, 106.1826
827.9840, 111.9729
829.1220, 139.4490
830.2590, 63.48730
831.3970, 195.2461
832.5340, 250.2637
833.6710, 273.0229
834.8080, 415.7820
835.9450, 500.5408
837.0820, 698.2991
838.2190, 976.0579
839.3550, 1130.466
840.4910, 1195.224
841.6270, 975.9812
842.7630, 637.7385
843.8990, 420.5015
845.0350, 274.0205
846.1700, 104.7739
847.3060, 117.4321
848.4410, 159.1943
849.5760, 103.6450
850.7100, 71.34473
851.8450, 21.39209
852.9800, 77.09668
854.1140, 63.85864
855.2480, 38.62231
856.3820, 105.3848
857.5160, 37.14648
858.6500, 17.90796
859.7830, 39.66797
860.9170, 14.57251
862.0500, 61.83667
863.1830, 12.58667
864.3160, 3.337891
865.4480, 61.13965
866.5810, 93.89062
867.7130, 27.64062
868.8460, 37.38940
869.9780, 80.13696
871.1100, 63.88330
872.2410, 45.62842
873.3730, 56.37866
874.5050, 59.12744
875.6360, 25.87720
876.7670, 38.31958
877.8980, 25.38257
879.0290, 26.13794
880.1590, 47.97144
881.2900, 27.73633
882.4200, 23.50024
883.5500, 11.24854
884.6800, 23.99561
885.8100, 106.7415
886.9400, 12.48584
888.0690, 31.19141
889.1990, 57.93237
890.3280, 13.67163
891.4570, 14.40869
892.5860, 13.85620
893.7140, 64.06641
894.8430, 76.75000
895.9710, 38.47437
897.1000, 61.19678
898.2280, 20.93115
899.3560, 33.33667
900.4830, 62.38477
901.6110, 6.105469
902.7380, 9.176514
903.8660, 76.53809
904.9930, 51.25122
906.1200, 42.96265
907.2460, 50.67358
908.3730, 48.41675
909.5000, 25.90967
910.6260, 78.78296
911.7520, 61.47388
912.8780, 96.16260
914.0040, 22.84937
915.1290, 24.53687
916.2550, 16.21680
917.3800, 23.90015
918.5050, 25.58130
919.6300, 18.26245
920.7550, 32.94946
921.8800, 47.63477
923.0040, 27.45825
924.1290, 66.14136
925.2530, 21.21851
926.3770, 2.625000
927.5010, 24.04688
928.6250, 44.71631
929.7480, 44.38574
930.8720, 124.0527
931.9950, 72.71851
933.1180, 88.93433
934.2410, 93.04395
935.3640, 51.70361
936.4860, 69.31616
937.6090, 31.92456
938.7310, 94.57715
939.8530, 26.22778
940.9750, 100.8794
942.0970, 87.54346
943.2180, 21.79517
944.3400, 30.84985
945.4610, 0.4929200
946.5820, 57.13110
947.7030, 36.77979
948.8240, 4.574219
949.9450, 96.03687
951.0650, 10.32715
952.1860, 7.802490
953.3060, 103.8130
954.4260, 56.44604
955.5460, 16.07812
956.6650, 100.7073
957.7850, 10.33740
958.9040, 44.96387
960.0230, 41.58789
961.1420, 35.20898
962.2610, 18.82739
963.3800, 35.44287
964.4990, 74.05518
965.6170, 48.66479
966.7350, 1.271484
967.8530, 50.87305
968.9710, 60.47144
970.0890, 36.06714
971.2070, 53.66138
972.3240, 42.25342
973.4410, 34.84277
974.5580, 80.43042
975.6750, 35.01538
976.7920, 86.59692
977.9090, 44.17578
979.0250, 75.75122
980.1410, 134.3247
981.2580, 26.89502
982.3740, 49.46265
983.4890, 7.494629
984.6050, 90.05957
985.7200, 17.38916
986.8360, 52.14697
987.9510, 40.67993
989.0660, 96.20947
990.1810, 127.7358
991.2950, 83.25879
992.4100, 49.77856
993.5240, 87.27954
994.6390, 79.79248
995.7530, 3.520996
996.8660, 69.97900
997.9800, 70.43481
999.0940, 15.82031
1000.207, 28.82275
1001.320, 53.31006
1002.433, 143.7937
1003.546, 63.27393
1004.659, 59.75073
1005.772, 119.2244
1006.884, 41.07178
1007.996, 51.53784
1009.108, 99.44360
1010.220, 81.90259
1011.332, 121.0176
1012.444, 66.52539
1013.555, 19.62305
1014.666, 73.06689
1015.777, 123.5063
1016.888, 45.44946
1017.999, 110.8279
1019.110, 115.2554
1020.220, 119.6797
1021.331, 100.0505
1022.441, 126.4670
1023.551, 113.8796
1024.661, 122.2427
1025.770, 116.6047
1026.880, 145.5220
1027.989, 117.9270
1029.098, 166.3284
1030.207, 257.7256
1031.316, 271.2498
1032.425, 398.6282
1033.533, 409.9949
1034.642, 340.4209
1035.750, 292.7461
1036.858, 197.4604
1037.966, 210.8296
1039.073, 251.1948
1040.181, 276.8350
1041.288, 413.1921
1042.396, 353.5449
1043.503, 512.5693
1044.610, 698.9136
1045.716, 913.2542
1046.823, 1385.591
1047.929, 2369.488
1049.036, 4443.814
1050.142, 7638.102
1051.248, 10974.42
1052.353, 17851.11
1053.459, 29630.15
1054.564, 45354.46
1055.670, 59224.19
1056.775, 54607.50
1057.880, 35791.11
1058.985, 17003.28
1060.089, 6757.933
1061.194, 3039.216
1062.298, 1607.499
1063.402, 1024.777
1064.506, 817.0515
1065.610, 584.3215
1066.713, 405.5874
1067.817, 337.8486
1068.920, 317.1060
1070.023, 236.3591
1071.126, 249.6084
1072.229, 170.8853
1073.332, 148.8560
1074.435, 112.4536
1075.537, 188.6858
1076.639, 94.32080
1077.741, 79.56567
1078.843, 146.5723
1079.945, 83.70776
1081.046, 120.9185
1082.148, 221.5862
1083.249, 133.7881
1084.350, 166.0757
1085.451, 125.5129
1086.551, 85.31860
1087.652, 44.82593
1088.752, 49.42847
1089.853, 180.9148
1090.953, 89.00098
1092.053, 104.1677
1093.152, 161.3303
1094.252, 61.48828
1095.351, 171.6069
1096.451, 118.7561
1097.550, 142.9006
1098.649, 80.07544
1099.748, 208.9539
1100.846, 80.08545
1101.945, 130.2131
1103.043, 87.61499
1104.141, 53.90942
1105.239, 114.0239
1106.337, 187.1343
1107.434, 140.2402
1108.532, 104.3425
1109.629, 139.4402
1110.726, 139.5334
1111.823, 68.62256
1112.920, 132.7078
1114.017, 48.78369
1115.113, 8.860596
1116.210, 81.04199
1117.306, 69.10645
1118.402, 88.64990
1119.498, 75.70679
1120.593, 119.7593
1121.689, 72.80835
1122.784, 127.8533
1123.879, 111.8948
1124.974, 140.9324
1126.069, 144.8254
1127.164, 87.99683
1128.259, 123.3691
1129.353, 91.39600
1130.447, 36.59570
1131.541, 4.564209
1132.635, 75.57642
1133.729, 40.58496
1134.822, 25.59009
1135.916, 38.59180
1137.009, 34.59009
1138.102, 10.41479
1139.195, 54.56470
1140.288, 4.540771
1141.380, 70.50952
1142.473, 15.52466
1143.565, 13.42310
1144.657, 31.63281
1145.749, 43.21826
1146.841, 60.13306
1147.932, 29.04517
1149.024, 108.9607
1150.115, 54.87378
1151.206, 47.78418
1152.297, 21.69141
1153.388, 70.59644
1154.479, 41.49878
1155.569, 93.39844
1156.659, 32.29541
1157.750, 1.190186
1158.839, 42.08203
1159.929, 83.97119
1161.019, 23.85791
1162.108, 42.25757
1163.198, 40.59766
1164.287, 26.55005
1165.376, 8.291260
1166.465, 8.129395
1167.553, 9.035156
1168.642, 19.79224
1169.730, 36.61743
1170.818, 1.440674
1171.906, 53.25903
1172.994, 83.07520
1174.082, 1.110107
1175.170, 16.70581
1176.257, 52.52002
1177.344, 21.33276
1178.431, 4.856445
1179.518, 46.94751
1180.605, 29.74976
1181.691, 72.55078
1182.778, 2.649414
1183.864, 24.85498
1184.950, 39.92236
1186.036, 4.301270
1187.122, 12.46973
1188.207, 2.760742
1189.292, 3.189941
1190.378, 25.22900
1191.463, 10.52344
1192.548, 13.27490
1193.632, 24.02588
1194.717, 48.77563
1195.801, 45.50024
1196.886, 33.27344
1197.970, 48.02124
1199.054, 39.76831
1200.137, 33.51489
1201.221, 26.26074
1202.305, 1.006592
1203.388, 13.24927
1204.471, 55.51221
1205.554, 8.195313
1206.637, 32.90259
1207.719, 0.6164550
1208.802, 100.3296
1209.884, 49.95679
1210.966, 57.73193
1212.048, 96.42041
1213.130, 17.11157
1214.212, 23.80273
1215.293, 33.49829
1216.374, 78.80273
1217.456, 8.142822
1218.536, 23.51416
1219.617, 17.82837
1220.698, 6.822021
1221.778, 31.47339
1222.859, 71.12573
1223.939, 71.77856
1225.019, 55.43237
1226.099, 40.08667
1227.178, 35.74194
1228.258, 1.601563
1229.337, 18.05493
1230.417, 44.71436
1231.496, 70.37427
1232.574, 9.964111
1233.653, 7.304443
1234.732, 2.354492
1235.810, 60.01489
1236.888, 17.67651
1237.966, 61.34009
1239.044, 43.00513
1240.122, 18.67163
1241.199, 73.34009
1242.277, 10.01025
1243.354, 25.68237
1244.431, 29.35645
1245.508, 33.55420
1246.585, 37.23657
1247.661, 60.92065
1248.738, 52.61401
1249.814, 78.30957
1250.890, 68.00757
1251.966, 84.70776
1253.042, 63.41089
1254.117, 46.11621
1255.193, 14.82471
1256.268, 13.53564
1257.343, 65.24902
1258.418, 58.96875
1259.493, 10.30859
1260.567, 63.41504
1261.642, 43.63037
1262.716, 84.36060
1263.790, 67.09399
1264.864, 120.8308
1265.938, 42.57129
1267.011, 62.31494
1268.085, 59.68481
1269.158, 58.43579
1270.231, 61.75928
1271.304, 161.5291
1272.377, 143.6436
1273.450, 127.3665
1274.522, 65.49951
1275.594, 113.2876
1276.666, 157.0798
1277.738, 129.8770
1278.810, 166.6785
1279.882, 111.4851
1280.953, 182.2964
1282.025, 93.11279
1283.096, 184.9341
1284.167, 161.7605
1285.238, 129.5923
1286.308, 87.42896
1287.379, 133.8193
1288.449, 58.66699
1289.519, 198.5205
1290.589, 137.3792
1291.659, 153.1135
1292.729, 208.9844
1293.798, 155.7432
1294.868, 195.5820
1295.937, 306.4316
1297.006, 283.3518
1298.075, 275.2566
1299.143, 315.1775
1300.212, 331.8257
1301.280, 328.1826
1302.348, 357.0659
1303.416, 346.2527
1304.484, 369.2073
1305.552, 427.1697
1306.620, 399.1392
1307.687, 461.5430
1308.754, 384.5278
1309.821, 402.5200
1310.888, 389.5195
1311.955, 444.1494
1313.021, 353.4116
1314.088, 487.4341
1315.154, 446.0315
1316.220, 481.0693
1317.286, 629.7913
1318.352, 629.5083
1319.417, 665.8870
1320.483, 585.9526
1321.548, 693.0244
1322.613, 668.1013
1323.678, 579.1846
1324.743, 613.2729
1325.807, 735.3674
1326.872, 722.4678
1327.936, 733.5742
1329.000, 712.6870
1330.064, 739.8062
1331.128, 737.6704
1332.191, 783.3022
1333.255, 754.0801
1334.318, 792.2256
1335.381, 817.3789
1336.444, 795.5186
1337.507, 817.6865
1338.569, 853.9414
1339.632, 868.1250
1340.694, 921.0020
1341.756, 933.5151
1342.818, 1012.723
1343.880, 1069.938
1344.941, 1089.545
1346.003, 1124.455
1347.064, 1204.695
1348.125, 1281.969
1349.186, 1403.680
1350.247, 1515.692
1351.308, 1719.968
1352.368, 1901.253
1353.428, 2135.548
1354.489, 2390.851
1355.549, 2672.163
1356.608, 2968.451
1357.668, 3206.783
1358.727, 3632.125
1359.787, 3889.309
1360.846, 4417.558
1361.905, 4447.752
1362.964, 4596.133
1364.022, 4733.524
1365.081, 4685.925
1366.139, 4458.336
1367.197, 4293.757
1368.255, 3842.188
1369.313, 3733.631
1370.371, 3186.083
1371.428, 3014.546
1372.486, 2626.020
1373.543, 2336.507
1374.600, 2167.003
1375.657, 1983.511
1376.713, 1727.030
1377.770, 1486.560
1378.826, 1416.100
1379.882, 1218.651
1380.938, 1112.213
1381.994, 1007.786
1383.050, 920.3706
1384.106, 830.9663
1385.161, 737.5728
1386.216, 694.1909
1387.271, 623.6440
1388.326, 510.2856
1389.381, 532.9414
1390.435, 369.6094
1391.490, 375.2896
1392.544, 292.9824
1393.598, 246.6870
1394.652, 249.4053
1395.705, 129.1426
1396.759, 281.5210
1397.812, 227.2866
1398.866, 196.0659
1399.919, 172.9653
1400.972, 193.7788
1402.024, 105.6182
1403.077, 137.4712
1404.129, 145.3389
1405.181, 105.2212
1406.233, 61.11719
1407.285, 189.0283
1408.337, 247.9551
1409.389, 225.8965
1410.440, 228.8535
1411.491, 160.8262
1412.542, 247.8149
1413.593, 199.8193
1414.644, 185.8433
1415.695, 275.8838
1416.745, 278.9409
1417.795, 204.0161
1418.845, 213.1221
1419.895, 207.2466
1420.945, 262.4438
1421.995, 327.0898
1423.044, 243.2227
1424.093, 279.3755
1425.142, 136.7715
1426.191, 222.9580
1427.240, 251.1636
1428.289, 201.3867
1429.337, 203.6279
1430.385, 161.8916
1431.433, 190.2578
1432.481, 112.5542
1433.529, 223.8730
1434.577, 146.3657
1435.624, 147.6938
1436.672, 214.9331
1437.719, 231.1816
1438.766, 184.8564
1439.812, 286.1152
1440.859, 137.5557
1441.905, 172.7852
1442.952, 130.0137
1443.998, 189.2710
1445.044, 243.3687
1446.090, 182.4888
1447.135, 224.2964
1448.181, 203.2095
1449.226, 252.1372
1450.271, 269.0806
1451.316, 292.0386
1452.361, 272.0122
1453.405, 338.0249
1454.450, 249.0684
1455.494, 351.1294
1456.538, 423.2344
1457.582, 331.3564
1458.626, 328.4966
1459.670, 434.6992
1460.713, 437.9268
1461.757, 429.1763
1462.800, 408.4458
1463.843, 464.7339
1464.886, 518.0415
1465.928, 446.3682
1466.971, 546.7173
1468.013, 591.0898
1469.055, 724.4814
1470.097, 630.8945
1471.139, 558.3267
1472.181, 688.7793
1473.222, 783.2529
1474.263, 712.7466
1475.305, 661.2603
1476.346, 663.7949
1477.386, 710.3511
1478.427, 743.9277
1479.468, 735.5259
1480.508, 706.1475
1481.548, 708.9971
1482.588, 647.4561
1483.628, 658.1421
1484.668, 571.8330
1485.707, 506.5293
1486.747, 517.2446
1487.786, 515.9805
1488.825, 527.7358
1489.864, 446.5112
1490.902, 403.3071
1491.941, 377.1216
1492.979, 365.9565
1494.017, 309.8115
1495.055, 362.6846
1496.093, 257.5767
1497.131, 186.4819
1498.168, 236.4019
1499.206, 183.3071
1500.243, 168.2290
1501.280, 142.1680
1502.317, 166.1206
1503.354, 116.8081
1504.390, 159.0693
1505.426, 80.06689
1506.463, 41.07715
1507.499, 104.1060
1508.535, 93.15625
1509.570, 41.23486
1510.606, 135.3506
1511.641, 62.50488
1512.676, 112.6968
1513.711, 65.92773
1514.746, 43.19629
1515.781, 95.50195
1516.816, 97.84570
1517.850, 12.22559
1518.884, 92.64404
1519.918, 33.10010
1520.952, 56.40625
1521.986, 101.1270
1523.019, 24.69922
1524.053, 6.689453
1525.086, 44.96240
1526.119, 81.65527
1527.152, 19.38916
1528.185, 113.1655
1529.217, 55.98633
1530.250, 22.85205
1531.282, 37.76514
1532.314, 61.72559
1533.346, 45.73486
1534.377, 36.79639
1535.409, 58.43164
1536.440, 63.08545
1537.472, 71.32031
1538.503, 81.62109
1539.534, 47.99121
1540.564, 39.43457
1541.595, 60.95459
1542.625, 96.55322
1543.656, 93.23193
1544.686, 24.99512
1545.716, 2.844727
1546.745, 87.41846
1547.775, 88.32959
1548.804, 29.20996
1549.834, 83.29004
1550.863, 67.82520
1551.892, 97.38965
1552.920, 50.97559
1553.949, 47.57178
1554.977, 30.16504
1556.006, 55.73096
1557.034, 55.23926
1558.062, 28.21777
1559.089, 148.0967
1560.117, 90.76855
1561.144, 97.12451
1562.172, 0.8378910
1563.199, 131.2109
1564.226, 8.361328
1565.252, 43.54297
1566.279, 105.5586
1567.305, 8.213379
1568.332, 60.91699
1569.358, 0.1132810
1570.384, 0.0000000E+00
##END=



