##NAMES=Chloritoid
##RRUFFID=R060292
##IDEAL CHEMISTRY=Fe^2+^Al_2_OSiO_4_(OH)_2_
##LOCALITY=Pech, Kunar Province, Afghanistan
##OWNER=RRUFF
##SOURCE=Herb Obodda
##DESCRIPTION=Black tabular crystal
##STATUS=The identification of this mineral has been confirmed by X-ray diffraction and chemical analysis
##URL=rruff.info/R060292
##MEASURED CHEMISTRY=(Fe^2+^_1.55_Mg_0.43_Mn_0.02_)_Σ=2_(Al_3.93_Fe^3+^_0.07_)_Σ=4_Si_2.00_O_10_(OH)_4_
##PIN_ID=M00313
##ORIENTATION=Laser parallel to (1 0 1). Fiducial mark perpendicular to laser is parallel to b [0 1 0]
51.43100, 0.0000000E+00
52.67100, 4.593170
53.91000, 547.2473
55.14900, 25.10803
56.38700, 25.93985
57.62600, 128.3442
58.86400, 176.4018
60.10300, 135.5883
61.34100, 34.34180
62.57900, 3.480835
63.81700, 28.01245
65.05400, 17.37329
66.29200, 59.32983
67.52900, 163.0036
68.76700, 189.5679
70.00400, 68.95404
71.24100, 17.10083
72.47700, 101.9513
73.71400, 171.4553
74.95100, 145.5663
76.18700, 110.2419
77.42300, 127.4441
78.65900, 229.1388
79.89500, 415.2955
81.13100, 575.8873
82.36700, 491.8903
83.60200, 358.2854
84.83700, 350.0568
86.07200, 375.1887
87.30800, 555.6668
88.54200, 714.4766
89.77700, 862.5966
91.01200, 784.0021
92.24600, 777.6854
93.48000, 809.6384
94.71400, 746.8445
95.94800, 799.2889
97.18200, 913.9587
98.41600, 908.8430
99.64900, 1077.932
100.8830, 1123.217
102.1160, 1475.692
103.3490, 2008.348
104.5820, 2708.181
105.8150, 2939.238
107.0470, 3256.622
108.2800, 3534.684
109.5120, 3530.171
110.7440, 3727.812
111.9760, 3806.604
113.2080, 3410.553
114.4400, 2802.671
115.6710, 2143.953
116.9030, 1641.396
118.1340, 1267.995
119.3650, 1166.744
120.5960, 1040.640
121.8270, 991.6785
123.0580, 749.8545
124.2880, 638.1653
125.5190, 683.5808
126.7490, 763.0201
127.9790, 725.4836
129.2090, 698.9683
130.4390, 639.5714
131.6680, 615.3445
132.8980, 553.2664
134.1270, 549.3071
135.3560, 576.3851
136.5850, 523.7163
137.8140, 495.1162
139.0430, 486.8798
140.2710, 396.1421
141.5000, 413.4565
142.7280, 392.8259
143.9560, 473.2516
145.1840, 432.7346
146.4120, 474.2765
147.6390, 531.8779
148.8670, 582.5400
150.0940, 507.2631
151.3210, 476.0476
152.5490, 376.8944
153.7750, 399.8033
155.0020, 301.7751
156.2290, 338.8093
157.4550, 339.9065
158.6810, 361.0667
159.9080, 452.2893
161.1340, 507.5750
162.3590, 577.9233
163.5850, 589.3340
164.8110, 610.8069
166.0360, 633.3417
167.2610, 630.9385
168.4860, 710.5972
169.7110, 643.3247
170.9360, 658.1447
172.1610, 623.1323
173.3850, 540.3027
174.6100, 610.7256
175.8340, 605.3508
177.0580, 505.1028
178.2820, 502.9170
179.5050, 542.7766
180.7290, 480.6816
181.9520, 530.6322
183.1760, 518.6281
184.3990, 477.6689
185.6220, 514.7548
186.8450, 521.8855
188.0670, 542.0608
189.2900, 532.2804
190.5120, 536.5435
191.7340, 575.8507
192.9560, 632.2009
194.1780, 722.5942
195.4000, 679.0300
196.6220, 719.5084
197.8430, 842.0288
199.0640, 980.7744
200.2860, 1024.569
201.5070, 877.3849
202.7270, 705.1824
203.9480, 630.0283
205.1690, 646.7114
206.3890, 624.4619
207.6090, 602.5957
208.8290, 733.0004
210.0490, 743.2844
211.2690, 787.7070
212.4890, 763.7905
213.7080, 795.8301
214.9280, 716.2251
216.1470, 742.9010
217.3660, 727.6710
218.5850, 779.5315
219.8030, 700.4788
221.0220, 742.5106
222.2400, 657.6245
223.4590, 730.8171
224.6770, 748.0864
225.8950, 795.4309
227.1120, 820.8478
228.3300, 845.3357
229.5480, 860.8918
230.7650, 954.5159
231.9820, 953.2053
233.1990, 1058.959
234.4160, 1186.775
235.6330, 1341.652
236.8490, 1612.588
238.0660, 1901.484
239.2820, 2229.636
240.4980, 2698.743
241.7140, 3196.906
242.9300, 3782.123
244.1460, 4487.393
245.3610, 5217.714
246.5770, 5981.086
247.7920, 6402.511
249.0070, 6200.983
250.2220, 5447.504
251.4370, 4680.073
252.6510, 3881.691
253.8660, 3296.355
255.0800, 2953.065
256.2940, 3064.821
257.5080, 2910.622
258.7220, 2199.468
259.9360, 1877.357
261.1490, 1684.290
262.3630, 1515.266
263.5760, 1535.284
264.7890, 1448.343
266.0020, 1521.443
267.2150, 1578.584
268.4270, 1702.764
269.6400, 1934.984
270.8520, 2242.242
272.0640, 2618.046
273.2760, 3046.874
274.4880, 3619.247
275.7000, 4306.658
276.9120, 5010.107
278.1230, 5696.593
279.3340, 5868.116
280.5450, 5684.673
281.7560, 5222.268
282.9670, 4634.898
284.1780, 3906.563
285.3880, 3260.264
286.5980, 2717.209
287.8090, 2219.135
289.0190, 1939.040
290.2290, 1720.977
291.4380, 1446.109
292.6480, 1304.936
293.8570, 1085.996
295.0670, 1027.385
296.2760, 875.2375
297.4850, 808.4216
298.6930, 779.3374
299.9020, 787.8677
301.1110, 724.9121
302.3190, 765.0681
303.5270, 769.2532
304.7350, 714.4673
305.9430, 742.7101
307.1510, 791.9817
308.3580, 745.2810
309.5660, 765.6091
310.7730, 714.9644
311.9800, 778.3473
313.1870, 742.7573
314.3940, 736.1943
315.6010, 752.6584
316.8070, 797.1487
318.0130, 781.6643
319.2200, 957.2048
320.4260, 1120.769
321.6310, 1218.356
322.8370, 1537.965
324.0430, 1768.597
325.2480, 1992.249
326.4540, 2378.924
327.6590, 2842.620
328.8640, 3026.337
330.0680, 3075.076
331.2730, 2774.836
332.4780, 2378.615
333.6820, 1774.416
334.8860, 1429.236
336.0900, 1192.078
337.2940, 907.9387
338.4980, 906.8196
339.7010, 915.7200
340.9050, 1008.640
342.1080, 1140.580
343.3110, 1055.538
344.5140, 858.5283
345.7170, 533.5510
346.9200, 327.6062
348.1220, 268.6934
349.3240, 73.07959
350.5270, 82.96436
351.7290, 70.85156
352.9310, 156.6572
354.1320, 106.4890
355.3340, 146.3220
356.5350, 96.17041
357.7370, 118.0161
358.9380, 80.87061
360.1390, 8.278076
361.3400, 33.47656
362.5400, 97.70483
363.7410, 131.9668
364.9410, 92.26831
366.1410, 146.6230
367.3410, 45.01685
368.5410, 67.45410
369.7410, 130.9336
370.9400, 98.44556
372.1400, 37.99927
373.3390, 59.58447
374.5380, 49.20435
375.7370, 144.8503
376.9360, 223.5208
378.1350, 321.2158
379.3330, 517.9343
380.5310, 559.6765
381.7300, 819.4419
382.9280, 955.2302
384.1260, 1061.042
385.3230, 1074.875
386.5210, 933.7310
387.7180, 830.6084
388.9160, 706.5076
390.1130, 689.4282
391.3100, 690.3726
392.5060, 783.3389
393.7030, 781.3333
394.9000, 885.3762
396.0960, 780.4524
397.2920, 699.5615
398.4880, 476.7029
399.6840, 358.8823
400.8800, 217.0979
402.0750, 171.3525
403.2710, 134.6521
404.4660, 106.9814
405.6610, 135.3325
406.8560, 212.7258
408.0510, 248.1411
409.2450, 311.5837
410.4400, 349.0552
411.6340, 438.5452
412.8280, 428.0586
414.0220, 388.5908
415.2160, 351.1392
416.4100, 204.7039
417.6030, 145.2844
418.7970, 143.8806
419.9900, 144.4922
421.1830, 161.1194
422.3760, 150.7612
423.5690, 176.4180
424.7610, 148.6133
425.9540, 189.7751
427.1460, 82.47510
428.3380, 50.18872
429.5300, 15.08374
430.7220, 13.35571
431.9140, 11.62744
433.1050, 105.8982
434.2970, 108.2109
435.4880, 64.56689
436.6790, 155.9468
437.8700, 177.3948
439.0610, 132.9216
440.2510, 154.5063
441.4420, 42.16016
442.6320, 70.82935
443.8220, 42.52808
445.0120, 35.75659
446.2020, 56.05200
447.3910, 69.35815
448.5810, 133.6750
449.7700, 265.0020
450.9600, 312.3394
452.1490, 300.6868
453.3370, 255.0439
454.5260, 275.4109
455.7150, 226.7874
456.9030, 202.1729
458.0910, 208.5679
459.2800, 279.9717
460.4670, 311.3843
461.6550, 286.8057
462.8430, 412.2354
464.0300, 422.6733
465.2180, 475.1196
466.4050, 623.5737
467.5920, 775.0359
468.7790, 841.5059
469.9650, 985.9829
471.1520, 1164.468
472.3380, 1271.960
473.5250, 1282.459
474.7110, 1389.965
475.8970, 1414.478
477.0820, 1388.997
478.2680, 1387.523
479.4540, 1323.055
480.6390, 1282.594
481.8240, 1286.138
483.0090, 1314.471
484.1940, 1377.380
485.3780, 1482.807
486.5630, 1610.375
487.7470, 1797.947
488.9320, 2017.524
490.1160, 2507.107
491.3000, 2963.694
492.4830, 3565.286
493.6670, 4291.881
494.8500, 5081.235
496.0340, 5689.455
497.2170, 5955.291
498.4000, 5780.976
499.5820, 5224.461
500.7650, 4976.316
501.9480, 4763.363
503.1300, 4679.886
504.3120, 4731.994
505.4940, 4894.896
506.6760, 5130.270
507.8580, 5409.954
509.0390, 5415.315
510.2210, 5057.943
511.4020, 4826.185
512.5830, 4362.394
513.7640, 3885.790
514.9450, 3652.904
516.1250, 3493.822
517.3060, 3604.953
518.4860, 3922.835
519.6660, 4365.732
520.8460, 4872.596
522.0260, 5683.468
523.2060, 6694.338
524.3850, 7502.215
525.5650, 8408.090
526.7440, 9112.966
527.9230, 9125.836
529.1020, 8770.707
530.2810, 7993.574
531.4590, 7143.440
532.6380, 6163.851
533.8160, 5535.878
534.9940, 5093.342
536.1720, 4804.628
537.3500, 4665.242
538.5270, 4804.954
539.7050, 5233.511
540.8820, 6182.486
542.0590, 7447.061
543.2360, 9350.427
544.4130, 11777.15
545.5900, 14416.42
546.7660, 17445.98
547.9430, 21523.22
549.1190, 25603.95
550.2950, 27910.72
551.4710, 27360.03
552.6470, 23806.12
553.8220, 19202.21
554.9980, 14993.37
556.1730, 11227.10
557.3480, 8313.835
558.5230, 6099.556
559.6980, 4500.269
560.8730, 3414.970
562.0470, 2714.662
563.2220, 2130.344
564.3960, 1820.016
565.5700, 1566.678
566.7440, 1368.329
567.9170, 1283.969
569.0910, 1195.600
570.2640, 1171.219
571.4380, 1161.612
572.6110, 1166.060
573.7840, 1233.546
574.9570, 1307.025
576.1290, 1398.331
577.3020, 1659.965
578.4740, 1896.389
579.6460, 2375.506
580.8180, 2961.182
581.9900, 3882.548
583.1620, 5404.206
584.3330, 7993.269
585.5040, 11563.84
586.6760, 16278.32
587.8470, 21824.79
589.0180, 29874.25
590.1880, 41918.71
591.3590, 55739.16
592.5290, 62346.60
593.7000, 57062.03
594.8700, 44124.45
596.0400, 31597.85
597.2090, 22443.25
598.3790, 15888.64
599.5490, 11092.03
600.7180, 7888.395
601.8870, 6048.756
603.0560, 4704.108
604.2250, 3875.450
605.3940, 3213.781
606.5620, 2735.103
607.7300, 2410.415
608.8990, 2120.716
610.0670, 1757.006
611.2350, 1433.286
612.4020, 1304.556
613.5700, 1093.814
614.7370, 954.0623
615.9050, 868.2993
617.0720, 701.5254
618.2390, 660.7405
619.4060, 516.9446
620.5720, 475.1377
621.7390, 419.3191
622.9050, 332.4893
624.0710, 328.6482
625.2370, 307.7957
626.4030, 243.9316
627.5690, 248.0559
628.7340, 214.2935
629.9000, 189.2698
631.0650, 175.3586
632.2300, 120.4360
633.3950, 96.50146
634.5600, 87.55493
635.7240, 76.60693
636.8890, 58.67529
638.0530, 79.84180
639.2170, 42.40161
640.3810, 20.80762
641.5450, 54.16626
642.7080, 52.74780
643.8720, 41.56274
645.0350, 11.03174
646.1980, 14.89429
647.3610, 64.50635
648.5240, 11.25098
649.6870, 30.01318
650.8490, 20.56885
652.0120, 17.64307
653.1740, 18.64526
654.3360, 27.19922
655.4980, 9.725830
656.6600, 82.05835
657.8210, 117.7229
658.9830, 116.3159
660.1440, 217.0366
661.3050, 217.2661
662.4660, 231.7920
663.6270, 350.0173
664.7870, 362.5112
665.9480, 444.9893
667.1080, 419.4512
668.2680, 363.8967
669.4280, 219.3259
670.5880, 185.7395
671.7480, 69.13647
672.9070, 99.51221
674.0670, 27.87036
675.2260, 54.80322
676.3850, 3.451172
677.5440, 1.663330
678.7030, 3.833252
679.8610, 19.03809
681.0200, 12.96289
682.1780, 25.93750
683.3360, 47.96802
684.4940, 6.933350
685.6520, 52.79565
686.8090, 41.36475
687.9670, 43.41138
689.1240, 14.16235
690.2810, 3.879150
691.4380, 76.55640
692.5950, 28.21533
693.7520, 67.84595
694.9080, 163.4570
696.0650, 117.5442
697.2210, 147.6335
698.3770, 135.1992
699.5330, 178.7500
700.6880, 258.2856
701.8440, 293.8066
702.9990, 317.3127
704.1550, 370.8042
705.3100, 417.1750
706.4650, 467.7437
707.6190, 537.1914
708.7740, 614.6250
709.9290, 692.0444
711.0830, 869.4565
712.2370, 1022.860
713.3910, 1090.256
714.5450, 1261.667
715.6980, 1401.091
716.8520, 1652.520
718.0050, 1926.975
719.1580, 2189.462
720.3110, 2506.971
721.4640, 2935.506
722.6170, 3364.043
723.7700, 3881.586
724.9220, 4338.131
726.0740, 4854.662
727.2260, 5373.181
728.3780, 5881.686
729.5300, 6366.179
730.6810, 6671.659
731.8330, 6787.128
732.9840, 6998.583
734.1350, 6764.028
735.2860, 6660.459
736.4370, 6221.878
737.5880, 5992.286
738.7380, 5741.681
739.8880, 5475.065
741.0390, 5064.437
742.1890, 4664.798
743.3380, 4134.147
744.4880, 3747.485
745.6380, 3325.812
746.7870, 2953.128
747.9360, 2499.433
749.0850, 2130.728
750.2340, 1935.012
751.3830, 1713.285
752.5310, 1397.547
753.6800, 1198.800
754.8280, 1034.042
755.9760, 951.2744
757.1240, 763.4971
758.2720, 757.6416
759.4190, 623.2107
760.5670, 562.8184
761.7140, 455.2903
762.8610, 446.4648
764.0080, 418.6304
765.1550, 345.7869
766.3020, 231.9346
767.4480, 254.0735
768.5950, 237.2039
769.7410, 156.3254
770.8870, 202.4387
772.0330, 53.54419
773.1780, 104.6414
774.3240, 93.72852
775.4690, 21.67627
776.6140, 6.748535
777.7590, 8.535645
778.9040, 8.283447
780.0490, 36.51123
781.1940, 45.35669
782.3380, 31.82739
783.4820, 8.893555
784.6260, 83.86182
785.7700, 0.9558110
786.9140, 36.73218
788.0580, 93.79077
789.2010, 75.49048
790.3450, 51.18042
791.4880, 90.07495
792.6310, 34.71387
793.7730, 67.16846
794.9160, 73.85645
796.0590, 22.31787
797.2010, 2.802734
798.3430, 35.25903
799.4850, 52.26587
800.6270, 37.21167
801.7690, 19.29272
802.9100, 12.79492
804.0520, 21.29565
805.1930, 18.79517
806.3340, 28.52222
807.4750, 45.79053
808.6160, 54.28711
809.7560, 85.23486
810.8970, 108.5645
812.0370, 150.4536
813.1770, 190.5181
814.3170, 116.2500
815.4570, 188.8828
816.5960, 188.6663
817.7360, 268.0298
818.8750, 317.7922
820.0140, 332.7590
821.1530, 363.3635
822.2920, 412.4233
823.4310, 499.1877
824.5690, 552.2776
825.7070, 699.8687
826.8460, 745.4072
827.9840, 899.4185
829.1220, 1005.651
830.2590, 1154.479
831.3970, 1358.021
832.5340, 1524.590
833.6710, 1727.166
834.8080, 1992.750
835.9450, 2132.342
837.0820, 2319.941
838.2190, 2431.548
839.3550, 2599.165
840.4910, 2702.790
841.6270, 2744.424
842.7630, 2781.066
843.8990, 2781.718
845.0350, 2822.940
846.1700, 2912.051
847.3060, 2902.731
848.4410, 2927.423
849.5760, 3023.124
850.7100, 3046.836
851.8450, 3088.558
852.9800, 3182.290
854.1140, 3251.033
855.2480, 3414.787
856.3820, 3661.551
857.5160, 3777.326
858.6500, 3975.111
859.7830, 4165.907
860.9170, 4554.714
862.0500, 4923.533
863.1830, 5363.362
864.3160, 5855.205
865.4480, 6522.173
866.5810, 7201.919
867.7130, 8121.797
868.8460, 9027.686
869.9780, 10103.59
871.1100, 11207.50
872.2410, 12751.43
873.3730, 14127.37
874.5050, 15594.32
875.6360, 16744.29
876.7670, 17614.26
877.8980, 18208.25
879.0290, 17929.26
880.1590, 17645.28
881.2900, 16544.32
882.4200, 15218.37
883.5500, 13570.43
884.6800, 12259.61
885.8100, 10701.70
886.9400, 9561.812
888.0690, 8457.937
889.1990, 7419.077
890.3280, 6659.233
891.4570, 6002.458
892.5860, 5414.653
893.7140, 5105.862
894.8430, 4840.089
895.9710, 4649.333
897.1000, 4565.593
898.2280, 4625.869
899.3560, 4763.164
900.4830, 4908.479
901.6110, 5204.812
902.7380, 5348.161
903.8660, 5373.529
904.9930, 5254.919
906.1200, 5104.324
907.2460, 4833.754
908.3730, 4369.204
909.5000, 3952.672
910.6260, 3593.159
911.7520, 3171.572
912.8780, 2766.634
914.0040, 2474.870
915.1290, 2252.180
916.2550, 2083.782
917.3800, 1949.146
918.5050, 1703.365
919.6300, 1551.982
920.7550, 1469.281
921.8800, 1227.702
923.0040, 1158.135
924.1290, 1013.351
925.2530, 955.7922
926.3770, 761.7354
927.5010, 764.5371
928.6250, 683.6631
929.7480, 683.9849
930.8720, 614.9827
931.9950, 644.0684
933.1180, 578.0352
934.2410, 558.5032
935.3640, 588.6880
936.4860, 593.1848
937.6090, 522.4233
938.7310, 610.6885
939.8530, 546.9805
940.9750, 600.3015
942.0970, 577.6506
943.2180, 599.0308
944.3400, 663.4465
945.4610, 622.8911
946.5820, 674.3643
947.7030, 741.8716
948.8240, 674.4375
949.9450, 779.0591
951.0650, 836.7239
952.1860, 829.4314
953.3060, 901.1970
954.4260, 855.0115
955.5460, 827.8733
956.6650, 906.7891
957.7850, 953.7432
958.9040, 898.7300
960.0230, 884.7812
961.1420, 923.8789
962.2610, 951.0181
963.3800, 872.2031
964.4990, 893.4172
965.6170, 826.6719
966.7350, 836.9561
967.8530, 780.2678
968.9710, 789.6084
970.0890, 618.9778
971.2070, 683.3889
972.3240, 516.8279
973.4410, 484.2964
974.5580, 387.7930
975.6750, 331.8479
976.7920, 275.8904
977.9090, 274.4817
979.0250, 199.1006
980.1410, 206.7473
981.2580, 233.4219
982.3740, 155.1255
983.4890, 252.8569
984.6050, 129.6172
985.7200, 359.4062
986.8360, 549.2231
987.9510, 129.0679
989.0660, 23.94067
990.1810, 139.8430
991.2950, 67.77441
992.4100, 76.73413
993.5240, 90.72144
994.6390, 89.73706
995.7530, 93.78052
996.8660, 86.85181
997.9800, 79.95264
999.0940, 61.08130
1000.207, 56.24731
1001.320, 46.94556
1002.433, 40.66382
1003.546, 31.91333
1004.659, 22.19116
1005.772, 11.75488
1006.884, 61.83130
1007.996, 31.19360
1009.108, 10.58765
1010.220, 66.00903
1011.332, 48.45996
1012.444, 65.93823
1013.555, 11.44458
1014.666, 45.98120
1015.777, 18.55078
1016.888, 64.14868
1017.999, 13.22559
1019.110, 75.42627
1020.220, 15.10571
1021.331, 65.81274
1022.441, 7.560303
1023.551, 30.32886
1024.661, 7.873291
1025.770, 25.13818
1026.880, 28.99170
1027.989, 13.92773
1029.098, 38.83813
1030.207, 40.77710
1031.316, 100.7432
1032.425, 116.7358
1033.533, 108.2068
1034.642, 117.7976
1035.750, 92.63989
1036.858, 67.75293
1037.966, 90.19482
1039.073, 26.36670
1040.181, 35.92676
1041.288, 103.1516
1042.396, 126.4031
1043.503, 111.6848
1044.610, 103.9937
1045.716, 91.29712
1046.823, 94.66138
1047.929, 202.0579
1049.036, 69.89844
1050.142, 148.3552
1051.248, 155.5164
1052.353, 69.65649
1053.459, 133.2207
1054.564, 148.3867
1055.670, 119.0273
1056.775, 148.7048
1057.880, 119.4346
1058.985, 137.9714
1060.089, 146.8123
1061.194, 162.6689
1062.298, 178.2119
1063.402, 191.5798
1064.506, 207.0044
1065.610, 225.8579
1066.713, 255.1089
1067.817, 279.2905
1068.920, 257.6184
1070.023, 276.9387
1071.126, 245.2551
1072.229, 254.5969
1073.332, 271.4797
1074.435, 301.0029
1075.537, 333.4104
1076.639, 334.7312
1077.741, 396.9956
1078.843, 449.5288
1079.945, 542.8342
1081.046, 523.0107
1082.148, 619.0344
1083.249, 636.1436
1084.350, 751.2336
1085.451, 791.5898
1086.551, 849.9336
1087.652, 934.4521
1088.752, 925.0571
1089.853, 944.5361
1090.953, 907.3594
1092.053, 867.9214
1093.152, 866.7383
1094.252, 800.3557
1095.351, 660.3804
1096.451, 602.0005
1097.550, 552.9592
1098.649, 502.5740
1099.748, 510.2046
1100.846, 438.0798
1101.945, 343.9070
1103.043, 355.8804
1104.141, 252.5698
1105.239, 266.6851
1106.337, 235.4026
1107.434, 220.5896
1108.532, 189.3347
1109.629, 181.1143
1110.726, 222.9458
1111.823, 156.7314
1112.920, 153.5295
1114.017, 122.3408
1115.113, 176.5342
1116.210, 138.3711
1117.306, 174.3472
1118.402, 105.2090
1119.498, 105.0825
1120.593, 156.9680
1121.689, 61.27222
1122.784, 137.3743
1123.879, 188.2939
1124.974, 147.2244
1126.069, 222.1660
1127.164, 190.9238
1128.259, 112.0803
1129.353, 136.3809
1130.447, 130.3630
1131.541, 64.51343
1132.635, 105.5154
1133.729, 56.52686
1134.822, 18.54761
1135.916, 95.57690
1137.009, 63.61475
1138.102, 63.84253
1139.195, 19.89722
1140.288, 48.82910
1141.380, 116.9009
1142.473, 68.22583
1143.565, 55.31470
1144.657, 78.41064
1145.749, 27.16870
1146.841, 79.40649
1147.932, 44.73340
1149.024, 79.85889
1150.115, 58.35376
1151.206, 63.03198
1152.297, 23.17627
1153.388, 0.7939450
1154.479, 4.033936
1155.569, 42.61157
1156.659, 35.84399
1157.750, 20.31641
1158.839, 1.921143
1159.929, 59.24756
1161.019, 26.76782
1162.108, 62.00952
1163.198, 29.20776
1164.287, 22.60742
1165.376, 63.83569
1166.465, 13.82275
1167.553, 34.03442
1168.642, 9.070801
1169.730, 47.75342
1170.818, 33.91528
1171.906, 11.27002
1172.994, 115.5649
1174.082, 4.706543
1175.170, 54.18286
1176.257, 43.62451
1177.344, 44.57495
1178.431, 20.75195
1179.518, 9.070313
1180.605, 44.84302
1181.691, 34.98242
1182.778, 12.58740
1183.864, 13.49170
1184.950, 31.22998
1186.036, 16.95410
1187.122, 12.83716
1188.207, 15.28613
1189.292, 26.42163
1190.378, 5.812256
1191.463, 12.99780
1192.548, 9.875977
1193.632, 1.237061
1194.717, 29.36938
1195.801, 13.93237
1196.886, 5.019531
1197.970, 16.86768
1199.054, 1.201172
1200.137, 2.528320
1201.221, 3.583740
1202.305, 3.964355
1203.388, 6.457520
1204.471, 1.584229
1205.554, 14.38696
1206.637, 29.37378
1207.719, 13.75513
1208.802, 5.200928
1209.884, 35.17749
1210.966, 5.792480
1212.048, 53.83398
1213.130, 2.912842
1214.212, 1.746826
1215.293, 39.85156
1216.374, 5.988281
1217.456, 75.03662
1218.536, 12.87793
1219.617, 52.08521
1220.698, 8.911377
1221.778, 38.23877
1222.859, 41.45630
1223.939, 3.653320
1225.019, 9.873535
1226.099, 21.85571
1227.178, 7.322266
1228.258, 63.35889
1229.337, 48.08228
1230.417, 16.74756
1231.496, 19.43433
1232.574, 36.92114
1233.653, 32.68652
1234.732, 14.28564
1235.810, 95.87256
1236.888, 21.54932
1237.966, 92.99854
1239.044, 27.56470
1240.122, 68.30493
1241.199, 95.91016
1242.277, 57.42114
1243.354, 88.92236
1244.431, 20.68677
1245.508, 63.16626
1246.585, 30.81665
1247.661, 76.27515
1248.738, 71.82617
1249.814, 48.26514
1250.890, 22.90845
1251.966, 31.32446
1253.042, 48.72827
1254.117, 79.12964
1255.193, 83.58740
1256.268, 60.98389
1257.343, 76.34595
1258.418, 29.72925
1259.493, 109.0669
1260.567, 7.451416
1261.642, 56.84546
1262.716, 127.1311
1263.790, 68.40576
1264.864, 121.6694
1265.938, 55.92139
1267.011, 41.16260
1268.085, 70.39038
1269.158, 19.76221
1270.231, 100.0164
1271.304, 40.57373
1272.377, 79.74463
1273.450, 84.90356
1274.522, 28.21460
1275.594, 16.42065
1276.666, 45.92261
1277.738, 81.01538
1278.810, 72.12549
1279.882, 78.19629
1280.953, 75.37427
1282.025, 11.42505
1283.096, 57.47974
1284.167, 41.48804
1285.238, 41.47974
1286.308, 82.27002
1287.379, 35.23267
1288.449, 112.1240
1289.519, 46.05615
1290.589, 62.99487
1291.659, 70.89771
1292.729, 79.78735
1293.798, 17.96802
1294.868, 30.82080
1295.937, 24.72192
1297.006, 35.11011
1298.075, 37.61792
1299.143, 62.39038
1300.212, 80.85474
1301.280, 64.65259
1302.348, 27.38306
1303.416, 54.09717
1304.484, 127.7900
1305.552, 73.50146
1306.620, 89.16748
1307.687, 90.84814
1308.754, 34.07959
1309.821, 86.70386
1310.888, 56.68945
1311.955, 26.67871
1313.021, 65.25244
1314.088, 72.25952
1315.154, 48.80542
1316.220, 34.33496
1317.286, 92.84497
1318.352, 56.34106
1319.417, 73.81250
1320.483, 95.49414
1321.548, 99.34570
1322.613, 54.63306
1323.678, 58.35352
1324.743, 132.7612
1325.807, 77.07666
1326.872, 126.3279
1327.936, 54.44214
1329.000, 98.58105
1330.064, 50.73071
1331.128, 39.86377
1332.191, 82.66089
1333.255, 102.6292
1334.318, 109.7798
1335.381, 62.96484
1336.444, 41.20947
1337.507, 86.19360
1338.569, 73.60742
1339.632, 129.9631
1340.694, 81.47925
1341.756, 49.91748
1342.818, 96.38208
1343.880, 109.5879
1344.941, 52.73462
1346.003, 80.86646
1347.064, 38.83984
1348.125, 87.94482
1349.186, 11.71045
1350.247, 107.7410
1351.308, 61.52246
1352.368, 61.50781
1353.428, 66.09131
1354.489, 52.08252
1355.549, 81.73950
1356.608, 59.74414
1357.668, 125.7371
1358.727, 63.48901
1359.787, 94.29199
1360.846, 95.94971
1361.905, 70.89355
1362.964, 69.41187
1364.022, 99.33057
1365.081, 87.78223
1366.139, 60.67822
1367.197, 37.48267
1368.255, 51.35596
1369.313, 95.21826
1370.371, 84.06982
1371.428, 32.91040
1372.486, 75.48462
1373.543, 40.29810
1374.600, 94.97412
1375.657, 49.76562
1376.713, 123.5464
1377.770, 37.31689
1378.826, 87.90479
1379.882, 126.4600
1380.938, 67.19897
1381.994, 52.92749
1383.050, 63.64624
1384.106, 100.3547
1385.161, 62.12939
1386.216, 84.54126
1387.271, 43.16943
1388.326, 80.68091
1389.381, 119.3403
1390.435, 109.8872
1391.490, 122.2317
1392.544, 73.28760
1393.598, 95.92993
1394.652, 72.34863
1395.705, 40.93921
1396.759, 53.65186
1397.812, 21.31958
1398.866, 97.63696
1399.919, 91.23291
1400.972, 38.81909
1402.024, 48.69922
1403.077, 18.12622
1404.129, 84.43384
1405.181, 59.39038
1406.233, 77.88916
1407.285, 59.54053
1408.337, 45.02271
1409.389, 55.02979
1410.440, 93.49170
1411.491, 111.5325
1412.542, 111.0886
1413.593, 63.99463
1414.644, 103.8335
1415.695, 64.30957
1416.745, 57.40503
1417.795, 96.84644
1418.845, 75.23633
1419.895, 49.68530
1420.945, 80.83984
1421.995, 44.42651
1423.044, 2.783447
1424.093, 55.45361
1425.142, 100.1880
1426.191, 42.41162
1427.240, 45.75928
1428.289, 83.98901
1429.337, 56.17334
1430.385, 83.75586
1431.433, 98.21313
1432.481, 99.96167
1433.529, 52.09717
1434.577, 68.64893
1435.624, 58.19824
1436.672, 47.40234
1437.719, 72.88745
1438.766, 86.97632
1439.812, 79.13257
1440.859, 108.4373
1441.905, 93.41333
1442.952, 56.87476
1443.998, 62.99365
1445.044, 67.79297
1446.090, 65.81738
1447.135, 40.57935
1448.181, 47.70728
1449.226, 48.83472
1450.271, 109.2651
1451.316, 56.37573
1452.361, 114.8401
1453.405, 102.1760
1454.450, 63.37354
1455.494, 67.21606
1456.538, 80.47119
1457.582, 13.46826
1458.626, 75.87988
1459.670, 36.03882
1460.713, 116.9580
1461.757, 54.12524
1462.800, 86.36792
1463.843, 14.57397
1464.886, 54.88354
1465.928, 87.20068
1466.971, 92.56152
1468.013, 101.9287
1469.055, 91.29785
1470.097, 94.37622
1471.139, 64.62598
1472.181, 95.62817
1473.222, 121.7302
1474.263, 100.9177
1475.305, 115.9453
1476.346, 90.23901
1477.386, 113.4126
1478.427, 80.65063
1479.468, 84.41479
1480.508, 51.91895
1481.548, 87.18213
1482.588, 100.4343
1483.628, 122.6775
1484.668, 51.61206
1485.707, 51.30591
1486.747, 108.2837
1487.786, 92.80591
1488.825, 135.9761
1489.864, 97.13354
1490.902, 56.12085
1491.941, 83.32056
1492.979, 83.52148
1494.017, 81.72290
1495.055, 48.88452
1496.093, 57.98633
1497.131, 18.07812
1498.168, 77.29712
1499.206, 71.40186
1500.243, 45.52515
1501.280, 88.74316
1502.317, 76.96899
1503.354, 4.131836
1504.390, 106.2708
1505.426, 43.48950
1506.463, 55.71387
1507.499, 130.9473
1508.535, 52.19067
1509.570, 23.33496
1510.606, 73.50806
1511.641, 98.76318
1512.676, 74.03174
1513.711, 96.30371
1514.746, 46.95435
1515.781, 25.05103
1516.816, 39.29272
1517.850, 31.09131
1518.884, 74.33081
1519.918, 85.56396
1520.952, 86.66162
1521.986, 16.02368
1523.019, 90.25854
1524.053, 28.49634
1525.086, 28.73291
1526.119, 72.97095
1527.152, 32.20801
1528.185, 50.44678
1529.217, 5.295898
1530.250, 98.98291
1531.282, 8.268066
1532.314, 81.55884
1533.346, 97.85229
1534.377, 19.76733
1535.409, 110.0925
1536.440, 50.42627
1537.472, 65.90088
1538.503, 51.22046
1539.534, 28.54297
1540.564, 34.56128
1541.595, 17.88354
1542.625, 85.20605
1543.656, 28.36646
1544.686, 35.65015
1545.716, 63.10400
1546.745, 168.0845
1547.775, 70.31494
1548.804, 90.54468
1549.834, 63.85205
1550.863, 167.5764
1551.892, 224.8801
1552.920, 186.6162
1553.949, 135.8748
1554.977, 92.16992
1556.006, 45.90161
1557.034, 9.670166
1558.062, 35.81885
1559.089, 58.88550
1560.117, 109.9128
1561.144, 56.00464
1562.172, 43.33032
1563.199, 76.67163
1564.226, 7.795410
1565.252, 6.210205
1566.279, 39.88843
1567.305, 35.21191
1568.332, 14.72925
1569.358, 8.2764000E-02
1570.384, 0.0000000E+00
##END=



