##NAMES=Chlormayenite
##RRUFFID=R130063
##IDEAL CHEMISTRY=Ca_12_Al_14_O_32_[[box]_4_Cl_2_]
##LOCALITY=Northwest Africa (NWA) 1934 meteorite
##OWNER=Chi Ma
##SOURCE=Chi Ma
##DESCRIPTION=Fine-grained aggregates coexisting with hercynite, gehlenite, and perovskite. Data from Ma et al (2011)
##STATUS=The identification of this mineral is confirmed by electron back-scatter diffraction and chemical analysis
##URL=rruff.info/R130063
##MEASURED CHEMISTRY=(Ca_11.91_Na_0.06_)_Σ=11.97_(Al_13.89_Fe^2+^_ 0.16_Ti^4+^_0.01_)_Σ=14.06_O_31.89_Cl_2.11_
2000.57, 66223.3
1999.61, 66267.7
1998.65, 66404.5
1997.7, 66290.6
1996.74, 66403.8
1995.78, 66577.1
1994.82, 66737.3
1993.86, 66010.1
1992.91, 66934.8
1991.95, 66126.9
1990.99, 65950.5
1990.03, 66426.2
1989.07, 65996.9
1988.11, 65763.2
1987.16, 65858.1
1986.2, 66364.8
1985.24, 66094.7
1984.28, 66233.8
1983.32, 65765.8
1982.36, 66947
1981.4, 65843.4
1980.44, 66094.5
1979.48, 66116.3
1978.52, 65890.7
1977.56, 65993.3
1976.6, 66199.9
1975.64, 66125.4
1974.68, 66019.6
1973.72, 65940
1972.76, 66026.8
1971.79, 66298.3
1970.83, 66416.3
1969.87, 66383.4
1968.91, 66002.1
1967.95, 66068.1
1966.99, 66336.7
1966.02, 66088.2
1965.06, 65795.5
1964.1, 65723.7
1963.14, 65639
1962.18, 66118
1961.21, 65887.8
1960.25, 66319.8
1959.29, 66053.3
1958.32, 66168.4
1957.36, 65909.8
1956.4, 65760.3
1955.43, 65906.5
1954.47, 65466.4
1953.51, 65765.8
1952.54, 65914.6
1951.58, 66237.1
1950.61, 65802.4
1949.65, 66029
1948.69, 65674.7
1947.72, 65893.4
1946.76, 65959.2
1945.79, 65739.9
1944.83, 66220.1
1943.86, 65690
1942.9, 66058.7
1941.93, 65712.6
1940.97, 65703.3
1940, 65730.1
1939.03, 65951.1
1938.07, 65209.2
1937.1, 65764
1936.14, 65570.9
1935.17, 65566.7
1934.2, 65603.9
1933.24, 65685
1932.27, 65745.5
1931.3, 65477.5
1930.34, 65788.7
1929.37, 65983.5
1928.4, 65364.1
1927.43, 65680.4
1926.47, 65960.4
1925.5, 65638.3
1924.53, 65631.5
1923.56, 65449.1
1922.59, 65406.2
1921.63, 65518.2
1920.66, 65395.2
1919.69, 65489.1
1918.72, 65453.9
1917.75, 65349.1
1916.78, 65602.9
1915.81, 65557.4
1914.84, 65901.4
1913.88, 65618.6
1912.91, 65887.7
1911.94, 64810.9
1910.97, 65703.9
1910, 65444.4
1909.03, 65234.1
1908.06, 65397.4
1907.09, 64890.8
1906.12, 65020.6
1905.14, 64890.2
1904.17, 65074.1
1903.2, 65286.2
1902.23, 65143
1901.26, 65339.6
1900.29, 64900.4
1899.32, 65598.8
1898.35, 65561.1
1897.37, 65343.3
1896.4, 65431.7
1895.43, 65201.2
1894.46, 65251
1893.49, 65334.2
1892.51, 65430.3
1891.54, 64955.6
1890.57, 64966.9
1889.6, 65039.8
1888.62, 64827.5
1887.65, 65270.4
1886.68, 65320.1
1885.7, 64912.7
1884.73, 64970.1
1883.76, 65048.1
1882.78, 65287.8
1881.81, 65365.7
1880.83, 65530.9
1879.86, 64764.5
1878.88, 64963.1
1877.91, 65017.9
1876.94, 65395.9
1875.96, 64229.9
1874.99, 64687.4
1874.01, 65088.3
1873.04, 64853.4
1872.06, 65051.7
1871.08, 65170.5
1870.11, 64966.5
1869.13, 64864.9
1868.16, 64748
1867.18, 65066.6
1866.2, 64855
1865.23, 64973.7
1864.25, 64864.5
1863.28, 64430.3
1862.3, 64380.1
1861.32, 64276.2
1860.34, 64435.9
1859.37, 65122.5
1858.39, 64703.9
1857.41, 65208.7
1856.43, 64716
1855.46, 64699.1
1854.48, 64725.6
1853.5, 64562.9
1852.52, 64988.2
1851.54, 64789.7
1850.57, 64777.9
1849.59, 64551.5
1848.61, 64912.6
1847.63, 64479.3
1846.65, 64487.9
1845.67, 64894.9
1844.69, 64834.5
1843.71, 64628.7
1842.73, 64338.7
1841.75, 64612.7
1840.77, 64437.6
1839.79, 64349.2
1838.81, 64839.9
1837.83, 64473.6
1836.85, 64061.5
1835.87, 64075.2
1834.89, 64657.4
1833.91, 64395.8
1832.93, 64570.1
1831.95, 64700.9
1830.97, 64286.6
1829.99, 65021.2
1829, 64232.5
1828.02, 63963.5
1827.04, 64262.4
1826.06, 64253.2
1825.08, 63818.9
1824.09, 64512.2
1823.11, 64286.6
1822.13, 64160.3
1821.15, 64235.1
1820.16, 64337.8
1819.18, 64074.2
1818.2, 64194.7
1817.22, 63791.4
1816.23, 64265.2
1815.25, 64159.4
1814.26, 63835.1
1813.28, 64397.6
1812.3, 64286.8
1811.31, 64203.9
1810.33, 64248
1809.34, 64289.5
1808.36, 64178.7
1807.37, 64189.8
1806.39, 64086.7
1805.41, 63935.3
1804.42, 64179.9
1803.43, 64051.5
1802.45, 64164
1801.46, 63695.7
1800.48, 64031.5
1799.49, 63565.8
1798.51, 63569.3
1797.52, 64485.6
1796.53, 64354.6
1795.55, 64028.6
1794.56, 63918
1793.57, 64048.2
1792.59, 63843.9
1791.6, 63594.1
1790.61, 64190.3
1789.63, 63748
1788.64, 63584.4
1787.65, 63833.5
1786.66, 64490
1785.68, 63389.9
1784.69, 63821.2
1783.7, 63566.5
1782.71, 63749.7
1781.72, 63720.3
1780.74, 63943.8
1779.75, 63565.4
1778.76, 64115
1777.77, 63896
1776.78, 63823.6
1775.79, 63713.3
1774.8, 63363.1
1773.81, 63540.9
1772.82, 64163.3
1771.83, 63659
1770.84, 64069.1
1769.85, 64082.6
1768.86, 63750.2
1767.87, 63395.2
1766.88, 63964.1
1765.89, 63954.9
1764.9, 63365.3
1763.91, 63358.8
1762.92, 63465.7
1761.93, 63976.1
1760.94, 63455
1759.94, 63751
1758.95, 63519.9
1757.96, 63225.9
1756.97, 63615.1
1755.98, 63333.8
1754.98, 63533.8
1753.99, 63449.1
1753, 63152.8
1752.01, 63123.5
1751.01, 63137.1
1750.02, 63460.4
1749.03, 63451.2
1748.04, 62958.8
1747.04, 63538.7
1746.05, 63891.9
1745.06, 62858.7
1744.06, 63008.1
1743.07, 63726
1742.07, 63741.9
1741.08, 63463.7
1740.08, 63281.1
1739.09, 63239.3
1738.1, 63582.1
1737.1, 63510.1
1736.11, 63340.1
1735.11, 63278.3
1734.12, 63294.3
1733.12, 63292.7
1732.13, 63082.7
1731.13, 63415.1
1730.13, 63303
1729.14, 62934.9
1728.14, 63345
1727.15, 63489
1726.15, 63424.6
1725.15, 62590.1
1724.16, 63112.9
1723.16, 63164
1722.16, 63315.4
1721.17, 63607.1
1720.17, 63437.5
1719.17, 63508.6
1718.17, 63078.4
1717.18, 63370
1716.18, 63365.9
1715.18, 63001
1714.18, 63057.1
1713.18, 63583.9
1712.19, 63179.1
1711.19, 63640.7
1710.19, 63283.6
1709.19, 63594.8
1708.19, 63398
1707.19, 63011
1706.19, 63242.1
1705.19, 63115.4
1704.19, 63253.9
1703.19, 63880
1702.19, 63558.2
1701.19, 63591.6
1700.19, 63504.9
1699.19, 63418.3
1698.19, 63371.6
1697.19, 63694.8
1696.19, 63503.3
1695.19, 63594
1694.19, 63385
1693.19, 63593.2
1692.19, 63621.4
1691.19, 63647.2
1690.19, 63695.5
1689.18, 64045.7
1688.18, 63584.7
1687.18, 63717.8
1686.18, 63553.9
1685.18, 64290.6
1684.17, 63997
1683.17, 64272
1682.17, 64235.3
1681.16, 64308.3
1680.16, 64206.8
1679.16, 64723.4
1678.16, 63812
1677.15, 64460.6
1676.15, 64411.4
1675.14, 64491.8
1674.14, 64213.5
1673.14, 65337.3
1672.13, 64680.5
1671.13, 64765.8
1670.12, 65197
1669.12, 65229.9
1668.12, 65145.8
1667.11, 65400.1
1666.11, 65405.6
1665.1, 65351.4
1664.09, 65886.6
1663.09, 65951.7
1662.08, 66068.9
1661.08, 66288.1
1660.07, 66335.7
1659.07, 66693.9
1658.06, 66947.6
1657.05, 67370.2
1656.05, 67541.8
1655.04, 67576.8
1654.03, 67989.2
1653.03, 68170.6
1652.02, 68684.5
1651.01, 69248
1650.01, 69458.9
1649, 69987.3
1647.99, 70808.4
1646.98, 71269.5
1645.97, 71765.2
1644.97, 72568.3
1643.96, 73033.9
1642.95, 73427.5
1641.94, 74991
1640.93, 75451.1
1639.92, 76711.6
1638.92, 77404.2
1637.91, 78634.2
1636.9, 79296.7
1635.89, 81019
1634.88, 81552.1
1633.87, 83850.5
1632.86, 85497.1
1631.85, 86588.8
1630.84, 87937.5
1629.83, 89558.1
1628.82, 91423.2
1627.81, 93797.3
1626.8, 94298.3
1625.79, 96616.9
1624.78, 98499.6
1623.76, 99968.9
1622.75, 101035
1621.74, 103124
1620.73, 104498
1619.72, 105125
1618.71, 106340
1617.69, 107523
1616.68, 108607
1615.67, 109063
1614.66, 109699
1613.64, 110589
1612.63, 111457
1611.62, 111559
1610.61, 112604
1609.59, 112615
1608.58, 113203
1607.57, 112925
1606.55, 113314
1605.54, 113630
1604.52, 113448
1603.51, 114522
1602.5, 113884
1601.48, 114861
1600.47, 114753
1599.45, 114170
1598.44, 114353
1597.42, 114676
1596.41, 114118
1595.39, 113847
1594.38, 114215
1593.36, 113977
1592.35, 113461
1591.33, 113097
1590.32, 112257
1589.3, 111982
1588.28, 110441
1587.27, 110358
1586.25, 108987
1585.23, 108526
1584.22, 107146
1583.2, 106300
1582.18, 104451
1581.16, 104168
1580.15, 103241
1579.13, 102445
1578.11, 101826
1577.09, 100202
1576.08, 99151.3
1575.06, 98073.8
1574.04, 97676.6
1573.02, 96633.9
1572, 95557.2
1570.98, 94777.7
1569.97, 93780.1
1568.95, 93486.8
1567.93, 92492.1
1566.91, 91811.6
1565.89, 90243.6
1564.87, 90188.9
1563.85, 89077.5
1562.83, 89084.2
1561.81, 88620.4
1560.79, 87228
1559.77, 87095.3
1558.75, 86884.2
1557.73, 85644.5
1556.71, 84990.4
1555.68, 85007.5
1554.66, 84463.9
1553.64, 83856.8
1552.62, 84040.5
1551.6, 83093.4
1550.58, 82584.7
1549.56, 82518.9
1548.53, 82250.1
1547.51, 81369.9
1546.49, 81940.1
1545.47, 80938
1544.44, 80901.8
1543.42, 80354.7
1542.4, 80272.2
1541.38, 78821.2
1540.35, 79046.8
1539.33, 79379.8
1538.31, 79385.4
1537.28, 78746.2
1536.26, 78634.7
1535.23, 78225.3
1534.21, 77903.9
1533.19, 78229.5
1532.16, 77878.9
1531.14, 77816.3
1530.11, 77529.4
1529.09, 77476.6
1528.06, 77260.5
1527.04, 78185.8
1526.01, 77491.7
1524.99, 77512.1
1523.96, 77371.7
1522.94, 76812.1
1521.91, 76627.9
1520.88, 76577.8
1519.86, 76264.6
1518.83, 75846.7
1517.8, 75558.1
1516.78, 75525.2
1515.75, 75307.3
1514.72, 74872.7
1513.7, 74698.8
1512.67, 75033.5
1511.64, 74930.2
1510.62, 75014.2
1509.59, 74127.5
1508.56, 73691.1
1507.53, 73541.8
1506.5, 73917.7
1505.48, 73469.4
1504.45, 74166.1
1503.42, 73744.6
1502.39, 73250.2
1501.36, 73448.6
1500.33, 73816.9
1499.3, 73065.3
1498.27, 73516.2
1497.24, 73352.5
1496.21, 73218
1495.18, 73574
1494.16, 73708.9
1493.12, 73729.8
1492.09, 72772.6
1491.06, 72779.1
1490.03, 73518.1
1489, 72925.3
1487.97, 73268.8
1486.94, 72581.6
1485.91, 72813.5
1484.88, 72984.7
1483.85, 73061.4
1482.82, 72704.2
1481.78, 72969.9
1480.75, 72654
1479.72, 72636.2
1478.69, 72511.8
1477.66, 72963.8
1476.62, 72713.5
1475.59, 72666.6
1474.56, 72375.2
1473.53, 71754.8
1472.49, 72344.5
1471.46, 72851.8
1470.43, 72340.4
1469.39, 72937
1468.36, 72203.3
1467.33, 72528.9
1466.29, 72211.3
1465.26, 72360.4
1464.22, 72009
1463.19, 72462.6
1462.15, 72258.7
1461.12, 71999.3
1460.08, 72240.1
1459.05, 72183.7
1458.01, 72400.2
1456.98, 72380.1
1455.94, 72239.1
1454.91, 71798.9
1453.87, 72208.5
1452.84, 72366.9
1451.8, 72469.8
1450.76, 72015.3
1449.73, 72077.2
1448.69, 71859.3
1447.65, 71981.5
1446.62, 72096.4
1445.58, 72428.3
1444.54, 72557.5
1443.51, 72547
1442.47, 73028
1441.43, 72525.9
1440.39, 73348.9
1439.36, 72545.7
1438.32, 72698.9
1437.28, 73066.4
1436.24, 73188.2
1435.2, 73319.6
1434.16, 73424.4
1433.13, 73868.6
1432.09, 73855.5
1431.05, 74446.2
1430.01, 74254.9
1428.97, 74080.6
1427.93, 74457
1426.89, 74713.1
1425.85, 74947.4
1424.81, 74813.9
1423.77, 75865.4
1422.73, 75693.3
1421.69, 75189.7
1420.65, 75856.2
1419.61, 76219.9
1418.57, 76316.9
1417.53, 76947
1416.48, 77591.3
1415.44, 77109.4
1414.4, 77489.5
1413.36, 78279.8
1412.32, 78182
1411.28, 79089.5
1410.23, 79250.8
1409.19, 80378.6
1408.15, 80841.7
1407.11, 80331.2
1406.06, 80974
1405.02, 82177.6
1403.98, 82458.1
1402.94, 83033.2
1401.89, 83342.2
1400.85, 84214.1
1399.8, 85001.9
1398.76, 85238.6
1397.72, 85468.1
1396.67, 86291.3
1395.63, 87085.5
1394.58, 87999.2
1393.54, 88687.6
1392.5, 89021.7
1391.45, 89506.4
1390.41, 90876.1
1389.36, 91389.1
1388.31, 92727.1
1387.27, 93332.9
1386.22, 94837.6
1385.18, 94701.8
1384.13, 96480.7
1383.09, 97668.8
1382.04, 98849.3
1380.99, 99370.1
1379.95, 100545
1378.9, 101636
1377.85, 102469
1376.81, 104594
1375.76, 105672
1374.71, 107340
1373.66, 108047
1372.62, 109146
1371.57, 111184
1370.52, 112740
1369.47, 114067
1368.43, 115686
1367.38, 117222
1366.33, 118295
1365.28, 119691
1364.23, 121321
1363.18, 123067
1362.13, 123937
1361.08, 125511
1360.03, 126672
1358.98, 127766
1357.93, 129531
1356.88, 129852
1355.83, 131388
1354.78, 132595
1353.73, 132790
1352.68, 134577
1351.63, 134407
1350.58, 135327
1349.53, 135809
1348.48, 136651
1347.43, 135763
1346.38, 135477
1345.33, 135390
1344.27, 134446
1343.22, 133979
1342.17, 132204
1341.12, 131464
1340.07, 130371
1339.01, 129842
1337.96, 127507
1336.91, 126327
1335.85, 124492
1334.8, 123848
1333.75, 121726
1332.7, 120370
1331.64, 118886
1330.59, 117597
1329.53, 114885
1328.48, 113028
1327.43, 111970
1326.37, 109948
1325.32, 109119
1324.26, 108152
1323.21, 106167
1322.15, 105274
1321.1, 103247
1320.04, 103092
1318.99, 100484
1317.93, 99412.7
1316.88, 98448.6
1315.82, 98306.3
1314.76, 96897.6
1313.71, 95546.1
1312.65, 94192.6
1311.59, 93031.1
1310.54, 92799.9
1309.48, 91589.3
1308.42, 90618
1307.37, 90049
1306.31, 89253.1
1305.25, 87679.7
1304.19, 87437.6
1303.14, 85928.7
1302.08, 85244.9
1301.02, 84606.3
1299.96, 83771.8
1298.9, 83598.9
1297.85, 82618.3
1296.79, 81612.1
1295.73, 81019.3
1294.67, 80835.1
1293.61, 79652.5
1292.55, 78942.3
1291.49, 78850.5
1290.43, 77888.1
1289.37, 77036.9
1288.31, 76624.7
1287.25, 76259.7
1286.19, 75791.1
1285.13, 75159.9
1284.07, 74543.1
1283.01, 73853.4
1281.95, 73736.5
1280.89, 73709.2
1279.83, 73156.6
1278.77, 72057.6
1277.7, 71608.9
1276.64, 71746.8
1275.58, 71215.9
1274.52, 70946.6
1273.46, 70072.3
1272.4, 69629
1271.33, 69451.7
1270.27, 69479.2
1269.21, 68699.8
1268.14, 68311
1267.08, 68079.9
1266.02, 67682
1264.96, 67754.3
1263.89, 67156.7
1262.83, 66585.1
1261.76, 66601.2
1260.7, 66549.2
1259.64, 65670.1
1258.57, 65792.1
1257.51, 65589.8
1256.44, 65159.9
1255.38, 64859.2
1254.31, 64708.8
1253.25, 64603.1
1252.18, 63729.9
1251.12, 64098.4
1250.05, 63960
1248.99, 62892.6
1247.92, 63157.8
1246.85, 62986.7
1245.79, 63073.6
1244.72, 62743.2
1243.66, 62649.6
1242.59, 62021.6
1241.52, 61846.1
1240.46, 61748
1239.39, 61535.1
1238.32, 61467.5
1237.25, 61299.3
1236.19, 61056.1
1235.12, 60972.2
1234.05, 60743.2
1232.98, 61045.6
1231.91, 60245.6
1230.85, 60339.7
1229.78, 59923.7
1228.71, 60074
1227.64, 59789.2
1226.57, 60007.3
1225.5, 58927.5
1224.43, 59456.6
1223.36, 59244.5
1222.29, 59013.8
1221.22, 59505.2
1220.15, 58935.7
1219.08, 58368.7
1218.01, 58259.7
1216.94, 58613.1
1215.87, 58006.7
1214.8, 58245.7
1213.73, 58188.1
1212.66, 57694.1
1211.59, 57440.5
1210.52, 57175.4
1209.45, 57778.3
1208.38, 57503.9
1207.3, 57192.2
1206.23, 57403
1205.16, 56860.6
1204.09, 56458.2
1203.01, 56827.6
1201.94, 56217.9
1200.87, 56624.5
1199.8, 56299.3
1198.72, 56167.5
1197.65, 55849.4
1196.58, 56041.5
1195.5, 56056.6
1194.43, 55354.5
1193.36, 55758.4
1192.28, 55545.4
1191.21, 55369.7
1190.13, 55571
1189.06, 55595.4
1187.98, 55650
1186.91, 55053.4
1185.83, 55089.5
1184.76, 55560.4
1183.68, 55082.6
1182.61, 55035
1181.53, 54682.9
1180.46, 54997.9
1179.38, 54566.9
1178.31, 54565.8
1177.23, 54495.1
1176.15, 54417.4
1175.08, 53991.4
1174, 53639.8
1172.92, 53803.7
1171.85, 53858.5
1170.77, 53437.4
1169.69, 53469
1168.61, 53997.2
1167.54, 53207.4
1166.46, 53176.4
1165.38, 53641.7
1164.3, 53320.8
1163.22, 53113.5
1162.15, 53379.3
1161.07, 53174.4
1159.99, 52758.7
1158.91, 52391.8
1157.83, 52587.9
1156.75, 52617.3
1155.67, 52658.2
1154.59, 52516.1
1153.51, 52596.4
1152.43, 51854.7
1151.35, 51701.3
1150.27, 51494.6
1149.19, 51836.5
1148.11, 51618.3
1147.03, 51587.6
1145.95, 51859.9
1144.87, 51623.3
1143.79, 51241.1
1142.71, 51265.9
1141.63, 51115
1140.54, 51033.5
1139.46, 50968.3
1138.38, 50771.3
1137.3, 50634.4
1136.22, 50703.2
1135.13, 50370.1
1134.05, 50538.2
1132.97, 50401.4
1131.89, 50671
1130.8, 50084.2
1129.72, 50286.8
1128.64, 50445.6
1127.55, 49953.6
1126.47, 49824
1125.39, 50224.9
1124.3, 49779.3
1123.22, 49790.5
1122.13, 49847.7
1121.05, 49708.9
1119.96, 49445.8
1118.88, 49473.1
1117.79, 49537.2
1116.71, 49338.7
1115.62, 49513.4
1114.54, 49296.5
1113.45, 49121.1
1112.37, 49302.7
1111.28, 49099.8
1110.2, 49292.8
1109.11, 48850.5
1108.02, 48928.5
1106.94, 49225
1105.85, 49151
1104.76, 48283.5
1103.68, 48554.7
1102.59, 48524.5
1101.5, 48673.7
1100.41, 48645.9
1099.33, 48105.4
1098.24, 48629.2
1097.15, 48247.5
1096.06, 48114
1094.97, 48056.4
1093.88, 48102.1
1092.8, 47762.1
1091.71, 48058.1
1090.62, 47844.4
1089.53, 47812.1
1088.44, 47816.5
1087.35, 47529.5
1086.26, 47472
1085.17, 47763.3
1084.08, 47786
1082.99, 47423.5
1081.9, 47510.5
1080.81, 46930.3
1079.72, 47402.5
1078.63, 47526.2
1077.54, 47019.6
1076.45, 46934.7
1075.36, 46668.9
1074.27, 46515.4
1073.17, 47214
1072.08, 47140.6
1070.99, 46794.8
1069.9, 46254.5
1068.81, 46549.8
1067.71, 46558.9
1066.62, 46300.3
1065.53, 46499.4
1064.44, 46595.5
1063.34, 46407.9
1062.25, 46183.8
1061.16, 46291.3
1060.06, 46275.4
1058.97, 45991.9
1057.88, 46005.7
1056.78, 46017.2
1055.69, 45096.4
1054.59, 45551.3
1053.5, 45670.2
1052.4, 45946.6
1051.31, 45839.4
1050.21, 45391.9
1049.12, 45570.1
1048.02, 45675.3
1046.93, 45291.9
1045.83, 45251
1044.74, 44970.5
1043.64, 45436.1
1042.55, 45244.7
1041.45, 44932.4
1040.35, 44750.2
1039.26, 45201.8
1038.16, 45119.9
1037.06, 45199.9
1035.97, 44855.9
1034.87, 45204.7
1033.77, 44539.6
1032.67, 44724.4
1031.58, 44651.7
1030.48, 45248.6
1029.38, 45037
1028.28, 44324.6
1027.18, 44575.3
1026.09, 44646.1
1024.99, 44437
1023.89, 44084.6
1022.79, 44401.1
1021.69, 44428.6
1020.59, 44649.5
1019.49, 44140.3
1018.39, 44127
1017.29, 44395.5
1016.19, 43786.7
1015.09, 44237
1013.99, 44025.9
1012.89, 44239.8
1011.79, 43524.5
1010.69, 44244.9
1009.59, 43854.6
1008.49, 44004.7
1007.39, 43909.7
1006.29, 43753.4
1005.18, 43563.1
1004.08, 43148.2
1002.98, 43638.7
1001.88, 43616.4
1000.78, 43650.7
999.673, 43512.7
998.571, 43368
997.468, 43302.6
996.365, 43196.5
995.262, 43457.5
994.159, 43355.9
993.056, 43777.7
991.952, 43146
990.848, 43300.4
989.745, 42866
988.641, 43489.2
987.536, 43091
986.432, 43123.1
985.328, 42910.8
984.223, 43232.6
983.118, 43350.6
982.013, 42869.1
980.908, 42736.1
979.803, 42693.5
978.697, 42628.4
977.592, 42689.9
976.486, 42733.4
975.38, 42605
974.274, 42691.3
973.167, 42637.6
972.061, 42875.3
970.954, 42920.9
969.847, 42702.2
968.74, 42528.7
967.633, 42804.7
966.526, 42254.2
965.419, 42564
964.311, 42300.4
963.203, 42375.4
962.095, 42655.7
960.987, 42236.5
959.879, 42047.5
958.77, 42235.2
957.662, 42625.9
956.553, 42276.8
955.444, 42124
954.335, 42111
953.226, 42118.3
952.116, 41965.6
951.007, 42126.1
949.897, 42083.8
948.787, 42061.8
947.677, 42087.1
946.567, 42348.8
945.456, 41676.1
944.346, 42284.5
943.235, 41951.9
942.124, 42184.2
941.013, 41995.7
939.902, 41802.7
938.79, 41596.3
937.679, 42001.7
936.567, 41383.9
935.455, 42148.9
934.343, 41917.9
933.231, 41738.6
932.119, 41523.4
931.006, 41595.9
929.893, 41654.8
928.781, 41655.4
927.667, 42136.6
926.554, 41791.3
925.441, 41540.3
924.327, 41722.7
923.214, 41379.8
922.1, 41551
920.986, 41320.4
919.872, 41664.3
918.757, 41371
917.643, 41322.2
916.528, 41977.7
915.413, 41401.9
914.298, 41604.3
913.183, 41551
912.067, 41083.1
910.952, 41686.6
909.836, 41375.7
908.72, 41539.8
907.604, 41697.2
906.488, 41193.7
905.372, 41581.8
904.255, 41631.6
903.139, 41094.8
902.022, 41079.7
900.905, 41113.9
899.788, 41324.9
898.67, 41356.8
897.553, 41605.7
896.435, 41257.3
895.317, 41269
894.199, 41186.9
893.081, 41303.7
891.963, 41395.9
890.844, 41425.6
889.725, 41379.2
888.607, 41509.3
887.488, 41284.2
886.368, 41597.5
885.249, 41423.8
884.13, 41210
883.01, 41125.7
881.89, 41423.2
880.77, 41394.8
879.65, 41348.4
878.53, 41324.4
877.409, 41666.3
876.288, 41064.5
875.167, 40980.4
874.046, 41065.7
872.925, 40954.8
871.804, 41064.6
870.682, 41040.7
869.561, 40753.8
868.439, 40963.9
867.317, 41040.2
866.195, 40989.6
865.072, 40615.9
863.95, 41106.6
862.827, 41202.9
861.704, 41279.1
860.581, 41092.7
859.458, 40850.6
858.335, 40855.7
857.211, 40769.5
856.088, 40756.7
854.964, 40608.3
853.84, 40571.1
852.716, 40827.5
851.591, 40830.3
850.467, 40886.5
849.342, 40627
848.217, 40649.9
847.092, 40874.9
845.967, 40697.8
844.842, 40487.3
843.716, 40450.2
842.59, 40188.8
841.465, 40666.9
840.339, 40569.8
839.212, 40692.5
838.086, 40495.6
836.959, 40857.9
835.833, 40443.6
834.706, 40470.8
833.579, 40699.9
832.452, 40585.2
831.324, 40461.6
830.197, 40471.1
829.069, 40247.8
827.941, 40607.6
826.813, 40479.6
825.685, 40367.3
824.557, 40715.7
823.428, 40401.7
822.299, 40716.9
821.171, 40126.2
820.041, 40230.9
818.912, 40131.9
817.783, 39988.7
816.653, 39978.3
815.524, 40333.1
814.394, 40342.6
813.264, 40352
812.133, 39987.7
811.003, 39919.8
809.872, 39880.7
808.742, 39905.7
807.611, 39888.7
806.48, 39957.9
805.349, 40124.3
804.217, 39797.9
803.086, 39962.1
801.954, 39889.9
800.822, 40142.4
799.69, 39681.5
798.558, 39763.9
797.425, 39872.8
796.293, 39529.1
795.16, 39812.3
794.027, 39495.2
792.894, 40416
791.761, 39915.8
790.627, 39819.4
789.494, 40219.3
788.36, 40144.9
787.226, 40167.6
786.092, 39939
784.957, 39847.1
783.823, 40323.7
782.688, 39938.7
781.554, 40230.2
780.419, 40107.4
779.284, 40288.7
778.148, 40280.5
777.013, 40395.5
775.877, 40942.1
774.741, 40735.7
773.605, 40841.8
772.469, 40910.5
771.333, 40517.2
770.197, 40764.1
769.06, 40868
767.923, 40138.4
766.786, 40095.1
765.649, 40126.4
764.512, 39634.7
763.374, 39848.5
762.236, 39128.4
761.099, 39408.2
759.961, 39092.6
758.822, 38933
757.684, 39094.1
756.546, 39079.4
755.407, 39220.7
754.268, 38918.5
753.129, 38638.3
751.99, 38551.4
750.85, 38541.2
749.711, 38632
748.571, 38435.4
747.431, 38686.2
746.291, 38393.2
745.151, 38341.4
744.011, 38476
742.87, 38277.4
741.729, 38374.6
740.588, 37972.3
739.447, 38435.5
738.306, 38436.3
737.165, 37858.9
736.023, 38256.2
734.881, 38162.9
733.74, 38067.4
732.597, 38127.4
731.455, 38003.5
730.313, 38144.5
729.17, 37856.5
728.027, 37960.2
726.884, 37969.9
725.741, 37752
724.598, 37947.6
723.455, 37598.6
722.311, 37829.1
721.167, 37845.3
720.023, 37653.9
718.879, 37818.7
717.735, 37679.8
716.59, 37455.7
715.446, 37771.2
714.301, 37689.1
713.156, 37722.7
712.011, 37690.9
710.865, 37362.2
709.72, 37489.8
708.574, 37089.2
707.428, 37561.5
706.282, 37337.7
705.136, 37591.7
703.99, 37374.5
702.843, 37355.8
701.696, 37234.7
700.549, 37401.3
699.402, 37463.3
698.255, 37228.9
697.108, 36988
695.96, 37087
694.812, 37175.1
693.665, 37354.7
692.516, 37131.3
691.368, 36969
690.22, 37457.6
689.071, 37086.4
687.922, 37096
686.773, 36933.8
685.624, 37330.8
684.475, 37246.9
683.326, 36965.1
682.176, 36926.9
681.026, 36912.7
679.876, 37144.1
678.726, 36912.5
677.576, 36880.9
676.425, 36842.8
675.274, 37193.6
674.124, 36829.6
672.973, 36867.5
671.821, 36725.2
670.67, 36847.8
669.519, 36848.8
668.367, 36565.4
667.215, 37020
666.063, 36255
664.911, 36553.3
663.758, 36617.2
662.606, 36948
661.453, 36810.1
660.3, 36418.6
659.147, 36632.2
657.994, 36615.8
656.84, 36744.7
655.687, 36570.2
654.533, 36183.3
653.379, 36526.7
652.225, 36558.1
651.071, 36411.8
649.916, 36549.3
648.761, 35950.5
647.607, 36337
646.452, 35952.7
645.296, 36196.2
644.141, 36186.5
642.986, 36365
641.83, 36275.1
640.674, 36284.8
639.518, 36331.3
638.362, 36546.4
637.205, 36242.6
636.049, 36168
634.892, 36430.5
633.735, 35686
632.578, 35881.6
631.421, 36332
630.264, 36004.8
629.106, 36269.3
627.948, 36121.4
626.79, 36090
625.632, 36071.7
624.474, 35865.5
623.315, 35883.9
622.157, 35872
620.998, 36039.2
619.839, 35606.7
618.68, 35993.9
617.521, 35451.5
616.361, 35789
615.201, 35971.2
614.042, 35782.6
612.881, 35859.1
611.721, 35965.8
610.561, 35824.7
609.4, 35588.8
608.24, 35706.2
607.079, 35517.8
605.918, 35751.5
604.756, 35972.1
603.595, 35413.5
602.433, 35343.7
601.272, 35314.7
600.11, 35726.8
598.948, 35575.1
597.785, 35352.5
596.623, 35583.8
595.46, 35709.6
594.297, 35674.1
593.134, 35610.7
591.971, 35717.2
590.808, 35260.5
589.644, 35238
588.481, 35746.2
587.317, 35575.4
586.153, 35013.8
584.989, 35143.8
583.824, 35456.3
582.66, 35569
581.495, 35147.3
580.33, 35393.1
579.165, 35338.4
578, 35107.8
576.834, 34950.3
575.669, 35020.1
574.503, 35240
573.337, 34848.7
572.171, 34796.3
571.004, 35279.8
569.838, 35141.6
568.671, 35029.2
567.504, 35154.6
566.337, 34898.7
565.17, 35251.2
564.003, 34376.4
562.835, 34808
561.667, 34873.4
560.5, 34724.8
559.331, 34618.9
558.163, 34613.7
556.995, 34869.6
555.826, 34866.5
554.657, 34970.3
553.488, 34939.4
552.319, 34850.7
551.15, 34924.6
549.981, 34855.2
548.811, 34640.5
547.641, 34336.1
546.471, 34457
545.301, 34693.2
544.13, 34878.1
542.96, 34588.8
541.789, 34600.7
540.618, 34789.8
539.447, 35030
538.276, 34892.4
537.105, 34844.5
535.933, 34862.7
534.761, 34656.9
533.589, 34837.3
532.417, 35190.3
531.245, 35411.1
530.072, 35181.9
528.9, 35515.5
527.727, 35523
526.554, 35760.6
525.381, 35719
524.207, 36284.6
523.034, 36816
521.86, 37059.6
520.686, 37629.1
519.512, 38123.8
518.338, 38303.3
517.163, 38838.2
515.989, 38760
514.814, 39032.9
513.639, 38839.8
512.464, 38376.5
511.289, 38185.7
510.113, 37424.9
508.938, 37096.1
507.762, 36797.1
506.586, 36357.9
505.409, 35986.8
504.233, 35571.2
503.057, 35321.5
501.88, 35424.5
500.703, 34767
499.526, 34895.6
498.349, 34648.2
497.171, 34812.9
495.994, 34302.4
494.816, 33734.7
493.638, 34103.1
492.46, 34036.5
491.281, 33868
490.103, 33926.5
488.924, 33840.8
487.745, 33750.8
486.566, 33786
485.387, 33588
484.208, 33784.3
483.028, 33518.5
481.848, 33517.7
480.668, 33262.6
479.488, 33310.6
478.308, 33532.2
477.127, 33465.7
475.947, 33124
474.766, 33243.9
473.585, 33238.9
472.404, 33559.8
471.222, 33512.4
470.041, 33316.9
468.859, 32964.9
467.677, 33160.9
466.495, 33139
465.313, 33227
464.131, 33410.2
462.948, 33174.7
461.765, 33102.1
460.582, 32987.2
459.399, 33489.3
458.216, 32894.8
457.032, 33434.8
455.849, 33100.3
454.665, 33348.7
453.481, 33341.6
452.297, 33051.5
451.112, 33019.1
449.928, 32807.3
448.743, 33038.7
447.558, 33065.3
446.373, 32948.5
445.188, 32899.2
444.002, 33067.2
442.816, 32948.3
441.631, 32498.5
440.445, 33113.3
439.258, 32866
438.072, 33038
436.886, 33092
435.699, 32903.7
434.512, 33012.5
433.325, 32876.9
432.138, 32844.6
430.95, 32690.1
429.762, 32721
428.575, 32678.1
427.387, 32666.9
426.199, 32863.9
425.01, 32589.7
423.822, 32542.7
422.633, 32838.5
421.444, 32686.3
420.255, 32929.5
419.066, 32518.8
417.876, 32600
416.687, 32878.8
415.497, 32655.3
414.307, 32665.1
413.117, 32897.5
411.927, 32546
410.736, 32599.9
409.545, 32632.7
408.355, 32520.7
407.164, 32839
405.972, 33056.5
404.781, 32619.3
403.589, 32391.9
402.398, 32361.9
401.206, 32650.6
400.014, 32370.9
398.821, 32456.2
397.629, 32197.6
396.436, 32542.8
395.243, 32688.8
394.05, 32673.3
392.857, 32450.5
391.664, 32636.2
390.47, 32616.6
389.276, 32039.9
388.082, 32569
386.888, 32277.3
385.694, 32100.7
384.5, 32116.8
383.305, 32333.8
382.11, 32234.7
380.915, 32426.5
379.72, 32218.7
378.525, 32136.4
377.329, 32085.5
376.133, 32122.5
374.937, 32230.5
373.741, 32112.8
372.545, 32087
371.349, 32169.9
370.152, 31811.9
368.955, 32120.4
367.758, 32023.7
366.561, 31975
365.363, 32222.8
364.166, 31917.3
362.968, 31958.3
361.77, 32299.9
360.572, 32053
359.374, 32071.1
358.175, 31672
356.977, 32000.9
355.778, 32066.9
354.579, 32009.9
353.38, 31717.4
352.18, 32108.6
350.981, 32289.2
349.781, 32151
348.581, 31760.6
347.381, 32064.1
346.181, 31909.3
344.98, 31925.3
343.78, 32060
342.579, 31765.7
341.378, 31835.8
340.177, 32026.6
338.975, 32059.2
337.774, 31771.4
336.572, 32178.5
335.37, 32067.5
334.168, 31929.5
332.966, 32107.7
331.763, 31701.6
330.561, 32070.9
329.358, 31891.5
328.155, 31720.4
326.952, 31908.8
325.748, 31768.9
324.545, 31583.4
323.341, 31802.9
322.137, 31351.6
320.933, 31531.6
319.729, 31495.7
318.524, 31646.6
317.32, 31648
316.115, 31493.8
314.91, 31661.2
313.704, 31689.6
312.499, 31547.9
311.293, 31437.3
310.088, 31349.6
308.882, 31680.7
307.676, 31532.9
306.469, 31532.2
305.263, 31278.8
304.056, 31483.3
302.849, 31374.9
301.642, 31386.7
300.435, 31359.2
299.228, 31255
298.02, 31008
296.812, 31479.4
295.604, 31244.9
294.396, 31376.7
293.188, 31096.8
291.979, 31363
290.771, 31339.7
289.562, 31237.7
288.353, 31218.5
287.144, 31412.2
285.934, 31173.8
284.724, 31096.8
283.515, 31209.8
282.305, 31378.6
281.095, 31061.9
279.884, 31146
278.674, 31226
277.463, 31264.6
276.252, 31257.7
275.041, 30943.4
273.83, 31161.6
272.618, 30810.1
271.407, 30852.9
270.195, 31011.2
268.983, 30643.4
267.771, 30820.2
266.558, 30823.8
265.346, 31017
264.133, 30653.6
262.92, 30770.6
261.707, 30522.7
260.494, 30992
259.28, 30455.7
258.066, 30811.6
256.853, 30969.6
255.639, 30806.3
254.424, 30671.9
253.21, 30827.8
251.995, 30421.8
250.781, 30688.8
249.566, 30638.8
248.35, 30625.9
247.135, 30613
245.92, 30538.5
244.704, 30630.5
243.488, 30261.9
242.272, 30238.7
241.056, 30236.2
239.839, 30451.5
238.623, 30444.8
237.406, 30510
236.189, 30150
234.972, 30283
233.754, 30274.3
232.537, 30183.4
231.319, 30353.3
230.101, 30340.5
228.883, 30311.2
227.665, 30321
226.446, 30357.4
225.227, 30506.6
224.009, 30378.9
222.79, 30074.9
221.57, 30341
220.351, 30328.1
219.131, 30061.1
217.912, 30243
216.692, 30424.9
215.471, 29965.4
214.251, 30202.6
213.031, 30490.9
211.81, 30349
210.589, 30213.3
209.368, 30280.4
208.147, 30267.6
206.925, 30340.7
205.703, 30260.4
204.482, 30227.1
203.26, 30222.5
202.037, 30228.1
200.815, 29918.8
199.592, 30075.8
198.37, 30283.8
197.147, 30162.7
195.924, 29890.3
194.7, 30045.2
193.477, 30165.2
192.253, 30003.3
191.029, 29804.7
189.805, 29983.9
188.581, 29609.7
187.356, 29936
186.132, 29768.1
184.907, 30018.7
183.682, 30167.2
182.457, 29679
181.231, 29811.1
180.006, 29802.5
178.78, 29946.8
177.554, 29860.7
176.328, 29792.9
175.102, 29596.8
173.875, 29563.7
172.648, 29801.7
171.422, 29456.9
170.194, 29713.1
168.967, 29456
167.74, 29190.8
166.512, 29284.1
165.284, 29350.9
164.056, 29183.5
162.828, 28938.9
161.6, 28838.8
160.371, 29050.1
159.142, 28834.1
157.913, 28933.4
156.684, 28654.4
155.455, 28597.1
154.226, 28594.8
152.996, 28198.1
151.766, 28145
150.536, 28032.9
##END=



