##NAMES=Chondrodite
##RRUFFID=R040016
##IDEAL CHEMISTRY=Mg_5_(SiO_4_)_2_F_2_
##LOCALITY=Vastmanland, Kafveltorp, Sweden
##OWNER=RRUFF
##SOURCE=University of Arizona Mineral Museum
##DESCRIPTION=Deep red single crystals embedded in matrix
##STATUS=The identification of this mineral has been confirmed by X-ray diffraction and chemical analysis
##URL=rruff.info/R040016
##MEASURED CHEMISTRY=(Mg_4.61_Fe_0.31_Mn_0.07_Ca_0.01_)_Σ=5_(Si_1.00_O_4_)_2_(F_1.16_(OH)_0.84_)_Σ=2_
##PIN_ID=M00452
##ORIENTATION=Laser parallel to -a [-1 0 0]. Fiducial mark perpendicular to laser is parallel to b* (0 1 0)
112.832, 0.000
114.226, 248.944
115.620, 242.029
117.014, 348.737
118.408, 405.499
119.801, 363.729
121.195, 502.039
122.588, 212.646
123.980, 401.531
125.373, 222.901
126.765, 221.336
128.157, 223.135
129.549, 392.404
130.940, 196.094
132.331, 68.615
133.722, 242.794
135.113, 169.230
136.503, 100.839
137.894, 172.011
139.284, 95.688
140.673, 141.419
142.063, 35.127
143.452, 152.099
144.841, 30.763
146.230, 15.288
147.618, 33.239
149.007, 16.014
150.395, 58.391
151.782, 9.098
153.170, 97.919
154.557, 56.136
155.944, 53.520
157.331, 43.679
158.718, 22.350
160.104, 33.564
161.490, 22.084
162.876, 29.825
164.261, 9.375
165.647, 63.119
167.032, 74.356
168.417, 48.719
169.801, 97.295
171.186, 20.743
172.570, 97.191
173.953, 49.232
175.337, 67.186
176.720, 194.754
178.104, 111.104
179.486, 220.576
180.869, 233.593
182.251, 334.620
183.634, 325.446
185.015, 452.277
186.397, 460.757
187.779, 299.603
189.160, 360.659
190.541, 201.969
191.921, 273.462
193.302, 172.795
194.682, 163.855
196.062, 196.901
197.442, 145.034
198.821, 190.255
200.200, 95.552
201.579, 238.939
202.958, 144.758
204.336, 219.017
205.715, 272.616
207.093, 111.302
208.470, 252.280
209.848, 48.415
211.225, 224.913
212.602, 234.259
213.979, 70.136
215.356, 205.132
216.732, 25.112
218.108, 274.590
219.484, 71.976
220.859, 187.290
222.235, 139.157
223.610, 71.888
224.985, 121.548
226.359, 41.835
227.734, 274.121
229.108, 192.606
230.482, 237.521
231.855, 175.818
233.229, 110.461
234.602, 280.019
235.975, 185.336
237.347, 375.682
238.720, 145.004
240.092, 182.302
241.464, 326.578
242.836, 113.908
244.207, 289.208
245.578, 181.439
246.949, 307.855
248.320, 242.056
249.691, 102.171
251.061, 320.267
252.431, 204.334
253.801, 341.382
255.170, 104.415
256.539, 191.433
257.908, 240.438
259.277, 16.570
260.646, 115.408
262.014, 183.626
263.382, 17.668
264.750, 25.724
266.118, 33.790
267.485, 92.870
268.852, 178.976
270.219, 32.826
271.586, 4.490
272.952, 113.090
274.318, 92.729
275.684, 195.536
277.050, 409.319
278.415, 423.712
279.781, 518.885
281.146, 445.543
282.510, 565.767
283.875, 609.580
285.239, 356.195
286.603, 529.303
287.967, 249.996
289.330, 384.294
290.694, 291.722
292.057, 165.473
293.419, 223.774
294.782, 113.834
296.144, 284.776
297.506, 206.653
298.868, 302.489
300.230, 200.150
301.591, 162.637
302.952, 233.097
304.313, 170.444
305.674, 189.062
307.034, 101.229
308.395, 81.455
309.755, 137.505
311.114, 2.549
312.474, 114.667
313.833, 45.496
315.192, 173.488
316.551, 69.185
317.909, 30.120
319.267, 137.266
320.625, 6.020
321.983, 250.410
323.341, 152.829
324.698, 107.275
326.055, 212.816
327.412, 212.100
328.769, 263.638
330.125, 121.197
331.481, 270.506
332.837, 141.219
334.193, 151.599
335.548, 260.040
336.903, 237.774
338.258, 270.933
339.613, 303.375
340.968, 239.722
342.322, 293.454
343.676, 179.390
345.030, 434.975
346.383, 106.596
347.736, 455.727
349.089, 254.006
350.442, 152.060
351.795, 408.565
353.147, 163.403
354.499, 345.131
355.851, 323.285
357.203, 343.555
358.554, 258.357
359.905, 235.752
361.256, 372.892
362.607, 231.788
363.957, 305.561
365.308, 236.499
366.658, 338.656
368.007, 305.189
369.357, 200.135
370.706, 408.073
372.055, 199.781
373.404, 269.909
374.753, 206.369
376.101, 232.808
377.449, 208.291
378.797, 164.938
380.145, 239.382
381.492, 195.834
382.839, 221.482
384.186, 237.826
385.533, 214.457
386.879, 430.060
388.225, 276.164
389.571, 431.316
390.917, 477.820
392.263, 344.237
393.608, 450.749
394.953, 277.284
396.298, 453.317
397.642, 349.805
398.987, 386.205
400.331, 432.672
401.675, 229.105
403.018, 485.469
404.362, 321.957
405.705, 368.039
407.048, 364.528
408.390, 311.284
409.733, 467.800
411.075, 432.962
412.417, 400.436
413.759, 466.954
415.100, 473.432
416.442, 439.926
417.783, 275.967
419.124, 442.360
420.464, 238.817
421.804, 431.701
423.145, 387.743
424.485, 330.155
425.824, 392.989
427.164, 265.323
428.503, 247.156
429.842, 285.286
431.180, 108.017
432.519, 293.188
433.857, 56.886
435.195, 352.822
436.533, 58.656
437.871, 184.917
439.208, 261.195
440.545, 27.450
441.882, 193.675
443.219, 29.876
444.555, 116.046
445.891, 152.190
447.227, 28.310
448.563, 104.398
449.898, 19.539
451.233, 126.482
452.568, 32.478
453.903, 118.252
455.238, 244.193
456.572, 158.147
457.906, 195.591
459.240, 121.431
460.574, 127.279
461.907, 173.043
463.240, 148.626
464.573, 324.408
465.906, 79.979
467.238, 295.603
468.570, 150.836
469.902, 215.894
471.234, 401.234
472.566, 94.352
473.897, 319.553
475.228, 174.170
476.559, 189.583
477.889, 384.423
479.220, 88.723
480.550, 393.953
481.880, 146.877
483.210, 352.408
484.539, 207.670
485.868, 82.723
487.197, 238.196
488.526, 43.648
489.854, 89.088
491.183, 214.127
492.511, 19.527
493.839, 124.609
495.166, 9.716
496.494, 25.053
497.821, 220.365
499.148, 15.661
500.474, 120.936
501.801, 16.189
503.127, 1.420
504.453, 46.490
505.779, 31.673
507.104, 166.395
508.430, 8.464
509.755, 146.648
511.080, 11.491
512.404, 136.562
513.729, 131.501
515.053, 63.352
516.377, 171.627
517.700, 62.897
519.024, 132.036
520.347, 197.357
521.670, 12.478
522.993, 157.333
524.315, 22.480
525.638, 127.841
526.960, 116.830
528.282, 23.120
529.603, 174.807
530.925, 95.089
532.246, 210.179
533.567, 179.446
534.888, 176.612
536.208, 261.531
537.528, 93.966
538.848, 168.506
540.168, 163.719
541.488, 141.790
542.807, 159.731
544.126, 70.042
545.445, 266.391
546.764, 253.229
548.082, 269.224
549.400, 413.979
550.718, 246.527
552.036, 441.042
553.354, 156.969
554.671, 332.120
555.988, 396.608
557.305, 192.036
558.622, 366.391
559.938, 164.665
561.254, 339.129
562.570, 223.416
563.886, 253.679
565.201, 347.922
566.516, 125.352
567.831, 428.293
569.146, 312.464
570.461, 216.346
571.775, 420.472
573.089, 254.572
574.403, 538.648
575.717, 232.942
577.030, 407.116
578.344, 601.122
579.656, 405.104
580.969, 759.220
582.282, 573.172
583.594, 607.157
584.906, 831.135
586.218, 515.105
587.530, 869.073
588.841, 663.052
590.152, 726.847
591.463, 790.841
592.774, 714.400
594.084, 998.360
595.395, 871.884
596.705, 1095.799
598.014, 1199.689
599.324, 1162.979
600.633, 1556.822
601.943, 1680.087
603.251, 2043.710
604.560, 2187.465
605.869, 2250.646
607.177, 2794.156
608.485, 2795.949
609.793, 3019.506
611.100, 2972.639
612.408, 2826.117
613.715, 2849.735
615.022, 2523.332
616.328, 2426.908
617.635, 2010.318
618.941, 1773.730
620.247, 1867.242
621.553, 1310.703
622.858, 1594.174
624.163, 1287.307
625.468, 1390.735
626.773, 1464.127
628.078, 1237.519
629.382, 1660.891
630.687, 1674.009
631.991, 1667.354
633.294, 1700.680
634.598, 1273.987
635.901, 1607.278
637.204, 1215.204
638.507, 913.551
639.810, 826.793
641.112, 540.021
642.414, 623.229
643.716, 566.147
645.018, 619.319
646.319, 782.037
647.621, 624.926
648.922, 978.040
650.222, 960.570
651.523, 853.555
652.823, 1165.971
654.124, 778.497
655.424, 1251.519
656.723, 813.932
658.023, 1106.815
659.322, 909.201
660.621, 741.412
661.920, 853.935
663.218, 546.378
664.517, 519.275
665.815, 540.980
667.113, 273.843
668.411, 286.084
669.708, 138.889
671.005, 131.656
672.302, 229.839
673.599, 42.614
674.896, 140.794
676.192, 43.497
677.488, 86.216
678.784, 148.344
680.080, 68.708
681.375, 33.209
682.671, 34.188
683.966, 8.303
685.260, 79.638
686.555, 57.152
687.849, 35.033
689.143, 42.564
690.437, 10.218
691.731, 72.090
693.025, 95.618
694.318, 106.310
695.611, 141.493
696.904, 29.429
698.196, 27.510
699.489, 225.570
700.781, 4.210
702.073, 172.389
703.364, 0.684
704.656, 50.992
705.947, 107.347
707.238, 94.231
708.529, 4.201
709.820, 7.136
711.110, 78.655
712.400, 0.164
713.690, 231.596
714.980, 206.910
716.269, 54.238
717.558, 95.590
718.848, 83.068
720.136, 88.211
721.425, 40.520
722.713, 129.687
724.002, 101.459
725.289, 147.404
726.577, 133.561
727.865, 74.595
729.152, 85.622
730.439, 6.643
731.726, 27.650
733.013, 158.650
734.299, 329.643
735.585, 20.628
736.871, 361.605
738.157, 152.577
739.442, 383.542
740.728, 174.501
742.013, 145.467
743.298, 286.427
744.582, 67.381
745.867, 408.329
747.151, 249.273
748.435, 240.214
749.719, 361.149
751.002, 52.080
752.286, 443.007
753.569, 243.929
754.852, 224.850
756.134, 475.766
757.417, 226.681
758.699, 567.595
759.981, 418.505
761.263, 419.415
762.544, 510.324
763.826, 291.238
765.107, 552.150
766.388, 513.064
767.668, 403.976
768.949, 614.885
770.229, 335.793
771.509, 456.699
772.789, 437.604
774.069, 468.512
775.348, 459.416
776.627, 380.321
777.906, 611.227
779.185, 542.132
780.463, 383.039
781.742, 623.953
783.020, 354.867
784.298, 545.782
785.575, 606.699
786.853, 317.618
788.130, 948.537
789.407, 469.459
790.684, 510.382
791.960, 791.307
793.237, 422.234
794.513, 743.165
795.789, 614.098
797.064, 725.032
798.340, 795.970
799.615, 526.913
800.890, 907.859
802.165, 718.811
803.439, 799.765
804.714, 1030.726
805.988, 691.690
807.262, 1042.663
808.536, 713.646
809.809, 1004.636
811.083, 995.631
812.356, 776.637
813.628, 1217.650
814.901, 1088.673
816.174, 1009.701
817.446, 1530.738
818.718, 1141.779
819.990, 1372.833
821.261, 1473.894
822.532, 1584.961
823.804, 1855.947
825.074, 1796.918
826.345, 2108.027
827.616, 2378.632
828.886, 2509.784
830.156, 3090.542
831.426, 3011.492
832.695, 3662.699
833.965, 4093.611
835.234, 4604.297
836.503, 5761.350
837.772, 6271.093
839.040, 7455.391
840.309, 9731.139
841.577, 11392.022
842.845, 14778.780
844.112, 17997.611
845.380, 22538.711
846.647, 26952.283
847.914, 29963.555
849.181, 31084.391
850.447, 30632.301
851.714, 27530.395
852.980, 23836.176
854.246, 19825.906
855.512, 16355.144
856.777, 13805.256
858.043, 11616.608
859.308, 10240.224
860.573, 8791.873
861.837, 8292.104
863.102, 7543.112
864.366, 6804.785
865.630, 7055.512
866.894, 6421.518
868.157, 6809.396
869.421, 6851.130
870.684, 6623.033
871.947, 7108.961
873.210, 6630.910
874.472, 6239.672
875.734, 6382.922
876.997, 4904.940
878.258, 4967.246
879.520, 4209.312
880.782, 3501.400
882.043, 3173.512
883.304, 2435.406
884.565, 2757.422
885.825, 2099.604
887.086, 1821.812
888.346, 2093.902
889.606, 1456.158
890.865, 1558.438
892.125, 1470.744
893.384, 1136.123
894.643, 1478.479
895.902, 1120.859
897.161, 1393.270
898.419, 1355.701
899.678, 1078.244
900.936, 1390.766
902.194, 983.312
903.451, 945.887
904.709, 1178.486
905.966, 631.109
907.223, 1233.760
908.479, 886.436
909.736, 769.480
910.992, 1052.211
912.248, 664.967
913.504, 1057.752
914.760, 840.559
916.016, 743.398
917.271, 1126.260
918.526, 689.145
919.781, 762.059
921.035, 844.994
922.290, 497.955
923.544, 870.941
924.798, 503.947
926.052, 707.047
927.305, 730.102
928.559, 843.184
929.812, 936.293
931.065, 1079.428
932.317, 1134.105
933.570, 1497.287
934.822, 1200.490
936.074, 1243.727
937.326, 1476.986
938.578, 1010.266
939.829, 1613.568
941.081, 1136.896
942.332, 1240.242
943.582, 1383.611
944.833, 877.000
946.083, 1280.410
947.334, 863.842
948.584, 887.293
949.833, 1120.766
951.083, 604.258
952.332, 1037.770
953.581, 751.299
954.830, 814.850
956.079, 1088.416
957.328, 852.004
958.576, 1326.916
959.824, 1230.537
961.072, 1014.176
962.319, 1608.686
963.567, 1372.363
964.814, 1936.059
966.061, 2529.803
967.308, 2833.541
968.555, 3767.305
969.801, 4601.100
971.047, 4704.924
972.293, 4868.775
973.539, 4352.658
974.784, 3636.570
976.030, 2920.512
977.275, 2254.486
978.520, 1966.525
979.765, 1310.562
981.009, 1194.629
982.253, 799.164
983.497, 723.293
984.741, 767.451
985.985, 441.645
987.228, 475.887
988.472, 593.480
989.715, 217.816
990.958, 542.209
992.200, 466.992
993.443, 261.443
994.685, 526.291
995.927, 150.945
997.169, 245.527
998.410, 338.271
999.651, 173.055
1000.893, 397.785
1002.134, 665.283
1003.374, 810.156
1004.615, 1675.215
1005.855, 1336.893
1007.095, 1671.902
1008.335, 1021.723
1009.575, 516.822
1010.814, 722.266
1012.054, 108.385
1013.293, 213.578
1014.532, 488.949
1015.770, 155.449
1017.009, 509.812
1018.247, 115.869
1019.485, 131.248
1020.723, 546.652
1021.960, 202.836
1023.198, 618.324
1024.435, 844.748
1025.672, 360.332
1026.909, 985.941
1028.145, 472.014
1029.382, 647.721
1030.618, 693.455
1031.854, 529.406
1033.089, 485.199
1034.325, 441.021
1035.560, 177.064
1036.795, 592.932
1038.030, 8.873
1039.265, 344.791
1040.499, 441.051
1041.734, 112.967
1042.968, 473.027
1044.202, 19.783
1045.435, 345.836
1046.669, 421.846
1047.902, 2.828
1049.135, 473.232
1050.368, 439.320
1051.601, 35.820
1052.833, 601.928
1054.065, 248.061
1055.297, 254.215
1056.529, 350.305
1057.761, 22.193
1058.992, 553.799
1060.223, 39.729
1061.454, 6.562
1062.685, 392.350
1063.915, 129.307
1065.146, 165.104
1066.376, 270.771
1067.606, 17.342
1068.836, 493.012
1070.065, 19.008
1071.294, 84.787
1072.524, 520.453
1073.753, 3.652
1074.981, 412.010
1076.210, 147.666
1077.438, 64.953
1078.666, 440.594
1079.894, 53.791
1081.122, 351.959
1082.349, 627.357
1083.576, 295.053
1084.803, 810.395
1086.030, 435.676
1087.257, 661.381
1088.483, 766.590
1089.710, 291.748
1090.936, 686.859
1092.161, 431.939
1093.387, 166.984
1094.613, 551.990
1095.838, 306.904
1097.063, 292.066
1098.288, 586.887
1099.512, 141.562
1100.737, 186.170
1101.961, 460.727
1103.185, 155.232
1104.408, 499.678
1105.632, 35.957
1106.855, 268.346
1108.079, 542.605
1109.302, 23.174
1110.524, 482.012
1111.747, 356.189
1112.969, 19.357
1114.191, 316.367
1115.413, 233.428
1116.635, 330.545
1117.856, 257.715
1119.078, 134.936
1120.299, 412.135
1121.520, 59.385
1122.741, 136.682
1123.961, 414.031
1125.181, 128.602
1126.401, 228.814
1127.621, 356.277
1128.841, 3.787
1130.061, 341.266
1131.280, 228.729
1132.499, 216.170
1133.718, 333.590
1134.936, 39.104
1136.155, 458.232
1137.373, 305.598
1138.591, 17.889
1139.809, 505.156
1141.027, 32.447
1142.244, 89.762
1143.461, 407.100
1144.678, 105.541
1145.895, 111.844
1147.112, 299.252
1148.328, 173.316
1149.545, 224.139
1150.761, 107.496
1151.976, 75.055
1153.192, 362.408
1154.407, 200.279
1155.623, 377.113
1156.838, 94.521
1158.053, 31.953
1159.267, 348.889
1160.482, 146.336
1161.696, 103.797
1162.910, 361.281
1164.124, 121.213
1165.337, 276.320
1166.551, 253.787
1167.764, 71.393
1168.977, 419.014
1170.190, 64.166
1171.402, 241.822
1172.614, 319.508
1173.827, 137.242
1175.039, 615.037
1176.250, 402.896
1177.462, 200.828
1178.673, 658.828
1179.885, 346.916
1181.096, 215.096
1182.306, 410.877
1183.517, 259.229
1184.727, 406.006
1185.937, 204.484
1187.147, 283.102
1188.357, 681.752
1189.567, 150.434
1190.776, 309.141
1191.985, 610.258
1193.194, 61.307
1194.403, 526.143
1195.611, 314.582
1196.820, 205.191
1198.028, 433.506
1199.236, 371.000
1200.444, 448.201
1201.651, 645.734
1202.859, 113.471
1204.066, 507.289
1205.273, 355.691
1206.479, 70.924
1207.686, 655.760
1208.892, 68.551
1210.098, 332.459
1211.304, 484.465
1212.510, 68.654
1213.716, 740.240
1214.921, 150.914
1216.126, 202.930
1217.331, 825.947
1218.536, 177.930
1219.740, 499.459
1220.945, 411.180
1222.149, 31.373
1223.353, 702.205
1224.556, 539.244
1225.760, 117.438
1226.963, 885.223
1228.167, 9.611
1229.369, 486.557
1230.572, 605.201
1231.775, 71.789
1232.977, 583.734
1234.179, 513.736
1235.381, 355.676
1236.583, 930.275
1237.784, 405.441
1238.986, 358.752
1240.187, 699.262
1241.388, 71.354
1242.589, 702.545
1243.789, 282.045
1244.990, 308.420
1246.190, 608.990
1247.390, 269.039
1248.589, 237.680
1249.789, 691.336
1250.988, 120.324
1252.187, 571.609
1253.386, 423.141
1254.585, 2.080
1255.784, 565.686
1256.982, 0.000
##END=



