##NAMES=Clinozoisite
##RRUFFID=R040085
##IDEAL CHEMISTRY=Ca_2_Al_3_(Si_2_O_7_)(SiO_4_)O(OH)
##LOCALITY=Alamos, Sonora, Mexico
##OWNER=RRUFF
##SOURCE=University of Arizona Mineral Museum
##DESCRIPTION=Divergent aggregate of red thin prismatic crystals
##STATUS=The identification of this mineral has been confirmed by X-ray diffraction and chemical analysis
##URL=rruff.info/R040085
##MEASURED CHEMISTRY=Ca_2.03_(Al_0.90_Fe_0.13_)_3_(Si_1.00_O_4_)(Si_2.00_O_7_)O(OH)
##PIN_ID=S00323
##ORIENTATION=Laser parallel to a* (1 0 0). Fiducial mark perpendicular to laser is parallel to b [0 1 0]
141.203, 0.000
142.596, 80.289
143.988, 155.969
145.380, 7.441
146.771, 121.471
148.163, 3.094
149.554, 184.180
150.945, 12.326
152.336, 230.416
153.726, 28.137
155.117, 180.867
156.507, 22.537
157.896, 215.750
159.286, 287.084
160.675, 396.986
162.064, 415.783
163.453, 543.727
164.842, 594.143
166.230, 587.729
167.618, 787.750
169.006, 898.012
170.393, 995.535
171.781, 788.369
173.168, 850.012
174.555, 621.379
175.941, 722.947
177.328, 814.717
178.714, 426.680
180.100, 328.826
181.485, 251.150
182.871, 293.646
184.256, 136.301
185.641, 269.111
187.025, 212.064
188.410, 185.156
189.794, 98.377
191.178, 211.725
192.562, 124.812
193.945, 148.768
195.328, 7.547
196.711, 186.242
198.094, 20.123
199.476, 5.902
200.859, 208.156
202.241, 92.305
203.623, 123.459
205.004, 210.869
206.385, 125.293
207.766, 9.805
209.147, 184.412
210.528, 159.191
211.908, 175.193
213.288, 219.152
214.668, 264.248
216.048, 279.416
217.427, 434.658
218.806, 349.979
220.185, 155.371
221.564, 360.838
222.942, 186.375
224.320, 281.982
225.698, 37.635
227.076, 463.332
228.453, 269.076
229.830, 604.865
231.207, 730.699
232.584, 686.582
233.960, 922.502
235.337, 668.469
236.713, 864.479
238.088, 870.523
239.464, 1116.605
240.839, 712.719
242.214, 998.867
243.589, 1235.047
244.964, 1051.260
246.338, 1387.512
247.712, 1443.801
249.086, 1480.129
250.459, 1786.381
251.833, 2092.662
253.206, 1928.979
254.579, 1855.332
255.951, 1941.641
257.324, 1727.992
258.696, 1784.393
260.068, 1590.855
261.439, 1529.918
262.811, 1441.658
264.182, 1360.637
265.553, 1267.391
266.924, 1154.297
268.294, 1161.244
269.665, 1138.254
271.035, 1285.305
272.404, 1082.396
273.774, 1229.531
275.143, 1276.709
276.512, 1144.230
277.881, 1153.018
279.250, 994.449
280.618, 963.490
281.986, 820.816
283.354, 818.191
284.721, 575.609
286.089, 763.074
287.456, 480.590
288.823, 648.156
290.190, 535.770
291.556, 523.432
292.922, 721.139
294.288, 378.891
295.654, 686.689
297.019, 494.531
298.385, 672.416
299.750, 500.346
301.114, 468.316
302.479, 436.332
303.843, 344.393
305.207, 462.498
306.571, 330.023
307.935, 207.602
309.298, 375.205
310.661, 572.809
312.024, 340.449
313.387, 367.920
314.749, 275.613
316.111, 343.326
317.473, 301.080
318.835, 678.852
320.196, 386.621
321.558, 534.389
322.919, 702.152
324.279, 299.918
325.640, 627.734
327.000, 615.566
328.360, 643.412
329.720, 581.293
331.080, 729.195
332.439, 1056.893
333.798, 804.598
335.157, 1232.316
336.516, 1390.074
337.874, 1257.709
339.232, 1505.387
340.590, 1323.111
341.948, 1600.879
343.305, 1608.689
344.662, 1766.545
346.019, 1814.439
347.376, 2078.607
348.733, 2560.357
350.089, 2568.379
351.445, 2776.434
352.801, 2834.531
354.156, 2672.670
355.512, 2380.861
356.867, 2270.326
358.222, 1648.604
359.576, 1305.734
360.931, 1304.088
362.285, 1202.479
363.639, 780.094
364.992, 678.559
366.346, 757.057
367.699, 447.969
369.052, 476.539
370.405, 475.141
371.757, 463.773
373.110, 432.443
374.462, 399.822
375.814, 229.875
377.165, 291.492
378.516, 190.287
379.868, 89.232
381.218, 178.092
382.569, 107.049
383.920, 155.965
385.270, 41.924
386.620, 30.896
387.969, 69.900
389.319, 16.418
390.668, 387.287
392.017, 86.375
393.366, 235.492
394.714, 496.273
396.063, 255.443
397.411, 364.645
398.759, 333.869
400.106, 483.172
401.454, 112.504
402.801, 61.863
404.148, 241.293
405.495, 110.750
406.841, 320.275
408.187, 29.828
409.533, 20.543
410.879, 60.889
412.224, 11.211
413.570, 121.465
414.915, 21.705
416.260, 158.076
417.604, 72.117
418.949, 147.711
420.293, 97.645
421.637, 247.602
422.980, 557.586
424.324, 537.656
425.667, 557.752
427.010, 677.887
428.353, 699.389
429.695, 668.312
431.037, 818.559
432.379, 818.828
433.721, 819.117
435.063, 905.029
436.404, 909.764
437.745, 1040.117
439.086, 1120.492
440.427, 1279.859
441.767, 1421.270
443.108, 1571.668
444.448, 1742.088
445.787, 2012.527
447.127, 2162.986
448.466, 2443.467
449.805, 3063.971
451.144, 2954.496
452.482, 3415.041
453.821, 3105.605
455.159, 3226.188
456.497, 2766.789
457.834, 2597.430
459.172, 2648.086
460.509, 2178.764
461.846, 1879.465
463.183, 1930.180
464.519, 1570.938
465.856, 1691.709
467.192, 1242.504
468.527, 1553.314
469.863, 1374.146
471.198, 1615.066
472.534, 1476.004
473.868, 1196.959
475.203, 1078.023
476.538, 1089.777
477.872, 1135.705
479.206, 1216.732
480.540, 1187.779
481.873, 1068.844
483.206, 1209.924
484.539, 1141.055
485.872, 721.527
487.205, 1362.688
488.537, 993.887
489.869, 777.656
491.201, 908.910
492.533, 490.180
493.864, 621.461
495.196, 712.762
496.527, 404.076
497.857, 585.408
499.188, 576.760
500.518, 568.123
501.848, 559.518
503.178, 580.928
504.508, 862.350
505.837, 813.869
507.166, 865.383
508.495, 906.908
509.824, 838.449
511.153, 931.133
512.481, 943.561
513.809, 1003.271
515.137, 1028.467
516.464, 980.107
517.792, 994.287
519.119, 785.992
520.446, 768.064
521.772, 929.861
523.099, 1232.008
524.425, 1063.248
525.751, 485.521
527.077, 907.293
528.402, 579.102
529.728, 570.922
531.053, 442.750
532.377, 554.590
533.702, 406.434
535.027, 418.285
536.351, 89.855
537.675, 241.988
538.998, 6.168
540.322, 425.684
541.645, 2.438
542.968, 199.426
544.291, 168.707
545.613, 183.102
546.936, 54.918
548.258, 203.262
549.580, 398.480
550.902, 100.230
552.223, 141.980
553.544, 55.934
554.865, 245.812
556.186, 327.559
557.507, 229.312
558.827, 243.066
560.147, 595.465
561.467, 447.223
562.786, 699.215
564.106, 990.977
565.425, 1083.055
566.744, 1464.820
568.063, 2158.887
569.381, 2670.402
570.700, 3581.426
572.018, 3003.652
573.335, 3412.199
574.653, 2683.688
575.970, 2395.793
577.288, 1866.066
578.604, 1106.891
579.921, 1168.637
581.238, 590.590
582.554, 827.238
583.870, 638.969
585.186, 593.895
586.501, 775.766
587.817, 597.770
589.132, 909.473
590.447, 891.168
591.761, 852.855
593.076, 824.535
594.390, 936.535
595.704, 1318.328
597.018, 1399.984
598.331, 1371.629
599.645, 1643.266
600.958, 1704.891
602.271, 2176.508
603.583, 1598.148
604.896, 2039.746
606.208, 2041.617
607.520, 1944.688
608.832, 2096.387
610.143, 1727.941
611.455, 1570.250
612.766, 1301.785
614.077, 1003.309
615.387, 1209.805
616.698, 921.305
618.008, 803.555
619.318, 656.043
620.628, 847.508
621.937, 394.586
623.247, 716.027
624.556, 268.219
625.865, 169.961
627.173, 381.363
628.482, 149.098
629.790, 490.469
631.098, 361.824
632.405, 93.164
633.713, 24.832
635.020, 43.867
636.327, 287.566
637.634, 179.586
638.941, 290.789
640.247, 301.977
641.553, 300.586
642.859, 107.926
644.165, 383.125
645.471, 238.664
646.776, 4.980
648.081, 355.949
649.386, 276.906
650.691, 467.840
651.995, 279.047
653.299, 459.949
654.603, 171.480
655.907, 402.492
657.210, 423.336
658.514, 577.379
659.817, 348.176
661.120, 698.953
662.422, 184.152
663.725, 564.887
665.027, 295.602
666.329, 336.293
667.630, 556.523
668.932, 407.168
670.233, 527.793
671.534, 8.398
672.835, 278.945
674.136, 29.465
675.436, 559.941
676.737, 130.391
678.036, 200.816
679.336, 121.219
680.636, 551.590
681.935, 411.941
683.234, 552.266
684.533, 352.566
685.832, 292.848
687.130, 643.098
688.428, 313.324
689.726, 443.523
691.024, 503.703
692.322, 243.859
693.619, 501.141
694.916, 361.242
696.213, 681.199
697.510, 231.262
698.806, 481.227
700.102, 401.238
701.398, 654.219
702.694, 354.180
703.990, 684.121
705.285, 554.750
706.580, 414.641
707.875, 354.512
709.170, 154.359
710.464, 572.555
711.758, 352.367
713.052, 632.152
714.346, 128.086
715.640, 101.551
716.933, 671.152
718.226, 99.270
719.519, 570.195
720.812, 100.367
722.105, 508.957
723.397, 131.742
724.689, 327.422
725.981, 146.562
727.272, 104.316
728.564, 424.688
729.855, 313.680
731.146, 162.648
732.437, 581.590
733.727, 239.488
735.017, 849.246
736.308, 197.953
737.597, 173.367
738.887, 415.164
740.176, 13.660
741.466, 97.891
742.755, 180.438
744.043, 308.742
745.332, 347.023
746.620, 295.273
747.908, 273.500
749.196, 171.703
750.484, 219.879
751.771, 258.027
753.059, 476.148
754.346, 324.246
755.633, 372.320
756.919, 340.363
758.206, 244.309
759.492, 306.383
760.778, 184.355
762.063, 52.301
763.349, 220.207
764.634, 268.090
765.919, 95.945
767.204, 433.766
768.489, 351.562
769.773, 20.660
771.057, 787.043
772.341, 94.727
773.625, 72.371
774.909, 609.988
776.192, 32.422
777.475, 635.098
778.758, 92.590
780.041, 170.051
781.323, 407.488
782.605, 205.102
783.887, 402.145
785.169, 259.371
786.451, 426.570
787.732, 163.656
789.013, 360.051
790.294, 192.258
791.575, 79.359
792.856, 456.434
794.136, 573.484
795.416, 69.488
796.696, 157.453
797.976, 695.047
799.255, 28.059
800.534, 41.227
801.813, 313.000
803.092, 249.746
804.371, 296.461
805.649, 153.168
806.927, 389.840
808.205, 76.496
809.483, 183.125
810.760, 569.734
812.037, 13.676
813.315, 442.863
814.591, 429.383
815.868, 194.117
817.144, 712.223
818.421, 338.562
819.697, 834.965
820.972, 118.734
822.248, 477.469
823.523, 843.648
824.798, 209.812
826.073, 552.398
827.348, 508.531
828.623, 442.180
829.897, 618.305
831.171, 264.055
832.445, 280.074
833.718, 475.742
834.992, 301.805
836.265, 757.852
837.538, 313.883
838.811, 579.926
840.083, 285.957
841.356, 711.977
842.628, 767.980
843.900, 383.973
845.171, 609.957
846.443, 915.930
847.714, 461.906
848.985, 907.871
850.256, 315.297
851.527, 381.227
852.797, 1117.164
854.067, 543.086
855.337, 889.031
856.607, 755.734
857.876, 861.656
859.146, 1097.605
860.415, 1173.543
861.684, 1529.465
862.953, 869.027
864.221, 1134.934
865.489, 2020.828
866.757, 1126.707
868.025, 1630.574
869.293, 2065.777
870.560, 1841.605
871.828, 2377.195
873.095, 1302.996
874.361, 2258.469
875.628, 2024.238
876.894, 2357.699
878.160, 2383.449
879.426, 1908.777
880.692, 2883.914
881.958, 2369.629
883.223, 2285.340
884.488, 2430.684
885.753, 2796.371
887.018, 2442.977
888.282, 2708.648
889.546, 2144.098
890.810, 2964.836
892.074, 2930.488
893.338, 2892.930
894.601, 3098.418
895.864, 2483.754
897.127, 2819.383
898.390, 2865.008
899.652, 2480.625
900.915, 3086.238
902.177, 2831.516
903.439, 2456.992
904.700, 3402.598
905.962, 2628.203
907.223, 2913.805
908.484, 3099.402
909.745, 3665.004
911.006, 3560.570
912.266, 3436.172
913.526, 4181.488
914.786, 3755.598
916.046, 3691.070
917.306, 3676.672
918.565, 3513.559
919.824, 3537.129
921.083, 3312.742
922.342, 3043.375
923.600, 2649.000
924.859, 2663.867
926.117, 2568.488
927.375, 2564.125
928.632, 2014.145
929.890, 2609.797
931.147, 1704.691
932.404, 1820.020
933.661, 1925.695
934.918, 1635.000
936.174, 1470.676
937.430, 1306.355
938.686, 1002.035
939.942, 1029.188
941.198, 1173.047
942.453, 948.543
943.708, 923.457
944.963, 709.176
946.218, 1074.902
947.472, 903.195
948.727, 838.609
949.981, 1264.414
951.235, 155.723
952.488, 1116.254
953.742, 732.109
954.995, 657.977
956.248, 853.859
957.501, 779.477
958.754, 515.391
960.006, 880.668
961.258, 496.465
962.510, 1212.496
963.762, 165.262
965.014, 631.270
966.265, 597.301
967.516, 288.902
968.767, 984.977
970.018, 8.934
971.269, 867.180
972.519, 773.777
973.769, 429.941
975.019, 516.133
976.269, 782.348
977.518, 718.609
978.767, 1170.691
980.017, 917.023
981.265, 883.391
982.514, 1639.785
983.762, 596.219
985.011, 1842.934
986.259, 859.441
987.507, 1135.988
988.754, 1379.000
990.002, 265.625
991.249, 992.445
992.496, 729.152
993.743, 535.910
994.989, 684.125
996.236, 340.977
997.482, 807.879
998.728, 204.641
999.974, 78.551
1001.219, 920.578
1002.464, 427.457
1003.710, 374.086
1004.954, 460.730
1006.199, 52.617
1007.444, 573.938
1008.688, 220.469
1009.932, 336.797
1011.176, 663.062
1012.420, 140.270
1013.663, 815.832
1014.906, 192.805
1016.149, 528.652
1017.392, 313.383
1018.635, 208.938
1019.877, 794.535
1021.120, 580.223
1022.362, 446.004
1023.603, 1111.852
1024.845, 727.793
1026.086, 913.742
1027.328, 579.781
1028.569, 525.922
1029.809, 552.203
1031.050, 918.582
1032.290, 685.031
1033.530, 806.828
1034.770, 477.965
1036.010, 674.457
1037.250, 770.969
1038.489, 507.500
1039.728, 774.043
1040.967, 1140.617
1042.206, 687.211
1043.444, 1203.836
1044.683, 860.508
1045.921, 1007.230
1047.159, 1023.992
1048.396, 1020.840
1049.634, 1207.723
1050.871, 1334.719
1052.108, 1031.836
1053.345, 1148.980
1054.582, 776.160
1055.818, 1083.379
1057.054, 1310.676
1058.290, 298.051
1059.526, 1085.551
1060.762, 783.121
1061.997, 740.727
1063.232, 948.375
1064.467, 566.070
1065.702, 1163.844
1066.937, 441.754
1068.171, 639.672
1069.405, 937.820
1070.639, 806.086
1071.873, 744.395
1073.107, 872.664
1074.340, 120.984
1075.573, 1299.352
1076.806, 567.754
1078.039, 886.102
1079.272, 1334.488
1080.504, 702.898
1081.736, 1001.340
1082.968, 997.164
1084.200, 735.602
1085.431, 1554.082
1086.663, 1101.156
1087.894, 1809.703
1089.125, 1440.578
1090.355, 1339.113
1091.586, 1837.715
1092.816, 2046.426
1094.046, 1385.230
1095.276, 1864.129
1096.506, 963.125
1097.735, 1252.223
1098.965, 971.402
1100.194, 140.672
1101.423, 1510.039
1102.651, 399.508
1103.880, 589.078
1105.108, 1038.762
1106.336, 718.543
1107.564, 958.441
1108.792, 688.449
1110.019, 38.566
1111.246, 668.797
1112.473, 619.141
1113.700, 229.598
1114.927, 1030.168
1116.153, 160.855
1117.380, 601.652
1118.606, 932.562
1119.831, 83.578
1121.057, 584.715
1122.283, 385.980
1123.508, 707.379
1124.733, 889.016
1125.958, 99.160
1127.182, 1183.008
1128.407, 275.523
1129.631, 688.266
1130.855, 731.234
1132.079, 84.445
1133.302, 837.918
1134.526, 751.652
1135.749, 84.336
1136.972, 1339.973
1138.195, 144.254
1139.417, 689.203
1140.640, 964.504
1141.862, 20.191
1143.084, 1046.215
1144.305, 562.789
1145.527, 585.238
1146.748, 1159.762
1147.970, 4.375
1149.191, 686.680
1150.411, 1044.207
1151.632, 530.246
1152.852, 985.984
1154.072, 589.160
1155.292, 418.539
1156.512, 924.031
1157.732, 183.680
1158.951, 31.934
1160.170, 1056.758
1161.389, 1.340
1162.608, 746.164
1163.826, 0.000
##END=



