##NAMES=Colemanite
##RRUFFID=R050102
##IDEAL CHEMISTRY=CaB_3_O_4_(OH)_3_&#183;H_2_O
##LOCALITY=Kramer deposit, Boron, Kern County, California, USA
##OWNER=RRUFF
##SOURCE=Rock Currier
##DESCRIPTION=Colorless prismatic to tabular crystals
##STATUS=The identification of this mineral has been confirmed by X-ray diffraction and chemical analysis
##URL=rruff.info/R050102
##MEASURED CHEMISTRY=Ca_1.00_B_3.00_O_4_(OH)_3_Â·H_2_O ; trace amounts of Na; B assumed by stoichiometry and charge balance.
##PIN_ID=L00407
##ORIENTATION=Laser parallel to c* (0 0 1). Fiducial mark perpendicular to laser is parallel to a [1 0 0]
100.7030, 0.0000000E+00
101.9390, 1396.512
103.1740, 2155.062
104.4090, 2891.379
105.6440, 2867.750
106.8790, 2746.652
108.1140, 2132.387
109.3490, 1846.891
110.5830, 1586.449
111.8180, 1595.750
113.0520, 1164.969
114.2860, 932.9414
115.5200, 1008.293
116.7530, 600.9062
117.9870, 609.1484
119.2200, 336.3477
120.4530, 161.5352
121.6860, 28.85156
122.9190, 69.86328
124.1520, 88.51953
125.3850, 230.3672
126.6170, 785.0312
127.8490, 1485.055
129.0810, 2887.258
130.3130, 2571.961
131.5450, 2905.008
132.7770, 2856.094
134.0080, 2922.160
135.2390, 2341.500
136.4710, 2120.688
137.7020, 2256.125
138.9320, 1963.191
140.1630, 2137.250
141.3930, 1946.621
142.6240, 2257.586
143.8540, 2505.402
145.0840, 2640.336
146.3140, 2885.609
147.5440, 3174.938
148.7730, 3385.934
150.0020, 3465.918
151.2320, 3498.727
152.4610, 3611.414
153.6900, 3381.691
154.9180, 3386.250
156.1470, 3052.180
157.3750, 2838.625
158.6040, 3186.293
159.8320, 3480.250
161.0600, 3210.461
162.2870, 3617.867
163.5150, 3884.371
164.7420, 4385.984
165.9700, 4851.766
167.1970, 5659.723
168.4240, 6397.770
169.6510, 7455.887
170.8770, 8492.012
172.1040, 9821.074
173.3300, 10619.07
174.5560, 11441.08
175.7820, 12883.43
177.0080, 13268.17
178.2340, 12898.30
179.4590, 12162.84
180.6850, 10742.79
181.9100, 9566.148
183.1350, 7969.879
184.3600, 6662.016
185.5850, 5134.617
186.8090, 4109.828
188.0340, 2816.910
189.2580, 2171.793
190.4820, 1548.562
191.7060, 760.8672
192.9300, 532.6680
194.1530, 53.87891
195.3770, 5.695313
196.6000, 239.9961
197.8230, 267.1133
199.0460, 422.1992
200.2690, 463.3789
201.4910, 431.7344
202.7140, 393.3125
203.9360, 440.1211
205.1580, 376.1562
206.3800, 186.9922
207.6020, 122.0938
208.8240, 232.3984
210.0450, 560.4883
211.2670, 684.3750
212.4880, 976.0625
213.7090, 1405.547
214.9300, 1767.840
216.1510, 2454.938
217.3710, 2988.848
218.5920, 3751.566
219.8120, 4542.086
221.0320, 5049.254
222.2520, 5358.719
223.4720, 5487.188
224.6910, 5460.500
225.9110, 5256.734
227.1300, 4908.930
228.3490, 4940.047
229.5680, 4899.434
230.7870, 4288.258
232.0050, 4685.027
233.2240, 4283.582
234.4420, 4313.527
235.6600, 4757.590
236.8780, 4686.277
238.0960, 4858.133
239.3140, 4983.758
240.5310, 4830.012
241.7490, 5218.395
242.9660, 4867.695
244.1830, 5259.902
245.4000, 4678.020
246.6160, 4711.051
247.8330, 4742.832
249.0490, 4384.484
250.2660, 4677.348
251.4820, 4668.531
252.6980, 5095.629
253.9130, 4952.188
255.1290, 5272.812
256.3440, 5413.945
257.5600, 5672.258
258.7750, 5960.156
259.9900, 6476.648
261.2040, 6735.336
262.4190, 7033.129
263.6330, 6894.672
264.8480, 7058.109
266.0620, 6905.895
267.2760, 6772.352
268.4900, 6308.477
269.7030, 6369.418
270.9170, 5705.297
272.1300, 5531.066
273.3430, 4893.523
274.5560, 4775.078
275.7690, 4331.098
276.9820, 3934.504
278.1940, 3875.527
279.4070, 3109.105
280.6190, 3101.922
281.8310, 2743.977
283.0430, 2265.188
284.2550, 2585.223
285.4660, 2357.555
286.6770, 2446.414
287.8890, 2548.262
289.1000, 2501.234
290.3110, 2752.859
291.5210, 2605.062
292.7320, 2830.824
293.9420, 2922.012
295.1530, 3574.039
296.3630, 3754.242
297.5730, 4125.852
298.7830, 4318.242
299.9920, 4821.242
301.2020, 5163.879
302.4110, 5546.812
303.6200, 5905.516
304.8290, 6590.156
306.0380, 6710.742
307.2470, 7113.266
308.4550, 7652.719
309.6630, 7744.117
310.8720, 7757.449
312.0800, 7471.715
313.2880, 7053.910
314.4950, 6636.043
315.7030, 6824.109
316.9100, 6517.102
318.1170, 6617.031
319.3240, 6933.883
320.5310, 7086.672
321.7380, 7429.387
322.9450, 7154.031
324.1510, 7111.594
325.3570, 6926.086
326.5630, 7093.492
327.7690, 6830.820
328.9750, 6221.066
330.1810, 5698.223
331.3860, 5241.293
332.5910, 4747.273
333.7960, 4305.156
335.0010, 3638.938
336.2060, 3344.617
337.4110, 2995.684
338.6150, 2736.410
339.8200, 2779.082
341.0240, 2466.156
342.2280, 2424.445
343.4320, 1893.941
344.6350, 2023.605
345.8390, 1595.594
347.0420, 1738.484
348.2450, 1478.750
349.4480, 1595.703
350.6510, 1240.512
351.8540, 1099.625
353.0560, 791.6875
354.2590, 772.4609
355.4610, 629.7617
356.6630, 1007.777
357.8650, 853.0781
359.0670, 856.3906
360.2680, 698.3555
361.4700, 552.1641
362.6710, 775.5156
363.8720, 898.7891
365.0730, 789.9883
366.2740, 972.0938
367.4740, 877.1680
368.6750, 1033.219
369.8750, 829.2500
371.0750, 902.2148
372.2750, 1082.105
373.4750, 1015.898
374.6740, 1064.918
375.8740, 823.3008
377.0730, 1140.293
378.2720, 1248.738
379.4710, 1556.777
380.6700, 1736.934
381.8690, 1934.371
383.0670, 2122.391
384.2660, 2278.398
385.4640, 2615.332
386.6620, 2669.191
387.8600, 2640.984
389.0570, 2764.699
390.2550, 2480.348
391.4520, 2036.914
392.6490, 1982.375
393.8460, 2034.707
395.0430, 1277.906
396.2400, 1519.969
397.4370, 1458.898
398.6330, 1360.688
399.8290, 1117.336
401.0250, 771.8438
402.2210, 598.1953
403.4170, 670.3867
404.6130, 587.4180
405.8080, 754.2930
407.0030, 522.3359
408.1980, 490.8477
409.3930, 183.0000
410.5880, 172.2305
411.7830, 192.3008
412.9770, 119.8008
414.1720, 60.19531
415.3660, 230.1602
416.5600, 401.6641
417.7530, 124.8906
418.9470, 140.4102
420.1410, 409.2266
421.3340, 203.4531
422.5270, 331.0039
423.7200, 22.92969
424.9130, 81.08594
426.1060, 5.503906
427.2980, 396.1133
428.4900, 252.8555
429.6830, 150.3281
430.8750, 83.20312
432.0670, 64.56250
433.2580, 4.253906
434.4500, 194.2695
435.6410, 383.4141
436.8320, 51.03516
438.0240, 429.2930
439.2140, 104.4922
440.4050, 364.5469
441.5960, 589.4805
442.7860, 433.3125
443.9760, 665.0352
445.1670, 790.6641
446.3560, 1327.203
447.5460, 1427.660
448.7360, 1834.031
449.9250, 2519.328
451.1150, 3064.539
452.3040, 3466.668
453.4930, 3753.719
454.6810, 4053.691
455.8700, 4345.586
457.0590, 4560.398
458.2470, 3778.129
459.4350, 3524.785
460.6230, 3343.363
461.8110, 2612.855
462.9980, 2157.273
464.1860, 1530.613
465.3730, 1327.879
466.5600, 1398.059
467.7470, 1316.172
468.9340, 1298.203
470.1210, 1283.156
471.3080, 1467.434
472.4940, 1701.836
473.6800, 2017.566
474.8660, 2384.219
476.0520, 2853.789
477.2380, 2827.297
478.4230, 3437.719
479.6090, 3069.070
480.7940, 3533.363
481.9790, 3118.602
483.1640, 3143.855
484.3490, 2771.129
485.5330, 2499.492
486.7180, 1966.953
487.9020, 1439.547
489.0860, 1182.289
490.2700, 820.1758
491.4540, 646.1875
492.6370, 421.3398
493.8210, 534.0039
495.0040, 844.2734
496.1870, 650.2969
497.3700, 359.2617
498.5530, 678.5820
499.7360, 276.8594
500.9180, 381.8516
502.1000, 448.2031
503.2830, 699.3711
504.4650, 917.3203
505.6460, 935.8164
506.8280, 1140.797
508.0100, 1585.180
509.1910, 1366.641
510.3720, 1526.570
511.5530, 1637.008
512.7340, 1477.938
513.9150, 1604.754
515.0950, 1535.176
516.2760, 887.2344
517.4560, 1466.480
518.6360, 699.6641
519.8160, 1026.113
520.9950, 634.9727
522.1750, 580.9102
523.3540, 745.7812
524.5340, 919.5938
525.7130, 1149.348
526.8920, 1276.090
528.0700, 1580.695
529.2490, 1480.289
530.4270, 1730.824
531.6060, 1660.352
532.7840, 2286.824
533.9620, 2575.246
535.1390, 3087.613
536.3170, 3322.926
537.4940, 3838.191
538.6720, 4444.402
539.8490, 4707.562
541.0260, 5051.707
542.2030, 5835.207
543.3790, 5500.266
544.5560, 5554.559
545.7320, 5812.129
546.9080, 5284.324
548.0840, 5342.184
549.2600, 4880.047
550.4360, 4994.996
551.6110, 5114.066
552.7860, 5443.277
553.9620, 6189.793
555.1370, 7294.898
556.3110, 8453.047
557.4860, 10351.80
558.6610, 12173.50
559.8350, 14835.45
561.0090, 17312.45
562.1830, 20565.26
563.3570, 22664.80
564.5310, 24632.78
565.7040, 25098.45
566.8780, 24730.98
568.0510, 22466.60
569.2240, 20057.50
570.3970, 17599.42
571.5700, 14731.55
572.7420, 13126.44
573.9150, 11322.94
575.0870, 10231.57
576.2590, 9009.375
577.4310, 8256.367
578.6030, 7328.398
579.7740, 6636.609
580.9460, 5729.367
582.1170, 5177.289
583.2880, 4786.172
584.4590, 4111.531
585.6300, 4361.812
586.8010, 3913.617
587.9710, 3921.586
589.1410, 4032.539
590.3110, 4047.492
591.4810, 4183.438
592.6510, 4672.367
593.8210, 5105.289
594.9900, 6027.211
596.1600, 6880.109
597.3290, 7636.016
598.4980, 9166.914
599.6670, 10764.81
600.8350, 13338.69
602.0040, 16390.57
603.1720, 20611.45
604.3400, 25471.32
605.5080, 30613.18
606.6760, 36530.03
607.8440, 43264.89
609.0120, 48763.73
610.1790, 53113.59
611.3460, 55012.44
612.5130, 53536.27
613.6800, 48676.11
614.8470, 42156.94
616.0130, 34621.76
617.1800, 28093.60
618.3460, 21971.43
619.5120, 17165.25
620.6780, 13328.07
621.8440, 10795.89
623.0090, 8664.703
624.1750, 6622.531
625.3400, 5481.352
626.5050, 4473.164
627.6700, 3719.086
628.8350, 2930.898
629.9990, 1866.711
631.1640, 1918.750
632.3280, 1063.086
633.4920, 1179.211
634.6560, 1075.852
635.8200, 989.6719
636.9840, 514.4141
638.1470, 394.3984
639.3100, 108.7500
640.4730, 34.54688
641.6360, 170.4062
642.7990, 91.00000
643.9620, 170.5547
645.1240, 141.7656
646.2870, 207.6719
647.4490, 10.86719
648.6110, 327.2500
649.7730, 362.4609
650.9340, 342.7734
652.0960, 108.1875
653.2570, 123.5078
654.4180, 253.1250
655.5790, 268.1797
656.7400, 331.5312
657.9010, 402.2500
659.0620, 756.5625
660.2220, 1083.328
661.3820, 1669.445
662.5420, 2289.422
663.7020, 3346.219
664.8620, 3815.570
666.0210, 4829.742
667.1810, 5241.945
668.3400, 6272.102
669.4990, 6742.594
670.6580, 7178.094
671.8170, 6404.047
672.9750, 5780.539
674.1340, 4868.047
675.2920, 4086.578
676.4500, 3453.109
677.6080, 2666.664
678.7660, 2164.227
679.9230, 1483.805
681.0810, 934.3828
682.2380, 752.9609
683.3950, 656.8984
684.5520, 728.9062
685.7090, 699.7578
686.8660, 353.2812
688.0220, 186.4219
689.1780, 102.7109
690.3340, 365.8984
691.4900, 99.52344
692.6460, 52.82031
693.8020, 169.8203
694.9570, 18.46875
696.1130, 141.3047
697.2680, 188.9062
698.4230, 238.9453
699.5780, 193.8828
700.7320, 133.0938
701.8870, 86.03125
703.0410, 88.75781
704.1950, 416.5469
705.3490, 68.90625
706.5030, 192.3203
707.6570, 78.78125
708.8110, 661.3750
709.9640, 830.9844
711.1170, 596.6719
712.2700, 488.3828
713.4230, 321.1172
714.5760, 330.8906
715.7280, 711.7500
716.8810, 973.6172
718.0330, 652.5312
719.1850, 862.4453
720.3370, 872.8438
721.4890, 777.2109
722.6400, 1114.266
723.7920, 812.2031
724.9430, 1186.156
726.0940, 1446.078
727.2450, 1385.008
728.3960, 1805.930
729.5460, 2133.844
730.6970, 2435.734
731.8470, 2836.625
732.9970, 4141.508
734.1470, 5120.383
735.2970, 6320.242
736.4460, 7356.094
737.5960, 9061.930
738.7450, 10637.76
739.8940, 12409.56
741.0430, 13615.36
742.1920, 15342.16
743.3410, 16964.93
744.4890, 17399.69
745.6370, 17568.44
746.7850, 17025.17
747.9330, 15768.90
749.0810, 13435.61
750.2290, 12174.31
751.3760, 10492.01
752.5240, 8361.688
753.6710, 6824.383
754.8180, 5372.062
755.9650, 4537.719
757.1110, 3659.367
758.2580, 3072.000
759.4040, 2001.625
760.5510, 1518.227
761.6970, 1577.836
762.8420, 975.4141
763.9880, 1155.992
765.1340, 244.6953
766.2790, 669.6250
767.4240, 331.3906
768.5690, 209.3281
769.7140, 209.6562
770.8590, 332.7969
772.0030, 323.8906
773.1480, 386.5703
774.2920, 153.9766
775.4360, 575.9609
776.5800, 459.0859
777.7240, 746.2344
778.8670, 966.7656
780.0110, 1435.883
781.1540, 2154.922
782.2970, 2437.320
783.4400, 3253.992
784.5830, 4256.414
785.7250, 4391.766
786.8680, 4639.219
788.0100, 5447.781
789.1520, 5280.578
790.2940, 4912.102
791.4360, 4281.711
792.5780, 3647.414
793.7190, 3064.062
794.8600, 2334.797
796.0010, 1919.789
797.1420, 1486.383
798.2830, 1046.477
799.4240, 926.6953
800.5640, 494.9219
801.7050, 373.0078
802.8450, 210.8828
803.9850, 610.2031
805.1250, 270.4922
806.2640, 461.0625
807.4040, 120.5000
808.5430, 389.0078
809.6820, 588.9141
810.8210, 700.4453
811.9600, 985.6172
813.0990, 1028.414
814.2370, 1088.250
815.3760, 1105.500
816.5140, 1079.695
817.6520, 948.9922
818.7900, 908.9609
819.9270, 505.7500
821.0650, 252.7422
822.2020, 57.45312
823.3390, 379.1484
824.4760, 476.8516
825.6130, 545.5000
826.7500, 687.8359
827.8870, 613.3672
829.0230, 628.5625
830.1590, 1439.656
831.2950, 1215.031
832.4310, 1695.086
833.5670, 1383.234
834.7030, 2352.266
835.8380, 2197.430
836.9730, 2784.531
838.1080, 2722.977
839.2430, 2962.609
840.3780, 3525.805
841.5130, 3396.680
842.6470, 3355.055
843.7810, 3269.812
844.9150, 3270.109
846.0490, 2972.734
847.1830, 2867.305
848.3170, 2856.820
849.4500, 2860.266
850.5830, 2876.648
851.7160, 1914.969
852.8490, 2321.227
853.9820, 2300.422
855.1150, 1852.547
856.2470, 2344.609
857.3800, 1745.609
858.5120, 1764.531
859.6440, 1755.391
860.7760, 1684.195
861.9070, 2000.914
863.0390, 1767.578
864.1700, 1740.164
865.3010, 1665.688
866.4320, 2184.141
867.5630, 1774.539
868.6940, 2328.852
869.8240, 2403.109
870.9540, 2833.281
872.0850, 2873.398
873.2150, 2790.430
874.3450, 2958.406
875.4740, 3394.305
876.6040, 3754.141
877.7330, 3458.898
878.8620, 3480.586
879.9910, 3381.203
881.1200, 3228.695
882.2490, 3353.188
883.3770, 3354.273
884.5060, 3237.023
885.6340, 2651.875
886.7620, 2672.844
887.8900, 2450.750
889.0180, 2221.031
890.1450, 2326.109
891.2730, 1808.281
892.4000, 1908.312
893.5270, 1761.648
894.6540, 1727.758
895.7810, 1450.086
896.9070, 1222.102
898.0340, 1259.555
899.1600, 862.4141
900.2860, 696.0000
901.4120, 641.6797
902.5380, 678.2344
903.6630, 399.0859
904.7890, 299.3203
905.9140, 584.6328
907.0390, 145.4219
908.1640, 266.1016
909.2890, 217.6953
910.4130, 366.9219
911.5380, 336.2812
912.6620, 224.5938
913.7860, 266.4766
914.9100, 58.06250
916.0340, 99.92188
917.1580, 68.81250
918.2810, 204.3750
919.4040, 137.7969
920.5280, 117.3984
921.6510, 62.20312
922.7730, 47.12500
923.8960, 17.14062
925.0180, 322.2500
926.1410, 376.3828
927.2630, 95.04688
928.3850, 348.5859
929.5070, 224.5938
930.6280, 4.671875
931.7500, 119.6172
932.8710, 3.453125
933.9920, 88.85156
935.1130, 296.3672
936.2340, 119.1875
937.3550, 132.5391
938.4760, 267.8047
939.5960, 70.70312
940.7160, 145.8359
941.8360, 144.8359
942.9560, 259.0000
944.0760, 350.6953
945.1950, 226.8438
946.3150, 9.289063
947.4340, 84.62500
948.5530, 221.8438
949.6720, 47.96875
950.7900, 244.8516
951.9090, 322.8594
953.0270, 397.6562
954.1460, 544.3750
955.2640, 479.6641
956.3820, 531.8281
957.4990, 515.0859
958.6170, 1117.578
959.7340, 1643.391
960.8520, 2076.414
961.9690, 2117.602
963.0860, 2370.711
964.2020, 2400.750
965.3190, 2669.820
966.4350, 3014.797
967.5520, 2664.719
968.6680, 3162.555
969.7840, 2644.359
970.8990, 2539.117
972.0150, 2848.789
973.1310, 2047.422
974.2460, 1985.016
975.3610, 2171.555
976.4760, 2218.008
977.5910, 1871.398
978.7050, 1486.711
979.8200, 1693.945
980.9340, 1503.117
982.0480, 1932.211
983.1620, 1419.219
984.2760, 1492.156
985.3900, 1618.023
986.5030, 1657.812
987.6160, 2146.531
988.7300, 1711.180
989.8430, 2054.742
990.9550, 1735.234
992.0680, 2498.648
993.1810, 2889.000
994.2930, 2373.273
995.4050, 2471.477
996.5170, 2788.602
997.6290, 3190.664
998.7410, 2660.656
999.8520, 3099.570
1000.964, 2531.406
1002.075, 2538.180
1003.186, 2568.883
1004.297, 2402.516
1005.407, 2485.078
1006.518, 1765.562
1007.628, 1835.977
1008.738, 1600.328
1009.848, 931.6172
1010.958, 1353.828
1012.068, 790.9688
1013.178, 1091.047
1014.287, 928.0547
1015.396, 933.9922
1016.505, 472.8672
1017.614, 750.6562
1018.723, 298.3906
1019.831, 257.0391
1020.940, 287.6172
1022.048, 39.10938
1023.156, 498.5000
1024.264, 424.8125
1025.372, 386.0625
1026.479, 389.2344
1027.587, 390.3359
1028.694, 228.3672
1029.801, 333.3203
1030.908, 374.1953
1032.015, 258.9922
1033.121, 299.7266
1034.228, 471.2188
1035.334, 267.4219
1036.440, 410.6953
1037.546, 470.7188
1038.652, 185.2656
1039.758, 747.9141
1040.863, 741.5312
1041.968, 986.7188
1043.074, 515.6406
1044.178, 356.1172
1045.283, 1187.391
1046.388, 900.1406
1047.492, 1478.000
1048.597, 1433.773
1049.701, 1717.023
1050.805, 1525.367
1051.909, 2049.711
1053.012, 2432.148
1054.116, 2736.781
1055.219, 2954.797
1056.322, 3920.695
1057.425, 3947.398
1058.528, 4475.898
1059.631, 4732.586
1060.733, 5208.125
1061.836, 5535.734
1062.938, 5592.734
1064.040, 5311.234
1065.142, 5943.930
1066.243, 5583.609
1067.345, 5824.500
1068.446, 5931.945
1069.547, 5965.852
1070.648, 5934.469
1071.749, 5860.078
1072.850, 5823.945
1073.951, 5772.125
1075.051, 5661.375
1076.151, 5622.328
1077.251, 5511.609
1078.351, 5349.195
1079.451, 5544.039
1080.550, 5349.617
1081.650, 5891.992
1082.749, 5592.898
1083.848, 5914.938
1084.947, 5401.688
1086.046, 5444.719
1087.144, 5666.336
1088.243, 5106.203
1089.341, 5115.062
1090.439, 4716.516
1091.537, 4600.883
1092.635, 3975.234
1093.732, 3974.555
1094.830, 3773.859
1095.927, 2713.070
1097.024, 2669.453
1098.121, 2711.680
1099.218, 2312.875
1100.314, 2177.047
1101.411, 2174.195
1102.507, 2146.023
1103.603, 1970.219
1104.699, 1913.195
1105.795, 1748.516
1106.890, 1429.539
1107.986, 1513.555
1109.081, 1302.539
1110.176, 1682.500
1111.271, 1806.445
1112.366, 1463.359
1113.461, 1182.258
1114.555, 1145.141
1115.649, 1471.984
1116.744, 1555.828
1117.838, 1356.656
1118.931, 904.4688
1120.025, 1680.258
1121.119, 1935.039
1122.212, 1379.797
1123.305, 1906.539
1124.398, 1786.273
1125.491, 1747.977
1126.584, 2069.695
1127.676, 1550.398
1128.768, 1946.078
1129.861, 1788.750
1130.953, 2154.398
1132.044, 2785.031
1133.136, 2607.672
1134.228, 2492.297
1135.319, 2283.914
1136.410, 2888.516
1137.501, 3274.109
1138.592, 2668.688
1139.683, 3303.250
1140.773, 2870.805
1141.864, 3283.344
1142.954, 2514.875
1144.044, 3538.391
1145.134, 3184.898
1146.224, 2795.398
1147.313, 2963.891
1148.402, 3167.633
1149.492, 3477.094
1150.581, 3967.117
1151.670, 3539.961
1152.758, 3553.930
1153.847, 3213.492
1154.935, 3567.359
1156.024, 3234.922
1157.112, 2978.336
1158.200, 3344.758
1159.287, 2932.195
1160.375, 2934.961
1161.462, 2565.188
1162.550, 2741.586
1163.637, 2671.523
1164.724, 2692.633
1165.810, 2777.453
1166.897, 2603.445
1167.983, 2520.039
1169.070, 1776.898
1170.156, 1957.578
1171.242, 1363.984
1172.327, 1687.539
1173.413, 1618.102
1174.499, 1482.414
1175.584, 973.0781
1176.669, 1343.695
1177.754, 1164.328
1178.839, 607.9609
1179.923, 653.6484
1181.008, 897.3594
1182.092, 474.0859
1183.176, 670.8984
1184.260, 437.7891
1185.344, 77.74219
1186.428, 588.7422
1187.511, 179.7969
1188.595, 190.1016
1189.678, 505.0312
1190.761, 411.8203
1191.843, 328.1797
1192.926, 42.32031
1194.009, 51.53906
1195.091, 84.64062
1196.173, 10.82031
1197.255, 43.07812
1198.337, 4.609375
1199.419, 88.82031
1200.500, 86.50255
1201.582, 117.7812
1202.663, 154.3594
1203.744, 195.0391
1204.825, 272.5469
1205.905, 144.2188
1206.986, 242.8984
1208.066, 21.71875
1209.146, 155.4531
1210.226, 137.3516
1211.306, 145.9844
1212.386, 311.2656
1213.466, 243.6029
1214.545, 305.2656
1215.624, 210.2578
1216.703, 186.2500
1217.782, 141.7422
1218.861, 147.2433
1219.939, 175.8067
1221.018, 237.1406
1222.096, 250.1172
1223.174, 378.1016
1224.252, 369.0781
1225.330, 22.92188
1226.407, 374.8594
1227.485, 51.03906
1228.562, 571.9453
1229.639, 149.8672
1230.716, 626.7891
1231.793, 141.2812
1232.869, 1129.594
1233.946, 242.4766
1235.022, 183.6250
1236.098, 822.1875
1237.174, 517.0156
1238.250, 780.8516
1239.325, 628.6953
1240.401, 729.5469
1241.476, 890.3984
1242.551, 599.3281
1243.626, 973.2656
1244.701, 1085.273
1245.776, 1212.297
1246.850, 1274.820
1247.924, 1409.859
1248.999, 1878.906
1250.073, 1974.430
1251.146, 1938.531
1252.220, 2782.648
1253.293, 2322.758
1254.367, 2384.234
1255.440, 2603.961
1256.513, 2328.102
1257.586, 2607.250
1258.658, 2589.414
1259.731, 2884.586
1260.803, 2421.766
1261.875, 2270.953
1262.947, 2661.398
1264.019, 1873.602
1265.091, 2426.812
1266.162, 2186.031
1267.234, 1894.242
1268.305, 1611.469
1269.376, 1415.711
1270.447, 1087.961
1271.517, 977.2188
1272.588, 1425.484
1273.658, 1202.750
1274.729, 1069.031
1275.799, 800.3125
1276.868, 1127.609
1277.938, 1263.914
1279.008, 475.2188
1280.077, 763.5469
1281.146, 406.8750
1282.215, 827.0938
1283.284, 449.4844
1284.353, 417.8750
1285.421, 236.2734
1286.490, 177.6953
1287.558, 99.12500
1288.626, 230.6094
1289.694, 582.4219
1290.762, 464.9297
1291.829, 534.4375
1292.897, 394.9531
1293.964, 572.5156
1295.031, 429.2422
1296.098, 799.8203
1297.165, 579.4062
1298.231, 806.9922
1299.298, 1291.586
1300.364, 961.5703
1301.430, 753.1797
1302.496, 1419.914
1303.562, 2035.523
1304.627, 1602.133
1305.693, 1548.750
1306.758, 1866.367
1307.823, 1757.977
1308.888, 1340.594
1309.953, 1259.211
1311.018, 1230.812
1312.082, 1616.430
1313.146, 1281.031
1314.210, 626.6250
1315.274, 1560.227
1316.338, 1472.828
1317.402, 1749.391
1318.465, 1137.969
1319.529, 768.6094
1320.592, 1146.172
1321.655, 918.6250
1322.718, 1085.359
1323.780, 1205.891
1324.843, 1108.297
1325.905, 971.7500
1326.967, 556.0625
1328.029, 730.5938
1329.091, 1143.344
1330.153, 548.8594
1331.214, 1083.375
1332.275, 1107.891
1333.337, 622.4219
1334.398, 177.9531
1335.458, 817.8906
1336.519, 468.2969
1337.580, 628.7344
1338.640, 809.2812
1339.700, 80.17188
1340.760, 280.3438
1341.820, 31.89062
1342.880, 541.0156
1343.939, 396.5469
1344.999, 375.1094
1346.058, 816.1406
1347.117, 470.3750
1348.176, 694.9531
1349.235, 442.5312
1350.293, 870.1094
1351.351, 1207.703
1352.410, 1024.312
1353.468, 774.6094
1354.526, 441.0781
1355.583, 119.7656
1356.641, 1016.359
1357.698, 817.9219
1358.756, 764.5000
1359.813, 811.4062
1360.869, 379.9531
1361.926, 729.5312
1362.983, 398.0156
1364.039, 571.0000
1365.095, 385.5938
1366.152, 438.1875
1367.207, 502.7656
1368.263, 802.3750
1369.319, 297.5781
1370.374, 796.1875
1371.430, 352.0469
1372.485, 725.6406
1373.540, 27.62500
1374.594, 800.9531
1375.649, 306.5156
1376.703, 38.10938
1377.758, 1240.016
1378.812, 614.6094
1379.866, 1027.984
1380.920, 81.29688
1381.973, 52.40625
1383.027, 1237.891
1384.080, 456.1719
1385.133, 1137.469
1386.186, 697.7656
1387.239, 620.0469
1388.291, 883.3438
1389.344, 27.35938
1390.396, 911.9219
1391.448, 1054.141
1392.500, 581.3750
1393.552, 916.5938
1394.604, 834.8125
1395.655, 1314.047
1396.707, 862.2812
1397.758, 1105.516
1398.809, 652.7344
1399.860, 796.9844
1400.910, 1070.031
1401.961, 453.0625
1403.011, 263.1094
1404.061, 253.1562
1405.111, 221.1875
1406.161, 192.0312
1407.211, 670.8438
1408.260, 21.64062
1409.310, 754.8594
1410.359, 277.6250
1411.408, 624.3906
1412.457, 307.1406
1413.506, 384.7031
1414.554, 379.2344
1415.603, 11.45312
1416.651, 738.8438
1417.699, 463.9531
1418.747, 343.0781
1419.794, 1102.047
1420.842, 172.0938
1421.889, 461.1250
1422.937, 246.1250
1423.984, 506.0938
1425.031, 442.0312
1426.077, 438.0469
1427.124, 517.6875
1428.170, 83.59375
1429.217, 399.0625
1430.263, 375.6562
1431.309, 543.2500
1432.354, 957.7969
1433.400, 213.2500
1434.445, 671.6719
1435.491, 429.0469
1436.536, 454.1094
1437.581, 505.5625
1438.625, 705.9531
1439.670, 422.7031
1440.714, 229.4219
1441.759, 194.8906
1442.803, 768.7031
1443.847, 315.3125
1444.890, 524.8906
1445.934, 352.4688
1446.978, 295.0312
1448.021, 658.5469
1449.064, 556.0938
1450.107, 39.34375
1451.150, 201.2188
1452.192, 50.85938
1453.235, 112.2755
1454.277, 240.5625
1455.319, 217.8750
1456.361, 493.7656
1457.403, 100.0000
1458.445, 1029.266
1459.486, 516.5469
1460.528, 98.90625
1461.569, 608.7969
1462.610, 307.7500
1463.651, 915.9062
1464.691, 246.1250
1465.732, 433.3594
1466.772, 625.5938
1467.812, 263.2500
1468.852, 1112.031
1469.892, 208.2969
1470.932, 530.6250
1471.971, 421.9844
1473.011, 244.4375
1474.050, 548.9062
1475.089, 563.3906
1476.128, 975.7188
1477.166, 668.9062
1478.205, 207.1250
1479.243, 1177.453
1480.282, 30.50000
1481.320, 430.1250
1482.357, 674.1250
1483.395, 593.1094
1484.433, 826.1250
1485.470, 776.5781
1486.507, 413.5469
1487.544, 187.5000
1488.581, 138.4844
1489.618, 287.4844
1490.655, 498.4688
1491.691, 598.4844
1492.727, 271.5312
1493.763, 147.4375
1494.799, 401.9531
1495.835, 156.0156
1496.871, 425.0156
1497.906, 217.0312
1498.941, 454.4219
1499.976, 658.3438
1501.011, 384.9844
1502.046, 73.10938
1503.081, 282.8438
1504.115, 346.8281
1505.149, 759.1094
1506.183, 319.2812
1507.217, 765.5000
1508.251, 243.7812
1509.285, 392.0938
1510.318, 1051.484
1511.352, 749.9062
1512.385, 671.4531
1513.418, 1389.062
1514.450, 803.7656
1515.483, 1219.969
1516.516, 1270.359
1517.548, 761.1094
1518.580, 866.9062
1519.612, 564.9531
1520.644, 744.8906
1521.675, 1110.703
1522.707, 369.4844
1523.738, 1055.234
1524.769, 764.9688
1525.800, 1023.781
1526.831, 447.5156
1527.862, 536.1719
1528.892, 867.7344
1529.923, 237.8125
1530.953, 659.5938
1531.983, 863.0781
1533.013, 7.500000
1534.042, 669.4062
1535.072, 424.4688
1536.101, 677.5156
1537.131, 1020.344
1538.160, 165.9219
1539.188, 1004.062
1540.217, 81.28125
1541.246, 221.2500
1542.274, 328.6094
1543.302, 114.2500
1544.330, 473.5938
1545.358, 358.0625
1546.386, 330.5625
1547.413, 629.7188
1548.441, 795.8125
1549.468, 835.3125
1550.495, 371.0000
1551.522, 555.9062
1552.549, 480.6875
1553.575, 394.9375
1554.602, 671.1562
1555.628, 280.5938
1556.654, 539.1875
1557.680, 545.1875
1558.706, 672.6406
1559.731, 472.3594
1560.757, 418.8906
1561.782, 581.0312
1562.807, 641.9844
1563.832, 474.2656
1564.857, 605.7812
1565.881, 200.6406
1566.906, 265.1562
1567.930, 531.3750
1568.954, 373.6562
1569.978, 509.7344
1571.002, 540.4844
1572.025, 70.67188
1573.049, 481.1719
1574.072, 516.7188
1575.095, 170.3281
1576.118, 573.0312
1577.141, 305.3438
1578.164, 618.7031
1579.186, 0.0000000E+00
##END=



