##NAMES=Creedite
##RRUFFID=R050141
##IDEAL CHEMISTRY=Ca_3_Al_2_(S^6+^O_4_)(OH)_2_F_8_&#183;2H_2_O
##LOCALITY=Mina de Navidad, Rodeo, Durango, Mexico
##OWNER=RRUFF
##SOURCE=Dave Bunk Minerals
##DESCRIPTION=Radiating group of bladed crystals
##STATUS=The identification of this mineral has been confirmed by X-ray diffraction and chemical analysis
##URL=rruff.info/R050141
##MEASURED CHEMISTRY=Ca_3.00_Al_2.00_(S_1.00_O_4_)(OH)_2_(F_7.31_(OH)_0.69_)_Σ=8_·2H_2_O ; OH estimated by stoichiometry and charge balance OH=10-F
##PIN_ID=L00203
##ORIENTATION=Laser parallel to c* (0 0 1). Fiducial mark perpendicular to laser is parallel to -a [-1 0 0]
101.812, 0.000
103.206, 41.332
104.600, 53.447
105.994, 2.752
107.387, 189.690
108.781, 123.215
110.174, 178.401
111.566, 141.630
112.959, 161.605
114.351, 153.727
115.744, 147.042
117.136, 397.223
118.527, 490.329
119.919, 262.779
121.310, 144.136
122.701, 115.725
124.092, 333.853
125.482, 370.590
126.873, 551.025
128.263, 506.124
129.653, 1129.464
131.042, 1380.477
132.432, 1723.760
133.821, 1563.437
135.210, 833.441
136.599, 613.331
137.987, 316.939
139.376, 398.464
140.764, 360.524
142.152, 250.198
143.539, 278.928
144.927, 264.627
146.314, 269.105
147.701, 120.130
149.088, 123.631
150.474, 28.668
151.861, 12.322
153.247, 54.403
154.633, 9.185
156.018, 68.209
157.404, 20.906
158.789, 21.810
160.174, 17.051
161.559, 25.652
162.943, 52.957
164.327, 59.953
165.711, 211.425
167.095, 220.038
168.479, 383.156
169.862, 423.362
171.246, 497.833
172.628, 741.989
174.011, 637.353
175.394, 770.590
176.776, 528.460
178.158, 601.751
179.540, 551.629
180.922, 476.225
182.303, 527.110
183.684, 372.716
185.065, 527.651
186.446, 546.220
187.826, 791.465
189.207, 918.786
190.587, 1221.302
191.967, 1519.349
193.346, 1075.058
194.726, 940.034
196.105, 567.241
197.484, 485.359
198.862, 352.776
200.241, 224.777
201.619, 330.625
202.997, 221.800
204.375, 338.080
205.753, 231.400
207.130, 266.854
208.507, 278.216
209.884, 184.435
211.261, 291.183
212.638, 271.659
214.014, 504.403
215.390, 540.451
216.766, 541.601
218.141, 567.217
219.517, 396.196
220.892, 426.044
222.267, 246.413
223.642, 255.074
225.016, 151.059
226.391, 98.532
227.765, 116.971
229.139, 35.479
230.512, 53.537
231.886, 28.264
233.259, 7.800
234.632, 25.292
236.005, 12.519
237.377, 48.628
238.749, 51.267
240.122, 32.796
241.493, 58.985
242.865, 15.417
244.237, 5.148
245.608, 5.123
246.979, 92.934
248.350, 2.820
249.720, 62.510
251.090, 27.117
252.461, 121.646
253.830, 160.080
255.200, 81.417
256.570, 236.681
257.939, 89.137
259.308, 102.648
260.677, 44.253
262.045, 10.127
263.414, 17.468
264.782, 47.147
266.150, 66.045
267.517, 30.845
268.885, 12.721
270.252, 11.994
271.619, 14.653
272.986, 2.161
274.353, 16.794
275.719, 73.436
277.085, 16.537
278.451, 79.507
279.817, 105.347
281.182, 79.044
282.548, 204.590
283.913, 139.994
285.278, 256.268
286.642, 184.422
288.007, 181.415
289.371, 226.346
290.735, 161.141
292.099, 255.741
293.462, 101.141
294.826, 127.335
296.189, 146.318
297.552, 129.170
298.914, 127.926
300.277, 46.610
301.639, 116.225
303.001, 106.769
304.363, 83.243
305.724, 109.648
307.086, 62.986
308.447, 122.254
309.808, 44.456
311.168, 120.590
312.529, 81.079
313.889, 60.509
315.249, 142.873
316.609, 26.749
317.969, 66.342
319.328, 24.075
320.687, 27.471
322.046, 7.218
323.405, 23.212
324.764, 80.369
326.122, 2.095
327.480, 63.188
328.838, 21.295
330.196, 16.162
331.553, 72.913
332.910, 18.097
334.267, 113.796
335.624, 28.577
336.981, 56.239
338.337, 68.812
339.693, 75.322
341.049, 114.778
342.405, 82.193
343.760, 215.569
345.116, 159.906
346.471, 286.184
347.826, 362.384
349.180, 303.522
350.535, 405.594
351.889, 244.606
353.243, 239.566
354.597, 208.489
355.950, 140.379
357.304, 205.240
358.657, 121.077
360.010, 174.886
361.362, 151.670
362.715, 154.423
364.067, 231.617
365.419, 174.226
366.771, 282.355
368.123, 235.945
369.474, 358.064
370.825, 349.305
372.176, 344.569
373.527, 410.414
374.877, 215.669
376.228, 272.792
377.578, 254.192
378.928, 171.567
380.277, 219.912
381.627, 123.245
382.976, 200.552
384.325, 110.844
385.674, 194.720
387.023, 186.619
388.371, 159.094
389.719, 252.190
391.067, 176.452
392.415, 292.448
393.762, 258.111
395.110, 290.624
396.457, 323.358
397.804, 248.635
399.150, 326.228
400.497, 185.877
401.843, 325.105
403.189, 343.566
404.535, 279.579
405.881, 325.737
407.226, 170.967
408.571, 211.237
409.916, 158.338
411.261, 98.239
412.605, 184.088
413.950, 70.541
415.294, 147.835
416.638, 38.288
417.981, 68.305
419.325, 100.074
420.668, 16.164
422.011, 151.364
423.354, 73.082
424.697, 117.392
426.039, 108.791
427.381, 100.836
428.723, 197.750
430.065, 81.829
431.406, 239.024
432.748, 179.247
434.089, 255.290
435.430, 329.100
436.770, 307.974
438.111, 620.740
439.451, 579.928
440.791, 794.692
442.131, 909.584
443.471, 750.293
444.810, 1027.548
446.149, 809.509
447.488, 1118.931
448.827, 1145.030
450.166, 1025.093
451.504, 1161.322
452.842, 791.257
454.180, 921.567
455.518, 811.210
456.855, 795.946
458.193, 979.745
459.530, 817.456
460.867, 1147.146
462.203, 943.337
463.540, 948.948
464.876, 921.505
466.212, 660.950
467.548, 808.492
468.883, 612.769
470.219, 689.337
471.554, 737.440
472.889, 693.982
474.224, 985.350
475.558, 887.573
476.892, 1324.189
478.227, 1438.141
479.561, 1854.431
480.894, 2520.924
482.228, 2483.220
483.561, 3488.059
484.894, 2851.797
486.227, 2745.208
487.559, 2376.052
488.892, 1574.392
490.224, 1522.415
491.556, 960.394
492.888, 888.767
494.220, 706.961
495.551, 511.495
496.882, 527.580
498.213, 350.865
499.544, 382.199
500.874, 307.786
502.205, 221.306
503.535, 287.688
504.865, 131.708
506.194, 252.410
507.524, 126.622
508.853, 151.665
510.182, 228.702
511.511, 132.732
512.840, 248.755
514.168, 207.166
515.496, 224.064
516.824, 251.677
518.152, 277.561
519.480, 390.093
520.807, 218.927
522.134, 389.588
523.461, 413.264
524.788, 375.242
526.114, 605.005
527.441, 461.047
528.767, 789.011
530.093, 743.004
531.418, 795.063
532.744, 933.024
534.069, 703.714
535.394, 872.672
536.719, 658.129
538.044, 548.927
539.368, 567.743
540.693, 331.351
542.017, 444.937
543.340, 311.593
544.664, 264.273
545.987, 343.194
547.311, 185.939
548.634, 286.503
549.956, 137.450
551.279, 199.706
552.601, 220.845
553.923, 115.702
555.245, 193.828
556.567, 49.974
557.889, 99.416
559.210, 105.583
560.531, 80.540
561.852, 131.692
563.173, 1.887
564.493, 97.265
565.813, 105.300
567.133, 84.963
568.453, 147.014
569.773, 32.130
571.092, 116.018
572.412, 53.073
573.731, 78.867
575.049, 144.923
576.368, 60.524
577.686, 157.562
579.005, 151.444
580.323, 95.979
581.640, 256.052
582.958, 152.850
584.275, 291.848
585.593, 217.808
586.909, 344.795
588.226, 431.896
589.543, 378.813
590.859, 624.939
592.175, 652.073
593.491, 879.214
594.807, 1159.362
596.122, 1261.518
597.438, 1991.683
598.753, 2280.851
600.068, 3269.020
601.382, 3902.200
602.697, 3489.381
604.011, 3960.562
605.325, 2478.741
606.639, 2021.919
607.952, 1469.097
609.266, 861.274
610.579, 849.449
611.892, 493.624
613.205, 507.797
614.518, 393.975
615.830, 256.153
617.142, 385.332
618.454, 185.511
619.766, 450.690
621.078, 269.873
622.389, 247.056
623.700, 427.240
625.011, 327.426
626.322, 544.613
627.632, 732.802
628.943, 934.991
630.253, 1288.353
631.563, 889.546
632.872, 886.870
634.182, 494.068
635.491, 355.266
636.800, 350.178
638.109, 203.381
639.418, 207.626
640.726, 189.849
642.035, 95.076
643.343, 234.025
644.651, 94.261
645.958, 264.689
647.266, 139.039
648.573, 146.284
649.880, 209.654
651.187, 70.902
652.494, 200.189
653.800, 122.604
655.106, 99.861
656.412, 140.197
657.718, 1.543
659.024, 115.716
660.329, 82.989
661.634, 26.249
662.939, 114.507
664.244, 7.764
665.549, 114.018
666.853, 89.270
668.157, 96.520
669.461, 103.768
670.765, 6.987
672.069, 161.253
673.372, 63.492
674.675, 73.730
675.978, 159.000
677.281, 28.236
678.583, 147.471
679.886, 117.587
681.188, 86.820
682.490, 110.052
683.792, 30.282
685.093, 92.509
686.394, 43.009
687.696, 26.232
688.997, 79.452
690.297, 29.694
691.598, 55.507
692.898, 6.252
694.198, 13.061
695.498, 42.159
696.798, 75.500
698.097, 75.636
699.397, 28.229
700.696, 15.921
701.995, 43.036
703.293, 77.851
704.592, 10.782
705.890, 47.723
707.188, 2.680
708.486, 3.344
709.784, 61.038
711.081, 11.946
712.378, 33.075
713.675, 21.124
714.972, 6.818
716.269, 45.246
717.565, 15.662
718.862, 5.566
720.158, 0.252
721.453, 127.145
722.749, 38.965
724.045, 88.898
725.340, 33.759
726.635, 33.530
727.930, 82.384
729.224, 34.723
730.519, 90.572
731.813, 71.417
733.107, 5.011
734.401, 129.849
735.694, 73.698
736.988, 112.533
738.281, 49.364
739.574, 50.246
740.867, 178.072
742.160, 46.894
743.452, 169.713
744.744, 95.529
746.036, 69.289
747.328, 211.097
748.620, 63.902
749.911, 182.703
751.202, 171.500
752.493, 143.176
753.784, 191.965
755.075, 93.750
756.365, 209.192
757.655, 169.969
758.945, 114.833
760.235, 223.602
761.525, 181.367
762.814, 232.219
764.103, 248.975
765.392, 153.727
766.681, 258.475
767.969, 132.219
769.258, 227.890
770.546, 197.625
771.834, 137.356
773.122, 221.083
774.409, 124.805
775.697, 132.523
776.984, 170.237
778.271, 87.946
779.558, 152.651
780.844, 77.352
782.131, 142.048
783.417, 115.740
784.703, 4.573
785.989, 135.100
787.274, 22.768
788.560, 70.431
789.845, 95.089
791.130, 13.257
792.415, 94.377
793.699, 45.007
794.983, 65.632
796.268, 155.252
797.552, 3.868
798.835, 120.472
800.119, 18.074
801.402, 25.668
802.686, 104.257
803.969, 3.155
805.251, 68.417
806.534, 42.985
807.816, 19.548
809.098, 111.104
810.380, 31.658
811.662, 124.207
812.944, 118.523
814.225, 46.067
815.506, 182.606
816.787, 65.059
818.068, 129.589
819.349, 119.954
820.629, 98.475
821.909, 191.991
823.189, 54.503
824.469, 113.011
825.749, 139.120
827.028, 70.618
828.307, 94.113
829.586, 38.602
830.865, 81.087
832.144, 137.491
833.422, 0.967
834.700, 79.431
835.978, 71.890
837.256, 62.345
838.534, 124.723
839.811, 5.831
841.088, 72.575
842.365, 78.906
843.642, 5.328
844.919, 86.011
846.195, 31.418
847.472, 112.320
848.748, 30.873
850.023, 16.235
851.299, 86.961
852.575, 67.347
853.850, 25.984
855.125, 46.219
856.400, 38.565
857.674, 134.051
858.949, 32.605
860.223, 21.951
861.497, 93.892
862.771, 2.943
864.045, 56.500
865.318, 47.689
866.591, 24.860
867.864, 77.737
869.137, 27.898
870.410, 52.270
871.682, 29.465
872.955, 16.616
874.227, 130.605
875.499, 29.939
876.770, 67.652
878.042, 40.982
879.313, 12.246
880.584, 99.509
881.855, 25.164
883.126, 63.083
884.396, 18.393
885.667, 62.298
886.937, 169.687
888.207, 3.961
889.476, 96.233
890.746, 81.504
892.015, 0.760
893.284, 73.018
894.553, 11.285
895.822, 19.527
897.090, 100.792
898.359, 16.939
899.627, 102.321
900.895, 56.580
902.163, 39.838
903.430, 73.095
904.698, 33.648
905.965, 25.591
907.232, 61.830
908.499, 46.740
909.765, 95.488
911.032, 1.285
912.298, 37.942
913.564, 85.169
914.830, 1.604
916.095, 105.621
917.361, 40.846
918.626, 16.105
919.891, 58.329
921.156, 18.448
922.420, 122.767
923.685, 36.982
924.949, 26.197
926.213, 125.411
927.477, 38.625
928.740, 94.843
930.004, 34.061
931.267, 10.278
932.530, 200.495
933.793, 27.712
935.056, 106.930
936.318, 125.147
937.581, 63.196
938.843, 175.414
940.104, 114.504
941.366, 62.723
942.628, 130.947
943.889, 37.459
945.150, 106.683
946.411, 171.876
947.672, 87.101
948.932, 190.327
950.193, 83.842
951.453, 183.288
952.713, 229.330
953.973, 108.450
955.232, 241.223
956.491, 129.331
957.751, 149.562
959.010, 280.762
960.268, 187.836
961.527, 297.505
962.785, 325.664
964.044, 267.901
965.302, 523.172
966.559, 402.397
967.817, 580.637
969.075, 629.878
970.332, 555.121
971.589, 841.365
972.846, 703.619
974.102, 898.875
975.359, 1351.132
976.615, 1237.390
977.871, 2006.652
979.127, 2153.915
980.383, 2939.178
981.638, 4582.411
982.893, 5726.677
984.149, 10536.947
985.404, 17323.338
986.658, 26230.605
987.913, 38437.879
989.167, 28405.156
990.421, 19552.434
991.675, 11868.438
992.929, 6146.726
994.183, 4871.015
995.436, 2926.669
996.689, 2165.976
997.942, 1984.241
999.195, 1267.553
1000.448, 1306.835
1001.700, 1013.996
1002.952, 757.341
1004.204, 856.690
1005.456, 512.015
1006.708, 629.395
1007.959, 462.777
1009.210, 354.181
1010.461, 411.593
1011.712, 343.008
1012.963, 253.452
1014.213, 356.302
1015.464, 166.769
1016.714, 338.245
1017.964, 239.732
1019.214, 190.229
1020.463, 347.731
1021.712, 182.276
1022.962, 246.796
1024.210, 256.319
1025.459, 108.845
1026.708, 287.384
1027.956, 196.936
1029.204, 204.490
1030.452, 319.047
1031.700, 197.606
1032.948, 274.678
1034.195, 265.243
1035.442, 202.810
1036.689, 340.631
1037.936, 239.205
1039.183, 296.769
1040.429, 389.348
1041.676, 191.929
1042.922, 359.459
1044.168, 284.058
1045.413, 238.659
1046.659, 327.263
1047.904, 149.246
1049.149, 218.909
1050.394, 184.522
1051.639, 88.148
1052.884, 181.765
1054.128, 61.479
1055.372, 98.333
1056.616, 86.960
1057.860, 10.243
1059.104, 126.726
1060.347, 89.359
1061.590, 18.513
1062.833, 100.150
1064.076, 47.964
1065.319, 108.532
1066.561, 95.193
1067.803, 3.006
1069.046, 175.660
1070.287, 58.327
1071.529, 10.151
1072.771, 138.822
1074.012, 55.605
1075.253, 140.281
1076.494, 166.959
1077.735, 122.537
1078.975, 295.219
1080.216, 147.904
1081.456, 252.598
1082.696, 411.294
1083.936, 271.095
1085.175, 448.795
1086.415, 401.497
1087.654, 332.463
1088.893, 374.173
1090.132, 145.886
1091.371, 276.624
1092.609, 161.340
1093.847, 29.065
1095.085, 156.791
1096.323, 95.520
1097.561, 30.518
1098.799, 164.249
1100.036, 12.015
1101.273, 47.865
1102.510, 72.603
1103.747, 20.658
1104.983, 184.218
1106.220, 22.961
1107.456, 18.706
1108.692, 112.452
1109.928, 17.799
1111.163, 89.239
1112.399, 83.985
1113.634, 30.267
1114.869, 139.474
1116.104, 85.216
1117.339, 150.989
1118.573, 203.746
1119.808, 89.503
1121.042, 309.520
1122.276, 296.279
1123.509, 299.039
1124.743, 513.949
1125.976, 452.711
1127.210, 609.472
1128.443, 869.272
1129.675, 704.039
1130.908, 1155.105
1132.141, 1353.873
1133.373, 1617.640
1134.605, 2515.568
1135.837, 2321.340
1137.068, 2542.120
1138.300, 2240.892
1139.531, 1373.664
1140.762, 1394.182
1141.993, 950.962
1143.224, 611.741
1144.455, 743.976
1145.685, 301.762
1146.915, 289.549
1148.145, 326.116
1149.375, 135.901
1150.605, 257.686
1151.834, 169.743
1153.063, 54.526
1154.292, 239.849
1155.521, 43.630
1156.750, 187.410
1157.978, 133.542
1159.207, 41.319
1160.435, 146.216
1161.663, 59.269
1162.891, 73.043
1164.118, 165.206
1165.345, 22.976
1166.573, 118.743
1167.800, 140.378
1169.026, 16.141
1170.253, 154.900
1171.480, 66.657
1172.706, 94.412
1173.932, 176.535
1175.158, 53.284
1176.383, 193.030
1177.609, 207.962
1178.834, 128.701
1180.059, 387.437
1181.284, 256.642
1182.509, 405.377
1183.734, 707.451
1184.958, 475.232
1186.182, 626.973
1187.406, 487.879
1188.630, 266.613
1189.854, 230.343
1191.077, 165.180
1192.301, 82.902
1193.524, 89.946
1194.747, 21.045
1195.969, 137.652
1197.192, 88.614
1198.414, 37.306
1199.636, 133.995
1200.858, 19.632
1202.080, 15.310
1203.302, 129.999
1204.523, 48.138
1205.744, 105.327
1206.966, 82.253
1208.186, 7.037
1209.407, 137.599
1210.628, 11.440
1211.848, 74.064
1213.068, 174.683
1214.288, 17.603
1215.508, 118.176
1216.727, 114.796
1217.947, 31.447
1219.166, 156.042
1220.385, 26.915
1221.604, 76.501
1222.822, 184.082
1224.041, 7.885
1225.259, 165.677
1226.477, 124.233
1227.695, 57.557
1228.913, 212.127
1230.130, 33.817
1231.348, 68.499
1232.565, 174.026
1233.782, 6.685
1234.999, 77.200
1236.215, 163.709
1237.432, 7.620
1238.648, 169.879
1239.864, 72.373
1241.080, 76.864
1242.296, 204.353
1243.511, 8.966
1244.726, 132.447
1245.942, 189.923
1247.156, 30.381
1248.371, 188.851
1249.586, 99.318
1250.800, 32.560
1252.014, 160.008
1253.228, 80.453
1254.442, 123.036
1255.656, 211.472
1256.869, 10.468
1258.083, 188.894
1259.296, 146.317
1260.509, 88.210
1261.722, 87.616
1262.934, 62.010
1264.147, 121.299
1265.359, 169.679
1266.571, 23.946
1267.783, 177.537
1268.994, 145.866
1270.206, 38.287
1271.417, 202.586
1272.628, 83.872
1273.839, 68.265
1275.050, 233.534
1276.260, 17.799
1277.471, 166.045
1278.681, 171.282
1279.891, 40.513
1281.101, 207.735
1282.310, 76.949
1283.520, 85.156
1284.729, 229.419
1285.938, 13.407
1287.147, 145.253
1288.356, 126.401
1289.564, 8.458
1290.773, 206.862
1291.981, 124.975
1293.189, 3.081
1294.397, 180.176
1295.604, 88.234
1296.812, 26.407
1298.019, 174.448
1299.226, 56.519
1300.433, 148.593
1301.640, 92.586
1302.846, 20.573
1304.053, 226.535
1305.259, 33.512
1306.465, 27.419
1307.671, 139.340
1308.876, 5.747
1310.082, 160.151
1311.287, 112.041
1312.492, 2.922
1313.697, 120.788
1314.902, 97.615
1316.106, 104.462
1317.310, 156.297
1318.515, 20.876
1319.719, 127.926
1320.922, 208.718
1322.126, 42.469
1323.329, 138.208
1324.533, 136.936
1325.736, 16.654
1326.939, 165.346
1328.141, 25.028
1329.344, 79.699
1330.546, 146.359
1331.748, 48.008
1332.950, 118.640
1334.152, 117.261
1335.354, 32.146
1336.555, 179.423
1337.757, 26.979
1338.958, 29.524
1340.159, 206.732
1341.359, 32.253
1342.560, 132.761
1343.760, 190.250
1344.960, 1.737
1346.160, 146.119
1347.360, 85.469
1348.560, 42.919
1349.759, 205.191
1350.959, 28.620
1352.158, 69.039
1353.357, 255.841
1354.555, 51.759
1355.754, 171.459
1356.952, 138.825
1358.151, 25.185
1359.349, 173.397
1360.546, 79.742
1361.744, 71.080
1362.941, 197.329
1364.139, 28.374
1365.336, 133.591
1366.533, 225.916
1367.730, 15.241
1368.926, 174.669
1370.123, 135.998
1371.319, 12.737
1372.515, 77.515
1373.711, 48.070
1374.906, 48.194
1376.102, 226.308
1377.297, 50.320
1378.492, 126.148
1379.687, 203.182
1380.882, 44.240
1382.077, 227.289
1383.271, 141.048
1384.465, 94.926
1385.659, 280.944
1386.853, 54.808
1388.047, 109.810
1389.240, 256.484
1390.434, 40.469
1391.627, 159.450
1392.820, 198.375
1394.013, 25.752
1395.205, 234.652
1396.398, 163.369
1397.590, 52.205
1398.782, 245.712
1399.974, 98.559
1401.166, 98.208
1402.357, 232.026
1403.549, 14.710
1404.740, 150.492
1405.931, 146.440
1407.122, 29.817
1408.313, 202.896
1409.503, 115.248
1410.693, 45.008
1411.883, 146.159
1413.073, 49.593
1414.263, 154.761
1415.453, 259.393
1416.642, 5.307
1417.831, 244.170
1419.020, 196.638
1420.209, 71.701
1421.398, 297.834
1422.587, 153.229
1423.775, 87.924
1424.963, 263.724
1426.151, 86.818
1427.339, 57.159
1428.526, 184.633
1429.714, 2.910
1430.901, 200.743
1432.088, 197.987
1433.275, 9.349
1434.462, 225.532
1435.648, 113.308
1436.835, 77.429
1438.021, 240.315
1439.207, 29.892
1440.393, 110.963
1441.579, 293.960
1442.764, 33.516
1443.949, 297.709
1445.135, 213.758
1446.320, 98.300
1447.504, 335.677
1448.689, 78.347
1449.873, 157.273
1451.058, 321.824
1452.242, 114.676
1453.426, 161.210
1454.609, 316.974
1455.793, 69.236
1456.976, 293.164
1458.159, 227.812
1459.342, 85.078
1460.525, 271.626
1461.708, 201.872
1462.890, 166.350
1464.073, 340.353
1465.255, 100.284
1466.437, 140.353
1467.619, 245.743
1468.800, 111.991
1469.982, 255.284
1471.163, 241.575
1472.344, 41.833
1473.525, 274.852
1474.706, 164.537
1475.886, 71.752
1477.066, 348.929
1478.247, 130.976
1479.427, 103.737
1480.607, 284.881
1481.786, 17.586
1482.966, 225.694
1484.145, 210.824
1485.324, 59.904
1486.503, 192.935
1487.682, 191.918
1488.860, 67.880
1490.039, 281.798
1491.217, 152.715
1492.395, 109.926
1493.573, 185.140
1494.751, 71.491
1495.928, 172.840
1497.106, 204.246
1498.283, 66.830
1499.460, 177.598
1500.637, 200.061
1501.814, 32.996
1502.990, 208.039
1504.166, 123.228
1505.342, 9.388
1506.518, 279.200
1507.694, 34.017
1508.870, 81.107
1510.045, 192.514
1511.221, 43.308
1512.396, 176.025
1513.571, 220.361
1514.745, 0.614
1515.920, 164.094
1517.094, 108.498
1518.269, 0.000
##END=



