##NAMES=Danburite
##RRUFFID=R040013
##IDEAL CHEMISTRY=CaB_2_Si_2_O_8_
##LOCALITY=Charcas, San Luis Potosi, Mexico
##OWNER=RRUFF
##SOURCE=Marcus Origlieri
##DESCRIPTION=Colorless prismatic single crystal
##STATUS=The identification of this mineral has been confirmed by X-ray diffraction and chemical analysis
##URL=rruff.info/R040013
##MEASURED CHEMISTRY=Ca_1.00_B_2.00_Si_2.00_O_8_
##PIN_ID=M00012
##ORIENTATION=Laser parallel to c* (0 0 1). Fiducial mark perpendicular to laser is parallel to a [1 0 0]
80.232, 0.000
81.628, 19.622
83.025, 42.200
84.421, 247.450
85.817, 40.684
87.213, 247.519
88.608, 232.734
90.003, 281.274
91.398, 307.068
92.793, 220.029
94.188, 412.137
95.582, 206.796
96.976, 319.819
98.370, 172.330
99.764, 315.476
101.157, 305.271
102.550, 250.065
103.943, 413.243
105.336, 250.595
106.729, 473.792
108.121, 386.067
109.513, 717.595
110.905, 1353.485
112.297, 823.830
113.688, 817.786
115.079, 961.467
116.470, 1787.210
117.861, 2580.134
119.251, 3532.281
120.642, 5171.647
122.032, 7598.209
123.422, 10864.950
124.811, 11711.856
126.201, 11198.919
127.590, 9336.136
128.979, 8901.687
130.367, 7438.955
131.756, 4870.359
133.144, 3038.057
134.532, 2134.097
135.920, 2290.455
137.307, 2622.933
138.695, 3260.460
140.082, 2920.028
141.469, 1895.622
142.856, 1047.262
144.242, 447.024
145.628, 244.802
147.014, 11.596
148.400, 57.590
149.786, 107.755
151.171, 160.896
152.556, 77.011
153.941, 169.085
155.325, 23.988
156.710, 2.220
158.094, 354.576
159.478, 890.959
160.862, 2097.357
162.245, 3998.764
163.629, 6534.174
165.012, 10308.605
166.395, 10288.078
167.777, 7047.598
169.160, 3451.166
170.542, 1350.781
171.924, 549.442
173.306, 77.144
174.687, 127.883
176.068, 30.346
177.449, 86.453
178.830, 232.279
180.211, 439.128
181.591, 676.991
182.972, 625.854
184.351, 715.106
185.731, 815.943
187.111, 1292.956
188.490, 2011.235
189.869, 2755.674
191.248, 3257.039
192.626, 2414.584
194.005, 1630.135
195.383, 809.691
196.761, 435.249
198.139, 332.703
199.516, 252.951
200.893, 442.042
202.271, 468.418
203.647, 1055.174
205.024, 1684.899
206.400, 2748.052
207.777, 4541.263
209.152, 6477.394
210.528, 8734.556
211.904, 8123.744
213.279, 5959.983
214.654, 3559.260
216.029, 1989.564
217.403, 1213.919
218.778, 623.323
220.152, 555.764
221.526, 316.236
222.900, 338.729
224.273, 282.274
225.646, 250.322
227.019, 377.399
228.392, 370.268
229.765, 643.381
231.137, 668.951
232.509, 989.246
233.881, 1343.057
235.253, 1915.309
236.625, 3103.368
237.996, 5360.161
239.367, 7724.919
240.738, 12154.789
242.108, 18504.273
243.479, 26063.754
244.849, 30983.229
246.219, 30343.012
247.589, 22583.305
248.958, 14783.887
250.328, 9274.655
251.697, 5845.549
253.065, 4205.524
254.434, 2855.554
255.803, 2357.615
257.171, 1818.685
258.539, 1437.754
259.906, 1093.816
261.274, 756.868
262.641, 671.907
264.008, 375.899
265.375, 385.824
266.742, 205.692
268.108, 232.511
269.475, 355.288
270.840, 325.025
272.206, 611.729
273.572, 921.402
274.937, 1562.048
276.302, 2077.669
277.667, 2447.267
279.032, 2182.831
280.396, 1425.121
281.760, 937.074
283.125, 423.818
284.488, 250.555
285.852, 167.305
287.215, 0.935
288.578, 101.826
289.941, 48.403
291.304, 67.355
292.666, 18.881
294.029, 27.840
295.391, 14.565
296.753, 36.708
298.114, 81.008
299.476, 28.275
300.837, 145.429
302.198, 181.134
303.558, 304.839
304.919, 637.544
306.279, 788.249
307.639, 1369.954
308.999, 1794.657
310.359, 2338.359
311.718, 2630.633
313.077, 2469.667
314.436, 2070.590
315.795, 1277.218
317.154, 913.147
318.512, 590.333
319.870, 315.023
321.228, 208.021
322.586, 25.704
323.943, 20.383
325.300, 16.056
326.657, 36.724
328.014, 8.387
329.371, 44.955
330.727, 121.684
332.083, 57.389
333.439, 265.154
334.795, 302.733
336.150, 347.622
337.506, 604.050
338.861, 691.289
340.215, 1206.427
341.570, 1851.225
342.924, 3244.367
344.279, 5335.896
345.633, 7747.354
346.986, 10088.190
348.340, 9828.772
349.693, 8378.527
351.046, 5547.879
352.399, 3403.680
353.752, 2197.379
355.104, 1390.684
356.457, 986.327
357.809, 601.161
359.160, 510.900
360.512, 404.097
361.863, 299.898
363.214, 276.473
364.565, 114.447
365.916, 175.187
367.267, 63.675
368.617, 70.457
369.967, 94.250
371.317, 36.808
372.666, 147.277
374.016, 57.143
375.365, 85.675
376.714, 0.650
378.063, 32.661
379.411, 63.696
380.760, 45.221
382.108, 80.160
383.456, 23.285
384.803, 65.547
386.151, 76.694
387.498, 41.413
388.845, 134.538
390.192, 33.838
391.539, 95.961
392.885, 119.033
394.231, 82.377
395.577, 194.409
396.923, 54.417
398.269, 265.411
399.614, 243.394
400.959, 332.380
402.304, 528.355
403.649, 622.320
404.993, 1036.285
406.337, 988.239
407.681, 965.191
409.025, 918.133
410.369, 650.062
411.712, 807.978
413.055, 761.877
414.398, 1046.778
415.741, 1203.661
417.084, 1549.528
418.426, 2188.387
419.768, 2677.228
421.110, 3693.055
422.452, 4419.866
423.793, 5027.655
425.134, 4937.429
426.475, 4038.185
427.816, 3240.925
429.157, 2128.647
430.497, 1651.351
431.837, 1253.039
433.177, 982.709
434.517, 1196.362
435.857, 1372.997
437.196, 2032.614
438.535, 2922.214
439.874, 3758.797
441.213, 4469.363
442.551, 3838.911
443.889, 3062.446
445.227, 1982.966
446.565, 1510.473
447.903, 1041.965
449.240, 745.933
450.577, 661.396
451.914, 483.358
453.251, 513.650
454.588, 531.439
455.924, 451.470
457.260, 688.187
458.596, 772.820
459.932, 1005.084
461.267, 955.219
462.602, 918.549
463.938, 820.865
465.272, 506.166
466.607, 511.452
467.941, 308.722
469.276, 450.978
470.610, 544.218
471.943, 450.444
473.277, 789.657
474.610, 1031.876
475.944, 1905.115
477.276, 3006.385
478.609, 3999.693
479.942, 4711.036
481.274, 3636.362
482.606, 2687.681
483.938, 1597.774
485.270, 901.832
486.601, 693.852
487.932, 266.940
489.263, 270.906
490.594, 206.063
491.925, 137.307
493.255, 122.442
494.585, 14.348
495.915, 90.838
497.245, 10.004
498.575, 8.836
499.904, 2.298
501.233, 49.582
502.562, 36.513
503.891, 13.413
505.219, 7.630
506.548, 2.329
507.876, 1.683
509.203, 100.684
510.531, 43.334
511.859, 80.608
513.186, 33.465
514.513, 11.584
515.840, 103.283
517.166, 51.868
518.493, 77.924
519.819, 14.696
521.145, 3.556
522.470, 113.213
523.796, 54.061
525.121, 71.603
526.446, 14.503
527.771, 57.881
529.096, 51.298
530.421, 0.031
531.745, 124.186
533.069, 111.928
534.393, 39.800
535.716, 62.056
537.040, 57.310
538.363, 126.733
539.686, 8.927
541.009, 111.131
542.331, 67.350
543.654, 19.144
544.976, 160.095
546.298, 30.662
547.620, 159.445
548.941, 112.551
550.263, 150.137
551.584, 179.285
552.905, 94.872
554.225, 228.750
555.546, 210.073
556.866, 272.187
558.186, 460.494
559.506, 515.782
560.826, 893.098
562.145, 919.408
563.465, 1023.845
564.784, 880.815
566.103, 576.483
567.421, 683.652
568.740, 452.801
570.058, 532.989
571.376, 585.865
572.694, 502.584
574.011, 707.568
575.329, 582.711
576.646, 749.614
577.963, 802.395
579.279, 794.038
580.596, 1116.941
581.912, 1001.665
583.228, 1228.877
584.544, 1275.562
585.860, 1273.665
587.175, 1538.312
588.491, 1479.940
589.806, 1817.923
591.121, 1983.512
592.435, 2200.083
593.750, 2703.634
595.064, 2986.167
596.378, 3710.812
597.692, 4476.306
599.006, 5519.783
600.319, 7081.239
601.632, 9127.679
602.945, 12764.397
604.258, 17330.797
605.571, 24377.182
606.883, 34843.547
608.195, 43479.891
609.507, 50346.230
610.819, 47342.562
612.131, 39998.871
613.442, 30945.182
614.753, 22281.475
616.064, 16667.750
617.375, 12164.027
618.685, 9670.281
619.995, 8126.534
621.306, 6772.766
622.615, 6888.980
623.925, 6925.177
625.235, 8171.353
626.544, 9257.513
627.853, 9113.650
629.162, 8770.105
630.471, 6866.207
631.779, 5429.289
633.087, 4416.699
634.395, 3417.744
635.703, 3161.513
637.011, 2455.519
638.318, 2273.505
639.625, 1945.088
640.932, 1705.034
642.239, 1665.822
643.546, 1430.730
644.852, 1474.627
646.158, 1308.684
647.464, 1125.536
648.770, 1219.331
650.076, 970.163
651.381, 1015.883
652.686, 897.873
653.991, 719.365
655.296, 883.985
656.600, 574.648
657.905, 698.417
659.209, 576.642
660.513, 495.749
661.817, 556.260
663.120, 390.418
664.423, 494.747
665.726, 364.934
667.029, 289.246
668.332, 440.409
669.635, 223.542
670.937, 337.773
672.239, 302.052
673.541, 240.264
674.842, 369.258
676.144, 192.476
677.445, 285.053
678.746, 177.339
680.047, 198.485
681.348, 256.207
682.648, 119.209
683.948, 239.361
685.248, 210.755
686.548, 138.530
687.848, 290.513
689.147, 98.722
690.447, 189.629
691.746, 204.349
693.044, 73.109
694.343, 183.527
695.641, 16.566
696.940, 205.832
698.238, 126.771
699.535, 102.509
700.833, 204.942
702.130, 44.032
703.427, 204.520
704.724, 23.572
706.021, 0.587
707.318, 118.372
708.614, 42.655
709.910, 157.981
711.206, 104.880
712.502, 62.759
713.798, 98.618
715.093, 22.542
716.388, 86.252
717.683, 83.025
718.978, 10.221
720.272, 185.493
721.567, 1.189
722.861, 95.853
724.155, 95.497
725.448, 81.122
726.742, 167.727
728.035, 33.684
729.328, 113.853
730.621, 70.373
731.914, 6.127
733.206, 153.337
734.499, 18.784
735.791, 106.207
737.083, 191.612
738.374, 37.006
739.666, 207.377
740.957, 42.734
742.248, 180.092
743.539, 171.434
744.830, 48.771
746.120, 246.090
747.410, 162.393
748.701, 229.693
749.990, 293.978
751.280, 102.246
752.570, 293.513
753.859, 156.765
755.148, 165.006
756.437, 204.232
757.725, 57.444
759.014, 307.663
760.302, 134.866
761.590, 193.056
762.878, 221.231
764.166, 124.391
765.453, 376.536
766.740, 238.667
768.027, 388.784
769.314, 523.887
770.601, 442.975
771.887, 717.048
773.174, 679.107
774.460, 717.152
775.745, 705.184
777.031, 375.201
778.316, 466.204
779.602, 245.193
780.887, 164.169
782.172, 240.130
783.456, 31.079
784.741, 170.012
786.025, 169.931
787.309, 26.837
788.593, 169.728
789.876, 87.395
791.160, 109.411
792.443, 112.204
793.726, 11.984
795.009, 169.746
796.291, 5.496
797.574, 113.223
798.856, 96.939
800.138, 48.357
801.420, 165.298
802.702, 45.060
803.983, 75.537
805.264, 81.121
806.545, 17.307
807.826, 160.243
809.107, 42.217
810.387, 8.718
811.667, 77.763
812.947, 91.764
814.227, 114.660
815.507, 2.075
816.786, 71.520
818.065, 172.831
819.344, 43.823
820.623, 95.486
821.902, 26.214
823.180, 1.930
824.459, 169.335
825.737, 62.395
827.014, 94.833
828.292, 89.053
829.569, 31.283
830.847, 105.503
832.124, 90.281
833.401, 147.853
834.677, 107.003
835.954, 44.165
837.230, 172.073
838.506, 95.771
839.782, 70.321
841.057, 158.229
842.333, 15.314
843.608, 263.052
844.883, 33.156
846.158, 201.254
847.433, 244.938
848.707, 43.043
849.981, 302.992
851.255, 144.089
852.529, 132.023
853.803, 307.857
855.076, 165.946
856.350, 351.438
857.623, 381.515
858.895, 340.655
860.168, 525.812
861.441, 294.695
862.713, 413.211
863.985, 368.255
865.257, 186.075
866.528, 365.717
867.800, 67.506
869.071, 225.292
870.342, 260.026
871.613, 151.745
872.884, 390.314
874.154, 167.328
875.425, 295.622
876.695, 434.393
877.965, 180.161
879.234, 384.870
880.504, 209.868
881.773, 262.001
883.042, 347.849
884.311, 112.515
885.580, 428.400
886.848, 290.387
888.117, 248.490
889.385, 589.312
890.653, 289.129
891.920, 567.601
893.188, 558.580
894.455, 574.097
895.722, 931.074
896.989, 766.313
898.256, 993.119
899.523, 1217.093
900.789, 1154.782
902.055, 1468.756
903.321, 1223.730
904.587, 1321.781
905.852, 1504.754
907.118, 1083.786
908.383, 1296.759
909.648, 1189.731
910.913, 1175.056
912.177, 1192.028
913.442, 951.075
914.706, 1280.059
915.970, 1153.044
917.233, 1029.027
918.497, 1155.013
919.760, 733.000
921.024, 806.989
922.287, 747.979
923.550, 422.970
924.812, 674.963
926.075, 381.957
927.337, 418.953
928.599, 459.951
929.861, 331.951
931.122, 612.980
932.384, 542.012
933.645, 463.046
934.906, 629.100
936.167, 488.820
937.428, 741.880
938.688, 939.941
939.948, 921.662
941.208, 1390.730
942.468, 1387.059
943.728, 1733.134
944.987, 2147.214
946.247, 2148.683
947.506, 2639.771
948.765, 2287.003
950.023, 2237.102
951.282, 2189.196
952.540, 1562.117
953.798, 1620.230
955.056, 1232.398
956.314, 1003.444
957.572, 1006.523
958.829, 754.498
960.086, 890.639
961.343, 1016.095
962.600, 721.678
963.856, 1309.800
965.113, 1161.219
966.369, 1638.395
967.625, 2208.755
968.881, 2660.524
970.136, 3642.722
971.392, 4445.286
972.647, 4846.500
973.902, 5177.226
975.157, 4294.509
976.411, 3604.749
977.666, 2846.297
978.920, 2194.554
980.174, 1977.821
981.428, 1390.941
982.682, 1282.226
983.935, 1178.182
985.188, 899.486
986.441, 968.800
987.694, 740.052
988.947, 710.387
990.199, 801.167
991.452, 526.522
992.704, 601.889
993.956, 732.103
995.207, 490.493
996.459, 819.817
997.710, 594.227
998.961, 863.651
1000.212, 1312.415
1001.463, 1275.864
1002.714, 1589.326
1003.964, 1749.019
1005.214, 1974.503
1006.464, 2723.999
1007.714, 2822.508
1008.964, 2984.052
1010.213, 2509.611
1011.462, 1727.190
1012.711, 1526.796
1013.960, 967.433
1015.209, 802.082
1016.457, 835.743
1017.705, 490.417
1018.954, 824.111
1020.201, 634.831
1021.449, 713.563
1022.697, 1096.309
1023.944, 840.078
1025.191, 1108.858
1026.438, 1210.659
1027.685, 926.472
1028.931, 1272.297
1030.177, 799.137
1031.423, 737.988
1032.669, 786.869
1033.915, 331.762
1035.161, 513.668
1036.406, 270.597
1037.651, 124.538
1038.896, 328.496
1040.141, 33.534
1041.386, 166.440
1042.630, 210.479
1043.874, 125.470
1045.118, 214.552
1046.362, 69.412
1047.606, 11.383
1048.849, 189.667
1050.092, 79.073
1051.336, 63.977
1052.578, 42.049
1053.821, 89.868
1055.064, 220.201
1056.306, 39.688
1057.548, 22.425
1058.790, 155.551
1060.032, 138.285
1061.273, 199.843
1062.515, 4.013
1063.756, 24.506
1064.997, 318.674
1066.237, 7.877
1067.478, 234.093
1068.718, 310.322
1069.959, 121.576
1071.199, 556.842
1072.438, 313.121
1073.678, 482.413
1074.918, 722.718
1076.157, 517.059
1077.396, 859.412
1078.635, 939.779
1079.873, 785.405
1081.112, 1176.839
1082.350, 764.285
1083.588, 835.269
1084.826, 1007.762
1086.064, 618.271
1087.301, 915.791
1088.539, 833.324
1089.776, 827.872
1091.013, 1244.431
1092.250, 985.033
1093.486, 1361.647
1094.723, 1535.272
1095.959, 1440.914
1097.195, 1992.567
1098.431, 2091.238
1099.666, 2253.921
1100.902, 2972.617
1102.137, 2914.342
1103.372, 3446.084
1104.607, 3873.855
1105.842, 3732.639
1107.076, 4125.437
1108.311, 3738.256
1109.545, 3583.086
1110.779, 3470.948
1112.012, 2762.829
1113.246, 2699.724
1114.479, 2259.658
1115.712, 1901.605
1116.945, 1886.573
1118.178, 1522.576
1119.411, 1435.591
1120.643, 1468.642
1121.875, 929.704
1123.108, 1155.790
1124.339, 996.893
1125.571, 863.006
1126.802, 973.152
1128.034, 550.310
1129.265, 680.479
1130.496, 693.667
1131.727, 431.866
1132.957, 589.111
1134.187, 399.362
1135.418, 319.625
1136.648, 535.900
1137.877, 119.186
1139.107, 289.510
1140.336, 234.846
1141.566, 75.193
1142.795, 325.569
1144.023, 99.938
1145.252, 78.317
1146.480, 351.707
1147.709, 11.894
1148.937, 248.511
1150.165, 289.926
1151.392, 34.649
1152.620, 270.773
1153.847, 126.204
1155.074, 162.645
1156.301, 368.502
1157.528, 76.960
1158.755, 407.427
1159.981, 407.159
1161.207, 161.641
1162.433, 549.130
1163.659, 383.627
1164.885, 448.132
1166.110, 736.070
1167.336, 485.590
1168.561, 895.116
1169.786, 928.648
1171.010, 808.188
1172.235, 1332.734
1173.459, 1106.287
1174.683, 1192.847
1175.907, 1302.412
1177.131, 980.983
1178.355, 1172.561
1179.578, 974.145
1180.801, 720.733
1182.024, 960.329
1183.247, 553.929
1184.470, 479.534
1185.692, 630.202
1186.915, 335.816
1188.137, 490.602
1189.359, 429.977
1190.580, 233.605
1191.802, 458.262
1193.023, 112.416
1194.244, 117.794
1195.465, 325.520
1196.686, 1.744
1197.907, 357.193
1199.127, 174.625
1200.347, 87.282
1201.567, 428.734
1202.787, 43.505
1204.007, 148.115
1205.226, 283.787
1206.446, 40.438
1207.665, 211.465
1208.884, 233.691
1210.102, 49.697
1211.321, 366.970
1212.539, 25.093
1213.758, 129.765
1214.976, 344.441
1216.193, 6.933
1217.411, 318.613
1218.628, 126.299
1219.846, 81.111
1221.063, 363.802
1222.280, 78.032
1223.496, 223.729
1224.713, 299.428
1225.929, 98.879
1227.145, 330.770
1228.361, 286.424
1229.577, 52.632
1230.793, 448.994
1232.008, 69.904
1233.223, 186.693
1234.438, 463.326
1235.653, 104.343
1236.868, 416.988
1238.082, 374.639
1239.297, 127.414
1240.511, 540.076
1241.725, 122.743
1242.938, 233.603
1244.152, 444.281
1245.365, 68.964
1246.578, 342.652
1247.791, 373.346
1249.004, 133.867
1250.217, 503.570
1251.429, 290.278
1252.642, 182.256
1253.854, 546.973
1255.066, 167.694
1256.277, 355.741
1257.489, 431.470
1258.700, 57.381
1259.911, 405.117
1261.122, 350.856
1262.333, 285.435
1263.544, 499.182
1264.754, 110.931
1265.964, 395.210
1267.174, 572.966
1268.384, 170.693
1269.594, 588.404
1270.803, 287.117
1272.013, 188.842
1273.222, 571.549
1274.431, 190.258
1275.640, 307.411
1276.848, 573.124
1278.057, 46.839
1279.265, 375.007
1280.473, 397.726
1281.681, 94.445
1282.888, 408.167
1284.096, 157.813
1285.303, 138.515
1286.510, 351.158
1287.717, 54.783
1288.924, 203.395
1290.131, 364.007
1291.337, 63.568
1292.543, 522.084
1293.749, 256.248
1294.955, 93.756
1296.161, 527.222
1297.366, 101.442
1298.571, 317.880
1299.777, 346.314
1300.981, 63.298
1302.186, 339.980
1303.391, 254.254
1304.595, 28.521
1305.799, 323.680
1307.003, 184.872
1308.207, 189.059
1309.411, 451.238
1310.614, 1.408
1311.818, 400.565
1313.021, 425.715
1314.224, 184.849
1315.426, 532.972
1316.629, 298.085
1317.831, 262.187
1319.033, 633.276
1320.235, 213.346
1321.437, 388.405
1322.639, 421.434
1323.840, 152.451
1325.042, 419.455
1326.243, 230.448
1327.444, 151.408
1328.644, 413.348
1329.845, 78.272
1331.045, 143.182
1332.245, 265.076
1333.445, 161.042
1334.645, 275.775
1335.845, 175.580
1337.044, 23.392
1338.244, 320.189
1339.443, 10.017
1340.642, 77.758
1341.840, 335.327
1343.039, 1.904
1344.237, 167.849
1345.435, 227.592
1346.633, 86.660
1347.831, 288.050
1349.029, 130.756
1350.226, 68.545
1351.424, 369.121
1352.621, 23.934
1353.818, 188.612
1355.014, 369.923
1356.211, 61.402
1357.407, 206.249
1358.604, 215.180
1359.800, 19.165
1360.995, 322.482
1362.191, 164.687
1363.387, 79.348
1364.582, 470.020
1365.777, 62.096
1366.972, 208.577
1368.167, 411.252
1369.361, 132.769
1370.556, 327.655
1371.750, 247.797
1372.944, 60.556
1374.138, 244.531
1375.331, 42.459
1376.525, 70.246
1377.718, 454.987
1378.911, 30.723
1380.104, 296.458
1381.297, 380.189
1382.490, 87.918
1383.682, 379.644
1384.874, 172.362
1386.066, 76.074
1387.258, 415.781
1388.450, 145.481
1389.641, 181.176
1390.833, 529.865
1392.024, 18.542
1393.215, 244.204
1394.406, 393.854
1395.596, 68.499
1396.787, 461.138
1397.977, 260.764
1399.167, 59.369
1400.357, 475.970
1401.547, 96.566
1402.736, 167.156
1403.925, 487.718
1405.115, 25.297
1406.304, 356.872
1407.492, 329.450
1408.681, 9.033
1409.870, 533.623
1411.058, 253.073
1412.246, 171.237
1413.434, 511.703
1414.622, 142.171
1415.809, 236.672
1416.997, 547.123
1418.184, 7.578
1419.371, 387.036
1420.558, 443.499
1421.744, 54.967
1422.931, 588.443
1424.117, 267.926
1425.303, 243.332
1426.489, 652.715
1427.675, 127.992
1428.861, 302.458
1430.046, 579.934
1431.231, 205.288
1432.416, 506.500
1433.601, 564.842
1434.786, 264.770
1435.970, 814.752
1437.155, 603.676
1438.339, 318.964
1439.523, 964.707
1440.707, 634.421
1441.890, 764.896
1443.074, 1094.169
1444.257, 635.583
1445.440, 1044.873
1446.623, 1009.726
1447.806, 731.968
1448.989, 1298.270
1450.171, 964.263
1451.353, 901.934
1452.535, 1353.375
1453.717, 928.135
1454.899, 1166.812
1456.080, 1396.531
1457.262, 774.377
1458.443, 1281.734
1459.624, 1199.211
1460.805, 674.903
1461.985, 1142.813
1463.166, 886.657
1464.346, 713.358
1465.526, 1058.061
1466.706, 597.650
1467.886, 670.173
1469.065, 936.394
1470.245, 382.163
1471.424, 658.044
1472.603, 849.966
1473.782, 338.775
1474.960, 706.734
1476.139, 639.712
1477.317, 278.994
1478.495, 777.269
1479.673, 400.692
1480.851, 419.134
1482.029, 820.241
1483.206, 287.634
1484.383, 513.008
1485.560, 616.343
1486.737, 167.635
1487.914, 558.981
1489.091, 431.338
1490.267, 175.779
1491.443, 461.402
1492.619, 249.195
1493.795, 33.203
1494.971, 523.571
1496.146, 117.187
1497.322, 144.084
1498.497, 318.280
1499.672, 5.805
1500.846, 351.634
1502.021, 309.782
1503.196, 11.670
1504.370, 413.366
1505.544, 193.977
1506.718, 46.639
1507.892, 467.449
1509.065, 220.600
1510.238, 48.476
1511.412, 492.279
1512.585, 24.150
1513.758, 267.351
1514.930, 404.911
1516.103, 0.921
1517.275, 0.000
##END=



