##NAMES=Descloizite
##RRUFFID=R050037
##IDEAL CHEMISTRY=Pb^2+^Zn^2+^V^5+^O_4_(OH)
##LOCALITY=Berg Aukas mine, Namibia
##OWNER=RRUFF
##SOURCE=Eugene Schlepp
##DESCRIPTION=Group of brown thin tabular single crystals
##STATUS=The identification of this mineral has been confirmed by X-ray diffraction and chemical analysis
##URL=rruff.info/R050037
##MEASURED CHEMISTRY=Pb_1.00_(Zn_0.98_Cu_0.02_)_Σ=1_((V_0.98_As_0.02_)_Σ=1_O_4_)(OH) ; OH estimated by difference and stoichiometry
##PIN_ID=L00538
##ORIENTATION=Laser parallel to -b* (0 -1 0). Fiducial mark perpendicular to laser is parallel to c [0 0 1]
64.81000, 0.0000000E+00
66.04600, 33.87270
67.28200, 27.43931
68.51800, 101.4250
69.75400, 122.8148
70.98900, 198.0947
72.22500, 166.2195
73.46000, 172.2009
74.69500, 168.2915
75.93000, 130.8231
77.16500, 62.40349
78.40000, 106.0010
79.63400, 73.32730
80.86900, 11.29564
82.10300, 43.17883
83.33700, 26.17578
84.57100, 25.77219
85.80500, 37.04999
87.03800, 31.09271
88.27200, 4.978638
89.50500, 75.22220
90.73800, 153.4479
91.97100, 327.6438
93.20400, 578.7617
94.43700, 824.7586
95.67000, 1199.596
96.90200, 1774.241
98.13400, 2448.662
99.36600, 3386.830
100.5980, 4723.722
101.8300, 6077.315
103.0620, 7913.569
104.2930, 10245.43
105.5250, 12801.87
106.7560, 15360.84
107.9870, 18082.31
109.2180, 20355.25
110.4490, 20785.65
111.6790, 19634.49
112.9100, 17193.77
114.1400, 13731.45
115.3700, 10513.55
116.6000, 8127.045
117.8300, 6802.934
119.0600, 5711.206
120.2900, 5376.856
121.5190, 5024.879
122.7480, 5333.265
123.9770, 5493.013
125.2060, 5988.113
126.4350, 6375.562
127.6640, 7218.355
128.8920, 8200.488
130.1210, 9535.956
131.3490, 10815.76
132.5770, 12276.88
133.8050, 13920.34
135.0330, 15866.11
136.2600, 17610.21
137.4880, 19079.62
138.7150, 20528.31
139.9420, 21712.10
141.1690, 22574.98
142.3960, 22990.95
143.6230, 23041.02
144.8490, 22585.14
146.0760, 21602.37
147.3020, 20165.67
148.5280, 18706.03
149.7540, 16758.49
150.9800, 15214.09
152.2050, 13566.85
153.4310, 12129.76
154.6560, 10725.84
155.8810, 9545.091
157.1060, 8507.511
158.3310, 7463.108
159.5560, 6831.882
160.7800, 6102.834
162.0050, 5447.968
163.2290, 5082.282
164.4530, 4657.780
165.6770, 4349.462
166.9010, 4031.329
168.1250, 3719.379
169.3480, 3508.613
170.5720, 3270.032
171.7950, 3004.634
173.0180, 3006.419
174.2410, 2843.386
175.4640, 2651.533
176.6860, 2629.859
177.9090, 2478.365
179.1310, 2492.046
180.3530, 2385.903
181.5750, 2665.936
182.7970, 2779.142
184.0190, 3003.520
185.2400, 3300.070
186.4620, 3556.789
187.6830, 3860.677
188.9040, 4215.741
190.1250, 4459.991
191.3460, 4740.413
192.5660, 4615.003
193.7870, 4309.762
195.0070, 3870.685
196.2270, 3439.778
197.4470, 2909.042
198.6670, 2617.462
199.8870, 2334.054
201.1060, 2031.809
202.3260, 1794.739
203.5450, 1694.874
204.7640, 1511.228
205.9830, 1409.752
207.2020, 1341.463
208.4200, 1190.412
209.6390, 1036.578
210.8570, 878.9718
212.0750, 806.5660
213.2940, 836.0261
214.5110, 705.0271
215.7290, 669.0543
216.9470, 677.0573
218.1640, 624.9391
219.3810, 548.9705
220.5990, 584.8645
221.8150, 564.8020
223.0320, 527.5549
224.2490, 549.3931
225.4650, 475.9738
226.6820, 458.8035
227.8980, 358.8492
229.1140, 413.7494
230.3300, 384.5857
231.5460, 320.1895
232.7610, 339.8727
233.9770, 400.2717
235.1920, 445.6084
236.4070, 427.2046
237.6220, 339.9976
238.8370, 436.9856
240.0520, 400.1652
241.2660, 344.5195
242.4810, 372.0579
243.6950, 388.7725
244.9090, 368.6510
246.1230, 383.6951
247.3370, 354.8975
248.5500, 312.2543
249.7640, 341.7664
250.9770, 347.4207
252.1900, 295.2227
253.4030, 431.1774
254.6160, 386.2731
255.8290, 359.5117
257.0410, 471.8958
258.2530, 466.4133
259.4660, 546.0839
260.6780, 547.8855
261.8900, 447.8212
263.1010, 619.8910
264.3130, 537.0872
265.5250, 717.4200
266.7360, 643.8861
267.9470, 778.4808
269.1580, 863.1892
270.3690, 963.0093
271.5800, 1022.947
272.7900, 1132.999
274.0010, 1245.165
275.2110, 1386.440
276.4210, 1536.825
277.6310, 1638.315
278.8410, 1842.908
280.0500, 2052.601
281.2600, 2365.393
282.4690, 2689.056
283.6780, 3067.260
284.8870, 3518.333
286.0960, 3984.499
287.3050, 4563.757
288.5130, 5381.112
289.7220, 6171.554
290.9300, 7240.091
292.1380, 8502.439
293.3460, 9905.760
294.5540, 11368.25
295.7610, 13291.14
296.9690, 14839.13
298.1760, 16880.20
299.3830, 18534.36
300.5900, 19914.61
301.7970, 20578.95
303.0040, 20980.37
304.2100, 20075.88
305.4170, 18734.47
306.6230, 16735.15
307.8290, 14777.91
309.0350, 12723.74
310.2410, 10858.90
311.4460, 9381.312
312.6520, 7987.978
313.8570, 6837.144
315.0620, 6217.906
316.2670, 5678.653
317.4720, 5204.048
318.6770, 4907.515
319.8810, 4851.543
321.0860, 4722.153
322.2900, 4718.215
323.4940, 4756.984
324.6980, 4773.458
325.9020, 4855.124
327.1050, 5082.752
328.3090, 5341.785
329.5120, 5741.881
330.7150, 6076.035
331.9180, 6741.111
333.1210, 7506.388
334.3240, 8078.261
335.5260, 8873.578
336.7290, 9988.033
337.9310, 10908.44
339.1330, 11722.39
340.3350, 12348.76
341.5370, 12928.22
342.7380, 12943.08
343.9400, 12763.91
345.1410, 12071.06
346.3420, 10983.49
347.5430, 10121.33
348.7440, 8803.735
349.9450, 7766.289
351.1450, 6712.733
352.3460, 6183.071
353.5460, 5465.140
354.7460, 5222.935
355.9460, 4898.520
357.1460, 4526.641
358.3450, 4509.468
359.5450, 4500.013
360.7440, 4374.086
361.9430, 4198.150
363.1420, 4259.928
364.3410, 4103.067
365.5400, 4110.104
366.7380, 4102.377
367.9370, 4286.490
369.1350, 4459.930
370.3330, 4839.537
371.5310, 5427.265
372.7280, 6078.018
373.9260, 6838.440
375.1230, 7818.265
376.3210, 9026.520
377.5180, 10580.91
378.7150, 12333.90
379.9120, 14452.42
381.1080, 16980.29
382.3050, 19526.94
383.5010, 22147.65
384.6970, 24920.46
385.8930, 26813.47
387.0890, 27681.51
388.2850, 27681.60
389.4810, 25850.84
390.6760, 22628.31
391.8710, 19487.60
393.0660, 16020.85
394.2610, 12892.91
395.4560, 10371.74
396.6510, 8227.385
397.8450, 6499.851
399.0400, 5229.239
400.2340, 4239.854
401.4280, 3382.063
402.6220, 2884.553
403.8150, 2264.204
405.0090, 1909.940
406.2020, 1595.349
407.3960, 1352.283
408.5890, 1143.078
409.7820, 950.5022
410.9740, 811.2440
412.1670, 690.9719
413.3600, 527.7529
414.5520, 482.9786
415.7440, 405.2224
416.9360, 332.3848
418.1280, 270.3755
419.3200, 307.2031
420.5110, 219.7588
421.7020, 257.1777
422.8940, 259.2012
424.0850, 238.1298
425.2760, 233.8665
426.4660, 286.6243
427.6570, 306.4532
428.8470, 364.2274
430.0380, 458.3237
431.2280, 465.7051
432.4180, 593.1544
433.6080, 650.8499
434.7970, 739.6982
435.9870, 722.0037
437.1760, 711.5627
438.3650, 625.9846
439.5540, 523.5704
440.7430, 399.4358
441.9320, 427.7314
443.1210, 337.8525
444.3090, 244.2303
445.4970, 201.3505
446.6850, 134.0646
447.8730, 61.40198
449.0610, 93.62317
450.2490, 25.56396
451.4360, 68.38123
452.6240, 17.10388
453.8110, 25.64111
454.9980, 66.52844
456.1850, 11.59338
457.3710, 29.33643
458.5580, 24.75110
459.7440, 16.26453
460.9310, 14.65747
462.1170, 25.40417
463.3030, 9.349365
464.4880, 19.23792
465.6740, 21.35504
466.8590, 27.55621
468.0450, 30.79498
469.2300, 26.68481
470.4150, 6.148560
471.6000, 19.09332
472.7840, 23.73798
473.9690, 54.37640
475.1530, 27.90509
476.3370, 17.95288
477.5210, 27.73260
478.7050, 10.95526
479.8890, 88.04602
481.0730, 35.69733
482.2560, 100.1382
483.4390, 62.27032
484.6220, 102.8796
485.8050, 3.779480
486.9880, 4.241089
488.1710, 51.98053
489.3530, 74.77893
490.5360, 132.3776
491.7180, 64.98358
492.9000, 111.7589
494.0820, 19.40833
495.2630, 132.5619
496.4450, 76.81659
497.6260, 88.14453
498.8080, 43.50244
499.9890, 35.96991
501.1700, 95.49396
502.3500, 1.082886
503.5310, 49.57050
504.7110, 42.27582
505.8920, 46.06006
507.0720, 24.91162
508.2520, 8.829712
509.4320, 3.679749
510.6110, 55.24634
511.7910, 22.27930
512.9700, 54.43024
514.1490, 36.66156
515.3280, 44.96484
516.5070, 17.25507
517.6860, 22.01318
518.8650, 11.78754
520.0430, 29.60577
521.2210, 3.955200
522.3990, 23.28381
523.5770, 33.84613
524.7550, 32.93146
525.9330, 16.87006
527.1100, 34.11304
528.2870, 16.07489
529.4650, 18.06927
530.6420, 0.1258540
531.8180, 14.69836
532.9950, 19.37665
534.1720, 3.996582
535.3480, 55.54993
536.5240, 14.05670
537.7000, 14.49933
538.8760, 23.86646
540.0520, 8.172913
541.2270, 10.58795
542.4030, 33.57336
543.5780, 54.32227
544.7530, 26.68042
545.9280, 7.622437
547.1030, 2.505676
548.2780, 24.29047
549.4520, 22.97638
550.6260, 16.33057
551.8010, 4.768799
552.9750, 58.71448
554.1480, 58.14575
555.3220, 23.52448
556.4960, 23.83795
557.6690, 26.08612
558.8420, 30.26965
560.0150, 34.39020
561.1880, 41.37628
562.3610, 45.44891
563.5340, 57.38678
564.7060, 61.27844
565.8780, 69.11273
567.0500, 68.89551
568.2220, 66.62665
569.3940, 69.30554
570.5660, 57.93262
571.7370, 49.50513
572.9090, 87.02051
574.0800, 41.48755
575.2510, 67.89490
576.4220, 52.25018
577.5920, 81.54932
578.7630, 89.79938
579.9330, 80.00153
581.1040, 67.15430
582.2740, 27.25519
583.4440, 57.29144
584.6130, 92.27362
585.7830, 30.20856
586.9520, 72.08069
588.1220, 48.90253
589.2910, 104.6686
590.4600, 32.38928
591.6290, 65.04871
592.7970, 41.65704
593.9660, 1.974487
595.1340, 130.0483
596.3020, 22.89783
597.4700, 117.2679
598.6380, 12.07098
599.8060, 46.90466
600.9730, 72.11212
602.1410, 47.27289
603.3080, 51.89166
604.4750, 6.049377
605.6420, 6.025513
606.8090, 36.48389
607.9750, 18.71503
609.1420, 72.76422
610.3080, 111.8732
611.4740, 79.59595
612.6400, 95.27637
613.8060, 35.91638
614.9720, 48.64728
616.1370, 53.19250
617.3020, 16.15588
618.4680, 78.68402
619.6330, 17.09119
620.7970, 28.55115
621.9620, 70.48096
623.1270, 35.99390
624.2910, 95.43726
625.4550, 30.48822
626.6190, 13.58508
627.7830, 60.36865
628.9470, 82.87305
630.1110, 22.98572
631.2740, 9.532776
632.4370, 10.93915
633.6000, 2.539185
634.7630, 38.09412
635.9260, 84.99817
637.0890, 61.18341
638.2510, 0.5833130
639.4140, 33.47705
640.5760, 89.69501
641.7380, 11.77435
642.9000, 58.25806
644.0610, 1.330261
645.2230, 43.71997
646.3840, 9.781616
647.5460, 44.02209
648.7070, 9.037292
649.8670, 71.85852
651.0280, 49.98218
652.1890, 24.75085
653.3490, 14.39264
654.5090, 40.04114
655.6700, 8.937378
656.8300, 16.71381
657.9890, 24.96552
659.1490, 15.88306
660.3080, 24.31451
661.4680, 29.44635
662.6270, 19.51239
663.7860, 14.54205
664.9450, 29.61078
666.1030, 38.24811
667.2620, 65.08398
668.4200, 26.43018
669.5790, 52.18347
670.7370, 9.332642
671.8940, 54.94379
673.0520, 28.40265
674.2100, 26.92499
675.3670, 107.6544
676.5240, 89.62384
677.6810, 106.7908
678.8380, 116.1532
679.9950, 133.9426
681.1520, 173.8428
682.3080, 183.4976
683.4650, 268.8833
684.6210, 293.1176
685.7770, 350.2780
686.9320, 469.7748
688.0880, 479.7556
689.2440, 538.8857
690.3990, 669.3955
691.5540, 842.5957
692.7090, 891.8174
693.8640, 974.9940
695.0190, 979.7339
696.1730, 1151.465
697.3280, 1269.288
698.4820, 1472.292
699.6360, 1529.464
700.7900, 1575.913
701.9440, 1721.505
703.0970, 1879.496
704.2510, 1996.590
705.4040, 2023.882
706.5570, 2036.161
707.7100, 2010.344
708.8630, 1905.647
710.0150, 1822.612
711.1680, 1754.316
712.3200, 1550.966
713.4720, 1409.383
714.6240, 1279.655
715.7760, 1014.479
716.9280, 925.0608
718.0790, 873.7803
719.2310, 708.3541
720.3820, 687.6562
721.5330, 598.5315
722.6840, 525.5879
723.8350, 466.3966
724.9850, 470.4828
726.1360, 439.9774
727.2860, 369.8481
728.4360, 432.8340
729.5860, 447.1057
730.7360, 396.5009
731.8850, 346.2080
733.0350, 442.9701
734.1840, 417.0931
735.3330, 456.1991
736.4820, 482.3745
737.6310, 505.7384
738.7800, 604.2802
739.9280, 601.1433
741.0760, 656.4775
742.2250, 738.0105
743.3730, 760.8938
744.5200, 852.6045
745.6680, 915.8337
746.8160, 1123.391
747.9630, 1234.599
749.1100, 1371.075
750.2570, 1500.452
751.4040, 1615.974
752.5510, 1883.570
753.6980, 2107.607
754.8440, 2410.779
755.9900, 2760.864
757.1360, 3071.484
758.2820, 3560.792
759.4280, 3977.731
760.5740, 4592.453
761.7190, 5435.837
762.8640, 6237.678
764.0100, 7388.221
765.1550, 8768.435
766.2990, 10494.36
767.4440, 12547.32
768.5890, 15057.06
769.7330, 18115.76
770.8770, 21548.61
772.0210, 25606.30
773.1650, 30030.48
774.3090, 34955.71
775.4520, 39271.99
776.5960, 42668.27
777.7390, 45190.63
778.8820, 45271.04
780.0250, 43413.30
781.1670, 39454.79
782.3100, 34838.30
783.4520, 29914.87
784.5950, 25841.48
785.7370, 21888.14
786.8790, 18719.70
788.0210, 16300.97
789.1620, 14304.67
790.3040, 12723.48
791.4450, 11477.32
792.5860, 10401.22
793.7270, 9769.065
794.8680, 9380.043
796.0090, 8911.063
797.1490, 8419.950
798.2890, 8191.763
799.4300, 7847.533
800.5700, 7639.508
801.7090, 7324.599
802.8490, 7112.527
803.9890, 6831.843
805.1280, 6752.105
806.2670, 6605.233
807.4060, 6512.682
808.5450, 6614.086
809.6840, 6731.614
810.8230, 6916.181
811.9610, 7366.791
813.0990, 7765.432
814.2370, 8207.113
815.3750, 8795.015
816.5130, 9411.785
817.6510, 10177.59
818.7880, 10865.45
819.9250, 11448.35
821.0630, 11623.31
822.1990, 11963.30
823.3360, 12257.35
824.4730, 12638.43
825.6090, 13160.74
826.7460, 13740.92
827.8820, 14229.15
829.0180, 15090.43
830.1540, 16083.80
831.2890, 17281.27
832.4250, 19100.00
833.5600, 21705.34
834.6960, 25082.32
835.8310, 29739.83
836.9660, 35698.39
838.1000, 43987.99
839.2350, 54907.62
840.3690, 69258.66
841.5030, 87040.78
842.6380, 109650.6
843.7710, 136899.4
844.9050, 167097.7
846.0390, 197523.9
847.1720, 221705.4
848.3060, 232200.1
849.4390, 221031.4
850.5720, 191406.2
851.7040, 152068.0
852.8370, 114313.2
853.9700, 84555.32
855.1020, 63102.09
856.2340, 47471.86
857.3660, 36386.59
858.4980, 29078.11
859.6300, 23483.41
860.7610, 19316.12
861.8920, 16582.05
863.0240, 14286.45
864.1550, 12506.87
865.2850, 11106.73
866.4160, 9818.407
867.5470, 8804.385
868.6770, 8056.281
869.8070, 7250.300
870.9370, 6626.313
872.0670, 6132.667
873.1970, 5633.792
874.3270, 5254.637
875.4560, 5008.409
876.5850, 4618.658
877.7140, 4304.179
878.8430, 3937.031
879.9720, 3705.969
881.1010, 3567.262
882.2290, 3246.899
883.3570, 3091.794
884.4860, 2897.839
885.6140, 2796.723
886.7410, 2696.908
887.8690, 2612.315
888.9960, 2571.053
890.1240, 2547.235
891.2510, 2511.688
892.3780, 2503.896
893.5050, 2520.116
894.6320, 2526.637
895.7580, 2516.064
896.8840, 2415.415
898.0110, 2298.792
899.1370, 2248.191
900.2620, 2176.617
901.3880, 2091.069
902.5140, 1950.545
903.6390, 1930.043
904.7640, 1788.566
905.8890, 1719.113
907.0140, 1551.684
908.1390, 1397.280
909.2640, 1317.898
910.3880, 1187.657
911.5120, 1130.318
912.6360, 1016.999
913.7600, 904.7019
914.8840, 832.4250
916.0080, 740.5985
917.1310, 819.4333
918.2550, 630.2186
919.3780, 664.0231
920.5010, 575.8468
921.6230, 424.6953
922.7460, 447.5634
923.8690, 450.4622
924.9910, 499.3848
926.1130, 382.3257
927.2350, 331.2844
928.3570, 322.2609
929.4790, 397.2555
930.6000, 296.2673
931.7220, 345.2960
932.8430, 274.3427
933.9640, 236.4073
935.0850, 245.4902
936.2050, 159.5905
937.3260, 207.7072
938.4460, 224.8412
939.5660, 195.9905
940.6870, 172.1602
941.8060, 228.3477
942.9260, 139.5498
944.0460, 112.7666
945.1650, 139.1184
946.2840, 86.36401
947.4040, 42.62280
948.5220, 69.89490
949.6410, 11.82019
950.7600, 56.47510
951.8780, 46.78259
952.9970, 57.10242
954.1150, 30.43408
955.2330, 76.77734
956.3500, 51.13196
957.4680, 3.497559
958.5860, 33.87354
959.7030, 9.740112
960.8200, 26.65417
961.9370, 40.05847
963.0540, 30.47241
964.1710, 2.104248
965.2870, 6.109741
966.4030, 14.29114
967.5200, 29.79108
968.6360, 18.34918
969.7510, 5.145020
970.8670, 5.968018
971.9830, 5.840515
973.0980, 4.523804
974.2130, 12.00195
975.3280, 12.52411
976.4430, 27.04395
977.5580, 6.432190
978.6730, 13.08539
979.7870, 50.60321
980.9010, 88.13788
982.0150, 54.70868
983.1290, 47.29858
984.2430, 15.89551
985.3560, 34.28503
986.4700, 40.33423
987.5830, 18.03491
988.6960, 63.59204
989.8090, 27.24811
990.9220, 5.916443
992.0350, 19.58801
993.1470, 32.26898
994.2590, 71.96613
995.3720, 3.698547
996.4830, 10.56537
997.5950, 34.83594
998.7070, 16.89136
999.8180, 7.368896
1000.930, 33.37274
1002.041, 13.13605
1003.152, 47.91193
1004.263, 6.283813
1005.373, 67.52344
1006.484, 11.37146
1007.594, 56.23212
1008.704, 38.87152
1009.815, 60.02527
1010.924, 62.96136
1012.034, 33.93945
1013.144, 33.94568
1014.253, 54.97577
1015.362, 9.046326
1016.471, 12.13422
1017.580, 65.75806
1018.689, 43.35156
1019.797, 18.49799
1020.906, 63.33130
1022.014, 20.83441
1023.122, 50.97351
1024.230, 26.77954
1025.338, 25.42084
1026.445, 10.34882
1027.553, 5.771973
1028.660, 8.846802
1029.767, 64.57483
1030.874, 54.29932
1031.981, 101.0195
1033.088, 98.73511
1034.194, 110.4598
1035.300, 86.15411
1036.406, 112.8608
1037.512, 136.5763
1038.618, 109.2863
1039.724, 66.99072
1040.829, 88.68933
1041.935, 187.3834
1043.040, 48.07214
1044.145, 134.7533
1045.250, 108.4293
1046.354, 72.09943
1047.459, 79.76703
1048.563, 40.42834
1049.667, 56.85303
1050.771, 116.7200
1051.875, 94.35596
1052.979, 84.98444
1054.082, 118.6053
1055.186, 114.2188
1056.289, 114.8243
1057.392, 146.4219
1058.495, 149.0118
1059.598, 121.5937
1060.700, 85.16986
1061.803, 109.7380
1062.905, 99.29810
1064.007, 176.8492
1065.109, 116.3917
1066.210, 130.9260
1067.312, 172.4510
1068.413, 105.9697
1069.515, 84.47894
1070.616, 109.9785
1071.717, 205.4686
1072.817, 179.9498
1073.918, 190.8088
1075.019, 132.2700
1076.119, 123.7216
1077.219, 76.39807
1078.319, 185.8272
1079.419, 212.2456
1080.518, 169.6531
1081.618, 180.0496
1082.717, 150.2638
1083.816, 141.6396
1084.915, 153.0083
1086.014, 164.3661
1087.113, 172.7127
1088.211, 215.0479
1089.309, 123.3714
1090.408, 168.6786
1091.506, 236.9789
1092.603, 163.1024
1093.701, 143.3928
1094.799, 213.6710
1095.896, 163.9374
1096.993, 151.2122
1098.090, 189.3517
1099.187, 152.2833
1100.284, 204.6028
1101.380, 95.31604
1102.477, 165.5563
1103.573, 142.7427
1104.669, 141.0904
1105.765, 153.2850
1106.860, 161.3995
1107.956, 136.3232
1109.051, 138.4972
1110.147, 153.6812
1111.242, 142.2737
1112.336, 143.5625
1113.431, 126.4133
1114.526, 125.0012
1115.620, 93.72937
1116.714, 77.13153
1117.809, 30.38379
1118.902, 163.2568
1119.996, 152.2451
1121.090, 113.6028
1122.183, 134.9686
1123.277, 94.39014
1124.370, 102.1792
1125.463, 141.2277
1126.555, 90.05084
1127.648, 95.60547
1128.740, 116.8068
1129.833, 93.74762
1130.925, 146.2089
1132.017, 121.8735
1133.109, 140.2865
1134.200, 148.7828
1135.292, 101.6329
1136.383, 169.4301
1137.474, 137.7698
1138.565, 143.4822
1139.656, 166.4808
1140.747, 93.24316
1141.837, 177.8302
1142.927, 109.0396
1144.018, 182.7840
1145.108, 197.6240
1146.197, 109.9879
1147.287, 166.1222
1148.377, 128.9315
1149.466, 171.6669
1150.555, 202.5264
1151.644, 87.81238
1152.733, 115.2681
1153.822, 153.3741
1154.910, 178.2870
1155.999, 107.6598
1157.087, 137.4557
1158.175, 132.1688
1159.263, 97.73450
1160.350, 126.5640
1161.438, 117.3119
1162.525, 89.90674
1163.613, 109.4586
1164.700, 81.14117
1165.787, 85.64423
1166.873, 122.3986
1167.960, 95.16840
1169.046, 102.6777
1170.133, 116.1769
1171.219, 97.66608
1172.305, 134.4750
1173.390, 87.09137
1174.476, 117.5192
1175.561, 140.2592
1176.647, 164.8615
1177.732, 116.2446
1178.817, 114.7670
1179.901, 181.7938
1180.986, 96.12128
1182.070, 117.8684
1183.155, 103.2456
1184.239, 95.61255
1185.323, 120.0593
1186.407, 132.4056
1187.490, 126.7731
1188.574, 64.24915
1189.657, 122.6550
1190.740, 101.6123
1191.823, 128.0601
1192.906, 127.1335
1193.988, 103.8105
1195.071, 96.17535
1196.153, 106.6893
1197.235, 57.96259
1198.317, 107.9172
1199.399, 82.16199
1200.481, 109.3895
1201.562, 130.7417
1202.644, 78.19354
1203.725, 20.48938
1204.806, 81.66357
1205.887, 92.04114
1206.967, 28.24371
1208.048, 76.26508
1209.128, 56.41467
1210.208, 114.5359
1211.289, 97.69037
1212.368, 85.88330
1213.448, 119.2916
1214.528, 61.27332
1215.607, 83.95874
1216.686, 86.63000
1217.765, 89.76160
1218.844, 91.84393
1219.923, 97.87933
1221.001, 56.02832
1222.080, 54.04395
1223.158, 59.42261
1224.236, 84.41925
1225.314, 79.51996
1226.392, 45.81635
1227.469, 55.94873
1228.547, 52.07794
1229.624, 90.02722
1230.701, 109.0668
1231.778, 50.17755
1232.855, 72.15979
1233.931, 33.25458
1235.008, 52.16235
1236.084, 21.06018
1237.160, 30.56689
1238.236, 40.70862
1239.312, 43.83191
1240.387, 68.81036
1241.463, 65.75592
1242.538, 80.12671
1243.613, 25.01331
1244.688, 45.90106
1245.763, 20.22046
1246.837, 86.79779
1247.912, 51.09650
1248.986, 119.1767
1250.060, 65.42004
1251.134, 85.28302
1252.208, 73.14465
1253.282, 36.00012
1254.355, 34.85443
1255.428, 19.87299
1256.501, 25.76764
1257.574, 8.282715
1258.647, 45.54877
1259.720, 107.5067
1260.792, 96.32635
1261.865, 53.13861
1262.937, 114.9578
1264.009, 10.76996
1265.081, 14.66040
1266.152, 24.46564
1267.224, 15.29437
1268.295, 16.72247
1269.366, 73.99005
1270.437, 19.79834
1271.508, 31.61530
1272.579, 61.44293
1273.649, 6.724548
1274.720, 83.10266
1275.790, 39.15466
1276.860, 75.99097
1277.930, 46.92139
1278.999, 59.82172
1280.069, 69.73035
1281.138, 17.43158
1282.208, 48.38214
1283.277, 19.19861
1284.345, 79.06598
1285.414, 31.99762
1286.483, 46.51117
1287.551, 27.30844
1288.619, 15.19385
1289.687, 29.98044
1290.755, 54.83401
1291.823, 69.60132
1292.890, 34.57074
1293.958, 25.31946
1295.025, 3.956726
1296.092, 40.18289
1297.159, 65.87781
1298.226, 95.55557
1299.292, 94.22464
1300.359, 16.88507
1301.425, 34.53409
1302.491, 43.22440
1303.557, 19.85495
1304.623, 32.56714
1305.688, 3.792511
1306.754, 39.80933
1307.819, 53.39246
1308.884, 80.96893
1309.949, 14.53760
1311.014, 82.09470
1312.078, 93.64343
1313.143, 43.18384
1314.207, 74.71524
1315.271, 57.23834
1316.335, 33.75287
1317.399, 43.49796
1318.462, 0.9938960
1319.526, 33.47589
1320.589, 28.97223
1321.652, 77.43512
1322.715, 40.88989
1323.778, 21.33594
1324.841, 57.82053
1325.903, 0.6605220
1326.965, 59.77911
1328.027, 63.13995
1329.089, 34.53818
1330.151, 21.92807
1331.213, 39.30896
1332.274, 65.29550
1333.336, 25.66226
1334.397, 53.02203
1335.458, 72.14014
1336.518, 60.07047
1337.579, 65.90070
1338.640, 54.46561
1339.700, 42.78778
1340.760, 16.10284
1341.820, 3.605103
1342.880, 27.66986
1343.939, 56.93628
1344.999, 45.19568
1346.058, 54.44720
1347.117, 90.19440
1348.176, 35.43234
1349.235, 146.6628
1350.294, 43.12167
1351.352, 69.07812
1352.411, 36.27148
1353.469, 10.54919
1354.527, 29.54587
1355.585, 28.68579
1356.642, 75.81561
1357.700, 40.01083
1358.757, 22.45697
1359.815, 49.89609
1360.872, 27.66763
1361.928, 70.62622
1362.985, 72.69916
1364.042, 64.45825
1365.098, 50.13474
1366.154, 48.11963
1367.210, 37.12396
1368.266, 47.55289
1369.322, 6.485901
1370.377, 71.55701
1371.433, 70.34705
1372.488, 86.32327
1373.543, 10.80283
1374.598, 70.21417
1375.652, 22.19440
1376.707, 9.315796
1377.761, 82.30627
1378.816, 81.29022
1379.870, 65.26773
1380.924, 60.23926
1381.977, 27.06622
1383.031, 51.71912
1384.084, 36.44409
1385.137, 78.05795
1386.190, 28.93350
1387.243, 86.86261
1388.296, 73.78314
1389.349, 56.66837
1390.401, 92.57611
1391.453, 39.03088
1392.505, 77.55533
1393.557, 53.20685
1394.609, 39.72473
1395.661, 73.26160
1396.712, 97.12036
1397.763, 82.69092
1398.814, 74.37839
1399.865, 59.21405
1400.916, 85.89252
1401.967, 15.71530
1403.017, 101.4333
1404.067, 30.23669
1405.117, 34.97467
1406.167, 34.75940
1407.217, 73.54224
1408.267, 104.5052
1409.316, 61.21628
1410.365, 34.68848
1411.414, 21.41946
1412.463, 3.011627
1413.512, 72.60840
1414.561, 26.08847
1415.609, 134.4105
1416.657, 28.89670
1417.706, 59.51678
1418.754, 11.16284
1419.801, 75.65884
1420.849, 7.930298
1421.896, 33.20306
1422.944, 0.5598140
1423.991, 53.15961
1425.038, 56.75201
1426.085, 48.33725
1427.131, 66.58521
1428.178, 28.00854
1429.224, 84.48279
1430.270, 21.74783
1431.316, 27.13327
1432.362, 35.72037
1433.407, 44.15085
1434.453, 43.63153
1435.498, 50.15408
1436.543, 71.31244
1437.588, 60.68198
1438.633, 111.3358
1439.678, 49.78458
1440.722, 69.27100
1441.767, 63.72232
1442.811, 1.051605
1443.855, 43.43808
1444.898, 44.26102
1445.942, 26.58191
1446.986, 49.86523
1448.029, 67.33820
1449.072, 50.71136
1450.115, 18.93060
1451.158, 10.38782
1452.201, 23.16461
1453.243, 11.34204
1454.285, 60.18329
1455.327, 57.61346
1456.369, 64.00415
1457.411, 61.73126
1458.453, 55.53632
1459.494, 54.84021
1460.536, 49.85175
1461.577, 28.22253
1462.618, 44.85669
1463.659, 1.497620
1464.700, 58.20770
1465.740, 44.80902
1466.780, 61.85333
1467.821, 31.95508
1468.861, 63.23676
1469.900, 66.77344
1470.940, 24.09039
1471.980, 6.493835
1473.019, 81.11365
1474.058, 19.56091
1475.097, 52.91162
1476.136, 49.86053
1477.175, 39.38440
1478.213, 48.26367
1479.252, 31.68781
1480.290, 21.25403
1481.328, 10.99677
1482.366, 1.210693
1483.403, 4.446716
1484.441, 11.84112
1485.478, 93.28650
1486.515, 7.630005
1487.552, 49.05182
1488.589, 39.39630
1489.626, 28.17493
1490.663, 32.24701
1491.699, 30.37384
1492.735, 35.34497
1493.771, 8.849731
1494.807, 5.252075
1495.843, 51.56799
1496.878, 54.71338
1497.914, 38.95349
1498.949, 67.21234
1499.984, 45.25610
1501.019, 1.923279
1502.054, 27.76678
1503.088, 64.13611
1504.122, 37.50128
1505.157, 2.218933
1506.191, 18.93793
1507.225, 55.29315
1508.258, 74.66016
1509.292, 45.02765
1510.325, 34.39075
1511.359, 10.75012
1512.392, 64.67029
1513.424, 35.98627
1514.457, 86.34552
1515.490, 92.61096
1516.522, 12.74408
1517.554, 75.21582
1518.586, 77.53784
1519.618, 77.84912
1520.650, 30.14496
1521.682, 85.44098
1522.713, 98.05292
1523.744, 72.35199
1524.775, 96.70471
1525.806, 33.05420
1526.837, 13.23224
1527.868, 4.548889
1528.898, 103.8701
1529.928, 79.22510
1530.958, 34.54773
1531.988, 90.96729
1533.018, 64.29053
1534.048, 57.57111
1535.077, 46.99957
1536.106, 38.39392
1537.135, 85.00610
1538.164, 39.00275
1539.193, 6.064331
1540.222, 30.11786
1541.250, 76.82990
1542.278, 20.90698
1543.306, 86.54004
1544.334, 118.5775
1545.362, 15.40601
1546.390, 97.59589
1547.417, 102.5833
1548.444, 113.5519
1549.471, 103.5642
1550.498, 113.5541
1551.525, 105.5342
1552.552, 109.5024
1553.578, 70.46375
1554.604, 116.4194
1555.630, 57.34076
1556.656, 99.27081
1557.682, 106.2812
1558.708, 74.54913
1559.733, 47.00397
1560.758, 17.51123
1561.784, 97.09314
1562.808, 3.840515
1563.833, 52.67065
1564.858, 22.25098
1565.882, 5.914063
1566.907, 40.68274
1567.931, 41.58691
1568.955, 81.66339
1569.978, 53.89911
1571.002, 84.28357
1572.025, 83.44171
1573.049, 64.94733
1574.072, 73.83350
1575.095, 83.43182
1576.118, 49.18842
1577.140, 23.68048
1578.163, 52.10773
1579.185, 0.0000000E+00
##END=



