##NAMES=Diopside
##RRUFFID=R050496
##IDEAL CHEMISTRY=CaMgSi_2_O_6_
##LOCALITY=New City Quarry, Riverside, Riverside County, Calfornia, USA
##OWNER=RRUFF
##SOURCE=California Institute of Technology
##DESCRIPTION=Aggregate of light green irregular grains
##STATUS=The identification of this mineral has been confirmed by X-ray diffraction and chemical analysis
##URL=rruff.info/R050496
##MEASURED CHEMISTRY=Ca(Mg_0.66_Fe_0.33_Mn_0.01_)(Si_0.95_Al_0.05_)_2_O_6_
##PIN_ID=M00901
##ORIENTATION=Laser parallel to (-1 0 -1). Fiducial mark perpendicular to laser is parallel to b [0 1 0]
101.9390, 0.0000000E+00
103.1740, 1.638184
104.4090, 3.710449
105.6440, 52.15332
106.8790, 125.4233
108.1140, 213.0972
109.3490, 323.3770
110.5830, 189.8633
111.8180, 142.9414
113.0520, 225.2417
114.2860, 315.5293
115.5200, 397.6401
116.7530, 542.9482
117.9870, 598.5664
119.2200, 527.4658
120.4530, 332.6475
121.6860, 207.1040
122.9190, 229.8252
124.1520, 265.8032
125.3850, 218.5386
126.6170, 355.5078
127.8490, 234.2036
129.0810, 185.1094
130.3130, 247.9326
131.5450, 277.1841
132.7770, 336.9604
134.0080, 365.9575
135.2390, 418.1606
136.4710, 515.5586
137.7020, 633.1387
138.9320, 802.8916
140.1630, 883.8022
141.3930, 899.8574
142.6240, 804.0449
143.8540, 568.3604
145.0840, 484.8418
146.3140, 352.4961
147.5440, 244.2988
148.7730, 201.2148
150.0020, 197.2163
151.2320, 45.30469
152.4610, 118.4775
153.6900, 81.73486
154.9180, 20.07324
156.1470, 45.49072
157.3750, 41.01514
158.6040, 87.44629
159.8320, 4.194824
161.0600, 11.09326
162.2870, 85.68652
163.5150, 187.5327
164.7420, 208.4434
165.9700, 218.4170
167.1970, 144.4512
168.4240, 266.5449
169.6510, 231.6953
170.8770, 98.90283
172.1040, 122.1646
173.3300, 140.4785
174.5560, 114.8457
175.7820, 79.25244
177.0080, 105.6445
178.2340, 157.0381
179.4590, 120.4424
180.6850, 195.8613
181.9100, 279.2993
183.1350, 171.7588
184.3600, 206.2412
185.5850, 213.8975
186.8090, 205.8784
188.0340, 179.4165
189.2580, 194.2207
190.4820, 160.1802
191.7060, 199.0996
192.9300, 188.5127
194.1530, 180.1289
195.3770, 164.8052
196.6000, 222.5469
197.8230, 187.3472
199.0460, 218.1841
200.2690, 195.0786
201.4910, 226.0391
202.7140, 215.0356
203.9360, 254.0674
205.1580, 268.1499
206.3800, 188.2603
207.6020, 144.3955
208.8240, 236.5552
210.0450, 33.74023
211.2670, 90.96191
212.4880, 172.2222
213.7090, 199.5088
214.9300, 209.8228
216.1510, 209.1611
217.3710, 214.5259
218.5920, 289.9150
219.8120, 332.3306
221.0320, 350.0469
222.2520, 299.2334
223.4720, 381.7197
224.6910, 358.2290
225.9110, 345.7617
227.1300, 384.3154
228.3490, 418.8921
229.5680, 418.4897
230.7870, 563.1094
232.0050, 494.7500
233.2240, 488.4111
234.4420, 554.0923
235.6600, 469.7935
236.8780, 452.4111
238.0960, 459.2563
239.3140, 303.0166
240.5310, 374.7949
241.7490, 245.5923
242.9660, 233.4082
244.1830, 171.2407
245.4000, 182.0908
246.6160, 232.9590
247.8330, 218.8433
249.0490, 236.7070
250.2660, 180.3921
251.4820, 261.7974
252.6980, 150.4316
253.9130, 132.1772
255.1290, 163.0195
256.3440, 174.9448
257.5600, 108.9438
258.7750, 231.0078
259.9900, 80.13184
261.2040, 173.3105
262.4190, 35.54053
263.6330, 90.81201
264.8480, 153.1221
266.0620, 42.46973
267.2760, 6.145020
268.4900, 69.27441
269.7030, 39.72803
270.9170, 35.78516
272.1300, 39.72852
273.3430, 57.27295
274.5560, 42.15381
275.7690, 52.44287
276.9820, 9.010254
278.1940, 19.43896
279.4070, 12.15869
280.6190, 12.21582
281.8310, 43.56396
283.0430, 22.34033
284.2550, 65.03711
285.4660, 20.75830
286.6770, 137.2593
287.8890, 86.61670
289.1000, 195.4067
290.3110, 208.9692
291.5210, 159.6294
292.7320, 214.4800
293.9420, 342.9604
295.1530, 428.8486
296.3630, 460.9004
297.5730, 547.2119
298.7830, 542.1533
299.9920, 558.7788
301.2020, 779.7529
302.4110, 715.7422
303.6200, 755.8701
304.8290, 877.2231
306.0380, 746.5654
307.2470, 995.5166
308.4550, 1054.917
309.6630, 1174.033
310.8720, 1290.163
312.0800, 1395.319
313.2880, 1588.489
314.4950, 1802.674
315.7030, 1989.881
316.9100, 2241.114
318.1170, 2517.362
319.3240, 2683.718
320.5310, 2951.343
321.7380, 3151.398
322.9450, 3346.691
324.1510, 3401.360
325.3570, 3430.745
326.5630, 3195.147
327.7690, 3062.575
328.9750, 2813.017
330.1810, 2656.485
331.3860, 2438.966
332.5910, 2174.451
333.7960, 1925.948
335.0010, 1835.620
336.2060, 1757.125
337.4110, 1528.639
338.6150, 1544.154
339.8200, 1551.681
341.0240, 1338.221
342.2280, 1330.771
343.4320, 1371.329
344.6350, 1346.897
345.8390, 1418.035
347.0420, 1517.059
348.2450, 1574.653
349.4480, 1638.255
350.6510, 1764.864
351.8540, 1952.482
353.0560, 2203.107
354.2590, 2205.739
355.4610, 2271.379
356.6630, 2172.025
357.8650, 1946.678
359.0670, 1915.338
360.2680, 1814.003
361.4700, 1503.676
362.6710, 1462.354
363.8720, 1480.037
365.0730, 1289.728
366.2740, 1244.423
367.4740, 1207.124
368.6750, 1123.831
369.8750, 1276.543
371.0750, 1166.260
372.2750, 1090.981
373.4750, 1237.708
374.6740, 1161.439
375.8740, 1329.175
377.0730, 1429.915
378.2720, 1498.659
379.4710, 1712.407
380.6700, 2032.159
381.8690, 2225.915
383.0670, 2696.675
384.2660, 3063.438
385.4640, 3364.204
386.6620, 3804.974
387.8600, 4308.747
389.0570, 4467.522
390.2550, 4621.302
391.4520, 4610.083
392.6490, 4117.868
393.8460, 3596.660
395.0430, 3085.465
396.2400, 2687.279
397.4370, 2208.102
398.6330, 1742.932
399.8290, 1294.770
401.0250, 1116.615
402.2210, 966.4653
403.4170, 659.3228
404.6130, 511.1851
405.8080, 428.0537
407.0030, 396.9272
408.1980, 299.8057
409.3930, 320.6890
410.5880, 172.5762
411.7830, 259.3828
412.9770, 47.27832
414.1720, 183.1777
415.3660, 210.2378
416.5600, 203.1440
417.7530, 103.0532
418.9470, 23.90137
420.1410, 143.8159
421.3340, 73.59668
422.5270, 51.13965
423.7200, 150.0635
424.9130, 58.78320
426.1060, 1.412109
427.2980, 73.51562
428.4900, 17.44580
429.6830, 12.62256
430.8750, 47.69678
432.0670, 31.20752
433.2580, 49.88477
434.4500, 13.31152
435.6410, 25.87744
436.8320, 8.242676
438.0240, 29.63330
439.2140, 2.510742
440.4050, 73.61279
441.5960, 40.27295
442.7860, 27.88525
443.9760, 77.94873
445.1670, 12.78369
446.3560, 33.34326
447.5460, 31.58740
448.7360, 37.62500
449.9250, 8.429199
451.1150, 0.3544920
452.3040, 56.30176
453.4930, 99.59229
454.6810, 52.30615
455.8700, 33.25293
457.0590, 142.4727
458.2470, 87.57666
459.4350, 102.6479
460.6230, 32.31836
461.8110, 24.06982
462.9980, 103.3496
464.1860, 142.5967
465.3730, 102.5103
466.5600, 10.45215
467.7470, 130.9858
468.9340, 143.2456
470.1210, 92.41895
471.3080, 130.7554
472.4940, 152.4932
473.6800, 148.9175
474.8660, 169.8535
476.0520, 162.0654
477.2380, 22.61572
478.4230, 152.4600
479.6090, 130.2842
480.7940, 131.1987
481.9790, 223.0107
483.1640, 204.6387
484.3490, 103.4375
485.5330, 72.22900
486.7180, 170.0146
487.9020, 113.7930
489.0860, 169.6890
490.2700, 160.5449
491.4540, 142.3018
492.6370, 126.0513
493.8210, 141.8291
495.0040, 228.5713
496.1870, 127.3062
497.3700, 241.0332
498.5530, 134.7520
499.7360, 215.4629
500.9180, 229.1655
502.1000, 167.8604
503.2830, 214.5469
504.4650, 251.2251
505.6460, 268.8945
506.8280, 279.5557
508.0100, 305.2080
509.1910, 398.8511
510.3720, 346.4858
511.5530, 412.1108
512.7340, 463.7271
513.9150, 370.3340
515.0950, 410.9316
516.2760, 480.5195
517.4560, 450.0981
518.6360, 409.6675
519.8160, 486.2266
520.9950, 469.7754
522.1750, 503.3149
523.3540, 566.8447
524.5340, 591.3638
525.7130, 628.8750
526.8920, 661.3770
528.0700, 677.8711
529.2490, 730.3550
530.4270, 680.8281
531.6060, 713.2910
532.7840, 691.7432
533.9620, 547.1841
535.1390, 712.6152
536.3170, 552.0352
537.4940, 574.4438
538.6720, 517.8433
539.8490, 560.2314
541.0260, 484.6079
542.2030, 460.9731
543.3790, 482.3271
544.5560, 418.6689
545.7320, 546.9995
546.9080, 482.3174
548.0840, 513.6235
549.2600, 544.9185
550.4360, 550.1997
551.6110, 544.4692
552.7860, 488.7266
553.9620, 434.9722
555.1370, 576.2051
556.3110, 503.4243
557.4860, 516.6357
558.6610, 603.8345
559.8350, 581.0195
561.0090, 643.1973
562.1830, 604.3608
563.3570, 447.5137
564.5310, 406.6548
565.7040, 427.7866
566.8780, 427.9150
568.0510, 408.8037
569.2240, 404.9111
570.3970, 358.0059
571.5700, 420.3301
572.7420, 247.8066
573.9150, 346.1191
575.0870, 293.5635
576.2590, 350.7607
577.4310, 281.0630
578.6030, 246.8481
579.7740, 224.0435
580.9460, 195.8696
582.1170, 98.03076
583.2880, 156.9741
584.4590, 241.0928
585.6300, 145.2930
586.8010, 110.4951
587.9710, 33.37549
589.1410, 81.70605
590.3110, 21.10596
591.4810, 3.580078
592.6510, 28.85986
593.8210, 53.93555
594.9900, 9.019043
596.1600, 90.38965
597.3290, 61.07520
598.4980, 1.724121
599.6670, 13.66064
600.8350, 39.00684
602.0040, 36.17725
603.1720, 2.506348
604.3400, 61.18213
605.5080, 58.20752
606.6760, 95.62793
607.8440, 13.71875
609.0120, 21.06006
610.1790, 14.54980
611.3460, 60.30713
612.5130, 21.45996
613.6800, 59.81787
614.8470, 114.8887
616.0130, 115.0293
617.1800, 171.0342
618.3460, 136.1255
619.5120, 195.2285
620.6780, 116.4014
621.8440, 157.4580
623.0090, 51.49854
624.1750, 178.5151
625.3400, 301.5156
626.5050, 226.4990
627.6700, 217.4668
628.8350, 109.4185
629.9990, 117.4492
631.1640, 206.3657
632.3280, 232.2656
633.4920, 133.8535
634.6560, 293.7207
635.8200, 210.5708
636.9840, 284.4043
638.1470, 266.2222
639.3100, 393.0229
640.4730, 353.8706
641.6360, 382.6323
642.7990, 349.4243
643.9620, 374.1597
645.1240, 446.8779
646.2870, 515.5806
647.4490, 560.0156
648.6110, 599.9355
649.7730, 688.5889
650.9340, 686.2256
652.0960, 783.8467
653.2570, 875.4502
654.4180, 1036.038
655.5790, 1155.609
656.7400, 1395.165
657.9010, 1631.704
659.0620, 1810.227
660.2220, 2266.733
661.3820, 2679.225
662.5420, 3183.699
663.7020, 3540.158
664.8620, 3973.922
666.0210, 4296.627
667.1810, 4344.542
668.3400, 4225.935
669.4990, 3868.313
670.6580, 3345.677
671.8170, 3020.023
672.9750, 2533.354
674.1340, 2204.724
675.2920, 1801.023
676.4500, 1420.307
677.6080, 1413.975
678.7660, 1199.227
679.9230, 1080.463
681.0810, 948.6836
682.2380, 801.8882
683.3950, 676.0781
684.5520, 625.2520
685.7090, 548.4106
686.8660, 550.5537
688.0220, 440.6816
689.1780, 339.7939
690.3340, 420.8916
691.4900, 343.9736
692.6460, 369.0410
693.8020, 336.0928
694.9570, 325.1299
696.1130, 236.1519
697.2680, 293.1592
698.4230, 260.1514
699.5780, 168.1289
700.7320, 213.0918
701.8870, 208.0615
703.0410, 208.9946
704.1950, 167.8154
705.3490, 188.5361
706.5030, 179.5605
707.6570, 199.7183
708.8110, 141.5801
709.9640, 134.4282
711.1170, 144.2651
712.2700, 61.09912
713.4230, 74.15430
714.5760, 144.7310
715.7280, 55.53467
716.8810, 46.32227
718.0330, 63.09521
719.1850, 139.8525
720.3370, 33.59717
721.4890, 113.2969
722.6400, 2.7832000E-02
723.7920, 50.73633
724.9430, 39.57178
726.0940, 109.0508
727.2450, 39.77197
728.3960, 1.727051
729.5460, 31.35010
730.6970, 75.12598
731.8470, 78.56396
732.9970, 35.64502
734.1470, 15.28711
735.2970, 9.322266
736.4460, 100.7734
737.5960, 82.97168
738.7450, 55.18750
739.8940, 48.21045
741.0430, 25.41846
742.1920, 24.21387
743.3410, 29.16699
744.4890, 7.437988
745.6370, 49.66504
746.7850, 3.716797
747.9330, 32.15674
749.0810, 62.89795
750.2290, 48.85010
751.3760, 72.81787
752.5240, 38.48779
753.6710, 63.86279
754.8180, 7.074219
755.9650, 11.93311
757.1110, 36.17578
758.2580, 14.29102
759.4040, 57.30078
760.5510, 60.70801
761.6970, 49.66650
762.8420, 87.74951
763.9880, 45.82520
765.1340, 83.89307
766.2790, 148.9541
767.4240, 3.883301
768.5690, 70.83838
769.7140, 130.8774
770.8590, 27.08984
772.0030, 75.89307
773.1480, 101.8975
774.2920, 183.8945
775.4360, 122.8862
776.5800, 89.87207
777.7240, 1.852051
778.8670, 33.82520
780.0110, 2.855469
781.1540, 79.75586
782.2970, 31.71240
783.4400, 65.66406
784.5830, 134.6118
785.7250, 96.55322
786.8680, 50.49072
788.0100, 187.4233
789.1520, 43.35205
790.2940, 109.2764
791.4360, 149.1958
792.5780, 82.11182
793.7190, 22.02344
794.8600, 152.9312
796.0010, 14.83545
797.1420, 48.73633
798.2830, 118.6333
799.4240, 24.52686
800.5640, 25.41748
801.7050, 13.69482
802.8450, 12.64893
803.9850, 18.98682
805.1250, 24.92871
806.2640, 11.79297
807.4040, 31.65527
808.5430, 117.5151
809.6820, 27.37256
810.8210, 3.771973
811.9600, 25.08057
813.0990, 84.93164
814.2370, 18.21924
815.3760, 174.6240
816.5140, 83.46631
817.6520, 164.3076
818.7900, 150.1470
819.9270, 68.98535
821.0650, 242.8232
822.2020, 166.6602
823.3390, 188.4966
824.4760, 146.3320
825.6130, 135.1675
826.7500, 150.0029
827.8870, 179.8384
829.0230, 179.6729
830.1590, 73.50830
831.2950, 103.3433
832.4310, 89.17871
833.5670, 59.01514
834.7030, 90.85205
835.8380, 22.68896
836.9730, 31.52686
838.1080, 1.633789
839.2430, 60.20605
840.3780, 36.95361
841.5130, 61.11963
842.6470, 22.69775
843.7810, 17.48340
844.9150, 76.33496
846.0490, 12.15430
847.1830, 109.9761
848.3170, 21.79980
849.4500, 106.3667
850.5830, 151.0371
851.7160, 145.8672
852.8490, 71.41016
853.9820, 252.8481
855.1150, 348.4761
856.2470, 191.3164
857.3800, 288.5674
858.5120, 322.4136
859.6440, 288.4053
860.7760, 268.9736
861.9070, 291.5298
863.0390, 277.3892
864.1700, 273.8643
865.3010, 145.8833
866.4320, 177.0850
867.5630, 142.8936
868.6940, 81.76025
869.8240, 88.36523
870.9540, 7.592285
872.0850, 26.48975
873.2150, 93.49658
874.3450, 66.47607
875.4740, 112.3789
876.6040, 160.1206
877.7330, 148.9033
878.8620, 76.72168
879.9910, 146.6060
881.1200, 122.2305
882.2490, 156.2959
883.3770, 220.3984
884.5060, 145.4517
885.6340, 42.01367
886.7620, 22.18896
887.8900, 107.2939
889.0180, 61.59912
890.1450, 103.8315
891.2730, 90.18945
892.4000, 101.2842
893.5270, 34.53174
894.6540, 61.70117
895.7810, 182.9775
896.9070, 56.26172
898.0340, 170.5586
899.1600, 77.86328
900.2860, 148.1768
901.4120, 57.49805
902.5380, 127.8281
903.6630, 176.0781
904.7890, 142.4365
905.9140, 96.80908
907.0390, 96.48682
908.1640, 106.8784
909.2890, 53.27881
910.4130, 183.6890
911.5380, 130.1479
912.6620, 121.6309
913.7860, 225.0669
914.9100, 77.57617
916.0340, 125.0547
917.1580, 171.5903
918.2810, 106.1455
919.4040, 101.7109
920.5280, 197.2861
921.6510, 116.8706
922.7730, 176.4653
923.8960, 143.0703
925.0180, 157.6855
926.1410, 93.31104
927.2630, 170.9468
928.3850, 121.0933
929.5070, 131.2485
930.6280, 93.91504
931.7500, 97.59082
932.8710, 121.2783
933.9920, 198.9751
935.1130, 238.6919
936.2340, 254.3203
937.3550, 258.9321
938.4760, 259.3179
939.5960, 213.5791
940.7160, 173.3535
941.8360, 144.1396
942.9560, 98.93652
944.0760, 46.74365
945.1950, 61.05908
946.3150, 112.3359
947.4340, 91.17676
948.5530, 210.0273
949.6720, 238.5010
950.7900, 209.3867
951.9090, 135.2969
953.0270, 163.2188
954.1460, 185.1611
955.2640, 98.11523
956.3820, 312.0801
957.4990, 320.0566
958.6170, 240.0449
959.7340, 324.0439
960.8520, 391.0547
961.9690, 382.0771
963.0860, 314.1133
964.2020, 331.1592
965.3190, 309.2188
966.4350, 374.2881
967.5520, 412.3691
968.6680, 307.4619
969.7840, 413.5664
970.8990, 426.6816
972.0150, 438.8096
973.1310, 363.9268
974.2460, 424.0771
975.3610, 450.3379
976.4760, 521.5605
977.5910, 410.7461
978.7050, 470.6621
979.8200, 507.8711
980.9340, 346.0928
982.0480, 538.3252
983.1620, 459.5703
984.2760, 594.8281
985.3900, 587.0977
986.5030, 731.3799
987.6160, 615.6748
988.7300, 775.9834
989.8430, 766.3047
990.9550, 776.6367
992.0680, 999.9844
993.1810, 998.3438
994.2930, 1085.722
995.4050, 1312.113
996.5170, 1289.535
997.6290, 1621.969
998.7410, 1821.416
999.8520, 1937.883
1000.964, 2309.377
1002.075, 2665.507
1003.186, 3092.023
1004.297, 3660.270
1005.407, 4253.864
1006.518, 4913.141
1007.628, 5728.957
1008.738, 6495.543
1009.848, 7442.143
1010.958, 8523.771
1012.068, 9301.409
1013.178, 9753.062
1014.287, 9611.724
1015.396, 9032.521
1016.505, 7740.236
1017.614, 6472.324
1018.723, 5493.035
1019.831, 4325.775
1020.940, 3295.528
1022.048, 2823.248
1023.156, 2398.436
1024.264, 1878.253
1025.372, 1781.838
1026.479, 1607.683
1027.587, 1370.538
1028.694, 1151.403
1029.801, 1053.277
1030.908, 1147.161
1032.015, 1095.053
1033.121, 1051.954
1034.228, 881.8643
1035.334, 888.7832
1036.440, 912.6094
1037.546, 1013.732
1038.652, 912.9824
1039.758, 992.9453
1040.863, 1014.955
1041.968, 1013.943
1043.074, 969.9404
1044.178, 881.3721
1045.283, 990.8389
1046.388, 826.8721
1047.492, 812.5371
1048.597, 868.5889
1049.701, 645.1982
1050.805, 671.5176
1051.909, 614.5947
1053.012, 535.6787
1054.116, 526.7695
1055.219, 541.8682
1056.322, 388.9727
1057.425, 470.1514
1058.528, 414.2686
1059.631, 312.3926
1060.733, 428.5225
1061.836, 242.6592
1062.938, 392.8018
1064.040, 339.9492
1065.142, 231.1025
1066.243, 217.2637
1067.345, 160.4043
1068.446, 258.2510
1069.547, 276.9512
1070.648, 209.1357
1071.749, 182.3271
1072.850, 126.5264
1073.951, 280.7305
1075.051, 220.9395
1076.151, 190.1543
1077.251, 76.37402
1078.351, 212.5986
1079.451, 129.8271
1080.550, 182.0625
1081.650, 245.2793
1082.749, 139.5244
1083.848, 262.8154
1084.947, 93.08496
1086.046, 250.6182
1087.144, 161.9043
1088.243, 97.20703
1089.341, 104.5137
1090.439, 78.82422
1091.537, 155.1377
1092.635, 182.4561
1093.732, 84.00977
1094.830, 192.5254
1095.927, 208.8623
1097.024, 31.19141
1098.121, 39.52539
1099.218, 194.8623
1100.314, 63.20117
1101.411, 54.54297
1102.507, 233.8867
1103.603, 139.2510
1104.699, 137.6016
1105.795, 142.9541
1106.890, 91.30957
1107.986, 79.67090
1109.081, 157.0654
1110.176, 164.4404
1111.271, 171.9824
1112.366, 155.3623
1113.461, 176.7441
1114.555, 41.12793
1115.649, 135.5127
1116.744, 17.90625
1117.838, 135.2959
1118.931, 223.6846
1120.025, 178.0762
1121.119, 231.4688
1122.212, 199.8623
1123.305, 122.2578
1124.398, 105.6533
1125.491, 95.52246
1126.584, 70.62402
1127.676, 109.8467
1128.768, 77.24512
1129.861, 87.64551
1130.953, 120.0439
1132.044, 96.44336
1133.136, 16.15625
1134.228, 77.23730
1135.319, 36.36816
1136.410, 66.00879
1137.501, 17.38672
1138.592, 120.7637
1139.683, 2.141602
1140.773, 138.5166
1141.864, 90.89258
1142.954, 99.26660
1144.044, 65.64062
1145.134, 62.01270
1146.224, 38.61523
1147.313, 1.251953
1148.402, 57.90039
1149.492, 57.41895
1150.581, 57.75293
1151.670, 121.0693
1152.758, 16.61719
1153.847, 23.84668
1154.935, 20.44141
1156.024, 12.27148
1157.112, 61.00586
1158.200, 62.30078
1159.287, 46.55371
1160.375, 57.82422
1161.462, 55.09277
1162.550, 58.75000
1163.637, 17.62402
1164.724, 41.88672
1165.810, 45.14551
1166.897, 27.59668
1167.983, 1.640625
1169.070, 17.02637
1170.156, 83.94434
1171.242, 7.208984
1172.327, 112.5420
1173.413, 131.8975
1174.499, 144.5254
1175.584, 48.93457
1176.669, 49.08984
1177.754, 18.28711
1178.839, 191.7998
1179.923, 16.20215
1181.008, 27.15039
1182.092, 57.86719
1183.176, 58.88086
1184.260, 29.08789
1185.344, 16.09375
1186.428, 19.17090
1187.511, 12.03223
1188.595, 34.08301
1189.678, 30.07129
1190.761, 55.05273
1191.843, 82.03125
1192.926, 77.00586
1194.009, 55.97461
1195.091, 34.93945
1196.173, 21.30664
1197.255, 19.14453
1198.337, 1.789063
1199.419, 4.710938
1200.500, 32.15430
1201.582, 71.53125
1202.663, 90.43359
1203.744, 65.33105
1204.825, 108.2246
1205.905, 85.11133
1206.986, 98.99512
1208.066, 89.87305
1209.146, 110.7461
1210.226, 95.61328
1211.306, 32.52344
1212.386, 47.30957
1213.466, 31.32520
1214.545, 68.46973
1215.624, 17.74707
1216.703, 91.03125
1217.782, 64.79004
1218.861, 96.54297
1219.939, 178.2891
1221.018, 225.0303
1222.096, 86.76562
1223.174, 22.49414
1224.252, 24.21484
1225.330, 34.92676
1226.407, 165.6328
1227.485, 80.33301
1228.562, 105.0264
1229.639, 214.7148
1230.716, 93.39648
1231.793, 52.07227
1232.869, 35.74219
1233.946, 107.4043
1235.022, 90.06250
1236.098, 157.7119
1237.174, 78.35547
1238.250, 35.99316
1239.325, 159.6250
1240.401, 28.25000
1241.476, 190.8662
1242.551, 144.4766
1243.626, 58.08008
1244.701, 172.6768
1245.776, 42.26855
1246.850, 94.85254
1247.924, 45.42969
1248.999, 114.0020
1250.073, 120.5664
1251.146, 189.1250
1252.220, 127.6768
1253.293, 115.2217
1254.367, 140.7607
1255.440, 141.2930
1256.513, 127.8174
1257.586, 101.3369
1258.658, 104.8496
1259.731, 162.3545
1260.803, 124.8545
1261.875, 161.3467
1262.947, 98.21094
1264.019, 72.69043
1265.091, 180.4482
1266.162, 180.9141
1267.234, 81.37402
1268.305, 185.8281
1269.376, 105.2754
1270.447, 124.7178
1271.517, 156.1553
1272.588, 210.5850
1273.658, 208.0088
1274.729, 152.4268
1275.799, 98.71582
1276.868, 42.09277
1277.938, 130.1055
1279.008, 38.49902
1280.077, 192.8857
1281.146, 212.2656
1282.215, 13.70215
1283.284, 157.6895
1284.353, 61.04785
1285.421, 68.64648
1286.490, 83.99414
1287.558, 152.3359
1288.626, 162.6719
1289.694, 234.0010
1290.762, 87.60645
1291.829, 114.9258
1292.897, 59.23828
1293.964, 138.5459
1295.031, 74.84961
1296.098, 60.28516
1297.165, 1.609375
1298.231, 3.368164
1299.298, 26.63281
1300.364, 20.86035
1301.430, 19.41797
1302.496, 11.24902
1303.562, 3.171875
1304.627, 22.04883
1305.693, 0.1591800
1306.758, 18.73633
1307.823, 7.070313
1308.888, 20.31543
1309.953, 39.49219
1311.018, 68.66602
1312.082, 2.836914
1313.146, 77.00098
1314.210, 109.1631
1315.274, 63.32227
1316.338, 114.4102
1317.402, 167.5625
1318.465, 38.71094
1319.529, 41.85742
1320.592, 206.0020
1321.655, 125.1436
1322.718, 158.2822
1323.780, 189.4238
1324.843, 35.56445
1325.905, 97.72949
1326.967, 139.1914
1328.029, 115.8037
1329.091, 188.9346
1330.153, 78.06250
1331.214, 109.1855
1332.275, 151.3076
1333.337, 133.4248
1334.398, 164.5391
1335.458, 139.6494
1336.519, 126.3916
1337.580, 152.8691
1338.640, 52.13477
1339.700, 40.21680
1340.760, 55.72754
1341.820, 52.28418
1342.880, 32.68164
1343.939, 4.089844
1344.999, 49.89062
1346.058, 114.1133
1347.117, 82.11523
1348.176, 110.1133
1349.235, 96.11035
1350.293, 115.1943
1351.351, 127.7217
1352.410, 168.6602
1353.468, 151.6377
1354.526, 194.6230
1355.583, 199.0850
1356.641, 232.5850
1357.698, 156.5635
1358.756, 191.5381
1359.813, 128.5127
1360.869, 151.4678
1361.926, 205.4385
1362.983, 145.4062
1364.039, 199.3730
1365.095, 123.3369
1366.152, 208.2773
1367.207, 86.23828
1368.263, 141.0332
1369.319, 235.9932
1370.374, 142.9502
1371.430, 299.9053
1372.485, 86.85938
1373.540, 216.8066
1374.594, 199.7559
1375.649, 32.70312
1376.703, 244.6504
1377.758, 225.5977
1378.812, 193.5430
1379.866, 144.4873
1380.920, 130.4316
1381.973, 133.9248
1383.027, 123.4385
1384.080, 164.2627
1385.133, 140.2041
1386.186, 142.1484
1387.239, 151.0898
1388.291, 220.0342
1389.344, 163.9766
1390.396, 187.9229
1391.448, 157.8682
1392.500, 89.82324
1393.552, 114.7764
1394.604, 71.73047
1395.655, 130.6846
1396.707, 112.9717
1397.758, 156.1357
1398.809, 107.0898
1399.860, 130.4961
1400.910, 201.0020
1401.961, 141.9609
1403.011, 144.9307
1404.061, 143.8877
1405.111, 54.87695
1406.161, 139.8506
1407.211, 49.84375
1408.260, 93.83887
1409.310, 117.3750
1410.359, 158.3867
1411.408, 186.4004
1412.457, 188.4404
1413.506, 76.44531
1414.554, 167.4736
1415.603, 43.50391
1416.651, 13.46191
1417.699, 88.57617
1418.747, 103.6182
1419.794, 39.66504
1420.842, 52.71484
1421.889, 3.228516
1422.937, 50.84180
1423.984, 100.8164
1425.031, 105.1494
1426.077, 138.1934
1427.124, 132.1016
1428.170, 84.10840
1429.217, 94.83789
1430.263, 157.5176
1431.309, 117.7520
1432.354, 169.3945
1433.400, 210.5693
1434.445, 128.8389
1435.491, 161.0527
1436.536, 80.29883
1437.581, 100.6123
1438.625, 91.67969
1439.670, 203.9590
1440.714, 161.6602
1441.759, 49.55566
1442.803, 152.8770
1443.847, 113.2168
1444.890, 136.5723
1445.934, 112.9492
1446.978, 89.37109
1448.021, 43.78711
1449.064, 55.57422
1450.107, 120.1162
1451.150, 61.61816
1452.192, 124.3262
1453.235, 116.6279
1454.277, 120.7334
1455.319, 182.6592
1456.361, 90.80078
1457.403, 143.9434
1458.445, 140.0850
1459.486, 161.2266
1460.528, 105.3818
1461.569, 108.8398
1462.610, 5.116211
1463.651, 14.16113
1464.691, 191.9824
1465.732, 137.1289
1466.772, 141.2822
1467.812, 139.4385
1468.852, 74.59863
1469.892, 65.76074
1470.932, 25.92773
1471.971, 65.09668
1473.011, 136.2705
1474.050, 78.44727
1475.089, 48.63086
1476.128, 52.81836
1477.166, 153.0117
1478.205, 126.2070
1479.243, 230.4082
1480.282, 157.6143
1481.320, 119.8262
1482.357, 132.0439
1483.395, 175.2656
1484.433, 43.49512
1485.470, 128.7285
1486.507, 157.9697
1487.544, 129.2158
1488.581, 174.4648
1489.618, 171.5273
1490.655, 193.3955
1491.691, 173.2412
1492.727, 213.5127
1493.763, 184.7910
1494.799, 123.0791
1495.835, 174.3760
1496.871, 186.6807
1497.906, 81.99023
1498.941, 128.8730
1499.976, 142.1914
1501.011, 251.4570
1502.046, 115.7939
1503.081, 127.1572
1504.115, 177.5303
1505.149, 90.92090
1506.183, 126.3535
1507.217, 128.8057
1508.251, 240.2695
1509.285, 116.7393
1510.318, 20.21582
1511.352, 154.6953
1512.385, 228.1787
1513.418, 221.6611
1514.450, 281.1338
1515.483, 159.5908
1516.516, 138.0410
1517.548, 251.5000
1518.580, 112.9707
1519.612, 77.45117
1520.644, 18.02539
1521.675, 13.92969
1522.707, 168.7471
1523.738, 262.4434
1524.769, 289.1582
1525.800, 311.3730
1526.831, 134.6484
1527.862, 223.4238
1528.892, 174.2227
1529.923, 118.0459
1530.953, 146.8926
1531.983, 179.7646
1533.013, 195.6631
1534.042, 167.5879
1535.072, 167.5430
1536.101, 223.5293
1537.131, 130.5469
1538.160, 123.5986
1539.188, 155.6924
1540.217, 53.83203
1541.246, 164.0127
1542.274, 16.23535
1543.302, 158.5000
1544.330, 64.80762
1545.358, 187.1611
1546.386, 40.56543
1547.413, 27.02441
1548.441, 35.54688
1549.468, 148.1367
1550.495, 182.4453
1551.522, 153.1084
1552.549, 187.8389
1553.575, 250.6387
1554.602, 311.5137
1555.628, 201.4697
1556.654, 88.51270
1557.680, 115.6484
1558.706, 34.01562
1559.731, 277.2295
1560.757, 17.68848
1561.782, 99.27051
1562.807, 179.9883
1563.832, 91.85254
1564.857, 223.9727
1565.881, 187.3926
1566.906, 69.05273
1567.930, 82.98730
1568.954, 198.2393
1569.978, 54.04883
1571.002, 141.0166
1572.025, 7.495117
1573.049, 118.5820
1574.072, 150.3643
1575.095, 58.30859
1576.118, 85.43652
1577.141, 67.61230
1578.164, 0.0000000E+00
##END=



