##NAMES=Dolomite
##RRUFFID=R040030
##IDEAL CHEMISTRY=CaMg(CO_3_)_2_
##LOCALITY=Austria
##OWNER=RRUFF
##SOURCE=University of Arizona Mineral Museum
##DESCRIPTION=Group of colorless tabular crystals
##STATUS=The identification of this mineral has been confirmed by X-ray diffraction and chemical analysis
##URL=rruff.info/R040030
##MEASURED CHEMISTRY=(Ca_0.99_Mg_0.01_)_Î£=1_Mg_1.00_(CO_3_)_2_ ; trace amounts of Mn; CO_2_ estimated by difference
##PIN_ID=M00005
##ORIENTATION=Laser parallel to a* (1 0 0). Fiducial mark perpendicular to laser is parallel to -c [0 0 -1]
95.582, 0.000
96.976, 49.493
98.370, 0.857
99.764, 146.638
101.157, 77.996
102.550, 140.551
103.943, 172.974
105.336, 173.370
106.729, 202.101
108.121, 204.084
109.513, 206.268
110.905, 166.249
112.297, 221.139
113.688, 214.533
115.079, 260.500
116.470, 233.545
117.861, 254.640
119.251, 304.766
120.642, 198.906
122.032, 234.282
123.422, 119.278
124.811, 154.782
126.201, 168.845
127.590, 39.151
128.979, 126.290
130.367, 7.719
131.756, 102.142
133.144, 63.900
134.532, 99.590
135.920, 37.232
137.307, 23.799
138.695, 51.329
140.082, 17.811
141.469, 79.231
142.856, 20.597
144.242, 51.915
145.628, 31.190
147.014, 10.573
148.400, 63.630
149.786, 60.800
151.171, 66.377
152.556, 57.980
153.941, 71.622
155.325, 128.847
156.710, 154.181
158.094, 221.050
159.478, 138.441
160.862, 277.740
162.245, 217.045
163.629, 308.357
165.012, 373.678
166.395, 510.004
167.777, 693.346
169.160, 903.907
170.542, 1368.431
171.924, 1989.924
173.306, 2861.557
174.687, 4006.531
176.068, 5235.896
177.449, 6518.441
178.830, 6768.063
180.211, 6260.042
181.591, 4734.513
182.972, 3265.040
184.351, 2152.533
185.731, 1296.036
187.111, 985.547
188.490, 599.061
189.869, 513.577
191.248, 321.119
192.626, 214.681
194.005, 240.269
195.383, 125.865
196.761, 176.462
198.139, 45.058
199.516, 91.660
200.893, 42.256
202.271, 47.844
203.647, 58.424
205.024, 9.992
206.400, 43.557
207.777, 19.850
209.152, 37.331
210.528, 9.208
211.904, 10.265
213.279, 3.249
214.654, 29.250
216.029, 37.243
217.403, 43.272
218.778, 18.789
220.152, 42.700
221.526, 33.189
222.900, 118.666
224.273, 141.129
225.646, 300.580
227.019, 345.019
228.392, 482.444
229.765, 454.858
231.137, 288.646
232.509, 311.164
233.881, 177.542
235.253, 179.892
236.625, 101.786
237.996, 55.460
239.367, 77.111
240.738, 23.663
242.108, 80.239
243.479, 27.590
244.849, 71.054
246.219, 34.396
247.589, 43.664
248.958, 60.917
250.328, 1.224
251.697, 82.047
253.065, 4.765
254.434, 84.485
255.803, 51.191
257.171, 36.586
258.539, 121.548
259.906, 50.952
261.274, 36.375
262.641, 20.179
264.008, 30.071
265.375, 51.887
266.742, 2.869
268.108, 72.764
269.475, 54.758
270.840, 124.523
272.206, 87.150
273.572, 133.989
274.937, 187.918
276.302, 229.675
277.667, 326.469
279.032, 367.692
280.396, 455.656
281.760, 486.128
283.125, 536.970
284.488, 604.134
285.852, 748.582
287.215, 933.396
288.578, 1112.074
289.941, 1446.373
291.304, 1749.094
292.666, 2148.677
294.029, 2903.251
295.391, 3575.572
296.753, 4588.185
298.114, 5703.707
299.476, 6898.067
300.837, 7882.416
302.198, 8030.710
303.558, 7839.186
304.919, 6743.460
306.279, 5435.743
307.639, 4175.994
308.999, 3134.236
310.359, 2437.789
311.718, 1853.483
313.077, 1518.036
314.436, 1133.538
315.795, 937.728
317.154, 813.261
318.512, 677.624
319.870, 617.834
321.228, 440.942
322.586, 462.966
323.943, 374.981
325.300, 319.007
326.657, 338.043
328.014, 240.032
329.371, 268.003
330.727, 241.057
332.083, 315.013
333.439, 340.237
334.795, 330.177
336.150, 529.527
337.506, 551.797
338.861, 749.868
340.215, 841.938
341.570, 861.033
342.924, 847.645
344.279, 661.844
345.633, 534.706
346.986, 326.731
348.340, 303.575
349.693, 241.495
351.046, 222.408
352.399, 208.229
353.752, 122.296
355.104, 158.099
356.457, 127.901
357.809, 113.695
359.160, 156.480
360.512, 109.462
361.863, 142.229
363.214, 45.717
364.565, 56.480
365.916, 78.298
367.267, 74.129
368.617, 106.716
369.967, 98.981
371.317, 100.312
372.666, 88.157
374.016, 36.915
375.365, 25.441
376.714, 18.940
378.063, 122.261
379.411, 48.037
380.760, 32.646
382.108, 77.605
383.456, 17.468
384.803, 114.073
386.151, 12.707
387.498, 90.479
388.845, 42.091
390.192, 41.041
391.539, 56.714
392.885, 39.435
394.231, 90.135
395.577, 68.904
396.923, 67.550
398.269, 100.090
399.614, 54.834
400.959, 72.351
402.304, 15.037
403.649, 42.539
404.993, 101.015
406.337, 11.701
407.681, 28.168
409.025, 11.442
410.369, 29.097
411.712, 7.515
413.055, 33.319
414.398, 56.708
415.741, 25.219
417.084, 17.520
418.426, 0.142
419.768, 10.750
421.110, 55.546
422.452, 6.187
423.793, 11.995
425.134, 12.912
426.475, 17.198
427.816, 5.385
429.157, 11.919
430.497, 5.253
431.837, 27.387
433.177, 60.530
434.517, 17.661
435.857, 8.778
437.196, 26.879
438.535, 20.967
439.874, 79.063
441.213, 39.126
442.551, 104.453
443.889, 11.497
445.227, 17.475
446.565, 101.528
447.903, 12.480
449.240, 24.487
450.577, 20.551
451.914, 16.423
453.251, 37.344
454.588, 9.743
455.924, 30.241
457.260, 23.121
458.596, 39.987
459.932, 75.840
461.267, 7.317
462.602, 110.505
463.938, 40.322
465.272, 86.127
466.607, 80.921
467.941, 88.714
469.276, 96.497
470.610, 16.283
471.943, 97.055
473.277, 13.820
474.610, 18.579
475.944, 93.325
477.276, 9.060
478.609, 26.780
479.942, 53.488
481.274, 67.183
482.606, 80.868
483.938, 81.206
485.270, 77.205
486.601, 72.858
487.932, 82.500
489.263, 86.132
490.594, 63.753
491.925, 110.363
493.255, 20.963
494.585, 95.555
495.915, 6.136
497.245, 11.703
498.575, 46.257
499.904, 10.202
501.233, 36.331
502.562, 19.149
503.891, 14.344
505.219, 96.825
506.548, 43.295
507.876, 86.755
509.203, 64.298
510.531, 63.748
511.859, 121.457
513.186, 23.015
514.513, 122.424
515.840, 86.730
517.166, 102.118
518.493, 86.830
519.819, 36.286
521.145, 114.652
522.470, 1.169
523.796, 147.978
525.121, 73.439
526.446, 67.699
527.771, 128.930
529.096, 41.199
530.421, 110.469
531.745, 90.782
533.069, 39.043
534.393, 133.081
535.716, 54.670
537.040, 123.592
538.363, 66.316
539.686, 49.473
541.009, 91.488
542.331, 41.872
543.654, 129.773
544.976, 99.968
546.298, 55.797
547.620, 164.969
548.941, 17.963
550.263, 71.938
551.584, 57.966
552.905, 59.910
554.225, 41.021
555.546, 68.061
556.866, 103.084
558.186, 39.160
559.506, 164.105
560.826, 65.112
562.145, 45.558
563.465, 130.416
564.784, 21.435
566.103, 86.062
567.421, 91.823
568.740, 57.438
570.058, 114.180
571.376, 84.702
572.694, 138.444
574.011, 87.273
575.329, 8.984
576.646, 89.587
577.963, 49.848
579.279, 96.434
580.596, 83.201
581.912, 129.055
583.228, 110.550
584.544, 98.965
585.860, 136.494
587.175, 91.865
588.491, 166.323
589.806, 110.677
591.121, 81.252
592.435, 176.956
593.750, 88.436
595.064, 177.812
596.378, 164.347
597.692, 72.827
599.006, 194.616
600.319, 14.174
601.632, 161.108
602.945, 146.462
604.258, 86.613
605.571, 146.326
606.883, 80.640
608.195, 103.912
609.507, 65.706
610.819, 88.197
612.131, 132.013
613.442, 52.488
614.753, 143.905
616.064, 124.283
617.375, 85.731
618.685, 194.661
619.995, 138.241
621.306, 174.273
622.615, 201.755
623.925, 234.352
625.235, 334.615
626.544, 341.194
627.853, 485.230
629.162, 390.563
630.471, 398.415
631.779, 392.482
633.087, 233.737
634.395, 202.413
635.703, 180.540
637.011, 155.804
638.318, 178.298
639.625, 86.714
640.932, 204.300
642.239, 149.758
643.546, 184.194
644.852, 326.817
646.158, 218.258
647.464, 351.796
648.770, 342.274
650.076, 297.701
651.381, 351.009
652.686, 226.419
653.991, 302.426
655.296, 238.520
656.600, 173.744
657.905, 215.635
659.209, 105.802
660.513, 198.436
661.817, 90.464
663.120, 105.809
664.423, 90.276
665.726, 52.606
667.029, 71.843
668.332, 14.442
669.635, 42.748
670.937, 78.825
672.239, 18.886
673.541, 102.389
674.842, 9.657
676.144, 52.921
677.445, 70.979
678.746, 49.767
680.047, 89.759
681.348, 11.991
682.648, 87.154
683.948, 142.286
685.248, 36.503
686.548, 132.469
687.848, 58.639
689.147, 88.802
690.447, 105.746
691.746, 15.102
693.044, 62.876
694.343, 12.998
695.641, 47.999
696.940, 126.918
698.238, 26.008
699.535, 162.881
700.833, 78.958
702.130, 78.028
703.427, 175.943
704.724, 82.000
706.021, 180.704
707.318, 116.668
708.614, 243.568
709.910, 237.470
711.206, 162.287
712.502, 393.211
713.798, 255.225
715.093, 359.016
716.388, 434.017
717.683, 427.905
718.978, 663.717
720.272, 762.707
721.567, 1024.390
722.861, 1283.357
724.155, 1522.330
725.448, 1957.177
726.742, 1961.145
728.035, 1843.098
729.328, 1677.056
730.621, 1221.009
731.914, 1024.578
733.206, 767.530
734.499, 566.335
735.791, 474.284
737.083, 287.229
738.374, 333.172
739.666, 147.111
740.957, 176.051
742.248, 131.987
743.539, 115.920
744.830, 116.854
746.120, 118.784
747.410, 102.710
748.701, 109.337
749.990, 84.549
751.280, 102.463
752.570, 66.373
753.859, 41.258
755.148, 120.159
756.437, 11.221
757.725, 88.660
759.014, 20.539
760.302, 60.419
761.590, 94.295
762.878, 21.828
764.166, 108.030
765.453, 17.851
766.740, 14.292
768.027, 45.550
769.314, 58.299
770.601, 93.559
771.887, 51.395
773.174, 2.227
774.460, 134.052
775.745, 15.124
777.031, 33.684
778.316, 52.489
779.602, 35.711
780.887, 64.062
782.172, 48.169
783.456, 25.566
784.741, 2.298
786.025, 22.977
787.309, 41.729
788.593, 10.432
789.876, 76.131
791.160, 81.828
792.443, 14.522
793.726, 141.212
795.009, 14.899
796.291, 78.582
797.574, 92.835
798.856, 3.512
800.138, 100.183
801.420, 19.851
802.702, 10.515
803.983, 137.176
805.264, 13.167
806.545, 109.477
807.826, 35.119
809.107, 27.759
810.387, 124.398
811.667, 37.965
812.947, 153.650
814.227, 73.271
815.507, 50.890
816.786, 62.507
818.065, 0.122
819.344, 115.731
820.623, 95.245
821.902, 18.163
823.180, 122.726
824.459, 26.177
825.737, 114.764
827.014, 91.130
828.292, 99.712
829.569, 166.492
830.847, 74.363
832.124, 79.928
833.401, 173.495
834.677, 70.071
835.954, 143.864
837.230, 71.436
838.506, 103.005
839.782, 126.585
841.057, 46.152
842.333, 194.663
843.608, 138.826
844.883, 120.388
846.158, 224.317
847.433, 130.846
848.707, 246.911
849.981, 194.377
851.255, 184.934
852.529, 246.309
853.803, 156.864
855.076, 284.418
856.350, 281.970
857.623, 223.522
858.895, 402.074
860.168, 320.625
861.441, 383.176
862.713, 475.727
863.985, 310.277
865.257, 348.828
866.528, 233.378
867.800, 235.927
869.071, 301.477
870.342, 135.026
871.613, 265.575
872.884, 148.124
874.154, 163.672
875.425, 245.222
876.695, 137.771
877.965, 223.319
879.234, 229.875
880.504, 246.430
881.773, 539.984
883.042, 541.549
884.311, 527.114
885.580, 422.680
886.848, 254.246
888.117, 285.812
889.385, 173.381
890.653, 189.949
891.920, 225.518
893.188, 75.108
894.455, 216.699
895.722, 103.290
896.989, 111.882
898.256, 268.474
899.523, 123.078
900.789, 239.682
902.055, 251.286
903.321, 147.899
904.587, 200.512
905.852, 67.128
907.118, 158.689
908.383, 188.306
909.648, 91.749
910.913, 250.387
912.177, 95.887
913.442, 127.527
914.706, 256.167
915.970, 44.972
917.233, 206.620
918.497, 67.129
919.760, 62.428
921.024, 148.059
922.287, 27.287
923.550, 169.359
924.812, 128.007
926.075, 59.313
927.337, 155.963
928.599, 23.196
929.861, 174.783
931.122, 122.438
932.384, 84.398
933.645, 224.057
934.906, 79.251
936.167, 110.820
937.428, 178.197
938.688, 52.009
939.948, 107.669
941.208, 68.202
942.468, 86.887
943.728, 186.575
944.987, 35.138
946.247, 102.830
947.506, 132.403
948.765, 15.900
950.023, 198.794
951.282, 105.276
952.540, 180.975
953.798, 134.582
955.056, 3.155
956.314, 209.861
957.572, 45.408
958.829, 124.120
960.086, 151.813
961.343, 48.481
962.600, 147.202
963.856, 128.245
965.113, 0.973
966.369, 225.703
967.625, 33.436
968.881, 127.171
970.136, 131.608
971.392, 24.351
972.647, 105.096
973.902, 18.528
975.157, 113.219
976.411, 61.934
977.666, 57.312
978.920, 77.429
980.174, 37.825
981.428, 35.090
982.682, 103.637
983.935, 107.633
985.188, 113.067
986.441, 17.230
987.694, 23.472
988.947, 154.178
990.199, 64.887
991.452, 116.611
992.704, 103.340
993.956, 19.928
995.207, 195.801
996.459, 135.534
997.710, 55.283
998.961, 228.036
1000.212, 52.799
1001.463, 404.565
1002.714, 351.335
1003.964, 436.110
1005.214, 523.887
1006.464, 199.668
1007.714, 188.455
1008.964, 234.244
1010.213, 17.037
1011.462, 124.835
1012.711, 92.638
1013.960, 43.445
1015.209, 261.255
1016.457, 81.068
1017.705, 173.885
1018.954, 149.705
1020.201, 109.528
1021.449, 325.355
1022.697, 311.185
1023.944, 270.019
1025.191, 413.855
1026.438, 253.695
1027.685, 411.539
1028.931, 357.854
1030.177, 204.704
1031.423, 328.558
1032.669, 164.691
1033.915, 239.551
1035.161, 313.415
1036.406, 229.282
1037.651, 329.152
1038.896, 230.483
1040.141, 256.359
1041.386, 351.258
1042.630, 249.255
1043.874, 344.160
1045.118, 351.073
1046.362, 282.248
1047.606, 443.166
1048.849, 356.460
1050.092, 375.512
1051.336, 506.447
1052.578, 361.273
1053.821, 479.219
1055.064, 518.587
1056.306, 418.558
1057.548, 563.530
1058.790, 452.487
1060.032, 633.487
1061.273, 633.491
1062.515, 632.752
1063.756, 832.761
1064.997, 865.800
1066.237, 1013.095
1067.478, 1194.146
1068.718, 1137.340
1069.959, 1521.420
1071.199, 1526.503
1072.438, 1613.854
1073.678, 2027.940
1074.918, 2195.029
1076.157, 2492.123
1077.396, 2749.218
1078.635, 2838.362
1079.873, 3138.474
1081.112, 3154.588
1082.350, 3350.736
1083.588, 3797.885
1084.826, 3887.051
1086.064, 4363.693
1087.301, 4870.866
1088.539, 5316.118
1089.776, 6721.300
1091.013, 7656.484
1092.250, 9881.669
1093.486, 13786.857
1094.723, 19002.047
1095.959, 29927.230
1097.195, 42322.422
1098.431, 55637.043
1099.666, 60132.234
1100.902, 52917.434
1102.137, 38242.613
1103.372, 24507.812
1104.607, 15353.010
1105.842, 10198.216
1107.076, 6743.426
1108.311, 4858.636
1109.545, 3804.848
1110.779, 2861.061
1112.012, 2381.543
1113.246, 1935.770
1114.479, 1551.989
1115.712, 1481.216
1116.945, 1111.443
1118.178, 1065.672
1119.411, 988.911
1120.643, 746.149
1121.875, 792.388
1123.108, 757.059
1124.339, 514.305
1125.571, 678.550
1126.802, 469.107
1128.034, 449.353
1129.265, 534.064
1130.496, 346.928
1131.727, 426.174
1132.957, 367.593
1134.187, 346.840
1135.418, 473.588
1136.648, 227.835
1137.877, 368.083
1139.107, 357.332
1140.336, 137.580
1141.566, 297.828
1142.795, 258.476
1144.023, 80.724
1145.252, 239.315
1146.480, 184.562
1147.709, 162.809
1148.937, 175.055
1150.165, 93.300
1151.392, 208.544
1152.620, 94.787
1153.847, 147.029
1155.074, 265.623
1156.301, 62.861
1157.528, 187.115
1158.755, 246.026
1159.981, 32.260
1161.207, 228.706
1162.433, 135.936
1163.659, 80.164
1164.885, 192.391
1166.110, 108.614
1167.336, 117.836
1168.561, 126.056
1169.786, 32.273
1171.010, 157.489
1172.235, 80.701
1173.459, 117.911
1174.683, 207.118
1175.907, 25.677
1177.131, 183.511
1178.355, 228.831
1179.578, 37.986
1180.801, 176.173
1182.024, 108.623
1183.247, 84.776
1184.470, 146.052
1185.692, 7.802
1186.915, 139.335
1188.137, 115.033
1189.359, 79.702
1190.580, 149.410
1191.802, 101.786
1193.023, 1.138
1194.244, 107.930
1195.465, 35.161
1196.686, 16.879
1197.907, 101.351
1199.127, 26.482
1200.347, 141.525
1201.567, 0.671
1202.787, 109.324
1204.007, 206.313
1205.226, 55.346
1206.446, 116.600
1207.665, 122.790
1208.884, 6.917
1210.102, 136.845
1211.321, 111.743
1212.539, 8.339
1213.758, 139.562
1214.976, 44.152
1216.193, 142.042
1217.411, 155.999
1218.628, 3.079
1219.846, 164.951
1221.063, 110.038
1222.280, 77.362
1223.496, 264.222
1224.713, 69.611
1225.929, 107.700
1227.145, 162.544
1228.361, 99.431
1229.577, 223.263
1230.793, 150.244
1232.008, 21.577
1233.223, 305.217
1234.438, 68.004
1235.653, 150.788
1236.868, 343.568
1238.082, 91.631
1239.297, 261.406
1240.511, 283.177
1241.725, 155.945
1242.938, 291.710
1244.152, 102.471
1245.365, 217.231
1246.578, 308.988
1247.791, 118.798
1249.004, 316.547
1250.217, 231.292
1251.429, 174.580
1252.642, 369.318
1253.854, 142.051
1255.066, 194.965
1256.277, 322.690
1257.489, 36.412
1258.700, 215.380
1259.911, 223.092
1261.122, 118.875
1262.333, 276.579
1263.544, 180.271
1264.754, 157.808
1265.964, 353.490
1267.174, 152.168
1268.384, 302.902
1269.594, 336.566
1270.803, 108.226
1272.013, 370.880
1273.222, 199.541
1274.431, 121.198
1275.640, 231.857
1276.848, 262.517
1278.057, 318.172
1279.265, 208.846
1280.473, 160.516
1281.681, 231.182
1282.888, 129.841
1284.096, 134.467
1285.303, 255.085
1286.510, 106.690
1287.717, 166.285
1288.924, 178.866
1290.131, 3.435
1291.337, 237.958
1292.543, 163.444
1293.749, 130.923
1294.955, 301.395
1296.161, 163.809
1297.366, 173.182
1298.571, 291.546
1299.777, 39.903
1300.981, 196.246
1302.186, 102.568
1303.391, 21.881
1304.595, 171.143
1305.799, 56.391
1307.003, 119.630
1308.207, 304.862
1309.411, 122.083
1310.614, 161.295
1311.818, 231.498
1313.021, 196.692
1314.224, 298.877
1315.426, 162.038
1316.629, 112.188
1317.831, 387.325
1319.033, 209.450
1320.235, 241.563
1321.437, 367.197
1322.639, 74.268
1323.840, 348.325
1325.042, 215.094
1326.243, 45.127
1327.444, 253.147
1328.644, 74.153
1329.845, 132.146
1331.045, 271.667
1332.245, 48.367
1333.445, 71.565
1334.645, 92.389
1335.845, 1.295
1337.044, 146.183
1338.244, 146.802
1339.443, 10.669
1340.642, 173.154
1341.840, 2.126
1343.039, 2.704
1344.237, 174.637
1345.435, 56.555
1346.633, 133.825
1347.831, 137.596
1349.029, 49.639
1350.226, 188.136
1351.424, 37.868
1352.621, 44.595
1353.818, 264.060
1355.014, 93.223
1356.211, 135.461
1357.407, 90.899
1358.604, 57.419
1359.800, 218.122
1360.995, 69.785
1362.191, 41.449
1363.387, 207.430
1364.582, 40.093
1365.777, 18.773
1366.972, 169.460
1368.167, 6.841
1369.361, 36.832
1370.556, 122.555
1371.750, 62.795
1372.944, 163.837
1374.138, 49.680
1375.331, 25.308
1376.525, 192.396
1377.718, 89.910
1378.911, 161.209
1380.104, 155.571
1381.297, 29.925
1382.490, 234.271
1383.682, 224.607
1384.874, 90.936
1386.066, 296.256
1387.258, 151.552
1388.450, 167.839
1389.641, 309.823
1390.833, 72.084
1392.024, 140.337
1393.215, 212.570
1394.406, 6.216
1395.596, 208.988
1396.787, 110.182
1397.977, 45.365
1399.167, 250.537
1400.357, 119.699
1401.547, 37.849
1402.736, 176.988
1403.925, 70.115
1405.115, 131.232
1406.304, 289.657
1407.492, 10.265
1408.681, 244.803
1409.870, 137.863
1411.058, 72.454
1412.246, 383.580
1413.434, 88.316
1414.622, 165.329
1415.809, 279.337
1416.997, 169.338
1418.184, 125.333
1419.371, 273.323
1420.558, 137.308
1421.744, 292.114
1422.931, 238.124
1424.117, 159.710
1425.303, 305.537
1426.489, 167.612
1427.675, 188.326
1428.861, 387.296
1430.046, 194.933
1431.231, 303.619
1432.416, 380.751
1433.601, 347.813
1434.786, 560.405
1435.970, 532.812
1437.155, 506.309
1438.339, 879.967
1439.523, 813.320
1440.707, 1224.727
1441.890, 1744.896
1443.074, 1610.161
1444.257, 1972.760
1445.440, 1776.729
1446.623, 1334.329
1447.806, 1314.552
1448.989, 1224.795
1450.171, 939.004
1451.353, 1219.577
1452.535, 835.688
1453.717, 894.752
1454.899, 1029.771
1456.080, 796.610
1457.262, 922.008
1458.443, 948.803
1459.624, 663.104
1460.805, 899.161
1461.985, 834.566
1463.166, 623.101
1464.346, 870.830
1465.526, 569.978
1466.706, 498.234
1467.886, 726.408
1469.065, 434.491
1470.245, 428.478
1471.424, 541.364
1472.603, 304.151
1473.782, 491.008
1474.960, 457.827
1476.139, 238.638
1477.317, 462.684
1478.495, 482.746
1479.673, 215.200
1480.851, 577.718
1482.029, 327.263
1483.206, 287.973
1484.383, 454.842
1485.560, 223.690
1486.737, 382.522
1487.914, 448.333
1489.091, 128.277
1490.267, 388.261
1491.443, 260.289
1492.619, 160.585
1493.795, 380.971
1494.971, 167.472
1496.146, 174.125
1497.322, 328.962
1498.497, 20.007
1499.672, 256.259
1500.846, 214.710
1502.021, 5.373
1503.196, 214.267
1504.370, 179.448
1505.544, 17.040
1506.718, 297.838
1507.892, 31.136
1509.065, 211.909
1510.238, 336.224
1511.412, 66.179
1512.585, 143.386
1513.758, 227.232
1514.930, 0.570
1516.103, 178.403
1517.275, 205.125
1518.447, 0.000
##END=



