##NAMES=Dravite
##RRUFFID=R050059
##IDEAL CHEMISTRY=NaMg_3_Al_6_(Si_6_O_18_)(BO_3_)_3_(OH)_3_OH
##LOCALITY=Nepal
##OWNER=RRUFF
##SOURCE=Rock Currier
##DESCRIPTION=Dark brown single crystal
##STATUS=The identification of this mineral has been confirmed by X-ray diffraction and chemical analysis
##URL=rruff.info/R050059
##MEASURED CHEMISTRY=(Na_0.79_[box]_0.16_Ca_0.05_)_Σ=1_(Mg_2.44_Al_0.29_[box]_0.14_Fe^2+^_0.08_Ti_0.05_)_Σ=3_Al_6.00_(BO_3_)_3_Si_6.00_O_18_(OH)_4_ ; H_2_O assumed ideal from stoichiometry; B_2_O_3_ estimated by difference
##PIN_ID=L00432
##ORIENTATION=Laser parallel to -c* (0 0 -1). Fiducial mark perpendicular to laser is parallel to a [1 0 0]
126.873, 0.000
128.263, 25.838
129.653, 41.620
131.042, 265.545
132.432, 345.283
133.821, 342.051
135.210, 362.417
136.599, 498.074
137.987, 557.842
139.376, 613.365
140.764, 604.477
142.152, 699.877
143.539, 632.240
144.927, 705.978
146.314, 745.850
147.701, 781.162
149.088, 800.710
150.474, 879.982
151.861, 807.089
153.247, 856.651
154.633, 682.976
156.018, 706.589
157.404, 505.309
158.789, 454.001
160.174, 386.572
161.559, 246.950
162.943, 173.086
164.327, 12.944
165.711, 2.500
167.095, 27.122
168.479, 26.181
169.862, 58.800
171.246, 18.330
172.628, 60.700
174.011, 45.918
175.394, 115.474
176.776, 168.670
178.158, 101.674
179.540, 226.570
180.922, 244.440
182.303, 257.366
183.684, 460.421
185.065, 583.669
186.446, 634.168
187.826, 718.971
189.207, 773.469
190.587, 708.677
191.967, 805.660
193.346, 829.112
194.726, 726.062
196.105, 785.537
197.484, 784.565
198.862, 891.168
200.241, 893.372
201.619, 1098.195
202.997, 1166.661
204.375, 1342.785
205.753, 1478.512
207.130, 1786.563
208.507, 2008.289
209.884, 2402.438
211.261, 2599.958
212.638, 2920.348
214.014, 3139.705
215.390, 3332.375
216.766, 3375.115
218.141, 3284.984
219.517, 3444.082
220.892, 3137.544
222.267, 3116.582
223.642, 2763.513
225.016, 2758.528
226.391, 2548.036
227.765, 2495.946
229.139, 2326.896
230.512, 2376.829
231.886, 2333.712
233.259, 2397.622
234.632, 2411.574
236.005, 2460.562
237.377, 2673.593
238.749, 2627.659
240.122, 2658.757
241.493, 2790.884
242.865, 2625.036
244.237, 2530.213
245.608, 2265.410
246.979, 1968.628
248.350, 1776.865
249.720, 1573.117
251.090, 1285.383
252.461, 1097.658
253.830, 949.941
255.200, 788.225
256.570, 615.493
257.939, 594.735
259.308, 612.948
260.677, 527.134
262.045, 516.294
263.414, 576.430
264.782, 567.544
266.150, 561.638
267.517, 697.715
268.885, 817.774
270.252, 780.819
271.619, 794.852
272.986, 946.872
274.353, 994.882
275.719, 947.884
277.085, 799.880
278.451, 781.871
279.817, 519.859
281.182, 483.844
282.548, 365.829
283.913, 249.815
285.278, 190.804
286.642, 125.797
288.007, 70.792
289.371, 101.775
290.735, 30.715
292.099, 12.726
293.462, 67.937
294.826, 71.203
296.189, 141.456
297.552, 182.663
298.914, 198.801
300.277, 71.860
301.639, 69.824
303.001, 12.649
304.363, 117.674
305.724, 102.165
307.086, 265.808
308.447, 281.636
309.808, 265.647
311.168, 264.916
312.529, 321.552
313.889, 274.595
315.249, 229.807
316.609, 112.152
317.969, 99.606
319.328, 45.155
320.687, 30.215
322.046, 36.522
323.405, 171.779
324.764, 331.001
326.122, 412.195
327.480, 534.377
328.838, 685.697
330.196, 846.438
331.553, 1016.562
332.910, 1126.674
334.267, 1175.645
335.624, 1241.055
336.981, 1440.583
338.337, 1433.809
339.693, 1643.398
341.049, 1626.086
342.405, 1701.331
343.760, 1616.938
345.116, 1821.480
346.471, 1696.962
347.826, 1764.389
349.180, 1795.762
350.535, 1992.087
351.889, 1889.367
353.243, 2169.604
354.597, 2248.800
355.950, 2532.960
357.304, 2670.086
358.657, 2795.179
360.010, 3168.242
361.362, 3339.277
362.715, 3440.287
364.067, 3703.273
365.419, 3901.237
366.771, 4299.180
368.123, 4777.106
369.474, 5285.010
370.825, 5852.871
372.176, 6270.667
373.527, 6918.352
374.877, 6995.973
376.228, 7143.567
377.578, 7011.125
378.928, 6618.604
380.277, 6155.866
381.627, 5632.768
382.976, 5139.326
384.325, 4746.237
385.674, 4261.494
387.023, 4017.329
388.371, 3633.125
389.719, 3359.940
391.067, 3106.777
392.415, 2910.638
393.762, 2718.520
395.110, 2552.427
396.457, 2465.357
397.804, 2303.312
399.150, 1990.292
400.497, 1888.297
401.843, 1844.328
403.189, 1687.385
404.535, 1656.468
405.881, 1517.578
407.226, 1470.715
408.571, 1377.880
409.916, 1281.073
411.261, 1288.296
412.605, 1060.547
413.950, 1086.827
415.294, 920.138
416.638, 949.479
417.981, 916.852
419.325, 987.256
420.668, 834.691
422.011, 818.160
423.354, 810.661
424.697, 724.195
426.039, 695.764
427.381, 760.366
428.723, 737.004
430.065, 767.676
431.406, 810.383
432.748, 792.126
434.089, 849.905
435.430, 908.721
436.770, 858.572
438.111, 754.460
439.451, 965.385
440.791, 748.348
442.131, 842.347
443.471, 845.385
444.810, 761.460
446.149, 750.130
447.488, 794.446
448.827, 618.746
450.166, 621.487
451.504, 638.455
452.842, 525.793
454.180, 543.219
455.518, 493.328
456.855, 439.609
458.193, 509.851
459.530, 392.608
460.867, 423.515
462.203, 372.020
463.540, 417.501
464.876, 413.346
466.212, 470.096
467.548, 436.881
468.883, 431.463
470.219, 459.123
471.554, 509.863
472.889, 429.732
474.224, 529.139
475.558, 477.596
476.892, 551.972
478.227, 657.843
479.561, 635.617
480.894, 777.926
482.228, 789.905
483.561, 829.344
484.894, 1033.104
486.227, 1143.748
487.559, 1137.113
488.892, 1286.119
490.224, 1333.564
491.556, 1449.981
492.888, 1488.314
494.220, 1490.892
495.551, 1487.090
496.882, 1611.336
498.213, 1692.622
499.544, 1488.947
500.874, 1661.312
502.205, 1604.715
503.535, 1529.158
504.865, 1708.641
506.194, 1627.164
507.524, 1459.727
508.853, 1343.330
510.182, 1201.974
511.511, 1200.659
512.840, 1009.387
514.168, 1030.156
515.496, 945.968
516.824, 890.822
518.152, 879.720
519.480, 866.660
520.807, 948.644
522.134, 863.672
523.461, 918.744
524.788, 1018.859
526.114, 1145.020
527.441, 1212.225
528.767, 1405.475
530.093, 1685.771
531.418, 1790.111
532.744, 1863.498
534.069, 1914.931
535.394, 2139.410
536.719, 2035.938
538.044, 2168.513
539.368, 1958.136
540.693, 1945.808
542.017, 1880.534
543.340, 1906.318
544.664, 1825.167
545.987, 1814.093
547.311, 1886.108
548.634, 1824.231
549.956, 1753.456
551.279, 1683.796
552.601, 1821.276
553.923, 1804.879
555.245, 1765.590
556.567, 1563.417
557.889, 1768.365
559.210, 1643.438
560.531, 1807.634
561.852, 1486.952
563.173, 1297.396
564.493, 1197.964
565.813, 1143.668
567.133, 1095.497
568.453, 970.450
569.773, 907.525
571.092, 871.707
572.412, 694.021
573.731, 752.447
575.049, 630.990
576.368, 656.627
577.686, 574.347
579.005, 457.158
580.323, 437.056
581.640, 452.041
582.958, 390.104
584.275, 344.234
585.593, 392.423
586.909, 222.681
588.226, 289.998
589.543, 315.373
590.859, 216.806
592.175, 231.293
593.491, 213.836
594.807, 232.434
596.122, 154.085
597.438, 146.791
598.753, 218.549
600.068, 248.357
601.382, 166.217
602.697, 273.126
604.011, 86.086
605.325, 165.097
606.639, 292.162
607.952, 253.284
609.266, 324.561
610.579, 258.716
611.892, 351.034
613.205, 324.426
614.518, 309.880
615.830, 273.396
617.142, 258.966
618.454, 301.586
619.766, 208.255
621.078, 351.984
622.389, 245.775
623.700, 142.638
625.011, 252.606
626.322, 178.677
627.632, 340.892
628.943, 271.254
630.253, 168.760
631.563, 216.409
632.872, 149.214
634.182, 189.164
635.491, 147.245
636.800, 147.427
638.109, 89.705
639.418, 53.064
640.726, 112.515
642.035, 123.054
643.343, 138.573
644.651, 250.075
645.958, 180.594
647.266, 192.109
648.573, 189.625
649.880, 215.141
651.187, 86.664
652.494, 43.838
653.800, 127.380
655.106, 168.961
656.412, 318.581
657.718, 453.240
659.024, 470.937
660.329, 633.672
661.634, 824.445
662.939, 801.254
664.244, 977.102
665.549, 958.984
666.853, 982.904
668.157, 1051.859
669.461, 960.850
670.765, 914.875
672.069, 762.936
673.372, 886.030
674.675, 757.159
675.978, 737.320
677.281, 805.515
678.583, 674.743
679.886, 653.002
681.188, 667.294
682.490, 660.618
683.792, 667.973
685.093, 731.358
686.394, 666.773
687.696, 813.218
688.997, 888.693
690.297, 854.768
691.598, 1000.729
692.898, 864.290
694.198, 995.878
695.498, 1087.494
696.798, 1227.268
698.097, 1229.482
699.397, 1361.440
700.696, 1548.345
701.995, 1814.958
703.293, 2098.731
704.592, 2279.771
705.890, 2490.936
707.188, 2685.186
708.486, 3189.226
709.784, 3656.523
711.081, 3933.710
712.378, 4255.568
713.675, 4697.970
714.972, 5131.427
716.269, 5525.067
717.565, 6327.576
718.862, 6671.843
720.158, 7505.563
721.453, 8032.006
722.749, 8775.591
724.045, 9399.526
725.340, 9952.437
726.635, 10281.943
727.930, 10428.163
729.224, 10178.730
730.519, 10000.814
731.813, 9017.575
733.107, 8611.605
734.401, 7667.972
735.694, 6932.987
736.988, 6687.911
738.281, 6681.470
739.574, 6311.958
740.867, 5941.318
742.160, 5662.675
743.452, 5621.862
744.744, 5851.232
746.036, 5740.065
747.328, 5858.700
748.620, 5957.189
749.911, 6045.920
751.202, 6474.380
752.493, 6542.611
753.784, 6760.738
755.075, 6878.586
756.365, 7246.310
757.655, 7404.103
758.945, 7611.789
760.235, 7689.458
761.525, 8197.106
762.814, 8344.734
764.103, 8602.343
765.392, 9019.934
766.681, 8967.496
767.969, 9095.041
769.258, 9372.566
770.546, 9330.063
771.834, 9477.543
773.122, 9584.995
774.409, 9702.427
775.697, 10269.832
776.984, 10517.212
778.271, 11074.566
779.558, 11551.896
780.844, 12389.199
782.131, 13176.477
783.417, 13943.724
784.703, 14560.945
785.989, 15019.463
787.274, 15615.293
788.560, 15602.420
789.845, 15689.514
791.130, 15676.575
792.415, 15163.604
793.699, 14810.598
794.983, 14177.555
796.268, 14072.446
797.552, 12927.026
798.835, 12231.120
800.119, 12171.495
801.402, 11434.224
802.686, 11276.520
803.969, 11328.846
805.251, 11050.271
806.534, 11275.462
807.816, 11502.055
809.098, 11698.608
810.380, 11805.125
811.662, 11721.603
812.944, 12018.041
814.225, 11314.441
815.506, 11280.803
816.787, 10787.122
818.068, 10083.402
819.349, 9089.641
820.629, 8405.839
821.909, 7561.993
823.189, 6768.106
824.469, 5874.177
825.749, 5270.206
827.028, 4549.191
828.307, 4010.133
829.586, 3531.031
830.865, 3121.886
832.144, 2962.693
833.422, 2632.458
834.700, 2530.178
835.978, 2316.851
837.256, 2094.479
838.534, 1922.060
839.811, 1866.594
841.088, 1594.081
842.365, 1537.521
843.642, 1199.913
844.919, 1027.257
846.195, 844.553
847.472, 701.800
848.748, 511.998
850.023, 396.147
851.299, 301.245
852.575, 163.287
853.850, 103.267
855.125, 28.175
856.400, 7.013
857.674, 73.319
858.949, 57.777
860.223, 105.380
861.497, 196.155
862.771, 135.148
864.045, 68.331
865.318, 109.667
866.591, 117.180
867.864, 132.873
869.137, 134.756
870.410, 115.833
871.682, 142.977
872.955, 133.503
874.227, 176.192
875.499, 130.055
876.770, 135.108
878.042, 118.357
879.313, 63.792
880.584, 170.384
881.855, 80.191
883.126, 104.164
884.396, 19.316
885.667, 26.396
886.937, 13.003
888.207, 8.466
889.476, 9.814
890.746, 36.042
892.015, 133.163
893.284, 208.204
894.553, 97.177
895.822, 227.063
897.090, 203.882
898.359, 277.632
899.627, 321.318
900.895, 352.944
902.163, 292.508
903.430, 352.615
904.698, 404.469
905.965, 424.864
907.232, 488.206
908.499, 572.505
909.765, 492.763
911.032, 580.975
912.298, 591.134
913.564, 667.270
914.830, 733.378
916.095, 708.458
917.361, 764.499
918.626, 844.498
919.891, 885.466
921.156, 866.380
922.420, 894.271
923.685, 954.131
924.949, 955.936
926.213, 1045.701
927.477, 1112.414
928.740, 1130.078
930.004, 1221.706
931.267, 1182.279
932.530, 1272.799
933.793, 1244.265
935.056, 1235.679
936.318, 1395.038
937.581, 1495.344
938.843, 1550.597
940.104, 1633.796
941.366, 1673.943
942.628, 1679.036
943.889, 1789.076
945.150, 1783.063
946.411, 1931.999
947.672, 1978.881
948.932, 2049.721
950.193, 2030.520
951.453, 2123.280
952.713, 2147.017
953.973, 2215.722
955.232, 2226.396
956.491, 2282.037
957.751, 2324.749
959.010, 2376.224
960.268, 2388.744
961.527, 2350.213
962.785, 2323.632
964.044, 2408.000
965.302, 2338.316
966.559, 2496.583
967.817, 2429.800
969.075, 2448.967
970.332, 2607.084
971.589, 2507.151
972.846, 2561.169
974.102, 2483.138
975.359, 2491.058
976.615, 2618.928
977.871, 2534.750
979.127, 2596.523
980.383, 2543.248
981.638, 2618.925
982.893, 2581.553
984.149, 2635.135
985.404, 2609.669
986.658, 2607.155
987.913, 2643.249
989.167, 2687.987
990.421, 2663.333
991.675, 2673.632
992.929, 2613.886
994.183, 2588.093
995.436, 2556.255
996.689, 2614.370
997.942, 2534.442
999.195, 2540.468
1000.448, 2529.888
1001.700, 2620.255
1002.952, 2518.603
1004.204, 2516.189
1005.456, 2555.811
1006.708, 2472.706
1007.959, 2577.422
1009.210, 2550.854
1010.461, 2582.141
1011.712, 2481.325
1012.963, 2561.699
1014.213, 2503.796
1015.464, 2703.984
1016.714, 2560.481
1017.964, 2779.414
1019.214, 2819.272
1020.463, 2782.929
1021.712, 2951.694
1022.962, 2947.681
1024.210, 3049.193
1025.459, 3181.962
1026.708, 3047.568
1027.956, 3240.803
1029.204, 3278.039
1030.452, 3374.657
1031.700, 3430.544
1032.948, 3531.056
1034.195, 3516.032
1035.442, 3716.309
1036.689, 3677.291
1037.936, 3910.917
1039.183, 3939.870
1040.429, 4209.890
1041.676, 4299.252
1042.922, 4481.665
1044.168, 4665.176
1045.413, 4776.669
1046.659, 4940.306
1047.904, 5323.737
1049.149, 5217.682
1050.394, 5471.953
1051.639, 5496.189
1052.884, 5562.025
1054.128, 5616.384
1055.372, 5671.230
1056.616, 5806.778
1057.860, 5644.388
1059.104, 5811.956
1060.347, 5798.696
1061.590, 5904.002
1062.833, 5945.547
1064.076, 6126.681
1065.319, 6077.147
1066.561, 6205.145
1067.803, 6712.675
1069.046, 6272.600
1070.287, 6507.384
1071.529, 6129.252
1072.771, 6058.900
1074.012, 5913.645
1075.253, 5721.314
1076.494, 5456.463
1077.735, 5022.064
1078.975, 4760.409
1080.216, 4485.114
1081.456, 4099.812
1082.696, 3823.502
1083.936, 3616.254
1085.175, 3300.930
1086.415, 3178.599
1087.654, 3016.263
1088.893, 2831.920
1090.132, 2596.571
1091.371, 2408.217
1092.609, 2282.172
1093.847, 2180.408
1095.085, 2061.123
1096.323, 2062.750
1097.561, 1967.372
1098.799, 1875.990
1100.036, 1871.604
1101.273, 1771.215
1102.510, 1791.823
1103.747, 1733.427
1104.983, 1679.029
1106.220, 1734.628
1107.456, 1629.224
1108.692, 1567.817
1109.928, 1554.409
1111.163, 1518.999
1112.399, 1646.588
1113.634, 1554.175
1114.869, 1481.761
1116.104, 1509.347
1117.339, 1404.931
1118.573, 1442.516
1119.808, 1511.826
1121.042, 1506.811
1122.276, 1498.354
1123.509, 1473.645
1124.743, 1410.448
1125.976, 1374.038
1127.210, 1292.630
1128.443, 1255.223
1129.675, 1293.820
1130.908, 1263.419
1132.141, 1418.021
1133.373, 1333.628
1134.605, 1397.237
1135.837, 1312.852
1137.068, 1308.471
1138.300, 1268.094
1139.531, 1162.723
1140.762, 847.368
1141.993, 817.020
1143.224, 706.680
1144.455, 474.345
1145.685, 592.016
1146.915, 377.695
1148.145, 297.380
1149.375, 350.090
1150.605, 301.832
1151.834, 427.583
1153.063, 277.354
1154.292, 262.146
1155.521, 357.970
1156.750, 269.839
1157.978, 263.769
1159.207, 261.755
1160.435, 310.831
1161.663, 281.001
1162.891, 298.255
1164.118, 205.572
1165.345, 231.960
1166.573, 196.436
1167.800, 297.990
1169.026, 291.625
1170.253, 227.360
1171.480, 238.177
1172.706, 205.073
1173.932, 173.089
1175.158, 179.186
1176.383, 163.466
1177.609, 170.619
1178.834, 175.937
1180.059, 163.349
1181.284, 191.831
1182.509, 153.388
1183.734, 198.000
1184.958, 202.652
1186.182, 115.354
1187.406, 196.101
1188.630, 115.893
1189.854, 69.723
1191.077, 131.582
1192.301, 202.459
1193.524, 80.367
1194.747, 97.292
1195.969, 13.235
1197.192, 6.804
1198.414, 11.168
1199.636, 50.847
1200.858, 5.866
1202.080, 15.875
1203.302, 31.879
1204.523, 68.881
1205.744, 65.902
1206.966, 50.940
1208.186, 15.988
1209.407, 133.035
1210.628, 126.134
1211.848, 115.283
1213.068, 72.476
1214.288, 63.692
1215.508, 105.928
1216.727, 3.796
1217.947, 136.476
1219.166, 100.804
1220.385, 33.828
1221.604, 65.536
1222.822, 11.922
1224.041, 23.310
1225.259, 77.703
1226.477, 12.875
1227.695, 6.456
1228.913, 24.040
1230.130, 0.628
1231.348, 39.217
1232.565, 37.197
1233.782, 40.656
1234.999, 100.001
1236.215, 31.611
1237.432, 148.236
1238.648, 113.873
1239.864, 185.523
1241.080, 114.188
1242.296, 178.866
1243.511, 210.557
1244.726, 219.262
1245.942, 290.980
1247.156, 223.713
1248.371, 200.458
1249.586, 337.218
1250.800, 248.992
1252.014, 337.779
1253.228, 342.580
1254.442, 342.395
1255.656, 352.224
1256.869, 396.066
1258.083, 342.923
1259.296, 466.793
1260.509, 397.678
1261.722, 291.576
1262.934, 386.487
1264.147, 419.413
1265.359, 421.352
1266.571, 376.304
1267.783, 392.156
1268.994, 387.813
1270.206, 370.307
1271.417, 391.320
1272.628, 379.343
1273.839, 354.370
1275.050, 316.681
1276.260, 325.166
1277.471, 302.799
1278.681, 304.694
1279.891, 332.718
1281.101, 345.796
1282.310, 344.372
1283.520, 324.155
1284.729, 310.508
1285.938, 398.548
1287.147, 326.095
1288.356, 316.846
1289.564, 280.146
1290.773, 242.594
1291.981, 234.676
1293.189, 250.349
1294.397, 215.954
1295.604, 244.910
1296.812, 247.440
1298.019, 232.232
1299.226, 203.979
1300.433, 211.772
1301.640, 282.325
1302.846, 238.056
1304.053, 180.827
1305.259, 252.307
1306.465, 107.938
1307.671, 185.376
1308.876, 189.329
1310.082, 281.833
1311.287, 269.366
1312.492, 276.072
1313.697, 188.991
1314.902, 292.614
1316.106, 198.114
1317.310, 260.557
1318.515, 246.881
1319.719, 173.586
1320.922, 251.276
1322.126, 304.982
1323.329, 166.604
1324.533, 304.822
1325.736, 217.366
1326.939, 249.014
1328.141, 393.494
1329.344, 237.024
1330.546, 311.559
1331.748, 302.506
1332.950, 216.131
1334.152, 338.843
1335.354, 299.584
1336.555, 179.086
1337.757, 291.206
1338.958, 325.671
1340.159, 294.075
1341.359, 339.062
1342.560, 251.102
1343.760, 309.251
1344.960, 317.519
1346.160, 233.430
1347.360, 253.921
1348.560, 210.039
1349.759, 276.910
1350.959, 396.037
1352.158, 234.701
1353.357, 327.800
1354.555, 391.582
1355.754, 153.711
1356.952, 366.433
1358.151, 319.521
1359.349, 243.982
1360.546, 358.948
1361.744, 238.976
1362.941, 275.841
1364.139, 274.836
1365.336, 189.652
1366.533, 275.466
1367.730, 284.739
1368.926, 153.461
1370.123, 162.362
1371.319, 216.860
1372.515, 233.266
1373.711, 232.610
1374.906, 206.831
1376.102, 108.064
1377.297, 229.257
1378.492, 151.427
1379.687, 232.067
1380.882, 259.717
1382.077, 203.376
1383.271, 354.045
1384.465, 195.724
1385.659, 167.411
1386.853, 319.106
1388.047, 266.810
1389.240, 195.521
1390.434, 302.240
1391.627, 141.967
1392.820, 277.701
1394.013, 345.441
1395.205, 251.188
1396.398, 350.938
1397.590, 312.696
1398.782, 289.456
1399.974, 371.221
1401.166, 315.986
1402.357, 268.751
1403.549, 339.518
1404.740, 163.254
1405.931, 315.983
1407.122, 273.709
1408.313, 163.409
1409.503, 221.022
1410.693, 231.611
1411.883, 114.181
1413.073, 278.731
1414.263, 131.213
1415.453, 133.658
1416.642, 201.069
1417.831, 73.446
1419.020, 167.734
1420.209, 139.966
1421.398, 67.135
1422.587, 215.279
1423.775, 73.388
1424.963, 93.460
1426.151, 136.503
1427.339, 94.516
1428.526, 15.507
1429.714, 61.431
1430.901, 42.340
1432.088, 121.219
1433.275, 89.095
1434.462, 68.979
1435.648, 183.895
1436.835, 37.115
1438.021, 58.045
1439.207, 88.227
1440.393, 11.636
1441.579, 63.182
1442.764, 60.919
1443.949, 22.770
1445.135, 75.721
1446.320, 74.811
1447.504, 43.027
1448.689, 105.221
1449.873, 8.557
1451.058, 69.922
1452.242, 152.295
1453.426, 6.324
1454.609, 115.066
1455.793, 88.464
1456.976, 52.130
1458.159, 180.283
1459.342, 199.704
1460.525, 59.866
1461.708, 146.573
1462.890, 155.021
1464.073, 156.481
1465.255, 180.956
1466.437, 90.271
1467.619, 70.758
1468.800, 189.285
1469.982, 80.105
1471.163, 273.797
1472.344, 293.554
1473.525, 139.427
1474.706, 198.435
1475.886, 178.803
1477.066, 72.989
1478.247, 288.277
1479.427, 83.727
1480.607, 176.681
1481.786, 189.251
1482.966, 90.901
1484.145, 378.705
1485.324, 278.434
1486.503, 251.388
1487.682, 241.448
1488.860, 237.413
1490.039, 91.780
1491.217, 229.260
1492.395, 88.150
1493.573, 117.897
1494.751, 155.558
1495.928, 169.783
1497.106, 168.799
1498.283, 150.832
1499.460, 146.127
1500.637, 116.401
1501.814, 118.439
1502.990, 74.988
1504.166, 220.432
1505.342, 58.940
1506.518, 77.292
1507.694, 152.173
1508.870, 20.789
1510.045, 40.168
1511.221, 149.535
1512.396, 0.271
1513.571, 120.723
1514.745, 35.292
1515.920, 2.360
1517.094, 62.377
1518.269, 74.362
1519.443, 0.000
##END=



