##NAMES=Eckermannite
##RRUFFID=R060320
##IDEAL CHEMISTRY=NaNa_2_(Mg_4_Al)Si_8_O_22_(OH)_2_
##LOCALITY=Norra Karr Complex, near Granna, Ostergotsland, Sweden
##OWNER=RRUFF
##SOURCE=Michael Scott
##DESCRIPTION=Parallel aggregate of blue elongated bladed crystals
##STATUS=The identification of this mineral is confirmed by single-crystal X-ray diffraction and chemical analysis.
##URL=rruff.info/R060320
##MEASURED CHEMISTRY=(Na_2.50_K_0.30_[box]_0.20_)_Σ=3_(Mg_2.35_Fe^2+^_1.35_Al_1.20_Mn_0.10_)_Σ=5_Si_8.00_O_22_((OH)_1.18_F_0.82_)_Σ=2_; OH estimated by charge balance, dark material
##PIN_ID=M01072
##ORIENTATION=Laser parallel to -c* (0 0 -1). Fiducial mark perpendicular to laser is parallel to -a [-1 0 0]
102.8230, 0.0000000E+00
104.0530, 4.013672
105.2840, 83.99951
106.5140, 267.2383
107.7440, 527.7432
108.9730, 566.0596
110.2030, 727.0723
111.4320, 854.6187
112.6620, 1031.176
113.8910, 1497.505
115.1200, 1886.778
116.3490, 2210.286
117.5780, 2384.812
118.8060, 2584.681
120.0350, 2623.650
121.2630, 2586.012
122.4920, 2622.338
123.7200, 2351.193
124.9480, 1967.372
126.1750, 1454.686
127.4030, 958.9648
128.6310, 709.6079
129.8580, 460.9844
131.0850, 249.2334
132.3120, 75.15430
133.5390, 107.5527
134.7660, 157.6875
135.9930, 186.8330
137.2200, 164.4565
138.4460, 44.99512
139.6720, 45.24805
140.8980, 128.1201
142.1240, 498.7100
143.3500, 843.2949
144.5760, 1371.520
145.8020, 1818.628
147.0270, 2664.478
148.2520, 3414.774
149.4780, 4496.223
150.7030, 5521.048
151.9270, 6753.476
153.1520, 7919.488
154.3770, 9006.074
155.6010, 9286.239
156.8260, 9496.987
158.0500, 8976.336
159.2740, 8044.293
160.4980, 6952.862
161.7210, 5995.031
162.9450, 5477.778
164.1690, 4983.074
165.3920, 4886.904
166.6150, 5039.246
167.8380, 5566.084
169.0610, 6133.396
170.2840, 6791.168
171.5070, 7715.385
172.7290, 8761.031
173.9510, 9809.092
175.1740, 10998.55
176.3960, 12069.31
177.6180, 13151.11
178.8390, 14407.99
180.0610, 15275.97
181.2830, 16073.08
182.5040, 16269.33
183.7250, 16420.73
184.9460, 15683.26
186.1670, 15103.93
187.3880, 13736.76
188.6090, 12213.74
189.8290, 10827.90
191.0500, 9877.218
192.2700, 8542.614
193.4900, 7690.006
194.7100, 7112.527
195.9300, 6776.251
197.1490, 6794.178
198.3690, 6948.309
199.5880, 7215.645
200.8080, 8145.184
202.0270, 8669.936
203.2460, 9685.978
204.4650, 10588.33
205.6830, 11669.07
206.9020, 12607.16
208.1200, 13916.72
209.3380, 14952.73
210.5570, 15847.30
211.7750, 16588.45
212.9920, 17182.12
214.2100, 17767.31
215.4280, 18334.97
216.6450, 18791.98
217.8620, 19189.35
219.0790, 19771.96
220.2960, 20472.67
221.5130, 21443.49
222.7300, 22198.44
223.9460, 23071.51
225.1630, 23782.70
226.3790, 24249.01
227.5950, 24736.43
228.8110, 24358.98
230.0270, 23902.63
231.2430, 22580.41
232.4580, 21131.30
233.6740, 19305.30
234.8890, 17793.42
236.1040, 16259.63
237.3190, 14768.95
238.5340, 13557.38
239.7490, 12543.91
240.9630, 11541.54
242.1780, 11103.27
243.3920, 10379.09
244.6060, 10010.00
245.8200, 9732.018
247.0340, 9364.118
248.2470, 8939.309
249.4610, 8688.819
250.6740, 8165.994
251.8880, 8219.046
253.1010, 7729.658
254.3140, 7452.708
255.5270, 7073.136
256.7390, 6593.230
257.9520, 6092.594
259.1640, 5669.127
260.3760, 4973.572
261.5880, 4539.258
262.8000, 4112.185
264.0120, 3760.356
265.2240, 3164.336
266.4350, 2792.091
267.6470, 2557.082
268.8580, 2355.353
270.0690, 1966.891
271.2800, 1757.685
272.4910, 1560.724
273.7020, 1352.000
274.9120, 1247.505
276.1230, 982.2295
277.3330, 1051.167
278.5430, 899.3105
279.7530, 990.2217
280.9630, 821.5137
282.1720, 852.9912
283.3820, 762.9150
284.5910, 698.8047
285.8000, 669.0518
287.0090, 701.4648
288.2180, 557.0371
289.4270, 629.7666
290.6360, 571.6475
291.8440, 677.6777
293.0530, 785.8535
294.2610, 714.1699
295.4690, 823.6260
296.6770, 884.2178
297.8850, 1044.450
299.0920, 1196.796
300.3000, 1491.911
301.5070, 1854.475
302.7140, 2154.537
303.9210, 2421.219
305.1280, 2874.482
306.3350, 3288.591
307.5420, 3835.198
308.7480, 4324.896
309.9540, 4788.213
311.1600, 5158.874
312.3660, 5561.482
313.5720, 5757.104
314.7780, 5914.755
315.9840, 5928.508
317.1890, 5902.113
318.3940, 5633.763
319.6000, 5466.707
320.8050, 5098.007
322.0090, 4741.044
323.2140, 4169.269
324.4190, 3772.189
325.6230, 3518.408
326.8270, 3114.669
328.0320, 2896.974
329.2360, 2651.860
330.4390, 2534.510
331.6430, 2377.514
332.8470, 2395.051
334.0500, 2321.674
335.2530, 2186.384
336.4560, 2378.192
337.6590, 2312.094
338.8620, 2171.091
340.0650, 2232.179
341.2670, 2321.349
342.4700, 2287.600
343.6720, 2301.356
344.8740, 2291.927
346.0760, 2216.870
347.2780, 2198.453
348.4790, 2113.096
349.6810, 1988.797
350.8820, 1861.555
352.0830, 1893.361
353.2840, 1866.212
354.4850, 1768.111
355.6860, 1781.049
356.8870, 1749.349
358.0870, 1724.033
359.2870, 1753.074
360.4880, 1749.144
361.6880, 1784.241
362.8870, 1801.363
364.0870, 1896.509
365.2870, 1768.679
366.4860, 1952.871
367.6850, 2060.087
368.8850, 1977.128
370.0840, 1946.579
371.2820, 1930.856
372.4810, 1900.151
373.6800, 1955.465
374.8780, 2073.798
376.0760, 2074.936
377.2740, 2065.512
378.4720, 2146.894
379.6700, 2057.290
380.8680, 2037.702
382.0650, 2208.128
383.2630, 2360.567
384.4600, 2568.019
385.6570, 2546.484
386.8540, 2704.961
388.0510, 2825.448
389.2470, 2946.948
390.4440, 3187.458
391.6400, 3238.979
392.8360, 3396.508
394.0320, 3520.095
395.2280, 3550.736
396.4240, 3623.425
397.6190, 3503.162
398.8150, 3774.943
400.0100, 3771.497
401.2050, 4040.630
402.4000, 3908.535
403.5950, 4136.476
404.7900, 4115.456
405.9840, 4453.470
407.1790, 4717.520
408.3730, 4826.602
409.5670, 5409.717
410.7610, 5741.867
411.9550, 6017.051
413.1480, 6428.264
414.3420, 7037.508
415.5350, 7607.780
416.7280, 7942.082
417.9220, 8266.405
419.1140, 8519.754
420.3070, 8523.123
421.5000, 8151.519
422.6920, 7648.929
423.8850, 6896.382
425.0770, 6764.880
426.2690, 5910.425
427.4610, 5305.016
428.6520, 3527.625
429.8440, 2701.248
431.0350, 2262.882
432.2260, 1631.528
433.4180, 1246.183
434.6090, 975.8462
435.7990, 682.5176
436.9900, 539.1953
438.1800, 358.8784
439.3710, 186.5664
440.5610, 148.2578
441.7510, 67.95264
442.9410, 5.648926
444.1310, 74.66309
445.3200, 5.021973
446.5100, 67.39648
447.6990, 72.81885
448.8880, 132.2935
450.0770, 69.85303
451.2660, 46.46826
452.4550, 157.1284
453.6430, 197.8936
454.8320, 90.78809
456.0200, 145.7578
457.2080, 205.8330
458.3960, 256.0479
459.5840, 192.4302
460.7720, 241.9497
461.9590, 322.6338
463.1460, 149.5264
464.3340, 221.5386
465.5210, 221.1431
466.7080, 213.0063
467.8940, 182.4692
469.0810, 147.9146
470.2670, 65.43555
471.4540, 150.8921
472.6400, 79.75439
473.8260, 97.78076
475.0120, 5.505859
476.1970, 139.1880
477.3830, 313.0947
478.5680, 313.3726
479.7540, 164.1680
480.9390, 321.4854
482.1240, 244.5439
483.3080, 211.0298
484.4930, 342.2778
485.6780, 490.7998
486.8620, 522.3008
488.0460, 635.8613
489.2300, 650.5103
490.4140, 706.4233
491.5980, 652.5039
492.7810, 716.4565
493.9650, 798.0654
495.1480, 860.7549
496.3310, 928.9341
497.5140, 954.3745
498.6970, 1103.548
499.8800, 1189.687
501.0620, 1374.790
502.2440, 1438.859
503.4270, 1625.895
504.6090, 1750.894
505.7910, 1979.867
506.9720, 2128.805
508.1540, 2470.728
509.3350, 2592.627
510.5170, 2594.500
511.6980, 2894.340
512.8790, 2909.143
514.0600, 3024.921
515.2400, 2988.673
516.4210, 3043.404
517.6010, 2947.112
518.7810, 2977.797
519.9620, 2881.452
521.1410, 2901.089
522.3210, 2957.726
523.5010, 3091.362
524.6800, 2961.998
525.8600, 3054.621
527.0390, 3085.252
528.2180, 3354.860
529.3970, 3474.467
530.5750, 3550.089
531.7540, 3827.727
532.9320, 4059.384
534.1110, 4446.042
535.2890, 4683.708
536.4670, 4994.372
537.6440, 5547.017
538.8220, 5975.023
540.0000, 6645.266
541.1770, 7205.877
542.3540, 7926.464
543.5310, 8807.021
544.7080, 9497.551
545.8850, 10214.56
547.0610, 10900.75
548.2380, 11568.86
549.4140, 11980.20
550.5900, 12625.50
551.7660, 12770.76
552.9420, 13018.97
554.1170, 13081.14
555.2930, 12946.24
556.4680, 12514.28
557.6430, 12223.27
558.8180, 11848.19
559.9930, 10885.06
561.1680, 9863.860
562.3430, 9312.602
563.5170, 8185.283
564.6910, 7619.902
565.8650, 6797.458
567.0390, 6005.950
568.2130, 5356.378
569.3870, 4762.742
570.5600, 4286.039
571.7340, 3885.272
572.9070, 3411.440
574.0800, 3255.542
575.2530, 2746.577
576.4250, 2735.544
577.5980, 2373.445
578.7700, 2175.278
579.9430, 2023.043
581.1150, 1920.740
582.2870, 1758.985
583.4590, 1631.858
584.6300, 1517.282
585.8020, 1398.245
586.9730, 1313.761
588.1440, 1289.707
589.3150, 1294.115
590.4860, 1049.720
591.6570, 944.8682
592.8270, 950.1709
593.9980, 828.4692
595.1680, 936.9639
596.3380, 839.9404
597.5080, 778.2300
598.6780, 654.5137
599.8480, 643.4165
601.0170, 698.0879
602.1860, 704.4302
603.3550, 585.8809
604.5240, 486.2163
605.6930, 316.2144
606.8620, 322.0332
608.0310, 163.1655
609.1990, 143.0015
610.3670, 85.79590
611.5350, 75.54248
612.7030, 43.70068
613.8710, 41.08496
615.0390, 25.89551
616.2060, 50.43604
617.3730, 9.902832
618.5410, 33.86523
619.7080, 14.38330
620.8740, 28.78174
622.0410, 8.929199
623.2080, 16.80518
624.3740, 21.43506
625.5400, 33.03809
626.7060, 74.35693
627.8720, 50.33350
629.0380, 33.83496
630.2040, 156.9058
631.3690, 141.9028
632.5340, 148.8252
633.6990, 318.6733
634.8640, 291.4590
636.0290, 209.4380
637.1940, 334.0918
638.3580, 465.2358
639.5230, 431.2871
640.6870, 504.4609
641.8510, 625.5928
643.0150, 493.8296
644.1790, 652.6621
645.3420, 608.7207
646.5060, 710.8237
647.6690, 880.1069
648.8320, 958.8721
649.9950, 1051.476
651.1580, 1136.035
652.3200, 1132.827
653.4830, 1307.573
654.6450, 1340.003
655.8070, 1463.561
656.9690, 1662.132
658.1310, 1743.424
659.2930, 1998.270
660.4540, 2226.273
661.6160, 2404.818
662.7770, 2722.139
663.9380, 3071.617
665.0990, 3353.931
666.2600, 3742.306
667.4200, 4217.632
668.5810, 4688.653
669.7410, 5429.744
670.9010, 6171.143
672.0610, 7093.358
673.2210, 8352.249
674.3810, 9880.783
675.5400, 11493.20
676.6990, 13937.62
677.8590, 16340.06
679.0180, 19532.30
680.1760, 23254.50
681.3350, 27609.21
682.4940, 32262.97
683.6520, 37659.01
684.8100, 42659.46
685.9680, 47180.65
687.1260, 50592.84
688.2840, 52002.48
689.4420, 50966.68
690.5990, 47561.27
691.7560, 42619.64
692.9140, 37154.36
694.0710, 31569.76
695.2270, 26242.25
696.3840, 21685.50
697.5410, 18150.67
698.6970, 15166.76
699.8530, 12851.79
701.0090, 10872.74
702.1650, 9563.626
703.3210, 8394.435
704.4760, 7493.173
705.6320, 6741.840
706.7870, 6272.435
707.9420, 5708.959
709.0970, 5223.413
710.2520, 5179.795
711.4060, 4764.108
712.5610, 4597.351
713.7150, 4331.525
714.8690, 4381.627
716.0230, 4170.662
717.1770, 4018.627
718.3310, 3900.525
719.4840, 3723.354
720.6380, 3508.114
721.7910, 3231.808
722.9440, 2951.434
724.0970, 2758.997
725.2490, 2463.518
726.4020, 2251.979
727.5540, 1865.396
728.7070, 1791.773
729.8590, 1449.126
731.0110, 1264.438
732.1620, 1136.706
733.3140, 1081.959
734.4650, 893.2090
735.6170, 833.4282
736.7680, 829.6333
737.9190, 765.8398
739.0700, 802.0625
740.2200, 708.2856
741.3710, 796.5234
742.5210, 667.7979
743.6710, 748.0635
744.8210, 787.7744
745.9710, 794.5952
747.1210, 869.8682
748.2700, 906.5854
749.4200, 977.2188
750.5690, 1004.928
751.7180, 1124.083
752.8670, 1155.287
754.0160, 1198.068
755.1640, 1235.330
756.3130, 1427.302
757.4610, 1402.452
758.6090, 1499.752
759.7570, 1433.078
760.9050, 1407.583
762.0530, 1306.583
763.2000, 1239.740
764.3470, 1125.545
765.4940, 922.2900
766.6410, 816.8960
767.7880, 688.3330
768.9350, 573.4258
770.0810, 548.2695
771.2280, 497.1606
772.3740, 482.3145
773.5200, 236.3071
774.6660, 299.7310
775.8120, 158.8032
776.9570, 163.0630
778.1030, 164.2734
779.2480, 97.43555
780.3930, 98.54541
781.5380, 143.6030
782.6830, 18.61377
783.8270, 83.55273
784.9720, 22.55859
786.1160, 0.7612300
787.2600, 15.95898
788.4040, 35.61133
789.5480, 67.20654
790.6910, 10.24805
791.8350, 8.220215
792.9780, 30.37939
794.1210, 12.79688
795.2640, 29.05273
796.4070, 7.330566
797.5500, 45.57520
798.6920, 120.5703
799.8350, 119.6909
800.9770, 124.9375
802.1190, 77.31006
803.2610, 160.7822
804.4030, 51.39697
805.5440, 129.0952
806.6850, 196.9150
807.8270, 204.8926
808.9680, 221.0278
810.1090, 155.3301
811.2490, 184.7617
812.3900, 154.3369
813.5300, 94.03809
814.6710, 97.83154
815.8110, 145.7178
816.9510, 148.7197
818.0910, 80.83691
819.2300, 85.03271
820.3700, 61.30664
821.5090, 21.80859
822.6480, 55.02539
823.7870, 10.53857
824.9260, 12.92529
826.0640, 66.42090
827.2030, 41.97461
828.3410, 76.56982
829.4790, 7.776367
830.6170, 58.09961
831.7550, 10.40430
832.8930, 138.6885
834.0310, 91.95654
835.1680, 115.2085
836.3050, 129.4448
837.4420, 84.66553
838.5790, 42.87256
839.7160, 168.0659
840.8520, 39.24561
841.9890, 173.4136
843.1250, 176.5693
844.2610, 102.7144
845.3970, 201.8477
846.5330, 118.9712
847.6680, 70.08594
848.8040, 128.1909
849.9390, 225.2881
851.0740, 199.3779
852.2090, 281.4604
853.3440, 230.5366
854.4780, 222.6826
855.6130, 69.67139
856.7470, 164.7314
857.8810, 133.7881
859.0150, 119.8403
860.1490, 141.8901
861.2830, 109.2871
862.4160, 99.09277
863.5490, 84.02734
864.6830, 72.07129
865.8160, 74.11426
866.9480, 101.1572
868.0810, 201.2002
869.2140, 140.2451
870.3460, 86.29102
871.4780, 66.33838
872.6100, 208.3872
873.7420, 131.4390
874.8740, 178.4932
876.0050, 190.5513
877.1370, 186.9829
878.2680, 217.6738
879.3990, 192.7412
880.5300, 278.8125
881.6600, 220.8901
882.7910, 335.9746
883.9210, 355.0723
885.0520, 430.1855
886.1820, 600.3174
887.3120, 596.4707
888.4410, 647.6489
889.5710, 656.8516
890.7000, 809.0947
891.8300, 905.3853
892.9590, 1091.707
894.0880, 1220.074
895.2160, 1346.479
896.3450, 1392.929
897.4730, 1593.418
898.6020, 1785.940
899.7300, 1914.652
900.8580, 2120.250
901.9860, 2286.723
903.1130, 2473.403
904.2410, 2738.114
905.3680, 2902.846
906.4950, 3095.598
907.6220, 3453.371
908.7490, 3816.161
909.8760, 3977.711
911.0020, 4238.537
912.1280, 4440.831
913.2550, 4710.172
914.3810, 4855.552
915.5060, 5096.536
916.6320, 5105.577
917.7580, 5138.003
918.8830, 5205.163
920.0080, 5095.238
921.1330, 4956.117
922.2580, 4921.478
923.3830, 4669.964
924.5070, 4696.455
925.6310, 4355.674
926.7560, 4195.928
927.8800, 3899.463
929.0040, 3818.709
930.1270, 3520.219
931.2510, 3210.831
932.3740, 3126.884
933.4970, 3034.764
934.6200, 2890.090
935.7430, 2720.639
936.8660, 2595.000
937.9890, 2539.512
939.1110, 2419.943
940.2330, 2336.397
941.3550, 2231.157
942.4770, 2151.951
943.5990, 1963.230
944.7200, 1986.766
945.8420, 1944.612
946.9630, 1833.796
948.0840, 1893.092
949.2050, 1839.386
950.3260, 1969.642
951.4460, 1961.097
952.5670, 2101.562
953.6870, 2290.488
954.8070, 2250.386
955.9270, 2462.990
957.0470, 2595.199
958.1660, 2818.658
959.2860, 3005.086
960.4050, 3208.061
961.5240, 3215.462
962.6430, 3387.511
963.7620, 3659.742
964.8810, 3745.646
965.9990, 4058.868
967.1170, 4234.980
968.2350, 4637.361
969.3530, 4940.796
970.4710, 5229.283
971.5890, 5624.832
972.7060, 5990.273
973.8240, 6543.109
974.9410, 6837.835
976.0580, 7358.617
977.1740, 7851.449
978.2910, 8261.336
979.4080, 8745.274
980.5240, 9692.269
981.6400, 10846.31
982.7560, 11296.41
983.8720, 11853.46
984.9870, 12245.80
986.1030, 12390.08
987.2180, 12645.41
988.3330, 12817.80
989.4480, 13363.25
990.5630, 13180.75
991.6780, 13245.31
992.7920, 12929.92
993.9070, 12700.59
995.0210, 12558.32
996.1350, 12268.10
997.2490, 11810.94
998.3620, 11357.84
999.4760, 10997.78
1000.589, 10507.80
1001.702, 10273.87
1002.815, 9991.003
1003.928, 9487.190
1005.041, 9002.434
1006.153, 8713.731
1007.266, 8409.087
1008.378, 8163.500
1009.490, 7784.973
1010.602, 7616.501
1011.713, 7583.089
1012.825, 7105.733
1013.936, 6828.432
1015.047, 6687.187
1016.158, 6315.997
1017.269, 6006.864
1018.380, 5799.786
1019.490, 5476.505
1020.601, 5147.799
1021.711, 4941.890
1022.821, 4681.039
1023.931, 4411.242
1025.040, 4225.502
1026.150, 3929.828
1027.259, 3733.210
1028.368, 3538.645
1029.477, 3286.136
1030.586, 2992.680
1031.695, 3014.279
1032.803, 2836.933
1033.912, 2624.639
1035.020, 2405.400
1036.128, 2240.214
1037.236, 2213.083
1038.343, 2165.003
1039.451, 2453.978
1040.558, 2340.298
1041.665, 2214.452
1042.772, 2375.219
1043.879, 1812.548
1044.986, 1875.787
1046.093, 1758.134
1047.199, 1862.515
1048.305, 1945.046
1049.411, 1879.645
1050.517, 1927.717
1051.623, 1896.439
1052.728, 1881.445
1053.833, 1846.997
1054.939, 1987.674
1056.044, 1999.747
1057.148, 2121.646
1058.253, 2184.604
1059.358, 2265.063
1060.462, 2464.119
1061.566, 2427.020
1062.670, 2429.336
1063.774, 2482.626
1064.878, 2810.454
1065.981, 2917.399
1067.085, 3140.676
1068.188, 3412.814
1069.291, 3680.129
1070.394, 3973.181
1071.496, 4394.719
1072.599, 4820.516
1073.701, 5295.520
1074.803, 5950.514
1075.905, 6528.612
1077.007, 7309.521
1078.109, 8063.696
1079.210, 9283.292
1080.312, 10158.15
1081.413, 11334.82
1082.514, 12572.83
1083.615, 13492.89
1084.715, 14682.05
1085.816, 15072.33
1086.916, 15601.44
1088.016, 15428.56
1089.116, 14684.00
1090.216, 13399.57
1091.316, 12462.85
1092.415, 10847.99
1093.515, 9608.780
1094.614, 8475.991
1095.713, 7273.671
1096.812, 6525.848
1097.910, 5891.742
1099.009, 5145.784
1100.107, 4826.391
1101.205, 4381.683
1102.303, 3941.437
1103.401, 3743.361
1104.499, 3583.160
1105.596, 3298.137
1106.693, 3189.977
1107.791, 3070.841
1108.888, 3036.726
1109.984, 2686.663
1111.081, 2766.548
1112.177, 2632.507
1113.274, 2690.426
1114.370, 2467.140
1115.466, 2523.003
1116.562, 2467.778
1117.657, 2398.475
1118.753, 2269.092
1119.848, 2266.486
1120.943, 2298.745
1122.038, 2297.185
1123.133, 2154.515
1124.228, 2147.115
1125.322, 2131.044
1126.416, 2076.517
1127.510, 2032.856
1128.604, 1948.970
1129.698, 1907.845
1130.792, 1818.093
1131.885, 1764.854
1132.978, 1836.422
1134.071, 1726.817
1135.164, 1745.130
1136.257, 1632.458
1137.350, 1602.954
1138.442, 1552.646
1139.534, 1616.393
1140.627, 1502.798
1141.718, 1458.370
1142.810, 1329.390
1143.902, 1246.968
1144.993, 1275.400
1146.084, 1084.842
1147.176, 1195.294
1148.266, 1075.757
1149.357, 959.4639
1150.448, 992.1094
1151.538, 918.5996
1152.628, 893.0986
1153.718, 862.3291
1154.808, 764.8452
1155.898, 765.2817
1156.988, 680.5137
1158.077, 697.1416
1159.166, 669.6831
1160.255, 578.3926
1161.344, 558.6426
1162.433, 448.4971
1163.521, 438.0557
1164.610, 445.6182
1165.698, 377.1860
1166.786, 287.7568
1167.874, 359.4395
1168.961, 307.0137
1170.049, 212.7622
1171.136, 183.3389
1172.224, 96.91602
1173.311, 62.49316
1174.397, 8.930664
1175.484, 102.6431
1176.571, 0.7856450
1177.657, 1.783203
1178.743, 69.65234
1179.829, 7.110840
1180.915, 114.5762
1182.001, 7.087402
1183.086, 16.60547
1184.171, 113.1338
1185.256, 31.71289
1186.341, 9.307617
1187.426, 39.08740
1188.511, 36.92236
1189.595, 116.1426
1190.680, 18.82178
1191.764, 62.30371
1192.848, 146.2480
1193.932, 5.938965
1195.015, 115.8843
1196.099, 82.77686
1197.182, 84.72217
1198.265, 126.7227
1199.348, 2.803223
1200.431, 74.90137
1201.513, 43.05566
1202.596, 27.24902
1203.678, 107.4766
1204.760, 135.7808
1205.842, 54.17920
1206.924, 15.62939
1208.005, 48.11328
1209.087, 19.64893
1210.168, 68.22363
1211.249, 93.86426
1212.330, 32.58447
1213.411, 30.32031
1214.491, 2.860352
1215.572, 4.007324
1216.652, 101.8813
1217.732, 35.86182
1218.812, 117.9009
1219.891, 22.04248
1220.971, 69.76123
1222.050, 42.45703
1223.129, 34.74219
1224.208, 71.00244
1225.287, 28.43555
1226.366, 65.93115
1227.444, 43.51025
1228.523, 3.838867
1229.601, 98.85742
1230.679, 45.34277
1231.757, 75.51123
1232.834, 13.70703
1233.912, 84.81787
1234.989, 32.09912
1236.066, 93.91113
1237.143, 97.89453
1238.220, 101.8496
1239.297, 98.80664
1240.373, 120.2163
1241.449, 111.5811
1242.526, 146.4258
1243.601, 67.24219
1244.677, 38.02344
1245.753, 70.75879
1246.828, 76.47705
1247.904, 82.65576
1248.979, 96.39014
1250.054, 109.3623
1251.128, 100.9258
1252.203, 111.9189
1253.277, 98.95410
1254.351, 87.41748
1255.426, 112.8433
1256.499, 96.23535
1257.573, 174.5908
1258.647, 162.9146
1259.720, 189.2080
1260.793, 73.46973
1261.866, 81.68652
1262.939, 89.85986
1264.012, 206.9922
1265.084, 189.0962
1266.157, 152.1680
1267.229, 134.2070
1268.301, 133.1499
1269.373, 103.1777
1270.444, 156.1035
1271.516, 124.9946
1272.587, 164.8467
1273.658, 295.6997
1274.729, 210.4849
1275.800, 223.2368
1276.871, 242.9556
1277.941, 163.6484
1279.011, 176.2979
1280.082, 231.9131
1281.151, 226.4941
1282.221, 136.0405
1283.291, 253.0142
1284.360, 168.4854
1285.430, 80.92432
1286.499, 207.3076
1287.568, 325.6758
1288.636, 193.9893
1289.705, 416.2656
1290.773, 309.5073
1291.841, 323.7139
1292.909, 262.9741
1293.977, 258.7827
1295.045, 275.9863
1296.113, 219.0522
1297.180, 255.0811
1298.247, 207.1270
1299.314, 286.0835
1300.381, 330.0044
1301.448, 356.9004
1302.514, 268.8335
1303.580, 381.5259
1304.647, 269.3140
1305.713, 305.0142
1306.778, 490.6992
1307.844, 416.2524
1308.910, 331.7573
1309.975, 346.8101
1311.040, 376.2314
1312.105, 364.4316
1313.170, 361.6528
1314.234, 384.6265
1315.299, 326.8193
1316.363, 308.2134
1317.427, 275.5728
1318.491, 324.1138
1319.555, 302.5264
1320.618, 297.2534
1321.682, 320.3701
1322.745, 254.5444
1323.808, 283.2178
1324.871, 354.7974
1325.933, 238.0845
1326.996, 303.5684
1328.058, 341.2104
1329.121, 338.6172
1330.183, 347.9907
1331.244, 334.5615
1332.306, 314.7886
1333.368, 273.7832
1334.429, 273.8179
1335.490, 248.0054
1336.551, 235.0225
1337.612, 307.6646
1338.672, 198.1543
1339.733, 217.0859
1340.793, 178.8359
1341.853, 264.2246
1342.913, 261.6875
1343.973, 194.9551
1345.033, 220.4424
1346.092, 224.9404
1347.151, 293.1592
1348.210, 228.2666
1349.269, 238.6841
1350.328, 223.2598
1351.386, 133.1953
1352.445, 234.7339
1353.503, 189.9038
1354.561, 196.5249
1355.619, 154.4575
1356.677, 221.2080
1357.734, 213.4248
1358.791, 144.2749
1359.849, 119.1191
1360.906, 244.0356
1361.962, 198.0840
1363.019, 174.9819
1364.075, 280.0391
1365.132, 232.0361
1366.188, 115.0156
1367.244, 139.2471
1368.300, 134.2349
1369.355, 148.1533
1370.411, 201.1113
1371.466, 194.3735
1372.521, 137.4590
1373.576, 114.5693
1374.631, 217.7603
1375.685, 121.0283
1376.740, 233.5210
1377.794, 135.1499
1378.848, 214.5996
1379.902, 215.1587
1380.955, 152.4800
1382.009, 170.4419
1383.062, 165.8608
1384.115, 142.9053
1385.168, 138.5830
1386.221, 148.2065
1387.274, 160.8486
1388.326, 194.9780
1389.379, 165.4565
1390.431, 162.8398
1391.483, 114.3701
1392.534, 147.9277
1393.586, 120.3159
1394.637, 172.5063
1395.689, 159.6074
1396.740, 157.1104
1397.791, 143.4102
1398.841, 179.2563
1399.892, 98.65088
1400.942, 135.2559
1401.993, 155.6494
1403.043, 160.5596
1404.092, 103.7285
1405.142, 126.2627
1406.192, 116.9360
1407.241, 106.4468
1408.290, 187.2749
1409.339, 33.81055
1410.388, 141.0537
1411.437, 127.9565
1412.485, 151.8423
1413.533, 93.94824
1414.581, 105.1328
1415.629, 107.1436
1416.677, 164.3027
1417.725, 151.4507
1418.772, 74.58545
1419.819, 16.70752
1420.867, 69.87598
1421.913, 113.9717
1422.960, 93.94629
1424.007, 80.00781
1425.053, 192.8779
1426.099, 108.9087
1427.145, 132.6792
1428.191, 74.68701
1429.237, 89.08643
1430.282, 90.91797
1431.328, 129.6284
1432.373, 132.5898
1433.418, 155.5181
1434.462, 141.2876
1435.507, 159.3667
1436.552, 114.3975
1437.596, 77.32080
1438.640, 94.23535
1439.684, 189.1636
1440.728, 179.0879
1441.771, 239.8950
1442.815, 186.6851
1443.858, 152.4556
1444.901, 150.2339
1445.944, 152.9893
1446.986, 152.7329
1448.029, 155.5269
1449.071, 136.2583
1450.113, 151.5527
1451.155, 80.75098
1452.197, 166.5010
1453.239, 105.4219
1454.280, 97.04736
1455.322, 145.8340
1456.363, 78.64355
1457.404, 162.5420
1458.444, 57.45605
1459.485, 39.39697
1460.525, 65.36914
1461.566, 58.39648
1462.606, 70.44971
1463.646, 52.59375
1464.685, 17.78564
1465.725, 7.922363
1466.764, 67.23975
1467.803, 32.64795
1468.842, 119.1235
1469.881, 116.5679
1470.920, 120.0444
1471.958, 139.0278
1472.997, 124.7134
1474.035, 131.5020
1475.073, 96.96729
1476.111, 99.43750
1477.148, 64.89307
1478.186, 42.37305
1479.223, 90.84863
1480.260, 56.32080
1481.297, 11.20361
1482.334, 114.2725
1483.370, 8.739746
1484.407, 55.77490
1485.443, 75.71875
1486.479, 91.19971
1487.515, 53.68457
1488.550, 49.18018
1489.586, 80.63281
1490.621, 72.13184
1491.656, 8.618164
1492.691, 70.11572
1493.726, 112.6152
1494.761, 142.4307
1495.795, 34.94189
1496.829, 41.44238
1497.863, 69.98145
1498.897, 82.38770
1499.931, 86.71094
1500.965, 90.25293
1501.998, 130.7222
1503.031, 110.2666
1504.064, 108.6670
1505.097, 48.21387
1506.130, 84.77344
1507.162, 94.34766
1508.195, 117.8765
1509.227, 106.4800
1510.259, 84.10107
1511.291, 116.7441
1512.322, 122.4106
1513.354, 93.10156
1514.385, 102.8188
1515.416, 11.43652
1516.447, 115.3345
1517.478, 59.13574
1518.508, 129.8643
1519.539, 74.44434
1520.569, 107.2432
1521.599, 81.47266
1522.629, 301.5610
1523.658, 155.1094
1524.688, 197.0688
1525.717, 30.98389
1526.746, 39.90918
1527.775, 104.8467
1528.804, 138.5977
1529.833, 108.9976
1530.861, 81.09473
1531.890, 149.8994
1532.918, 69.52637
1533.946, 96.10156
1534.973, 11.06787
1536.001, 150.6035
1537.028, 76.00781
1538.055, 139.4854
1539.082, 49.18115
1540.109, 115.8955
1541.136, 133.6128
1542.163, 55.22412
1543.189, 130.9399
1544.215, 36.65283
1545.241, 107.3599
1546.267, 55.05566
1547.292, 47.66406
1548.318, 181.1826
1549.343, 54.67676
1550.368, 35.83057
1551.393, 226.6436
1552.418, 216.1709
1553.442, 227.4995
1554.467, 343.9028
1555.491, 344.7476
1556.515, 68.98682
1557.539, 134.5981
1558.562, 69.18604
1559.586, 27.75195
1560.609, 161.2812
1561.632, 69.29297
1562.655, 152.7769
1563.678, 155.4395
1564.701, 37.79395
1565.723, 75.25000
1566.745, 72.27441
1567.768, 68.28906
1568.789, 81.26465
1569.811, 56.55664
1570.833, 6.501465
1571.854, 70.31641
1572.875, 13.86719
1573.896, 84.79785
1574.917, 94.86963
1575.938, 0.3637700
1576.958, 0.0000000E+00
##END=



