##NAMES=Edingtonite
##RRUFFID=R040003
##IDEAL CHEMISTRY=Ba(Si_3_Al_2_)O_10_&#183;4H_2_O
##LOCALITY=Bohl, Sweden
##OWNER=RRUFF
##SOURCE=University of Arizona Mineral Museum
##DESCRIPTION=Colorless tetragonal prism
##STATUS=The identification of this mineral has been confirmed by X-ray diffraction and chemical analysis
##URL=rruff.info/R040003
##MEASURED CHEMISTRY=Ba_1.00_(Si_3.00_Al_2.00_)O_10_Â·4H_2_O; trace amounts of Na; H_2_O estimated by difference
##PIN_ID=m00026
##ORIENTATION=Laser parallel to a* (1 0 0). Fiducial mark perpendicular to laser is parallel to c [0 0 1]
123.286, 0.000
124.675, 8.830
126.063, 214.461
127.452, 48.889
128.840, 288.213
130.228, 854.160
131.615, 691.594
133.003, 1288.109
134.390, 1331.951
135.777, 1740.832
137.164, 1803.318
138.550, 1688.641
139.937, 1877.176
141.323, 1659.475
142.709, 1967.107
144.094, 1855.463
145.480, 2253.582
146.865, 2911.084
148.250, 3519.367
149.635, 4657.754
151.019, 5192.650
152.403, 6940.084
153.788, 7673.539
155.171, 8679.877
156.555, 9013.402
157.939, 8712.037
159.322, 8192.277
160.705, 6840.113
162.088, 6229.477
163.470, 5109.953
164.853, 4559.199
166.235, 3954.797
167.617, 3156.377
168.998, 2931.957
170.380, 2256.055
171.761, 1831.887
173.142, 1618.459
174.523, 1474.385
175.904, 1415.447
177.284, 997.271
178.664, 1140.180
180.044, 796.195
181.424, 757.023
182.803, 446.689
184.183, 566.521
185.562, 353.982
186.940, 226.043
188.319, 258.324
189.698, 261.527
191.076, 143.652
192.454, 173.410
193.831, 48.428
195.209, 22.891
196.586, 64.248
197.963, 110.441
199.340, 221.877
200.717, 225.941
202.093, 529.621
203.470, 245.348
204.846, 329.541
206.221, 397.469
207.597, 553.652
208.972, 205.770
210.347, 329.637
211.722, 273.000
213.097, 88.758
214.472, 420.447
215.846, 180.154
217.220, 278.410
218.594, 15.404
219.967, 112.814
221.341, 180.057
222.714, 103.496
224.087, 4.494
225.460, 1.533
226.832, 237.250
228.204, 133.389
229.577, 17.145
230.948, 159.936
232.320, 182.537
233.692, 433.953
235.063, 473.426
236.434, 741.568
237.805, 738.426
239.175, 613.684
240.545, 837.115
241.916, 439.377
243.286, 681.236
244.655, 382.756
246.025, 473.941
247.394, 476.316
248.763, 258.650
250.132, 352.016
251.501, 64.107
252.869, 25.096
254.237, 66.047
255.605, 15.650
256.973, 54.854
258.340, 47.227
259.708, 169.971
261.075, 66.631
262.442, 93.262
263.808, 20.584
265.175, 184.666
266.541, 31.002
267.907, 233.584
269.273, 41.705
270.639, 173.461
272.004, 78.258
273.369, 194.115
274.734, 290.277
276.099, 176.740
277.463, 293.635
278.828, 70.957
280.192, 208.693
281.556, 96.924
282.919, 75.686
284.283, 224.885
285.646, 105.539
287.009, 124.400
288.372, 41.424
289.734, 28.748
291.097, 94.188
292.459, 97.803
293.821, 0.404
295.183, 273.486
296.544, 185.004
297.905, 206.010
299.266, 286.469
300.627, 116.355
301.988, 227.162
303.348, 256.088
304.709, 344.754
306.069, 372.770
307.428, 369.854
308.788, 566.594
310.147, 372.031
311.507, 567.117
312.865, 541.227
314.224, 414.668
315.583, 627.455
316.941, 389.576
318.299, 661.008
319.657, 501.736
321.015, 641.770
322.372, 421.092
323.729, 469.596
325.086, 567.252
326.443, 424.189
327.800, 680.443
329.156, 466.020
330.512, 550.930
331.868, 485.193
333.224, 688.791
334.579, 661.773
335.935, 684.047
337.290, 765.564
338.645, 626.371
339.999, 796.658
341.354, 876.381
342.708, 675.668
344.062, 943.908
345.416, 861.600
346.769, 1037.609
348.123, 923.742
349.476, 1008.617
350.829, 1102.564
352.182, 1016.113
353.534, 1299.160
354.887, 1210.639
356.239, 1431.955
357.591, 1538.734
358.942, 1427.146
360.294, 1669.859
361.645, 1637.482
362.996, 1705.070
364.347, 1501.400
365.698, 1519.697
367.048, 1464.719
368.398, 1010.166
369.748, 1315.725
371.098, 1062.379
372.448, 1145.119
373.797, 1029.475
375.146, 883.010
376.495, 1172.488
377.844, 857.246
379.192, 1119.051
380.540, 1012.188
381.889, 948.201
383.236, 1058.252
384.584, 949.707
385.932, 1188.246
387.279, 1043.537
388.626, 998.617
389.973, 1100.510
391.319, 1080.660
392.666, 1266.607
394.012, 1077.117
395.358, 1337.924
396.704, 1161.164
398.049, 1054.641
399.394, 1329.355
400.740, 1153.963
402.084, 1497.955
403.429, 1312.801
404.774, 1295.623
406.118, 1359.664
407.462, 1191.898
408.806, 1194.838
410.150, 1087.738
411.493, 1018.758
412.836, 1140.490
414.179, 1058.449
415.522, 1085.047
416.865, 863.105
418.207, 1339.293
419.549, 1117.062
420.891, 1350.201
422.233, 1390.016
423.575, 1438.193
424.916, 1557.070
426.257, 1601.416
427.598, 1875.521
428.939, 1866.998
430.279, 2114.000
431.619, 2021.719
432.959, 2066.789
434.299, 2298.418
435.639, 2102.348
436.978, 1980.473
438.318, 1935.639
439.657, 1583.545
440.996, 1555.633
442.334, 1379.092
443.673, 1089.664
445.011, 1141.678
446.349, 774.445
447.687, 993.617
449.024, 652.977
450.361, 677.947
451.699, 713.068
453.036, 431.668
454.372, 591.486
455.709, 367.959
457.045, 658.248
458.381, 1207.012
459.717, 955.795
461.053, 625.074
462.388, 242.742
463.724, 541.211
465.059, 449.775
466.394, 448.996
467.728, 508.234
469.063, 427.324
470.397, 697.080
471.731, 495.869
473.065, 635.443
474.398, 594.773
475.732, 623.443
477.065, 752.865
478.398, 661.162
479.731, 820.514
481.063, 889.070
482.396, 618.088
483.728, 966.062
485.060, 1324.127
486.391, 1159.639
487.723, 1270.145
489.054, 1018.773
490.385, 1446.406
491.716, 1194.299
493.047, 1491.850
494.377, 1550.164
495.708, 1498.281
497.038, 1966.410
498.368, 1734.805
499.697, 1922.562
501.027, 1710.965
502.356, 2019.635
503.685, 1847.418
505.014, 1986.264
506.342, 2104.725
507.671, 1973.941
508.999, 2262.562
510.327, 2362.131
511.655, 2531.416
512.982, 3020.320
514.310, 3043.312
515.637, 3822.967
516.964, 4144.100
518.291, 5174.785
519.617, 6635.688
520.944, 7811.477
522.270, 10321.914
523.596, 12888.566
524.921, 17209.361
526.247, 22250.412
527.572, 28166.488
528.897, 33636.355
530.222, 34427.066
531.547, 33966.656
532.871, 29426.732
534.196, 24018.664
535.520, 19237.660
536.844, 14568.414
538.167, 11557.434
539.491, 9136.854
540.814, 7096.602
542.137, 6065.396
543.460, 4604.812
544.783, 4193.686
546.105, 3283.648
547.427, 2853.121
548.749, 2642.482
550.071, 1892.295
551.393, 1992.057
552.714, 1642.084
554.035, 1421.932
555.356, 1371.957
556.677, 931.971
557.998, 1221.771
559.318, 861.754
560.638, 971.719
561.958, 691.666
563.278, 561.619
564.597, 881.539
565.917, 491.439
567.236, 471.334
568.555, 591.219
569.874, 471.182
571.192, 700.930
572.511, 370.791
573.829, 442.096
575.147, 611.982
576.464, 291.656
577.782, 581.568
579.099, 101.492
580.416, 471.955
581.733, 511.906
583.050, 244.029
584.366, 514.488
585.683, 284.762
586.999, 515.688
588.315, 395.828
589.630, 367.012
590.946, 587.697
592.261, 138.113
593.576, 404.260
594.891, 224.574
596.206, 275.561
597.520, 466.605
598.834, 227.166
600.148, 438.781
601.462, 309.439
602.776, 290.760
604.089, 452.240
605.402, 273.041
606.715, 602.863
608.028, 133.639
609.341, 345.924
610.653, 367.883
611.965, 21.971
613.277, 269.045
614.589, 108.836
615.901, 309.809
617.212, 517.045
618.523, 487.918
619.834, 770.105
621.145, 699.906
622.456, 1076.121
623.766, 1386.822
625.076, 1307.109
626.386, 2043.564
627.696, 1574.535
629.006, 1635.848
630.315, 1444.949
631.624, 857.250
632.933, 840.695
634.242, 602.248
635.551, 623.080
636.859, 556.189
638.167, 357.012
639.475, 618.182
640.783, 339.182
642.090, 919.994
643.398, 991.457
644.705, 922.262
646.012, 1324.277
647.318, 1165.197
648.625, 1375.992
649.931, 1513.285
651.237, 1284.080
652.543, 1745.385
653.849, 1416.609
655.155, 1537.393
656.460, 1423.088
657.765, 1213.863
659.070, 1464.877
660.375, 939.893
661.679, 870.652
662.984, 795.400
664.288, 286.146
665.592, 446.941
666.895, 148.154
668.199, 708.869
669.502, 404.346
670.805, 44.961
672.108, 335.693
673.411, 76.336
674.713, 176.953
676.016, 117.883
677.318, 261.537
678.620, 218.891
679.921, 110.588
681.223, 119.750
682.524, 50.074
683.825, 99.633
685.126, 40.590
686.427, 179.205
687.727, 160.889
689.028, 130.969
690.328, 38.969
691.628, 131.053
692.927, 11.064
694.227, 111.053
695.526, 361.025
696.825, 100.986
698.124, 490.934
699.423, 250.867
700.721, 560.795
702.020, 660.709
703.318, 650.609
704.616, 910.498
705.913, 820.375
707.211, 860.236
708.508, 880.086
709.805, 809.920
711.102, 1049.742
712.399, 539.549
713.695, 929.340
714.992, 819.119
716.288, 498.885
717.584, 868.637
718.879, 258.373
720.175, 818.096
721.470, 637.803
722.765, 307.494
724.060, 657.176
725.355, 236.842
726.649, 376.492
727.944, 436.131
729.238, 174.250
730.532, 435.260
731.825, 154.754
733.119, 254.232
734.412, 383.697
735.705, 157.605
736.998, 391.736
738.291, 8.936
739.584, 130.195
740.876, 179.469
742.168, 38.725
743.460, 227.959
744.752, 17.176
746.043, 116.367
747.334, 195.541
748.626, 75.832
749.916, 273.252
751.207, 102.160
752.498, 101.205
753.788, 260.230
755.078, 160.885
756.368, 458.008
757.658, 86.883
758.947, 55.736
760.237, 354.562
761.526, 126.627
762.815, 402.084
764.104, 10.248
765.392, 18.908
766.680, 190.828
767.969, 144.789
769.257, 223.381
770.544, 201.355
771.832, 80.086
773.119, 288.398
774.406, 163.137
775.693, 115.211
776.980, 66.459
778.267, 308.197
779.553, 219.873
780.839, 72.072
782.125, 35.910
783.411, 103.873
784.697, 438.188
785.982, 9.490
787.267, 12.867
788.552, 34.732
789.837, 222.309
791.122, 180.133
792.406, 277.299
793.690, 114.713
794.974, 152.105
796.258, 269.479
797.542, 36.834
798.825, 304.166
800.108, 11.482
801.391, 158.766
802.674, 326.029
803.957, 86.723
805.239, 330.449
806.522, 57.604
807.804, 74.738
809.085, 281.850
810.367, 61.055
811.649, 365.979
812.930, 112.996
814.211, 50.006
815.492, 336.932
816.772, 46.143
818.053, 260.727
819.333, 147.510
820.613, 44.344
821.893, 320.521
823.173, 62.682
824.452, 374.059
825.732, 337.840
827.011, 274.547
828.290, 880.303
829.568, 66.469
830.847, 332.369
832.125, 683.365
833.403, 99.670
834.681, 699.715
835.959, 115.584
837.236, 381.166
838.514, 581.695
839.791, 237.219
841.068, 653.043
842.345, 579.057
843.621, 724.998
844.898, 868.604
846.174, 574.529
847.450, 769.994
848.726, 645.869
850.001, 782.473
851.277, 1088.322
852.552, 514.914
853.827, 1321.459
855.102, 938.111
856.376, 1084.752
857.651, 1721.416
858.925, 1208.064
860.199, 2034.707
861.473, 1731.373
862.746, 1568.027
864.020, 1874.711
865.293, 1351.385
866.566, 1268.051
867.839, 1274.725
869.112, 791.389
870.384, 1238.047
871.656, 524.711
872.928, 951.340
874.200, 767.988
875.472, 614.625
876.744, 861.252
878.015, 377.879
879.286, 684.402
880.557, 971.012
881.828, 497.621
883.098, 842.789
884.369, 709.422
885.639, 455.631
886.909, 852.254
888.178, 378.902
889.448, 695.033
890.717, 701.674
891.987, 376.148
893.256, 882.279
894.524, 408.621
895.793, 784.369
897.061, 650.906
898.330, 456.514
899.598, 822.623
900.865, 489.064
902.133, 609.807
903.401, 976.443
904.668, 322.502
905.935, 778.557
907.202, 675.189
908.468, 580.826
909.735, 717.482
911.001, 113.516
912.267, 789.424
913.533, 536.078
914.799, 183.721
916.064, 940.385
917.330, 175.625
918.595, 561.213
919.860, 387.727
921.124, 104.061
922.389, 360.732
923.653, 167.318
924.918, 347.648
926.182, 324.342
927.445, 119.723
928.709, 735.982
929.972, 227.105
931.236, 203.391
932.499, 500.102
933.761, 140.914
935.024, 586.895
936.286, 623.170
937.549, 171.348
938.811, 796.633
940.073, 400.779
941.334, 496.818
942.596, 593.578
943.857, 138.066
945.118, 904.842
946.379, 381.277
947.640, 727.881
948.900, 964.684
950.161, 660.838
951.421, 1547.656
952.681, 1093.271
953.940, 1209.982
955.200, 2086.826
956.459, 1417.186
957.719, 1464.326
958.978, 1500.682
960.236, 927.127
961.495, 1604.348
962.753, 1016.328
964.012, 983.238
965.270, 1089.914
966.527, 682.590
967.785, 1049.533
969.043, 842.486
970.300, 799.449
971.557, 1116.359
972.814, 532.859
974.071, 949.857
975.327, 882.094
976.583, 429.113
977.840, 1426.160
979.095, 813.219
980.351, 1020.291
981.607, 1307.100
982.862, 1064.203
984.117, 1801.385
985.372, 1658.467
986.627, 1755.703
987.882, 2255.916
989.136, 1893.184
990.390, 2430.488
991.644, 2497.963
992.898, 2485.346
994.152, 2936.873
995.405, 3094.281
996.659, 3301.719
997.912, 3119.270
999.165, 2996.738
1000.417, 3488.348
1001.670, 3657.820
1002.922, 3755.324
1004.174, 3851.242
1005.426, 2248.988
1006.678, 1986.521
1007.930, 1421.037
1009.181, 778.588
1010.432, 1416.234
1011.683, 561.291
1012.934, 708.865
1014.185, 775.521
1015.435, 383.111
1016.685, 990.707
1017.935, 612.289
1019.185, 639.896
1020.435, 1257.760
1021.684, 868.676
1022.934, 1156.303
1024.183, 1344.375
1025.432, 872.014
1026.680, 1269.668
1027.929, 1078.480
1029.177, 956.145
1030.425, 1143.814
1031.673, 583.166
1032.921, 940.848
1034.169, 677.582
1035.416, 646.109
1036.663, 1143.859
1037.911, 439.941
1039.157, 1497.701
1040.404, 1026.021
1041.650, 854.404
1042.897, 1692.271
1044.143, 1000.689
1045.389, 1378.582
1046.634, 2086.521
1047.880, 1823.170
1049.125, 3001.156
1050.371, 3039.877
1051.615, 3228.580
1052.860, 4376.773
1054.105, 3985.740
1055.349, 4683.965
1056.593, 4592.211
1057.837, 3827.332
1059.081, 4475.686
1060.325, 3254.125
1061.568, 2713.217
1062.812, 2751.666
1064.055, 2122.537
1065.298, 2351.121
1066.540, 1859.707
1067.783, 1269.250
1069.025, 1987.980
1070.267, 1006.748
1071.509, 1166.273
1072.751, 1705.045
1073.993, 644.850
1075.234, 1433.686
1076.475, 1042.521
1077.716, 942.643
1078.957, 1431.531
1080.198, 910.441
1081.438, 1439.830
1082.679, 1448.830
1083.919, 1038.041
1085.159, 1737.070
1086.398, 1116.100
1087.638, 1105.252
1088.877, 1364.410
1090.116, 783.578
1091.355, 1112.750
1092.594, 851.918
1093.833, 621.137
1095.071, 830.355
1096.309, 449.570
1097.547, 418.781
1098.785, 817.986
1100.023, 97.189
1101.260, 656.391
1102.498, 435.592
1103.735, 314.787
1104.972, 723.982
1106.208, 33.203
1107.445, 692.412
1108.681, 791.621
1109.918, 30.824
1111.154, 930.021
1112.389, 769.238
1113.625, 438.445
1114.860, 727.654
1116.096, 306.877
1117.331, 696.092
1118.566, 715.318
1119.800, 474.539
1121.035, 763.752
1122.269, 802.957
1123.503, 1042.154
1124.737, 959.705
1125.971, 460.566
1127.205, 709.758
1128.438, 368.945
1129.671, 148.123
1130.904, 687.289
1132.137, 246.449
1133.370, 395.594
1134.602, 554.734
1135.834, 56.135
1137.066, 482.953
1138.298, 352.035
1139.530, 151.104
1140.762, 460.158
1141.993, 230.797
1143.224, 238.115
1144.455, 228.295
1145.686, 162.820
1146.917, 345.961
1148.147, 65.271
1149.377, 26.561
1150.607, 292.115
1151.837, 289.225
1153.067, 169.256
1154.296, 357.775
1155.526, 103.779
1156.755, 384.584
1157.984, 212.926
1159.213, 108.754
1160.441, 489.920
1161.670, 131.867
1162.898, 496.244
1164.126, 444.334
1165.354, 47.600
1166.581, 340.404
1167.809, 198.391
1169.036, 33.650
1170.263, 554.256
1171.490, 162.137
1172.717, 299.990
1173.943, 698.945
1175.170, 6.752
1176.396, 804.521
1177.622, 422.266
1178.848, 0.016
1180.073, 597.662
1181.299, 114.686
1182.524, 102.861
1183.749, 481.336
1184.974, 101.178
1186.199, 656.207
1187.423, 189.152
1188.648, 176.715
1189.872, 616.355
1191.096, 186.922
1192.320, 464.158
1193.543, 521.586
1194.767, 94.213
1195.990, 572.855
1197.213, 238.537
1198.436, 245.705
1199.659, 863.547
1200.881, 207.072
1202.104, 783.963
1203.326, 913.598
1204.548, 35.492
1205.770, 971.236
1206.991, 477.307
1208.213, 274.240
1209.434, 780.854
1210.655, 79.338
1211.876, 545.859
1213.096, 842.992
1214.317, 290.266
1215.537, 846.668
1216.757, 601.332
1217.977, 318.758
1219.197, 1145.033
1220.417, 268.430
1221.636, 605.516
1222.855, 951.662
1224.074, 219.129
1225.293, 1015.186
1226.512, 571.201
1227.731, 428.236
1228.949, 1214.166
1230.167, 481.035
1231.385, 736.887
1232.603, 1142.693
1233.820, 750.086
1235.038, 1235.811
1236.255, 961.496
1237.472, 788.436
1238.689, 1594.037
1239.906, 989.605
1241.122, 1325.686
1242.338, 1301.168
1243.555, 856.619
1244.771, 1192.023
1245.986, 1287.375
1247.202, 653.213
1248.417, 1398.506
1249.633, 803.764
1250.848, 939.994
1252.063, 1485.188
1253.277, 660.076
1254.492, 1365.648
1255.706, 940.746
1256.920, 706.812
1258.134, 1201.844
1259.348, 916.846
1260.562, 773.645
1261.775, 1458.576
1262.988, 853.475
1264.201, 1178.783
1265.414, 1433.607
1266.627, 738.398
1267.839, 1793.156
1269.052, 1067.869
1270.264, 1122.816
1271.476, 1637.459
1272.688, 1362.072
1273.899, 1427.406
1275.111, 1681.945
1276.322, 1086.396
1277.533, 1930.867
1278.744, 1285.303
1279.955, 890.410
1281.165, 1754.777
1282.376, 936.141
1283.586, 1241.350
1284.796, 1215.611
1286.006, 699.688
1287.215, 1614.537
1288.425, 1234.559
1289.634, 288.646
1290.843, 1452.775
1292.052, 726.654
1293.261, 1030.488
1294.469, 1249.918
1295.678, 811.449
1296.886, 1724.883
1298.094, 1329.756
1299.302, 562.646
1300.509, 1525.719
1301.717, 751.625
1302.924, 664.250
1304.131, 1356.672
1305.338, 461.650
1306.545, 834.006
1307.752, 1267.238
1308.958, 639.496
1310.164, 1431.699
1311.370, 1119.877
1312.576, 771.971
1313.782, 1533.773
1314.987, 732.475
1316.193, 734.414
1317.398, 1105.879
1318.603, 287.727
1319.807, 959.516
1321.012, 910.098
1322.216, 621.777
1323.421, 1023.410
1324.625, 603.301
1325.829, 704.797
1327.032, 1347.246
1328.236, 317.848
1329.439, 749.176
1330.642, 722.121
1331.845, 23.332
1333.048, 483.969
1334.251, 134.492
1335.453, 85.473
1336.656, 705.848
1337.858, 53.320
1339.060, 2.602
1340.261, 639.344
1341.463, 510.109
1342.664, 489.648
1343.866, 319.363
1345.067, 0.438
1346.267, 578.934
1347.468, 99.004
1348.669, 120.984
1349.869, 762.113
1351.069, 208.020
1352.269, 451.723
1353.469, 590.777
1354.668, 249.566
1355.868, 567.621
1357.067, 357.340
1358.266, 393.219
1359.465, 995.230
1360.664, 35.387
1361.862, 243.770
1363.061, 722.141
1364.259, 18.773
1365.457, 289.254
1366.655, 688.254
1367.852, 197.234
1369.050, 724.953
1370.247, 564.273
1371.444, 243.199
1372.641, 1021.727
1373.838, 261.707
1375.035, 710.418
1376.231, 929.309
1377.427, 158.207
1378.623, 1207.121
1379.819, 746.344
1381.015, 195.277
1382.211, 1194.152
1383.406, 775.090
1384.601, 354.035
1385.796, 1022.965
1386.991, 503.566
1388.185, 861.902
1389.380, 1207.957
1390.574, 359.773
1391.768, 1261.523
1392.962, 993.207
1394.156, 244.828
1395.350, 1006.371
1396.543, 657.852
1397.736, 379.246
1398.929, 930.574
1400.122, 191.828
1401.315, 703.016
1402.507, 1074.137
1403.700, 135.184
1404.892, 936.156
1406.084, 917.059
1407.276, 377.887
1408.467, 1118.668
1409.659, 609.375
1410.850, 550.074
1412.041, 889.250
1413.232, 419.973
1414.423, 700.691
1415.614, 1211.461
1416.804, 302.211
1417.994, 1043.059
1419.184, 683.355
1420.374, 514.262
1421.564, 1545.184
1422.753, 316.121
1423.943, 717.059
1425.132, 1237.992
1426.321, 267.387
1427.510, 928.277
1428.698, 1479.152
1429.887, 330.078
1431.075, 1379.699
1432.263, 1212.762
1433.451, 459.984
1434.639, 1996.062
1435.827, 1091.316
1437.014, 1323.879
1438.201, 2052.215
1439.388, 1351.949
1440.575, 2245.363
1441.762, 2414.195
1442.949, 2002.828
1444.135, 3026.285
1445.321, 2792.980
1446.507, 2446.941
1447.693, 4032.668
1448.879, 2376.344
1450.064, 3401.254
1451.250, 3748.465
1452.435, 2633.703
1453.620, 3888.965
1454.805, 3932.902
1455.989, 2939.723
1457.174, 4233.984
1458.358, 3669.492
1459.542, 3105.945
1460.726, 4062.316
1461.910, 2847.488
1463.093, 3091.418
1464.277, 3657.188
1465.460, 2331.793
1466.643, 2904.199
1467.826, 3115.141
1469.009, 1819.867
1470.191, 2923.305
1471.373, 2187.504
1472.556, 1760.812
1473.738, 2604.461
1474.919, 1825.883
1476.101, 1478.852
1477.283, 2629.602
1478.464, 1451.770
1479.645, 1741.039
1480.826, 2040.469
1482.007, 1311.348
1483.187, 1871.691
1484.368, 1823.262
1485.548, 1455.316
1486.728, 2278.227
1487.908, 1281.715
1489.088, 1027.094
1490.268, 2042.801
1491.447, 778.676
1492.626, 1034.531
1493.805, 1510.422
1494.984, 406.324
1496.163, 972.184
1497.341, 1228.066
1498.520, 63.977
1499.698, 1230.113
1500.876, 776.430
1502.054, 82.914
1503.232, 1079.652
1504.409, 356.773
1505.586, 574.410
1506.763, 1062.773
1507.940, 281.859
1509.117, 571.633
1510.294, 1062.012
1511.470, 42.871
1512.647, 924.262
1513.823, 596.293
1514.999, 23.008
1516.174, 1090.523
1517.350, 353.520
1518.526, 179.109
1519.701, 1375.926
1520.876, 124.039
1522.051, 387.594
1523.226, 1078.352
1524.400, 12.691
1525.574, 886.750
1526.749, 896.148
1527.923, 0.652
1529.097, 818.027
1530.270, 0.000
##END=



