##NAMES=Elbaite
##RRUFFID=R050487
##IDEAL CHEMISTRY=Na(Al_1.5_Li_1.5_)Al_6_(Si_6_O_18_)(BO_3_)_3_(OH)_3_OH
##LOCALITY=White Queen mine, Pala, San Diego County, California, USA
##OWNER=RRUFF
##SOURCE=California Institute of Technology
##DESCRIPTION=Mass of blue acicular crystals
##STATUS=The identification of this mineral has been confirmed by X-ray diffraction and chemical analysis
##URL=rruff.info/R050487
##MEASURED CHEMISTRY=(Na_0.86_[box]_0.13_Ca_0.01_)(Al_0.42_Li_0.38_Fe^2+^_0.18_Mn_0.02_)_3_Al_6_(BO_3_)_3_Si_6_O_18_((OH)_0.85_F_0.15_)_4_
##PIN_ID=M01385
##ORIENTATION=Laser parallel to c* (0 0 1). Fiducial mark perpendicular to laser is parallel to b [0 1 0]
187.7250, 0.0000000E+00
188.9500, 35.59766
190.1740, 13.35938
191.3990, 58.82812
192.6230, 12.05664
193.8480, 155.4883
195.0720, 186.3867
196.2960, 77.05469
197.5200, 194.0000
198.7430, 392.1035
199.9670, 324.3125
201.1900, 179.5664
202.4130, 578.6035
203.6360, 491.6250
204.8590, 817.8711
206.0820, 893.3613
207.3050, 1234.467
208.5270, 1647.734
209.7490, 2546.900
210.9710, 2888.582
212.1930, 3348.459
213.4150, 4029.383
214.6370, 4413.420
215.8580, 4963.086
217.0790, 5352.842
218.3010, 5828.850
219.5210, 5954.223
220.7420, 5963.674
221.9630, 5972.793
223.1830, 5927.051
224.4040, 5802.982
225.6240, 5368.756
226.8440, 5076.346
228.0640, 4712.152
229.2840, 4011.586
230.5030, 3783.287
231.7230, 3333.582
232.9420, 2953.760
234.1610, 2812.162
235.3800, 2768.568
236.5990, 2557.576
237.8170, 2478.322
239.0360, 2449.840
240.2540, 2532.623
241.4720, 2342.281
242.6900, 2156.904
243.9080, 1837.125
245.1250, 1763.994
246.3430, 1777.016
247.5600, 1447.297
248.7770, 1346.342
249.9940, 1162.307
251.2110, 973.3281
252.4280, 855.6660
253.6450, 550.4707
254.8610, 597.5801
256.0770, 376.7227
257.2930, 280.8984
258.5090, 251.5736
259.7250, 106.0681
260.9400, 185.7012
262.1560, 31.73438
263.3710, 54.96484
264.5860, 234.0039
265.8010, 199.1680
267.0160, 216.5195
268.2310, 263.0391
269.4450, 180.7207
270.6600, 148.5469
271.8740, 223.5117
273.0880, 187.6016
274.3020, 271.8047
275.5150, 271.1094
276.7290, 305.5078
277.9420, 233.9863
279.1550, 361.5391
280.3680, 146.1523
281.5810, 202.8184
282.7940, 83.52539
284.0070, 24.27734
285.2190, 36.06445
286.4310, 64.88281
287.6430, 1.712891
288.8550, 39.45508
290.0670, 199.6309
291.2790, 165.8105
292.4900, 265.9941
293.7020, 91.17383
294.9130, 174.3516
296.1240, 247.5371
297.3350, 44.71875
298.5450, 85.06445
299.7560, 163.4688
300.9660, 23.87305
302.1760, 18.27930
303.3860, 268.3184
304.5960, 4.074219
305.8060, 281.5508
307.0150, 284.1992
308.2250, 249.8496
309.4340, 325.4688
310.6430, 361.2852
311.8520, 524.5273
313.0610, 547.7031
314.2700, 593.6641
315.4780, 771.3965
316.6860, 997.0078
317.8940, 1265.553
319.1020, 1572.123
320.3100, 1496.736
321.5180, 1871.406
322.7250, 2036.131
323.9330, 2191.916
325.1400, 2580.758
326.3470, 2723.654
327.5540, 2613.609
328.7600, 2829.619
329.9670, 2907.684
331.1730, 2827.814
332.3800, 3166.006
333.5860, 3009.391
334.7920, 3114.410
335.9970, 3183.061
337.2030, 3131.023
338.4080, 3113.719
339.6140, 2870.484
340.8190, 2950.426
342.0240, 2860.361
343.2290, 2790.250
344.4330, 2931.086
345.6380, 2996.855
346.8420, 3049.555
348.0460, 3005.176
349.2500, 3230.709
350.4540, 3284.150
351.6580, 3337.504
352.8610, 3694.748
354.0650, 3637.885
355.2680, 3941.914
356.4710, 4105.418
357.6740, 3953.691
358.8760, 4448.434
360.0790, 4613.053
361.2810, 4716.539
362.4840, 5482.898
363.6860, 6053.145
364.8880, 6782.283
366.0900, 7454.502
367.2910, 8121.232
368.4930, 8895.098
369.6940, 9296.830
370.8950, 10172.15
372.0960, 10334.37
373.2970, 10604.52
374.4980, 10711.58
375.6980, 10713.57
376.8980, 10092.51
378.0990, 9239.402
379.2990, 8767.254
380.4980, 7601.039
381.6980, 6853.730
382.8980, 6095.326
384.0970, 5342.633
385.2960, 4782.531
386.4950, 3983.170
387.6940, 3455.547
388.8930, 3283.725
390.0920, 3167.838
391.2900, 2770.979
392.4880, 2708.150
393.6860, 2540.354
394.8840, 2663.645
396.0820, 2337.002
397.2800, 2415.445
398.4770, 2284.924
399.6750, 2201.611
400.8720, 2219.361
402.0690, 2236.146
403.2660, 2235.121
404.4620, 2312.059
405.6590, 2426.205
406.8550, 2365.512
408.0510, 2233.617
409.2480, 2168.598
410.4430, 2016.516
411.6390, 1955.453
412.8350, 1774.957
414.0300, 1571.850
415.2250, 1604.447
416.4200, 1422.840
417.6150, 1305.000
418.8100, 1181.713
420.0050, 995.6230
421.1990, 903.6348
422.3940, 691.3867
423.5880, 654.7129
424.7820, 584.8945
425.9750, 681.6074
427.1690, 415.2148
428.3630, 447.5215
429.5560, 578.3809
430.7490, 491.9551
431.9420, 321.5977
433.1350, 464.8262
434.3280, 284.1719
435.5200, 515.8086
436.7130, 358.3281
437.9050, 254.9883
439.0970, 153.6426
440.2890, 323.8223
441.4810, 353.8945
442.6720, 501.7793
443.8640, 432.7344
445.0550, 388.6172
446.2460, 328.0137
447.4370, 297.6816
448.6280, 354.2852
449.8180, 411.5020
451.0090, 351.3457
452.1990, 328.0820
453.3890, 216.1719
454.5790, 253.3535
455.7690, 345.5547
456.9590, 302.7773
458.1480, 225.0195
459.3380, 585.2871
460.5270, 361.5781
461.7160, 559.8887
462.9050, 599.2266
464.0940, 654.5840
465.2820, 714.9648
466.4700, 650.3691
467.6590, 825.7949
468.8470, 782.4727
470.0350, 938.7109
471.2220, 805.9336
472.4100, 1009.018
473.5970, 1058.398
474.7850, 1051.691
475.9720, 1049.734
477.1590, 938.8809
478.3460, 1055.064
479.5320, 1047.152
480.7190, 1008.295
481.9050, 1098.533
483.0910, 988.0488
484.2770, 1124.059
485.4630, 1142.443
486.6490, 1317.650
487.8340, 1326.420
489.0200, 1335.520
490.2050, 1384.471
491.3900, 1415.141
492.5750, 1787.666
493.7600, 1587.795
494.9440, 1860.314
496.1290, 1801.945
497.3130, 2018.818
498.4970, 1776.510
499.6810, 2040.027
500.8650, 1703.543
502.0480, 2210.062
503.2320, 1976.590
504.4150, 1893.662
505.5980, 1813.686
506.7810, 1660.432
507.9640, 1624.199
509.1460, 1575.744
510.3290, 1358.283
511.5110, 1308.826
512.6930, 1055.377
513.8750, 1029.082
515.0570, 967.4922
516.2390, 871.0625
517.4210, 834.6328
518.6020, 601.2109
519.7830, 475.7969
520.9640, 491.4355
522.1450, 498.0332
523.3260, 525.6895
524.5060, 545.2988
525.6870, 435.9141
526.8670, 543.8594
528.0470, 352.3203
529.2270, 660.3965
530.4070, 568.1426
531.5870, 567.8887
532.7660, 552.5234
533.9450, 567.1484
535.1240, 749.6836
536.3030, 669.2832
537.4820, 771.1641
538.6610, 854.1152
539.8390, 840.6152
541.0180, 1092.838
542.1960, 1001.961
543.3740, 974.1875
544.5520, 1275.197
545.7290, 1115.172
546.9070, 1132.645
548.0840, 1173.311
549.2620, 1072.869
550.4390, 1341.324
551.6160, 1216.381
552.7920, 1217.936
553.9690, 982.3340
555.1450, 1050.881
556.3220, 1042.109
557.4980, 850.4258
558.6740, 897.9707
559.8490, 692.8359
561.0250, 607.6992
562.2000, 672.5547
563.3760, 541.7500
564.5510, 519.2617
565.7260, 523.1035
566.9010, 436.9453
568.0750, 559.7812
569.2500, 403.6191
570.4240, 604.4629
571.5980, 506.3125
572.7720, 542.1621
573.9460, 388.0195
575.1200, 358.8965
576.2930, 558.8340
577.4670, 403.8223
578.6400, 432.8867
579.8130, 182.9805
580.9860, 405.1250
582.1590, 373.3359
583.3310, 158.5625
584.5040, 336.8125
585.6760, 244.1055
586.8480, 368.4062
588.0200, 426.7109
589.1920, 215.0000
590.3630, 113.2930
591.5350, 265.5664
592.7060, 414.8281
593.8770, 472.0762
595.0480, 446.3125
596.2190, 453.5293
597.3900, 477.7324
598.5600, 377.9180
599.7310, 533.0918
600.9010, 341.2461
602.0710, 636.3867
603.2410, 491.5117
604.4100, 419.6211
605.5800, 470.7129
606.7490, 257.7871
607.9190, 406.8828
609.0880, 380.9629
610.2570, 376.0312
611.4250, 79.08594
612.5940, 119.1836
613.7620, 56.30859
614.9310, 84.43945
616.0990, 151.5684
617.2670, 128.2832
618.4340, 120.7793
619.6020, 145.8535
620.7690, 133.9277
621.9370, 114.0273
623.1040, 49.09961
624.2710, 128.8203
625.4380, 84.21289
626.6040, 43.78320
627.7710, 234.1699
628.9370, 10.89453
630.1030, 194.0078
631.2690, 262.9082
632.4350, 359.7988
633.6010, 156.6738
634.7660, 329.5215
635.9320, 280.4180
637.0970, 224.2930
638.2620, 271.1699
639.4270, 377.8145
640.5920, 320.8711
641.7560, 456.7715
642.9210, 321.6562
644.0850, 194.5176
645.2490, 210.1816
646.4130, 280.0781
647.5770, 278.7676
648.7400, 335.5137
649.9040, 403.6543
651.0670, 346.3457
652.2300, 477.5488
653.3930, 472.0078
654.5560, 455.5059
655.7190, 565.0859
656.8810, 439.6328
658.0440, 552.1543
659.2060, 476.6445
660.3680, 353.1055
661.5300, 384.5352
662.6910, 357.9336
663.8530, 387.3027
665.0140, 548.6367
666.1750, 275.9434
667.3360, 210.2129
668.4970, 280.4453
669.6580, 2.359375
670.8190, 131.7734
671.9790, 45.13672
673.1390, 31.86523
674.2990, 37.81641
675.4590, 151.2832
676.6190, 90.52734
677.7790, 137.8867
678.9380, 352.3926
680.0970, 219.1504
681.2570, 41.09766
682.4160, 376.1348
683.5740, 148.4453
684.7330, 385.9082
685.8920, 233.6465
687.0500, 60.58203
688.2080, 9.626953
689.3660, 89.52539
690.5240, 110.9297
691.6820, 129.7578
692.8390, 197.3965
693.9960, 83.99023
695.1540, 338.5312
696.3110, 114.0312
697.4680, 265.4824
698.6240, 638.8867
699.7810, 553.2578
700.9370, 731.5859
702.0940, 738.8750
703.2500, 1222.127
704.4060, 1469.340
705.5610, 1510.514
706.7170, 1744.646
707.8720, 2021.740
709.0280, 2621.797
710.1830, 3134.812
711.3380, 3521.787
712.4920, 3996.723
713.6470, 4762.619
714.8020, 5436.744
715.9560, 6371.287
717.1100, 7204.059
718.2640, 8163.789
719.4180, 9260.432
720.5720, 10048.08
721.7250, 10904.68
722.8780, 11267.06
724.0320, 11706.58
725.1850, 11975.06
726.3380, 11884.48
727.4900, 11354.87
728.6430, 10474.21
729.7950, 10116.09
730.9470, 8851.340
732.1000, 8047.549
733.2510, 7216.713
734.4030, 6047.832
735.5550, 5516.906
736.7060, 4779.938
737.8570, 4046.111
739.0090, 3456.051
740.1600, 3111.346
741.3100, 2842.197
742.4610, 2737.598
743.6110, 2481.357
744.7620, 2414.500
745.9120, 2145.920
747.0620, 2469.713
748.2120, 2289.246
749.3610, 2346.820
750.5110, 2534.365
751.6600, 2523.955
752.8090, 2564.848
753.9580, 2644.811
755.1070, 2589.629
756.2560, 2526.404
757.4050, 2452.086
758.5530, 2305.748
759.7010, 2227.605
760.8490, 2131.311
761.9970, 1939.508
763.1450, 1719.021
764.2920, 1582.080
765.4400, 1286.562
766.5870, 1244.426
767.7340, 1121.480
768.8810, 1316.764
770.0280, 860.0684
771.1740, 985.9609
772.3210, 825.8906
773.4670, 628.1055
774.6130, 690.4941
775.7590, 608.4004
776.9050, 390.2031
778.0510, 529.6777
779.1960, 634.1504
780.3420, 780.3125
781.4870, 752.7949
782.6320, 363.2402
783.7770, 538.7637
784.9210, 341.5098
786.0660, 568.1523
787.2100, 457.9648
788.3540, 662.7344
789.4980, 427.4473
790.6420, 385.0996
791.7860, 1048.695
792.9300, 639.4102
794.0730, 925.8984
795.2160, 905.3359
796.3590, 1005.723
797.5020, 1251.055
798.6450, 1280.283
799.7880, 946.5137
800.9300, 1251.635
802.0720, 1389.762
803.2150, 1094.834
804.3560, 1355.426
805.4980, 1483.682
806.6400, 1708.168
807.7810, 1789.756
808.9230, 1805.688
810.0640, 1846.500
811.2050, 1731.311
812.3460, 1580.117
813.4860, 1521.848
814.6270, 1354.254
815.7670, 1259.338
816.9070, 1140.299
818.0470, 1072.223
819.1870, 1010.234
820.3270, 1011.105
821.4670, 1133.160
822.6060, 1072.296
823.7450, 706.7207
824.8840, 1056.006
826.0230, 984.4062
827.1620, 947.9141
828.3010, 1184.787
829.4390, 1086.539
830.5770, 1570.586
831.7150, 1578.865
832.8530, 1475.424
833.9910, 1954.863
835.1290, 1796.039
836.2660, 1983.857
837.4030, 1779.643
838.5410, 1680.393
839.6780, 1968.107
840.8140, 2000.791
841.9510, 1951.438
843.0870, 1858.049
844.2240, 1904.627
845.3600, 1819.172
846.4960, 1798.684
847.6320, 1921.160
848.7680, 1857.604
849.9030, 2127.014
851.0380, 2532.391
852.1740, 2380.736
853.3090, 2442.051
854.4440, 2819.328
855.5780, 2472.574
856.7130, 2686.789
857.8470, 2935.973
858.9820, 2375.127
860.1160, 2484.248
861.2500, 2417.338
862.3830, 1952.396
863.5170, 1799.420
864.6500, 1486.416
865.7840, 1022.383
866.9170, 1091.316
868.0500, 997.2227
869.1830, 849.0977
870.3150, 545.9453
871.4480, 646.7578
872.5800, 436.5430
873.7120, 217.3008
874.8440, 448.0234
875.9760, 161.7227
877.1080, 425.3867
878.2390, 111.0195
879.3710, 305.6211
880.5020, 146.1953
881.6330, 89.26562
882.7640, 203.1719
883.8940, 20.57812
885.0250, 54.93359
886.1550, 203.7383
887.2850, 139.5781
888.4160, 70.54297
889.5450, 39.59766
890.6750, 14.27344
891.8050, 35.10547
892.9340, 49.89453
894.0630, 53.34766
895.1930, 138.6641
896.3220, 129.8945
897.4500, 89.57031
898.5790, 120.1289
899.7070, 72.65766
900.8360, 125.5742
901.9640, 20.90625
903.0920, 37.20312
904.2200, 44.53125
905.3470, 10.32812
906.4750, 3.179688
907.6020, 18.01854
908.7290, 14.82563
909.8560, 50.05078
910.9830, 32.16797
912.1100, 40.09259
913.2360, 23.41016
914.3630, 96.04297
915.4890, 6.394531
916.6150, 58.12891
917.7410, 9.625000
918.8670, 135.2695
919.9920, 132.6328
921.1180, 196.5664
922.2430, 189.5781
923.3680, 247.6484
924.4930, 342.1172
925.6180, 190.0273
926.7420, 229.7500
927.8670, 71.23438
928.9910, 248.7109
930.1150, 195.2070
931.2390, 343.7500
932.3630, 377.2656
933.4860, 400.8594
934.6100, 585.4492
935.7330, 393.0312
936.8560, 426.6016
937.9790, 445.1641
939.1020, 529.7305
940.2250, 615.2891
941.3470, 498.8398
942.4700, 735.3750
943.5920, 612.9141
944.7140, 731.4492
945.8360, 972.0195
946.9570, 825.6016
948.0790, 555.1836
949.2000, 819.8203
950.3220, 650.5000
951.4430, 1128.219
952.5640, 1239.047
953.6840, 996.9727
954.8050, 1091.922
955.9250, 1161.980
957.0460, 1115.090
958.1660, 1023.328
959.2860, 1184.633
960.4050, 1280.969
961.5250, 851.3281
962.6440, 1127.680
963.7640, 1165.109
964.8830, 1067.531
966.0020, 1513.957
967.1210, 1217.379
968.2390, 1682.793
969.3580, 1096.215
970.4760, 1656.625
971.5940, 1332.035
972.7120, 1347.438
973.8300, 1262.832
974.9480, 1364.223
976.0650, 1365.613
977.1830, 1180.992
978.3000, 1168.367
979.4170, 1411.742
980.5340, 1146.105
981.6500, 1370.469
982.7670, 1552.832
983.8830, 1331.184
985.0000, 1728.539
986.1160, 1263.887
987.2320, 1417.234
988.3470, 1452.578
989.4630, 1399.918
990.5780, 1622.258
991.6940, 1358.594
992.8090, 1486.926
993.9240, 1562.262
995.0380, 1582.590
996.1530, 1668.918
997.2680, 1693.766
998.3820, 1690.570
999.4960, 1682.898
1000.610, 1667.223
1001.724, 1662.543
1002.837, 1561.871
1003.951, 1664.203
1005.064, 1520.531
1006.177, 1550.855
1007.291, 1679.184
1008.403, 1723.320
1009.516, 1696.656
1010.629, 1912.582
1011.741, 1849.914
1012.853, 2026.652
1013.965, 2143.992
1015.077, 2083.898
1016.189, 1938.492
1017.300, 2124.664
1018.412, 2183.059
1019.523, 2163.363
1020.634, 2427.934
1021.745, 2252.562
1022.856, 2288.586
1023.966, 2491.594
1025.077, 2536.980
1026.187, 2618.832
1027.297, 2560.551
1028.407, 2722.914
1029.517, 2567.980
1030.627, 2575.066
1031.736, 2792.336
1032.845, 2865.750
1033.955, 2919.207
1035.064, 3104.367
1036.172, 3291.723
1037.281, 3385.152
1038.390, 3719.645
1039.498, 4049.352
1040.606, 4152.574
1041.714, 4488.113
1042.822, 4805.941
1043.930, 5077.773
1045.037, 5451.812
1046.145, 5817.762
1047.252, 6226.180
1048.359, 6788.555
1049.466, 7069.203
1050.573, 7825.488
1051.679, 8202.227
1052.786, 8654.902
1053.892, 9409.602
1054.998, 9703.039
1056.104, 10194.41
1057.210, 10328.20
1058.315, 10684.00
1059.421, 10680.82
1060.526, 10778.67
1061.631, 10383.34
1062.736, 9960.512
1063.841, 9151.945
1064.946, 8576.852
1066.050, 7967.672
1067.154, 7207.535
1068.258, 6614.988
1069.362, 5992.961
1070.466, 5171.387
1071.570, 4830.648
1072.674, 3973.668
1073.777, 3646.699
1074.880, 3198.750
1075.983, 2997.820
1077.086, 2720.895
1078.189, 2295.086
1079.291, 2174.387
1080.394, 1987.512
1081.496, 1698.719
1082.598, 1805.836
1083.700, 1423.012
1084.802, 1441.500
1085.903, 1250.973
1087.005, 1273.195
1088.106, 1191.422
1089.207, 1491.672
1090.308, 1244.711
1091.409, 1327.984
1092.509, 1528.270
1093.610, 1124.473
1094.710, 1266.785
1095.810, 1012.582
1096.910, 1189.918
1098.010, 1164.266
1099.110, 1080.625
1100.209, 1369.996
1101.309, 1223.383
1102.408, 1254.781
1103.507, 1289.195
1104.606, 1170.621
1105.704, 1310.062
1106.803, 1482.520
1107.901, 1583.980
1108.999, 1725.461
1110.097, 1722.953
1111.195, 1753.461
1112.293, 1820.984
1113.391, 1857.520
1114.488, 1807.066
1115.585, 1841.633
1116.682, 1573.211
1117.779, 1350.805
1118.876, 1140.410
1119.973, 1233.035
1121.069, 1066.676
1122.165, 855.3242
1123.261, 1055.996
1124.357, 977.6836
1125.453, 801.3828
1126.549, 707.0977
1127.644, 544.8281
1128.739, 691.5781
1129.835, 728.3398
1130.930, 580.1172
1132.024, 557.9141
1133.119, 546.7266
1134.214, 715.5586
1135.308, 404.4023
1136.402, 470.2617
1137.496, 484.1406
1138.590, 355.0352
1139.684, 320.9492
1140.777, 452.8828
1141.871, 389.8281
1142.964, 393.7969
1144.057, 394.7852
1145.150, 312.7930
1146.243, 330.8203
1147.335, 319.8633
1148.428, 525.9648
1149.520, 447.0859
1150.612, 418.2344
1151.704, 640.4062
1152.796, 445.6602
1153.887, 464.9922
1154.979, 733.3750
1156.070, 453.8008
1157.161, 339.2500
1158.252, 636.7305
1159.343, 559.2266
1160.433, 659.7773
1161.524, 695.3945
1162.614, 418.0352
1163.704, 486.7305
1164.794, 425.4883
1165.884, 519.2656
1166.974, 271.0625
1168.063, 310.8867
1169.153, 332.7344
1170.242, 504.6250
1171.331, 147.5508
1172.420, 325.5078
1173.508, 223.4844
1174.597, 72.44922
1175.685, 334.6172
1176.774, 98.72656
1177.862, 141.9414
1178.950, 68.19141
1180.037, 301.4648
1181.125, 223.7617
1182.212, 158.0859
1183.300, 36.43359
1184.387, 18.00000
1185.474, 8.414063
1186.560, 53.27666
1187.647, 12.66406
1188.733, 207.8555
1189.820, 257.5039
1190.906, 274.5312
1191.992, 55.56641
1193.078, 137.6055
1194.163, 232.0703
1195.249, 92.47266
1196.334, 355.2109
1197.419, 37.47656
1198.504, 25.33594
1199.589, 126.6758
1200.674, 24.16797
1201.758, 81.48047
1202.843, 164.1758
1203.927, 242.0664
1205.011, 56.35938
1206.095, 217.3047
1207.179, 53.07812
1208.262, 78.87891
1209.345, 80.84766
1210.429, 37.15625
1211.512, 38.81250
1212.595, 36.78125
1213.677, 45.27513
1214.760, 0.3046880
1215.842, 158.2031
1216.925, 196.2500
1218.007, 396.8164
1219.089, 451.8359
1220.171, 74.81641
1221.252, 149.6133
1222.334, 73.07812
1223.415, 15.81250
1224.496, 77.47048
1225.577, 127.6250
1226.658, 195.9062
1227.738, 213.8203
1228.819, 371.6641
1229.899, 226.6289
1230.979, 175.1602
1232.060, 426.7070
1233.139, 510.4648
1234.219, 330.6445
1235.299, 497.4766
1236.378, 433.6211
1237.457, 135.9922
1238.536, 470.8242
1239.615, 435.2109
1240.694, 568.6250
1241.772, 231.0586
1242.851, 78.51562
1243.929, 173.9961
1245.007, 153.5000
1246.085, 254.0273
1247.163, 186.5820
1248.240, 289.9062
1249.318, 347.7930
1250.395, 471.4492
1251.472, 364.1328
1252.549, 476.8438
1253.626, 518.5742
1254.703, 287.3281
1255.779, 284.1133
1256.855, 619.9258
1257.931, 510.7539
1259.007, 462.6094
1260.083, 717.4883
1261.159, 387.3984
1262.234, 459.3281
1263.310, 547.2852
1264.385, 260.2656
1265.460, 625.2734
1266.535, 414.3047
1267.610, 147.3633
1268.684, 289.4453
1269.758, 407.5547
1270.833, 402.6914
1271.907, 325.8555
1272.981, 306.0547
1274.054, 443.2852
1275.128, 364.5430
1276.201, 436.3711
1277.275, 432.1289
1278.348, 435.4688
1279.421, 494.8242
1280.493, 340.2070
1281.566, 371.6211
1282.638, 398.0586
1283.711, 233.5195
1284.783, 456.0195
1285.855, 254.5469
1286.927, 410.1016
1287.998, 443.6719
1289.070, 448.2734
1290.141, 459.9023
1291.212, 555.5547
1292.283, 529.7422
1293.354, 449.9336
1294.425, 510.6562
1295.495, 414.4102
1296.566, 343.1914
1297.636, 573.9922
1298.706, 366.8203
1299.776, 450.6758
1300.845, 211.5547
1301.915, 426.4531
1302.984, 649.3750
1304.054, 595.6445
1305.123, 421.6094
1306.191, 434.5977
1307.260, 451.6016
1308.329, 363.6289
1309.397, 345.6680
1310.465, 220.7266
1311.534, 381.8008
1312.602, 360.8906
1313.669, 389.0000
1314.737, 301.4453
1315.804, 358.7695
1316.872, 351.1172
1317.939, 487.3477
1319.006, 419.5625
1320.073, 494.7852
1321.139, 574.0703
1322.206, 557.0508
1323.272, 528.5781
1324.338, 337.1562
1325.404, 365.7656
1326.470, 248.0781
1327.536, 142.9883
1328.601, 79.42578
1329.667, 413.4570
1330.732, 285.6836
1331.797, 490.2070
1332.862, 567.7539
1333.926, 468.3281
1334.991, 220.9336
1336.055, 415.5703
1337.120, 460.1367
1338.184, 676.6406
1339.248, 454.3672
1340.311, 224.0547
1341.375, 334.8750
1342.438, 125.6875
1343.502, 687.2266
1344.565, 514.8320
1345.628, 461.7344
1346.691, 180.6641
1347.753, 234.6250
1348.816, 369.8320
1349.878, 231.8477
1350.940, 333.9023
1352.002, 127.0820
1353.064, 320.1992
1354.126, 453.8750
1355.187, 302.0586
1356.248, 442.2656
1357.310, 241.5078
1358.371, 311.7812
1359.431, 358.0898
1360.492, 495.4297
1361.553, 242.8086
1362.613, 504.2070
1363.673, 391.6445
1364.733, 357.1133
1365.793, 471.6172
1366.853, 425.1836
1367.912, 569.7539
1368.972, 415.3555
1370.031, 347.9922
1371.090, 366.6562
1372.149, 460.3633
1373.208, 731.1055
1374.267, 759.8789
1375.325, 627.6875
1376.383, 576.2344
1377.441, 900.1211
1378.499, 656.0391
1379.557, 869.9961
1380.615, 865.9883
1381.672, 740.0156
1382.730, 857.5156
1383.787, 887.6211
1384.844, 680.7656
1385.901, 726.9492
1386.957, 986.1719
1388.014, 908.4375
1389.070, 639.7383
1390.126, 815.0781
1391.182, 601.4609
1392.238, 752.8828
1393.294, 779.3516
1394.349, 533.8594
1395.405, 627.4141
1396.460, 852.0039
1397.515, 849.6445
1398.570, 644.3281
1399.625, 951.6484
1400.679, 665.3711
1401.734, 599.1367
1402.788, 487.9492
1403.842, 657.8047
1404.896, 478.5430
1405.950, 426.3164
1407.003, 484.1328
1408.057, 396.9766
1409.110, 555.8594
1410.163, 553.7891
1411.216, 559.6641
1412.269, 572.0195
1413.322, 262.7109
1414.374, 470.7930
1415.427, 427.9102
1416.479, 320.9453
1417.531, 490.0078
1418.583, 257.0938
1419.634, 252.2148
1420.686, 755.3789
1421.737, 429.3750
1422.788, 613.4453
1423.839, 519.5273
1424.890, 656.1562
1425.941, 548.2578
1426.992, 743.3633
1428.042, 889.3828
1429.092, 834.3164
1430.142, 1019.191
1431.192, 853.0352
1432.242, 1199.863
1433.291, 1117.859
1434.341, 1146.879
1435.390, 1198.926
1436.439, 1213.648
1437.488, 1523.207
1438.537, 1423.527
1439.586, 1540.945
1440.634, 1849.539
1441.682, 1862.320
1442.731, 1873.336
1443.779, 1898.426
1444.826, 1838.590
1445.874, 2167.824
1446.922, 1821.105
1447.969, 2124.449
1449.016, 1779.906
1450.063, 2143.449
1451.110, 2230.051
1452.157, 2223.797
1453.203, 2192.590
1454.250, 2253.480
1455.296, 2237.375
1456.342, 1973.461
1457.388, 2290.594
1458.433, 1987.770
1459.479, 2052.004
1460.524, 1417.297
1461.570, 1322.633
1462.615, 1320.012
1463.660, 1042.430
1464.705, 1059.473
1465.749, 925.4180
1466.794, 1026.000
1467.838, 731.5234
1468.882, 843.1016
1469.926, 507.7305
1470.970, 1019.406
1472.013, 509.1289
1473.057, 906.9062
1474.100, 443.7344
1475.143, 686.6133
1476.186, 265.5391
1477.229, 530.5156
1478.272, 496.5391
1479.314, 574.5625
1480.357, 441.6328
1481.399, 434.7500
1482.441, 391.9219
1483.483, 368.1445
1484.525, 599.3984
1485.566, 536.6719
1486.608, 423.0039
1487.649, 417.3789
1488.690, 177.8086
1489.731, 231.2852
1490.771, 373.8164
1491.812, 87.60547
1492.853, 340.0352
1493.893, 431.7422
1494.933, 19.53125
1495.973, 239.4258
1497.013, 136.4375
1498.052, 348.5664
1499.092, 96.81641
1500.131, 196.1680
1501.170, 169.3750
1502.209, 362.1875
1503.248, 4.847656
1504.287, 203.6133
1505.325, 85.47266
1506.363, 342.4375
1507.402, 15.50391
1508.440, 105.6523
1509.478, 99.90625
1510.515, 229.2578
1511.553, 257.4961
1512.590, 193.2734
1513.627, 325.3711
1514.664, 353.7383
1515.701, 359.6406
1516.738, 234.6680
1517.775, 277.8164
1518.811, 314.0977
1519.847, 352.5156
1520.883, 26.07422
1521.919, 321.7891
1522.955, 628.6602
1523.991, 35.30469
1525.026, 270.0391
1526.061, 253.0312
1527.096, 237.1875
1528.131, 318.5078
1529.166, 374.7148
1530.201, 350.8164
1531.235, 376.4375
1532.270, 186.9141
1533.304, 284.9883
1534.338, 126.0469
1535.372, 26.94922
1536.405, 135.9766
1537.439, 306.7891
1538.472, 265.4258
1539.505, 192.8203
1540.538, 236.6055
1541.571, 279.7656
1542.604, 175.6680
1543.637, 267.9336
1544.669, 107.9766
1545.701, 10.72656
1546.733, 85.38281
1547.765, 341.6641
1548.797, 2.082031
1549.829, 270.6211
1550.860, 209.0664
1551.891, 268.4609
1552.922, 55.84375
1553.953, 118.6094
1554.984, 140.3906
1556.015, 0.0000000E+00
##END=



