##NAMES=Enstatite
##RRUFFID=R040093
##IDEAL CHEMISTRY=MgSiO_3_
##LOCALITY=Castle Rock, Pennsylvania, USA
##OWNER=RRUFF
##SOURCE=University of Arizona Mineral Museum
##DESCRIPTION=Dark green massive
##STATUS=The identification of this mineral has been confirmed by X-ray diffraction and chemical analysis
##URL=rruff.info/R040093
##MEASURED CHEMISTRY=(Mg_0.84_Fe_0.15_Al_0.01_)Si_1.00_O_3_
##PIN_ID=L00247
##ORIENTATION=Laser parallel to a* (1 0 0). Fiducial mark perpendicular to laser is parallel to -b [0 -1 0]
137.6560, 0.0000000E+00
138.8880, 256.8887
140.1200, 131.8613
141.3520, 104.6172
142.5830, 118.9697
143.8150, 9.411133
145.0460, 3.579102
146.2770, 224.3887
147.5080, 356.9365
148.7390, 265.6680
149.9700, 243.5361
151.2000, 152.6533
152.4310, 185.7998
153.6610, 103.7812
154.8910, 138.4326
156.1210, 13.37305
157.3500, 48.24219
158.5800, 94.85156
159.8090, 183.2314
161.0380, 87.38965
162.2670, 127.5459
163.4960, 381.6328
164.7240, 397.5967
165.9530, 596.3867
167.1810, 730.9531
168.4090, 965.2520
169.6370, 1413.241
170.8650, 1906.885
172.0920, 2289.146
173.3200, 2881.076
174.5470, 3555.920
175.7740, 4407.699
177.0010, 5181.207
178.2280, 6157.129
179.4540, 7247.437
180.6810, 8252.102
181.9070, 9349.113
183.1330, 10701.47
184.3590, 12078.18
185.5850, 13229.23
186.8100, 14268.62
188.0350, 14895.36
189.2610, 15177.46
190.4860, 15149.88
191.7110, 14737.62
192.9350, 14422.65
194.1600, 14392.98
195.3840, 14836.58
196.6080, 15313.45
197.8320, 15674.56
199.0560, 16062.92
200.2800, 16597.52
201.5030, 17353.34
202.7270, 17892.36
203.9500, 18596.61
205.1730, 19203.05
206.3950, 19192.68
207.6180, 19147.80
208.8410, 18509.07
210.0630, 17942.63
211.2850, 16909.87
212.5070, 15503.12
213.7290, 14265.38
214.9500, 12663.62
216.1720, 11185.88
217.3930, 9819.185
218.6140, 8656.535
219.8350, 8136.947
221.0560, 7598.414
222.2770, 7299.908
223.4970, 6956.482
224.7170, 6639.209
225.9370, 6287.143
227.1570, 5792.402
228.3770, 5419.957
229.5970, 5015.725
230.8160, 4615.621
232.0350, 4089.694
233.2540, 3852.021
234.4730, 3308.568
235.6920, 3048.367
236.9110, 2539.464
238.1290, 2064.872
239.3470, 1624.439
240.5650, 1184.074
241.7830, 894.7695
243.0010, 637.6611
244.2180, 515.3301
245.4360, 336.1953
246.6530, 229.1162
247.8700, 201.0938
249.0870, 178.1260
250.3040, 290.2119
251.5200, 220.3545
252.7370, 397.5508
253.9530, 751.7998
255.1690, 1034.104
256.3850, 1201.463
257.6000, 1274.872
258.8160, 1141.335
260.0310, 1176.849
261.2460, 1240.413
262.4610, 1555.028
263.6760, 1484.693
264.8910, 1529.405
266.1050, 1471.165
267.3200, 984.9717
268.5340, 791.8242
269.7480, 491.7217
270.9620, 438.6621
272.1750, 276.6465
273.3890, 13.67480
274.6020, 13.74512
275.8150, 20.85547
277.0280, 16.99316
278.2410, 15.31250
279.4540, 98.57227
280.6660, 17.30469
281.8790, 8.691406
283.0910, 44.79102
284.3030, 129.7334
285.5140, 163.1230
286.7260, 231.4375
287.9380, 375.4795
289.1490, 272.7627
290.3600, 472.1719
291.5710, 685.0654
292.7820, 896.3672
293.9920, 1363.405
295.2030, 1901.467
296.4130, 2499.717
297.6230, 2814.143
298.8330, 3686.734
300.0430, 4234.484
301.2520, 4767.387
302.4620, 4841.193
303.6710, 4765.374
304.8800, 4212.891
306.0890, 4001.346
307.2980, 3601.919
308.5070, 3197.620
309.7150, 3309.047
310.9230, 3715.285
312.1310, 4383.336
313.3390, 5486.225
314.5470, 7057.591
315.7550, 9271.859
316.9620, 12222.50
318.1690, 16106.98
319.3760, 20778.26
320.5830, 26090.08
321.7900, 31749.09
322.9960, 36820.07
324.2030, 40571.61
325.4090, 43109.20
326.6150, 43853.69
327.8210, 42744.89
329.0270, 38682.82
330.2320, 33898.12
331.4380, 29628.64
332.6430, 22250.62
333.8480, 17658.36
335.0530, 15094.12
336.2580, 13169.50
337.4620, 12400.88
338.6670, 11649.81
339.8710, 10936.06
341.0750, 9976.164
342.2790, 8952.122
343.4820, 7942.139
344.6860, 6936.172
345.8890, 5749.245
347.0920, 4834.354
348.2960, 4133.499
349.4980, 3655.679
350.7010, 3203.893
351.9040, 2726.140
353.1060, 2482.466
354.3080, 2485.707
355.5100, 2159.026
356.7120, 2117.373
357.9140, 2212.752
359.1150, 2156.159
360.3170, 2232.597
361.5180, 2301.063
362.7190, 2309.561
363.9200, 2406.086
365.1200, 2698.639
366.3210, 2658.221
367.5210, 2954.831
368.7210, 2935.469
369.9210, 3081.133
371.1210, 3245.823
372.3210, 3569.537
373.5200, 3682.273
374.7200, 3641.033
375.9190, 4034.812
377.1180, 4010.612
378.3170, 4263.432
379.5150, 4355.270
380.7140, 4616.121
381.9120, 4725.988
383.1110, 4829.871
384.3090, 5066.766
385.5060, 5302.673
386.7040, 5120.592
387.9020, 5118.521
389.0990, 5220.465
390.2960, 5144.422
391.4930, 5255.387
392.6900, 5120.364
393.8860, 5028.352
395.0830, 4993.350
396.2790, 4672.358
397.4750, 4562.378
398.6710, 4302.408
399.8670, 4073.447
401.0630, 3674.495
402.2580, 3388.553
403.4540, 3143.621
404.6490, 2996.695
405.8440, 2691.778
407.0390, 2505.869
408.2330, 2344.969
409.4280, 2321.075
410.6220, 2199.191
411.8160, 2052.312
413.0100, 1922.441
414.2040, 1852.427
415.3980, 1939.720
416.5910, 1728.870
417.7850, 1710.025
418.9780, 1654.188
420.1710, 1548.355
421.3640, 1594.267
422.5560, 1615.317
423.7490, 1695.149
424.9410, 1758.193
426.1330, 1911.314
427.3250, 1970.517
428.5170, 2210.742
429.7090, 2179.993
430.9000, 2381.269
432.0910, 2209.569
433.2820, 2087.896
434.4730, 2002.253
435.6640, 1574.638
436.8550, 1564.044
438.0450, 1165.470
439.2360, 970.9160
440.4260, 901.3818
441.6160, 741.8652
442.8060, 634.3662
443.9950, 616.8848
445.1850, 487.4277
446.3740, 394.1982
447.5630, 280.5752
448.7520, 211.7744
449.9410, 123.5322
451.1300, 61.53320
452.3180, 9.150391
453.5060, 135.3232
454.6950, 20.43945
455.8830, 154.2217
457.0700, 172.8682
458.2580, 69.46973
459.4450, 181.9746
460.6330, 43.64844
461.8200, 119.5254
463.0070, 93.00098
464.1940, 45.91699
465.3800, 105.4482
466.5670, 49.52539
467.7530, 95.33105
468.9390, 90.83008
470.1250, 80.31543
471.3110, 58.09082
472.4970, 62.17676
473.6820, 47.68945
474.8680, 196.8564
476.0530, 63.79004
477.2380, 158.1436
478.4230, 118.5996
479.6070, 133.1387
480.7920, 12.77051
481.9760, 18.55859
483.1600, 24.81348
484.3440, 197.2061
485.5280, 33.51270
486.7120, 189.8096
487.8950, 209.0986
489.0780, 158.3779
490.2620, 337.6514
491.4450, 369.9141
492.6270, 575.1680
493.8100, 835.4141
494.9920, 820.6494
496.1750, 1124.877
497.3570, 1232.092
498.5390, 1449.298
499.7210, 1753.493
500.9020, 1883.677
502.0840, 1972.850
503.2650, 2018.750
504.4460, 2126.161
505.6270, 1960.299
506.8080, 1673.424
507.9890, 1660.536
509.1690, 1449.636
510.3500, 1347.723
511.5300, 1417.797
512.7100, 1479.855
513.8900, 1508.900
515.0690, 1600.932
516.2490, 1675.952
517.4280, 1750.139
518.6070, 1822.204
519.7860, 1901.936
520.9650, 1929.904
522.1440, 1954.858
523.3220, 1954.496
524.5010, 1890.681
525.6790, 2008.712
526.8570, 1792.694
528.0350, 1792.690
529.2130, 1906.701
530.3900, 1787.709
531.5670, 1843.717
532.7450, 1701.711
533.9220, 1864.690
535.0980, 2071.714
536.2750, 2067.762
537.4520, 2255.824
538.6280, 2211.912
539.8040, 2030.025
540.9800, 2138.138
542.1560, 1998.232
543.3320, 1893.312
544.5070, 1865.388
545.6830, 1640.458
546.8580, 1605.538
548.0330, 1529.648
549.2080, 1410.740
550.3830, 1325.848
551.5570, 1241.958
552.7310, 1067.050
553.9060, 911.1465
555.0800, 891.2441
556.2540, 867.3672
557.4270, 621.5098
558.6010, 717.6719
559.7740, 737.8262
560.9470, 560.9971
562.1210, 575.1816
563.2930, 598.3467
564.4660, 687.4932
565.6390, 530.6846
566.8110, 597.8906
567.9830, 709.1006
569.1550, 615.3154
570.3270, 800.5225
571.4990, 551.7109
572.6710, 753.9004
573.8420, 802.0693
575.0130, 680.2422
576.1840, 596.3896
577.3550, 860.5127
578.5260, 579.6074
579.6970, 667.6758
580.8670, 670.7168
582.0370, 547.7275
583.2070, 548.7109
584.3770, 409.6641
585.5470, 233.5869
586.7170, 185.4814
587.8860, 66.34277
589.0550, 53.15625
590.2240, 137.9170
591.3930, 51.64160
592.5620, 124.3125
593.7310, 32.33203
594.8990, 28.05957
596.0670, 17.10742
597.2350, 21.17578
598.4030, 27.89941
599.5710, 79.49512
600.7390, 67.45215
601.9060, 14.78320
603.0740, 54.23926
604.2410, 35.19336
605.4080, 58.97754
606.5740, 10.10059
607.7410, 5.200195
608.9080, 3.494141
610.0740, 87.08105
611.2400, 142.6270
612.4060, 282.6377
613.5720, 72.30273
614.7370, 194.7852
615.9030, 98.81934
617.0680, 278.1201
618.2330, 260.4199
619.3980, 350.1260
620.5630, 221.8447
621.7280, 268.0488
622.8920, 355.9336
624.0570, 384.9834
625.2210, 368.1982
626.3850, 496.3633
627.5490, 643.5215
628.7120, 605.6523
629.8760, 591.7559
631.0390, 723.8281
632.2020, 835.8730
633.3650, 976.8887
634.5280, 1089.877
635.6910, 1296.833
636.8530, 1349.763
638.0160, 1307.661
639.1780, 1563.531
640.3400, 1703.371
641.5020, 1938.182
642.6640, 1981.963
643.8250, 2245.713
644.9870, 2377.433
646.1480, 2740.123
647.3090, 3085.782
648.4700, 3480.412
649.6300, 3768.011
650.7910, 4351.579
651.9510, 4900.115
653.1120, 5494.623
654.2720, 6370.100
655.4320, 7445.081
656.5910, 8221.324
657.7510, 9544.983
658.9100, 10918.87
660.0690, 12777.75
661.2290, 14768.50
662.3880, 17151.51
663.5460, 19832.59
664.7050, 23868.74
665.8630, 27814.70
667.0220, 33039.64
668.1800, 38086.75
669.3380, 44392.72
670.4950, 49518.27
671.6530, 54332.99
672.8100, 57062.89
673.9680, 57232.73
675.1250, 54339.59
676.2820, 49794.27
677.4390, 43826.39
678.5950, 37707.13
679.7520, 32149.17
680.9080, 26857.79
682.0640, 22960.19
683.2200, 19587.01
684.3760, 16697.45
685.5320, 14719.54
686.6870, 12809.68
687.8420, 11009.49
688.9980, 9687.144
690.1530, 8439.600
691.3070, 7574.518
692.4620, 6829.802
693.6170, 6082.729
694.7710, 5615.646
695.9250, 5052.461
697.0790, 4991.990
698.2330, 4451.962
699.3870, 4085.240
700.5400, 3811.808
701.6940, 3374.518
702.8470, 3316.236
704.0000, 2961.146
705.1530, 2930.522
706.3050, 2686.878
707.4580, 2616.293
708.6100, 2545.507
709.7630, 2399.095
710.9150, 2279.633
712.0660, 2431.072
713.2180, 2362.122
714.3700, 2263.699
715.5210, 2446.592
716.6720, 2435.138
717.8240, 2381.726
718.9740, 2386.952
720.1250, 2433.799
721.2760, 2449.258
722.4260, 2624.339
723.5770, 2635.371
724.7270, 2845.345
725.8770, 2917.059
727.0260, 3023.133
728.1760, 3590.703
729.3250, 3729.358
730.4750, 4030.354
731.6240, 4439.357
732.7730, 4719.809
733.9220, 5200.252
735.0700, 5468.084
736.2190, 5478.818
737.3670, 5489.425
738.5150, 5406.875
739.6630, 5343.406
740.8110, 5003.083
741.9590, 4631.281
743.1060, 4143.882
744.2540, 3955.144
745.4010, 3530.160
746.5480, 3076.027
747.6950, 2868.975
748.8410, 2567.837
749.9880, 2307.918
751.1340, 2110.763
752.2800, 1892.927
753.4260, 1751.200
754.5720, 1642.137
755.7180, 1569.423
756.8640, 1387.717
758.0090, 1284.010
759.1540, 1300.304
760.2990, 1153.570
761.4440, 1118.800
762.5890, 939.9922
763.7340, 912.1426
764.8780, 863.2549
766.0220, 935.3281
767.1660, 877.3604
768.3100, 655.3525
769.4540, 745.3057
770.5980, 804.2188
771.7410, 463.0938
772.8840, 677.9287
774.0280, 595.7246
775.1700, 716.4814
776.3130, 760.1982
777.4560, 683.8789
778.5980, 874.5205
779.7410, 931.1230
780.8830, 1005.688
782.0250, 840.2129
783.1670, 764.7031
784.3080, 735.1533
785.4500, 610.5664
786.5910, 604.9424
787.7320, 595.2803
788.8730, 390.5840
790.0140, 358.8477
791.1550, 329.0771
792.2950, 160.2705
793.4360, 101.4229
794.5760, 219.5322
795.7160, 155.6045
796.8560, 149.6357
797.9960, 170.6279
799.1350, 33.58105
800.2750, 90.48340
801.4140, 137.6562
802.5530, 39.93457
803.6920, 57.29883
804.8310, 60.75977
805.9690, 3.682617
807.1080, 6.935547
808.2460, 92.37793
809.3840, 64.65430
810.5220, 175.1094
811.6600, 113.0283
812.7970, 64.06543
813.9350, 120.1963
815.0720, 115.8896
816.2090, 10.64160
817.3460, 51.69531
818.4830, 72.34180
819.6200, 12.22754
820.7560, 7.816406
821.8930, 67.77637
823.0290, 149.9834
824.1650, 149.9990
825.3010, 97.88086
826.4360, 48.86133
827.5720, 87.13086
828.7070, 65.74805
829.8420, 45.98926
830.9770, 143.4209
832.1120, 127.7852
833.2470, 125.2607
834.3820, 22.84668
835.5160, 109.4863
836.6500, 116.2256
837.7840, 22.93164
838.9180, 13.05859
840.0520, 207.8447
841.1860, 121.8975
842.3190, 76.04883
843.4520, 95.27734
844.5850, 46.58887
845.7180, 2.958008
846.8510, 88.36035
847.9840, 3.839844
849.1160, 101.3525
850.2490, 123.0547
851.3810, 32.43945
852.5130, 99.80078
853.6450, 74.14160
854.7760, 148.4600
855.9080, 214.7598
857.0390, 141.0410
858.1700, 247.3057
859.3010, 264.5527
860.4320, 173.7842
861.5630, 127.9980
862.6930, 168.1963
863.8240, 307.3877
864.9540, 312.5752
866.0840, 332.9502
867.2140, 341.8506
868.3440, 308.0811
869.4730, 269.2432
870.6030, 249.4062
871.7320, 185.5742
872.8610, 205.7549
873.9900, 195.0801
875.1190, 304.1738
876.2470, 207.4199
877.3760, 281.6670
878.5040, 265.9102
879.6320, 402.1504
880.7600, 333.3848
881.8880, 304.6230
883.0150, 458.8643
884.1430, 407.1123
885.2700, 313.3877
886.3970, 224.6533
887.5240, 282.9102
888.6510, 266.2090
889.7780, 419.3984
890.9040, 415.6309
892.0310, 548.8564
893.1570, 743.0732
894.2830, 643.2803
895.4090, 832.4805
896.5350, 752.6709
897.6600, 953.8545
898.7860, 679.0312
899.9110, 869.1992
901.0360, 814.3613
902.1610, 802.5156
903.2860, 660.6631
904.4100, 624.8047
905.5350, 791.9521
906.6590, 848.0977
907.7830, 777.2363
908.9070, 912.3818
910.0310, 1017.521
911.1540, 1135.662
912.2780, 1166.801
913.4010, 1279.938
914.5240, 1502.072
915.6470, 1674.603
916.7700, 2004.330
917.8930, 2230.460
919.0150, 2606.588
920.1380, 3024.714
921.2600, 3284.868
922.3820, 3470.021
923.5040, 3852.193
924.6260, 4018.407
925.7470, 4113.639
926.8690, 4275.903
927.9900, 3945.664
929.1110, 3578.133
930.2320, 3341.188
931.3530, 3036.004
932.4730, 2886.830
933.5940, 2530.769
934.7140, 2476.445
935.8340, 2114.063
936.9540, 1989.587
938.0740, 1687.328
939.1930, 1669.049
940.3130, 1698.631
941.4320, 1338.312
942.5510, 1264.405
943.6700, 1425.326
944.7890, 1060.039
945.9080, 1052.814
947.0260, 1042.562
948.1450, 1006.449
949.2630, 980.3281
950.3810, 800.6680
951.4990, 935.1475
952.6170, 762.0215
953.7340, 797.1191
954.8520, 926.7793
955.9690, 857.7969
957.0860, 954.1318
958.2030, 835.3916
959.3200, 930.9570
960.4360, 816.6602
961.5530, 892.5303
962.6690, 989.9160
963.7850, 1209.910
964.9010, 1170.262
966.0170, 1106.614
967.1330, 1453.047
968.2480, 1350.751
969.3630, 1686.989
970.4790, 1781.897
971.5940, 1698.506
972.7080, 2084.951
973.8230, 2188.363
974.9380, 2279.561
976.0520, 2382.268
977.1660, 2393.048
978.2800, 2453.635
979.3940, 2410.473
980.5080, 2351.916
981.6220, 2380.406
982.7350, 2431.974
983.8480, 2243.916
984.9610, 2194.314
986.0740, 2336.377
987.1870, 2379.773
988.3000, 2553.105
989.4120, 2569.781
990.5250, 2776.482
991.6370, 2790.214
992.7490, 2823.974
993.8610, 2987.262
994.9720, 3159.520
996.0840, 3312.424
997.1950, 3564.296
998.3060, 3716.328
999.4170, 3927.135
1000.528, 4114.104
1001.639, 4430.100
1002.750, 4712.151
1003.860, 4875.230
1004.970, 5421.339
1006.080, 5788.483
1007.190, 5950.655
1008.300, 5991.855
1009.410, 6140.082
1010.519, 6136.335
1011.628, 6060.615
1012.738, 6012.924
1013.846, 5970.260
1014.955, 5837.620
1016.064, 5909.010
1017.172, 5764.428
1018.281, 6031.869
1019.389, 6232.342
1020.497, 6287.848
1021.605, 6640.379
1022.713, 6685.938
1023.820, 6855.523
1024.928, 7036.695
1026.035, 7067.338
1027.142, 7550.006
1028.249, 8052.767
1029.356, 8766.486
1030.462, 9274.474
1031.569, 10021.25
1032.675, 11266.05
1033.781, 12361.88
1034.887, 13868.74
1035.993, 16248.61
1037.098, 18385.69
1038.204, 20390.74
1039.309, 21697.52
1040.415, 23033.50
1041.520, 22928.46
1042.624, 21913.50
1043.729, 19979.85
1044.834, 17606.95
1045.938, 15166.72
1047.042, 12534.86
1048.146, 10810.03
1049.250, 9160.220
1050.354, 7677.242
1051.458, 6788.588
1052.561, 5923.122
1053.664, 5196.842
1054.767, 4725.167
1055.870, 4276.057
1056.973, 4156.967
1058.076, 3832.213
1059.178, 3846.490
1060.281, 3856.905
1061.383, 3926.615
1062.485, 3970.016
1063.587, 4059.729
1064.688, 4242.154
1065.790, 4350.459
1066.891, 4661.270
1067.993, 5011.445
1069.094, 5248.585
1070.195, 5606.502
1071.295, 6001.277
1072.396, 6527.902
1073.496, 7100.757
1074.597, 7828.241
1075.697, 8761.546
1076.797, 9782.942
1077.897, 11134.79
1078.996, 12713.30
1080.096, 14996.87
1081.195, 17665.50
1082.294, 21089.92
1083.393, 25121.00
1084.492, 29940.85
1085.591, 35324.70
1086.689, 41928.31
1087.788, 48403.77
1088.886, 55158.40
1089.984, 62228.17
1091.082, 68720.66
1092.180, 73297.49
1093.277, 75909.15
1094.375, 76681.11
1095.472, 73670.13
1096.569, 69421.73
1097.666, 62590.96
1098.763, 55743.04
1099.860, 48820.32
1100.956, 42197.16
1102.053, 36470.41
1103.149, 31545.68
1104.245, 26813.12
1105.341, 22869.43
1106.436, 19531.42
1107.532, 16631.48
1108.627, 13994.46
1109.723, 11732.14
1110.818, 9728.721
1111.913, 8525.535
1113.007, 6957.356
1114.102, 6039.873
1115.197, 5181.350
1116.291, 4481.385
1117.385, 3889.133
1118.479, 3381.447
1119.573, 2896.324
1120.666, 2655.796
1121.760, 2353.584
1122.853, 2122.282
1123.947, 1747.042
1125.040, 1675.873
1126.132, 1419.436
1127.225, 1422.922
1128.318, 1135.335
1129.410, 1127.836
1130.502, 722.2842
1131.595, 800.5537
1132.687, 729.9941
1133.778, 734.6396
1134.870, 668.1992
1135.961, 570.7119
1137.053, 440.0439
1138.144, 468.3828
1139.235, 549.8750
1140.326, 361.2568
1141.416, 343.5889
1142.507, 406.9531
1143.597, 225.2803
1144.688, 269.6035
1145.778, 261.9814
1146.868, 289.2988
1147.957, 254.0293
1149.047, 302.3398
1150.136, 179.6572
1151.226, 237.6553
1152.315, 216.9502
1153.404, 182.3564
1154.493, 201.0928
1155.581, 29.35254
1156.670, 188.9111
1157.758, 14.16797
1158.846, 2.489258
1159.934, 189.7500
1161.022, 12.01758
1162.110, 17.20410
1163.198, 53.41602
1164.285, 24.62695
1165.372, 25.51855
1166.459, 76.02148
1167.546, 2.795898
1168.633, 56.62598
1169.720, 25.48828
1170.806, 45.63086
1171.892, 49.26074
1172.979, 123.8154
1174.065, 33.11914
1175.150, 65.92090
1176.236, 15.05176
1177.322, 97.95508
1178.407, 112.0352
1179.492, 92.67773
1180.577, 15.01465
1181.662, 37.93164
1182.747, 4.862305
1183.832, 107.0752
1184.916, 95.80078
1186.000, 72.37207
1187.084, 153.6016
1188.168, 59.93066
1189.252, 122.2793
1190.336, 106.7471
1191.419, 33.70801
1192.503, 118.8564
1193.586, 59.50684
1194.669, 88.21387
1195.752, 58.99219
1196.835, 70.75977
1197.917, 106.7324
1199.000, 72.71973
1200.082, 114.5859
1201.164, 46.66406
1202.246, 74.22754
1203.328, 126.8594
1204.409, 52.43555
1205.491, 79.79102
1206.572, 20.77539
1207.653, 85.68359
1208.734, 14.22559
1209.815, 24.26074
1210.896, 25.64746
1211.976, 89.00586
1213.057, 31.65918
1214.137, 10.38281
1215.217, 41.15430
1216.297, 19.99023
1217.377, 130.1191
1218.456, 94.95605
1219.536, 76.26562
1220.615, 155.2979
1221.694, 84.30566
1222.773, 138.2871
1223.852, 79.24121
1224.931, 63.16797
1226.009, 37.93457
1227.088, 31.01953
1228.166, 91.74023
1229.244, 3.470703
1230.322, 223.1484
1231.400, 85.89355
1232.477, 7.415039
1233.555, 67.14746
1234.632, 104.6787
1235.709, 272.1777
1236.786, 292.6484
1237.863, 49.09082
1238.939, 69.50488
1240.016, 94.80469
1241.092, 65.24414
1242.168, 20.51562
1243.245, 133.9326
1244.320, 21.07812
1245.396, 64.16211
1246.472, 95.20996
1247.547, 28.22363
1248.622, 79.73535
1249.697, 170.1123
1250.772, 97.01270
1251.847, 120.8779
1252.922, 108.1504
1253.996, 94.51562
1255.071, 159.2871
1256.145, 179.0273
1257.219, 198.7354
1258.293, 179.4854
1259.366, 35.43164
1260.440, 72.29883
1261.513, 199.1836
1262.587, 35.27832
1263.660, 173.2393
1264.733, 185.6562
1265.805, 43.03906
1266.878, 259.3711
1267.951, 192.6709
1269.023, 219.9375
1270.095, 253.1699
1271.167, 225.5791
1272.239, 237.7959
1273.311, 289.0791
1274.382, 223.1816
1275.454, 276.2500
1276.525, 138.5186
1277.596, 319.5195
1278.667, 237.7109
1279.738, 60.67090
1280.808, 347.5566
1281.879, 215.5254
1282.949, 212.3633
1284.019, 115.1475
1285.089, 359.3389
1286.159, 348.0518
1287.229, 224.7334
1288.298, 360.3164
1289.368, 314.9297
1290.437, 289.2725
1291.506, 251.8213
1292.575, 260.5537
1293.644, 254.5840
1294.712, 339.0322
1295.781, 387.4453
1296.849, 386.7490
1297.917, 397.8896
1298.985, 399.3916
1300.053, 366.6768
1301.121, 378.9893
1302.188, 311.2080
1303.255, 318.6416
1304.323, 349.2539
1305.390, 356.7158
1306.457, 233.8018
1307.523, 354.8545
1308.590, 293.8740
1309.656, 430.0576
1310.723, 398.9082
1311.789, 220.5605
1312.855, 91.02344
1313.921, 325.8672
1314.986, 376.2363
1316.052, 380.3779
1317.117, 228.2744
1318.182, 375.1338
1319.248, 414.8457
1320.312, 317.2588
1321.377, 355.9746
1322.442, 395.3018
1323.506, 349.7158
1324.571, 312.8506
1325.635, 515.1357
1326.699, 406.0605
1327.762, 144.0137
1328.826, 166.2305
1329.890, 338.6035
1330.953, 329.1475
1332.016, 471.4883
1333.079, 483.2031
1334.142, 317.1064
1335.205, 358.9131
1336.268, 267.2607
1337.330, 140.0020
1338.392, 191.4756
1339.454, 323.4014
1340.516, 203.3252
1341.578, 315.6162
1342.640, 303.1562
1343.701, 310.6787
1344.763, 304.4463
1345.824, 266.3770
1346.885, 318.1309
1347.946, 281.7744
1349.007, 153.7188
1350.067, 298.3340
1351.128, 410.1436
1352.188, 235.6768
1353.248, 323.1133
1354.308, 119.0264
1355.368, 395.2979
1356.428, 324.7656
1357.487, 179.0527
1358.547, 111.8164
1359.606, 117.2598
1360.665, 352.5469
1361.724, 218.7676
1362.783, 204.1172
1363.841, 356.7803
1364.900, 266.4229
1365.958, 402.1709
1367.016, 342.2314
1368.074, 83.40430
1369.132, 233.3564
1370.190, 51.29395
1371.247, 115.5547
1372.304, 243.8467
1373.362, 246.6025
1374.419, 300.6299
1375.476, 236.0713
1376.532, 262.7490
1377.589, 202.5654
1378.645, 261.4971
1379.702, 198.6855
1380.758, 201.0049
1381.814, 191.9775
1382.870, 161.9346
1383.925, 142.1035
1384.981, 95.71484
1386.036, 43.31836
1387.092, 48.67578
1388.147, 38.80078
1389.202, 185.8516
1390.256, 91.78613
1391.311, 149.9834
1392.365, 251.0244
1393.420, 141.2305
1394.474, 278.4160
1395.528, 160.4346
1396.582, 183.6758
1397.636, 53.82812
1398.689, 91.01660
1399.742, 67.14551
1400.796, 312.2637
1401.849, 177.3164
1402.902, 45.58691
1403.955, 285.2559
1405.007, 46.33398
1406.060, 93.38867
1407.112, 111.7500
1408.164, 69.90234
1409.216, 92.64746
1410.268, 301.7266
1411.320, 110.1533
1412.371, 213.1748
1413.423, 308.1895
1414.474, 227.1035
1415.525, 292.1055
1416.576, 317.2246
1417.627, 123.1963
1418.678, 27.87402
1419.728, 255.0273
1420.778, 159.9199
1421.829, 235.7754
1422.879, 114.5781
1423.928, 150.3711
1424.978, 276.3945
1426.028, 352.1875
1427.077, 265.9678
1428.126, 201.9385
1429.176, 287.7100
1430.225, 374.4766
1431.273, 366.2344
1432.322, 428.9834
1433.371, 297.6387
1434.419, 401.3682
1435.467, 401.0869
1436.515, 397.7949
1437.563, 652.4922
1438.611, 837.0342
1439.658, 728.7109
1440.706, 915.3730
1441.753, 1086.050
1442.800, 986.7529
1443.847, 1167.432
1444.894, 1151.171
1445.941, 1183.175
1446.987, 1012.057
1448.034, 924.0400
1449.080, 803.2754
1450.126, 797.1016
1451.172, 693.9238
1452.218, 600.8154
1453.263, 474.5645
1454.309, 368.7373
1455.354, 348.5127
1456.399, 301.6367
1457.444, 449.4795
1458.489, 334.5303
1459.534, 350.5576
1460.579, 441.6562
1461.623, 347.7568
1462.667, 398.9004
1463.711, 397.2900
1464.755, 391.8721
1465.799, 405.3867
1466.843, 407.5205
1467.886, 420.1152
1468.930, 391.7637
1469.973, 356.8691
1471.016, 319.0059
1472.059, 241.2324
1473.101, 270.4473
1474.144, 247.6992
1475.186, 215.7949
1476.229, 276.7773
1477.271, 86.12695
1478.313, 194.4902
1479.355, 408.8574
1480.396, 294.2227
1481.438, 279.5625
1482.479, 217.8945
1483.520, 238.7363
1484.561, 280.2930
1485.602, 251.5352
1486.643, 270.9062
1487.684, 125.3008
1488.724, 140.6953
1489.765, 144.7363
1490.805, 198.9258
1491.845, 76.99219
1492.885, 97.07031
1493.924, 155.4414
1494.964, 71.66797
1496.003, 252.0996
1497.042, 225.5430
1498.082, 177.9941
1499.120, 256.4531
1500.159, 156.1562
1501.198, 171.7695
1502.236, 25.94336
1503.275, 122.5078
1504.313, 28.97461
1505.351, 41.54492
1506.389, 108.9512
1507.427, 18.53516
1508.464, 121.0000
1509.502, 119.5566
1510.539, 31.84961
1511.576, 28.76758
1512.613, 44.58984
1513.650, 135.0664
1514.687, 75.74023
1515.723, 29.43164
1516.759, 188.1309
1517.796, 104.8711
1518.832, 79.64258
1519.868, 167.4336
1520.903, 48.24609
1521.939, 84.07422
1522.975, 59.91992
1524.010, 121.7891
1525.045, 171.6777
1526.080, 104.5879
1527.115, 40.51758
1528.150, 397.4766
1529.184, 246.4570
1530.219, 167.4531
1531.253, 233.4707
1532.287, 61.52539
1533.321, 108.6191
1534.355, 241.7344
1535.388, 110.8867
1536.422, 171.0820
1537.455, 239.3086
1538.488, 266.5723
1539.522, 197.8672
1540.554, 65.27539
1541.587, 150.2578
1542.620, 288.0078
1543.652, 196.6758
1544.685, 287.8887
1545.717, 148.4844
1546.749, 144.1602
1547.781, 102.9473
1548.812, 17.56445
1549.844, 145.8906
1550.875, 194.7578
1551.906, 33.73242
1552.938, 468.9941
1553.968, 374.3359
1554.999, 504.4023
1556.030, 172.8145
1557.060, 177.6152
1558.091, 103.2617
1559.121, 152.7188
1560.151, 194.1602
1561.181, 183.5859
1562.211, 205.4492
1563.240, 227.5684
1564.270, 154.0938
1565.299, 249.0000
1566.328, 154.0430
1567.357, 146.6992
1568.386, 262.2988
1569.415, 28.83008
1570.443, 54.43359
1571.472, 37.90234
1572.500, 13.60742
1573.528, 146.8145
1574.556, 127.1094
1575.584, 2.253906
1576.611, 93.02539
1577.639, 35.27344
1578.666, 0.0000000E+00
##END=



