##NAMES=Epididymite
##RRUFFID=R070580
##IDEAL CHEMISTRY=Na_2_Be_2_Si_6_O_15_&#183;H_2_O
##LOCALITY=Narsarsuk, Narsaq, Kitaa, Greenland
##OWNER=RRUFF
##SOURCE=James Shigley
##DESCRIPTION=A translucent to white elongated prism.
##STATUS=The identification of this mineral is confirmed by single-crystal X-ray diffraction and chemical analysis.
##URL=rruff.info/R070580
##MEASURED CHEMISTRY=(Na_1.97_K_0.03_)_Σ=2_Be_2_Si_6.00_O_15_·H_2_O; trace amounts of Al; Be and H_2_O assumed by stoichiometry
##PIN_ID=M01839
##ORIENTATION=Laser parallel to b* (0 1 0). Fiducial mark perpendicular to laser is parallel to -c [0 0 -1]
111.2060, 7620.000
112.4440, 7918.000
113.6810, 8268.000
114.9180, 8559.000
116.1550, 8792.000
117.3920, 9214.000
118.6290, 9728.000
119.8650, 10269.00
121.1010, 11373.00
122.3370, 12107.00
123.5730, 12935.00
124.8090, 13040.00
126.0450, 12475.00
127.2800, 12104.00
128.5150, 12391.00
129.7500, 12995.00
130.9850, 14055.00
132.2200, 15293.00
133.4540, 15788.00
134.6890, 15478.00
135.9230, 14257.00
137.1570, 12571.00
138.3900, 10712.00
139.6240, 9634.000
140.8580, 9049.000
142.0910, 8568.000
143.3240, 8258.000
144.5570, 8199.000
145.7900, 8240.000
147.0220, 8264.000
148.2550, 8310.000
149.4870, 8467.000
150.7190, 8562.000
151.9510, 8468.000
153.1830, 8534.000
154.4140, 8460.000
155.6460, 8320.000
156.8770, 8250.000
158.1080, 8100.000
159.3390, 8066.000
160.5690, 7996.000
161.8000, 7949.827
163.0300, 7931.000
164.2600, 7956.000
165.4900, 7980.000
166.7200, 8096.000
167.9500, 8118.000
169.1790, 8047.000
170.4080, 8190.000
171.6380, 8246.000
172.8670, 8160.000
174.0950, 8202.000
175.3240, 8190.000
176.5520, 8190.000
177.7810, 8296.000
179.0090, 8351.000
180.2370, 8460.000
181.4640, 8399.000
182.6920, 8623.000
183.9190, 8759.000
185.1460, 8647.000
186.3730, 8908.000
187.6000, 9252.000
188.8270, 9500.000
190.0530, 9648.000
191.2800, 9884.000
192.5060, 10108.00
193.7320, 10311.00
194.9580, 10663.00
196.1830, 10815.00
197.4090, 11031.00
198.6340, 11107.00
199.8590, 11090.00
201.0840, 11020.00
202.3090, 10787.00
203.5340, 10544.00
204.7580, 10205.00
205.9820, 9892.000
207.2060, 9612.000
208.4300, 9411.966
209.6540, 9324.000
210.8780, 9156.000
212.1010, 9075.000
213.3240, 8984.523
214.5470, 8856.000
215.7700, 8879.000
216.9930, 8862.000
218.2150, 8910.000
219.4380, 8815.000
220.6600, 8840.000
221.8820, 8867.000
223.1040, 8838.000
224.3260, 8937.228
225.5470, 9052.000
226.7680, 9222.000
227.9900, 9311.000
229.2110, 9685.000
230.4310, 9819.000
231.6520, 10154.00
232.8720, 10445.00
234.0930, 10673.00
235.3130, 11154.00
236.5330, 11433.00
237.7530, 11786.00
238.9720, 12325.00
240.1920, 12644.00
241.4110, 13017.00
242.6300, 13082.00
243.8490, 12984.00
245.0680, 12628.00
246.2860, 12158.00
247.5040, 11754.00
248.7230, 11410.00
249.9410, 11168.00
251.1590, 10928.00
252.3760, 10714.00
253.5940, 10676.00
254.8110, 10578.00
256.0280, 10511.00
257.2450, 10335.00
258.4620, 10287.00
259.6790, 10356.00
260.8950, 10453.00
262.1120, 10140.00
263.3280, 9986.000
264.5440, 9818.000
265.7600, 9544.000
266.9750, 9364.000
268.1910, 9086.000
269.4060, 9094.000
270.6210, 9196.000
271.8360, 9135.000
273.0510, 9004.000
274.2650, 8918.000
275.4800, 8935.000
276.6940, 8968.000
277.9080, 8883.000
279.1220, 8900.000
280.3360, 8918.000
281.5490, 8889.000
282.7630, 8920.000
283.9760, 8991.000
285.1890, 8886.000
286.4020, 8880.000
287.6150, 8822.000
288.8270, 8929.000
290.0400, 8930.000
291.2520, 8848.000
292.4640, 8969.000
293.6760, 8806.000
294.8870, 8875.000
296.0990, 8863.000
297.3100, 8861.000
298.5210, 8798.000
299.7320, 8841.000
300.9430, 8880.000
302.1540, 8908.000
303.3640, 8906.000
304.5750, 8771.000
305.7850, 8900.000
306.9950, 8874.000
308.2050, 8954.000
309.4140, 9064.000
310.6240, 9054.000
311.8330, 9078.000
313.0420, 9131.000
314.2510, 9142.000
315.4600, 9082.000
316.6680, 9169.000
317.8770, 9058.000
319.0850, 9214.000
320.2930, 9277.000
321.5010, 9179.000
322.7090, 9207.000
323.9160, 9208.000
325.1240, 9283.000
326.3310, 9321.000
327.5380, 9416.000
328.7450, 9540.000
329.9520, 9800.000
331.1580, 9856.000
332.3650, 9950.000
333.5710, 10305.00
334.7770, 10616.00
335.9830, 10994.00
337.1880, 11468.00
338.3940, 11830.00
339.5990, 12223.00
340.8040, 12746.00
342.0090, 13139.00
343.2140, 13901.00
344.4190, 14737.00
345.6230, 15241.00
346.8280, 15546.00
348.0320, 14962.00
349.2360, 14135.00
350.4400, 13136.00
351.6430, 12218.00
352.8470, 11648.00
354.0500, 11219.00
355.2530, 10986.00
356.4560, 10874.00
357.6590, 10648.00
358.8620, 10707.00
360.0640, 10691.00
361.2660, 10885.00
362.4680, 10856.00
363.6700, 10996.00
364.8720, 11030.00
366.0740, 11268.00
367.2750, 11489.00
368.4760, 11775.00
369.6770, 12113.00
370.8780, 12766.00
372.0790, 13445.00
373.2800, 14022.00
374.4800, 14757.00
375.6800, 15301.00
376.8800, 16012.00
378.0800, 16707.00
379.2800, 17548.00
380.4790, 18077.00
381.6790, 18645.00
382.8780, 18242.00
384.0770, 17529.00
385.2760, 16596.00
386.4750, 15195.00
387.6730, 14300.00
388.8720, 13340.00
390.0700, 12649.00
391.2680, 11863.00
392.4660, 11440.00
393.6630, 11179.00
394.8610, 11189.00
396.0580, 11306.00
397.2550, 11833.00
398.4520, 12399.00
399.6490, 12991.89
400.8460, 13722.93
402.0420, 14590.00
403.2390, 15424.00
404.4350, 16430.00
405.6310, 17624.00
406.8270, 19387.00
408.0220, 20538.00
409.2180, 20797.00
410.4130, 20060.00
411.6080, 17981.00
412.8030, 15480.00
413.9980, 13501.00
415.1920, 12233.00
416.3870, 11066.00
417.5810, 10685.00
418.7750, 10397.00
419.9690, 10113.00
421.1630, 9995.000
422.3570, 9938.000
423.5500, 9831.000
424.7430, 9821.000
425.9360, 9684.000
427.1290, 9824.000
428.3220, 9708.000
429.5150, 9707.000
430.7070, 9510.000
431.8990, 9694.000
433.0910, 9744.000
434.2830, 9590.000
435.4750, 9681.000
436.6670, 9811.000
437.8580, 9764.000
439.0490, 9738.000
440.2400, 9752.000
441.4310, 9689.000
442.6220, 9730.530
443.8130, 9652.000
445.0030, 9740.000
446.1930, 9709.000
447.3830, 9601.000
448.5730, 9669.000
449.7630, 9787.000
450.9520, 9687.000
452.1420, 9830.000
453.3310, 9849.000
454.5200, 9826.000
455.7090, 9975.000
456.8980, 10077.00
458.0860, 10094.00
459.2740, 10167.59
460.4630, 10178.27
461.6510, 10215.00
462.8380, 10176.00
464.0260, 10198.00
465.2140, 10183.00
466.4010, 10282.10
467.5880, 10410.00
468.7750, 10525.00
469.9620, 10689.00
471.1490, 10840.00
472.3350, 10938.00
473.5220, 11220.00
474.7080, 11444.00
475.8940, 11703.00
477.0800, 12047.00
478.2650, 12067.00
479.4510, 12156.00
480.6360, 11919.00
481.8210, 11909.00
483.0060, 11849.00
484.1910, 12123.00
485.3760, 12168.00
486.5600, 12185.00
487.7440, 12192.00
488.9290, 11784.00
490.1130, 11674.00
491.2960, 11303.00
492.4800, 11155.00
493.6630, 10974.00
494.8470, 10963.00
496.0300, 11011.00
497.2130, 11020.00
498.3960, 11170.00
499.5780, 11389.00
500.7610, 11494.00
501.9430, 11607.00
503.1250, 11933.00
504.3070, 12300.00
505.4890, 12624.00
506.6710, 13398.00
507.8520, 14512.00
509.0330, 15823.00
510.2140, 17861.00
511.3950, 20658.00
512.5760, 23526.00
513.7570, 26300.00
514.9370, 28789.00
516.1170, 31639.00
517.2980, 35624.00
518.4780, 39352.00
519.6570, 42482.00
520.8370, 43723.00
522.0160, 41324.00
523.1960, 37194.00
524.3750, 31441.00
525.5540, 26067.00
526.7320, 22117.00
527.9110, 18966.00
529.0890, 16754.00
530.2680, 15296.00
531.4460, 14382.00
532.6240, 13413.00
533.8010, 12911.00
534.9790, 12398.00
536.1560, 12369.00
537.3340, 11949.00
538.5110, 11869.00
539.6880, 11743.00
540.8650, 11471.00
542.0410, 11406.00
543.2180, 11333.00
544.3940, 11263.00
545.5700, 11095.00
546.7460, 11184.00
547.9220, 11158.00
549.0970, 11010.00
550.2730, 10993.00
551.4480, 10998.00
552.6230, 10908.00
553.7980, 10941.00
554.9730, 10900.00
556.1470, 10835.00
557.3210, 10946.00
558.4960, 10918.00
559.6700, 10990.00
560.8440, 11020.31
562.0170, 10853.00
563.1910, 11012.00
564.3640, 11034.00
565.5380, 10890.00
566.7110, 10956.00
567.8840, 11088.00
569.0560, 11021.00
570.2290, 11206.00
571.4010, 11349.00
572.5740, 11371.00
573.7460, 11822.00
574.9180, 12106.00
576.0890, 12423.00
577.2610, 12925.00
578.4320, 13339.00
579.6040, 13912.00
580.7750, 14335.00
581.9450, 15069.00
583.1160, 15736.00
584.2870, 16039.00
585.4570, 16218.00
586.6270, 15907.00
587.7980, 15079.00
588.9670, 14168.00
590.1370, 13232.00
591.3070, 12608.00
592.4760, 12138.00
593.6450, 11737.00
594.8140, 11699.00
595.9830, 11342.00
597.1520, 11334.00
598.3210, 11216.00
599.4890, 11292.00
600.6570, 11277.00
601.8250, 11092.00
602.9930, 10999.00
604.1610, 11088.00
605.3290, 10981.00
606.4960, 11105.00
607.6630, 11022.00
608.8300, 11021.00
609.9970, 10918.00
611.1640, 10936.11
612.3300, 10942.38
613.4970, 10962.00
614.6630, 11007.00
615.8290, 11035.00
616.9950, 11073.00
618.1610, 11113.00
619.3260, 11178.00
620.4920, 11401.00
621.6570, 11303.00
622.8220, 11567.00
623.9870, 11579.00
625.1520, 11751.00
626.3160, 11928.00
627.4810, 12034.00
628.6450, 12135.00
629.8090, 12253.00
630.9730, 12290.00
632.1370, 12374.00
633.3000, 12601.00
634.4640, 12577.00
635.6270, 12487.00
636.7900, 12295.00
637.9530, 12124.00
639.1160, 11798.00
640.2780, 11655.00
641.4410, 11534.00
642.6030, 11513.00
643.7650, 11586.00
644.9270, 11424.00
646.0890, 11520.00
647.2500, 11442.00
648.4120, 11559.00
649.5730, 11463.00
650.7340, 11439.00
651.8950, 11477.00
653.0560, 11502.00
654.2160, 11347.00
655.3770, 11460.00
656.5370, 11403.00
657.6970, 11171.00
658.8570, 11367.00
660.0170, 11252.00
661.1760, 11229.00
662.3360, 11197.00
663.4950, 11133.00
664.6540, 11295.00
665.8130, 11186.00
666.9720, 11307.00
668.1310, 11136.00
669.2890, 11106.00
670.4470, 11206.00
671.6050, 11105.00
672.7630, 11188.00
673.9210, 11274.00
675.0790, 11330.00
676.2360, 11244.00
677.3930, 11292.00
678.5510, 11284.00
679.7080, 11184.00
680.8640, 11235.00
682.0210, 11303.00
683.1770, 11313.00
684.3340, 11304.00
685.4900, 11435.00
686.6460, 11256.00
687.8020, 11164.00
688.9570, 11259.00
690.1130, 11366.00
691.2680, 11366.00
692.4230, 11350.00
693.5780, 11279.00
694.7330, 11234.00
695.8880, 11354.00
697.0420, 11203.00
698.1960, 11328.00
699.3510, 11382.00
700.5040, 11343.00
701.6580, 11383.00
702.8120, 11325.00
703.9650, 11279.00
705.1190, 11364.00
706.2720, 11467.00
707.4250, 11411.00
708.5780, 11514.00
709.7300, 11433.00
710.8830, 11482.00
712.0350, 11362.00
713.1870, 11349.00
714.3390, 11434.00
715.4910, 11390.00
716.6430, 11481.00
717.7940, 11474.00
718.9460, 11569.00
720.0970, 11582.00
721.2480, 11710.00
722.3990, 11555.00
723.5500, 11533.00
724.7000, 11562.00
725.8500, 11444.00
727.0010, 11498.00
728.1510, 11589.00
729.3010, 11424.00
730.4500, 11516.00
731.6000, 11656.00
732.7490, 11680.00
733.8980, 11644.00
735.0470, 11717.00
736.1960, 11778.00
737.3450, 11660.00
738.4940, 11796.00
739.6420, 11717.00
740.7900, 11761.00
741.9380, 11737.00
743.0860, 11713.00
744.2340, 11788.00
745.3810, 11680.00
746.5290, 11842.00
747.6760, 11816.00
748.8230, 11865.00
749.9700, 11831.00
751.1170, 11914.00
752.2630, 12059.00
753.4100, 12101.00
754.5560, 12106.00
755.7020, 12014.00
756.8480, 11931.00
757.9940, 12021.00
759.1390, 11967.00
760.2850, 12082.00
761.4300, 12153.00
762.5750, 12042.00
763.7200, 12165.00
764.8650, 12046.00
766.0100, 12175.00
767.1540, 12139.00
768.2980, 12053.00
769.4420, 12043.00
770.5860, 12093.00
771.7300, 12103.00
772.8740, 11992.00
774.0170, 12028.00
775.1610, 11966.00
776.3040, 11979.00
777.4470, 12055.00
778.5900, 11993.00
779.7320, 12006.00
780.8750, 12131.00
782.0170, 12041.00
783.1590, 12114.00
784.3010, 12152.00
785.4430, 12019.00
786.5850, 12183.00
787.7260, 11991.00
788.8680, 12135.00
790.0090, 12056.00
791.1500, 12143.00
792.2910, 12152.00
793.4310, 12193.00
794.5720, 12238.00
795.7120, 12312.00
796.8520, 12204.00
797.9920, 12314.00
799.1320, 12204.00
800.2720, 12314.00
801.4120, 12262.00
802.5510, 12331.00
803.6900, 12251.00
804.8290, 12278.00
805.9680, 12251.00
807.1070, 12328.00
808.2450, 12336.00
809.3840, 12281.00
810.5220, 12386.00
811.6600, 12337.00
812.7980, 12373.00
813.9360, 12265.00
815.0730, 12342.00
816.2110, 12402.00
817.3480, 12356.00
818.4850, 12413.00
819.6220, 12385.00
820.7590, 12458.00
821.8960, 12401.00
823.0320, 12339.00
824.1680, 12369.00
825.3040, 12320.55
826.4400, 12421.00
827.5760, 12374.00
828.7120, 12411.00
829.8470, 12618.00
830.9830, 12594.00
832.1180, 12454.00
833.2530, 12570.00
834.3880, 12508.00
835.5220, 12584.00
836.6570, 12586.00
837.7910, 12510.00
838.9250, 12663.00
840.0590, 12745.00
841.1930, 12628.00
842.3270, 12660.00
843.4600, 12625.00
844.5940, 12650.00
845.7270, 12696.00
846.8600, 12727.00
847.9930, 12791.00
849.1250, 12899.00
850.2580, 12753.00
851.3900, 12844.00
852.5230, 12752.00
853.6550, 12960.00
854.7870, 12925.00
855.9180, 13062.00
857.0500, 12997.00
858.1810, 12988.00
859.3130, 13112.00
860.4440, 13039.00
861.5750, 13121.00
862.7050, 13096.00
863.8360, 13095.00
864.9660, 13173.00
866.0970, 13048.00
867.2270, 13043.00
868.3570, 13218.00
869.4870, 13096.00
870.6160, 13004.00
871.7460, 13061.00
872.8750, 12955.00
874.0040, 13016.00
875.1330, 12998.00
876.2620, 13174.00
877.3910, 12991.00
878.5190, 12953.00
879.6470, 13208.00
880.7760, 13108.00
881.9040, 13199.00
883.0310, 13168.00
884.1590, 13038.00
885.2870, 12975.00
886.4140, 13104.00
887.5410, 13193.00
888.6680, 13147.00
889.7950, 13157.00
890.9220, 13017.00
892.0480, 13076.30
893.1750, 13246.00
894.3010, 13097.00
895.4270, 13188.00
896.5530, 13125.00
897.6790, 13090.00
898.8040, 13050.00
899.9300, 13032.33
901.0550, 13143.00
902.1800, 13030.00
903.3050, 13104.00
904.4300, 13139.00
905.5540, 13128.00
906.6790, 13051.00
907.8030, 13128.00
908.9270, 13239.00
910.0510, 13154.00
911.1750, 13039.00
912.2990, 13285.00
913.4220, 13144.00
914.5450, 13157.00
915.6690, 13118.00
916.7920, 13075.44
917.9140, 13152.00
919.0370, 13123.00
920.1600, 13028.00
921.2820, 13222.00
922.4040, 13165.00
923.5260, 13314.00
924.6480, 13142.00
925.7700, 13131.00
926.8910, 13269.00
928.0130, 13132.00
929.1340, 13281.00
930.2550, 13278.00
931.3760, 13218.00
932.4970, 13297.00
933.6170, 13200.00
934.7380, 13199.00
935.8580, 13359.00
936.9780, 13235.00
938.0980, 13354.00
939.2180, 13382.00
940.3370, 13280.00
941.4570, 13323.00
942.5760, 13195.00
943.6950, 13263.00
944.8140, 13208.00
945.9330, 13264.00
947.0520, 13343.00
948.1700, 13400.00
949.2890, 13186.00
950.4070, 13418.00
951.5250, 13224.00
952.6430, 13438.00
953.7600, 13341.00
954.8780, 13392.00
955.9950, 13343.00
957.1120, 13407.00
958.2290, 13296.00
959.3460, 13391.00
960.4630, 13464.00
961.5800, 13316.00
962.6960, 13355.00
963.8120, 13425.00
964.9280, 13335.00
966.0440, 13455.00
967.1600, 13309.00
968.2760, 13428.00
969.3910, 13441.00
970.5060, 13298.00
971.6210, 13551.00
972.7360, 13323.00
973.8510, 13463.00
974.9660, 13537.00
976.0800, 13414.00
977.1950, 13605.00
978.3090, 13471.00
979.4230, 13486.00
980.5370, 13413.00
981.6500, 13554.00
982.7640, 13553.00
983.8770, 13678.00
984.9900, 13594.00
986.1030, 13494.00
987.2160, 13744.00
988.3290, 13449.00
989.4420, 13557.00
990.5540, 13690.00
991.6660, 13617.00
992.7780, 13617.00
993.8900, 13787.00
995.0020, 13787.00
996.1140, 13730.00
997.2250, 13793.00
998.3360, 13896.00
999.4470, 13923.00
1000.558, 14111.00
1001.669, 14113.00
1002.780, 14384.00
1003.890, 14308.00
1005.001, 14287.00
1006.111, 14210.00
1007.221, 14115.00
1008.331, 14112.00
1009.440, 14174.00
1010.550, 14263.00
1011.659, 14082.00
1012.768, 14019.00
1013.877, 14120.00
1014.986, 13990.00
1016.095, 14007.00
1017.204, 14062.00
1018.312, 13969.00
1019.420, 14078.00
1020.528, 14050.00
1021.636, 14139.00
1022.744, 14128.00
1023.852, 14052.00
1024.959, 14334.00
1026.066, 14162.00
1027.173, 14131.00
1028.280, 13929.00
1029.387, 14050.00
1030.494, 14007.00
1031.600, 14308.00
1032.707, 14227.00
1033.813, 14241.00
1034.919, 14236.00
1036.025, 14217.00
1037.130, 14428.00
1038.236, 14371.00
1039.341, 14522.00
1040.446, 14399.00
1041.552, 14624.00
1042.656, 14600.00
1043.761, 14839.00
1044.866, 14747.00
1045.970, 14798.00
1047.074, 14913.00
1048.179, 14873.00
1049.282, 14962.00
1050.386, 14914.00
1051.490, 14927.00
1052.593, 14895.00
1053.697, 14862.00
1054.800, 14779.00
1055.903, 14786.16
1057.006, 14763.55
1058.108, 14792.00
1059.211, 14790.00
1060.313, 14834.00
1061.415, 14900.00
1062.517, 14925.00
1063.619, 14862.00
1064.721, 14904.16
1065.823, 15075.00
1066.924, 14928.00
1068.025, 14961.00
1069.126, 15035.00
1070.227, 14930.00
1071.328, 15063.00
1072.429, 14910.00
1073.529, 14978.00
1074.629, 14921.00
1075.729, 14767.00
1076.829, 14960.00
1077.929, 14782.00
1079.029, 14758.00
1080.128, 14696.00
1081.228, 14734.00
1082.327, 14818.00
1083.426, 14803.00
1084.525, 14793.00
1085.623, 14839.00
1086.722, 14819.52
1087.820, 14826.00
1088.919, 14849.00
1090.017, 14821.00
1091.115, 14889.00
1092.212, 14801.00
1093.310, 14864.00
1094.407, 14895.00
1095.505, 14823.00
1096.602, 14772.00
1097.699, 14853.46
1098.795, 14953.00
1099.892, 14955.00
1100.989, 14983.00
1102.085, 14929.00
1103.181, 15015.02
1104.277, 15099.00
1105.373, 15171.00
1106.469, 15291.00
1107.564, 15400.00
1108.660, 15609.00
1109.755, 15786.00
1110.850, 15769.00
1111.945, 15775.00
1113.040, 16084.00
1114.134, 16306.00
1115.229, 16418.00
1116.323, 16547.00
1117.417, 16775.00
1118.511, 17048.00
1119.605, 17216.00
1120.698, 17325.00
1121.792, 17472.00
1122.885, 17868.00
1123.978, 18090.00
1125.071, 18496.00
1126.164, 18810.00
1127.257, 19294.00
1128.349, 20031.00
1129.442, 20623.00
1130.534, 21204.00
1131.626, 22098.00
1132.718, 22826.00
1133.810, 23410.00
1134.901, 23972.00
1135.993, 24605.00
1137.084, 24428.00
1138.175, 24745.00
1139.266, 24497.00
1140.357, 24188.00
1141.448, 23433.00
1142.538, 22748.00
1143.628, 21922.00
1144.719, 21250.00
1145.809, 20543.00
1146.898, 19520.00
1147.988, 18918.00
1149.078, 18294.00
1150.167, 17922.00
1151.256, 17266.00
1152.345, 17115.00
1153.434, 16883.00
1154.523, 16477.00
1155.612, 16518.00
1156.700, 16197.00
1157.788, 16079.00
1158.877, 15980.00
1159.964, 15863.00
1161.052, 15766.44
1162.140, 15626.00
1163.227, 15600.00
1164.315, 15504.00
1165.402, 15478.00
1166.489, 15510.00
1167.576, 15441.00
1168.663, 15409.00
1169.749, 15374.00
1170.836, 15321.00
1171.922, 15269.00
1173.008, 15217.00
1174.094, 15271.00
1175.180, 15305.00
1176.265, 15410.00
1177.351, 15319.00
1178.436, 15408.00
1179.521, 15391.00
1180.606, 15344.00
1181.691, 15399.00
1182.776, 15131.00
1183.860, 15378.00
1184.944, 15294.00
1186.029, 15157.00
1187.113, 15292.00
1188.197, 15292.00
1189.280, 15220.00
1190.364, 15252.00
1191.447, 15301.00
1192.531, 15205.00
1193.614, 15256.00
1194.697, 15129.00
1195.779, 15259.00
1196.862, 15268.00
1197.945, 15354.00
1199.027, 15087.00
1200.109, 15207.00
1201.191, 15123.00
1202.273, 15105.00
1203.355, 15167.00
1204.436, 15194.00
1205.518, 15268.00
1206.599, 15205.00
1207.680, 15283.00
1208.761, 15278.00
1209.842, 15392.00
1210.922, 15262.00
1212.003, 15177.00
1213.083, 15302.00
1214.163, 15253.00
1215.243, 15156.00
1216.323, 15287.00
1217.402, 15365.00
1218.482, 15492.00
1219.561, 15385.00
1220.641, 15250.00
1221.720, 15271.00
1222.798, 15374.00
1223.877, 15109.00
1224.956, 15334.00
1226.034, 15233.00
1227.112, 15323.00
1228.191, 15352.00
1229.269, 15265.00
1230.346, 15384.00
1231.424, 15497.00
1232.501, 15476.00
1233.579, 15490.00
1234.656, 15566.84
1235.733, 15347.00
1236.810, 15623.00
1237.886, 15597.00
1238.963, 15492.00
1240.039, 15597.00
1241.116, 15499.00
1242.192, 15701.00
1243.268, 15730.00
1244.343, 15609.00
1245.419, 15524.00
1246.494, 15610.00
1247.570, 15599.00
1248.645, 15532.00
1249.720, 15597.00
1250.795, 15433.00
1251.869, 15559.00
1252.944, 15620.00
1254.018, 15649.00
1255.093, 15433.00
1256.167, 15558.00
1257.240, 15610.00
1258.314, 15505.00
1259.388, 15647.00
1260.461, 15668.00
1261.535, 15612.00
1262.608, 15814.00
1263.681, 15612.00
1264.753, 15727.00
1265.826, 15624.00
1266.899, 15715.00
1267.971, 15775.00
1269.043, 15816.00
1270.115, 15830.00
1271.187, 15799.00
1272.259, 15874.00
1273.330, 15795.00
1274.402, 15813.00
1275.473, 15909.00
1276.544, 15712.00
1277.615, 15816.00
1278.686, 15899.00
1279.756, 15742.00
1280.827, 15823.00
1281.897, 15828.00
1282.967, 15736.00
1284.037, 15851.00
1285.107, 15690.00
1286.177, 15927.00
1287.247, 15732.00
1288.316, 15490.00
1289.385, 15616.00
1290.454, 15690.00
1291.523, 15797.00
1292.592, 15709.00
1293.661, 15781.00
1294.729, 15827.00
1295.797, 15859.00
1296.866, 15958.00
1297.934, 15796.00
1299.001, 15978.00
1300.069, 15835.00
1301.137, 15890.00
1302.204, 15866.00
1303.271, 15941.00
1304.338, 16003.00
1305.405, 15954.00
1306.472, 15896.00
1307.539, 16007.00
1308.605, 16007.00
1309.671, 15929.00
1310.737, 16019.00
1311.803, 15996.00
1312.869, 16055.00
1313.935, 16126.00
1315.000, 16103.00
1316.066, 16150.24
1317.131, 16143.77
1318.196, 16158.00
1319.261, 16126.00
1320.326, 16085.00
1321.390, 16077.00
1322.455, 16047.00
1323.519, 16045.00
1324.583, 16014.00
1325.647, 16081.00
1326.711, 16033.00
1327.775, 16083.00
1328.838, 15988.00
1329.902, 15831.00
1330.965, 15915.00
1332.028, 15828.00
1333.091, 15999.00
1334.153, 15847.00
1335.216, 15857.00
1336.279, 15950.00
1337.341, 15895.00
1338.403, 15906.34
1339.465, 16023.00
1340.527, 15873.00
1341.588, 15851.00
1342.650, 15875.00
1343.711, 16101.00
1344.772, 15994.00
1345.834, 16036.00
1346.894, 16149.00
1347.955, 15969.00
1349.016, 15968.00
1350.076, 16043.00
1351.136, 16003.00
1352.197, 16021.00
1353.257, 15908.00
1354.316, 16031.00
1355.376, 15920.00
1356.436, 15882.00
1357.495, 16070.00
1358.554, 16070.00
1359.613, 16091.00
1360.672, 16047.00
1361.731, 16074.00
1362.789, 16056.00
1363.848, 16001.00
1364.906, 16052.00
1365.964, 16086.00
1367.022, 16053.00
1368.080, 16023.00
1369.138, 16078.00
1370.195, 16259.00
1371.253, 16139.00
1372.310, 16201.00
1373.367, 16168.00
1374.424, 16081.00
1375.480, 16083.00
1376.537, 16068.51
1377.593, 16133.00
1378.650, 16101.00
1379.706, 16163.00
1380.762, 16212.00
1381.818, 16135.00
1382.873, 16263.00
1383.929, 16279.00
1384.984, 16194.00
1386.039, 16124.00
1387.094, 16297.00
1388.149, 16188.00
1389.204, 16222.00
1390.259, 16156.00
1391.313, 16078.00
1392.367, 16099.00
1393.422, 16237.00
1394.476, 16150.00
1395.529, 16227.00
1396.583, 16139.00
1397.637, 16152.00
1398.690, 16247.00
1399.743, 16177.00
1400.796, 16265.00
1401.849, 16362.00
1402.902, 16339.00
1403.954, 16375.00
1405.007, 16129.00
1406.059, 16430.00
1407.111, 16261.00
1408.163, 16070.00
1409.215, 16212.00
1410.267, 16241.00
1411.318, 16332.00
1412.370, 16275.00
1413.421, 16307.00
1414.472, 16298.00
1415.523, 16319.00
1416.574, 16326.00
1417.624, 16355.00
1418.675, 16275.00
1419.725, 16367.00
1420.775, 16321.00
1421.825, 16218.00
1422.875, 16489.00
1423.925, 16373.00
1424.974, 16210.00
1426.024, 16307.00
1427.073, 16357.00
1428.122, 16386.00
1429.171, 16350.00
1430.220, 16420.00
1431.268, 16489.00
1432.317, 16401.00
1433.365, 16574.00
1434.413, 16638.00
1435.461, 16586.00
1436.509, 16544.00
1437.557, 16715.00
1438.605, 16662.00
1439.652, 16870.00
1440.699, 16897.00
1441.746, 16898.00
1442.793, 16882.00
1443.840, 16875.00
1444.887, 16896.00
1445.933, 17042.00
1446.980, 16852.00
1448.026, 16953.00
1449.072, 17099.00
1450.118, 17043.00
1451.163, 17195.00
1452.209, 17205.00
1453.254, 17176.00
1454.300, 17072.00
1455.345, 17202.00
1456.390, 17105.00
1457.435, 17113.00
1458.479, 17031.00
1459.524, 17175.00
1460.568, 16907.00
1461.612, 17107.00
1462.656, 16960.00
1463.700, 17044.00
1464.744, 17008.00
1465.788, 16910.00
1466.831, 17008.00
1467.874, 16870.00
1468.918, 16857.00
1469.961, 17018.00
1471.003, 16895.00
1472.046, 16830.00
1473.089, 16934.00
1474.131, 16980.00
1475.173, 16780.00
1476.215, 16971.00
1477.257, 16874.00
1478.299, 16846.00
1479.341, 17010.00
1480.382, 16978.00
1481.424, 16885.00
1482.465, 16993.00
1483.506, 16872.00
1484.547, 16959.00
1485.587, 16791.00
1486.628, 16831.00
1487.668, 16841.00
1488.709, 16785.00
1489.749, 16878.00
1490.789, 16830.00
1491.828, 16753.00
1492.868, 16854.00
1493.908, 16771.00
1494.947, 16841.00
1495.986, 16721.00
1497.025, 16692.00
1498.064, 16888.00
1499.103, 16718.00
1500.141, 16842.00
1501.180, 16829.00
1502.218, 16801.00
1503.256, 16880.00
1504.294, 16804.00
1505.332, 16722.00
1506.370, 16743.00
1507.407, 16797.00
1508.445, 16905.00
1509.482, 16877.00
1510.519, 16727.00
1511.556, 17021.00
1512.593, 16850.00
1513.629, 16737.00
1514.666, 16897.00
1515.702, 16884.00
1516.738, 17066.00
1517.774, 16850.00
1518.810, 17029.00
1519.846, 16901.00
1520.882, 17128.00
1521.917, 17032.00
1522.952, 16929.00
1523.987, 17115.00
1525.022, 17074.00
1526.057, 17079.00
1527.092, 17092.42
1528.126, 16727.00
1529.161, 17009.00
1530.195, 16949.00
1531.229, 16891.00
1532.263, 17158.00
1533.297, 17087.00
1534.330, 17043.00
1535.364, 17091.00
1536.397, 17013.00
1537.430, 17140.00
1538.463, 17052.00
1539.496, 17099.00
1540.529, 16981.00
1541.561, 17147.00
1542.594, 17197.00
1543.626, 16952.00
1544.658, 17101.00
1545.690, 17035.00
1546.722, 17116.00
1547.753, 17059.00
1548.785, 17057.00
1549.816, 17104.00
1550.847, 17099.07
1551.878, 17155.00
1552.909, 17188.00
1553.940, 17167.00
1554.971, 17264.00
1556.001, 17240.59
1557.031, 17251.00
1558.062, 17202.00
1559.092, 17243.00
1560.121, 17136.00
1561.151, 17140.00
1562.181, 17229.00
##END=



