##NAMES=Epidote
##RRUFFID=R050191
##IDEAL CHEMISTRY=Ca_2_Fe^3+^Al_2_(Si_2_O_7_)(SiO_4_)O(OH)
##LOCALITY=Pampa Blanca, Castrovirreyna Province, Huancavelica Department, Peru
##OWNER=RRUFF
##SOURCE=Dave Bunk Minerals
##DESCRIPTION=Cluster of green elongated prismatic crystals
##STATUS=The identification of this mineral has been confirmed by X-ray diffraction and chemical analysis
##URL=rruff.info/R050191
##MEASURED CHEMISTRY=Ca_2.00_Al_2.00_(Fe^3+^_0.84_Al_0.16_)(SiO_4_)(Si_2_O_7_)O(OH)
##PIN_ID=L00883
##ORIENTATION=Laser parallel to (1 0 1). Fiducial mark perpendicular to laser is parallel to b [0 1 0]
53.91000, 0.0000000E+00
55.14900, 67.95749
56.38700, 114.0174
57.62600, 203.9872
58.86400, 238.3934
60.10300, 362.2218
61.34100, 257.0046
62.57900, 139.9312
63.81700, 25.75391
65.05400, 53.97729
66.29200, 97.76508
67.52900, 67.09045
68.76700, 77.61377
70.00400, 248.9612
71.24100, 216.6069
72.47700, 166.2434
73.71400, 351.5874
74.95100, 630.3594
76.18700, 1210.295
77.42300, 1492.165
78.65900, 2143.783
79.89500, 3131.994
81.13100, 4340.658
82.36700, 5761.647
83.60200, 7527.839
84.83700, 9209.120
86.07200, 10828.40
87.30800, 12711.57
88.54200, 14002.55
89.77700, 15369.26
91.01200, 16166.63
92.24600, 16723.54
93.48000, 16611.87
94.71400, 16254.49
95.94800, 14751.32
97.18200, 12891.28
98.41600, 11225.33
99.64900, 9753.479
100.8830, 8372.737
102.1160, 6981.091
103.3490, 6211.514
104.5820, 5729.997
105.8150, 5342.519
107.0470, 6136.043
108.2800, 5080.402
109.5120, 5965.945
110.7440, 3988.254
111.9760, 3319.432
113.2080, 3312.451
114.4400, 3434.284
115.6710, 3478.911
116.9030, 3331.308
118.1340, 3262.458
119.3650, 3165.343
120.5960, 3200.944
121.8270, 3404.246
123.0580, 3391.232
124.2880, 3476.890
125.5190, 3075.206
126.7490, 2987.167
127.9790, 2967.636
129.2090, 2968.228
130.4390, 2816.923
131.6680, 2818.701
132.8980, 2649.552
134.1270, 2444.417
135.3560, 2387.403
136.5850, 2467.615
137.8140, 2378.074
139.0430, 2483.802
140.2710, 2357.816
141.5000, 2119.160
142.7280, 2008.176
143.9560, 2058.157
145.1840, 2225.236
146.4120, 2179.167
147.6390, 2201.738
148.8670, 2360.750
150.0940, 2402.126
151.3210, 2420.341
152.5490, 2475.604
153.7750, 2490.830
155.0020, 2579.628
156.2290, 2761.907
157.4550, 2855.472
158.6810, 3201.316
159.9080, 3673.443
161.1340, 4344.855
162.3590, 5037.553
163.5850, 5661.536
164.8110, 6130.807
166.0360, 6363.365
167.2610, 6530.209
168.4860, 6458.342
169.7110, 6314.764
170.9360, 5988.473
172.1610, 5426.472
173.3850, 4587.760
174.6100, 4237.336
175.8340, 3726.201
177.0580, 3436.353
178.2820, 2913.790
179.5050, 2632.514
180.7290, 2222.521
181.9520, 2015.813
183.1760, 2017.387
184.3990, 1995.241
185.6220, 1835.376
186.8450, 1890.791
188.0670, 1939.484
189.2900, 2109.455
190.5120, 2250.700
191.7340, 2451.222
192.9560, 2924.017
194.1780, 3139.085
195.4000, 3408.425
196.6220, 3647.035
197.8430, 3678.915
199.0640, 3890.062
200.2860, 4105.477
201.5070, 4245.205
202.7270, 4197.752
203.9480, 4011.083
205.1690, 3691.155
206.3890, 3569.023
207.6090, 3216.325
208.8290, 2877.779
210.0490, 2726.458
211.2690, 2625.181
212.4890, 2571.301
213.7080, 2664.655
214.9280, 2702.898
216.1470, 2864.537
217.3660, 3279.705
218.5850, 3711.382
219.8030, 4292.555
221.0220, 4501.201
222.2400, 4934.306
223.4590, 5148.858
224.6770, 5335.840
225.8950, 5442.243
227.1120, 5489.054
228.3300, 5507.545
229.5480, 5611.613
230.7650, 5725.630
231.9820, 5959.735
233.1990, 6107.168
234.4160, 6238.729
235.6330, 6343.959
236.8490, 6343.032
238.0660, 6351.681
239.2820, 6220.387
240.4980, 6013.750
241.7140, 5743.632
242.9300, 5540.203
244.1460, 5334.562
245.3610, 4851.271
246.5770, 4507.679
247.7920, 3874.263
249.0070, 3310.982
250.2220, 2785.484
251.4370, 2440.696
252.6510, 2223.322
253.8660, 1998.815
255.0800, 1958.604
256.2940, 2025.057
257.5080, 2557.112
258.7220, 2665.865
259.9360, 3573.453
261.1490, 3690.971
262.3630, 4367.715
263.5760, 5709.684
264.7890, 7025.875
266.0020, 8695.284
267.2150, 9974.909
268.4270, 11163.74
269.6400, 11613.79
270.8520, 12365.05
272.0640, 12536.50
273.2760, 12949.17
274.4880, 12964.03
275.7000, 13011.09
276.9120, 12917.36
278.1230, 12202.82
279.3340, 11126.49
280.5450, 9770.365
281.7560, 8265.435
282.9670, 6992.709
284.1780, 5981.182
285.3880, 5590.858
286.5980, 5454.731
287.8090, 5520.804
289.0190, 5707.074
290.2290, 6009.534
291.4380, 6166.993
292.6480, 6374.017
293.8570, 6603.033
295.0670, 6722.230
296.2760, 6849.609
297.4850, 6920.833
298.6930, 6944.898
299.9020, 6937.803
301.1110, 6834.884
302.3190, 6733.132
303.5270, 6655.552
304.7350, 6334.140
305.9430, 6149.897
307.1510, 5822.823
308.3580, 5632.919
309.5660, 5243.183
310.7730, 4797.612
311.9800, 4639.207
313.1870, 4222.971
314.3940, 3919.899
315.6010, 3654.993
316.8070, 3419.253
318.0130, 3282.677
319.2200, 3155.264
320.4260, 2989.016
321.6310, 2914.929
322.8370, 2786.005
324.0430, 2744.242
325.2480, 2552.641
326.4540, 2387.201
327.6590, 2211.920
328.8640, 1986.799
330.0680, 1698.836
331.2730, 1540.031
332.4780, 1530.383
333.6820, 1451.893
334.8860, 1503.558
336.0900, 1772.378
337.2940, 1847.353
338.4980, 2354.480
339.7010, 2943.762
340.9050, 3243.193
342.1080, 3744.776
343.3110, 3987.510
344.5140, 4310.393
345.7170, 4387.424
346.9200, 4061.664
348.1220, 3840.116
349.3240, 3535.779
350.5270, 3197.658
351.7290, 2935.501
352.9310, 2530.030
354.1320, 2462.588
355.3340, 1840.332
356.5350, 1835.296
357.7370, 1747.487
358.9380, 1949.907
360.1390, 1449.538
361.3400, 1506.367
362.5400, 1489.394
363.7410, 1339.615
364.9410, 1116.029
366.1410, 1007.635
367.3410, 842.4297
368.5410, 459.4121
369.7410, 215.5801
370.9400, 82.93164
372.1400, 96.53418
373.3390, 314.8574
374.5380, 433.1201
375.7370, 530.3682
376.9360, 586.6445
378.1350, 678.9775
379.3330, 563.4072
380.5310, 470.8877
381.7300, 300.3818
382.9280, 357.8262
384.1260, 138.2432
385.3230, 165.5518
386.5210, 12.23535
387.7180, 33.82520
388.9160, 86.68262
390.1130, 253.0342
391.3100, 220.9639
392.5060, 297.5176
393.7030, 214.9287
394.9000, 329.4277
396.0960, 292.8711
397.2920, 196.1455
398.4880, 108.6777
399.6840, 203.1279
400.8800, 52.46777
402.0750, 174.1992
403.2710, 424.0762
404.4660, 681.0977
405.6610, 1140.264
406.8560, 1536.571
408.0510, 2141.021
409.2450, 2749.613
410.4400, 3878.344
411.6340, 5187.217
412.8280, 6610.225
414.0220, 8719.373
415.2160, 10939.66
416.4100, 13121.08
417.6030, 15232.63
418.7970, 17028.32
419.9900, 18993.15
421.1830, 20695.11
422.3760, 22364.20
423.5690, 23858.41
424.7610, 25290.77
425.9540, 26367.25
427.1460, 26655.29
428.3380, 26956.60
429.5300, 26252.48
430.7220, 25569.52
431.9140, 24487.69
433.1050, 23349.99
434.2970, 23153.45
435.4880, 23098.10
436.6790, 23519.94
437.8700, 24324.95
439.0610, 25741.13
440.2510, 27873.50
441.4420, 30339.05
442.6320, 33031.80
443.8220, 36279.73
445.0120, 39607.88
446.2020, 43363.19
447.3910, 46663.71
448.5810, 49603.42
449.7700, 52172.34
450.9600, 53382.45
452.1490, 53745.76
453.3370, 53598.27
454.5260, 51985.98
455.7150, 49616.90
456.9030, 46923.03
458.0910, 43448.36
459.2800, 39651.88
460.4670, 35066.60
461.6550, 30472.51
462.8430, 25925.60
464.0300, 21964.87
465.2180, 18251.34
466.4050, 15121.00
467.5920, 12816.82
468.7790, 10540.77
469.9650, 8958.900
471.1520, 7685.174
472.3380, 6713.604
473.5250, 5721.201
474.7110, 5026.930
475.8970, 4596.802
477.0820, 4041.805
478.2680, 3668.918
479.4540, 3507.144
480.6390, 3350.470
481.8240, 3222.896
483.0090, 3278.415
484.1940, 3294.021
485.3780, 3382.716
486.5630, 3537.498
487.7470, 3899.361
488.9320, 4181.311
490.1160, 4561.342
491.3000, 4923.453
492.4830, 5367.644
493.6670, 5667.915
494.8500, 6124.264
496.0340, 6523.688
497.2170, 6637.188
498.4000, 6783.768
499.5820, 7051.422
500.7650, 7112.152
501.9480, 6995.967
503.1300, 7016.861
504.3120, 6864.835
505.4940, 6412.879
506.6760, 5991.995
507.8580, 5360.189
509.0390, 5027.458
510.2210, 4385.789
511.4020, 4059.186
512.5830, 3620.647
513.7640, 3147.171
514.9450, 2927.474
516.1250, 2572.647
517.3060, 2281.306
518.4860, 2097.297
519.6660, 1798.371
520.8460, 1653.722
522.0260, 1485.795
523.2060, 1241.413
524.3850, 958.8320
525.5650, 881.5625
526.7440, 565.0029
527.9230, 372.2783
529.1020, 232.2158
530.2810, 39.56396
531.4590, 74.81738
532.6380, 186.7466
533.8160, 157.5840
534.9940, 146.2827
536.1720, 267.4951
537.3500, 136.4526
538.5270, 186.0117
539.7050, 107.5391
540.8820, 238.0923
542.0590, 373.2754
543.2360, 687.1460
544.4130, 853.3018
545.5900, 1124.505
546.7660, 1503.754
547.9430, 2069.048
549.1190, 2521.385
550.2950, 3433.766
551.4710, 4221.188
552.6470, 5713.651
553.8220, 7644.153
554.9980, 10208.69
556.1730, 12718.27
557.3480, 15321.89
558.5230, 17382.54
559.6980, 18907.23
560.8730, 20392.95
562.0470, 21011.71
563.2220, 21105.48
564.3960, 21315.30
565.5700, 20349.14
566.7440, 19065.02
567.9170, 16660.08
569.0910, 14235.20
570.2640, 11641.20
571.4380, 9596.420
572.6110, 8304.354
573.7840, 7550.610
574.9570, 7318.739
576.1290, 7395.146
577.3020, 7960.262
578.4740, 8435.934
579.6460, 9140.361
580.8180, 10086.79
581.9900, 11061.40
583.1620, 12118.40
584.3330, 13254.24
585.5040, 14447.62
586.6760, 15645.28
587.8470, 16988.25
589.0180, 18711.71
590.1880, 20049.87
591.3590, 21307.35
592.5290, 22777.91
593.7000, 23660.14
594.8700, 24507.56
596.0400, 24754.77
597.2090, 24815.63
598.3790, 24200.74
599.5490, 23671.45
600.7180, 22804.73
601.8870, 21786.21
603.0560, 20682.35
604.2250, 19638.43
605.3940, 18619.39
606.5620, 17792.98
607.7300, 16876.29
608.8990, 15949.86
610.0670, 15074.14
611.2350, 14242.88
612.4020, 13181.01
613.5700, 12171.58
614.7370, 11040.55
615.9050, 9991.779
617.0720, 8854.196
618.2390, 7882.345
619.4060, 6942.952
620.5720, 6140.547
621.7390, 5290.170
622.9050, 4642.053
624.0710, 4096.536
625.2370, 3654.021
626.4030, 3270.140
627.5690, 2941.272
628.7340, 2605.256
629.9000, 2397.182
631.0650, 2179.049
632.2300, 1999.858
633.3950, 1892.902
634.5600, 1773.836
635.7240, 1646.192
636.8890, 1363.153
638.0530, 1419.041
639.2170, 1204.622
640.3810, 1067.230
641.5450, 1041.412
642.7080, 998.6851
643.8720, 896.4717
645.0350, 820.7954
646.1980, 839.5127
647.3610, 709.5005
648.5240, 771.4126
649.6870, 748.9565
650.8490, 685.8672
652.0120, 611.6289
653.1740, 644.4805
654.3360, 616.2554
655.4980, 617.1162
656.6600, 627.8726
657.8210, 662.4761
658.9830, 637.0640
660.1440, 551.6191
661.3050, 559.2334
662.4660, 580.4312
663.6270, 647.5459
664.7870, 676.1909
665.9480, 713.8291
667.1080, 755.4175
668.2680, 790.9604
669.4280, 811.4297
670.5880, 865.9551
671.7480, 897.6577
672.9070, 965.1528
674.0670, 1005.302
675.2260, 1089.320
676.3850, 1225.451
677.5440, 1320.500
678.7030, 1542.440
679.8610, 1635.630
681.0200, 1869.775
682.1780, 2134.891
683.3360, 2218.932
684.4940, 2439.892
685.6520, 2457.771
686.8090, 2537.523
687.9670, 2424.285
689.1240, 2507.919
690.2810, 2342.470
691.4380, 2108.938
692.5950, 1998.322
693.7520, 1747.622
694.9080, 1508.837
696.0650, 1322.970
697.2210, 1140.016
698.3770, 894.9771
699.5330, 789.8525
700.6880, 706.6416
701.8440, 621.3447
702.9990, 617.9609
704.1550, 469.4907
705.3100, 417.9326
706.4650, 371.2871
707.6190, 270.5508
708.7740, 210.7134
709.9290, 108.7681
711.0830, 161.6919
712.2370, 199.4980
713.3910, 59.19385
714.5450, 112.2593
715.6980, 43.94971
716.8520, 68.84033
718.0050, 32.05420
719.1580, 129.2129
720.3110, 100.7246
721.4640, 91.46729
722.6170, 105.4360
723.7700, 161.6367
724.9220, 89.09961
726.0740, 173.7852
727.2260, 118.7383
728.3780, 210.9287
729.5300, 137.4048
730.6810, 188.1274
731.8330, 200.1221
732.9840, 109.3940
734.1350, 314.8955
735.2860, 199.7339
736.4370, 157.8462
737.5880, 233.2109
738.7380, 244.8652
739.8880, 138.8149
741.0390, 120.0024
742.1890, 185.4170
743.3380, 218.0918
744.4880, 215.0415
745.6380, 86.26367
746.7870, 13.68945
747.9360, 170.2788
749.0850, 40.11133
750.2340, 112.1187
751.3830, 154.3354
752.5310, 20.78223
753.6800, 76.38770
754.8280, 35.17773
755.9760, 46.86963
757.1240, 22.79688
758.2720, 109.5967
759.4190, 100.2910
760.5670, 221.8799
761.7140, 270.3789
762.8610, 251.7939
764.0080, 321.1226
765.1550, 299.3696
766.3020, 353.5352
767.4480, 327.6206
768.5950, 354.6270
769.7410, 337.5547
770.8870, 225.4043
772.0330, 232.1733
773.1780, 292.8633
774.3240, 250.3267
775.4690, 89.01172
776.6140, 235.4575
777.7590, 90.82764
778.9040, 7.889648
780.0490, 15.70996
781.1940, 45.36475
782.3380, 71.35107
783.4820, 30.25293
784.6260, 27.93311
785.7700, 2.779297
786.9140, 89.40039
788.0580, 48.94385
789.2010, 49.40771
790.3450, 30.79297
791.4880, 39.09863
792.6310, 0.3266600
793.7730, 114.4722
794.9160, 146.5498
796.0590, 150.5610
797.2010, 239.5752
798.3430, 202.3867
799.4850, 312.2031
800.6270, 338.9556
801.7690, 277.6436
802.9100, 246.2681
804.0520, 399.8306
805.1930, 412.3301
806.3340, 421.7676
807.4750, 457.1450
808.6160, 580.4741
809.7560, 727.7798
810.8970, 704.0854
812.0370, 817.3838
813.1770, 790.6724
814.3170, 848.9756
815.4570, 972.2651
816.5960, 1118.550
817.7360, 1139.129
818.8750, 1252.073
820.0140, 1222.065
821.1530, 1431.126
822.2920, 1503.133
823.4310, 1677.085
824.5690, 1798.985
825.7070, 1938.833
826.8460, 2071.629
827.9840, 2201.375
829.1220, 2234.071
830.2590, 2155.718
831.3970, 2333.316
832.5340, 2344.867
833.6710, 2297.371
834.8080, 2365.830
835.9450, 2288.243
837.0820, 2256.612
838.2190, 2318.937
839.3550, 2269.220
840.4910, 2317.459
841.6270, 2540.658
842.7630, 2474.817
843.8990, 2779.773
845.0350, 2860.665
846.1700, 2907.653
847.3060, 3078.419
848.4410, 3353.454
849.5760, 3565.154
850.7100, 3821.969
851.8450, 4063.494
852.9800, 4657.293
854.1140, 5097.527
855.2480, 5599.988
856.3820, 6013.437
857.5160, 6668.686
858.6500, 7062.532
859.7830, 7637.527
860.9170, 8279.023
862.0500, 8713.114
863.1830, 9203.930
864.3160, 9546.251
865.4480, 9919.849
866.5810, 10240.12
867.7130, 10544.29
868.8460, 10786.79
869.9780, 11265.07
871.1100, 11653.54
872.2410, 12289.35
873.3730, 12670.90
874.5050, 13565.85
875.6360, 14267.19
876.7670, 15334.33
877.8980, 16266.79
879.0290, 17155.31
880.1590, 17963.94
881.2900, 18853.94
882.4200, 19350.20
883.5500, 19559.20
884.6800, 19038.58
885.8100, 18767.32
886.9400, 17901.74
888.0690, 17074.73
889.1990, 15982.32
890.3280, 14920.64
891.4570, 14107.79
892.5860, 13255.20
893.7140, 12760.17
894.8430, 12426.17
895.9710, 12099.14
897.1000, 12459.86
898.2280, 12576.97
899.3560, 13357.09
900.4830, 14059.60
901.6110, 15002.10
902.7380, 16032.76
903.8660, 17458.50
904.9930, 18950.29
906.1200, 20628.15
907.2460, 22752.76
908.3730, 24297.48
909.5000, 25627.50
910.6260, 27280.46
911.7520, 27983.21
912.8780, 28409.27
914.0040, 27871.32
915.1290, 27098.79
916.2550, 25698.17
917.3800, 23854.02
918.5050, 21959.33
919.6300, 19973.23
920.7550, 17498.85
921.8800, 15730.55
923.0040, 13472.62
924.1290, 11814.33
925.2530, 10340.18
926.3770, 9175.939
927.5010, 7787.928
928.6250, 6732.498
929.7480, 6018.402
930.8720, 5330.542
931.9950, 4705.788
933.1180, 4185.656
934.2410, 3679.648
935.3640, 3362.176
936.4860, 3039.787
937.6090, 2876.463
938.7310, 2567.238
939.8530, 2459.075
940.9750, 2278.979
942.0970, 2090.947
943.2180, 2008.982
944.3400, 1987.083
945.4610, 1850.253
946.5820, 1835.488
947.7030, 1735.797
948.8240, 1889.173
949.9450, 1869.626
951.0650, 1885.148
952.1860, 2033.740
953.3060, 1969.400
954.4260, 2077.137
955.5460, 2157.942
956.6650, 2148.820
957.7850, 2055.777
958.9040, 2334.825
960.0230, 2135.945
961.1420, 2171.138
962.2610, 2340.417
963.3800, 2343.769
964.4990, 2509.203
965.6170, 2557.716
966.7350, 2883.313
967.8530, 3074.984
968.9710, 3666.741
970.0890, 4291.575
971.2070, 4927.484
972.3240, 5806.472
973.4410, 6677.542
974.5580, 7520.692
975.6750, 8184.924
976.7920, 8754.231
977.9090, 9190.616
979.0250, 9390.083
980.1410, 9340.635
981.2580, 8789.278
982.3740, 8178.030
983.4890, 7209.879
984.6050, 6305.827
985.7200, 5384.885
986.8360, 4658.109
987.9510, 3755.474
989.0660, 3075.979
990.1810, 2528.609
991.2950, 2242.406
992.4100, 1713.361
993.5240, 1593.469
994.6390, 1299.729
995.7530, 1229.191
996.8660, 1044.805
997.9800, 969.6084
999.0940, 651.5684
1000.207, 726.7104
1001.320, 601.0156
1002.433, 527.4946
1003.546, 593.1504
1004.659, 634.9614
1005.772, 500.9814
1006.884, 668.1777
1007.996, 736.0366
1009.108, 776.5957
1010.220, 905.0967
1011.332, 1168.793
1012.444, 1362.861
1013.555, 1593.540
1014.666, 1708.765
1015.777, 1865.646
1016.888, 1870.799
1017.999, 2093.603
1019.110, 1983.320
1020.220, 1878.995
1021.331, 1958.838
1022.441, 1903.190
1023.551, 1995.534
1024.661, 1988.224
1025.770, 2089.892
1026.880, 2369.717
1027.989, 2516.224
1029.098, 2983.722
1030.207, 3275.766
1031.316, 3637.803
1032.425, 4140.111
1033.533, 4671.070
1034.642, 5248.839
1035.750, 5592.548
1036.858, 6195.971
1037.966, 6403.759
1039.073, 6715.195
1040.181, 6711.083
1041.288, 6572.854
1042.396, 6298.413
1043.503, 6291.933
1044.610, 5857.709
1045.716, 5380.922
1046.823, 5121.680
1047.929, 4625.419
1049.036, 4503.082
1050.142, 4264.458
1051.248, 3938.819
1052.353, 4030.711
1053.459, 3969.146
1054.564, 4126.120
1055.670, 4258.833
1056.775, 4540.296
1057.880, 4746.565
1058.985, 4900.579
1060.089, 5014.852
1061.194, 5069.855
1062.298, 5106.045
1063.402, 5032.670
1064.506, 4870.080
1065.610, 4705.680
1066.713, 4589.761
1067.817, 4608.372
1068.920, 4769.496
1070.023, 4946.657
1071.126, 5349.371
1072.229, 5852.347
1073.332, 6599.388
1074.435, 7546.942
1075.537, 8659.871
1076.639, 10032.08
1077.741, 11580.35
1078.843, 13339.67
1079.945, 15461.28
1081.046, 17426.72
1082.148, 19324.21
1083.249, 20400.76
1084.350, 20819.67
1085.451, 20799.32
1086.551, 19855.23
1087.652, 18412.98
1088.752, 16409.14
1089.853, 13958.63
1090.953, 11352.09
1092.053, 9123.034
1093.152, 7087.024
1094.252, 5440.480
1095.351, 4395.559
1096.451, 3350.272
1097.550, 2639.786
1098.649, 2058.109
1099.748, 1916.365
1100.846, 1534.059
1101.945, 1380.400
1103.043, 1238.782
1104.141, 1012.152
1105.239, 855.3584
1106.337, 794.8398
1107.434, 785.5801
1108.532, 709.1777
1109.629, 681.4106
1110.726, 554.5747
1111.823, 600.2676
1112.920, 537.8164
1114.017, 484.0659
1115.113, 492.9873
1116.210, 594.1519
1117.306, 619.4238
1118.402, 627.8848
1119.498, 605.3291
1120.593, 659.2896
1121.689, 576.7905
1122.784, 662.5049
1123.879, 578.9917
1124.974, 598.6299
1126.069, 463.7837
1127.164, 406.6113
1128.259, 318.4331
1129.353, 243.9307
1130.447, 183.2231
1131.541, 116.8447
1132.635, 97.57080
1133.729, 48.41992
1134.822, 146.0835
1135.916, 73.92969
1137.009, 101.7554
1138.102, 143.3950
1139.195, 32.27197
1140.288, 6.655762
1141.380, 42.83838
1142.473, 43.16504
1143.565, 50.82373
1144.657, 26.48682
1145.749, 102.1489
1146.841, 56.83301
1147.932, 59.52588
1149.024, 147.2305
1150.115, 64.82910
1151.206, 58.30957
1152.297, 84.55811
1153.388, 65.53955
1154.479, 131.7334
1155.569, 133.9199
1156.659, 83.76465
1157.750, 167.6260
1158.839, 175.6416
1159.929, 66.94678
1161.019, 139.0430
1162.108, 93.70215
1163.198, 95.83691
1164.287, 179.8936
1165.376, 76.59521
1166.465, 201.4375
1167.553, 83.00537
1168.642, 106.5352
1169.730, 75.71582
1170.818, 29.94873
1171.906, 75.11035
1172.994, 46.77490
1174.082, 82.67236
1175.170, 22.94580
1176.257, 28.76611
1177.344, 110.8218
1178.431, 71.67041
1179.518, 27.89404
1180.605, 3.687012
1181.691, 7.307129
1182.778, 1.208984
1183.864, 9.531738
1184.950, 35.80615
1186.036, 62.86475
1187.122, 37.98193
1188.207, 31.11084
1189.292, 16.58154
1190.378, 70.85645
1191.463, 1.552734
1192.548, 12.85254
1193.632, 20.29004
1194.717, 25.61279
1195.801, 30.55322
1196.886, 43.16309
1197.970, 31.53809
1199.054, 30.17627
1200.137, 53.91846
1201.221, 80.80322
1202.305, 79.88477
1203.388, 116.6733
1204.471, 75.05908
1205.554, 141.5938
1206.637, 77.04639
1207.719, 94.98779
1208.802, 164.8999
1209.884, 50.11328
1210.966, 117.4033
1212.048, 37.20898
1213.130, 102.5952
1214.212, 87.34033
1215.293, 110.2788
1216.374, 65.92920
1217.456, 115.5332
1218.536, 97.10303
1219.617, 63.72314
1220.698, 8.202148
1221.778, 137.6050
1222.859, 174.9722
1223.939, 35.30371
1225.019, 144.5669
1226.099, 80.79346
1227.178, 89.96777
1228.258, 73.09131
1229.337, 163.1582
1230.417, 71.18604
1231.496, 161.1538
1232.574, 192.0820
1233.653, 117.9722
1234.732, 127.8130
1235.810, 122.6060
1236.888, 155.3491
1237.966, 173.0679
1239.044, 165.7065
1240.122, 197.3218
1241.199, 208.8950
1242.277, 144.4272
1243.354, 124.9087
1244.431, 139.3335
1245.508, 134.7056
1246.585, 173.0210
1247.661, 103.3574
1248.738, 173.5596
1249.814, 246.7119
1250.890, 140.8208
1251.966, 136.8711
1253.042, 147.8608
1254.117, 184.7925
1255.193, 220.6733
1256.268, 9.507324
1257.343, 187.2290
1258.418, 75.89893
1259.493, 267.4844
1260.567, 208.0229
1261.642, 205.5112
1262.716, 311.0479
1263.790, 273.4409
1264.864, 208.7827
1265.938, 213.2725
1267.011, 227.6836
1268.085, 263.8687
1269.158, 215.5078
1270.231, 248.5801
1271.304, 235.8457
1272.377, 287.1406
1273.450, 312.0498
1274.522, 351.4707
1275.594, 332.4707
1276.666, 321.7222
1277.738, 289.2466
1278.810, 256.9658
1279.882, 242.8828
1280.953, 224.9160
1282.025, 206.8730
1283.096, 217.9883
1284.167, 165.1167
1285.238, 261.4712
1286.308, 258.9370
1287.379, 324.2754
1288.449, 189.9907
1289.519, 262.8149
1290.589, 113.3081
1291.659, 242.7568
1292.729, 225.8062
1293.798, 181.3105
1294.868, 185.9590
1295.937, 111.6982
1297.006, 242.7461
1298.075, 88.49756
1299.143, 190.5806
1300.212, 167.4507
1301.280, 231.2539
1302.348, 148.2998
1303.416, 166.4072
1304.484, 92.28564
1305.552, 98.75342
1306.620, 211.6953
1307.687, 139.6909
1308.754, 148.7988
1309.821, 256.2349
1310.888, 251.7188
1311.955, 282.7080
1313.021, 131.2051
1314.088, 195.1841
1315.154, 190.4556
1316.220, 183.0063
1317.286, 206.7793
1318.352, 132.8359
1319.417, 220.6606
1320.483, 103.5903
1321.548, 203.1519
1322.613, 144.7007
1323.678, 147.5039
1324.743, 151.1138
1325.807, 200.2656
1326.872, 266.8965
1327.936, 107.0254
1329.000, 53.13086
1330.064, 119.7056
1331.128, 60.58252
1332.191, 128.3130
1333.255, 109.4658
1334.318, 177.6611
1335.381, 218.6816
1336.444, 251.8013
1337.507, 147.8828
1338.569, 132.6919
1339.632, 225.6963
1340.694, 116.6626
1341.756, 200.5811
1342.818, 155.1460
1343.880, 236.9990
1344.941, 272.6006
1346.003, 214.3813
1347.064, 184.7437
1348.125, 295.8193
1349.186, 321.9165
1350.247, 262.5542
1351.308, 226.1558
1352.368, 237.2988
1353.428, 275.8311
1354.489, 261.7402
1355.549, 216.8594
1356.608, 337.2778
1357.668, 240.6748
1358.727, 270.6899
1359.787, 395.0190
1360.846, 227.4116
1361.905, 326.7280
1362.964, 397.2168
1364.022, 345.4375
1365.081, 230.4067
1366.139, 269.5264
1367.197, 292.5703
1368.255, 337.6431
1369.313, 288.6851
1370.371, 331.9258
1371.428, 309.4189
1372.486, 337.2437
1373.543, 329.3999
1374.600, 165.3389
1375.657, 300.6338
1376.713, 272.9463
1377.770, 236.7451
1378.826, 405.0049
1379.882, 389.0518
1380.938, 237.3267
1381.994, 224.4487
1383.050, 237.0542
1384.106, 202.9839
1385.161, 212.9165
1386.216, 219.0645
1387.271, 166.7012
1388.326, 244.8169
1389.381, 131.8232
1390.435, 154.3008
1391.490, 298.7549
1392.544, 106.6201
1393.598, 110.4971
1394.652, 306.5508
1395.705, 232.9014
1396.759, 180.6431
1397.812, 216.7954
1398.866, 119.7637
1399.919, 181.0464
1400.972, 197.3130
1402.024, 259.5625
1403.077, 281.9375
1404.129, 283.9526
1405.181, 273.9751
1406.233, 281.0435
1407.285, 158.9668
1408.337, 165.6646
1409.389, 123.0781
1410.440, 142.6475
1411.491, 238.1870
1412.542, 130.3633
1413.593, 186.4595
1414.644, 181.6479
1415.695, 118.0801
1416.745, 81.27100
1417.795, 92.03271
1418.845, 133.4282
1419.895, 111.4873
1420.945, 155.0923
1421.995, 152.9731
1423.044, 151.3740
1424.093, 113.6602
1425.142, 137.6323
1426.191, 72.63721
1427.240, 136.3018
1428.289, 118.5278
1429.337, 187.9478
1430.385, 209.6953
1431.433, 134.9521
1432.481, 176.3765
1433.529, 171.5356
1434.577, 177.0864
1435.624, 125.7104
1436.672, 140.9771
1437.719, 129.8779
1438.766, 104.1118
1439.812, 187.4150
1440.859, 243.4487
1441.905, 162.4839
1442.952, 192.4712
1443.998, 169.5151
1445.044, 131.9141
1446.090, 156.9346
1447.135, 32.94824
1448.181, 245.9419
1449.226, 95.15332
1450.271, 153.7344
1451.316, 135.0303
1452.361, 140.3423
1453.405, 162.2988
1454.450, 125.3047
1455.494, 91.43115
1456.538, 213.2896
1457.582, 137.9883
1458.626, 141.4404
1459.670, 181.2856
1460.713, 175.3823
1461.757, 110.3584
1462.800, 128.4521
1463.843, 91.53027
1464.886, 141.6011
1465.928, 116.6753
1466.971, 206.7412
1468.013, 90.79004
1469.055, 149.8242
1470.097, 137.3940
1471.139, 168.8491
1472.181, 168.6475
1473.222, 217.7915
1474.263, 142.7627
1475.305, 144.6523
1476.346, 103.6260
1477.386, 106.6060
1478.427, 80.59668
1479.468, 152.6177
1480.508, 96.70117
1481.548, 47.79736
1482.588, 111.7490
1483.628, 58.55566
1484.668, 133.3950
1485.707, 45.47266
1486.747, 109.3838
1487.786, 122.4536
1488.825, 108.5054
1489.864, 166.5386
1490.902, 137.5693
1491.941, 49.50391
1492.979, 225.5586
1494.017, 102.5874
1495.055, 50.53516
1496.093, 109.9658
1497.131, 64.91406
1498.168, 148.9780
1499.206, 52.99609
1500.243, 176.7485
1501.280, 115.8584
1502.317, 137.9771
1503.354, 116.1362
1504.390, 175.3101
1505.426, 130.4937
1506.463, 74.62695
1507.499, 135.8042
1508.535, 80.98193
1509.570, 85.16650
1510.606, 77.55371
1511.641, 33.71387
1512.676, 94.93066
1513.711, 120.2144
1514.746, 142.5347
1515.781, 113.8716
1516.816, 108.2319
1517.850, 129.6016
1518.884, 138.9795
1519.918, 82.36475
1520.952, 128.7593
1521.986, 62.16357
1523.019, 167.5801
1524.053, 68.01123
1525.086, 75.45947
1526.119, 94.92383
1527.152, 29.59766
1528.185, 74.62598
1529.217, 100.0054
1530.250, 117.2568
1531.282, 104.7983
1532.314, 41.35986
1533.346, 37.75049
1534.377, 44.19434
1535.409, 39.83740
1536.440, 34.40820
1537.472, 68.11377
1538.503, 15.15381
1539.534, 129.6045
1540.564, 58.39307
1541.595, 0.2133790
1542.625, 117.7534
1543.656, 41.66064
1544.686, 97.60156
1545.716, 15.57471
1546.745, 43.58350
1547.775, 134.6309
1548.804, 33.71875
1549.834, 118.8496
1550.863, 214.4229
1551.892, 139.2065
1552.920, 251.8062
1553.949, 187.4756
1554.977, 275.2686
1556.006, 81.84766
1557.034, 56.09424
1558.062, 23.66406
1559.089, 58.15674
1560.117, 26.74561
1561.144, 6.978516
1562.172, 27.09473
1563.199, 61.26416
1564.226, 70.09277
1565.252, 73.40820
1566.279, 83.19238
1567.305, 48.94971
1568.332, 52.21924
1569.358, 35.61572
1570.384, 8.8867001E-02
1571.409, 4.328125
1572.435, 0.0000000E+00
##END=



