##NAMES=Epidote
##RRUFFID=R050191
##IDEAL CHEMISTRY=Ca_2_Fe^3+^Al_2_(Si_2_O_7_)(SiO_4_)O(OH)
##LOCALITY=Pampa Blanca, Castrovirreyna Province, Huancavelica Department, Peru
##OWNER=RRUFF
##SOURCE=Dave Bunk Minerals
##DESCRIPTION=Cluster of green elongated prismatic crystals
##STATUS=The identification of this mineral has been confirmed by X-ray diffraction and chemical analysis
##URL=rruff.info/R050191
##MEASURED CHEMISTRY=Ca_2.00_Al_2.00_(Fe^3+^_0.84_Al_0.16_)(SiO_4_)(Si_2_O_7_)O(OH)
##PIN_ID=L01970
##ORIENTATION=Laser parallel to b* (0 1 0). Fiducial mark perpendicular to laser is parallel to c [0 0 1]
81.13100, 0.0000000E+00
82.36700, 1442.674
83.60200, 4186.727
84.83700, 6840.596
86.07200, 10506.61
87.30800, 14040.34
88.54200, 17224.48
89.77700, 19180.97
91.01200, 18856.30
92.24600, 16514.77
93.48000, 13221.70
94.71400, 10362.44
95.94800, 7751.130
97.18200, 6030.465
98.41600, 4337.958
99.64900, 3459.006
100.8830, 2546.568
102.1160, 1589.473
103.3490, 860.8125
104.5820, 726.7178
105.8150, 578.3457
107.0470, 416.5527
108.2800, 189.5283
109.5120, 57.23730
110.7440, 108.6475
111.9760, 273.5195
113.2080, 385.4961
114.4400, 392.8984
115.6710, 437.8779
116.9030, 252.9619
118.1340, 368.1680
119.3650, 304.3770
120.5960, 201.4629
121.8270, 822.2363
123.0580, 1694.777
124.2880, 2604.941
125.5190, 3872.604
126.7490, 5592.656
127.9790, 8061.957
129.2090, 10941.40
130.4390, 13167.92
131.6680, 13001.45
132.8980, 11258.01
134.1270, 8832.416
135.3560, 6767.955
136.5850, 5100.934
137.8140, 3696.865
139.0430, 3152.572
140.2710, 2576.020
141.5000, 2445.176
142.7280, 2378.008
143.9560, 2697.490
145.1840, 2809.592
146.4120, 2619.285
147.6390, 2127.545
148.8670, 1654.355
150.0940, 1464.691
151.3210, 1570.543
152.5490, 1727.891
153.7750, 2171.207
155.0020, 2635.434
156.2290, 3507.752
157.4550, 4411.289
158.6810, 5755.439
159.9080, 7238.246
161.1340, 9174.121
162.3590, 11287.07
163.5850, 13487.02
164.8110, 15187.94
166.0360, 15303.81
167.2610, 14615.69
168.4860, 13239.67
169.7110, 11849.09
170.9360, 10263.43
172.1610, 8467.266
173.3850, 6921.768
174.6100, 5205.025
175.8340, 3971.396
177.0580, 2841.885
178.2820, 1978.498
179.5050, 1235.234
180.7290, 925.1074
181.9520, 372.1074
183.1760, 209.2383
184.3990, 76.50000
185.6220, 19.10547
186.8450, 184.5762
188.0670, 109.9082
189.2900, 139.1035
190.5120, 154.1582
191.7340, 62.92578
192.9560, 214.1504
194.1780, 582.9043
195.4000, 1102.016
196.6220, 1568.654
197.8430, 2196.426
199.0640, 2927.338
200.2860, 3556.383
201.5070, 3656.562
202.7270, 3398.873
203.9480, 3221.316
205.1690, 2754.891
206.3890, 2303.586
207.6090, 2022.363
208.8290, 1889.186
210.0490, 2016.074
211.2690, 2241.096
212.4890, 2561.250
213.7080, 2829.537
214.9280, 3449.957
216.1470, 4137.506
217.3660, 4875.188
218.5850, 5999.996
219.8030, 6939.938
221.0220, 8392.004
222.2400, 9565.203
223.4590, 10915.52
224.6770, 12287.97
225.8950, 13167.70
227.1120, 13369.15
228.3300, 13063.49
229.5480, 12352.15
230.7650, 11668.73
231.9820, 11170.68
233.1990, 10972.06
234.4160, 11205.08
235.6330, 12221.79
236.8490, 13033.79
238.0660, 14857.83
239.2820, 16416.78
240.4980, 17165.71
241.7140, 17200.71
242.9300, 16170.35
244.1460, 14715.62
245.3610, 12743.91
246.5770, 11167.45
247.7920, 9134.922
249.0070, 7737.809
250.2220, 6093.090
251.4370, 4785.750
252.6510, 3712.760
253.8660, 2844.107
255.0800, 2371.180
256.2940, 2075.490
257.5080, 1877.311
258.7220, 1656.084
259.9360, 1949.219
261.1490, 1565.740
262.3630, 1382.793
263.5760, 1709.459
264.7890, 2371.809
266.0020, 3010.309
267.2150, 4140.096
268.4270, 5353.650
269.6400, 6858.133
270.8520, 8855.797
272.0640, 10569.64
273.2760, 11598.64
274.4880, 11599.81
275.7000, 10545.14
276.9120, 8904.621
278.1230, 7464.250
279.3340, 6169.000
280.5450, 5247.809
281.7560, 4674.666
282.9670, 4519.609
284.1780, 4985.691
285.3880, 5600.906
286.5980, 6680.252
287.8090, 8058.727
289.0190, 9450.328
290.2290, 11224.05
291.4380, 11872.90
292.6480, 12285.86
293.8570, 11596.94
295.0670, 10891.14
296.2760, 10016.45
297.4850, 8587.875
298.6930, 7543.414
299.9020, 6184.057
301.1110, 5192.793
302.3190, 4415.617
303.5270, 3667.518
304.7350, 3064.490
305.9430, 2751.527
307.1510, 2144.637
308.3580, 1879.812
309.5660, 1568.057
310.7730, 1252.373
311.9800, 1314.760
313.1870, 1103.217
314.3940, 1356.744
315.6010, 1484.344
316.8070, 1889.012
318.0130, 2498.752
319.2200, 3084.570
320.4260, 3645.465
321.6310, 4336.436
322.8370, 4592.482
324.0430, 4779.609
325.2480, 4656.811
326.4540, 4196.090
327.6590, 3935.445
328.8640, 3522.875
330.0680, 3059.934
331.2730, 3128.107
332.4780, 3038.035
333.6820, 3323.459
334.8860, 3835.098
336.0900, 4405.312
337.2940, 5491.271
338.4980, 6672.307
339.7010, 8040.416
340.9050, 9837.598
342.1080, 11628.85
343.3110, 13716.18
344.5140, 15532.58
345.7170, 17642.05
346.9200, 18937.59
348.1220, 19275.21
349.3240, 18675.89
350.5270, 17199.64
351.7290, 15232.47
352.9310, 12951.36
354.1320, 10869.32
355.3340, 8481.355
356.5350, 6744.455
357.7370, 5386.625
358.9380, 4140.861
360.1390, 2907.168
361.3400, 2041.541
362.5400, 1523.979
363.7410, 805.4863
364.9410, 493.0566
366.1410, 172.6934
367.3410, 260.6055
368.5410, 534.9258
369.7410, 602.3379
370.9400, 871.1016
372.1400, 935.4473
373.3390, 997.1699
374.5380, 983.3301
375.7370, 1129.934
376.9360, 752.0664
378.1350, 823.5371
379.3330, 404.3887
380.5310, 270.4141
381.7300, 498.4551
382.9280, 672.3965
384.1260, 1463.410
385.3230, 2244.498
386.5210, 2425.662
387.7180, 2372.896
388.9160, 2188.215
390.1130, 2014.621
391.3100, 1453.117
392.5060, 1088.703
393.7030, 665.3789
394.9000, 474.1445
396.0960, 122.9941
397.2920, 174.9258
398.4880, 159.0586
399.6840, 361.0762
400.8800, 78.21289
402.0750, 270.3086
403.2710, 46.58398
404.4660, 234.6289
405.6610, 476.8496
406.8560, 752.2051
408.0510, 1078.693
409.2450, 1784.340
410.4400, 2504.090
411.6340, 3499.990
412.8280, 4714.922
414.0220, 6088.926
415.2160, 7997.002
416.4100, 10549.15
417.6030, 13252.36
418.7970, 16570.65
419.9900, 19886.99
421.1830, 22776.42
422.3760, 24576.92
423.5690, 25180.50
424.7610, 24749.18
425.9540, 23726.99
427.1460, 22690.88
428.3380, 21840.92
429.5300, 21716.09
430.7220, 21639.42
431.9140, 21574.89
433.1050, 21175.53
434.2970, 20856.29
435.4880, 19808.21
436.6790, 19392.29
437.8700, 19498.55
439.0610, 19738.00
440.2510, 21139.63
441.4420, 22628.44
442.6320, 25617.40
443.8220, 28696.50
445.0120, 32410.73
446.2020, 36690.18
447.3910, 39880.74
448.5810, 41794.46
449.7700, 42698.37
450.9600, 42836.41
452.1490, 41984.62
453.3370, 41002.92
454.5260, 38256.35
455.7150, 35676.94
456.9030, 32090.63
458.0910, 28954.50
459.2800, 25187.50
460.4670, 21986.64
461.6550, 18844.90
462.8430, 16369.26
464.0300, 13931.29
465.2180, 11763.32
466.4050, 10075.02
467.5920, 8408.814
468.7790, 7177.719
469.9650, 6177.727
471.1520, 5544.824
472.3380, 4712.020
473.5250, 4373.318
474.7110, 3936.689
475.8970, 3639.146
477.0820, 3497.697
478.2680, 3682.336
479.4540, 3278.053
480.6390, 3813.820
481.8240, 4017.635
483.0090, 4295.494
484.1940, 4413.393
485.3780, 5221.336
486.5630, 5674.318
487.7470, 6504.344
488.9320, 7382.410
490.1160, 8540.520
491.3000, 9534.660
492.4830, 11099.85
493.6670, 12481.07
494.8500, 13803.32
496.0340, 14896.62
497.2170, 15570.95
498.4000, 15936.32
499.5820, 15895.72
500.7650, 15751.16
501.9480, 15596.64
503.1300, 15460.15
504.3120, 15190.70
505.4940, 15384.27
506.6760, 14915.88
507.8580, 14628.54
509.0390, 13932.22
510.2210, 13048.45
511.4020, 12173.97
512.5830, 11466.53
513.7640, 11298.36
514.9450, 11073.45
516.1250, 11766.97
517.3060, 12452.36
518.4860, 13297.00
519.6660, 13909.12
520.8460, 13450.50
522.0260, 13063.91
523.2060, 11767.35
524.3850, 10238.58
525.5650, 8460.863
526.7440, 6462.199
527.9230, 5254.588
529.1020, 4046.025
530.2810, 2998.512
531.4590, 2213.049
532.6380, 1687.635
533.8160, 1306.266
534.9940, 1001.945
536.1720, 561.6719
537.3500, 657.4434
538.5270, 495.2598
539.7050, 344.1211
540.8820, 523.6074
542.0590, 795.2246
543.2360, 782.3711
544.4130, 1046.201
545.5900, 1114.791
546.7660, 1351.914
547.9430, 1873.076
549.1190, 2257.281
550.2950, 3213.525
551.4710, 3888.807
552.6470, 5085.129
553.8220, 6821.484
554.9980, 8817.879
556.1730, 11414.31
557.3480, 15089.77
558.5230, 19326.27
559.6980, 23975.79
560.8730, 28997.53
562.0470, 32917.73
563.2220, 34641.13
564.3960, 33264.66
565.5700, 29469.66
566.7440, 25510.76
567.9170, 20726.11
569.0910, 16581.21
570.2640, 13099.90
571.4380, 10955.95
572.6110, 9108.004
573.7840, 8009.949
574.9570, 7361.840
576.1290, 7178.268
577.3020, 7597.777
578.4740, 7947.764
579.6460, 9049.902
580.8180, 10087.03
581.9900, 11171.45
583.1620, 12038.66
584.3330, 13040.57
585.5040, 13831.13
586.6760, 14680.84
587.8470, 15537.53
589.0180, 16566.87
590.1880, 17852.34
591.3590, 19704.75
592.5290, 21770.17
593.7000, 23218.16
594.8700, 24690.89
596.0400, 25664.27
597.2090, 25836.41
598.3790, 25480.06
599.5490, 24237.07
600.7180, 22453.67
601.8870, 20629.29
603.0560, 18961.08
604.2250, 17376.49
605.3940, 16032.32
606.5620, 14909.36
607.7300, 13773.66
608.8990, 12882.19
610.0670, 12165.33
611.2350, 11353.59
612.4020, 10711.84
613.5700, 9716.387
614.7370, 8728.564
615.9050, 7925.383
617.0720, 7168.006
618.2390, 6173.580
619.4060, 5452.045
620.5720, 4877.729
621.7390, 4308.734
622.9050, 3839.660
624.0710, 3714.500
625.2370, 3397.287
626.4030, 2797.020
627.5690, 2468.699
628.7340, 2058.320
629.9000, 1991.887
631.0650, 1639.398
632.2300, 1518.852
633.3950, 1303.246
634.5600, 1216.584
635.7240, 1105.861
636.8890, 1053.082
638.0530, 1015.240
639.2170, 855.4180
640.3810, 747.7383
641.5450, 910.7148
642.7080, 824.5703
643.8720, 1129.420
645.0350, 1112.211
646.1980, 975.4609
647.3610, 939.3008
648.5240, 749.0645
649.6870, 762.8750
650.8490, 954.5977
652.0120, 713.7305
653.1740, 831.7793
654.3360, 721.8789
655.4980, 609.1582
656.6600, 577.4531
657.8210, 635.9473
658.9830, 594.6738
660.1440, 298.5352
661.3050, 505.5527
662.4660, 389.6191
663.6270, 581.6992
664.7870, 589.7090
665.9480, 359.6445
667.1080, 530.5078
668.2680, 459.2930
669.4280, 433.0020
670.5880, 662.6367
671.7480, 595.1934
672.9070, 822.6738
674.0670, 747.0762
675.2260, 997.3984
676.3850, 767.6445
677.5440, 857.8086
678.7030, 1167.895
679.8610, 1353.898
681.0200, 1489.879
682.1780, 1585.883
683.3360, 1802.844
684.4940, 1970.803
685.6520, 1825.689
686.8090, 2050.492
687.9670, 1920.211
689.1240, 1806.844
690.2810, 1529.391
691.4380, 1429.852
692.5950, 1266.227
693.7520, 984.5137
694.9080, 870.7148
696.0650, 715.6660
697.2210, 696.8516
698.3770, 497.7852
699.5330, 351.6309
700.6880, 271.3828
701.8440, 87.03711
702.9990, 150.5742
704.1550, 17.00000
705.3100, 141.7246
706.4650, 111.3184
707.6190, 137.7578
708.7740, 161.0684
709.9290, 228.6289
711.0830, 147.4727
712.2370, 239.5605
713.3910, 93.94141
714.5450, 212.5352
715.6980, 260.4121
716.8520, 314.5957
718.0050, 316.1113
719.1580, 314.9648
720.3110, 303.1543
721.4640, 203.6758
722.6170, 182.4746
723.7700, 160.5820
724.9220, 369.8672
726.0740, 130.5605
727.2260, 268.4941
728.3780, 254.7402
729.5300, 222.2930
730.6810, 191.1387
731.8330, 89.25391
732.9840, 101.5898
734.1350, 240.1504
735.2860, 46.00977
736.4370, 310.0664
737.5880, 189.4551
738.7380, 168.1113
739.8880, 90.02539
741.0390, 78.34961
742.1890, 89.48828
743.3380, 73.04102
744.4880, 95.79688
745.6380, 76.77148
746.7870, 66.25000
747.9360, 77.79297
749.0850, 33.91406
750.2340, 51.67969
751.3830, 42.63086
752.5310, 47.23438
753.6800, 108.9648
754.8280, 2.421875
755.9760, 29.03320
757.1240, 116.3477
758.2720, 174.5488
759.4190, 448.6445
760.5670, 452.6445
761.7140, 475.5566
762.8610, 810.3770
764.0080, 693.1074
765.1550, 808.7539
766.3020, 755.3066
767.4480, 920.7715
768.5950, 780.1504
769.7410, 847.4414
770.8870, 648.6465
772.0330, 668.7656
773.1780, 587.7969
774.3240, 470.7441
775.4690, 525.6055
776.6140, 395.3809
777.7590, 343.0723
778.9040, 428.6738
780.0490, 197.1973
781.1940, 492.6230
782.3380, 488.9688
783.4820, 115.2344
784.6260, 152.4023
785.7700, 342.4824
786.9140, 354.4746
788.0580, 290.3887
789.2010, 252.2188
790.3450, 292.9668
791.4880, 316.6309
792.6310, 314.0527
793.7730, 392.7070
794.9160, 358.1230
796.0590, 440.4570
797.2010, 511.7090
798.3430, 513.8750
799.4850, 557.9609
800.6270, 645.9609
801.7690, 691.8770
802.9100, 859.7090
804.0520, 752.4629
805.1930, 778.1328
806.3340, 906.7207
807.4750, 975.2285
808.6160, 1125.658
809.7560, 1172.006
810.8970, 1324.275
812.0370, 1446.467
813.1770, 1269.580
814.3170, 1515.617
815.4570, 1666.576
816.5960, 1969.459
817.7360, 1849.270
818.8750, 2174.002
820.0140, 2438.660
821.1530, 2601.246
822.2920, 2908.756
823.4310, 3223.191
824.5690, 3347.553
825.7070, 3772.846
826.8460, 3993.064
827.9840, 4125.215
829.1220, 4282.289
830.2590, 4191.297
831.3970, 4009.234
832.5340, 4100.105
833.6710, 3511.906
834.8080, 3656.641
835.9450, 3450.309
837.0820, 3532.740
838.2190, 3229.672
839.3550, 2963.367
840.4910, 2968.900
841.6270, 3104.936
842.7630, 2897.838
843.8990, 3075.455
845.0350, 3433.281
846.1700, 3133.488
847.3060, 3454.307
848.4410, 3483.076
849.5760, 3594.934
850.7100, 3903.803
851.8450, 4164.104
852.9800, 4574.287
854.1140, 4893.965
855.2480, 5128.453
856.3820, 5561.924
857.5160, 5809.059
858.6500, 6333.371
859.7830, 6844.953
860.9170, 7507.855
862.0500, 7958.578
863.1830, 8782.281
864.3160, 9129.299
865.4480, 9461.156
866.5810, 10167.04
867.7130, 10625.87
868.8460, 11266.10
869.9780, 11469.57
871.1100, 12056.39
872.2410, 12220.40
873.3730, 12861.16
874.5050, 12794.37
875.6360, 12824.93
876.7670, 12744.30
877.8980, 12551.49
879.0290, 12044.14
880.1590, 11517.84
881.2900, 10968.23
882.4200, 10833.93
883.5500, 10069.41
884.6800, 9509.273
885.8100, 9394.014
886.9400, 9292.766
888.0690, 8726.240
889.1990, 8324.080
890.3280, 8261.262
891.4570, 8293.619
892.5860, 8270.004
893.7140, 8499.467
894.8430, 8690.688
895.9710, 9056.574
897.1000, 9739.521
898.2280, 10446.52
899.3560, 10990.53
900.4830, 12458.58
901.6110, 13329.64
902.7380, 14897.74
903.8660, 16286.87
904.9930, 17937.05
906.1200, 19769.28
907.2460, 21520.52
908.3730, 24096.79
909.5000, 25975.08
910.6260, 28385.45
911.7520, 30109.85
912.8780, 31687.19
914.0040, 32298.38
915.1290, 31853.92
916.2550, 31324.55
917.3800, 28903.15
918.5050, 26607.82
919.6300, 23770.00
920.7550, 20871.61
921.8800, 18370.27
923.0040, 16088.32
924.1290, 13977.02
925.2530, 12193.29
926.3770, 10457.05
927.5010, 9097.971
928.6250, 7759.932
929.7480, 6792.115
930.8720, 6132.385
931.9950, 5182.711
933.1180, 4887.094
934.2410, 4208.521
935.3640, 3822.988
936.4860, 3225.508
937.6090, 2950.066
938.7310, 2740.682
939.8530, 2514.340
940.9750, 2442.051
942.0970, 2053.828
943.2180, 1850.654
944.3400, 1735.523
945.4610, 1809.439
946.5820, 1782.406
947.7030, 1417.424
948.8240, 1518.516
949.9450, 1429.658
951.0650, 1558.850
952.1860, 1466.086
953.3060, 1644.377
954.4260, 1543.715
955.5460, 1642.105
956.6650, 1556.547
957.7850, 1660.043
958.9040, 1781.588
960.0230, 1603.191
961.1420, 1537.848
962.2610, 1783.574
963.3800, 1639.357
964.4990, 1715.199
965.6170, 1751.094
966.7350, 1921.625
967.8530, 2244.094
968.9710, 2491.178
970.0890, 2938.316
971.2070, 3427.525
972.3240, 3929.795
973.4410, 4695.127
974.5580, 5449.531
975.6750, 6045.004
976.7920, 7095.564
977.9090, 7624.258
979.0250, 7804.021
980.1410, 7896.924
981.2580, 7383.957
982.3740, 6894.152
983.4890, 6216.480
984.6050, 5329.975
985.7200, 4415.590
986.8360, 3902.359
987.9510, 3052.299
989.0660, 2457.426
990.1810, 2169.738
991.2950, 1569.238
992.4100, 1477.920
993.5240, 1175.758
994.6390, 863.7461
995.7530, 825.8828
996.8660, 600.2168
997.9800, 650.6895
999.0940, 430.3340
1000.207, 660.1504
1001.320, 708.1309
1002.433, 434.2637
1003.546, 287.5273
1004.659, 4.919922
1005.772, 168.7598
1006.884, 42.56641
1007.996, 18.64648
1009.108, 11.64258
1010.220, 109.4922
1011.332, 81.77734
1012.444, 0.5273440
1013.555, 241.1895
1014.666, 118.8340
1015.777, 377.7344
1016.888, 560.0527
1017.999, 551.5664
1019.110, 702.3242
1020.220, 739.1484
1021.331, 909.7129
1022.441, 1028.010
1023.551, 1103.176
1024.661, 1260.527
1025.770, 1363.732
1026.880, 1519.027
1027.989, 1716.080
1029.098, 1846.195
1030.207, 2254.609
1031.316, 2639.639
1032.425, 3151.824
1033.533, 3496.973
1034.642, 4039.180
1035.750, 4456.723
1036.858, 4999.574
1037.966, 5404.180
1039.073, 5579.871
1040.181, 5918.367
1041.288, 5631.916
1042.396, 5466.523
1043.503, 5392.355
1044.610, 5013.076
1045.716, 4687.855
1046.823, 4337.473
1047.929, 4076.111
1049.036, 3631.611
1050.142, 3517.611
1051.248, 3130.182
1052.353, 3411.289
1053.459, 3378.580
1054.564, 3146.803
1055.670, 3722.715
1056.775, 3642.598
1057.880, 4050.131
1058.985, 4275.561
1060.089, 4408.043
1061.194, 4603.576
1062.298, 4349.416
1063.402, 4224.361
1064.506, 4092.084
1065.610, 3849.857
1066.713, 3734.623
1067.817, 3602.441
1068.920, 3694.941
1070.023, 3793.107
1071.126, 4153.510
1072.229, 4451.625
1073.332, 5009.602
1074.435, 5782.340
1075.537, 6489.475
1076.639, 7635.652
1077.741, 8759.871
1078.843, 10457.30
1079.945, 12362.61
1081.046, 14036.37
1082.148, 16147.76
1083.249, 17431.18
1084.350, 18003.65
1085.451, 17832.15
1086.551, 16885.70
1087.652, 15385.28
1088.752, 12996.90
1089.853, 11002.56
1090.953, 9145.260
1092.053, 7317.850
1093.152, 5843.621
1094.252, 4677.018
1095.351, 3729.859
1096.451, 2722.355
1097.550, 2361.270
1098.649, 1974.611
1099.748, 1584.596
1100.846, 1386.613
1101.945, 1391.666
1103.043, 998.0586
1104.141, 941.1758
1105.239, 705.3242
1106.337, 829.5039
1107.434, 730.7148
1108.532, 614.9551
1109.629, 635.2266
1110.726, 678.5273
1111.823, 494.8555
1112.920, 618.2109
1114.017, 420.5977
1115.113, 503.0078
1116.210, 319.4434
1117.306, 647.9043
1118.402, 366.3887
1119.498, 452.8965
1120.593, 498.4258
1121.689, 278.4453
1122.784, 285.0176
1123.879, 489.9141
1124.974, 490.5234
1126.069, 411.1484
1127.164, 235.7930
1128.259, 441.4512
1129.353, 384.1250
1130.447, 137.8145
1131.541, 206.5176
1132.635, 120.2305
1133.729, 177.9570
1134.822, 33.69141
1135.916, 56.43945
1137.009, 112.8516
1138.102, 78.87109
1139.195, 5.302734
1140.288, 19.89453
1141.380, 36.52148
1142.473, 24.28906
1143.565, 195.9609
1144.657, 96.35156
1145.749, 218.7188
1146.841, 184.1777
1147.932, 203.7188
1149.024, 75.34766
1150.115, 168.0039
1151.206, 129.7402
1152.297, 237.5371
1153.388, 93.43164
1154.479, 48.37500
1155.569, 58.34961
1156.659, 37.35742
1157.750, 9.607422
1158.839, 32.43750
1159.929, 50.50000
1161.019, 33.60156
1162.108, 44.26953
1163.198, 23.20508
1164.287, 34.88086
1165.376, 61.83594
1166.465, 40.32422
1167.553, 16.47461
1168.642, 120.7305
1169.730, 27.98047
1170.818, 143.6777
1171.906, 122.5155
1172.994, 107.0449
1174.082, 140.2852
1175.170, 79.28516
1176.257, 123.8438
1177.344, 47.60742
1178.431, 77.11914
1179.518, 37.29688
1180.605, 134.6953
1181.691, 98.92578
1182.778, 76.36719
1183.864, 152.3574
1184.950, 93.80078
1186.036, 268.0586
1187.122, 244.6351
1188.207, 262.0372
1189.292, 261.6973
1190.378, 229.5664
1191.463, 174.4180
1192.548, 75.25391
1193.632, 106.9336
1194.717, 5.228516
1195.801, 3.580078
1196.886, 109.0117
1197.970, 232.5840
1199.054, 40.13477
1200.137, 127.6504
1201.221, 33.14062
1202.305, 105.2812
1203.388, 73.70508
1204.471, 15.89844
1205.554, 214.4258
1206.637, 317.7246
1207.719, 311.0059
1208.802, 77.26562
1209.884, 162.4883
1210.966, 19.31055
1212.048, 152.8125
1213.130, 222.9102
1214.212, 199.9844
1215.293, 246.0352
1216.374, 191.0605
1217.456, 221.7754
1218.536, 336.0410
1219.617, 210.0195
1220.698, 207.9473
1221.778, 113.8516
1222.859, 235.7188
1223.939, 47.61328
1225.019, 204.3984
1226.099, 131.1543
1227.178, 219.8789
1228.258, 37.57812
1229.337, 324.2090
1230.417, 216.8164
1231.496, 355.3906
1232.574, 90.94141
1233.653, 370.4414
1234.732, 268.9141
1235.810, 312.3613
1236.888, 345.7773
1237.966, 208.1641
1239.044, 257.5234
1240.122, 250.8555
1241.199, 352.1582
1242.277, 266.4355
1243.354, 428.6836
1244.431, 277.9082
1245.508, 367.1016
1246.585, 323.2676
1247.661, 243.4277
1248.738, 428.5547
1249.814, 334.6562
1250.890, 144.7246
1251.966, 277.7539
1253.042, 196.7656
1254.117, 419.7402
1255.193, 394.6855
1256.268, 462.6035
1257.343, 496.9805
1258.418, 471.3379
1259.493, 497.1758
1260.567, 491.0117
1261.642, 518.8184
1262.716, 655.5898
1263.790, 620.3340
1264.864, 436.2930
1265.938, 633.9746
1267.011, 557.3418
1268.085, 634.9590
1269.158, 833.4844
1270.231, 784.0449
1271.304, 777.9395
1272.377, 520.4395
1273.450, 763.5469
1274.522, 776.0938
1275.594, 518.5312
1276.666, 519.9883
1277.738, 511.5547
1278.810, 410.2461
1279.882, 588.8809
1280.953, 517.7031
1282.025, 564.4629
1283.096, 384.7930
1284.167, 316.3574
1285.238, 540.2500
1286.308, 332.1660
1287.379, 306.7207
1288.449, 304.2578
1289.519, 508.2012
1290.589, 520.1445
1291.659, 603.2871
1292.729, 476.1172
1293.798, 717.3145
1294.868, 498.1816
1295.937, 486.7441
1297.006, 544.6367
1298.075, 698.1934
1299.143, 342.6875
1300.212, 674.7168
1301.280, 490.0645
1302.348, 480.7246
1303.416, 665.7793
1304.484, 705.3809
1305.552, 705.9531
1306.620, 621.7090
1307.687, 592.4727
1308.754, 731.4023
1309.821, 472.8594
1310.888, 693.7773
1311.955, 635.1836
1313.021, 741.4355
1314.088, 685.7871
1315.154, 836.4805
1316.220, 812.2227
1317.286, 798.3379
1318.352, 611.5820
1319.417, 609.7969
1320.483, 669.9863
1321.548, 716.8887
1322.613, 454.6992
1323.678, 419.7559
1324.743, 391.7871
1325.807, 411.8457
1326.872, 377.8848
1327.936, 213.0000
1329.000, 308.9902
1330.064, 28.51367
1331.128, 407.3496
1332.191, 259.3477
1333.255, 178.6152
1334.318, 358.5059
1335.381, 162.3789
1336.444, 294.2344
1337.507, 306.9004
1338.569, 178.7207
1339.632, 213.1016
1340.694, 148.8867
1341.756, 188.6562
1342.818, 191.6980
1343.880, 316.1445
1344.941, 180.8652
1346.003, 231.5684
1347.064, 132.2578
1348.125, 247.9258
1349.186, 182.5820
1350.247, 262.3672
1351.308, 126.9922
1352.368, 281.0137
1353.428, 248.6055
1354.489, 289.5684
1355.549, 304.1309
1356.608, 287.8242
1357.668, 346.8164
1358.727, 277.3301
1359.787, 249.8301
1360.846, 235.0059
1361.905, 235.4727
1362.964, 232.9258
1364.022, 140.3594
1365.081, 221.3262
1366.139, 215.4180
1367.197, 339.1387
1368.255, 300.4668
1369.313, 357.6660
1370.371, 414.4316
1371.428, 421.8066
1372.486, 319.4258
1373.543, 469.1113
1374.600, 402.3574
1375.657, 377.7422
1376.713, 446.9238
1377.770, 305.2988
1378.826, 534.9375
1379.882, 299.9805
1380.938, 145.7871
1381.994, 442.1680
1383.050, 323.7617
1384.106, 400.8359
1385.161, 220.1348
1386.216, 381.4297
1387.271, 182.0957
1388.326, 235.3418
1389.381, 305.4492
1390.435, 310.3711
1391.490, 93.41797
1392.544, 166.4961
1393.598, 188.4746
1394.652, 264.4629
1395.705, 231.0723
1396.759, 243.5703
1397.812, 77.50000
1398.866, 184.5020
1399.919, 168.4844
1400.972, 91.45898
1402.024, 142.4727
1403.077, 98.49414
1404.129, 15.54688
1405.181, 15.63086
1406.233, 339.7188
1407.285, 111.8379
1408.337, 49.02344
1409.389, 307.1387
1410.440, 142.2969
1411.491, 271.4414
1412.542, 133.5156
1413.593, 39.57422
1414.644, 0.3964840
1415.695, 123.5840
1416.745, 72.53906
1417.795, 111.5527
1418.845, 204.3008
1419.895, 85.02930
1420.945, 223.7168
1421.995, 189.5566
1423.044, 16.78906
1424.093, 162.7910
1425.142, 247.3770
1426.191, 82.93555
1427.240, 45.46094
1428.289, 247.9473
1429.337, 50.39844
1430.385, 297.8496
1431.433, 333.2598
1432.481, 363.6270
1433.529, 432.9785
1434.577, 487.4902
1435.624, 544.7559
1436.672, 625.0918
1437.719, 708.1660
1438.766, 768.5293
1439.812, 925.9238
1440.859, 1034.676
1441.905, 1072.852
1442.952, 1023.209
1443.998, 1170.275
1445.044, 1196.246
1446.090, 1293.746
1447.135, 1255.408
1448.181, 1332.170
1449.226, 1177.643
1450.271, 1360.236
1451.316, 1368.832
1452.361, 1231.436
1453.405, 1269.301
1454.450, 1186.930
1455.494, 1282.572
1456.538, 1350.213
1457.582, 1465.879
1458.626, 1420.609
1459.670, 1389.736
1460.713, 1265.932
1461.757, 1205.578
1462.800, 1015.246
1463.843, 918.8770
1464.886, 945.5859
1465.928, 776.3164
1466.971, 743.0703
1468.013, 571.8340
1469.055, 739.6113
1470.097, 717.3906
1471.139, 773.1680
1472.181, 891.9434
1473.222, 695.7070
1474.263, 328.4648
1475.305, 567.1699
1476.346, 485.8672
1477.386, 477.5605
1478.427, 473.2480
1479.468, 592.9258
1480.508, 510.6016
1481.548, 179.1738
1482.588, 311.7441
1483.628, 287.9668
1484.668, 480.5293
1485.707, 293.0898
1486.747, 342.1309
1487.786, 244.3301
1488.825, 268.5059
1489.864, 182.2832
1490.902, 227.5547
1491.941, 54.82031
1492.979, 202.1895
1494.017, 33.29883
1495.055, 73.83594
1496.093, 54.30078
1497.131, 38.22070
1498.168, 79.63086
1499.206, 56.31250
1500.243, 130.5469
1501.280, 24.80859
1502.317, 125.1758
1503.354, 28.57422
1504.390, 21.00195
1505.426, 291.4375
1506.463, 114.8848
1507.499, 4.359375
1508.535, 194.8555
1509.570, 129.3926
1510.606, 16.96289
1511.641, 125.3945
1512.676, 137.2617
1513.711, 167.9258
1514.746, 40.59961
1515.781, 180.2676
1516.816, 29.92383
1517.850, 201.5723
1518.884, 356.2090
1519.918, 71.83594
1520.952, 131.4473
1521.986, 146.0430
1523.019, 186.6172
1524.053, 189.5664
1525.086, 210.6777
1526.119, 195.2402
1527.152, 247.7441
1528.185, 284.2285
1529.217, 326.7168
1530.250, 367.1777
1531.282, 365.6543
1532.314, 352.2207
1533.346, 380.3809
1534.377, 373.4199
1535.409, 393.3164
1536.440, 396.5215
1537.472, 383.5820
1538.503, 395.4883
1539.534, 310.7617
1540.564, 319.5879
1541.595, 175.9824
1542.625, 376.1367
1543.656, 233.3730
1544.686, 331.4180
1545.716, 105.2812
1546.745, 142.5820
1547.775, 167.9355
1548.804, 156.6523
1549.834, 232.1875
1550.863, 246.1992
1551.892, 295.2910
1552.920, 307.5352
1553.949, 366.6016
1554.977, 376.2246
1556.006, 341.3750
1557.034, 325.3574
1558.062, 167.4648
1559.089, 56.14648
1560.117, 3.156250
1561.144, 0.5410160
1562.172, 84.84961
1563.199, 81.13477
1564.226, 15.66211
1565.252, 164.4941
1566.279, 159.7852
1567.305, 139.0820
1568.332, 232.6582
1569.358, 0.8906250
1570.384, 128.7207
1571.409, 17.93750
1572.435, 0.0000000E+00
##END=



