##NAMES=Ferberite
##RRUFFID=R050632
##IDEAL CHEMISTRY=Fe^2+^W^6+^O_4_
##LOCALITY=Chance mine, Boulder, Colorado, USA
##OWNER=RRUFF
##SOURCE=University of Arizona Mineral Museum
##DESCRIPTION=Dark brown rectangular prismatic crystals
##STATUS=The identification of this mineral has been confirmed by X-ray diffraction and chemical analysis
##URL=rruff.info/R050632
##MEASURED CHEMISTRY=Fe^2+^_1.00_WO_4_
##PIN_ID=L00968
##ORIENTATION=Laser parallel to c* (0 0 1). Fiducial mark perpendicular to laser is parallel to a [1 0 0]
159.9080, 0.0000000E+00
161.1340, 9.136719
162.3590, 79.13672
163.5850, 205.1943
164.8110, 387.5420
166.0360, 537.5156
167.2610, 653.9141
168.4860, 600.3574
169.7110, 781.4668
170.9360, 876.2441
172.1610, 972.5225
173.3850, 1199.728
174.6100, 1193.177
175.8340, 1420.466
177.0580, 1554.857
178.2820, 1734.711
179.5050, 1825.250
180.7290, 1947.635
181.9520, 2166.549
183.1760, 2338.790
184.3990, 2428.668
185.6220, 2620.868
186.8450, 2732.455
188.0670, 2806.233
189.2900, 3172.994
190.5120, 3303.627
191.7340, 3579.614
192.9560, 3782.582
194.1780, 4150.066
195.4000, 4308.405
196.6220, 4628.650
197.8430, 5085.286
199.0640, 5343.693
200.2860, 6706.350
201.5070, 7091.439
202.7270, 8234.870
203.9480, 8289.402
205.1690, 6498.039
206.3890, 3839.189
207.6090, 2174.263
208.8290, 1707.739
210.0490, 1634.815
211.2690, 1657.703
212.4890, 1939.516
213.7080, 1802.656
214.9280, 1629.688
216.1470, 1670.818
217.3660, 1126.162
218.5850, 857.5713
219.8030, 811.0088
221.0220, 814.4551
222.2400, 632.0381
223.4590, 655.7080
224.6770, 343.4814
225.8950, 474.1611
227.1120, 188.8496
228.3300, 194.3809
229.5480, 10.08984
230.7650, 1.386719
231.9820, 106.3877
233.1990, 15.60742
234.4160, 84.18945
235.6330, 165.1865
236.8490, 73.24219
238.0660, 69.91699
239.2820, 92.44629
240.4980, 2.898438
241.7140, 12.21582
242.9300, 71.41309
244.1460, 99.46484
245.3610, 101.4199
246.5770, 130.2871
247.7920, 112.1064
249.0070, 232.7969
250.2220, 67.45801
251.4370, 73.09082
252.6510, 125.4375
253.8660, 36.55078
255.0800, 151.6074
256.2940, 222.2588
257.5080, 115.5947
258.7220, 237.8750
259.9360, 268.3828
261.1490, 295.5000
262.3630, 450.0322
263.5760, 369.8760
264.7890, 522.6309
266.0020, 582.9746
267.2150, 685.6543
268.4270, 479.9668
269.6400, 407.3096
270.8520, 510.4287
272.0640, 500.1123
273.2760, 393.8350
274.4880, 469.1113
275.7000, 702.0107
276.9120, 794.4951
278.1230, 738.6943
279.3340, 728.3906
280.5450, 475.0303
281.7560, 304.6748
282.9670, 272.3311
284.1780, 299.0039
285.3880, 152.6943
286.5980, 330.8955
287.8090, 246.0225
289.0190, 167.8818
290.2290, 265.9375
291.4380, 260.4463
292.6480, 23.50586
293.8570, 133.8604
295.0670, 197.7988
296.2760, 216.4463
297.4850, 57.92480
298.6930, 128.0684
299.9020, 106.4580
301.1110, 81.55078
302.3190, 183.9287
303.5270, 50.89453
304.7350, 151.9160
305.9430, 164.0342
307.1510, 216.3779
308.3580, 178.5156
309.5660, 170.5654
310.7730, 254.3926
311.9800, 288.6699
313.1870, 242.8223
314.3940, 302.2666
315.6010, 171.4707
316.8070, 293.2217
318.0130, 253.8311
319.2200, 345.3486
320.4260, 490.4062
321.6310, 448.1582
322.8370, 480.8281
324.0430, 573.4062
325.2480, 676.0889
326.4540, 872.3857
327.6590, 915.7949
328.8640, 1113.848
330.0680, 930.7695
331.2730, 877.9609
332.4780, 1004.700
333.6820, 833.3975
334.8860, 783.0654
336.0900, 826.4482
337.2940, 838.9932
338.4980, 716.2314
339.7010, 728.3682
340.9050, 651.3086
342.1080, 541.0947
343.3110, 547.6787
344.5140, 542.0869
345.7170, 626.2715
346.9200, 558.2627
348.1220, 510.9463
349.3240, 405.7471
350.5270, 490.9512
351.7290, 529.0322
352.9310, 522.7051
354.1320, 339.0654
355.3340, 384.3643
356.5350, 337.9473
357.7370, 287.7451
358.9380, 365.3145
360.1390, 207.4844
361.3400, 283.0312
362.5400, 265.4385
363.7410, 290.4658
364.9410, 223.1836
366.1410, 184.4219
367.3410, 238.0059
368.5410, 240.4551
369.7410, 162.3711
370.9400, 179.7197
372.1400, 201.6514
373.3390, 178.3828
374.5380, 237.7441
375.7370, 135.4316
376.9360, 198.7285
378.1350, 100.5029
379.3330, 229.0498
380.5310, 241.8896
381.7300, 153.9053
382.9280, 188.5605
384.1260, 95.86328
385.3230, 30.83984
386.5210, 138.2822
387.7180, 176.0557
388.9160, 153.1133
390.1130, 161.0898
391.3100, 302.2930
392.5060, 117.6768
393.7030, 103.5176
394.9000, 318.7676
396.0960, 303.6963
397.2920, 365.3682
398.4880, 581.0967
399.6840, 486.8848
400.8800, 733.9639
402.0750, 650.5068
403.2710, 776.6455
404.4660, 569.9082
405.6610, 608.2783
406.8560, 396.7178
408.0510, 360.1445
409.2450, 267.5605
410.4400, 36.96191
411.6340, 164.3486
412.8280, 52.72363
414.0220, 176.0830
415.2160, 128.4336
416.4100, 41.34668
417.6030, 69.01758
418.7970, 132.4736
419.9900, 151.5400
421.1830, 6.719727
422.3760, 63.97266
423.5690, 42.91016
424.7610, 18.07324
425.9540, 120.9814
427.1460, 11.57324
428.3380, 89.29492
429.5300, 96.46680
430.7220, 146.8037
431.9140, 104.6797
433.1050, 90.72852
434.2970, 169.5508
435.4880, 197.2080
436.6790, 143.1787
437.8700, 195.6094
439.0610, 59.51562
440.2510, 89.16113
441.4420, 189.5029
442.6320, 140.8818
443.8220, 194.8838
445.0120, 209.6572
446.2020, 39.67773
447.3910, 46.93750
448.5810, 97.66016
449.7700, 127.4023
450.9600, 85.04297
452.1490, 26.71387
453.3370, 6.666992
454.5260, 42.16016
455.7150, 45.24609
456.9030, 37.17871
458.0910, 70.65234
459.2800, 34.34668
460.4670, 112.0801
461.6550, 34.26855
462.8430, 26.30078
464.0300, 227.4355
465.2180, 154.3359
466.4050, 230.9775
467.5920, 79.74609
468.7790, 36.48828
469.9650, 82.56152
471.1520, 154.3037
472.3380, 186.7656
473.5250, 37.25000
474.7110, 116.8789
475.8970, 108.8721
477.0820, 93.82324
478.2680, 204.5605
479.4540, 81.90430
480.6390, 195.8242
481.8240, 211.7969
483.0090, 274.0000
484.1940, 243.7559
485.3780, 242.5811
486.5630, 335.0918
487.7470, 375.7793
488.9320, 336.5684
490.1160, 397.1699
491.3000, 268.8633
492.4830, 306.1777
493.6670, 416.2861
494.8500, 375.6689
496.0340, 437.7656
497.2170, 460.7168
498.4000, 392.2969
499.5820, 360.4170
500.7650, 572.5215
501.9480, 520.6084
503.1300, 373.5605
504.3120, 584.6162
505.4940, 461.6035
506.6760, 704.6260
507.8580, 723.6543
509.0390, 558.2656
510.2210, 622.0879
511.4020, 735.9072
512.5830, 698.3857
513.7640, 693.9248
514.9450, 532.5459
516.1250, 651.0586
517.3060, 657.8350
518.4860, 741.1963
519.6660, 568.8232
520.8460, 728.0615
522.0260, 660.8936
523.2060, 707.7695
524.3850, 699.2715
525.5650, 670.9678
526.7440, 675.3320
527.9230, 763.2705
529.1020, 639.8418
530.2810, 716.6152
531.4590, 734.3525
532.6380, 663.1836
533.8160, 882.2275
534.9940, 832.0156
536.1720, 812.8701
537.3500, 846.0156
538.5270, 776.1777
539.7050, 730.3691
540.8820, 789.5508
542.0590, 753.0361
543.2360, 736.8887
544.4130, 758.0381
545.5900, 736.1709
546.7660, 697.2871
547.9430, 604.3857
549.1190, 862.4707
550.2950, 712.5439
551.4710, 682.6055
552.6470, 764.2256
553.8220, 680.2764
554.9980, 727.9482
556.1730, 715.9648
557.3480, 561.9238
558.5230, 679.0439
559.6980, 726.5234
560.8730, 653.0420
562.0470, 698.9697
563.2220, 598.7881
564.3960, 639.3848
565.5700, 645.8770
566.7440, 591.2510
567.9170, 628.0381
569.0910, 614.0547
570.2640, 690.6787
571.4380, 638.5381
572.6110, 656.5176
573.7840, 531.7305
574.9570, 575.2998
576.1290, 473.0186
577.3020, 281.7197
578.4740, 343.4072
579.6460, 265.0801
580.8180, 201.4492
581.9900, 255.9277
583.1620, 233.7432
584.3330, 318.6211
585.5040, 356.5850
586.6760, 350.1328
587.8470, 166.0049
589.0180, 210.8652
590.1880, 166.8301
591.3590, 118.8467
592.5290, 199.7705
593.7000, 42.55273
594.8700, 122.9229
596.0400, 103.1035
597.2090, 56.40918
598.3790, 31.90234
599.5490, 101.2031
600.7180, 101.6270
601.8870, 40.94824
603.0560, 67.89160
604.2250, 56.82617
605.3940, 123.9863
606.5620, 119.5811
607.7300, 117.6865
608.8990, 90.10645
610.0670, 35.24414
611.2350, 52.19727
612.4020, 48.37695
613.5700, 39.63770
614.7370, 32.17773
615.9050, 41.88867
617.0720, 10.83984
618.2390, 96.46484
619.4060, 9.327148
620.5720, 43.15625
621.7390, 52.53711
622.9050, 23.21582
624.0710, 21.59961
625.2370, 31.03906
626.4030, 52.38574
627.5690, 42.10156
628.7340, 49.73340
629.9000, 101.5664
631.0650, 128.8486
632.2300, 157.1152
633.3950, 30.36523
634.5600, 214.5859
635.7240, 133.7910
636.8890, 354.9795
638.0530, 9.152344
639.2170, 127.2891
640.3810, 133.4102
641.5450, 269.5146
642.7080, 31.60352
643.8720, 264.6660
645.0350, 164.7529
646.1980, 325.7451
647.3610, 64.76074
648.5240, 274.7598
649.6870, 171.7451
650.8490, 206.7158
652.0120, 264.6719
653.1740, 174.6143
654.3360, 264.5449
655.4980, 125.4609
656.6600, 322.7676
657.8210, 310.1221
658.9830, 457.9111
660.1440, 376.7871
661.3050, 313.6553
662.4660, 256.5088
663.6270, 398.3477
664.7870, 326.1719
665.9480, 491.9834
667.1080, 467.2715
668.2680, 885.5703
669.4280, 513.3447
670.5880, 602.1064
671.7480, 739.8525
672.9070, 557.5850
674.0670, 993.1826
675.2260, 892.0254
676.3850, 918.9355
677.5440, 968.3701
678.7030, 965.0273
679.8610, 1030.672
681.0200, 1097.468
682.1780, 1165.315
683.3360, 1278.620
684.4940, 1368.201
685.6520, 1497.767
686.8090, 1648.376
687.9670, 1697.479
689.1240, 1746.275
690.2810, 1711.024
691.4380, 1774.961
692.5950, 1742.461
693.7520, 1790.924
694.9080, 1634.735
696.0650, 1515.811
697.2210, 1292.231
698.3770, 1340.648
699.5330, 1195.052
700.6880, 1178.441
701.8440, 1001.816
702.9990, 913.1816
704.1550, 930.5352
705.3100, 644.8750
706.4650, 824.2041
707.6190, 752.5195
708.7740, 670.8281
709.9290, 773.1230
711.0830, 522.4072
712.2370, 542.6777
713.3910, 331.9365
714.5450, 358.1836
715.6980, 394.4189
716.8520, 258.6416
718.0050, 183.8516
719.1580, 175.0527
720.3110, 244.2412
721.4640, 296.4199
722.6170, 262.5967
723.7700, 293.9131
724.9220, 169.8887
726.0740, 234.0234
727.2260, 113.1484
728.3780, 16.73535
729.5300, 12.65234
730.6810, 34.67285
731.8330, 8.666016
732.9840, 65.26270
734.1350, 85.61426
735.2860, 174.5674
736.4370, 216.3359
737.5880, 209.8770
738.7380, 30.24316
739.8880, 71.02441
741.0390, 28.13965
742.1890, 18.16211
743.3380, 63.14551
744.4880, 90.60449
745.6380, 144.4883
746.7870, 13.23047
747.9360, 80.84766
749.0850, 78.73730
750.2340, 78.98730
751.3830, 20.70898
752.5310, 106.8682
753.6800, 3.613281
754.8280, 54.74609
755.9760, 146.3467
757.1240, 19.88184
758.2720, 96.39258
759.4190, 35.64648
760.5670, 38.32617
761.7140, 233.0605
762.8610, 229.5479
764.0080, 194.4424
765.1550, 154.9980
766.3020, 171.8740
767.4480, 172.5967
768.5950, 169.4863
769.7410, 249.1475
770.8870, 188.8076
772.0330, 248.1602
773.1780, 170.8232
774.3240, 62.48730
775.4690, 156.1523
776.6140, 217.6162
777.7590, 205.2861
778.9040, 263.9570
780.0490, 73.63086
781.1940, 181.1260
782.3380, 94.80371
783.4820, 97.48535
784.6260, 165.1699
785.7700, 68.61523
786.9140, 231.3076
788.0580, 165.5615
789.2010, 71.70215
790.3450, 55.40527
791.4880, 23.01367
792.6310, 89.82520
793.7730, 10.45605
794.9160, 27.25098
796.0590, 32.92773
797.2010, 56.78613
798.3430, 19.11621
799.4850, 150.8428
800.6270, 78.57324
801.7690, 23.31055
802.9100, 133.0547
804.0520, 57.80469
805.1930, 144.5615
806.3340, 11.32520
807.4750, 97.09570
808.6160, 294.5947
809.7560, 93.68066
810.8970, 152.5146
812.0370, 426.6572
813.1770, 36.08887
814.3170, 40.90820
815.4570, 34.73730
816.5960, 41.57520
817.7360, 52.57812
818.8750, 4.738281
820.0140, 1.888672
821.1530, 76.96973
822.2920, 28.91797
823.4310, 1.283203
824.5690, 20.39355
825.7070, 37.49707
826.8460, 42.90137
827.9840, 45.70508
829.1220, 104.1309
830.2590, 48.38965
831.3970, 154.0742
832.5340, 215.3525
833.6710, 99.32227
834.8080, 212.2666
835.9450, 233.4648
837.0820, 250.9150
838.2190, 396.1318
839.3550, 305.9121
840.4910, 449.0869
841.6270, 499.1143
842.7630, 591.7891
843.8990, 592.1582
845.0350, 621.0518
846.1700, 742.2822
847.3060, 812.4277
848.4410, 802.1797
849.5760, 1055.007
850.7100, 915.1406
851.8450, 1372.291
852.9800, 1489.457
854.1140, 1477.642
855.2480, 1912.843
856.3820, 1894.062
857.5160, 2063.297
858.6500, 2395.551
859.7830, 2733.823
860.9170, 3173.112
862.0500, 3331.421
863.1830, 3807.747
864.3160, 4102.093
865.4480, 4782.800
866.5810, 5330.792
867.7130, 5953.481
868.8460, 6724.238
869.9780, 7437.301
871.1100, 8336.159
872.2410, 9066.646
873.3730, 9973.159
874.5050, 10816.71
875.6360, 11531.05
876.7670, 11693.68
877.8980, 11898.19
879.0290, 11250.68
880.1590, 10713.38
881.2900, 9721.671
882.4200, 8985.419
883.5500, 7712.668
884.6800, 7119.466
885.8100, 6443.289
886.9400, 5142.659
888.0690, 4406.515
889.1990, 3941.439
890.3280, 3363.306
891.4570, 2991.310
892.5860, 2427.348
893.7140, 2086.344
894.8430, 1812.442
895.9710, 1415.590
897.1000, 1207.188
898.2280, 1157.409
899.3560, 972.6729
900.4830, 810.9844
901.6110, 783.3477
902.7380, 590.7607
903.8660, 465.2256
904.9930, 431.5273
906.1200, 288.2363
907.2460, 357.7803
908.3730, 289.3574
909.5000, 279.9619
910.6260, 102.5918
911.7520, 158.2500
912.8780, 40.94434
914.0040, 215.6660
915.1290, 231.4150
916.2550, 84.19043
917.3800, 143.0000
918.5050, 83.83691
919.6300, 100.7002
920.7550, 101.8223
921.8800, 104.5127
923.0040, 76.46191
924.1290, 116.4385
925.2530, 63.44336
926.3770, 57.32715
927.5010, 105.5430
928.6250, 5.637695
929.7480, 61.64551
930.8720, 100.5029
931.9950, 61.29102
933.1180, 45.52832
934.2410, 83.67480
935.3640, 45.92285
936.4860, 222.2119
937.6090, 191.5420
938.7310, 162.4707
939.8530, 162.9404
940.9750, 83.76855
942.0970, 26.25586
943.2180, 76.77344
944.3400, 0.6523440
945.4610, 104.9570
946.5820, 25.12500
947.7030, 138.8887
948.8240, 205.8115
949.9450, 228.3877
951.0650, 73.69043
952.1860, 148.0010
953.3060, 128.7129
954.4260, 107.4512
955.5460, 214.0391
956.6650, 85.32324
957.7850, 190.0547
958.9040, 201.6152
960.0230, 255.3477
961.1420, 216.2051
962.2610, 205.4121
963.3800, 286.9336
964.4990, 314.7812
965.6170, 266.3115
966.7350, 323.5449
967.8530, 192.0195
968.9710, 226.1943
970.0890, 331.8701
971.2070, 288.2100
972.3240, 347.2783
973.4410, 442.9346
974.5580, 323.6201
975.6750, 337.3379
976.7920, 511.0850
977.9090, 326.8652
979.0250, 561.6758
980.1410, 563.5186
981.2580, 524.3896
982.3740, 602.9023
983.4890, 604.4756
984.6050, 656.2031
985.7200, 611.2158
986.8360, 768.2588
987.9510, 639.3311
989.0660, 730.5664
990.1810, 827.5723
991.2950, 758.7393
992.4100, 910.9365
993.5240, 804.1631
994.6390, 829.4209
995.7530, 958.7090
996.8660, 968.0254
997.9800, 862.3721
999.0940, 1055.750
1000.207, 877.1689
1001.320, 837.6699
1002.433, 929.2354
1003.546, 973.9424
1004.659, 974.3135
1005.772, 797.4121
1006.884, 849.5127
1007.996, 809.8799
1009.108, 766.5078
1010.220, 850.9258
1011.332, 699.9609
1012.444, 782.4072
1013.555, 771.7432
1014.666, 803.7480
1015.777, 743.4775
1016.888, 711.7578
1017.999, 772.4170
1019.110, 735.9258
1020.220, 714.9717
1021.331, 679.0693
1022.441, 844.2051
1023.551, 822.3682
1024.661, 697.5654
1025.770, 871.7891
1026.880, 674.0391
1027.989, 785.3174
1029.098, 707.6230
1030.207, 820.9541
1031.316, 844.3242
1032.425, 770.7217
1033.533, 982.1445
1034.642, 721.5938
1035.750, 868.0684
1036.858, 717.5693
1037.966, 886.0938
1039.073, 905.6445
1040.181, 841.2207
1041.288, 984.8223
1042.396, 942.0381
1043.503, 936.0986
1044.610, 956.7734
1045.716, 943.4746
1046.823, 942.1982
1047.929, 906.9463
1049.036, 984.7188
1050.142, 809.5156
1051.248, 862.3350
1052.353, 897.1787
1053.459, 987.0449
1054.564, 941.9346
1055.670, 1032.847
1056.775, 992.7832
1057.880, 1066.742
1058.985, 1104.385
1060.089, 1144.640
1061.194, 1177.666
1062.298, 998.7148
1063.402, 972.7988
1064.506, 1010.794
1065.610, 1040.917
1066.713, 1062.454
1067.817, 1082.307
1068.920, 1067.987
1070.023, 1057.568
1071.126, 947.8770
1072.229, 1016.256
1073.332, 1013.539
1074.435, 1024.829
1075.537, 1103.261
1076.639, 1206.688
1077.741, 1094.418
1078.843, 873.1172
1079.945, 1067.679
1081.046, 950.3516
1082.148, 852.5234
1083.249, 1103.940
1084.350, 1218.251
1085.451, 1339.916
1086.551, 1015.258
1087.652, 973.7695
1088.752, 917.2969
1089.853, 1094.628
1090.953, 832.1348
1092.053, 710.7207
1093.152, 877.1670
1094.252, 660.7725
1095.351, 681.7578
1096.451, 840.7266
1097.550, 994.4014
1098.649, 811.0459
1099.748, 930.7441
1100.846, 828.5537
1101.945, 813.3213
1103.043, 867.2627
1104.141, 745.0068
1105.239, 692.0576
1106.337, 776.8496
1107.434, 599.7451
1108.532, 689.5596
1109.629, 732.8457
1110.726, 731.4102
1111.823, 552.6748
1112.920, 602.9062
1114.017, 561.3887
1115.113, 516.1641
1116.210, 601.8691
1117.306, 449.8564
1118.402, 530.3545
1119.498, 517.6982
1120.593, 548.0371
1121.689, 485.8906
1122.784, 452.0957
1123.879, 510.6689
1124.974, 518.0977
1126.069, 445.1943
1127.164, 477.9473
1128.259, 321.9160
1129.353, 331.5586
1130.447, 412.7002
1131.541, 344.6162
1132.635, 379.0977
1133.729, 374.4648
1134.822, 192.0859
1135.916, 318.8516
1137.009, 311.9414
1138.102, 167.7471
1139.195, 27.85645
1140.288, 397.8389
1141.380, 143.8252
1142.473, 268.8145
1143.565, 140.8066
1144.657, 20.80176
1145.749, 161.7998
1146.841, 110.7988
1147.932, 51.80176
1149.024, 175.3896
1150.115, 277.5742
1151.206, 332.8613
1152.297, 343.7705
1153.388, 177.3682
1154.479, 239.9287
1155.569, 210.7383
1156.659, 177.7793
1157.750, 272.5723
1158.839, 131.9629
1159.929, 224.7246
1161.019, 224.3340
1162.108, 266.5752
1163.198, 216.6133
1164.287, 195.0527
1165.376, 265.8398
1166.465, 285.4844
1167.553, 224.7783
1168.642, 269.7197
1169.730, 125.8789
1170.818, 147.8652
1171.906, 241.1982
1172.994, 185.1338
1174.082, 231.7539
1175.170, 239.3994
1176.257, 69.18457
1177.344, 208.0850
1178.431, 213.2861
1179.518, 81.21387
1180.605, 209.5283
1181.691, 96.37988
1182.778, 69.40625
1183.864, 107.2969
1184.950, 77.56348
1186.036, 154.4570
1187.122, 128.6465
1188.207, 93.64941
1189.292, 98.69727
1190.378, 9.739258
1191.463, 92.33008
1192.548, 50.59180
1193.632, 80.33789
1194.717, 126.2715
1195.801, 48.16016
1196.886, 101.3730
1197.970, 49.07617
1199.054, 29.14160
1200.137, 27.57617
1201.221, 82.89551
1202.305, 66.64648
1203.388, 51.53125
1204.471, 33.65039
1205.554, 20.71387
1206.637, 80.44336
1207.719, 4.751953
1208.802, 50.65332
1209.884, 31.45801
1210.966, 95.87012
1212.048, 9.658203
1213.130, 73.82422
1214.212, 7.370117
1215.293, 43.94141
1216.374, 69.55957
1217.456, 88.76074
1218.536, 66.07031
1219.617, 66.62891
1220.698, 116.3887
1221.778, 5.236328
1222.859, 18.10254
1223.939, 91.00098
1225.019, 24.90430
1226.099, 7.849609
1227.178, 99.17090
1228.258, 16.81836
1229.337, 69.15430
1230.417, 52.11523
1231.496, 57.06641
1232.574, 48.26367
1233.653, 89.92773
1234.732, 14.83984
1235.810, 1.732422
1236.888, 60.59473
1237.966, 191.4424
1239.044, 48.27832
1240.122, 153.0977
1241.199, 161.0361
1242.277, 131.7012
1243.354, 175.4844
1244.431, 77.25586
1245.508, 12.98633
1246.585, 34.73242
1247.661, 85.43457
1248.738, 141.1230
1249.814, 59.79883
1250.890, 69.42676
1251.966, 178.1016
1253.042, 239.8730
1254.117, 257.2305
1255.193, 97.27539
1256.268, 166.2656
1257.343, 143.4854
1258.418, 116.9189
1259.493, 218.1670
1260.567, 83.91992
1261.642, 183.0283
1262.716, 188.9707
1263.790, 237.5283
1264.864, 193.7393
1265.938, 178.4648
1267.011, 255.6768
1268.085, 281.6494
1269.158, 227.2188
1270.231, 278.3926
1271.304, 140.7598
1272.377, 168.7803
1273.450, 268.2529
1274.522, 218.3301
1275.594, 271.1006
1276.666, 284.7344
1277.738, 120.5928
1278.810, 265.5820
1279.882, 276.8633
1280.953, 150.8291
1282.025, 285.1758
1283.096, 178.0459
1284.167, 157.1318
1285.238, 201.1875
1286.308, 177.4209
1287.379, 260.3291
1288.449, 240.5996
1289.519, 211.5088
1290.589, 222.4551
1291.659, 120.1025
1292.729, 228.0693
1293.798, 192.1934
1294.868, 227.7676
1295.937, 279.5342
1297.006, 207.2227
1298.075, 266.3340
1299.143, 122.0430
1300.212, 147.8213
1301.280, 155.1611
1302.348, 271.3994
1303.416, 127.6299
1304.484, 148.5156
1305.552, 239.5146
1306.620, 333.1445
1307.687, 284.8486
1308.754, 425.0586
1309.821, 298.9541
1310.888, 279.6416
1311.955, 363.3145
1313.021, 316.9697
1314.088, 420.9746
1315.154, 504.5977
1316.220, 600.2041
1317.286, 298.2734
1318.352, 520.8467
1319.417, 283.6836
1320.483, 333.2275
1321.548, 468.7510
1322.613, 426.3330
1323.678, 426.2363
1324.743, 412.1025
1325.807, 313.0498
1326.872, 384.8584
1327.936, 313.1143
1329.000, 397.4805
1330.064, 288.2334
1331.128, 325.8682
1332.191, 390.3379
1333.255, 451.7441
1334.318, 453.1836
1335.381, 466.7285
1336.444, 347.5508
1337.507, 452.7480
1338.569, 389.3262
1339.632, 401.3154
1340.694, 475.9336
1341.756, 448.1943
1342.818, 327.8252
1343.880, 349.8447
1344.941, 331.1992
1346.003, 222.2988
1347.064, 327.7061
1348.125, 380.4229
1349.186, 385.5713
1350.247, 222.9346
1351.308, 287.4336
1352.368, 261.5332
1353.428, 228.3555
1354.489, 324.2236
1355.549, 186.7500
1356.608, 279.6602
1357.668, 282.3584
1358.727, 328.1738
1359.787, 281.2402
1360.846, 262.5254
1361.905, 336.4766
1362.964, 358.8428
1364.022, 299.1270
1365.081, 347.0029
1366.139, 206.1689
1367.197, 230.6250
1368.255, 327.1934
1369.313, 274.0850
1370.371, 323.6777
1371.428, 334.3105
1372.486, 167.2080
1373.543, 306.0889
1374.600, 314.6299
1375.657, 185.4531
1376.713, 316.5566
1377.770, 205.8594
1378.826, 182.0166
1379.882, 222.7812
1380.938, 196.0107
1381.994, 275.9375
1383.050, 252.7500
1384.106, 221.0605
1385.161, 228.7412
1386.216, 122.9082
1387.271, 227.5762
1388.326, 188.2422
1389.381, 220.5352
1390.435, 268.9795
1391.490, 193.3662
1392.544, 249.0703
1393.598, 101.0449
1394.652, 123.5654
1395.705, 127.5811
1396.759, 240.4785
1397.812, 199.5693
1398.866, 264.8105
1399.919, 284.0156
1400.972, 221.4102
1402.024, 223.5732
1403.077, 145.7119
1404.129, 153.8936
1405.181, 218.9316
1406.233, 189.9648
1407.285, 245.0195
1408.337, 261.9922
1409.389, 382.9307
1410.440, 124.8301
1411.491, 94.70410
1412.542, 183.5518
1413.593, 120.3750
1414.644, 96.38086
1415.695, 279.1475
1416.745, 135.8896
1417.795, 87.60547
1418.845, 130.1699
1419.895, 259.8271
1420.945, 150.4561
1421.995, 163.2861
1423.044, 210.9609
1424.093, 107.5811
1425.142, 57.11328
1426.191, 119.8057
1427.240, 233.2100
1428.289, 217.6533
1429.337, 221.0713
1430.385, 248.3145
1431.433, 335.6504
1432.481, 37.05957
1433.529, 7.793945
1434.577, 44.96973
1435.624, 85.53027
1436.672, 156.9229
1437.719, 228.2920
1438.766, 202.5889
1439.812, 63.14258
1440.859, 142.1035
1441.905, 174.3252
1442.952, 42.52051
1443.998, 188.6797
1445.044, 83.82617
1446.090, 127.9434
1447.135, 222.0977
1448.181, 110.2441
1449.226, 48.43164
1450.271, 50.65723
1451.316, 38.91504
1452.361, 28.78027
1453.405, 16.58496
1454.450, 43.03906
1455.494, 54.42188
1456.538, 64.91699
1457.582, 74.30762
1458.626, 115.8877
1459.670, 75.49414
1460.713, 145.0234
1461.757, 73.54004
1462.800, 74.05957
1463.843, 41.57910
1464.886, 27.91113
1465.928, 2.225586
1466.971, 196.0664
1468.013, 69.56738
1469.055, 183.0537
1470.097, 312.0850
1471.139, 235.1621
1472.181, 261.4971
1473.222, 132.8965
1474.263, 178.2295
1475.305, 21.34180
1476.346, 5.915039
1477.386, 99.26172
1478.427, 134.4980
1479.468, 66.91016
1480.508, 130.3232
1481.548, 212.7363
1482.588, 136.1523
1483.628, 32.57520
1484.668, 105.0049
1485.707, 204.3516
1486.747, 107.4961
1487.786, 8.538086
1488.825, 265.9990
1489.864, 235.0801
1490.902, 175.5820
1491.941, 154.1055
1492.979, 69.69922
1494.017, 147.1475
1495.055, 146.7354
1496.093, 101.3613
1497.131, 62.64648
1498.168, 57.80957
1499.206, 2.764648
1500.243, 97.93555
1501.280, 162.6836
1502.317, 182.0195
1503.354, 24.61914
1504.390, 96.42969
1505.426, 74.81250
1506.463, 43.01660
1507.499, 135.8193
1508.535, 2.639648
1509.570, 103.5869
1510.606, 111.4639
1511.641, 161.2764
1512.676, 110.7939
1513.711, 94.67871
1514.746, 173.0879
1515.781, 200.9727
1516.816, 148.4346
1517.850, 193.8115
1518.884, 52.42188
1519.918, 80.96484
1520.952, 181.6670
1521.986, 130.9678
1523.019, 184.3154
1524.053, 195.0078
1525.086, 31.47754
1526.119, 176.9287
1527.152, 187.4199
1528.185, 60.83301
1529.217, 192.9004
1530.250, 79.83496
1531.282, 58.74805
1532.314, 99.32617
1533.346, 72.50391
1534.377, 151.7578
1535.409, 131.1914
1536.440, 101.5049
1537.472, 111.8115
1538.503, 8.485352
1539.534, 114.9658
1540.564, 78.25488
1541.595, 113.0986
1542.625, 162.6328
1543.656, 89.36035
1544.686, 146.8135
1545.716, 1.046875
1546.745, 26.28906
1547.775, 33.51465
1548.804, 149.7012
1549.834, 3.356445
1550.863, 24.18555
1551.892, 115.4219
1552.920, 104.6865
1553.949, 135.1592
1554.977, 41.51660
1556.006, 62.29297
1557.034, 53.84082
1558.062, 0.5048830
1559.089, 0.0000000E+00
##END=



