##NAMES=Fluorapatite
##RRUFFID=R060333
##IDEAL CHEMISTRY=Ca_5_(PO_4_)_3_F
##LOCALITY=Lovozero Massif, Kola Peninsula, U.S.S.R.
##OWNER=RRUFF
##SOURCE=Michael Scott
##DESCRIPTION=Colorless fragment associated with red villiaumite
##STATUS=The identification of this mineral has been confirmed by X-ray diffraction and chemical analysis
##URL=rruff.info/R060333
##MEASURED CHEMISTRY=(Ca_4.29_Sr_0.47_Na_0.12_Ce_0.07_La_0.06_)_Σ=5_((P_0.99_Si_0.01_)_Σ=1_O_4_)_3_F_1.00_
##PIN_ID=L01212
##ORIENTATION=Laser parallel to a* (1 0 0). Fiducial mark perpendicular to laser is parallel to -c [0 0 -1]
164.2210, 0.0000000E+00
165.4520, 54.95752
166.6830, 31.51904
167.9140, 79.22754
169.1450, 109.2080
170.3760, 30.79297
171.6060, 6.169434
172.8360, 88.50586
174.0660, 109.3071
175.2960, 17.25928
176.5260, 92.44922
177.7550, 114.8003
178.9840, 100.0034
180.2130, 86.28076
181.4420, 125.7671
182.6710, 129.4165
183.9000, 144.2383
185.1280, 132.1382
186.3560, 151.1016
187.5840, 98.30371
188.8120, 41.71289
190.0400, 43.30127
191.2670, 94.02441
192.4950, 25.85107
193.7220, 11.23926
194.9490, 113.7314
196.1750, 170.7354
197.4020, 189.7427
198.6280, 217.7310
199.8540, 324.6816
201.0800, 354.5801
202.3060, 290.4521
203.5320, 388.3467
204.7570, 415.2944
205.9830, 452.3242
207.2080, 504.4653
208.4330, 419.9717
209.6570, 387.0098
210.8820, 326.2441
212.1060, 289.3745
213.3310, 280.2310
214.5550, 267.6797
215.7780, 260.0010
217.0020, 336.1992
218.2260, 284.7432
219.4490, 348.3188
220.6720, 234.2715
221.8950, 235.2056
223.1180, 208.1182
224.3400, 295.9014
225.5630, 235.5439
226.7850, 320.0288
228.0070, 365.3389
229.2290, 376.4810
230.4500, 391.4595
231.6720, 290.2783
232.8930, 372.9424
234.1140, 373.4556
235.3350, 309.8213
236.5560, 391.0425
237.7770, 270.1816
238.9970, 295.9585
240.2170, 201.5552
241.4370, 198.9932
242.6570, 216.7954
243.8770, 224.2036
245.0960, 243.5625
246.3160, 253.9375
247.5350, 292.0835
248.7540, 295.2095
249.9730, 328.1250
251.1910, 359.8223
252.4100, 380.2510
253.6280, 429.5967
254.8460, 384.7686
256.0640, 402.6367
257.2810, 451.6475
258.4990, 550.5000
259.7160, 512.5615
260.9330, 504.6836
262.1500, 627.5938
263.3670, 509.1826
264.5840, 528.4570
265.8000, 443.4429
267.0170, 484.5742
268.2330, 533.7935
269.4490, 408.1909
270.6640, 431.6348
271.8800, 441.3628
273.0950, 488.6465
274.3100, 419.4321
275.5260, 561.9360
276.7400, 448.9355
277.9550, 478.3345
279.1690, 492.6768
280.3840, 465.3564
281.5980, 518.2109
282.8120, 440.8535
284.0260, 449.8984
285.2390, 534.2920
286.4530, 566.7798
287.6660, 567.3418
288.8790, 529.8794
290.0920, 552.8574
291.3040, 501.0122
292.5170, 477.6768
293.7290, 451.5054
294.9410, 431.2720
296.1530, 416.9785
297.3650, 487.6240
298.5770, 532.2070
299.7880, 434.7290
301.0000, 504.1899
302.2110, 422.5889
303.4220, 398.9277
304.6320, 456.2061
305.8430, 340.4238
307.0530, 288.5820
308.2630, 322.6802
309.4730, 232.7197
310.6830, 328.3896
311.8930, 311.9419
313.1030, 151.3584
314.3120, 301.5635
315.5210, 165.7534
316.7300, 98.84717
317.9390, 195.0830
319.1470, 158.1963
320.3560, 78.28320
321.5640, 159.2441
322.7720, 118.2720
323.9800, 41.26953
325.1880, 64.20850
326.3950, 80.11475
327.6030, 119.9878
328.8100, 82.82764
330.0170, 11.63184
331.2240, 37.39844
332.4300, 32.12646
333.6370, 36.83252
334.8430, 39.70020
336.0490, 11.62842
337.2550, 29.75244
338.4610, 43.33301
339.6660, 34.17920
340.8720, 16.02490
342.0770, 76.35693
343.2820, 51.42139
344.4870, 69.39893
345.6920, 18.61768
346.8960, 2.580078
348.1010, 48.39697
349.3050, 40.68262
350.5090, 36.87207
351.7130, 8.697754
352.9160, 19.19092
354.1200, 5.632813
355.3230, 22.84570
356.5260, 33.13135
357.7290, 16.26318
358.9320, 19.22363
360.1350, 65.71484
361.3370, 102.5625
362.5390, 175.5684
363.7410, 185.3901
364.9430, 72.75586
366.1450, 175.5869
367.3470, 170.8545
368.5480, 71.05078
369.7490, 155.1221
370.9500, 217.0234
372.1510, 42.65771
373.3520, 164.5869
374.5520, 200.5195
375.7530, 117.1846
376.9530, 10.80371
378.1530, 208.7793
379.3520, 53.74561
380.5520, 131.9790
381.7510, 87.13965
382.9510, 31.88916
384.1500, 92.11426
385.3490, 44.10986
386.5480, 72.54688
387.7460, 126.3364
388.9440, 105.9614
390.1430, 48.49170
391.3410, 0.5468750
392.5390, 16.51074
393.7360, 165.0200
394.9340, 13.04736
396.1310, 107.7651
397.3280, 274.5303
398.5250, 193.3662
399.7220, 220.1050
400.9190, 147.4360
402.1150, 175.5273
403.3120, 164.8604
404.5080, 273.4258
405.7040, 306.4922
406.8990, 300.9468
408.0950, 158.9414
409.2900, 360.6968
410.4860, 468.2417
411.6810, 320.9233
412.8760, 563.3730
414.0700, 553.3018
415.2650, 601.0566
416.4590, 863.7314
417.6540, 846.0864
418.8480, 947.2378
420.0420, 1125.255
421.2350, 1223.897
422.4290, 1396.488
423.6220, 1499.520
424.8150, 1607.048
426.0080, 1710.146
427.2010, 1822.523
428.3940, 1930.869
429.5860, 2080.171
430.7790, 2011.023
431.9710, 1882.655
433.1630, 1864.838
434.3540, 1621.983
435.5460, 1555.089
436.7370, 1545.156
437.9290, 1478.188
439.1200, 1553.180
440.3110, 1532.135
441.5010, 1731.052
442.6920, 1608.930
443.8820, 1657.771
445.0730, 1780.573
446.2630, 1684.336
447.4530, 1751.062
448.6420, 1757.753
449.8320, 1701.407
451.0210, 1535.035
452.2100, 1548.624
453.3990, 1501.159
454.5880, 1267.665
455.7770, 1266.125
456.9660, 1066.162
458.1540, 1062.530
459.3420, 1035.524
460.5300, 894.1855
461.7180, 799.2051
462.9050, 693.0205
464.0930, 646.4531
465.2800, 655.1865
466.4670, 529.6963
467.6540, 683.7061
468.8410, 466.8535
470.0280, 479.0430
471.2140, 496.3477
472.4000, 367.4443
473.5870, 396.8252
474.7720, 423.4775
475.9580, 350.0342
477.1440, 300.5752
478.3290, 338.0840
479.5140, 277.0303
480.6990, 360.7842
481.8840, 209.6270
483.0690, 252.8848
484.2540, 269.3496
485.4380, 183.9697
486.6220, 193.3320
487.8060, 88.26660
488.9900, 9.586914
490.1740, 123.3594
491.3570, 127.1338
492.5410, 135.9609
493.7240, 72.02051
494.9070, 86.72070
496.0900, 181.3340
497.2720, 222.6221
498.4550, 14.33008
499.6370, 103.3145
500.8190, 115.1768
502.0010, 5.450195
503.1830, 29.97852
504.3650, 6.852539
505.5460, 87.69043
506.7280, 216.5098
507.9090, 7.843750
509.0900, 71.21777
510.2710, 84.30664
511.4510, 101.4609
512.6320, 129.8105
513.8120, 181.3730
514.9920, 97.96289
516.1720, 85.19531
517.3520, 137.5215
518.5310, 136.4551
519.7110, 45.33984
520.8900, 40.56445
522.0690, 3.937500
523.2480, 5.720703
524.4270, 48.50586
525.6050, 157.4707
526.7840, 17.08691
527.9620, 80.89453
529.1400, 63.63477
530.3180, 29.71289
531.4960, 29.70117
532.6730, 139.0020
533.8510, 71.87012
535.0280, 16.38965
536.2050, 70.83203
537.3820, 88.05371
538.5590, 89.60938
539.7350, 46.54199
540.9120, 50.21191
542.0880, 131.9727
543.2640, 170.2012
544.4400, 91.96484
545.6150, 260.0566
546.7910, 126.7480
547.9660, 256.4756
549.1410, 115.6182
550.3170, 161.4385
551.4910, 200.7471
552.6660, 156.4297
553.8410, 201.0996
555.0150, 75.15430
556.1890, 105.6982
557.3630, 112.3008
558.5370, 176.6318
559.7110, 212.4980
560.8840, 232.5039
562.0570, 314.5713
563.2310, 333.6299
564.4040, 369.9307
565.5760, 290.8242
566.7490, 269.3203
567.9220, 382.5547
569.0940, 399.1504
570.2660, 644.5947
571.4380, 608.3760
572.6100, 727.7871
573.7820, 909.6699
574.9530, 972.3887
576.1240, 1222.097
577.2960, 1624.586
578.4670, 1878.749
579.6370, 2062.048
580.8080, 1917.109
581.9790, 1926.403
583.1490, 2055.844
584.3190, 1848.385
585.4890, 2068.588
586.6590, 2193.392
587.8280, 2560.069
588.9980, 2832.824
590.1670, 2835.255
591.3360, 2625.604
592.5050, 2385.772
593.6740, 2211.176
594.8430, 1792.521
596.0110, 1692.008
597.1790, 1306.958
598.3480, 1423.201
599.5160, 1254.928
600.6830, 1334.544
601.8510, 1543.333
603.0180, 1906.886
604.1860, 2072.340
605.3530, 2271.134
606.5200, 2110.961
607.6870, 1712.479
608.8530, 1709.931
610.0200, 1321.068
611.1860, 1080.934
612.3520, 1055.082
613.5180, 980.2627
614.6840, 896.0508
615.8500, 806.6260
617.0150, 742.6777
618.1800, 644.1426
619.3450, 515.4209
620.5100, 469.8682
621.6750, 406.5752
622.8400, 343.1123
624.0040, 306.9941
625.1690, 312.5781
626.3330, 255.3994
627.4970, 167.7266
628.6610, 184.0430
629.8240, 128.3652
630.9880, 118.1729
632.1510, 231.4121
633.3140, 227.7969
634.4770, 176.0850
635.6400, 234.7500
636.8020, 221.4678
637.9650, 117.9482
639.1270, 224.1514
640.2890, 191.5488
641.4510, 215.7402
642.6130, 331.8477
643.7750, 232.1318
644.9360, 342.1855
646.0980, 341.6475
647.2590, 278.2607
648.4200, 232.8604
649.5810, 443.6953
650.7410, 252.1318
651.9020, 521.7080
653.0620, 542.2656
654.2220, 473.9189
655.3820, 405.3721
656.5420, 472.3037
657.7020, 412.8340
658.8610, 450.9609
660.0200, 328.0811
661.1800, 492.0908
662.3390, 488.3047
663.4970, 239.9717
664.6560, 345.4717
665.8150, 384.0859
666.9730, 356.1318
668.1310, 227.1768
669.2890, 352.3701
670.4470, 213.9922
671.6050, 424.0381
672.7620, 184.9277
673.9200, 201.7090
675.0770, 293.3633
676.2340, 238.8145
677.3910, 80.76562
678.5470, 178.4980
679.7040, 145.9766
680.8600, 142.3828
682.0160, 187.8125
683.1720, 76.70605
684.3280, 213.8018
685.4840, 166.7637
686.6390, 179.1797
687.7950, 62.00586
688.9500, 223.7529
690.1050, 36.59570
691.2600, 174.5361
692.4150, 145.4043
693.5690, 62.55469
694.7240, 171.9541
695.8780, 145.1172
697.0320, 197.0557
698.1860, 205.9268
699.3400, 103.5039
700.4930, 7.474609
701.6470, 216.9922
702.8000, 147.3525
703.9530, 233.7373
705.1060, 77.88672
706.2590, 128.9180
707.4110, 35.79688
708.5640, 123.5459
709.7160, 204.2373
710.8680, 43.29102
712.0200, 158.3936
713.1720, 186.8691
714.3230, 177.7012
715.4750, 218.4160
716.6260, 46.07715
717.7770, 240.6816
718.9280, 47.23438
720.0790, 218.7568
721.2300, 172.2256
722.3800, 136.6416
723.5300, 206.3584
724.6810, 290.4053
725.8300, 71.22461
726.9800, 40.47168
728.1300, 107.3906
729.2790, 24.51270
730.4290, 147.0654
731.5780, 79.03223
732.7270, 80.94238
733.8760, 35.98438
735.0240, 151.9316
736.1730, 71.19824
737.3210, 183.2383
738.4700, 197.8721
739.6180, 145.4521
740.7650, 2.021484
741.9130, 0.3847660
743.0610, 39.98047
744.2080, 90.34180
745.3550, 152.6074
746.5020, 157.8193
747.6490, 221.0791
748.7960, 36.08691
749.9430, 196.2627
751.0890, 177.2607
752.2350, 24.83789
753.3810, 62.20605
754.5270, 172.0391
755.6730, 127.8174
756.8190, 208.5459
757.9640, 1.821289
759.1090, 219.6230
760.2540, 38.60742
761.3990, 136.7598
762.5440, 91.19531
763.6890, 58.56348
764.8330, 2.491211
765.9780, 32.70508
767.1220, 107.9346
768.2660, 166.8975
769.4100, 66.65332
770.5530, 274.9863
771.6970, 206.2158
772.8400, 161.9854
773.9830, 19.89453
775.1260, 86.06445
776.2690, 111.2461
777.4120, 203.5430
778.5540, 32.11230
779.6970, 260.4287
780.8390, 109.7305
781.9810, 103.5625
783.1230, 129.0566
784.2650, 210.6133
785.4060, 11.92188
786.5480, 236.2148
787.6890, 85.66602
788.8300, 1.187500
789.9710, 13.28320
791.1120, 107.5098
792.2520, 62.22070
793.3930, 162.4668
794.5330, 12.56836
795.6730, 70.67578
796.8130, 276.8516
797.9530, 47.67773
799.0930, 146.3691
800.2320, 42.01562
801.3710, 147.3496
802.5110, 221.8906
803.6500, 6.611328
804.7880, 258.8223
805.9270, 113.8984
807.0660, 46.74414
808.2040, 160.1621
809.3420, 69.39453
810.4800, 34.09766
811.6180, 205.8164
812.7560, 77.88086
813.8930, 237.6699
815.0310, 48.20117
816.1680, 250.2305
817.3050, 15.51367
818.4420, 11.35352
819.5790, 23.92383
820.7150, 96.67969
821.8520, 283.9590
822.9880, 37.99805
824.1240, 287.0352
825.2600, 150.5371
826.3960, 161.6699
827.5320, 162.9727
828.6670, 122.8027
829.8020, 86.46289
830.9380, 125.7285
832.0730, 199.4062
833.2080, 245.9258
834.3420, 74.61914
835.4770, 167.3066
836.6110, 79.51758
837.7450, 251.1895
838.8790, 275.7812
840.0130, 256.0371
841.1470, 302.4297
842.2810, 272.4883
843.4140, 238.5391
844.5470, 202.8555
845.6800, 105.7988
846.8130, 22.02734
847.9460, 218.5332
849.0790, 115.4746
850.2110, 255.4883
851.3440, 490.4238
852.4760, 357.4883
853.6080, 273.7930
854.7400, 276.8672
855.8710, 310.2012
857.0030, 320.1035
858.1340, 280.7715
859.2650, 187.5938
860.3960, 95.32227
861.5270, 137.3535
862.6580, 259.4238
863.7890, 84.32422
864.9190, 365.4609
866.0490, 131.5898
867.1790, 388.8086
868.3090, 432.7051
869.4390, 217.5723
870.5690, 225.2070
871.6980, 135.2910
872.8270, 174.9961
873.9570, 352.1250
875.0860, 292.2812
876.2140, 384.1797
877.3430, 215.2285
878.4720, 295.2891
879.6000, 457.9297
880.7280, 598.4531
881.8560, 319.2012
882.9840, 368.9355
884.1120, 373.8984
885.2390, 218.0527
886.3670, 299.8438
887.4940, 95.51953
888.6210, 130.5059
889.7480, 339.6250
890.8750, 271.1680
892.0020, 281.5918
893.1280, 98.11914
894.2540, 196.7324
895.3810, 8.332031
896.5070, 26.45898
897.6320, 86.37109
898.7580, 29.50391
899.8840, 242.0410
901.0090, 17.93555
902.1340, 91.56250
903.2590, 99.34766
904.3840, 81.65039
905.5090, 75.82422
906.6340, 130.8633
907.7580, 141.0215
908.8820, 152.6973
910.0060, 21.36133
911.1300, 180.9062
912.2540, 10.28320
913.3780, 139.0078
914.5010, 60.07227
915.6250, 46.77930
916.7480, 77.96680
917.8710, 335.1172
918.9940, 185.3418
920.1160, 239.8828
921.2390, 154.2754
922.3610, 174.8652
923.4840, 102.7969
924.6060, 125.5879
925.7280, 73.56250
926.8490, 48.31055
927.9710, 145.9590
929.0930, 323.0000
930.2140, 248.5898
931.3350, 14.50195
932.4560, 169.9414
933.5770, 267.3770
934.6980, 382.2207
935.8180, 533.5645
936.9380, 278.3672
938.0590, 464.4590
939.1790, 562.2246
940.2990, 892.4258
941.4180, 850.9980
942.5380, 905.1836
943.6570, 1308.924
944.7770, 1546.266
945.8960, 1778.373
947.0150, 2372.246
948.1340, 2828.562
949.2520, 3406.527
950.3710, 4418.508
951.4890, 5396.492
952.6070, 7220.490
953.7260, 8960.734
954.8430, 11876.61
955.9610, 15538.89
957.0790, 19905.93
958.1960, 25129.89
959.3130, 30373.91
960.4310, 34859.34
961.5480, 37039.82
962.6640, 36831.27
963.7810, 35221.55
964.8970, 31303.66
966.0140, 26729.92
967.1300, 22524.48
968.2460, 18236.22
969.3620, 14769.72
970.4780, 11899.10
971.5930, 9380.096
972.7090, 7074.805
973.8240, 5453.602
974.9390, 4099.328
976.0540, 2948.279
977.1690, 2466.100
978.2830, 1738.840
979.3980, 1335.436
980.5120, 1113.494
981.6260, 560.2539
982.7400, 538.7617
983.8540, 343.8281
984.9680, 425.5996
986.0820, 374.4609
987.1950, 396.1406
988.3080, 432.8359
989.4210, 102.4824
990.5340, 143.1328
991.6470, 332.7344
992.7600, 23.67383
993.8720, 287.5430
994.9850, 288.3613
996.0970, 220.3477
997.2090, 254.8809
998.3210, 167.6309
999.4320, 331.1367
1000.544, 363.2324
1001.655, 440.7871
1002.767, 292.3633
1003.878, 333.6660
1004.989, 333.9941
1006.100, 267.9473
1007.210, 319.5957
1008.321, 191.4941
1009.431, 386.9355
1010.541, 337.3652
1011.651, 421.6191
1012.761, 348.9082
1013.871, 203.3340
1014.980, 331.7520
1016.090, 207.1602
1017.199, 322.5605
1018.308, 575.2402
1019.417, 640.6113
1020.526, 378.1094
1021.635, 340.0684
1022.743, 580.1270
1023.852, 361.5312
1024.960, 568.9316
1026.068, 652.3242
1027.176, 582.1055
1028.283, 1011.301
1029.391, 761.5234
1030.498, 1016.021
1031.606, 1314.449
1032.713, 1212.984
1033.820, 1154.393
1034.927, 1155.439
1036.033, 1342.270
1037.140, 1147.166
1038.246, 1103.078
1039.353, 1443.906
1040.459, 1440.920
1041.564, 1472.607
1042.670, 1372.729
1043.776, 1485.480
1044.881, 1462.820
1045.987, 1695.354
1047.092, 1799.426
1048.197, 1772.611
1049.302, 1986.303
1050.406, 1906.158
1051.511, 1987.582
1052.615, 1939.857
1053.720, 2131.240
1054.824, 1897.391
1055.928, 1887.629
1057.031, 1839.570
1058.135, 1517.676
1059.238, 1461.396
1060.342, 1585.143
1061.445, 1219.305
1062.548, 1098.691
1063.651, 1013.090
1064.754, 760.7734
1065.856, 788.1074
1066.959, 813.5273
1068.061, 752.9453
1069.163, 919.3613
1070.265, 762.7773
1071.367, 795.1914
1072.469, 937.6152
1073.570, 1117.039
1074.671, 1037.639
1075.773, 1500.977
1076.874, 1472.455
1077.975, 1464.963
1079.075, 1429.404
1080.176, 1267.844
1081.276, 1192.283
1082.377, 1204.723
1083.477, 983.1816
1084.577, 906.6387
1085.677, 903.1074
1086.777, 670.5840
1087.876, 705.0645
1088.975, 502.5469
1090.075, 463.0273
1091.174, 346.5059
1092.273, 609.9883
1093.372, 323.4668
1094.470, 482.0293
1095.569, 260.5098
1096.667, 56.99023
1097.765, 150.4727
1098.863, 269.9570
1099.961, 126.4395
1101.059, 13.08008
1102.157, 268.3984
1103.254, 46.87695
1104.351, 197.3574
1105.449, 199.8359
1106.546, 58.51172
1107.642, 13.98828
1108.739, 36.46289
1109.836, 17.93359
1110.932, 18.74219
1112.028, 111.8730
1113.124, 16.34375
1114.220, 154.8145
1115.316, 137.4727
1116.412, 15.94531
1117.507, 6.416016
1118.603, 113.8828
1119.698, 89.80273
1120.793, 195.2656
1121.888, 68.62109
1122.983, 112.1582
1124.077, 209.6152
1125.172, 328.7305
1126.266, 215.1914
1127.360, 250.6523
1128.454, 34.11523
1129.548, 54.62500
1130.642, 90.27734
1131.735, 9.740234
1132.829, 35.44922
1133.922, 28.91211
1135.015, 88.37500
1136.108, 74.86133
1137.201, 49.34766
1138.294, 87.46680
1139.386, 166.3242
1140.478, 114.8125
1141.571, 59.29883
1142.663, 57.38672
1143.755, 19.56055
1144.846, 82.12695
1145.938, 53.60156
1147.030, 81.07617
1148.121, 46.96289
1149.212, 3.564453
1150.303, 20.08789
1151.394, 16.44727
1152.485, 6.789063
1153.575, 17.19531
1154.666, 61.13672
1155.756, 90.51172
1156.846, 147.0703
1157.936, 214.7090
1159.026, 223.2422
1160.116, 44.70508
1161.205, 230.1738
1162.295, 53.35742
1163.384, 144.5664
1164.473, 92.03906
1165.562, 16.51172
1166.651, 146.9922
1167.739, 83.91992
1168.828, 70.27148
1169.916, 63.77930
1171.005, 30.16602
1172.093, 21.28906
1173.181, 122.2383
1174.268, 252.0410
1175.356, 109.4199
1176.443, 151.1406
1177.531, 170.6191
1178.618, 5.904297
1179.705, 194.5859
1180.792, 59.92383
1181.879, 64.53125
1182.965, 229.9844
1184.052, 215.4355
1185.138, 262.3477
1186.224, 163.3340
1187.310, 238.7832
1188.396, 59.22852
1189.482, 73.67383
1190.567, 195.1406
1191.653, 91.60938
1192.738, 357.0742
1193.823, 285.6484
1194.908, 83.00195
1195.993, 292.4648
1197.077, 246.9258
1198.162, 286.3906
1199.246, 382.7461
1200.331, 327.0156
1201.415, 327.1230
1202.499, 226.2305
1203.582, 218.6816
1204.666, 32.13281
1205.750, 54.41797
1206.833, 65.99023
1207.916, 59.39648
1208.999, 120.8008
1210.082, 102.2012
1211.165, 82.59961
1212.248, 323.9941
1213.330, 468.3867
1214.412, 288.7754
1215.495, 208.1641
1216.577, 235.5488
1217.658, 338.9297
1218.740, 229.3125
1219.822, 188.6875
1220.903, 265.0586
1221.985, 183.4297
1223.066, 216.8008
1224.147, 58.16016
1225.228, 336.5234
1226.308, 299.8828
1227.389, 158.2383
1228.469, 267.5898
1229.550, 192.9375
1230.630, 215.2812
1231.710, 118.1367
1232.790, 280.4766
1233.869, 280.8125
1234.949, 116.1406
1236.028, 71.52734
1237.108, 313.7539
1238.187, 101.8867
1239.266, 220.1133
1240.344, 271.2617
1241.423, 89.40625
1242.502, 158.6758
1243.580, 215.8086
1244.658, 36.07031
1245.736, 210.3281
1246.814, 224.4531
1247.892, 411.5391
1248.970, 90.20703
1250.047, 127.9844
1251.125, 196.1719
1252.202, 64.38672
1253.279, 239.5977
1254.356, 294.8047
1255.433, 243.0117
1256.509, 395.2227
1257.586, 146.4258
1258.662, 26.58203
1259.738, 196.7773
1260.814, 261.9727
1261.890, 37.98438
1262.966, 257.1211
1264.042, 277.2031
1265.117, 385.5508
1266.193, 322.6992
1267.268, 406.8438
1268.343, 200.9883
1269.418, 247.1289
1270.492, 111.2617
1271.567, 254.3945
1272.642, 50.52344
1273.716, 38.77734
1274.790, 203.8984
1275.864, 136.0156
1276.938, 15.12500
1278.012, 100.2344
1279.085, 73.04297
1280.159, 187.0547
1281.232, 91.95703
1282.305, 240.9062
1283.378, 67.18359
1284.451, 108.8281
1285.524, 68.83984
1286.597, 48.84766
1287.669, 74.84375
1288.741, 179.8398
1289.813, 161.7812
1290.885, 182.7773
1291.957, 86.29297
1293.029, 268.6406
1294.101, 358.5664
1295.172, 175.3008
1296.243, 104.7734
1297.315, 6.191406
1298.386, 153.0391
1299.456, 2.851563
1300.527, 120.5117
1301.598, 145.7305
1302.668, 22.55469
1303.738, 267.3750
1304.809, 61.09375
1305.879, 101.9023
1306.948, 383.7148
1308.018, 271.7070
1309.088, 235.5117
1310.157, 276.6523
1311.226, 355.4219
1312.296, 209.2188
1313.365, 272.0117
1314.433, 430.7969
1315.502, 286.5820
1316.571, 384.3594
1317.639, 308.0820
1318.707, 405.8555
1319.776, 188.7266
1320.844, 299.4961
1321.911, 547.2617
1322.979, 297.0273
1324.047, 390.7852
1325.114, 479.5469
1326.181, 258.7734
1327.249, 171.5273
1328.316, 321.2773
1329.382, 154.0234
1330.449, 366.7656
1331.516, 291.5117
1332.582, 216.2539
1333.648, 366.8125
1334.715, 563.6484
1335.781, 240.3398
1336.846, 215.0000
1337.912, 162.7344
1338.978, 524.4570
1340.043, 383.1797
1341.108, 171.0586
1342.174, 379.7773
1343.239, 284.4961
1344.303, 175.2148
1345.368, 273.9258
1346.433, 465.6328
1347.497, 458.3477
1348.561, 430.7383
1349.626, 216.7617
1350.690, 281.6133
1351.753, 341.3125
1352.817, 379.9336
1353.881, 276.5977
1354.944, 340.2578
1356.007, 321.9141
1357.071, 383.5703
1358.134, 295.2266
1359.196, 480.8789
1360.259, 432.5312
1361.322, 357.1875
1362.384, 241.8398
1363.447, 179.4844
1364.509, 394.9336
1365.571, 137.5859
1366.633, 289.2344
1367.694, 362.8789
1368.756, 270.5273
1369.817, 513.4609
1370.879, 323.1055
1371.940, 104.0000
1373.001, 409.4609
1374.062, 96.10938
1375.122, 330.7578
1376.183, 338.4375
1377.244, 414.6328
1378.304, 293.2812
1379.364, 322.9336
1380.424, 564.5117
1381.484, 210.1641
1382.544, 130.8164
1383.603, 235.4766
1384.663, 448.1172
1385.722, 416.7617
1386.781, 410.1719
1387.840, 315.8164
1388.899, 242.4688
1389.958, 389.8672
1391.017, 94.51953
1392.075, 97.82422
1393.134, 296.8008
1394.192, 355.4375
1395.250, 419.0703
1396.308, 111.7070
1397.365, 307.3438
1398.423, 147.9844
1399.481, 522.6328
1400.538, 290.1172
1401.595, 389.5664
1402.652, 331.2305
1403.709, 421.8984
1404.766, 204.1602
1405.823, 116.8398
1406.879, 153.6602
1407.936, 171.3438
1408.992, 110.1055
1410.048, 143.1445
1411.104, 68.85547
1412.160, 147.5508
1413.215, 187.1641
1414.271, 214.4453
1415.326, 219.3594
1416.382, 263.0898
1417.437, 189.8281
1418.492, 283.5703
1419.546, 280.8984
1420.601, 531.6836
1421.656, 222.4766
1422.710, 200.8164
1423.764, 27.88672
1424.819, 326.8750
1425.873, 78.46484
1426.926, 216.1875
1427.980, 485.7734
1429.034, 320.3594
1430.087, 214.6680
1431.140, 299.2227
1432.194, 466.6758
1433.247, 65.49609
1434.299, 349.4219
1435.352, 414.9336
1436.405, 6.558594
1437.457, 267.8398
1438.510, 124.1484
1439.562, 321.4180
1440.614, 97.16016
1441.666, 508.8984
1442.717, 282.6367
1443.769, 336.3750
1444.821, 531.1055
1445.872, 33.83594
1446.923, 166.5547
1447.974, 228.2656
1449.025, 313.9805
1450.076, 258.6914
1451.127, 310.4414
1452.177, 29.81250
1453.227, 304.9375
1454.278, 134.6797
1455.328, 151.4219
1456.378, 346.1641
1457.428, 451.9023
1458.477, 380.6484
1459.527, 481.9375
1460.576, 331.1211
1461.625, 386.8594
1462.675, 425.6055
1463.724, 153.3438
1464.772, 154.0781
1465.821, 251.8750
1466.870, 24.67578
1467.918, 223.4727
1468.966, 343.2695
1470.015, 444.0664
1471.063, 427.8594
1472.110, 539.2930
1473.158, 301.5898
1474.206, 487.4570
1475.253, 447.3320
1476.301, 31.20703
1477.348, 309.0898
1478.395, 146.0156
1479.442, 379.8672
1480.488, 81.68750
1481.535, 421.5117
1482.582, 257.3398
1483.628, 149.1719
1484.674, 226.0039
1485.720, 155.8438
1486.766, 243.6328
1487.812, 401.4961
1488.858, 150.4219
1489.903, 248.3516
1490.949, 383.2812
1491.994, 124.2188
1493.039, 201.2500
1494.084, 224.2812
1495.129, 0.2500000
1496.173, 412.4297
1497.218, 10.62891
1498.262, 132.8555
1499.307, 257.0938
1500.351, 207.3398
1501.395, 20.12891
1502.439, 282.1406
1503.483, 292.4375
1504.526, 523.7500
1505.570, 239.8711
1506.613, 171.2148
1507.656, 475.5742
1508.699, 70.67188
1509.742, 381.0117
1510.785, 237.3633
1511.827, 269.7422
1512.870, 471.1367
1513.912, 308.5469
1514.955, 233.9805
1515.997, 271.0312
1517.039, 400.5000
1518.080, 210.0000
1519.122, 251.5156
1520.164, 195.0586
1521.205, 190.1992
1522.246, 289.8984
1523.288, 402.7422
1524.329, 427.9062
1525.369, 445.3242
1526.410, 526.5664
1527.451, 334.6055
1528.491, 337.6992
1529.531, 144.8477
1530.572, 108.9961
1531.612, 57.70703
1532.652, 159.5352
1533.691, 388.6953
1534.731, 32.06641
1535.770, 193.2227
1536.810, 176.5391
1537.849, 160.0820
1538.888, 397.7031
1539.927, 255.4102
1540.966, 120.2227
1542.005, 174.1328
1543.043, 305.1602
1544.082, 510.3086
1545.120, 256.5625
1546.158, 373.9219
1547.196, 40.39844
1548.234, 307.6094
1549.272, 278.4102
1550.309, 280.6523
1551.347, 484.4766
1552.384, 357.7383
1553.421, 426.8633
1554.458, 327.5195
1555.495, 386.4805
1556.532, 108.0781
1557.568, 29.13281
1558.605, 17.04688
1559.641, 156.5117
1560.678, 114.4492
1561.714, 211.1289
1562.750, 0.9023440
1563.785, 0.0000000E+00
##END=



