##NAMES=Fluorapophyllite-(K)
##RRUFFID=R060554
##IDEAL CHEMISTRY=KCa_4_Si_8_O_20_F&#183;8H_2_O
##LOCALITY=unknown
##OWNER=RRUFF
##SOURCE=Gemological Institute of America
##DESCRIPTION=Colorless polished fragment
##STATUS=The identification of this mineral has been confirmed by X-ray diffraction and chemical analysis
##URL=rruff.info/R060554
##MEASURED CHEMISTRY=(K_0.88_Na_0.12_)Ca_4.00_Si_8.00_O_20_F_1.00_·8H2O
##PIN_ID=L01258
##ORIENTATION=Laser parallel to c* (0 0 1). Fiducial mark perpendicular to laser is parallel to a [1 0 0]
53.91000, 0.0000000E+00
55.14900, 97.38791
56.38700, 162.5653
57.62600, 261.6336
58.86400, 351.5425
60.10300, 450.3909
61.34100, 356.4946
62.57900, 231.5897
63.81700, 12.95233
65.05400, 65.13190
66.29200, 112.4918
67.52900, 131.9353
68.76700, 26.18530
70.00400, 111.1129
71.24100, 259.3787
72.47700, 608.0894
73.71400, 1306.762
74.95100, 2125.925
76.18700, 3264.139
77.42300, 4609.010
78.65900, 6415.211
79.89500, 8742.489
81.13100, 11200.63
82.36700, 13948.44
83.60200, 17005.71
84.83700, 19612.27
86.07200, 21652.93
87.30800, 22904.54
88.54200, 23732.94
89.77700, 23726.99
91.01200, 23004.57
92.24600, 21883.47
93.48000, 19991.51
94.71400, 18345.50
95.94800, 17215.32
97.18200, 16469.84
98.41600, 15842.98
99.64900, 15634.65
100.8830, 16546.82
102.1160, 18522.56
103.3490, 21744.94
104.5820, 25707.00
105.8150, 28476.72
107.0470, 30236.00
108.2800, 29948.79
109.5120, 26592.01
110.7440, 21673.59
111.9760, 17614.47
113.2080, 14692.58
114.4400, 12761.90
115.6710, 11706.35
116.9030, 11375.91
118.1340, 11560.52
119.3650, 11910.16
120.5960, 12988.78
121.8270, 14024.35
123.0580, 14860.84
124.2880, 15276.22
125.5190, 15255.46
126.7490, 15177.53
127.9790, 14710.23
129.2090, 15099.03
130.4390, 15199.90
131.6680, 15600.80
132.8980, 15222.75
134.1270, 13959.78
135.3560, 12236.09
136.5850, 9962.691
137.8140, 7723.587
139.0430, 5991.805
140.2710, 4791.371
141.5000, 3975.305
142.7280, 3344.625
143.9560, 3149.345
145.1840, 3169.475
146.4120, 3304.400
147.6390, 3819.899
148.8670, 4573.272
150.0940, 5554.642
151.3210, 6732.827
152.5490, 7735.520
153.7750, 9017.452
155.0020, 10759.34
156.2290, 12777.93
157.4550, 14947.97
158.6810, 17246.27
159.9080, 19555.79
161.1340, 20939.56
162.3590, 21676.56
163.5850, 20535.79
164.8110, 18102.27
166.0360, 14892.99
167.2610, 11870.94
168.4860, 9194.136
169.7110, 7560.574
170.9360, 6342.252
172.1610, 5726.175
173.3850, 5754.337
174.6100, 6200.743
175.8340, 6943.390
177.0580, 7958.274
178.2820, 9636.397
179.5050, 11470.76
180.7290, 13973.35
181.9520, 16727.17
183.1760, 19438.22
184.3990, 21586.50
185.6220, 22797.00
186.8450, 22699.73
188.0670, 21231.67
189.2900, 19142.83
190.5120, 17186.20
191.7340, 15820.79
192.9560, 15110.59
194.1780, 15057.60
195.4000, 15791.81
196.6220, 17242.22
197.8430, 18936.84
199.0640, 21559.66
200.2860, 24212.66
201.5070, 27384.30
202.7270, 30930.59
203.9480, 34914.52
205.1690, 39599.13
206.3890, 44027.45
207.6090, 47827.14
208.8290, 50184.00
210.0490, 50718.10
211.2690, 49461.63
212.4890, 46196.84
213.7080, 42087.96
214.9280, 38268.48
216.1470, 34477.20
217.3660, 31419.83
218.5850, 28870.16
219.8030, 27308.16
221.0220, 25921.79
222.2400, 25068.04
223.4590, 24531.86
224.6770, 24325.26
225.8950, 24044.19
227.1120, 23514.64
228.3300, 22563.61
229.5480, 21015.06
230.7650, 19116.97
231.9820, 17075.35
233.1990, 14875.16
234.4160, 12561.40
235.6330, 10379.05
236.8490, 8618.915
238.0660, 7017.024
239.2820, 5726.502
240.4980, 4708.163
241.7140, 3673.666
242.9300, 3154.812
244.1460, 2634.164
245.3610, 2248.675
246.5770, 1861.234
247.7920, 1632.601
249.0070, 1451.414
250.2220, 1373.430
251.4370, 1316.912
252.6510, 1354.105
253.8660, 1415.247
255.0800, 1615.742
256.2940, 1901.569
257.5080, 2250.382
258.7220, 2576.003
259.9360, 2933.389
261.1490, 3369.742
262.3630, 3703.847
263.5760, 4164.157
264.7890, 4607.667
266.0020, 4834.371
267.2150, 5093.266
268.4270, 4933.347
269.6400, 4694.610
270.8520, 4180.051
272.0640, 3575.664
273.2760, 3079.449
274.4880, 2808.400
275.7000, 2498.518
276.9120, 2426.803
278.1230, 2373.255
279.3340, 2607.873
280.5450, 2831.658
281.7560, 3288.667
282.9670, 3859.723
284.1780, 4590.000
285.3880, 5455.439
286.5980, 6445.036
287.8090, 7683.793
289.0190, 9059.705
290.2290, 10518.77
291.4380, 11915.99
292.6480, 13547.36
293.8570, 15060.88
295.0670, 16072.52
296.2760, 16600.56
297.4850, 16790.19
298.6930, 16432.19
299.9020, 15539.30
301.1110, 14240.51
302.3190, 12331.82
303.5270, 10862.23
304.7350, 9224.728
305.9430, 7863.327
307.1510, 6660.020
308.3580, 5682.807
309.5660, 4991.687
310.7730, 4354.658
311.9800, 3925.721
313.1870, 3556.876
314.3940, 3337.122
315.6010, 3163.661
316.8070, 3062.879
318.0130, 3085.390
319.2200, 3112.987
320.4260, 3229.672
321.6310, 3486.441
322.8370, 3781.296
324.0430, 4062.937
325.2480, 4398.256
326.4540, 4810.361
327.6590, 5251.547
328.8640, 5753.812
330.0680, 6089.159
331.2730, 6527.582
332.4780, 7128.085
333.6820, 7508.663
334.8860, 7607.317
336.0900, 7901.044
337.2940, 7804.848
338.4980, 7407.722
339.7010, 6901.670
340.9050, 6384.688
342.1080, 5508.774
343.3110, 4621.931
344.5140, 3776.155
345.7170, 3101.446
346.9200, 2405.892
348.1220, 1798.492
349.3240, 1249.250
350.5270, 993.1650
351.7290, 516.2397
352.9310, 336.4761
354.1320, 102.9526
355.3340, 134.5059
356.5350, 46.34863
357.7370, 141.4810
358.9380, 121.5107
360.1390, 57.43994
361.3400, 137.7310
362.5400, 255.0303
363.7410, 609.4541
364.9410, 897.0000
366.1410, 1126.663
367.3410, 1611.442
368.5410, 1913.333
369.7410, 2436.335
370.9400, 2630.444
372.1400, 2879.658
373.3390, 2822.974
374.5380, 2451.388
375.7370, 2079.900
376.9360, 1454.509
378.1350, 835.2100
379.3330, 399.0024
380.5310, 167.1162
381.7300, 533.2495
382.9280, 753.5693
384.1260, 882.1875
385.3230, 920.1709
386.5210, 1057.543
387.7180, 1068.374
388.9160, 1027.672
390.1130, 968.4219
391.3100, 885.5962
392.5060, 754.1592
393.7030, 730.0474
394.9000, 628.2524
396.0960, 479.7266
397.2920, 435.3994
398.4880, 380.2520
399.6840, 196.2588
400.8800, 208.3384
402.0750, 51.49805
403.2710, 40.33252
404.4660, 133.1895
405.6610, 208.1040
406.8560, 351.0781
408.0510, 459.1108
409.2450, 614.2012
410.4400, 759.3491
411.6340, 841.5537
412.8280, 1230.813
414.0220, 1418.128
415.2160, 1738.496
416.4100, 2183.918
417.6030, 2879.393
418.7970, 3662.919
419.9900, 4995.498
421.1830, 6659.125
422.3760, 8687.804
423.5690, 10939.53
424.7610, 13558.31
425.9540, 16363.13
427.1460, 20064.00
428.3380, 24163.92
429.5300, 28174.89
430.7220, 30723.90
431.9140, 31130.97
433.1050, 29364.09
434.2970, 26056.27
435.4880, 21632.53
436.6790, 17091.85
437.8700, 13094.24
439.0610, 9878.702
440.2510, 7514.242
441.4420, 5768.854
442.6320, 4554.562
443.8220, 3427.357
445.0120, 2684.253
446.2020, 2183.254
447.3910, 1858.359
448.5810, 1565.585
449.7700, 1398.940
450.9600, 1148.406
452.1490, 1159.971
453.3370, 1140.650
454.5260, 1228.431
455.7150, 1455.342
456.9030, 1673.357
458.0910, 1823.491
459.2800, 2026.714
460.4670, 2194.062
461.6550, 2404.518
462.8430, 2347.067
464.0300, 2295.716
465.2180, 2156.450
466.4050, 2092.298
467.5920, 1712.216
468.7790, 1268.229
469.9650, 1009.295
471.1520, 794.4058
472.3380, 683.5669
473.5250, 418.7612
474.7110, 628.9829
475.8970, 428.2319
477.0820, 697.5078
478.2680, 838.8101
479.4540, 934.1377
480.6390, 1193.492
481.8240, 1385.871
483.0090, 1569.274
484.1940, 1501.702
485.3780, 1552.154
486.5630, 1315.630
487.7470, 1060.129
488.9320, 858.6504
490.1160, 730.1943
491.3000, 500.7588
492.4830, 457.3438
493.6670, 262.9473
494.8500, 344.5679
496.0340, 95.20508
497.2170, 288.8130
498.4000, 227.4355
499.5820, 416.5396
500.7650, 408.0811
501.9480, 450.3320
503.1300, 585.9102
504.3120, 643.5957
505.4940, 753.2935
506.6760, 872.0034
507.8580, 1036.725
509.0390, 1100.457
510.2210, 1229.200
511.4020, 1366.952
512.5830, 1452.919
513.7640, 1548.471
514.9450, 1670.262
516.1250, 1714.047
517.3060, 1830.839
518.4860, 1954.637
519.6660, 1921.441
520.8460, 2105.251
522.0260, 2141.065
523.2060, 2406.074
524.3850, 2489.225
525.5650, 2582.389
526.7440, 2764.746
527.9230, 2950.619
529.1020, 3150.511
530.2810, 3362.932
531.4590, 3653.840
532.6380, 3870.035
533.8160, 4185.913
534.9940, 4369.339
536.1720, 4437.039
537.3500, 4464.580
538.5270, 4531.747
539.7050, 4548.177
540.8820, 4496.581
542.0590, 4482.932
543.2360, 4341.567
544.4130, 4406.422
545.5900, 4188.793
546.7660, 4241.128
547.9430, 4127.501
549.1190, 4257.913
550.2950, 4333.364
551.4710, 4487.852
552.6470, 4550.377
553.8220, 4614.940
554.9980, 4776.539
556.1730, 4931.175
557.3480, 5049.847
558.5230, 5310.554
559.6980, 5618.297
560.8730, 6053.073
562.0470, 6419.884
563.2220, 6790.730
564.3960, 7457.610
565.5700, 8032.524
566.7440, 9023.471
567.9170, 9906.448
569.0910, 10853.46
570.2640, 11999.67
571.4380, 13191.73
572.6110, 14566.45
573.7840, 15982.42
574.9570, 17211.20
576.1290, 18925.02
577.3020, 20503.78
578.4740, 21728.01
579.6460, 23142.55
580.8180, 23967.56
581.9900, 24526.64
583.1620, 24514.21
584.3330, 24087.18
585.5040, 23142.06
586.6760, 21923.43
587.8470, 20358.65
589.0180, 18770.94
590.1880, 17198.47
591.3590, 15295.30
592.5290, 13911.00
593.7000, 12504.29
594.8700, 10947.45
596.0400, 9797.601
597.2090, 8874.945
598.3790, 8151.649
599.5490, 7270.428
600.7180, 6713.786
601.8870, 6217.557
603.0560, 5877.560
604.2250, 5336.256
605.3940, 5186.759
606.5620, 4756.303
607.7300, 4617.259
608.8990, 4416.076
610.0670, 4364.573
611.2350, 4226.199
612.4020, 4181.120
613.5700, 4158.553
614.7370, 4160.108
615.9050, 4086.658
617.0720, 4140.201
618.2390, 4135.737
619.4060, 4211.266
620.5720, 4318.787
621.7390, 4375.299
622.9050, 4420.805
624.0710, 4489.301
625.2370, 4604.788
626.4030, 4637.268
627.5690, 4778.738
628.7340, 4779.198
629.9000, 4943.648
631.0650, 4994.089
632.2300, 5151.520
633.3950, 5139.940
634.5600, 5410.350
635.7240, 5605.748
636.8890, 5832.056
638.0530, 5904.433
639.2170, 6243.377
640.3810, 6532.745
641.5450, 7053.132
642.7080, 7194.540
643.8720, 7752.954
645.0350, 8216.357
646.1980, 8924.744
647.3610, 9464.123
648.5240, 10068.49
649.6870, 10814.84
650.8490, 11612.43
652.0120, 12595.54
653.1740, 13430.87
654.3360, 14299.21
655.4980, 15261.54
656.6600, 16097.86
657.8210, 16743.16
658.9830, 17553.45
660.1440, 17946.73
661.3050, 18180.99
662.4660, 18324.24
663.6270, 18224.53
664.7870, 17632.94
665.9480, 17252.53
667.1080, 16416.32
668.2680, 15515.34
669.4280, 14129.61
670.5880, 13338.14
671.7480, 12340.91
672.9070, 11001.92
674.0670, 9934.137
675.2260, 9070.538
676.3850, 8193.113
677.5440, 7312.842
678.7030, 6751.685
679.8610, 5927.631
681.0200, 5377.670
682.1780, 4807.757
683.3360, 4285.898
684.4940, 3862.055
685.6520, 3513.208
686.8090, 3078.343
687.9670, 2808.457
689.1240, 2412.549
690.2810, 2266.619
691.4380, 2024.668
692.5950, 1760.695
693.7520, 1574.698
694.9080, 1366.679
696.0650, 1215.636
697.2210, 981.5688
698.3770, 875.4780
699.5330, 747.3628
700.6880, 592.2227
701.8440, 590.0576
702.9990, 560.8672
704.1550, 431.6504
705.3100, 387.4077
706.4650, 303.1382
707.6190, 223.8423
708.7740, 176.5190
709.9290, 86.16602
711.0830, 45.81006
712.2370, 78.33887
713.3910, 14.13818
714.5450, 33.68945
715.6980, 1.672852
716.8520, 51.03369
718.0050, 21.83789
719.1580, 58.72656
720.3110, 41.71973
721.4640, 126.8091
722.6170, 99.04199
723.7700, 143.4033
724.9220, 164.9180
726.0740, 160.5996
727.2260, 223.4458
728.3780, 257.4912
729.5300, 180.7539
730.6810, 145.1948
731.8330, 200.7964
732.9840, 149.5879
734.1350, 259.5439
735.2860, 165.7236
736.4370, 218.0762
737.5880, 106.6318
738.7380, 242.3315
739.8880, 184.2480
741.0390, 123.3501
742.1890, 149.6074
743.3380, 98.03223
744.4880, 209.5996
745.6380, 40.36768
746.7870, 133.2485
747.9360, 15.70996
749.0850, 61.58496
750.2340, 27.39697
751.3830, 178.1313
752.5310, 345.8228
753.6800, 341.4814
754.8280, 593.1074
755.9760, 740.6997
757.1240, 933.2593
758.2720, 1105.786
759.4190, 1318.280
760.5670, 1607.740
761.7140, 1819.168
762.8610, 1924.564
764.0080, 2139.927
765.1550, 2227.256
766.3020, 2332.555
767.4480, 2192.820
768.5950, 2097.054
769.7410, 1908.255
770.8870, 1842.424
772.0330, 1723.562
773.1780, 1567.668
774.3240, 1584.743
775.4690, 1317.810
776.6140, 1349.846
777.7590, 1398.855
778.9040, 1365.833
780.0490, 1558.872
781.1940, 1760.786
782.3380, 1925.670
783.4820, 2192.521
784.6260, 2564.340
785.7700, 2769.674
786.9140, 3227.431
788.0580, 3611.562
789.2010, 3805.989
790.3450, 3959.163
791.4880, 3843.903
792.6310, 3596.860
793.7730, 3365.663
794.9160, 2798.697
796.0590, 2440.203
797.2010, 2119.043
798.3430, 1644.498
799.4850, 1510.911
800.6270, 1325.595
801.7690, 1143.145
802.9100, 906.0386
804.0520, 851.3257
805.1930, 788.7148
806.3340, 718.9341
807.4750, 701.1187
808.6160, 735.2666
809.7560, 600.3770
810.8970, 654.4492
812.0370, 685.4819
813.1770, 800.4746
814.3170, 681.4263
815.4570, 834.3364
816.5960, 871.2051
817.7360, 814.0308
818.8750, 905.8140
820.0140, 980.5542
821.1530, 1080.251
822.2920, 1097.905
823.4310, 1205.516
824.5690, 1198.083
825.7070, 1295.606
826.8460, 1390.087
827.9840, 1472.526
829.1220, 1571.921
830.2590, 1616.274
831.3970, 1730.584
832.5340, 1847.854
833.6710, 1921.080
834.8080, 1911.265
835.9450, 2044.408
837.0820, 2039.509
838.2190, 2223.569
839.3550, 2187.588
840.4910, 2318.565
841.6270, 2287.502
842.7630, 2269.398
843.8990, 2452.254
845.0350, 2443.069
846.1700, 2323.676
847.3060, 2446.427
848.4410, 2493.505
849.5760, 2430.991
850.7100, 2360.333
851.8450, 2353.282
852.9800, 2278.285
854.1140, 2300.817
855.2480, 2138.020
856.3820, 2167.749
857.5160, 2177.390
858.6500, 1938.537
859.7830, 1859.278
860.9170, 1809.089
862.0500, 1715.409
863.1830, 1597.863
864.3160, 1508.243
865.4480, 1373.360
866.5810, 1224.176
867.7130, 1180.109
868.8460, 1094.048
869.9780, 1034.601
871.1100, 984.3389
872.2410, 947.5840
873.3730, 856.4570
874.5050, 823.2441
875.6360, 740.4390
876.7670, 740.2134
877.8980, 798.7461
879.0290, 591.5845
880.1590, 737.6206
881.2900, 598.6040
882.4200, 592.1641
883.5500, 624.8569
884.6800, 525.8833
885.8100, 443.7705
886.9400, 488.3525
888.0690, 490.4297
889.1990, 498.3818
890.3280, 458.3301
891.4570, 558.2720
892.5860, 439.2100
893.7140, 475.1440
894.8430, 524.0742
895.9710, 328.0073
897.1000, 469.9414
898.2280, 360.8862
899.3560, 487.8530
900.4830, 427.8433
901.6110, 340.8428
902.7380, 379.8408
903.8660, 335.8433
904.9930, 276.8491
906.1200, 235.8550
907.2460, 154.8745
908.3730, 181.9097
909.5000, 118.7822
910.6260, 245.0176
911.7520, 63.07568
912.8780, 71.14941
914.0040, 74.22168
915.1290, 51.69971
916.2550, 17.37061
917.3800, 48.44043
918.5050, 15.51074
919.6300, 16.58545
920.7550, 30.32715
921.8800, 19.77197
923.0040, 63.12158
924.1290, 74.01514
925.2530, 28.92383
926.3770, 136.8252
927.5010, 21.76123
928.6250, 14.69727
929.7480, 28.61914
930.8720, 29.45605
931.9950, 22.46680
933.1180, 4.608887
934.2410, 76.69238
935.3640, 19.22217
936.4860, 13.13330
937.6090, 33.03125
938.7310, 39.06641
939.8530, 8.817871
940.9750, 71.29980
942.0970, 73.42090
943.2180, 101.5464
944.3400, 132.6816
945.4610, 166.8193
946.5820, 139.9634
947.7030, 136.1123
948.8240, 204.2666
949.9450, 223.4253
951.0650, 327.5879
952.1860, 306.7593
953.3060, 364.9370
954.4260, 344.1226
955.5460, 415.3125
956.6650, 413.5107
957.7850, 427.5137
958.9040, 364.9253
960.0230, 452.1431
961.1420, 472.3677
962.2610, 493.6001
963.3800, 595.8408
964.4990, 690.0884
965.6170, 815.3438
966.7350, 931.6089
967.8530, 906.8823
968.9710, 1000.165
970.0890, 1156.454
971.2070, 1178.753
972.3240, 1058.060
973.4410, 1039.376
974.5580, 849.7021
975.6750, 745.0391
976.7920, 564.3862
977.9090, 547.7427
979.0250, 588.1089
980.1410, 493.4858
981.2580, 556.8730
982.3740, 524.2759
983.4890, 592.6982
984.6050, 701.1367
985.7200, 831.6094
986.8360, 812.1230
987.9510, 768.6680
989.0660, 901.2598
990.1810, 994.8896
991.2950, 1094.569
992.4100, 1237.293
993.5240, 1343.088
994.6390, 1475.943
995.7530, 1630.874
996.8660, 1787.885
997.9800, 2093.974
999.0940, 2246.161
1000.207, 2554.453
1001.320, 2792.832
1002.433, 3086.288
1003.546, 3341.837
1004.659, 3457.465
1005.772, 3709.201
1006.884, 3672.022
1007.996, 3706.940
1009.108, 3381.929
1010.220, 3110.674
1011.332, 2695.950
1012.444, 2359.851
1013.555, 2217.808
1014.666, 1968.222
1015.777, 1881.876
1016.888, 1724.076
1017.999, 1606.389
1019.110, 1637.319
1020.220, 1619.072
1021.331, 1687.621
1022.441, 1729.667
1023.551, 1818.651
1024.661, 1776.474
1025.770, 1952.546
1026.880, 1973.728
1027.989, 2254.717
1029.098, 2402.228
1030.207, 2623.123
1031.316, 2775.475
1032.425, 3075.276
1033.533, 3478.530
1034.642, 3738.410
1035.750, 4047.654
1036.858, 4339.378
1037.966, 4840.743
1039.073, 5271.114
1040.181, 5815.886
1041.288, 6436.062
1042.396, 7103.935
1043.503, 7815.024
1044.610, 8760.737
1045.716, 10254.56
1046.823, 11768.76
1047.929, 13788.50
1049.036, 16150.30
1050.142, 18946.63
1051.248, 22731.95
1052.353, 26674.18
1053.459, 31401.23
1054.564, 37054.94
1055.670, 42266.73
1056.775, 47135.59
1057.880, 50575.36
1058.985, 52546.68
1060.089, 52181.78
1061.194, 48760.09
1062.298, 43816.91
1063.402, 37929.01
1064.506, 31771.39
1065.610, 26352.38
1066.713, 21647.04
1067.817, 18071.52
1068.920, 14919.38
1070.023, 12554.44
1071.126, 10514.24
1072.229, 8651.996
1073.332, 7496.383
1074.435, 6147.643
1075.537, 5323.318
1076.639, 4411.838
1077.741, 3780.028
1078.843, 3340.790
1079.945, 2875.271
1081.046, 2407.873
1082.148, 2104.146
1083.249, 2026.368
1084.350, 1774.435
1085.451, 1543.980
1086.551, 1634.834
1087.652, 1352.163
1088.752, 1162.739
1089.853, 1135.369
1090.953, 1040.622
1092.053, 1060.136
1093.152, 917.6421
1094.252, 914.1060
1095.351, 919.7617
1096.451, 931.0283
1097.550, 908.5059
1098.649, 868.1406
1099.748, 987.8032
1100.846, 1083.164
1101.945, 1236.447
1103.043, 1239.776
1104.141, 1548.064
1105.239, 1690.643
1106.337, 1867.960
1107.434, 2198.883
1108.532, 2526.176
1109.629, 2850.594
1110.726, 3175.951
1111.823, 3465.243
1112.920, 3711.533
1114.017, 3706.823
1115.113, 3688.210
1116.210, 3496.499
1117.306, 2860.867
1118.402, 2508.498
1119.498, 1960.779
1120.593, 1731.476
1121.689, 1347.752
1122.784, 1166.109
1123.879, 855.3828
1124.974, 733.1270
1126.069, 646.5576
1127.164, 486.9575
1128.259, 463.4146
1129.353, 348.6968
1130.447, 375.2432
1131.541, 241.5146
1132.635, 169.7793
1133.729, 201.0488
1134.822, 184.6260
1135.916, 67.94434
1137.009, 130.1924
1138.102, 127.4307
1139.195, 72.66113
1140.288, 85.89014
1141.380, 6.867188
1142.473, 30.35840
1143.565, 40.42871
1144.657, 55.09521
1145.749, 58.06250
1146.841, 26.20654
1147.932, 2.557129
1149.024, 100.4517
1150.115, 8.711914
1151.206, 58.74170
1152.297, 68.26221
1153.388, 27.32471
1154.479, 25.57520
1155.569, 69.63525
1156.659, 15.51562
1157.750, 10.38037
1158.839, 45.25977
1159.929, 12.91846
1161.019, 2.131348
1162.108, 40.34375
1163.198, 78.43848
1164.287, 84.74707
1165.376, 30.11182
1166.465, 24.52295
1167.553, 9.967773
1168.642, 3.395508
1169.730, 19.33545
1170.818, 40.08252
1171.906, 45.72510
1172.994, 56.00586
1174.082, 86.23096
1175.170, 4.141113
1176.257, 36.95508
1177.344, 71.33105
1178.431, 2.313477
1179.518, 13.75586
1180.605, 52.97266
1181.691, 59.06982
1182.778, 9.231934
1183.864, 19.60889
1184.950, 38.13965
1186.036, 1.764648
1187.122, 21.29004
1188.207, 47.35693
1189.292, 12.79980
1190.378, 15.99707
1191.463, 33.74023
1192.548, 30.33643
1193.632, 46.26855
1194.717, 81.91064
1195.801, 94.46240
1196.886, 11.06250
1197.970, 70.76172
1199.054, 24.72949
1200.137, 13.63770
1201.221, 105.1274
1202.305, 20.34229
1203.388, 75.64307
1204.471, 141.3062
1205.554, 60.23291
1206.637, 21.66943
1207.719, 177.8311
1208.802, 55.27148
1209.884, 101.4473
1210.966, 77.91504
1212.048, 156.3145
1213.130, 177.4390
1214.212, 42.42334
1215.293, 102.2788
1216.374, 58.41846
1217.456, 159.0527
1218.536, 102.2061
1219.617, 91.02832
1220.698, 199.4209
1221.778, 124.1646
1222.859, 127.9077
1223.939, 139.7920
1225.019, 95.53711
1226.099, 202.2358
1227.178, 143.1836
1228.258, 108.9814
1229.337, 103.7949
1230.417, 177.3364
1231.496, 215.8081
1232.574, 187.9199
1233.653, 209.6133
1234.732, 131.3516
1235.810, 195.1694
1236.888, 77.54639
1237.966, 218.5112
1239.044, 174.9326
1240.122, 190.2905
