##NAMES=Fluorophlogopite
##RRUFFID=R040042
##IDEAL CHEMISTRY=KMg_3_(Si_3_Al)O_10_F_2_
##LOCALITY=Franklin, Sussex County, New Jersey, USA
##OWNER=RRUFF
##SOURCE=University of Arizona Mineral Museum
##DESCRIPTION=Brown flattened hexagonal prism, polytype 1M
##STATUS=The identification of this mineral has been confirmed by X-ray diffraction and chemical analysis
##URL=rruff.info/R040042
##MEASURED CHEMISTRY=(K_0.92_Na_0.08_)_Σ=1_(Mg_2.95_Fe_0.05_)_Σ=3_(Si_3.00_Al_1.00_)O_10_(F_1.40_(OH)_0.60_)_Σ=2_; trace amounts of Ti; OH estimated by charge balance
##PIN_ID=L00305
##ORIENTATION=Laser parallel to (1 0 1). Fiducial mark perpendicular to laser is parallel to b [0 1 0]
81.74600, 0.0000000E+00
82.99200, 106.6250
84.23700, 2159.488
85.48300, 5015.648
86.72800, 9043.211
87.97300, 13788.92
89.21800, 19490.26
90.46200, 26453.74
91.70600, 33997.54
92.95100, 41378.44
94.19400, 50117.44
95.43800, 58184.38
96.68200, 67800.63
97.92500, 77466.75
99.16800, 86254.09
100.4110, 94959.72
101.6540, 101511.7
102.8970, 104356.8
104.1390, 104491.7
105.3810, 98720.99
106.6230, 90095.44
107.8650, 78821.56
109.1070, 65018.26
110.3480, 52896.68
111.5900, 43070.41
112.8310, 35717.32
114.0710, 29701.48
115.3120, 26041.67
116.5530, 23459.02
117.7930, 21033.10
119.0330, 18996.57
120.2730, 17720.64
121.5130, 16923.38
122.7520, 15504.02
123.9910, 13862.86
125.2310, 11917.87
126.4700, 10693.06
127.7080, 9198.033
128.9470, 8284.117
130.1850, 7266.416
131.4230, 6950.029
132.6610, 5803.045
133.8990, 4909.545
135.1370, 5190.584
136.3740, 3326.107
137.6120, 3225.934
138.8490, 3452.854
140.0850, 3134.744
141.3220, 2495.639
142.5580, 1462.617
143.7950, 525.7520
145.0310, 221.1016
146.2670, 92.73047
147.5020, 413.2793
148.7380, 927.8613
149.9730, 1051.979
151.2080, 1464.594
152.4430, 1475.680
153.6780, 1678.209
154.9130, 1693.158
156.1470, 1798.445
157.3810, 1922.410
158.6150, 1866.332
159.8490, 1684.404
161.0830, 1360.494
162.3160, 948.8809
163.5490, 508.7793
164.7820, 184.6074
166.0150, 647.0020
167.2480, 1441.512
168.4800, 2166.668
169.7120, 2639.484
170.9440, 3605.820
172.1760, 4300.377
173.4080, 5294.410
174.6400, 6378.258
175.8710, 7637.414
177.1020, 9253.902
178.3330, 11334.63
179.5640, 14006.67
180.7940, 17146.96
182.0250, 21855.60
183.2550, 27560.68
184.4850, 35411.04
185.7150, 43480.68
186.9440, 54211.50
188.1740, 66739.05
189.4030, 80820.41
190.6320, 96421.55
191.8610, 112932.1
193.0900, 130296.8
194.3180, 144355.5
195.5460, 155668.8
196.7740, 160421.3
198.0020, 157337.4
199.2300, 147159.8
200.4580, 131235.3
201.6850, 111226.0
202.9120, 91027.83
204.1390, 72778.86
205.3660, 57704.04
206.5930, 45506.37
207.8190, 35997.84
209.0450, 29057.49
210.2710, 23559.61
211.4970, 19181.31
212.7230, 16046.60
213.9480, 13348.12
215.1730, 11703.73
216.3990, 9911.410
217.6230, 8389.137
218.8480, 6988.918
220.0730, 5724.740
221.2970, 4723.602
222.5210, 5172.500
223.7450, 3723.652
224.9690, 3721.391
226.1930, 2104.371
227.4160, 1732.369
228.6390, 1272.381
229.8620, 1074.170
231.0850, 1110.428
232.3080, 924.7383
233.5300, 612.1152
234.7520, 629.5586
235.9750, 337.0879
237.1960, 462.3281
238.4180, 352.3672
239.6400, 218.3457
240.8610, 37.44727
242.0820, 71.50781
243.3030, 300.1113
244.5240, 225.4883
245.7450, 508.7852
246.9650, 402.5176
248.1850, 519.1836
249.4050, 490.2324
250.6250, 403.7324
251.8450, 274.4824
253.0640, 111.2754
254.2840, 359.0781
255.5030, 405.8164
256.7220, 533.0547
257.9400, 1135.908
259.1590, 1536.541
260.3770, 2044.955
261.5950, 2794.518
262.8130, 3460.537
264.0310, 4864.984
265.2490, 5937.496
266.4660, 7407.066
267.6830, 9270.711
268.9010, 11541.40
270.1170, 13851.62
271.3340, 16635.13
272.5510, 19913.47
273.7670, 23474.90
274.9830, 26902.38
276.1990, 30153.73
277.4150, 32524.91
278.6300, 34073.71
279.8460, 33842.20
281.0610, 32067.48
282.2760, 29100.51
283.4910, 25538.14
284.7050, 21874.56
285.9200, 18519.55
287.1340, 15902.50
288.3480, 13838.81
289.5620, 12640.97
290.7760, 11957.84
291.9890, 10859.88
293.2030, 10546.64
294.4160, 10667.34
295.6290, 10762.55
296.8420, 10959.80
298.0540, 11584.49
299.2670, 12373.75
300.4790, 13397.61
301.6910, 15213.87
302.9030, 16625.81
304.1150, 18783.23
305.3260, 20922.04
306.5380, 23683.44
307.7490, 26634.72
308.9600, 29571.09
310.1700, 32843.65
311.3810, 36025.20
312.5910, 38154.41
313.8020, 39956.59
315.0120, 41503.95
316.2220, 41701.68
317.4310, 42348.12
318.6410, 42208.45
319.8500, 41283.67
321.0590, 40192.80
322.2680, 38982.80
323.4770, 37305.70
324.6850, 35386.50
325.8940, 33026.16
327.1020, 30115.71
328.3100, 27687.14
329.5180, 24995.45
330.7260, 22149.62
331.9330, 19818.68
333.1400, 17576.71
334.3470, 15302.48
335.5540, 13864.27
336.7610, 12335.63
337.9680, 10908.36
339.1740, 9836.479
340.3800, 8908.594
341.5860, 8278.906
342.7920, 7457.770
343.9980, 7154.072
345.2030, 6635.568
346.4080, 6300.504
347.6130, 6378.371
348.8180, 6326.166
350.0230, 6032.887
351.2280, 5788.535
352.4320, 5571.107
353.6360, 5589.605
354.8400, 5905.020
356.0440, 6064.355
357.2480, 6378.605
358.4510, 6852.770
359.6540, 7377.846
360.8570, 8461.828
362.0600, 9161.719
363.2630, 10413.52
364.4660, 11860.22
365.6680, 13586.84
366.8700, 15065.35
368.0720, 16770.77
369.2740, 18528.09
370.4760, 19690.32
371.6770, 20578.46
372.8780, 19900.48
374.0790, 18940.67
375.2800, 17370.68
376.4810, 15086.60
377.6820, 12994.95
378.8820, 11071.23
380.0820, 9379.668
381.2820, 8131.945
382.4820, 7058.336
383.6820, 5979.809
384.8810, 5433.402
386.0800, 4876.336
387.2800, 4366.289
388.4780, 3692.070
389.6770, 3665.736
390.8760, 3259.379
392.0740, 2788.756
393.2720, 2817.158
394.4700, 2479.928
395.6680, 2541.168
396.8660, 2349.133
398.0630, 2024.572
399.2610, 2110.625
400.4580, 1777.416
401.6550, 1893.107
402.8510, 1637.861
404.0480, 1704.586
405.2440, 1552.006
406.4410, 1743.041
407.6370, 1455.809
408.8320, 1247.867
410.0280, 1466.980
411.2240, 1286.756
412.4190, 2095.227
413.6140, 1457.521
414.8090, 1156.414
416.0040, 1546.426
417.1980, 72.85156
418.3930, 40.16992
419.5870, 30.23438
420.7810, 318.7500
421.9750, 596.9258
423.1690, 28.25586
424.3620, 258.6699
425.5560, 190.6309
426.7490, 106.2754
427.9420, 23.04492
429.1340, 102.8672
430.3270, 74.73242
431.5200, 131.1289
432.7120, 2.900391
433.9040, 177.8008
435.0960, 141.4062
436.2880, 435.5898
437.4790, 620.7285
438.6700, 728.0469
439.8620, 935.0664
441.0530, 1228.041
442.2430, 1255.969
443.4340, 1659.254
444.6250, 1900.041
445.8150, 1823.150
447.0050, 2493.699
448.1950, 2625.504
449.3850, 3163.580
450.5740, 3297.830
451.7640, 3601.059
452.9530, 4081.016
454.1420, 4557.355
455.3310, 5155.879
456.5200, 5581.365
457.7080, 5578.207
458.8960, 5614.502
460.0850, 6131.092
461.2730, 6156.277
462.4600, 6691.867
463.6480, 7183.393
464.8350, 7507.289
466.0230, 7344.055
467.2100, 6921.986
468.3970, 6206.188
469.5830, 5310.555
470.7700, 4142.795
471.9560, 3073.900
473.1430, 1932.879
474.3290, 1359.727
475.5140, 604.4434
476.7000, 117.0117
477.8860, 192.5938
479.0710, 283.5000
480.2560, 243.7539
481.4410, 331.3340
482.6260, 317.2871
483.8100, 226.6035
484.9950, 125.7637
486.1790, 543.9590
487.3630, 717.0078
488.5470, 1245.916
489.7310, 1631.693
490.9140, 2014.344
492.0980, 2689.865
493.2810, 3562.262
494.4640, 3691.527
495.6470, 4578.662
496.8290, 5133.672
498.0120, 5668.553
499.1940, 6058.309
500.3760, 6474.934
501.5580, 6748.924
502.7400, 6865.807
503.9220, 7114.053
505.1030, 7213.170
506.2840, 7221.160
507.4660, 7662.027
508.6460, 7613.766
509.8270, 7964.377
511.0080, 7912.865
512.1880, 8101.227
513.3680, 7928.463
514.5480, 7463.576
515.7280, 6881.562
516.9080, 5985.430
518.0870, 5456.182
519.2670, 4664.824
520.4460, 4028.863
521.6250, 3722.842
522.8040, 2882.258
523.9820, 2613.664
525.1610, 2288.045
526.3390, 1883.430
527.5170, 1536.852
528.6950, 1372.385
529.8730, 1117.045
531.0500, 1035.902
532.2280, 779.9375
533.4050, 588.2363
534.5820, 342.7637
535.7590, 306.5547
536.9350, 172.4824
538.1120, 156.8848
539.2880, 80.37695
540.4640, 141.0332
541.6400, 166.7500
542.8160, 219.5215
543.9920, 333.3320
545.1670, 303.1074
546.3430, 194.8164
547.5180, 308.4297
548.6930, 305.9355
549.8680, 413.3301
551.0420, 343.6250
552.2170, 351.8164
553.3910, 181.9043
554.5650, 398.8828
555.7390, 217.7617
556.9130, 388.5352
558.0860, 489.2090
559.2590, 228.5254
560.4330, 717.5059
561.6060, 560.3359
562.7790, 359.0703
563.9510, 641.9004
565.1240, 406.7852
566.2960, 455.6133
567.4680, 550.4062
568.6400, 523.3477
569.8120, 485.3770
570.9840, 439.2969
572.1550, 275.1387
573.3270, 306.3652
574.4980, 144.5000
575.6690, 131.0098
576.8390, 10.69336
578.0100, 47.74609
579.1800, 155.1094
580.3510, 228.7070
581.5210, 488.1113
582.6910, 260.9004
583.8600, 355.9570
585.0300, 500.3320
586.1990, 387.1074
587.3690, 562.2227
588.5380, 574.7676
589.7060, 396.7363
590.8750, 441.0586
592.0440, 467.7344
593.2120, 571.7656
594.3800, 287.2285
595.5480, 215.8926
596.7160, 55.78516
597.8840, 159.7832
599.0510, 30.07617
600.2190, 263.8945
601.3860, 324.6680
602.5530, 670.4297
603.7200, 650.2305
604.8860, 1079.027
606.0530, 1249.861
607.2190, 1374.701
608.3850, 1864.500
609.5510, 2043.289
610.7170, 2260.998
611.8820, 2643.637
613.0480, 3073.076
614.2130, 3602.268
615.3780, 4265.139
616.5430, 4801.387
617.7080, 5674.680
618.8720, 6195.764
620.0370, 7065.086
621.2010, 7610.848
622.3650, 8552.078
623.5290, 9454.141
624.6930, 10391.88
625.8560, 11932.92
627.0200, 12657.40
628.1830, 13805.56
629.3460, 15359.14
630.5090, 16404.02
631.6710, 17812.12
632.8340, 18984.51
633.9960, 20476.85
635.1580, 21645.12
636.3200, 22985.34
637.4820, 23932.50
638.6440, 24593.59
639.8050, 25665.63
640.9670, 25768.54
642.1280, 26954.54
643.2890, 25892.40
644.4500, 25611.22
645.6100, 25525.97
646.7710, 26055.67
647.9310, 26128.32
649.0910, 26341.92
650.2510, 26577.45
651.4110, 27089.72
652.5700, 28004.38
653.7300, 28448.77
654.8890, 29438.11
656.0480, 30468.40
657.2070, 31454.63
658.3660, 32654.82
659.5250, 34353.96
660.6830, 36028.04
661.8410, 37696.09
662.9990, 40326.08
664.1570, 43165.03
665.3150, 46166.49
666.4730, 50242.79
667.6300, 53721.59
668.7870, 59150.35
669.9440, 64513.06
671.1010, 70959.72
672.2580, 78759.81
673.4140, 87206.08
674.5710, 96844.29
675.7270, 107627.3
676.8830, 118539.7
678.0390, 129734.0
679.1950, 139638.7
680.3500, 148754.7
681.5060, 155715.9
682.6610, 159458.2
683.8160, 160694.0
684.9710, 157986.6
686.1250, 153307.7
687.2800, 148240.2
688.4340, 137439.6
689.5880, 129131.5
690.7420, 117715.0
691.8960, 106856.5
693.0500, 96735.23
694.2030, 86111.80
695.3570, 76210.59
696.5100, 67185.05
697.6630, 59285.88
698.8160, 51730.57
699.9680, 45243.30
701.1210, 39575.36
702.2730, 34400.54
703.4250, 30616.85
704.5770, 27519.17
705.7290, 24384.76
706.8810, 22369.78
708.0320, 20165.69
709.1840, 18262.42
710.3350, 17492.96
711.4860, 16529.80
712.6370, 15071.83
713.7870, 14247.12
714.9380, 14017.32
716.0880, 12925.92
717.2380, 12505.37
718.3880, 11946.79
719.5380, 11505.38
720.6880, 10822.59
721.8370, 10681.97
722.9870, 9983.320
724.1360, 9662.535
725.2850, 9479.799
726.4340, 9069.113
727.5820, 8907.361
728.7310, 8659.908
729.8790, 8274.443
731.0270, 8089.102
732.1750, 7809.801
733.3230, 7947.695
734.4700, 7930.359
735.6180, 7820.328
736.7650, 7782.574
737.9120, 7628.248
739.0590, 7545.039
740.2060, 7344.578
741.3530, 7253.889
742.4990, 7249.986
743.6460, 6970.457
744.7920, 7222.047
745.9380, 7005.621
747.0830, 6789.586
748.2290, 6545.016
749.3750, 6346.283
750.5200, 6125.676
751.6650, 6275.469
752.8100, 5922.828
753.9550, 5976.234
755.0990, 5639.475
756.2440, 5961.859
757.3880, 5336.273
758.5320, 5333.783
759.6760, 5100.291
760.8200, 4664.086
761.9640, 4595.895
763.1070, 4648.783
764.2510, 4496.682
765.3940, 4377.578
766.5370, 4620.467
767.6790, 4386.348
768.8220, 4678.213
769.9650, 4476.070
771.1070, 4702.916
772.2490, 4822.754
773.3910, 4804.578
774.5330, 4759.398
775.6750, 5019.209
776.8160, 5377.008
777.9570, 5375.801
779.0980, 5827.586
780.2390, 5974.363
781.3800, 6195.133
782.5210, 6433.895
783.6610, 6418.648
784.8020, 6628.398
785.9420, 6444.141
787.0820, 6230.879
788.2220, 6393.609
789.3610, 6295.336
790.5010, 6370.055
791.6400, 6499.771
792.7790, 6450.480
793.9180, 6425.189
795.0570, 6560.891
796.1960, 6373.787
797.3340, 6177.281
798.4730, 6194.969
799.6110, 5892.816
800.7490, 5587.006
801.8870, 5099.016
803.0250, 4771.693
804.1620, 4521.367
805.2990, 4066.039
806.4370, 4064.709
807.5740, 3604.920
808.7110, 3431.584
809.8470, 2768.441
810.9840, 3156.512
812.1200, 3311.646
813.2560, 3246.264
814.3920, 2299.834
815.5280, 2491.125
816.6640, 2226.494
817.8000, 1943.174
818.9350, 2294.738
820.0700, 1476.645
821.2050, 1818.180
822.3400, 1696.818
823.4750, 1787.338
824.6100, 1419.113
825.7440, 1192.705
826.8780, 1425.213
828.0120, 1403.629
829.1460, 892.4258
830.2800, 934.2969
831.4140, 540.1816
832.5470, 510.0801
833.6800, 480.9902
834.8130, 423.9121
835.9460, 283.8477
837.0790, 285.7891
838.2120, 327.7383
839.3440, 347.7031
840.4760, 464.6758
841.6090, 482.6602
842.7410, 370.6562
843.8720, 533.6602
845.0040, 156.6738
846.1350, 235.6992
847.2670, 381.7344
848.3980, 41.78516
849.5290, 151.8477
850.6600, 122.8965
851.7900, 49.97656
852.9210, 231.1191
854.0510, 105.7617
855.1810, 86.36914
856.3110, 156.5938
857.4410, 710.9805
858.5710, 209.4707
859.7000, 282.0918
860.8300, 54.87500
861.9590, 25.18750
863.0880, 60.10156
864.2170, 66.14258
865.3460, 57.47266
866.4740, 124.9766
867.6030, 44.39453
868.7310, 348.6660
869.8590, 108.0176
870.9870, 243.3418
872.1140, 323.7539
873.2420, 311.2676
874.3690, 216.9297
875.4970, 317.6816
876.6240, 465.5352
877.7510, 303.6367
878.8770, 444.8418
880.0040, 303.2520
881.1310, 141.7637
882.2570, 261.2812
883.3830, 98.15430
884.5090, 11.49219
885.6350, 87.04883
886.7600, 94.19141
887.8860, 180.4062
889.0110, 93.02148
890.1360, 106.6680
891.2610, 143.3242
892.3860, 75.98633
893.5110, 338.6543
894.6350, 310.3281
895.7600, 216.0078
896.8840, 167.6934
898.0080, 356.3867
899.1320, 372.1211
900.2550, 206.8613
901.3790, 614.6055
902.5020, 430.3652
903.6260, 442.1953
904.7490, 304.0938
905.8720, 389.9961
906.9940, 243.9004
908.1170, 220.8125
909.2390, 411.7695
910.3620, 529.7305
911.4840, 693.7305
912.6060, 524.7383
913.7270, 474.7461
914.8490, 884.7578
915.9710, 639.6641
917.0920, 624.7930
918.2130, 511.8164
919.3340, 442.8418
920.4550, 360.8711
921.5750, 449.9043
922.6960, 344.9414
923.8160, 443.5527
924.9360, 449.6660
926.0560, 619.0703
927.1760, 487.1172
928.2960, 568.1680
929.4160, 539.2227
930.5350, 477.2793
931.6540, 310.3418
932.7730, 406.4062
933.8920, 337.4707
935.0110, 223.5410
936.1290, 257.6152
937.2480, 263.6914
938.3660, 277.7695
939.4840, 157.8477
940.6020, 396.9336
941.7200, 34.01953
942.8380, 146.0977
943.9550, 52.82031
945.0720, 191.2129
946.1900, 188.2500
947.3070, 228.2910
948.4230, 241.3359
949.5400, 191.3867
950.6570, 91.45312
951.7730, 293.5254
952.8890, 167.6016
954.0050, 363.6777
955.1210, 669.7598
956.2370, 507.6992
957.3520, 440.9199
958.4680, 440.0020
959.5830, 603.0859
960.6980, 697.1719
961.8130, 792.7852
962.9280, 944.2520
964.0420, 1070.426
965.1570, 1156.514
966.2710, 1389.598
967.3850, 1374.684
968.4990, 1643.770
969.6130, 1754.855
970.7270, 1634.941
971.8400, 2366.025
972.9540, 3009.109
974.0670, 2489.193
975.1800, 2494.275
976.2930, 2829.359
977.4050, 3211.439
978.5180, 3328.520
979.6300, 3406.600
980.7430, 3506.676
981.8550, 3793.529
982.9670, 4123.785
984.0780, 4427.859
985.1900, 4638.928
986.3010, 4982.260
987.4130, 5168.346
988.5240, 5771.891
989.6350, 5515.953
990.7460, 5788.010
991.8560, 5863.066
992.9670, 6393.209
994.0770, 7201.164
995.1870, 7879.209
996.2970, 8828.148
997.4070, 9921.326
998.5170, 11200.35
999.6270, 12405.57
1000.736, 13450.99
1001.845, 14710.82
1002.954, 15377.32
1004.063, 15369.54
1005.172, 14495.50
1006.281, 13132.36
1007.389, 11973.94
1008.497, 11627.35
1009.606, 11047.93
1010.714, 10459.10
1011.821, 9728.684
1012.929, 9303.779
1014.037, 8786.270
1015.144, 8326.523
1016.251, 8164.217
1017.358, 7774.566
1018.465, 7589.354
1019.572, 6974.426
1020.678, 7060.777
1021.785, 6923.688
1022.891, 7239.699
1023.997, 7971.863
1025.103, 8549.086
1026.209, 9559.982
1027.315, 10682.92
1028.420, 12060.81
1029.526, 14386.20
1030.631, 15263.75
1031.736, 16990.91
1032.841, 17909.29
1033.945, 19108.13
1035.050, 19179.06
1036.154, 18605.47
1037.259, 18127.92
1038.363, 16242.75
1039.467, 14951.74
1040.570, 13273.55
1041.674, 12237.93
1042.777, 10761.99
1043.881, 9943.293
1044.984, 9298.754
1046.087, 8309.512
1047.190, 8482.262
1048.292, 7409.000
1049.395, 7170.727
1050.497, 7121.441
1051.600, 6614.148
1052.702, 6444.844
1053.804, 6407.527
1054.905, 6229.549
1056.007, 6114.861
1057.108, 6213.512
1058.210, 6229.148
1059.311, 6264.779
1060.412, 6540.395
1061.513, 6412.002
1062.613, 6710.596
1063.714, 6605.176
1064.814, 6702.748
1065.914, 7097.309
1067.015, 7064.854
1068.114, 7284.605
1069.214, 7743.129
1070.314, 8017.670
1071.413, 8262.238
1072.512, 8447.725
1073.612, 9214.203
1074.711, 9581.121
1075.809, 10140.89
1076.908, 10616.12
1078.007, 11032.22
1079.105, 11453.40
1080.203, 12103.87
1081.301, 12902.93
1082.399, 13364.98
1083.497, 14153.25
1084.594, 14892.12
1085.692, 15508.88
1086.789, 16027.61
1087.886, 16509.72
1088.983, 16933.77
1090.080, 17247.10
1091.177, 17597.37
1092.273, 17878.82
1093.370, 18057.06
1094.466, 18488.29
1095.562, 18427.51
1096.658, 18394.86
1097.754, 18187.91
1098.849, 17973.08
1099.945, 18192.24
1101.040, 17922.39
1102.135, 17561.53
1103.230, 16959.65
1104.325, 16584.75
1105.419, 16060.85
1106.514, 14904.93
1107.608, 14298.99
1108.703, 13060.04
1109.797, 11996.08
1110.891, 10994.10
1111.984, 10069.11
1113.078, 9142.102
1114.171, 8486.078
1115.265, 7518.344
1116.358, 6489.994
1117.451, 5814.932
1118.544, 4837.869
1119.636, 4069.793
1120.729, 3650.734
1121.821, 2986.656
1122.913, 2577.568
1124.006, 2056.465
1125.097, 1718.346
1126.189, 1389.223
1127.281, 1113.105
1128.372, 914.9805
1129.464, 789.8594
1130.555, 765.7324
1131.646, 330.6094
1132.737, 456.5059
1133.827, 579.4062
1134.918, 434.3945
1136.008, 186.4062
1137.099, 523.5039
1138.189, 492.7090
1139.279, 35.01562
1140.368, 186.7148
1141.458, 90.56250
1142.548, 173.1914
1143.637, 83.69336
1144.726, 203.2012
1145.815, 230.7676
1146.904, 339.4492
1147.993, 102.2734
1149.081, 202.1387
1150.170, 352.1367
1151.258, 12.34961
1152.346, 1.443359
1153.434, 47.79883
1154.522, 147.9551
1155.610, 133.6934
1156.697, 308.4121
1157.784, 201.1152
1158.872, 266.8008
1159.959, 92.46875
1161.046, 54.12109
1162.132, 96.25391
1163.219, 95.28125
1164.305, 266.7969
1165.392, 3.294922
1166.478, 211.2441
1167.564, 195.9395
1168.650, 616.2227
1169.735, 182.7793
1170.821, 326.1992
1171.906, 115.3867
1172.992, 163.6250
1174.077, 82.38086
1175.162, 63.52734
1176.247, 272.4141
1177.331, 237.2852
1178.416, 300.1406
1179.500, 369.9824
1180.584, 372.3770
1181.668, 503.6172
1182.752, 436.4082
1183.836, 503.1875
1184.920, 546.9492
1186.003, 466.6973
1187.086, 568.4277
1188.169, 566.1445
1189.252, 648.8457
1190.335, 558.5312
1191.418, 642.2012
1192.500, 857.8574
1193.583, 490.4961
1194.665, 620.1211
1195.747, 247.7285
1196.829, 462.3203
1197.911, 189.8984
1198.993, 443.4570
1200.074, 236.0000
1201.155, 226.5273
1202.237, 373.0391
1203.318, 279.5352
1204.399, 308.4160
1205.479, 169.4863
1206.560, 267.9375
1207.640, 86.40039
1208.721, 63.84180
1209.801, 231.2617
1210.881, 90.66406
1211.961, 3.955078
1213.040, 47.38672
1214.120, 125.7012
1215.199, 149.9980
1216.279, 279.2754
1217.358, 409.5391
1218.437, 289.7852
1219.515, 401.0195
1220.594, 255.2363
1221.673, 209.4414
1222.751, 593.6289
1223.829, 452.8027
1224.907, 656.9609
1225.985, 720.1035
1227.063, 755.2324
1228.141, 932.3477
1229.218, 832.4512
1230.295, 805.5371
1231.372, 1042.611
1232.449, 1174.668
1233.526, 939.7129
1234.603, 978.7441
1235.680, 1005.758
1236.756, 857.7578
1237.832, 751.7461
1238.908, 797.7148
1239.984, 765.6699
1241.060, 843.6113
1242.136, 825.5332
1243.212, 830.8125
1244.287, 668.3613
1245.362, 752.2383
1246.437, 709.1016
1247.512, 509.9453
1248.587, 637.7754
1249.662, 591.6602
1250.736, 471.4590
1251.810, 712.2422
1252.885, 473.1660
1253.959, 702.9160
1255.033, 349.9434
1256.106, 696.0391
1257.180, 1119.740
1258.253, 829.4570
1259.327, 729.1855
1260.400, 699.9375
1261.473, 975.5762
1262.546, 1174.207
1263.619, 1154.441
1264.691, 1341.463
1265.764, 1291.104
1266.836, 1577.805
1267.908, 1548.664
1268.980, 1501.361
1270.052, 2047.570
1271.124, 1749.131
1272.195, 2172.230
1273.266, 1761.807
1274.338, 1978.760
1275.409, 2119.752
1276.480, 2428.873
1277.551, 2528.314
1278.621, 2767.336
1279.692, 2970.186
1280.762, 3265.902
1281.832, 3399.756
1282.902, 3895.258
1283.972, 4098.301
1285.042, 4268.266
1286.112, 4540.539
1287.181, 4973.750
1288.251, 5485.004
1289.320, 5522.727
1290.389, 4891.320
1291.458, 4464.301
1292.527, 4548.984
1293.595, 4521.242
1294.664, 4411.402
1295.732, 4531.070
1296.800, 4000.678
1297.868, 4119.918
1298.936, 4074.973
1300.004, 3382.193
1301.071, 3544.832
1302.139, 3083.777
1303.206, 3006.500
1304.273, 2913.047
1305.340, 2996.273
1306.407, 2825.496
1307.474, 2775.707
1308.540, 2942.908
1309.607, 2627.100
1310.673, 2608.287
1311.739, 2848.461
1312.805, 2992.629
1313.871, 2541.789
1314.937, 2675.939
1316.002, 2194.074
1317.068, 1994.197
1318.133, 2005.309
1319.198, 1953.402
1320.263, 1613.484
1321.328, 1654.549
1322.392, 1453.275
1323.457, 1590.625
1324.521, 1350.635
1325.586, 1412.625
1326.650, 1752.379
1327.714, 1243.326
1328.777, 1165.225
1329.841, 1202.055
1330.905, 1564.955
1331.968, 1131.850
1333.031, 1233.744
1334.094, 816.3145
1335.157, 1043.201
1336.220, 1109.414
1337.283, 818.5273
1338.345, 956.3379
1339.407, 719.5547
1340.470, 799.7441
1341.532, 865.7480
1342.594, 957.0684
1343.655, 945.5176
1344.717, 963.3848
1345.779, 951.7324
1346.840, 954.2090
1347.901, 941.9941
1348.962, 936.8496
1350.023, 877.9434
1351.084, 830.2363
1352.144, 731.2500
1353.205, 646.1133
1354.265, 598.9746
1355.325, 503.8359
1356.385, 589.6836
1357.445, 256.5000
1358.505, 319.3125
1359.565, 438.1230
1360.624, 635.9219
1361.683, 575.6777
1362.743, 724.7520
1363.802, 725.4473
1364.860, 799.6680
1365.919, 678.1660
1366.978, 543.6621
1368.036, 408.0762
1369.095, 424.4473
1370.153, 488.7188
1371.211, 218.9883
1372.269, 534.2520
1373.326, 248.5117
1374.384, 251.7871
1375.441, 492.0391
1376.499, 210.2871
1377.556, 381.5273
1378.613, 246.7637
1379.670, 191.9980
1380.726, 230.2246
1381.783, 31.55859
1382.839, 65.35547
1383.896, 12.82227
1384.952, 225.0273
1386.008, 7.187500
1387.064, 210.3359
1388.120, 347.7930
1389.175, 242.2344
1390.231, 14.63477
1391.286, 8.791016
1392.341, 90.68555
1393.396, 123.6113
1394.451, 161.4219
1395.506, 43.53320
1396.560, 76.50391
1397.615, 119.5547
1398.669, 29.86719
1399.723, 347.4160
1400.777, 196.7793
1401.831, 508.0312
1402.885, 598.5215
1403.938, 190.5801
1404.992, 156.6270
1406.045, 47.96680
1407.098, 79.33594
1408.151, 428.5879
1409.204, 233.6504
1410.257, 263.6777
1411.309, 298.2910
1412.362, 544.9629
1413.414, 333.1230
1414.466, 262.6387
1415.518, 296.5977
1416.570, 241.9219
1417.622, 242.5352
1418.673, 619.8242
1419.725, 704.4590
1420.776, 815.9590
1421.827, 1145.305
1422.878, 942.7773
1423.929, 1072.051
1424.980, 1027.969
1426.031, 1312.496
1427.081, 1516.607
1428.131, 1605.207
1429.182, 1649.611
1430.232, 2363.252
1431.282, 2369.881
1432.331, 2934.512
1433.381, 3039.156
1434.430, 3325.908
1435.480, 3878.543
1436.529, 4246.178
1437.578, 4529.793
1438.627, 5000.918
1439.676, 5096.531
1440.724, 5642.363
1441.773, 5891.018
1442.821, 5771.207
1443.869, 5784.539
1444.917, 5768.758
1445.965, 5486.527
1447.013, 5087.158
1448.060, 5081.721
1449.108, 4924.793
1450.155, 4799.668
1451.203, 4943.314
1452.250, 4706.717
1453.297, 4557.922
1454.343, 4505.293
1455.390, 4639.812
1456.436, 4388.385
1457.483, 4187.961
1458.529, 4284.547
1459.575, 3917.152
1460.621, 3621.768
1461.667, 3676.428
1462.712, 3158.109
1463.758, 3055.801
1464.803, 2914.502
1465.849, 3058.211
1466.894, 2892.934
1467.939, 2434.668
1468.983, 2482.406
1470.028, 2111.160
1471.073, 2087.922
1472.117, 2043.699
1473.161, 1795.494
1474.205, 2033.307
1475.249, 1816.139
1476.293, 1926.967
1477.337, 1873.850
1478.380, 1618.760
1479.424, 1536.607
1480.467, 1516.381
1481.510, 1338.475
1482.553, 1787.605
1483.596, 1345.156
1484.639, 1428.000
1485.681, 1188.854
1486.724, 1028.859
1487.766, 1056.365
1488.808, 1605.795
1489.850, 1111.596
1490.892, 1316.945
1491.934, 576.3066
1492.975, 642.2988
1494.017, 357.2188
1495.058, 399.8477
1496.099, 648.6270
1497.140, 434.3984
1498.181, 615.1602
1499.222, 310.7559
1500.263, 379.3926
1501.303, 321.9121
1502.344, 487.3809
1503.384, 647.7734
1504.424, 633.1074
1505.464, 525.2812
1506.504, 651.4336
1507.543, 380.5566
1508.583, 442.6504
1509.622, 322.7188
1510.661, 441.7500
1511.700, 473.7793
1512.739, 261.8203
1513.778, 265.8828
1514.817, 419.9805
1515.855, 169.1348
1516.894, 550.3613
1517.932, 380.6758
1518.970, 616.9746
1520.008, 345.2109
1521.046, 640.3809
1522.084, 568.4824
1523.121, 228.5059
1524.159, 531.4453
1525.196, 300.3008
1526.233, 290.0586
1527.270, 464.7168
1528.307, 110.2676
1529.344, 373.6992
1530.380, 356.0098
1531.417, 370.3379
1532.453, 251.6445
1533.489, 374.9922
1534.525, 418.7461
1535.561, 325.0117
1536.597, 281.8105
1537.633, 224.3320
1538.668, 309.1543
1539.703, 269.6191
1540.739, 435.8418
1541.774, 324.7832
1542.809, 200.7852
1543.843, 178.7148
1544.878, 367.1992
1545.913, 680.2910
1546.947, 770.5859
1547.981, 20.62305
1549.015, 328.7207
1550.049, 222.1699
1551.083, 97.13086
1552.117, 604.6387
1553.150, 57.56250
1554.184, 435.6582
1555.217, 472.5703
1556.250, 719.2324
1557.283, 509.8867
1558.316, 439.0879
1559.349, 824.8066
1560.381, 958.8965
1561.414, 688.5723
1562.446, 832.9316
1563.478, 149.7344
1564.510, 372.9219
1565.542, 469.0254
1566.574, 286.8438
1567.606, 190.3008
1568.637, 169.4023
1569.669, 238.0391
1570.700, 169.7871
1571.731, 84.44531
1572.762, 265.7559
1573.793, 203.4102
1574.823, 151.5391
1575.854, 69.76172
1576.884, 350.5723
1577.915, 1.595703
1578.945, 0.0000000E+00
##END=



