##NAMES=Fluorophlogopite
##RRUFFID=R040042
##IDEAL CHEMISTRY=KMg_3_(Si_3_Al)O_10_F_2_
##LOCALITY=Franklin, Sussex County, New Jersey, USA
##OWNER=RRUFF
##SOURCE=University of Arizona Mineral Museum
##DESCRIPTION=Brown flattened hexagonal prism, polytype 1M
##STATUS=The identification of this mineral has been confirmed by X-ray diffraction and chemical analysis
##URL=rruff.info/R040042
##MEASURED CHEMISTRY=(K_0.92_Na_0.08_)_Σ=1_(Mg_2.95_Fe_0.05_)_Σ=3_(Si_3.00_Al_1.00_)O_10_(F_1.40_(OH)_0.60_)_Σ=2_; trace amounts of Ti; OH estimated by charge balance
##PIN_ID=L00540
##ORIENTATION=Laser parallel to -a* (-1 0 0). Fiducial mark perpendicular to laser is parallel to -b [0 -1 0]
128.8070, 0.0000000E+00
130.0370, 263.6953
131.2670, 428.0859
132.4970, 609.9297
133.7260, 793.2344
134.9550, 283.7812
136.1850, 179.4688
137.4140, 233.5703
138.6420, 247.1250
139.8710, 263.5391
141.1000, 119.0312
142.3280, 140.0703
143.5560, 552.5859
144.7840, 387.0312
146.0120, 171.7031
147.2400, 274.9219
148.4680, 401.8359
149.6950, 74.92969
150.9220, 188.7656
152.1500, 470.9453
153.3770, 165.0938
154.6030, 911.9453
155.8300, 1103.211
157.0570, 1109.672
158.2830, 1179.133
159.5090, 1489.438
160.7350, 1949.406
161.9610, 1905.914
163.1870, 3001.828
164.4130, 2996.047
165.6380, 3685.461
166.8630, 3969.914
168.0880, 4643.227
169.3130, 5651.227
170.5380, 6630.828
171.7630, 7382.938
172.9870, 8644.461
174.2120, 10119.34
175.4360, 11442.52
176.6600, 13357.93
177.8840, 15542.53
179.1080, 19259.27
180.3310, 22009.14
181.5550, 25972.12
182.7780, 31783.20
184.0010, 39173.38
185.2240, 47033.62
186.4470, 57993.88
187.6700, 71252.15
188.8920, 85561.37
190.1150, 102894.6
191.3370, 121731.7
192.5590, 144305.8
193.7810, 168479.8
195.0020, 191481.5
196.2240, 212465.3
197.4450, 224647.9
198.6670, 228332.3
199.8880, 218199.6
201.1090, 197503.7
202.3300, 170366.4
203.5500, 140776.2
204.7710, 112115.0
205.9910, 88193.85
207.2110, 68803.76
208.4310, 54506.73
209.6510, 43884.02
210.8710, 34855.65
212.0910, 29263.59
213.3100, 23929.86
214.5290, 20618.48
215.7480, 17274.44
216.9670, 15304.75
218.1860, 13111.42
219.4050, 11542.48
220.6230, 10010.91
221.8420, 8658.703
223.0600, 7846.906
224.2780, 6793.484
225.4960, 5710.453
226.7130, 5682.586
227.9310, 5484.211
229.1480, 5125.008
230.3660, 4121.039
231.5830, 3950.930
232.8000, 3447.984
234.0160, 2931.906
235.2330, 2881.055
236.4490, 1660.992
237.6660, 2021.617
238.8820, 2212.031
240.0980, 2241.250
241.3140, 1625.672
242.5300, 1843.367
243.7450, 1727.484
244.9600, 1598.250
246.1760, 1934.141
247.3910, 1414.320
248.6060, 1744.125
249.8200, 1735.383
251.0350, 1881.992
252.2500, 1693.164
253.4640, 2163.656
254.6780, 2306.734
255.8920, 2806.172
257.1060, 2855.031
258.3190, 3377.367
259.5330, 3661.195
260.7460, 4359.500
261.9600, 5026.172
263.1730, 6167.555
264.3850, 7048.297
265.5980, 8317.523
266.8110, 10326.90
268.0230, 11485.51
269.2360, 14362.47
270.4480, 17140.75
271.6600, 20732.20
272.8710, 24122.75
274.0830, 28394.69
275.2950, 32437.05
276.5060, 37416.55
277.7170, 41780.11
278.9280, 45365.02
280.1390, 48029.95
281.3500, 47898.86
282.5600, 45188.84
283.7710, 40495.77
284.9810, 35140.84
286.1910, 28817.39
287.4010, 23544.66
288.6110, 20343.62
289.8200, 16966.09
291.0300, 14612.30
292.2390, 12454.11
293.4480, 10203.45
294.6570, 9952.328
295.8660, 9142.438
297.0750, 8521.266
298.2830, 8456.547
299.4920, 8563.266
300.7000, 9039.391
301.9080, 9710.922
303.1160, 10617.83
304.3240, 11123.12
305.5310, 12537.75
306.7390, 14095.73
307.9460, 16260.03
309.1530, 18357.74
310.3600, 19992.67
311.5670, 21956.89
312.7740, 24621.39
313.9800, 26770.17
315.1870, 28006.20
316.3930, 29595.44
317.5990, 30834.99
318.8050, 31393.79
320.0110, 31642.81
321.2160, 32548.08
322.4220, 33177.58
323.6270, 31763.27
324.8320, 31454.19
326.0370, 30181.31
327.2420, 29007.64
328.4460, 26598.16
329.6510, 25000.55
330.8550, 22211.45
332.0590, 20164.93
333.2630, 18020.97
334.4670, 15967.66
335.6710, 13728.55
336.8740, 12351.27
338.0780, 11005.16
339.2810, 9603.102
340.4840, 8684.891
341.6870, 7324.711
342.8900, 7434.828
344.0920, 6215.406
345.2950, 5774.312
346.4970, 5211.102
347.6990, 4599.273
348.9010, 4226.328
350.1030, 3911.633
351.3050, 3710.430
352.5060, 3864.812
353.7080, 3753.305
354.9090, 3183.922
356.1100, 3604.625
357.3110, 3360.211
358.5110, 3116.797
359.7120, 3434.828
360.9120, 3172.953
362.1130, 2880.453
363.3130, 3443.953
364.5130, 3234.516
365.7120, 3863.641
366.9120, 2788.719
368.1120, 3125.898
369.3110, 3080.641
370.5100, 2973.141
371.7090, 2863.039
372.9080, 3180.188
374.1070, 2762.234
375.3050, 3209.859
376.5040, 2772.039
377.7020, 2164.469
378.9000, 1859.773
380.0980, 1752.930
381.2950, 2180.672
382.4930, 1577.758
383.6910, 1798.781
384.8880, 1679.539
386.0850, 1244.445
387.2820, 1624.102
388.4790, 1281.945
389.6750, 1052.469
390.8720, 587.6953
392.0680, 1006.984
393.2640, 1048.156
394.4600, 680.5781
395.6560, 1359.969
396.8520, 666.4766
398.0480, 1461.594
399.2430, 889.4219
400.4380, 1248.031
401.6330, 1158.109
402.8280, 1293.000
404.0230, 1010.430
405.2180, 741.2500
406.4120, 590.8828
407.6060, 1126.445
408.8000, 103.1875
409.9940, 1014.188
411.1880, 841.0547
412.3820, 737.8750
413.5750, 244.3281
414.7690, 580.9141
415.9620, 22.96094
417.1550, 38.57031
418.3480, 0.3046880
419.5410, 44.85938
420.7330, 72.32812
421.9260, 119.5938
423.1180, 166.8906
424.3100, 205.6484
425.5020, 462.3438
426.6940, 404.1562
427.8850, 116.1328
429.0770, 593.1328
430.2680, 277.1719
431.4590, 445.2422
432.6500, 288.1562
433.8410, 69.54688
435.0320, 319.6094
436.2220, 64.32031
437.4130, 175.7500
438.6030, 49.17969
439.7930, 64.73438
440.9830, 69.81250
442.1730, 306.9219
443.3620, 633.5703
444.5520, 713.0859
445.7410, 555.8906
446.9300, 808.6641
448.1190, 550.3203
449.3080, 327.3516
450.4960, 582.3672
451.6850, 3.367188
452.8730, 592.3438
454.0610, 456.2969
455.2490, 642.2188
456.4370, 189.1250
457.6250, 465.0000
458.8130, 39.14844
460.0000, 796.6562
461.1870, 429.4453
462.3740, 549.1875
463.5610, 526.9062
464.7480, 479.5938
465.9340, 422.2344
467.1210, 621.8438
468.3070, 692.4062
469.4930, 336.9375
470.6790, 631.4219
471.8650, 254.1250
473.0510, 126.1562
474.2360, 239.5938
475.4210, 304.5156
476.6070, 638.4375
477.7920, 124.1406
478.9770, 173.8438
480.1610, 267.1719
481.3460, 456.5312
482.5300, 125.5312
483.7140, 217.5469
484.8980, 327.0781
486.0820, 151.8906
487.2660, 454.0156
488.4500, 15.28125
489.6330, 54.98438
490.8160, 291.1562
492.0000, 101.9688
493.1830, 43.90625
494.3650, 411.2969
495.5480, 543.0938
496.7300, 304.4219
497.9130, 552.7031
499.0950, 69.28125
500.2770, 72.07812
501.4590, 542.7500
502.6410, 324.9688
503.8220, 124.6719
505.0030, 501.7031
506.1850, 83.12500
507.3660, 102.7188
508.5470, 176.4844
509.7270, 77.50000
510.9080, 341.3438
512.0880, 194.1094
513.2690, 664.7812
514.4490, 121.6406
515.6290, 398.7500
516.8090, 167.9531
517.9880, 420.1250
519.1680, 19.10938
520.3470, 723.9375
521.5260, 32.32812
522.7050, 5.750000
523.8840, 23.35938
525.0630, 82.15625
526.2410, 90.64062
527.4200, 57.35938
528.5980, 113.7656
529.7760, 81.42188
530.9540, 22.70312
532.1320, 336.3281
533.3090, 96.26562
534.4870, 213.7188
535.6640, 601.9375
536.8410, 105.0781
538.0180, 60.51562
539.1950, 96.01562
540.3710, 280.8125
541.5480, 410.0781
542.7240, 304.8750
543.9000, 354.5469
545.0760, 101.1250
546.2520, 71.54688
547.4280, 56.81250
548.6040, 296.0781
549.7790, 413.6719
550.9540, 18.31250
552.1290, 387.7969
553.3040, 402.1562
554.4790, 489.5156
555.6530, 753.8125
556.8280, 330.0781
558.0020, 924.9688
559.1760, 657.0312
560.3500, 1108.000
561.5240, 523.9375
562.6980, 1748.797
563.8710, 228.5469
565.0440, 769.1719
566.2170, 205.7188
567.3900, 318.2188
568.5630, 757.5938
569.7360, 865.8750
570.9090, 1095.078
572.0810, 809.1875
573.2530, 436.2344
574.4250, 635.3281
575.5970, 823.1562
576.7690, 955.9688
577.9400, 930.4688
579.1120, 876.2812
580.2830, 767.0156
581.4540, 686.4375
582.6250, 590.7344
583.7960, 707.0312
584.9660, 741.2188
586.1370, 438.2969
587.3070, 689.9688
588.4770, 719.1250
589.6470, 942.8906
590.8170, 1096.578
591.9870, 1222.156
593.1560, 887.5469
594.3260, 1292.953
595.4950, 1273.312
596.6640, 1347.562
597.8330, 1728.859
599.0010, 1663.188
600.1700, 1838.500
601.3380, 1974.766
602.5070, 1897.016
603.6750, 2098.188
604.8430, 2184.250
606.0100, 1903.375
607.1780, 2888.438
608.3450, 2437.562
609.5130, 3426.562
610.6800, 3793.578
611.8470, 4085.516
613.0140, 4780.453
614.1800, 4347.375
615.3470, 5958.250
616.5130, 5894.938
617.6790, 6743.328
618.8450, 7757.156
620.0110, 7677.281
621.1770, 9515.297
622.3420, 9859.297
623.5080, 10714.83
624.6730, 10786.02
625.8380, 12623.31
627.0030, 12893.08
628.1680, 14501.53
629.3320, 15978.75
630.4970, 17457.67
631.6610, 18842.67
632.8250, 19810.36
633.9890, 21414.69
635.1530, 22398.31
636.3160, 24417.16
637.4800, 24493.53
638.6430, 25506.05
639.8060, 26036.58
640.9690, 25871.94
642.1320, 25982.45
643.2950, 25454.27
644.4570, 24978.53
645.6200, 25038.89
646.7820, 24778.88
647.9440, 24013.30
649.1060, 24132.14
650.2670, 24573.41
651.4290, 23921.27
652.5900, 23944.47
653.7520, 24181.53
654.9130, 24964.55
656.0740, 24495.59
657.2340, 25773.50
658.3950, 25787.78
659.5550, 26834.77
660.7160, 27901.97
661.8760, 29108.11
663.0360, 30586.59
664.1960, 32354.19
665.3550, 33196.75
666.5150, 36408.98
667.6740, 38504.02
668.8330, 40715.22
669.9920, 44742.19
671.1510, 48370.84
672.3100, 52884.23
673.4680, 58952.52
674.6270, 64052.80
675.7850, 71434.19
676.9430, 77799.38
678.1010, 85133.06
679.2590, 90724.20
680.4160, 97146.36
681.5740, 101610.6
682.7310, 104486.7
683.8880, 104709.9
685.0450, 103657.4
686.2020, 101243.2
687.3580, 95024.88
688.5150, 90241.44
689.6710, 82879.86
690.8270, 76720.56
691.9830, 68707.03
693.1390, 61155.33
694.2950, 54954.44
695.4500, 47945.05
696.6050, 42611.94
697.7610, 36456.33
698.9160, 31682.02
700.0710, 27195.48
701.2250, 23379.80
702.3800, 19879.25
703.5340, 17134.84
704.6880, 15125.27
705.8420, 13275.34
706.9960, 11746.56
708.1500, 10383.45
709.3040, 9309.531
710.4570, 8402.359
711.6100, 7959.734
712.7640, 7583.297
713.9160, 6752.312
715.0690, 6336.344
716.2220, 5397.250
717.3740, 5098.266
718.5270, 4478.156
719.6790, 4179.109
720.8310, 3919.406
721.9830, 3675.500
723.1340, 3571.141
724.2860, 3125.484
725.4370, 2996.469
726.5880, 3290.984
727.7390, 2824.531
728.8900, 1987.422
730.0410, 1850.531
731.1910, 2511.703
732.3420, 1741.547
733.4920, 1980.844
734.6420, 2388.484
735.7920, 2435.375
736.9420, 1155.672
738.0910, 1659.719
739.2410, 2386.453
740.3900, 1161.859
741.5390, 1504.766
742.6880, 1831.719
743.8370, 1312.312
744.9860, 1699.719
746.1340, 1398.797
747.2820, 1253.312
748.4310, 1282.594
749.5790, 1416.047
750.7260, 1234.516
751.8740, 1646.281
753.0220, 933.3906
754.1690, 1749.375
755.3160, 1076.719
756.4630, 842.0156
757.6100, 1333.484
758.7570, 626.6719
759.9030, 1292.469
761.0500, 538.2500
762.1960, 1115.344
763.3420, 527.9688
764.4880, 779.6406
765.6340, 550.3125
766.7790, 1282.797
767.9250, 376.0781
769.0700, 622.4062
770.2150, 1445.891
771.3600, 1088.750
772.5050, 1234.469
773.6490, 793.0781
774.7940, 1255.516
775.9380, 814.5156
777.0820, 1081.344
778.2260, 1167.875
779.3700, 262.0156
780.5140, 1279.594
781.6570, 917.2656
782.8010, 1202.047
783.9440, 485.6875
785.0870, 957.4062
786.2300, 864.3906
787.3720, 728.7969
788.5150, 927.5156
789.6570, 1224.672
790.8000, 824.8281
791.9420, 1008.109
793.0840, 538.9375
794.2250, 1408.875
795.3670, 2411.484
796.5080, 1304.094
797.6500, 1115.484
798.7910, 1395.797
799.9320, 2280.250
801.0720, 1861.500
802.2130, 1197.625
803.3530, 447.5625
804.4940, 1670.422
805.6340, 1254.953
806.7740, 1649.891
807.9140, 1060.328
809.0530, 2094.047
810.1930, 1584.109
811.3320, 1234.562
812.4710, 1074.797
813.6100, 384.2031
814.7490, 1286.531
815.8880, 668.7500
817.0270, 1274.906
818.1650, 235.0469
819.3030, 859.6094
820.4410, 1105.109
821.5790, 628.4375
822.7170, 916.0312
823.8540, 493.5156
824.9920, 988.8906
826.1290, 707.4062
827.2660, 317.6250
828.4030, 623.7344
829.5400, 280.3125
830.6760, 65.70312
831.8130, 141.2969
832.9490, 579.8281
834.0850, 573.7969
835.2210, 162.3750
836.3570, 934.1562
837.4930, 166.5625
838.6280, 703.7656
839.7640, 362.3438
840.8990, 664.2969
842.0340, 284.9375
843.1690, 919.5156
844.3030, 752.8281
845.4380, 7.015625
846.5720, 445.9688
847.7060, 59.21875
848.8400, 576.3438
849.9740, 420.7812
851.1080, 200.9375
852.2420, 555.0312
853.3750, 144.8906
854.5080, 748.5781
855.6410, 417.1406
856.7740, 242.5469
857.9070, 274.1406
859.0400, 334.8281
860.1720, 645.6719
861.3040, 395.3594
862.4360, 50.89062
863.5680, 11.75000
864.7000, 157.3906
865.8320, 115.3906
866.9630, 100.1875
868.0950, 122.1094
869.2260, 164.6719
870.3570, 40.54688
871.4880, 384.4062
872.6180, 503.7656
873.7490, 87.54688
874.8790, 291.6094
876.0090, 319.9375
877.1390, 459.3906
878.2690, 30.67188
879.3990, 632.2031
880.5280, 25.60938
881.6580, 596.2344
882.7870, 213.6406
883.9160, 253.6562
885.0450, 67.78125
886.1740, 170.1250
887.3020, 247.2656
888.4310, 189.3750
889.5590, 602.7500
890.6870, 978.7344
891.8150, 759.5156
892.9430, 936.1406
894.0700, 966.7500
895.1980, 1348.219
896.3250, 1569.625
897.4520, 924.5625
898.5790, 1521.703
899.7060, 1001.344
900.8330, 1200.859
901.9590, 1006.312
903.0850, 1371.953
904.2120, 976.3906
905.3380, 1137.719
906.4630, 1418.969
907.5890, 1369.984
908.7150, 1366.266
909.8400, 1673.484
910.9650, 1099.234
912.0900, 864.5781
913.2150, 677.8750
914.3400, 736.0000
915.4640, 839.7969
916.5890, 1370.844
917.7130, 977.8594
918.8370, 1643.672
919.9610, 968.6406
921.0850, 1120.547
922.2080, 1360.922
923.3320, 907.5938
924.4550, 2238.938
925.5780, 1220.062
926.7010, 918.7344
927.8240, 1855.016
928.9460, 942.2188
930.0690, 1598.812
931.1910, 980.3438
932.3130, 1487.719
933.4350, 987.8281
934.5570, 1183.953
935.6790, 1203.969
936.8000, 973.8906
937.9220, 1379.703
939.0430, 1264.406
940.1640, 820.9688
941.2850, 765.3750
942.4050, 1565.656
943.5260, 1202.375
944.6460, 644.3906
945.7660, 1369.250
946.8860, 545.9844
948.0060, 1503.141
949.1260, 1347.281
950.2460, 1236.609
951.3650, 1287.672
952.4840, 1361.750
953.6030, 1090.688
954.7220, 1079.141
955.8410, 844.4375
956.9590, 1500.625
958.0780, 1230.906
959.1960, 1903.297
960.3140, 1185.625
961.4320, 1824.688
962.5500, 1552.984
963.6680, 1491.453
964.7850, 1579.891
965.9020, 1490.625
967.0190, 1562.156
968.1360, 1503.219
969.2530, 1762.844
970.3700, 1717.906
971.4860, 1949.797
972.6030, 2160.969
973.7190, 1053.609
974.8350, 2170.719
975.9510, 1620.000
977.0660, 2524.516
978.1820, 1857.594
979.2970, 2011.844
980.4130, 2327.375
981.5280, 2129.078
982.6420, 2198.031
983.7570, 2221.250
984.8720, 2929.484
985.9860, 2815.094
987.1000, 2346.688
988.2140, 3322.859
989.3280, 2891.688
990.4420, 2598.688
991.5560, 3034.109
992.6690, 2848.219
993.7820, 3160.594
994.8950, 2687.766
996.0080, 3441.406
997.1210, 2794.594
998.2340, 3020.578
999.3460, 2619.891
1000.458, 3445.406
1001.571, 4054.938
1002.683, 4472.266
1003.794, 4045.625
1004.906, 4687.344
1006.017, 4882.031
1007.129, 5053.047
1008.240, 5835.594
1009.351, 5537.609
1010.462, 6300.328
1011.572, 6682.141
1012.683, 7228.609
1013.793, 7309.078
1014.904, 7559.125
1016.014, 8199.062
1017.123, 8643.469
1018.233, 8709.859
1019.343, 9302.250
1020.452, 9986.281
1021.561, 10181.77
1022.670, 11683.94
1023.779, 12961.83
1024.888, 15772.78
1025.997, 18369.41
1027.105, 20623.22
1028.213, 25068.58
1029.321, 29054.30
1030.429, 33486.02
1031.537, 38834.05
1032.645, 44136.89
1033.752, 48711.56
1034.859, 52363.14
1035.966, 54515.02
1037.073, 54780.22
1038.180, 54415.80
1039.287, 50606.84
1040.393, 47077.59
1041.500, 42697.00
1042.606, 37386.58
1043.712, 33614.00
1044.818, 28791.53
1045.923, 26356.03
1047.029, 22788.62
1048.134, 20655.17
1049.239, 17952.31
1050.344, 17445.03
1051.449, 15686.75
1052.554, 13964.52
1053.658, 13263.45
1054.763, 11475.69
1055.867, 11304.89
1056.971, 10253.17
1058.075, 9060.859
1059.179, 7907.438
1060.282, 7340.969
1061.385, 7554.625
1062.489, 6458.000
1063.592, 6352.188
1064.695, 5600.578
1065.797, 5010.984
1066.900, 5430.812
1068.002, 3946.969
1069.105, 4575.406
1070.207, 3777.766
1071.309, 3532.984
1072.411, 3622.750
1073.512, 3287.234
1074.614, 2994.969
1075.715, 2371.781
1076.816, 3385.953
1077.917, 3931.984
1079.018, 4039.688
1080.118, 2383.516
1081.219, 3003.953
1082.319, 2715.328
1083.419, 2386.859
1084.519, 3328.219
1085.619, 1930.672
1086.719, 2849.766
1087.818, 2843.500
1088.918, 3261.047
1090.017, 2773.469
1091.116, 2559.500
1092.215, 3260.672
1093.314, 3467.625
1094.412, 2862.484
1095.510, 3317.688
1096.609, 1889.516
1097.707, 2103.828
1098.805, 3029.031
1099.902, 2470.797
1101.000, 2931.234
1102.097, 1373.000
1103.195, 1947.859
1104.292, 1252.281
1105.389, 1123.203
1106.485, 1449.000
1107.582, 1395.719
1108.678, 1424.812
1109.775, 1718.953
1110.871, 1187.969
1111.967, 1375.031
1113.062, 1155.938
1114.158, 1625.719
1115.254, 645.4844
1116.349, 1497.141
1117.444, 1658.750
1118.539, 88.68750
1119.634, 45.70312
1120.728, 754.9844
1121.823, 823.1719
1122.917, 211.7031
1124.011, 458.1562
1125.105, 324.0625
1126.199, 409.8125
1127.293, 735.5312
1128.386, 924.2656
1129.480, 983.8438
1130.573, 422.3750
1131.666, 632.1719
1132.759, 666.7969
1133.851, 126.3750
1134.944, 1011.047
1136.036, 565.3906
1137.129, 172.0156
1138.221, 39.04688
1139.313, 601.1094
1140.404, 200.8438
1141.496, 5.046875
1142.587, 387.0781
1143.678, 609.4531
1144.770, 444.9219
1145.860, 492.4688
1146.951, 298.9531
1148.042, 261.5469
1149.132, 245.9688
1150.223, 223.6094
1151.313, 194.4688
1152.403, 347.4688
1153.492, 303.7188
1154.582, 219.8281
1155.671, 545.1094
1156.761, 372.2656
1157.850, 59.87500
1158.939, 351.8281
1160.028, 260.3125
1161.116, 521.2656
1162.205, 570.6406
1163.293, 222.4531
1164.381, 246.1250
1165.469, 431.8125
1166.557, 893.9375
1167.645, 535.9688
1168.732, 856.8906
1169.820, 638.7500
1170.907, 580.5156
1171.994, 406.1875
1173.081, 570.3125
1174.167, 602.3125
1175.254, 625.6562
1176.340, 952.5156
1177.426, 1092.719
1178.512, 182.8125
1179.598, 842.8281
1180.684, 133.7656
1181.770, 549.5938
1182.855, 792.3281
1183.940, 249.0312
1185.025, 732.3438
1186.110, 133.6406
1187.195, 466.8125
1188.280, 676.8906
1189.364, 411.8906
1190.448, 948.7969
1191.532, 370.6094
1192.616, 345.3281
1193.700, 59.03125
1194.784, 852.4219
1195.867, 1109.812
1196.950, 181.0938
1198.034, 269.2969
1199.117, 123.6094
1200.199, 442.2969
1201.282, 235.0938
1202.364, 562.4062
1203.447, 394.4375
1204.529, 1162.953
1205.611, 1050.422
1206.693, 1182.797
1207.774, 1416.688
1208.856, 970.3438
1209.937, 1227.500
1211.018, 1018.609
1212.099, 174.6250
1213.180, 768.5469
1214.261, 418.4062
1215.341, 892.1719
1216.422, 1236.859
1217.502, 785.4688
1218.582, 418.0156
1219.662, 86.51562
1220.742, 203.7656
1221.821, 674.9688
1222.900, 128.9219
1223.980, 900.0156
1225.059, 85.15625
1226.138, 131.5156
1227.216, 684.0938
1228.295, 406.5938
1229.373, 405.0156
1230.452, 755.3594
1231.530, 15.39062
1232.608, 375.7344
1233.685, 884.7969
1234.763, 549.7656
1235.840, 1053.766
1236.918, 79.48438
1237.995, 1442.203
1239.072, 2065.812
1240.149, 2138.344
1241.225, 398.8125
1242.302, 1220.203
1243.378, 847.5156
1244.454, 688.7656
1245.530, 973.7188
1246.606, 1067.844
1247.681, 1000.891
1248.757, 1047.812
1249.832, 1332.750
1250.907, 1594.875
1251.982, 1305.516
1253.057, 842.1406
1254.132, 729.8438
1255.206, 781.9375
1256.281, 618.9531
1257.355, 342.6719
1258.429, 1079.031
1259.503, 1266.344
1260.576, 505.5781
1261.650, 523.6094
1262.723, 53.28125
1263.797, 247.0625
1264.870, 264.9844
1265.942, 410.4062
1267.015, 557.7188
1268.088, 788.9375
1269.160, 712.3281
1270.232, 808.5156
1271.304, 726.5312
1272.376, 866.8750
1273.448, 1042.141
1274.520, 970.1406
1275.591, 751.3125
1276.662, 747.1094
1277.733, 626.6875
1278.804, 86.48438
1279.875, 104.5938
1280.946, 546.7500
1282.016, 860.9375
1283.086, 4.093750
1284.156, 1275.969
1285.226, 961.0938
1286.296, 247.7812
1287.366, 1562.875
1288.435, 1025.375
1289.505, 512.6250
1290.574, 139.2812
1291.643, 111.6562
1292.711, 201.6250
1293.780, 9.218750
1294.849, 438.5312
1295.917, 560.6250
1296.985, 1447.281
1298.053, 882.2812
1299.121, 123.6562
1300.189, 554.0625
1301.256, 177.0000
1302.323, 173.4062
1303.391, 1470.188
1304.458, 164.3438
1305.524, 1067.938
1306.591, 660.5312
1307.658, 1080.250
1308.724, 1348.719
1309.790, 739.4375
1310.856, 1814.625
1311.922, 512.8750
1312.988, 1315.562
1314.053, 1109.469
1315.119, 1309.906
1316.184, 1977.719
1317.249, 767.3750
1318.314, 1389.906
1319.379, 816.1562
1320.443, 406.6562
1321.508, 1020.031
1322.572, 747.7812
1323.636, 942.0938
1324.700, 361.4062
1325.764, 661.0938
1326.827, 986.1250
1327.891, 624.8750
1328.954, 762.8125
1330.017, 553.4688
1331.080, 779.6875
1332.143, 434.2188
1333.205, 1005.344
1334.268, 1294.469
1335.330, 1321.812
1336.392, 1160.562
1337.454, 1600.594
1338.516, 1205.594
1339.578, 1212.594
1340.639, 405.0938
1341.701, 692.0312
1342.762, 799.5625
1343.823, 758.4688
1344.883, 1187.375
1345.944, 527.2500
1347.005, 1373.781
1348.065, 582.9688
1349.125, 538.5938
1350.185, 1977.156
1351.245, 508.7812
1352.305, 1651.688
1353.364, 395.1250
1354.424, 725.5000
1355.483, 1772.125
1356.542, 469.6250
1357.601, 1130.125
1358.659, 1032.812
1359.718, 1030.719
1360.776, 1065.062
1361.834, 735.7188
1362.893, 1546.469
1363.950, 1202.094
1365.008, 1656.219
1366.066, 821.8750
1367.123, 535.5312
1368.180, 790.1875
1369.237, 1341.719
1370.294, 366.3125
1371.351, 1362.844
1372.408, 73.34375
1373.464, 1144.875
1374.520, 265.4062
1375.576, 276.9375
1376.632, 1014.438
1377.688, 189.9688
1378.744, 514.5000
1379.799, 122.0625
1380.854, 906.6875
1381.910, 766.3438
1382.965, 342.0312
1384.019, 1050.625
1385.074, 723.2188
1386.128, 1046.875
1387.183, 1175.531
1388.237, 67.87500
1389.291, 749.3438
1390.345, 4.562500
1391.398, 1052.031
1392.452, 879.6250
1393.505, 543.8438
1394.558, 800.7188
1395.611, 592.3125
1396.664, 564.3438
1397.717, 725.5938
1398.769, 337.6562
1399.822, 777.9062
1400.874, 385.1562
1401.926, 720.4375
1402.978, 1100.750
1404.029, 324.0938
1405.081, 169.4688
1406.132, 327.5625
1407.183, 536.5938
1408.234, 135.2188
1409.285, 3.031250
1410.336, 984.7188
1411.387, 285.2812
1412.437, 854.7188
1413.487, 300.2188
1414.537, 266.3125
1415.587, 1238.438
1416.637, 61.25000
1417.686, 891.1562
1418.736, 421.1562
1419.785, 323.8125
1420.834, 601.1250
1421.883, 443.6562
1422.932, 924.2188
1423.980, 1405.875
1425.029, 1236.562
1426.077, 1184.312
1427.125, 288.1562
1428.173, 1049.531
1429.221, 223.9688
1430.269, 43.96875
1431.316, 1221.625
1432.363, 218.8750
1433.410, 1207.188
1434.457, 824.6250
1435.504, 19.84375
1436.551, 1712.781
1437.597, 374.5312
1438.644, 996.4375
1439.690, 274.5312
1440.736, 325.7812
1441.781, 1162.156
1442.827, 128.4062
1443.873, 662.5312
1444.918, 980.5000
1445.963, 1123.844
1447.008, 420.9688
1448.053, 772.9688
1449.098, 702.4375
1450.142, 614.8125
1451.186, 1115.875
1452.231, 529.9688
1453.275, 1019.031
1454.319, 1078.156
1455.362, 1332.938
1456.406, 1161.875
1457.449, 1121.562
1458.492, 1508.156
1459.535, 1659.188
1460.578, 1439.844
1461.621, 1707.500
1462.663, 1104.875
1463.706, 1266.125
1464.748, 1756.469
1465.790, 1558.531
1466.832, 1834.062
1467.874, 1929.531
1468.915, 1205.719
1469.957, 1906.812
1470.998, 240.0312
1472.039, 111.7500
1473.080, 1208.531
1474.121, 955.4375
1475.161, 1109.438
1476.202, 715.5312
1477.242, 4.312500
1478.282, 1906.969
1479.322, 0.2500000
1480.362, 996.6250
1481.401, 774.0938
1482.441, 878.6562
1483.480, 1353.031
1484.519, 498.5938
1485.558, 200.2500
1486.597, 1233.938
1487.636, 85.12500
1488.674, 1699.906
1489.712, 2114.031
1490.751, 339.2500
1491.788, 1193.531
1492.826, 216.9375
1493.864, 842.4062
1494.901, 393.8125
1495.939, 595.1875
1496.976, 883.5312
1498.013, 492.0938
1499.050, 713.7188
1500.086, 316.0312
1501.123, 1233.031
1502.159, 1497.031
1503.195, 1280.156
1504.231, 1799.406
1505.267, 1064.844
1506.303, 1727.625
1507.338, 1460.375
1508.374, 855.1562
1509.409, 843.6562
1510.444, 1360.656
1511.479, 1334.688
1512.514, 1277.781
1513.548, 746.9688
1514.583, 1920.656
1515.617, 1034.469
1516.651, 1620.188
1517.685, 1428.500
1518.718, 1552.906
1519.752, 1241.969
1520.785, 1691.188
1521.819, 2308.531
1522.852, 2607.094
1523.885, 1146.750
1524.917, 1802.562
1525.950, 1137.562
1526.982, 802.7188
1528.015, 1307.031
1529.047, 1196.500
1530.079, 2247.938
1531.110, 1390.594
1532.142, 1550.531
1533.173, 2064.062
1534.205, 1437.750
1535.236, 2277.219
1536.267, 2123.344
1537.298, 3330.438
1538.328, 2643.125
1539.359, 2408.375
1540.389, 3455.125
1541.419, 1758.469
1542.449, 2310.312
1543.479, 1922.906
1544.508, 1832.094
1545.538, 1558.031
1546.567, 712.3438
1547.596, 1005.094
1548.625, 2717.250
1549.654, 928.9688
1550.683, 2680.219
1551.711, 2111.031
1552.740, 1673.531
1553.768, 2092.656
1554.796, 852.5000
1555.824, 2072.156
1556.851, 1436.688
1557.879, 575.1250
1558.906, 1462.812
1559.933, 1226.594
1560.960, 1599.562
1561.987, 1421.781
1563.014, 1080.344
1564.041, 1687.375
1565.067, 977.0625
1566.093, 874.6250
1567.119, 924.2188
1568.145, 639.1562
1569.171, 267.2500
1570.196, 627.3125
1571.222, 1651.250
1572.247, 1622.188
1573.272, 808.7500
1574.297, 1909.938
1575.322, 1460.625
1576.346, 888.6250
1577.371, 1460.156
1578.395, 103.5312
1579.419, 1329.312
1580.443, 0.0000000E+00
##END=



