##NAMES=Fluorophlogopite
##RRUFFID=R040042
##IDEAL CHEMISTRY=KMg_3_(Si_3_Al)O_10_F_2_
##LOCALITY=Franklin, Sussex County, New Jersey, USA
##OWNER=RRUFF
##SOURCE=University of Arizona Mineral Museum
##DESCRIPTION=Brown flattened hexagonal prism, polytype 1M
##STATUS=The identification of this mineral has been confirmed by X-ray diffraction and chemical analysis
##URL=rruff.info/R040042
##MEASURED CHEMISTRY=(K_0.92_Na_0.08_)_Σ=1_(Mg_2.95_Fe_0.05_)_Σ=3_(Si_3.00_Al_1.00_)O_10_(F_1.40_(OH)_0.60_)_Σ=2_; trace amounts of Ti; OH estimated by charge balance
##PIN_ID=L00310
##ORIENTATION=Laser parallel to c* (0 0 1). Fiducial mark perpendicular to laser is parallel to -a [-1 0 0]
128.8070, 0.0000000E+00
130.0370, 1.980469
131.2670, 453.8633
132.4970, 394.9102
133.7260, 258.6602
134.9550, 112.3320
136.1850, 247.5547
137.4140, 356.5391
138.6420, 474.8711
139.8710, 731.7461
141.1000, 724.6133
142.3280, 775.3613
143.5560, 501.5625
144.7840, 680.1875
146.0120, 542.2422
147.2400, 396.4961
148.4680, 482.0273
149.6950, 133.1914
150.9220, 459.2500
152.1500, 462.1406
153.3770, 119.8047
154.6030, 55.17969
155.8300, 314.2383
157.0570, 370.9336
158.2830, 388.7383
159.5090, 25.76172
160.7350, 290.5625
161.9610, 413.7188
163.1870, 30.63672
164.4130, 258.9766
165.6380, 254.9766
166.8630, 394.5508
168.0880, 904.9219
169.3130, 1219.711
170.5380, 1208.898
171.7630, 1375.461
172.9870, 1377.352
174.2120, 1566.152
175.4360, 2218.012
176.6600, 1966.738
177.8840, 2652.711
179.1080, 2939.926
180.3310, 3375.391
181.5550, 4081.113
182.7780, 4732.109
184.0010, 5359.398
185.2240, 6381.973
186.4470, 8000.820
187.6700, 10490.92
188.8920, 12513.28
190.1150, 15713.88
191.3370, 18800.70
192.5590, 23291.74
193.7810, 28392.99
195.0020, 33284.45
196.2240, 38576.10
197.4450, 42183.94
198.6670, 43973.96
199.8880, 43028.16
201.1090, 39414.55
202.3300, 33774.15
203.5500, 28115.02
204.7710, 22509.11
205.9910, 17887.37
207.2110, 13980.77
208.4310, 11154.27
209.6510, 9039.867
210.8710, 7204.672
212.0910, 5904.547
213.3100, 4917.383
214.5290, 4766.207
215.7480, 3648.980
216.9670, 3259.586
218.1860, 3050.973
219.4050, 2301.395
220.6230, 2248.828
221.8420, 1997.344
223.0600, 1778.945
224.2780, 1530.629
225.4960, 933.4102
226.7130, 1158.277
227.9310, 823.2344
229.1480, 797.2812
230.3660, 1036.562
231.5830, 876.1758
232.8000, 563.2500
234.0160, 490.5977
235.2330, 793.2344
236.4490, 462.1758
237.6660, 902.3516
238.8820, 418.7500
240.0980, 685.3750
241.3140, 221.0430
242.5300, 454.7578
243.7450, 323.5078
244.9600, 371.2969
246.1760, 593.1406
247.3910, 199.0156
248.6060, 327.9297
249.8200, 205.8750
251.0350, 248.8672
252.2500, 270.8984
253.4640, 300.8203
254.6780, 376.3672
255.8920, 468.2422
257.1060, 538.4375
258.3190, 656.6562
259.5330, 752.9766
260.7460, 956.2578
261.9600, 1042.570
263.1730, 1442.961
264.3850, 1839.391
265.5980, 2189.180
266.8110, 2802.477
268.0230, 3503.109
269.2360, 4013.844
270.4480, 4930.664
271.6600, 6211.508
272.8710, 6944.375
274.0830, 8771.266
275.2950, 10456.16
276.5060, 12484.02
277.7170, 14799.52
278.9280, 16409.30
280.1390, 17406.56
281.3500, 17509.55
282.5600, 16577.33
283.7710, 14492.78
284.9810, 12783.88
286.1910, 10758.45
287.4010, 8834.703
288.6110, 7660.391
289.8200, 6713.008
291.0300, 6042.258
292.2390, 5435.773
293.4480, 5051.359
294.6570, 4829.344
295.8660, 4885.641
297.0750, 5013.469
298.2830, 5325.508
299.4920, 5368.922
300.7000, 5712.328
301.9080, 6393.453
303.1160, 6686.969
304.3240, 7723.422
305.5310, 8471.047
306.7390, 9493.750
307.9460, 10825.12
309.1530, 12289.20
310.3600, 13760.22
311.5670, 14764.35
312.7740, 17301.22
313.9800, 18268.47
315.1870, 18833.78
316.3930, 19491.16
317.5990, 19829.60
318.8050, 20096.10
320.0110, 20217.88
321.2160, 20099.57
322.4220, 19647.32
323.6270, 19631.12
324.8320, 18750.98
326.0370, 17561.90
327.2420, 16754.88
328.4460, 15167.91
329.6510, 13899.28
330.8550, 12626.02
332.0590, 11330.33
333.2630, 9384.133
334.4670, 9285.336
335.6710, 7613.461
336.8740, 6399.539
338.0780, 5813.758
339.2810, 4976.234
340.4840, 4670.352
341.6870, 4066.750
342.8900, 3725.023
344.0920, 3518.586
345.2950, 3410.328
346.4970, 2631.945
347.6990, 2545.609
348.9010, 2385.258
350.1030, 2513.203
351.3050, 2284.930
352.5060, 2315.672
353.7080, 2032.461
354.9090, 1901.266
356.1100, 2004.086
357.3110, 1985.930
358.5110, 2115.805
359.7120, 1891.688
360.9120, 2272.602
362.1130, 2087.531
363.3130, 2314.492
364.5130, 2247.469
365.7120, 2671.484
366.9120, 2296.500
368.1120, 2315.547
369.3110, 2588.625
370.5100, 2775.719
371.7090, 2630.828
372.9080, 2526.969
374.1070, 2544.117
375.3050, 2569.289
376.5040, 2252.484
377.7020, 2184.695
378.9000, 1954.883
380.0980, 1908.148
381.2950, 1682.398
382.4930, 1792.648
383.6910, 1646.094
384.8880, 1832.180
386.0850, 1465.461
387.2820, 1359.750
388.4790, 1187.445
389.6750, 1759.344
390.8720, 1152.648
392.0680, 1508.969
393.2640, 1766.562
394.4600, 1372.023
395.6560, 1481.359
396.8520, 2014.688
398.0480, 1463.039
399.2430, 1245.711
400.4380, 1151.758
401.6330, 1461.172
402.8280, 1616.938
404.0230, 1630.672
405.2180, 1081.484
406.4120, 1260.516
407.6060, 1154.578
408.8000, 1027.836
409.9940, 1310.555
411.1880, 838.7109
412.3820, 1114.875
413.5750, 1092.180
414.7690, 1206.102
415.9620, 1024.227
417.1550, 933.6953
418.3480, 1139.023
419.5410, 1180.523
420.7330, 964.5234
421.9260, 1087.039
423.1180, 604.7266
424.3100, 653.2109
425.5020, 930.5859
426.6940, 729.4141
427.8850, 857.3125
429.0770, 859.8750
430.2680, 357.9766
431.4590, 49.30469
432.6500, 122.3672
433.8410, 121.0391
435.0320, 169.3281
436.2220, 166.3594
437.4130, 10.42969
438.6030, 496.7891
439.7930, 623.0469
440.9830, 543.3047
442.1730, 400.1875
443.3620, 323.4844
444.5520, 378.5781
445.7410, 611.6406
446.9300, 506.6875
448.1190, 620.1641
449.3080, 705.0312
450.4960, 1145.609
451.6850, 983.0938
452.8730, 1022.883
454.0610, 820.7969
455.2490, 794.9062
456.4370, 669.4688
457.6250, 556.0234
458.8130, 369.5859
460.0000, 272.3047
461.1870, 421.7031
462.3740, 66.27344
463.5610, 466.7734
464.7480, 471.3281
465.9340, 223.8828
467.1210, 502.4453
468.3070, 361.3672
469.4930, 272.9219
470.6790, 182.4844
471.8650, 148.9609
473.0510, 21.50000
474.2360, 65.07031
475.4210, 52.82779
476.6070, 220.5234
477.7920, 90.49219
478.9770, 136.5312
480.1610, 90.03125
481.3460, 124.8672
482.5300, 118.1562
483.7140, 185.5156
484.8980, 103.0078
486.0820, 223.4297
487.2660, 332.1328
488.4500, 237.1094
489.6330, 106.6719
490.8160, 153.5156
492.0000, 98.53125
493.1830, 269.5703
494.3650, 703.6016
495.5480, 538.6328
496.7300, 676.6562
497.9130, 482.6797
499.0950, 797.6953
500.2770, 965.6953
501.4590, 747.7031
502.6410, 960.6953
503.8220, 591.6953
505.0030, 961.6875
506.1850, 1059.656
507.3660, 1796.633
508.5470, 1956.609
509.7270, 1601.570
510.9080, 2210.516
512.0880, 2505.461
513.2690, 2478.406
514.4490, 2258.344
515.6290, 2244.273
516.8090, 2194.195
517.9880, 1977.102
519.1680, 1901.414
520.3470, 1782.906
521.5260, 1546.797
522.7050, 1058.680
523.8840, 747.5547
525.0630, 718.4219
526.2410, 874.2812
527.4200, 733.1406
528.5980, 760.9766
529.7760, 654.8125
530.9540, 654.6406
532.1320, 680.4609
533.3090, 372.2656
534.4870, 96.07031
535.6640, 12.86719
536.8410, 496.6406
538.0180, 231.4062
539.1950, 266.1641
540.3710, 46.09375
541.5480, 48.60938
542.7240, 29.71094
543.9000, 340.9375
545.0760, 130.5703
546.2520, 61.80469
547.4280, 611.7578
548.6040, 122.6719
549.7790, 108.8047
550.9540, 56.26562
552.1290, 408.7188
553.3040, 73.16406
554.4790, 324.6016
555.6530, 533.0469
556.8280, 734.4609
558.0020, 660.9766
559.1760, 712.4219
560.3500, 812.6875
561.5240, 507.1172
562.6980, 709.2812
563.8710, 749.6406
565.0440, 143.9297
566.2170, 372.5234
567.3900, 266.7734
568.5630, 147.3047
569.7360, 493.2969
570.9090, 18.46094
572.0810, 320.0625
573.2530, 319.1250
574.4250, 468.3906
575.5970, 281.2734
576.7690, 195.2500
577.9400, 219.3047
579.1120, 358.2578
580.2830, 521.6641
581.4540, 357.8438
582.6250, 485.9775
583.7960, 429.7266
584.9660, 448.9922
586.1370, 336.0312
587.3070, 181.9453
588.4770, 336.9922
589.6470, 65.00781
590.8170, 139.0156
591.9870, 274.0625
593.1560, 31.90625
594.3260, 152.1250
595.4950, 102.8203
596.6640, 184.2500
597.8330, 218.4062
599.0010, 280.5543
600.1700, 413.8828
601.3380, 410.1562
602.5070, 281.5000
603.6750, 238.3047
604.8430, 626.0312
606.0100, 308.3906
607.1780, 416.7500
608.3450, 30.90625
609.5130, 548.4141
610.6800, 354.7344
611.8470, 1049.047
613.0140, 616.0781
614.1800, 872.7734
615.3470, 1184.945
616.5130, 990.6797
617.6790, 1490.047
618.8450, 1293.594
620.0110, 1884.219
621.1770, 1854.734
622.3420, 2243.031
623.5080, 1952.711
624.6730, 2489.141
625.8380, 2880.734
627.0030, 3305.055
628.1680, 3631.227
629.3320, 4100.141
630.4970, 4662.844
631.6610, 5008.203
632.8250, 5551.266
633.9890, 6059.570
635.1530, 6178.867
636.3160, 7181.164
637.4800, 7146.453
638.6430, 7770.750
639.8060, 7298.039
640.9690, 8371.344
642.1320, 8566.672
643.2950, 8120.992
644.4570, 8207.312
645.6200, 8000.633
646.7820, 8241.938
647.9440, 7938.250
649.1060, 8498.562
650.2670, 8427.859
651.4290, 8513.156
652.5900, 8440.453
653.7520, 9060.734
654.9130, 9281.016
656.0740, 9472.289
657.2340, 9942.859
658.3950, 10199.92
659.5550, 10787.08
660.7160, 11077.33
661.8760, 11767.58
663.0360, 12574.81
664.1960, 13589.05
665.3550, 14719.27
666.5150, 15807.53
667.6740, 17143.80
668.8330, 18422.06
669.9920, 19831.33
671.1510, 21513.62
672.3100, 23779.89
673.4680, 26768.17
674.6270, 29449.16
675.7850, 32917.34
676.9430, 37270.62
678.1010, 40793.95
679.2590, 45564.25
680.4160, 48778.23
681.5740, 52301.05
682.7310, 54580.11
683.8880, 56160.44
685.0450, 56542.61
686.2020, 55993.17
687.3580, 53192.48
688.5150, 50969.20
689.6710, 47812.39
690.8270, 44440.45
691.9830, 40621.78
693.1390, 36794.26
694.2950, 33331.57
695.4500, 30046.90
696.6050, 26378.19
697.7610, 23327.36
698.9160, 20620.96
700.0710, 18038.06
701.2250, 15883.22
702.3800, 13845.59
703.5340, 12278.62
704.6880, 10667.68
705.8420, 9440.148
706.9960, 8224.773
708.1500, 7751.891
709.3040, 6722.086
710.4570, 5499.664
711.6100, 5539.172
712.7640, 4777.711
713.9160, 4424.688
715.0690, 4270.188
716.2220, 3706.398
717.3740, 3630.617
718.5270, 3422.375
719.6790, 3313.133
720.8310, 3026.281
721.9830, 2902.500
723.1340, 2993.648
724.2860, 2562.258
725.4370, 2474.344
726.5880, 2066.570
727.7390, 2624.875
728.8900, 2441.414
730.0410, 2077.727
731.1910, 1821.758
732.3420, 1758.141
733.4920, 1744.781
734.6420, 1658.562
735.7920, 1961.656
736.9420, 1894.039
738.0910, 1856.047
739.2410, 1474.938
740.3900, 1205.367
741.5390, 1462.516
742.6880, 1587.070
743.8370, 1581.055
744.9860, 1406.586
746.1340, 1239.250
747.2820, 1137.078
748.4310, 1624.016
749.5790, 1351.211
750.7260, 1783.516
751.8740, 1679.148
753.0220, 1531.906
754.1690, 1424.289
755.3160, 1024.070
756.4630, 1221.109
757.6100, 1221.234
758.7570, 1165.984
759.9030, 1527.734
761.0500, 1127.500
762.1960, 981.2656
763.3420, 663.4609
764.4880, 823.9766
765.6340, 834.3906
766.7790, 1258.219
767.9250, 1175.414
769.0700, 1047.211
770.2150, 889.0312
771.3600, 739.8203
772.5050, 966.8672
773.6490, 902.5859
774.7940, 1247.266
775.9380, 916.1094
777.0820, 806.7578
778.2260, 1320.727
779.3700, 527.2266
780.5140, 1047.242
781.6570, 1197.227
782.8010, 891.4766
783.9440, 922.8672
785.0870, 1114.977
786.2300, 968.8906
787.3720, 1075.172
788.5150, 1485.508
789.6570, 1138.914
790.8000, 684.0781
791.9420, 1226.562
793.0840, 915.7031
794.2250, 1079.742
795.3670, 563.7578
796.5080, 863.2578
797.6500, 1298.188
798.7910, 962.0703
799.9320, 1226.914
801.0720, 885.7188
802.2130, 1101.188
803.3530, 1158.984
804.4940, 654.6797
805.6340, 733.8672
806.7740, 1075.750
807.9140, 876.8906
809.0530, 1516.391
810.1930, 1168.031
811.3320, 958.3750
812.4710, 1106.367
813.6100, 848.0859
814.7490, 501.4609
815.8880, 849.5234
817.0270, 1027.062
818.1650, 1045.367
819.3030, 414.0703
820.4410, 623.9219
821.5790, 493.9688
822.7170, 354.8594
823.8540, 676.5781
824.9920, 139.0859
826.1290, 456.5469
827.2660, 430.6641
828.4030, 560.5000
829.5400, 352.6250
830.6760, 248.4922
831.8130, 480.8828
832.9490, 526.9375
834.0850, 282.2656
835.2210, 420.2969
836.3570, 128.4453
837.4930, 71.15625
838.6280, 242.7500
839.7640, 88.20312
840.8990, 54.71094
842.0340, 218.3359
843.1690, 182.9922
844.3030, 560.7500
845.4380, 767.5391
846.5720, 811.1250
847.7060, 210.3359
848.8400, 442.5312
849.9740, 341.4766
851.1080, 225.0234
852.2420, 573.8984
853.3750, 65.02344
854.5080, 406.3750
855.6410, 408.6328
856.7740, 565.7500
857.9070, 387.8906
859.0400, 312.4219
860.1720, 573.3828
861.3040, 648.5000
862.4360, 71.64062
863.5680, 236.0391
864.7000, 12.71875
865.8320, 76.77344
866.9630, 99.09375
868.0950, 41.65625
869.2260, 52.37500
870.3570, 287.3672
871.4880, 276.5703
872.6180, 233.2109
873.7490, 83.42188
874.8790, 49.51562
876.0090, 249.1562
877.1390, 196.6719
878.2690, 218.0547
879.3990, 34.65625
880.5280, 176.8438
881.6580, 141.0781
882.7870, 248.6328
883.9160, 91.01562
885.0450, 236.3047
886.1740, 49.54688
887.3020, 132.7500
888.4310, 581.8594
889.5590, 23.03125
890.6870, 593.9609
891.8150, 174.1094
892.9430, 524.6172
894.0700, 736.2812
895.1980, 876.8828
896.3250, 709.4609
897.4520, 1226.953
898.5790, 530.3984
899.7060, 218.7812
900.8330, 475.0781
901.9590, 747.3047
903.0850, 537.4609
904.2120, 1118.547
905.3380, 668.5781
906.4630, 919.5312
907.5890, 565.4141
908.7150, 983.2266
909.8400, 857.9609
910.9650, 355.6250
912.0900, 634.2656
913.2150, 23.17969
914.3400, 417.2656
915.4640, 97.64062
916.5890, 284.9453
917.7130, 454.1484
918.8370, 1060.281
919.9610, 475.3594
921.0850, 509.3516
922.2080, 1104.273
923.3320, 635.1250
924.4550, 607.9141
925.5780, 890.7109
926.7010, 575.4375
927.8240, 648.0781
928.9460, 684.6641
930.0690, 1122.164
931.1910, 535.6172
932.3130, 1026.000
933.4350, 844.2969
934.5570, 754.5156
935.6790, 850.6719
936.8000, 259.7500
937.9220, 72.27344
939.0430, 428.5469
940.1640, 116.2812
941.2850, 146.9297
942.4050, 0.4765630
943.5260, 790.8906
944.6460, 394.2344
945.7660, 454.4922
946.8860, 46.34375
948.0060, 274.6641
949.1260, 5.406250
950.2460, 579.3906
951.3650, 453.0938
952.4840, 58.72656
953.6030, 917.2422
954.7220, 16.45312
955.8410, 322.8516
956.9590, 3.945313
958.0780, 333.6797
959.1960, 817.6641
960.3140, 21.19531
961.4320, 475.9062
962.5500, 386.4062
963.6680, 859.0234
964.7850, 710.0234
965.9020, 978.4844
967.0190, 711.8281
968.1360, 168.1328
969.2530, 906.4453
970.3700, 431.2500
971.4860, 45.16406
972.6030, 748.4922
973.7190, 1147.242
974.8350, 1023.242
975.9510, 487.0234
977.0660, 635.3984
978.1820, 351.5391
979.2970, 357.9922
980.4130, 996.3672
981.5280, 255.6562
982.6420, 550.5234
983.7570, 288.2734
984.8720, 1028.500
985.9860, 1368.141
987.1000, 732.0234
988.2140, 848.8047
989.3280, 558.9531
990.4420, 831.0156
991.5560, 319.5938
992.6690, 854.3906
993.7820, 1131.797
994.8950, 556.1484
996.0080, 1003.414
997.1210, 34.88281
998.2340, 1029.734
999.3460, 597.8906
1000.458, 520.5000
1001.571, 910.3672
1002.683, 610.9219
1003.794, 1016.672
1004.906, 779.1719
1006.017, 977.8516
1007.129, 524.9062
1008.240, 409.4219
1009.351, 504.7812
1010.462, 404.0547
1011.572, 723.9844
1012.683, 371.5625
1013.793, 789.1094
1014.904, 1035.320
1016.014, 1119.047
1017.123, 575.8984
1018.233, 848.7344
1019.343, 791.2734
1020.452, 723.2188
1021.561, 1112.125
1022.670, 658.4766
1023.779, 1036.492
1024.888, 1080.414
1025.997, 721.4844
1027.105, 1576.773
1028.213, 1715.383
1029.321, 1776.914
1030.429, 2547.094
1031.537, 2972.875
1032.645, 3266.859
1033.752, 3339.320
1034.859, 3913.305
1035.966, 3868.750
1037.073, 4018.133
1038.180, 4194.695
1039.287, 4195.641
1040.393, 4034.922
1041.500, 3227.531
1042.606, 3255.422
1043.712, 2948.414
1044.818, 2637.961
1045.923, 2782.586
1047.029, 2065.305
1048.134, 2207.703
1049.239, 2004.172
1050.344, 1670.805
1051.449, 1919.617
1052.554, 1533.141
1053.658, 1836.484
1054.763, 1581.617
1055.867, 1799.312
1056.971, 1655.273
1058.075, 1571.852
1059.179, 1904.031
1060.282, 1573.664
1061.385, 1747.164
1062.489, 1591.445
1063.592, 1307.414
1064.695, 1401.031
1065.797, 1214.133
1066.900, 1793.008
1068.002, 1535.977
1069.105, 2066.375
1070.207, 1705.852
1071.309, 1881.562
1072.411, 1950.133
1073.512, 1899.516
1074.614, 2324.812
1075.715, 2657.750
1076.816, 2504.234
1077.917, 3417.469
1079.018, 3150.891
1080.118, 3750.562
1081.219, 3419.109
1082.319, 4322.203
1083.419, 3966.109
1084.519, 5278.609
1085.619, 5889.484
1086.719, 6332.828
1087.818, 6607.250
1088.918, 6852.375
1090.017, 6704.438
1091.116, 6837.984
1092.215, 6959.172
1093.314, 6488.578
1094.412, 6033.266
1095.510, 6571.516
1096.609, 6080.969
1097.707, 6400.375
1098.805, 6411.750
1099.902, 6638.047
1101.000, 6707.078
1102.097, 6654.078
1103.195, 6852.344
1104.292, 6425.750
1105.389, 6425.875
1106.485, 6158.953
1107.582, 5626.031
1108.678, 5541.281
1109.775, 4899.094
1110.871, 4761.656
1111.967, 4657.234
1113.062, 4154.062
1114.158, 3945.094
1115.254, 3283.328
1116.349, 3177.688
1117.444, 2426.047
1118.539, 2774.656
1119.634, 2515.219
1120.728, 2128.750
1121.823, 2086.438
1122.917, 1612.469
1124.011, 1351.375
1125.105, 1709.047
1126.199, 953.3594
1127.293, 848.1094
1128.386, 470.0000
1129.480, 1047.422
1130.573, 571.0938
1131.666, 695.6250
1132.759, 888.4375
1133.851, 524.5938
1134.944, 740.6094
1136.036, 95.39062
1137.129, 185.5781
1138.221, 479.4844
1139.313, 437.4688
1140.404, 673.0000
1141.496, 108.8438
1142.587, 726.5000
1143.678, 477.0000
1144.770, 55.85938
1145.860, 194.9375
1146.951, 284.0781
1148.042, 273.0312
1149.132, 17.79688
1150.223, 39.56250
1151.313, 109.8125
1152.403, 285.1719
1153.492, 178.6250
1154.582, 208.7031
1155.671, 255.5938
1156.761, 458.0312
1157.850, 23.01562
1158.939, 154.1719
1160.028, 55.06250
1161.116, 223.9844
1162.205, 14.01562
1163.293, 88.92188
1164.381, 580.8125
1165.469, 46.84375
1166.557, 311.6406
1167.645, 335.4531
1168.732, 29.76562
1169.820, 503.9062
1170.907, 593.5469
1171.994, 460.1719
1173.081, 314.7656
1174.167, 473.3125
1175.254, 144.1875
1176.340, 564.1875
1177.426, 3.531250
1178.512, 59.10938
1179.598, 125.1562
1180.684, 205.3906
1181.770, 562.5938
1182.855, 19.25000
1183.940, 363.8438
1185.025, 576.9062
1186.110, 6.906250
1187.195, 33.10938
1188.280, 237.2344
1189.364, 22.48438
1190.448, 284.1406
1191.532, 133.7812
1192.616, 702.3594
1193.700, 56.07812
1194.784, 650.4531
1195.867, 447.9531
1196.950, 212.4219
1198.034, 494.8438
1199.117, 291.2344
1200.199, 324.6094
1201.282, 458.4375
1202.364, 192.2969
1203.447, 336.1094
1204.529, 725.8125
1205.611, 944.4688
1206.693, 1001.531
1207.774, 412.2500
1208.856, 657.4844
1209.937, 568.1562
1211.018, 465.1719
1212.099, 827.5312
1213.180, 332.3438
1214.261, 687.3906
1215.341, 702.8438
1216.422, 873.7656
1217.502, 708.1719
1218.582, 646.4531
1219.662, 921.2344
1220.742, 1009.625
1221.821, 805.1719
1222.900, 985.7031
1223.980, 478.3281
1225.059, 574.5312
1226.138, 931.2188
1227.216, 743.4844
1228.295, 930.0312
1229.373, 974.4219
1230.452, 370.6250
1231.530, 893.2188
1232.608, 928.6719
1233.685, 463.7344
1234.763, 947.6719
1235.840, 551.6875
1236.918, 469.7656
1237.995, 624.1250
1239.072, 532.0781
1240.149, 828.5156
1241.225, 750.5000
1242.302, 639.2031
1243.378, 673.6562
1244.454, 573.5156
1245.530, 682.7188
1246.606, 546.8594
1247.681, 671.3750
1248.757, 854.9531
1249.832, 586.4219
1250.907, 796.4531
1251.982, 264.2812
1253.057, 622.6562
1254.132, 16.75000
1255.206, 702.8906
1256.281, 754.4219
1257.355, 164.9219
1258.429, 312.2969
1259.503, 218.7656
1260.576, 188.2031
1261.650, 286.6094
1262.723, 563.0156
1263.797, 445.3750
1264.870, 164.7500
1265.942, 768.4531
1267.015, 145.5156
1268.088, 623.7969
1269.160, 450.8125
1270.232, 91.04688
1271.304, 296.7344
1272.376, 492.9062
1273.448, 396.4688
1274.520, 448.4688
1275.591, 386.4531
1276.662, 721.7656
1277.733, 231.9062
1278.804, 936.9688
1279.875, 8.421875
1280.946, 32.45312
1282.016, 480.9844
1283.086, 37.70312
1284.156, 679.4375
1285.226, 358.6875
1286.296, 339.5625
1287.366, 986.7031
1288.435, 75.20312
1289.505, 786.6562
1290.574, 513.2969
1291.643, 480.3438
1292.711, 901.5000
1293.780, 174.1875
1294.849, 863.1562
1295.917, 266.5625
1296.985, 689.7031
1298.053, 874.8125
1299.121, 346.4844
1300.189, 797.1406
1301.256, 218.7031
1302.323, 446.7812
1303.391, 992.3750
1304.458, 545.6094
1305.524, 1130.203
1306.591, 487.1094
1307.658, 1133.422
1308.724, 831.9531
1309.790, 504.5156
1310.856, 970.0312
1311.922, 291.9062
1312.988, 824.0938
1314.053, 447.5781
1315.119, 955.0312
1316.184, 1360.047
1317.249, 632.2656
1318.314, 1203.000
1319.379, 811.8594
1320.443, 722.0625
1321.508, 647.4844
1322.572, 629.4375
1323.636, 473.8281
1324.700, 478.2031
1325.764, 724.7656
1326.827, 1082.125
1327.891, 565.0000
1328.954, 806.0312
1330.017, 724.5312
1331.080, 1050.016
1332.143, 482.1094
1333.205, 706.4531
1334.268, 708.7812
1335.330, 553.1250
1336.392, 918.4531
1337.454, 568.7812
1338.516, 202.1094
1339.578, 901.4219
1340.639, 468.3906
1341.701, 636.4844
1342.762, 664.8125
1343.823, 744.5156
1344.883, 830.8438
1345.944, 846.2500
1347.005, 937.4688
1348.065, 992.7969
1349.125, 991.1094
1350.185, 1260.422
1351.245, 366.6562
1352.305, 1298.969
1353.364, 920.2812
1354.424, 429.5938
1355.483, 1200.891
1356.542, 51.95312
1357.601, 939.3281
1358.659, 787.6250
1359.718, 291.9219
1360.776, 813.2500
1361.834, 204.1406
1362.893, 845.4531
1363.950, 1058.766
1365.008, 838.0781
1366.066, 953.3906
1367.123, 577.7031
1368.180, 940.0156
1369.237, 571.3281
1370.294, 310.3438
1371.351, 515.6719
1372.408, 219.1094
1373.464, 1015.469
1374.520, 203.7031
1375.576, 603.8906
1376.632, 1357.109
1377.688, 783.2188
1378.744, 1582.359
1379.799, 38.20312
1380.854, 1536.297
1381.910, 150.0781
1382.965, 535.1094
1384.019, 689.1250
1385.074, 463.5000
1386.128, 1031.484
1387.183, 776.0938
1388.237, 192.5781
1389.291, 548.4844
1390.345, 837.5312
1391.398, 589.4531
1392.452, 1280.766
1393.505, 633.7031
1394.558, 904.9531
1395.611, 5.093750
1396.664, 594.8594
1397.717, 526.9062
1398.769, 278.8125
1399.822, 1286.766
1400.874, 538.8438
1401.926, 996.9844
1402.978, 867.1250
1404.029, 343.2656
1405.081, 377.6562
1406.132, 338.8750
1407.183, 871.1562
1408.234, 51.56250
1409.285, 684.8438
1410.336, 507.4062
1411.387, 243.2656
1412.437, 128.0312
1413.487, 28.68750
1414.537, 327.6094
1415.587, 1073.047
1416.637, 91.96875
1417.686, 1148.016
1418.736, 335.0000
1419.785, 182.0000
1420.834, 1062.812
1421.883, 210.1719
1422.932, 395.8125
1423.980, 226.0469
1425.029, 898.0469
1426.077, 1355.031
1427.125, 52.98438
1428.173, 731.9844
1429.221, 333.9531
1430.269, 95.93750
1431.316, 680.9531
1432.363, 178.0156
1433.410, 934.0000
1434.457, 91.03125
1435.504, 731.0781
1436.551, 568.1250
1437.597, 157.2031
1438.644, 1378.297
1439.690, 181.4375
1440.736, 214.6094
1441.781, 577.5000
1442.827, 373.4375
1443.873, 846.4531
1444.918, 448.5000
1445.963, 846.5625
1447.008, 1283.641
1448.053, 248.2500
1449.098, 877.8281
1450.142, 345.9375
1451.186, 246.1250
1452.231, 897.3750
1453.275, 554.7188
1454.319, 495.4844
1455.362, 141.1719
1456.406, 512.9062
1457.449, 404.7031
1458.492, 313.0781
1459.535, 571.4688
1460.578, 494.8594
1461.621, 215.2812
1462.663, 188.6875
1463.706, 272.1250
1464.748, 794.5938
1465.790, 16.95312
1466.832, 667.5469
1467.874, 1032.031
1468.915, 92.57812
1469.957, 738.5781
1470.998, 544.0938
1472.039, 311.6406
1473.080, 716.2188
1474.121, 284.7969
1475.161, 791.4062
1476.202, 6.031250
1477.242, 870.6719
1478.282, 720.1250
1479.322, 423.5312
1480.362, 994.9688
1481.401, 25.26562
1482.441, 188.1094
1483.480, 644.6562
1484.519, 278.2500
1485.558, 838.8594
1486.597, 71.51562
1487.636, 414.2188
1488.674, 403.9688
1489.712, 289.4688
1490.751, 214.2969
1491.788, 743.1562
1492.826, 297.0469
1493.864, 1023.062
1494.901, 60.21875
1495.939, 956.7969
1496.976, 281.9375
1498.013, 89.56250
1499.050, 802.4844
1500.086, 1262.156
1501.123, 1001.188
1502.159, 737.0000
1503.195, 370.8281
1504.231, 528.6562
1505.267, 318.7188
1506.303, 683.1094
1507.338, 902.1250
1508.374, 491.2969
1509.409, 527.0000
1510.444, 1159.719
1511.479, 1378.484
1512.514, 734.3125
1513.548, 483.1875
1514.583, 1381.125
1515.617, 843.3125
1516.651, 1180.875
1517.685, 1150.469
1518.718, 1110.734
1519.752, 1508.312
1520.785, 824.9219
1521.819, 348.5312
1522.852, 837.1250
1523.885, 631.2031
1524.917, 1489.734
1525.950, 896.3906
1526.982, 1093.906
1528.015, 1215.359
1529.047, 555.7031
1530.079, 1360.078
1531.110, 391.4688
1532.142, 848.7812
1533.173, 1009.000
1534.205, 600.6562
1535.236, 929.7656
1536.267, 764.8281
1537.298, 584.6406
1538.328, 890.8281
1539.359, 186.3125
1540.389, 961.7031
1541.419, 925.1875
1542.449, 453.0625
1543.479, 505.8594
1544.508, 503.8750
1545.538, 849.0625
1546.567, 597.1094
1547.596, 154.9531
1548.625, 896.2656
1549.654, 250.8750
1550.683, 1260.391
1551.711, 432.7812
1552.740, 446.1250
1553.768, 660.4375
1554.796, 1092.641
1555.824, 736.5156
1556.851, 1106.781
1557.879, 1306.328
1558.906, 1344.000
1559.933, 735.3906
1560.960, 964.6562
1561.987, 860.5000
1563.014, 743.0781
1564.041, 1091.672
1565.067, 511.2969
1566.093, 848.7344
1567.119, 846.8594
1568.145, 1000.406
1569.171, 817.7031
1570.196, 739.0625
1571.222, 996.9531
1572.247, 1067.594
1573.272, 848.8750
1574.297, 1020.953
1575.322, 507.5000
1576.346, 601.2344
1577.371, 13.26562
1578.395, 98.17188
1579.419, 350.5156
1580.443, 0.0000000E+00
##END=



