##NAMES=Fluorapophyllite-(K)
##RRUFFID=R040095
##IDEAL CHEMISTRY=KCa_4_Si_8_O_20_F&#183;8H_2_O
##LOCALITY=unknown
##OWNER=RRUFF
##SOURCE=University of Arizona Mineral Museum
##DESCRIPTION=Colorless crystals
##STATUS=The identification of this mineral has been confirmed by X-ray diffraction and chemical analysis
##URL=rruff.info/R040095
##MEASURED CHEMISTRY=(K_0.90_Na_0.04_)Ca_3.96_Si_8.00_O_20_(F_0.82_(OH)_0.18_)·8H_2_O
##PIN_ID=L00946
##ORIENTATION=Laser parallel to c* (0 0 1). Fiducial mark perpendicular to laser is parallel to a [1 0 0]
81.94900, 0.0000000E+00
83.19000, 203.0625
84.43100, 1810.535
85.67200, 4116.328
86.91300, 6946.227
88.15400, 10009.61
89.39400, 13335.64
90.63400, 16026.24
91.87400, 17378.20
93.11400, 16197.14
94.35400, 13505.37
95.59300, 10562.88
96.83200, 7357.924
98.07200, 5598.746
99.31000, 5258.562
100.5490, 6106.320
101.7880, 7825.127
103.0260, 10513.66
104.2640, 15033.09
105.5020, 20132.65
106.7400, 24223.09
107.9780, 25094.24
109.2150, 22931.37
110.4520, 18998.66
111.6890, 14818.18
112.9260, 12303.30
114.1630, 11086.02
115.3990, 10356.65
116.6360, 10009.68
117.8720, 10331.68
119.1080, 10751.68
120.3440, 11883.74
121.5790, 13551.88
122.8150, 14847.25
124.0500, 14343.87
125.2850, 13343.55
126.5200, 12131.49
127.7550, 10796.62
128.9890, 10289.96
130.2230, 9869.759
131.4570, 9591.461
132.6910, 8339.928
133.9250, 6609.873
135.1590, 4477.878
136.3920, 2350.603
137.6250, 701.9570
138.8580, 371.0879
140.0910, 1004.559
141.3240, 1438.479
142.5570, 1774.881
143.7890, 1800.784
145.0210, 1726.217
146.2530, 1353.200
147.4850, 718.7607
148.7160, 111.9150
149.9480, 841.3223
151.1790, 2223.168
152.4100, 3720.095
153.6410, 5695.134
154.8710, 7966.564
156.1020, 10559.68
157.3320, 13509.95
158.5620, 16848.37
159.7920, 20487.64
161.0220, 23073.94
162.2520, 24213.20
163.4810, 23376.46
164.7100, 20195.82
165.9390, 16388.49
167.1680, 12631.04
168.3970, 9188.080
169.6250, 6685.387
170.8540, 4788.651
172.0820, 3671.960
173.3100, 3152.651
174.5370, 3358.062
175.7650, 4063.191
176.9920, 5481.026
178.2200, 7550.559
179.4470, 9976.863
180.6740, 13126.72
181.9000, 17305.20
183.1270, 21072.55
184.3530, 25955.64
185.5790, 28149.56
186.8050, 27559.35
188.0310, 25340.29
189.2570, 22059.87
190.4820, 18754.87
191.7070, 15930.95
192.9320, 13587.14
194.1570, 12414.45
195.3820, 11825.86
196.6060, 12415.37
197.8310, 13384.97
199.0550, 15196.64
200.2790, 17562.39
201.5030, 20932.17
202.7260, 25048.98
203.9500, 29686.84
205.1730, 35437.74
206.3960, 41083.65
207.6190, 46869.59
208.8420, 51559.55
210.0640, 54446.53
211.2870, 54607.52
212.5090, 52569.52
213.7310, 48442.54
214.9530, 43647.54
216.1740, 38979.57
217.3960, 34900.44
218.6170, 31764.75
219.8380, 29508.29
221.0590, 27917.35
222.2800, 26832.64
223.5000, 26399.16
224.7210, 26572.46
225.9410, 26715.55
227.1610, 26567.03
228.3810, 26143.29
229.6000, 25250.62
230.8200, 23226.35
232.0390, 21239.33
233.2580, 18548.02
234.4770, 15667.98
235.6960, 13240.73
236.9150, 10565.70
238.1330, 8467.081
239.3510, 6904.795
240.5690, 5566.364
241.7870, 4341.756
243.0050, 3462.938
244.2220, 3025.300
245.4400, 2294.787
246.6570, 1960.457
247.8740, 1714.117
249.0910, 1649.655
250.3070, 1482.201
251.5240, 1428.213
252.7400, 1412.331
253.9560, 1540.060
255.1720, 1615.122
256.3880, 1994.156
257.6030, 2323.345
258.8190, 2680.888
260.0340, 3242.871
261.2490, 3784.334
262.4640, 4410.430
263.6780, 5370.753
264.8930, 6013.340
266.1070, 6590.747
267.3210, 6747.593
268.5350, 6857.605
269.7490, 6447.535
270.9630, 5920.710
272.1760, 5235.976
273.3890, 4549.310
274.6030, 3948.677
275.8150, 3386.080
277.0280, 3159.517
278.2410, 3126.976
279.4530, 3226.446
280.6650, 3377.922
281.8770, 3748.111
283.0890, 4080.395
284.3010, 4733.893
285.5120, 5406.572
286.7230, 6019.604
287.9350, 7134.486
289.1460, 8227.308
290.3560, 9594.530
291.5670, 11140.43
292.7770, 12921.73
293.9880, 14746.80
295.1980, 16191.88
296.4080, 17909.35
297.6170, 18403.81
298.8270, 18625.87
300.0360, 17545.19
301.2450, 16167.47
302.4540, 14242.73
303.6630, 12203.94
304.8720, 10421.11
306.0800, 8709.209
307.2890, 7280.235
308.4970, 6108.171
309.7050, 5122.997
310.9120, 4463.629
312.1200, 3778.018
313.3270, 3400.124
314.5350, 3178.944
315.7420, 2886.520
316.9490, 2905.901
318.1550, 2866.141
319.3620, 2941.854
320.5680, 3105.549
321.7740, 3279.523
322.9800, 3588.935
324.1860, 3829.547
325.3920, 4194.035
326.5970, 4553.388
327.8030, 4939.618
329.0080, 5647.729
330.2130, 6184.724
331.4180, 6649.619
332.6220, 7579.430
333.8270, 7995.173
335.0310, 8602.859
336.2350, 8953.493
337.4390, 8876.066
338.6430, 8922.589
339.8460, 8563.052
341.0500, 7797.454
342.2530, 6949.799
343.4560, 6124.084
344.6590, 5151.308
345.8610, 4224.472
347.0640, 3331.574
348.2660, 2547.612
349.4680, 2074.589
350.6700, 1545.502
351.8720, 1110.348
353.0740, 704.1187
354.2750, 543.8071
355.4770, 287.4097
356.6780, 131.9199
357.8790, 21.33301
359.0790, 41.36768
360.2800, 72.59668
361.4800, 25.17041
362.6810, 43.27100
363.8810, 31.46631
365.0810, 65.04199
366.2800, 137.4312
367.4800, 388.5811
368.6790, 366.5181
369.8780, 563.2861
371.0770, 581.9199
372.2760, 560.4312
373.4750, 448.8252
374.6730, 264.9756
375.8720, 251.8330
377.0700, 23.62500
378.2680, 148.4688
379.4660, 461.7681
380.6630, 518.6904
381.8610, 571.2642
383.0580, 628.5137
384.2550, 632.4629
385.4520, 684.1812
386.6490, 687.4736
387.8460, 719.8267
389.0420, 684.5474
390.2380, 636.5244
391.4340, 468.7651
392.6300, 470.1660
393.8260, 353.9404
395.0210, 319.8145
396.2170, 247.7866
397.4120, 77.44824
398.6070, 28.57764
399.8020, 137.9375
400.9970, 183.6235
402.1910, 196.0254
403.3860, 236.4707
404.5800, 321.1548
405.7740, 389.1504
406.9680, 471.0425
408.1610, 436.8364
409.3550, 507.5312
410.5480, 644.1279
411.7410, 667.6323
412.9340, 922.0444
414.1270, 1145.374
415.3200, 1399.627
416.5120, 1696.804
417.7040, 2216.904
418.8960, 2968.929
420.0880, 3923.837
421.2800, 5238.776
422.4720, 6683.556
423.6630, 8617.728
424.8540, 11087.37
426.0450, 13975.93
427.2360, 17721.46
428.4270, 21821.07
429.6180, 26397.97
430.8080, 30634.34
431.9980, 32701.29
433.1880, 31847.87
434.3780, 28207.14
435.5680, 23133.03
436.7570, 18335.47
437.9470, 13933.30
439.1360, 10390.33
440.3250, 7780.411
441.5140, 6116.478
442.7020, 4660.502
443.8910, 3807.505
445.0790, 3114.481
446.2670, 2768.413
447.4550, 2284.315
448.6430, 2122.201
449.8310, 2056.062
451.0180, 1923.938
452.2060, 1948.820
453.3930, 2143.689
454.5800, 2390.523
455.7660, 2527.350
456.9530, 2830.179
458.1400, 3263.998
459.3260, 3519.822
460.5120, 3793.673
461.6980, 4278.540
462.8840, 4231.407
464.0690, 4191.272
465.2550, 3988.146
466.4400, 3779.035
467.6250, 3304.899
468.8100, 2875.742
469.9950, 2546.535
471.1790, 2038.271
472.3640, 1787.953
473.5480, 1428.576
474.7320, 1374.139
475.9160, 1351.643
477.1000, 1266.087
478.2830, 1391.474
479.4670, 1542.802
480.6500, 1762.072
481.8330, 1898.284
483.0160, 2249.439
484.1980, 2259.537
485.3810, 2488.577
486.5630, 2461.561
487.7450, 2242.488
488.9270, 1932.360
490.1090, 1636.175
491.2910, 1432.935
492.4730, 1210.639
493.6540, 1053.300
494.8350, 933.0078
496.0160, 804.8252
497.1970, 769.4453
498.3780, 675.8218
499.5580, 630.9102
500.7380, 643.1709
501.9190, 624.1367
503.0990, 615.2104
504.2780, 735.2085
505.4580, 675.2388
506.6380, 671.0425
507.8170, 750.6743
508.9960, 624.9307
510.1750, 708.7710
511.3540, 821.5142
512.5320, 805.1260
513.7110, 908.7134
514.8890, 933.2573
516.0670, 1034.333
517.2450, 1157.637
518.4230, 1144.887
519.6010, 1322.598
520.7780, 1473.014
521.9560, 1613.858
523.1330, 1803.236
524.3100, 1949.436
525.4860, 2124.180
526.6630, 2414.829
527.8400, 2625.405
529.0160, 2873.962
530.1920, 3328.696
531.3680, 3645.874
532.5440, 3910.326
533.7190, 4314.593
534.8950, 4645.075
536.0700, 4746.176
537.2450, 5196.763
538.4200, 5280.226
539.5950, 5307.909
540.7690, 5218.201
541.9440, 5137.341
543.1180, 5154.793
544.2920, 5053.411
545.4660, 4856.308
546.6400, 4558.659
547.8140, 4464.386
548.9870, 4353.552
550.1600, 4415.671
551.3330, 4258.179
552.5060, 4120.356
553.6790, 4103.727
554.8520, 4371.257
556.0240, 4252.684
557.1960, 4394.145
558.3680, 4799.645
559.5400, 4866.176
560.7120, 5264.746
561.8840, 5620.350
563.0550, 6003.995
564.2260, 6389.682
565.3980, 7128.408
566.5680, 7556.172
567.7390, 8301.974
568.9100, 9192.814
570.0800, 10340.69
571.2510, 11602.05
572.4210, 13185.55
573.5910, 14643.53
574.7600, 16447.55
575.9300, 18293.59
577.0990, 20674.73
578.2690, 22605.17
579.4380, 24681.88
580.6070, 26960.31
581.7750, 28589.82
582.9440, 29794.86
584.1120, 30048.24
585.2810, 29941.81
586.4490, 28801.25
587.6170, 27308.98
588.7840, 24799.18
589.9520, 22748.88
591.1190, 19933.83
592.2870, 17816.06
593.4540, 15611.54
594.6210, 13581.15
595.7880, 12236.45
596.9540, 10857.82
598.1210, 9390.767
599.2870, 8304.566
600.4530, 7460.702
601.6190, 6689.460
602.7850, 6273.397
603.9500, 5630.293
605.1160, 5143.716
606.2810, 4922.358
607.4460, 4625.304
608.6110, 4462.039
609.7760, 4173.371
610.9410, 4054.386
612.1050, 4046.805
613.2690, 3893.224
614.4330, 3923.649
615.5970, 3811.080
616.7610, 3972.517
617.9250, 4023.959
619.0880, 3967.408
620.2520, 4078.863
621.4150, 4269.325
622.5780, 4287.795
623.7400, 4543.271
624.9030, 4443.754
626.0660, 4713.244
627.2280, 4666.744
628.3900, 4722.251
629.5520, 4815.766
630.7140, 4880.611
631.8750, 5031.823
633.0370, 5125.364
634.1980, 5212.918
635.3590, 5368.493
636.5200, 5597.095
637.6810, 5676.729
638.8420, 6026.401
640.0020, 6436.121
641.1630, 6662.899
642.3230, 6957.751
643.4830, 7344.690
644.6430, 7948.710
645.8020, 8400.803
646.9620, 9153.960
648.1210, 9747.166
649.2810, 10522.42
650.4400, 11383.74
651.5980, 12225.12
652.7570, 13191.56
653.9160, 14059.02
655.0740, 15415.54
656.2320, 16232.10
657.3900, 17021.70
658.5480, 18321.34
659.7060, 19069.04
660.8630, 19544.84
662.0210, 20101.82
663.1780, 20175.01
664.3350, 20063.41
665.4920, 19594.04
666.6490, 18736.90
667.8050, 17893.98
668.9620, 16798.29
670.1180, 15476.86
671.2740, 14069.65
672.4300, 12768.66
673.5860, 11496.84
674.7410, 10254.19
675.8970, 9125.682
677.0520, 8131.301
678.2070, 7205.025
679.3620, 6362.809
680.5170, 5593.633
681.6720, 5025.487
682.8260, 4483.368
683.9800, 3917.277
685.1340, 3481.211
686.2880, 3296.169
687.4420, 2888.149
688.5960, 2538.148
689.7490, 2233.168
690.9030, 1968.694
692.0560, 1760.260
693.2090, 1531.327
694.3620, 1375.404
695.5140, 1157.485
696.6670, 1055.571
697.8190, 867.6626
698.9710, 723.7578
700.1230, 629.3652
701.2750, 608.9590
702.4270, 448.0645
703.5780, 429.1729
704.7300, 363.2837
705.8810, 288.3965
707.0320, 358.5117
708.1830, 200.6279
709.3340, 218.7456
710.4840, 61.86475
711.6350, 75.98340
712.7850, 13.10303
713.9350, 68.21875
715.0850, 36.66602
716.2350, 39.57617
717.3840, 22.51465
718.5340, 72.47607
719.6830, 89.48291
720.8320, 114.5454
721.9810, 186.6758
723.1300, 169.9111
724.2780, 95.24512
725.4270, 149.6411
726.5750, 206.1294
727.7230, 160.7378
728.8710, 309.4453
730.0190, 279.3306
731.1670, 200.3799
732.3140, 97.55273
733.4610, 208.7983
734.6090, 239.1748
735.7560, 181.6997
736.9030, 241.3428
738.0490, 308.1372
739.1960, 268.1196
740.3420, 173.2695
741.4880, 186.5391
742.6340, 224.9355
743.7800, 242.4800
744.9260, 98.18262
746.0720, 92.97070
747.2170, 21.15918
748.3620, 58.26123
749.5070, 47.34814
750.6520, 145.4170
751.7970, 313.4810
752.9420, 329.5400
754.0860, 498.5942
755.2300, 615.6436
756.3740, 877.6870
757.5180, 1212.727
758.6620, 1424.760
759.8060, 1685.789
760.9490, 2067.812
762.0930, 2326.831
763.2360, 2502.844
764.3790, 2720.853
765.5220, 2831.854
766.6640, 2858.851
767.8070, 2708.841
768.9490, 2531.826
770.0910, 2305.806
771.2330, 2153.778
772.3750, 1865.746
773.5170, 1620.707
774.6590, 1532.914
775.8000, 1391.952
776.9410, 1347.763
778.0820, 1110.696
779.2230, 1281.623
780.3640, 1329.427
781.5050, 1420.391
782.6450, 1660.292
783.7850, 2061.521
784.9260, 2223.404
786.0660, 2627.847
787.2050, 3058.052
788.3450, 3425.652
789.4850, 3800.162
790.6240, 4052.080
791.7630, 4029.286
792.9020, 3783.089
794.0410, 3468.317
795.1800, 3074.144
796.3180, 2597.923
797.4570, 2272.673
798.5950, 1812.011
799.7330, 1670.729
800.8710, 1531.073
802.0090, 1294.326
803.1460, 975.9937
804.2840, 930.6421
805.4210, 922.2695
806.5580, 834.8755
807.6950, 865.0576
808.8320, 706.6167
809.9680, 748.1514
811.1050, 769.6597
812.2410, 760.1421
813.3770, 864.5977
814.5130, 915.0249
815.6490, 879.4238
816.7850, 988.7949
817.9200, 909.1362
819.0560, 1100.448
820.1910, 1074.732
821.3260, 1256.986
822.4610, 1323.211
823.5960, 1403.407
824.7300, 1570.572
825.8650, 1617.708
826.9990, 1727.813
828.1330, 1797.890
829.2670, 1837.936
830.4010, 1946.952
831.5340, 2050.938
832.6680, 2114.266
833.8010, 2154.818
834.9340, 2272.713
836.0670, 2354.578
837.2000, 2436.412
838.3330, 2333.215
839.4660, 2340.988
840.5980, 2463.730
841.7300, 2289.443
842.8620, 2303.125
843.9940, 2232.776
845.1260, 2135.396
846.2570, 2017.985
847.3890, 1958.544
848.5200, 1955.073
849.6510, 1981.551
850.7820, 1847.018
851.9130, 1870.363
853.0440, 1824.413
854.1740, 1587.171
855.3050, 1644.198
856.4350, 1567.129
857.5650, 1370.530
858.6950, 1383.572
859.8240, 1266.410
860.9540, 1240.375
862.0830, 1175.036
863.2130, 1175.211
864.3420, 1071.872
865.4710, 960.2856
866.5990, 828.4038
867.7280, 784.2534
868.8560, 708.6626
869.9850, 639.5747
871.1130, 610.9404
872.2410, 537.2954
873.3690, 507.7954
874.4960, 484.9541
875.6240, 476.4814
876.7510, 424.8223
877.8780, 408.2134
879.0060, 362.0269
880.1320, 213.7124
881.2590, 298.0464
882.3860, 157.5889
883.5120, 183.5347
884.6380, 254.7896
885.7650, 237.6636
886.8910, 209.5508
888.0160, 150.4565
889.1420, 214.3677
890.2680, 183.2700
891.3930, 224.1650
892.5180, 104.0630
893.6430, 208.9648
894.7680, 134.8584
895.8930, 185.7427
897.0170, 170.6182
898.1420, 185.5332
899.2660, 224.3525
900.3900, 210.2061
901.5140, 258.0518
902.6380, 206.7251
903.7610, 171.7168
904.8850, 170.9331
906.0080, 102.3447
907.1310, 104.1460
908.2540, 100.9390
909.3770, 17.72363
910.5000, 28.49902
911.6220, 0.2636720
912.7450, 42.01416
913.8670, 163.7583
914.9890, 0.5073240
916.1110, 3.791992
917.2330, 130.9023
918.3550, 27.41211
919.4760, 73.24023
920.5970, 14.11230
921.7180, 96.46875
922.8390, 119.8911
923.9600, 51.38037
925.0810, 24.08838
926.2020, 98.45361
927.3220, 70.94043
928.4420, 31.65820
929.5620, 25.73047
930.6820, 29.10986
931.8020, 38.49414
932.9220, 18.12939
934.0410, 126.2217
935.1600, 71.43506
936.2790, 0.1420900
937.3980, 87.13525
938.5170, 42.40576
939.6360, 78.66895
940.7550, 82.92578
941.8730, 2.824707
942.9910, 70.15869
944.1090, 51.70752
945.2270, 112.8550
946.3450, 114.0688
947.4620, 62.27637
948.5800, 140.4771
949.6970, 159.6729
950.8140, 235.8623
951.9310, 212.0454
953.0480, 236.2241
954.1650, 226.3989
955.2810, 218.5679
956.3980, 221.7534
957.5140, 286.5796
958.6300, 362.1060
959.7460, 432.2754
960.8620, 506.4399
961.9780, 553.5996
963.0930, 653.7539
964.2080, 744.9053
965.3230, 925.0503
966.4380, 1014.191
967.5530, 1134.328
968.6680, 1360.461
969.7830, 1504.591
970.8970, 1618.717
972.0110, 1336.839
973.1250, 1300.962
974.2390, 960.0811
975.3530, 821.1963
976.4670, 670.3086
977.5800, 557.4180
978.6930, 451.5234
979.8070, 459.6270
980.9200, 590.7271
982.0320, 540.8257
983.1450, 549.9209
984.2580, 579.0171
985.3700, 644.1118
986.4820, 664.2178
987.5950, 752.3354
988.7070, 704.4619
989.8180, 780.6089
990.9300, 864.7812
992.0410, 971.9863
993.1530, 1129.242
994.2640, 1221.544
995.3750, 1370.876
996.4860, 1551.252
997.5970, 1861.688
998.7070, 2035.169
999.8180, 2566.881
1000.928, 2816.530
1002.038, 3225.238
1003.148, 3581.019
1004.258, 3849.833
1005.368, 4152.986
1006.477, 4267.575
1007.586, 4135.843
1008.696, 3995.009
1009.805, 3569.244
1010.914, 3057.198
1012.022, 2781.100
1013.131, 2336.160
1014.239, 2036.288
1015.348, 1811.959
1016.456, 1590.690
1017.564, 1638.234
1018.672, 1437.932
1019.780, 1461.822
1020.887, 1292.042
1021.994, 1433.813
1023.102, 1453.676
1024.209, 1477.744
1025.316, 1552.920
1026.423, 1630.667
1027.529, 1753.478
1028.636, 1870.196
1029.742, 2108.903
1030.848, 2196.578
1031.954, 2452.275
1033.060, 2642.998
1034.166, 2737.925
1035.272, 3030.637
1036.377, 3428.186
1037.482, 3777.794
1038.587, 4222.387
1039.692, 4610.245
1040.797, 5318.031
1041.902, 5856.759
1043.006, 6464.889
1044.111, 7539.333
1045.215, 8648.271
1046.319, 9976.398
1047.423, 11767.01
1048.527, 14060.84
1049.631, 16547.56
1050.734, 19848.08
1051.837, 24234.35
1052.941, 28803.52
1054.044, 34370.57
1055.146, 40459.84
1056.249, 46929.09
1057.352, 52578.18
1058.454, 56116.71
1059.556, 56725.22
1060.659, 54643.48
1061.761, 49439.21
1062.862, 42832.95
1063.964, 35757.41
1065.066, 29728.03
1066.167, 23734.99
1067.268, 19300.66
1068.369, 15855.63
1069.470, 12786.67
1070.571, 10481.48
1071.672, 8696.235
1072.772, 7143.901
1073.873, 6046.629
1074.973, 4936.649
1076.073, 4298.172
1077.173, 3676.695
1078.272, 3258.563
1079.372, 2721.213
1080.471, 2415.966
1081.571, 2122.720
1082.670, 1901.433
1083.769, 1681.060
1084.868, 1501.730
1085.966, 1358.033
1087.065, 1231.601
1088.163, 1119.210
1089.262, 1048.769
1090.360, 1002.291
1091.458, 921.0688
1092.555, 882.3501
1093.653, 779.2646
1094.751, 803.8960
1095.848, 745.5913
1096.945, 720.1099
1098.042, 763.6279
1099.139, 662.1450
1100.236, 715.7622
1101.333, 707.7075
1102.429, 740.2227
1103.525, 929.7358
1104.621, 867.1768
1105.718, 1027.687
1106.813, 1238.196
1107.909, 1491.703
1109.005, 1671.316
1110.100, 2054.817
1111.195, 2367.316
1112.291, 2452.871
1113.386, 2711.365
1114.480, 2593.905
1115.575, 2445.718
1116.670, 2136.242
1117.764, 1739.878
1118.858, 1503.371
1119.952, 1173.862
1121.046, 936.3516
1122.140, 673.8389
1123.234, 509.7471
1124.327, 421.9229
1125.421, 282.4019
1126.514, 280.0000
1127.607, 261.6396
1128.700, 97.11279
1129.792, 226.5835
1130.885, 15.05078
1131.978, 217.5127
1133.070, 62.96875
1134.162, 43.41895
1135.254, 51.87988
1136.346, 3.317871
1137.438, 7.248047
1138.529, 6.178711
1139.621, 42.81689
1140.712, 47.45410
1141.803, 39.07227
1142.894, 4.680664
1143.985, 22.03369
1145.076, 5.519531
1146.166, 22.38574
1147.257, 13.31445
1148.347, 76.10254
1149.437, 91.51123
1150.527, 62.30664
1151.617, 99.14551
1152.706, 43.95215
1153.796, 11.11377
1154.885, 0.1826170
1155.975, 33.76660
1157.064, 42.60498
1158.153, 18.39062
1159.241, 35.37207
1160.330, 38.33936
1161.419, 8.700684
1162.507, 42.23584
1163.595, 36.18750
1164.683, 10.13232
1165.771, 40.06836
1166.859, 79.99365
1167.946, 65.90723
1169.034, 70.56543
1170.121, 17.96729
1171.208, 26.83936
1172.295, 39.69092
1173.382, 1.471680
1174.469, 87.34473
1175.556, 7.810059
1176.642, 3.985840
1177.728, 69.76123
1178.815, 46.52197
1179.901, 32.27148
1180.986, 97.01025
1182.072, 72.83301
1183.158, 4.553223
1184.243, 66.74902
1185.328, 72.89844
1186.414, 24.44287
1187.499, 36.21338
1188.583, 75.98389
1189.668, 22.62354
1190.753, 43.61523
1191.837, 57.94189
1192.921, 37.80371
1194.005, 30.26660
1195.089, 77.54834
1196.173, 95.31348
1197.257, 69.13867
1198.340, 85.67041
1199.424, 85.45459
1200.507, 40.71924
1201.590, 53.31445
1202.673, 76.26367
1203.756, 63.54980
1204.839, 90.92334
1205.921, 153.8164
1207.004, 177.1899
1208.086, 38.62354
1209.168, 88.16016
1210.250, 64.71387
1211.332, 65.17773
1212.413, 75.62207
1213.495, 96.89404
1214.576, 56.14941
1215.657, 20.64990
1216.738, 112.9902
1217.819, 58.59521
1218.900, 116.8442
1219.981, 192.2603
1221.061, 65.69922
1222.142, 96.94385
1223.222, 122.2344
1224.302, 102.4785
1225.382, 87.55615
1226.461, 136.0415
1227.541, 189.1558
1228.621, 160.4214
1229.700, 108.8604
1230.779, 42.84912
1231.858, 156.9243
1232.937, 224.8066
1234.016, 13.66846
1235.094, 184.7871
1236.173, 182.7642
1237.251, 156.7119
1238.329, 111.4370
1239.407, 218.1421
1240.485, 159.8262
1241.563, 125.5015
1242.641, 176.2891
1243.718, 129.1680
1244.795, 64.17920
1245.873, 135.2998
1246.950, 109.5371
1248.026, 189.4155
1249.103, 194.8213
1250.180, 155.3638
1251.256, 211.2036
1252.333, 154.0078
1253.409, 118.7085
1254.485, 221.4058
1255.561, 117.9253
1256.636, 107.6152
1257.712, 184.8506
1258.787, 158.7456
1259.863, 167.7949
1260.938, 223.2329
1262.013, 209.9814
