##NAMES=Fluorite
##RRUFFID=R050046
##IDEAL CHEMISTRY=CaF_2_
##LOCALITY=Shangbao, Lei Yang, Hunan Province, China
##OWNER=RRUFF
##SOURCE=Eugene Schlepp
##DESCRIPTION=Pale purple crystal
##STATUS=The identification of this mineral has been confirmed by X-ray diffraction and chemical analysis
##URL=rruff.info/R050046
##MEASURED CHEMISTRY=Ca_1.000_ F_2.000_
##PIN_ID=L01404
##ORIENTATION=Laser parallel to c* (0 0 1). Fiducial mark perpendicular to laser is parallel to b [0 1 0]
176.6930, 0.0000000E+00
177.9200, 27.71875
179.1460, 13.47559
180.3720, 198.5469
181.5980, 24.74609
182.8230, 9.986328
184.0490, 35.93359
185.2740, 5.268555
186.5000, 114.8223
187.7250, 30.55078
188.9500, 124.0205
190.1740, 36.44629
191.3990, 170.6416
192.6230, 263.5225
193.8480, 330.0254
195.0720, 329.0947
196.2960, 272.6826
197.5200, 267.7461
198.7430, 441.2461
199.9670, 370.1455
201.1900, 451.4111
202.4130, 361.0889
203.6360, 404.1211
204.8590, 342.4395
206.0820, 215.0322
207.3050, 154.8848
208.5270, 193.9863
209.7490, 294.3252
210.9710, 206.8945
212.1930, 231.6816
213.4150, 97.67773
214.6370, 357.8711
215.8580, 364.2441
217.0790, 267.7822
218.3010, 204.4736
219.5210, 280.3115
220.7420, 220.2891
221.9630, 274.3994
223.1830, 221.6357
224.4040, 215.9932
225.6240, 360.4678
226.8440, 359.3242
228.0640, 294.9951
229.2840, 218.6572
230.5030, 111.5342
231.7230, 212.5283
232.9420, 234.6367
234.1610, 183.8623
235.3800, 97.19922
236.5990, 145.6475
237.8170, 223.2031
239.0360, 217.8594
240.2540, 276.6182
241.4720, 190.4756
242.6900, 287.4268
243.9080, 344.4697
245.1250, 195.6025
246.3430, 224.8223
247.5600, 330.1270
248.7770, 330.5176
249.9940, 230.3096
251.2110, 371.0293
252.4280, 444.0547
253.6450, 453.0156
254.8610, 206.0156
256.0770, 289.5469
257.2930, 240.6475
258.5090, 186.3486
259.7250, 316.4932
260.9400, 106.8525
262.1560, 234.1406
263.3710, 226.9873
264.5860, 281.4141
265.8010, 202.6094
267.0160, 165.0059
268.2310, 260.7646
269.4450, 282.7324
270.6600, 188.7451
271.8740, 247.3252
273.0880, 33.42188
274.3020, 58.69727
275.5150, 187.1963
276.7290, 43.00098
277.9420, 175.2363
279.1550, 52.56348
280.3680, 35.01465
281.5810, 78.46387
282.7940, 118.0215
284.0070, 236.6748
285.2190, 258.4180
286.4310, 253.2217
287.6430, 272.1016
288.8550, 261.1289
290.0670, 345.7959
291.2790, 456.2910
292.4900, 593.4658
293.7020, 674.6748
294.9130, 806.6172
296.1240, 891.3203
297.3350, 1056.487
298.5450, 1093.829
299.7560, 1235.190
300.9660, 1409.622
302.1760, 1742.084
303.3860, 1917.567
304.5960, 2266.071
305.8060, 2570.611
307.0150, 3362.173
308.2250, 4201.753
309.4340, 5587.355
310.6430, 7248.002
311.8520, 8821.684
313.0610, 10645.39
314.2700, 12781.12
315.4780, 14769.87
316.6860, 16993.69
317.8940, 19706.54
319.1020, 21656.45
320.3100, 22950.47
321.5180, 23070.62
322.7250, 21353.02
323.9330, 18741.40
325.1400, 16035.75
326.3470, 12895.00
327.5540, 10271.31
328.7600, 8349.928
329.9670, 6734.260
331.1730, 5492.658
332.3800, 4658.156
333.5860, 3940.307
334.7920, 3269.953
335.9970, 2847.668
337.2030, 2632.443
338.4080, 2393.281
339.6140, 2288.176
340.8190, 1877.125
342.0240, 1795.129
343.2290, 1651.180
344.4330, 1522.281
345.6380, 1575.428
346.8420, 1285.617
348.0460, 1558.854
349.2500, 1252.125
350.4540, 1249.439
351.6580, 1304.793
352.8610, 1220.180
354.0650, 1205.605
355.2680, 1089.066
356.4710, 1067.559
357.6740, 1061.086
358.8760, 1080.646
360.0790, 1079.234
361.2810, 1015.863
362.4840, 989.5176
363.6860, 987.2012
364.8880, 732.9121
366.0900, 1062.650
367.2910, 664.4141
368.4930, 850.2148
369.6940, 884.0391
370.8950, 700.8945
372.0960, 814.7695
373.2970, 625.6660
374.4980, 664.7656
375.6980, 819.7090
376.8980, 664.7012
378.0990, 482.4023
379.2990, 585.5938
380.4980, 599.4297
381.6980, 500.5234
382.8980, 639.5547
384.0970, 711.6836
385.2960, 507.8320
386.4950, 593.1855
387.6940, 502.4434
388.8930, 459.6387
390.0920, 468.7832
391.2900, 430.6191
392.4880, 500.6309
393.6860, 435.6758
394.8840, 571.0586
396.0820, 621.5137
397.2800, 458.0605
398.4770, 448.9961
399.6750, 308.3125
400.8720, 361.6387
402.0690, 360.2988
403.2660, 355.9277
404.4620, 134.6953
405.6590, 434.4668
406.8550, 220.3887
408.0510, 340.0078
409.2480, 288.4629
410.4430, 284.8770
411.6390, 329.1875
412.8350, 308.8594
414.0300, 306.4922
415.2250, 225.1211
416.4200, 80.99414
417.6150, 199.4570
418.8100, 236.0156
420.0050, 130.4941
421.1990, 229.6816
422.3940, 241.4941
423.5880, 53.52734
424.7820, 226.6328
425.9750, 392.1406
427.1690, 257.6523
428.3630, 242.1699
429.5560, 216.6914
430.7490, 217.4355
431.9420, 253.6777
433.1350, 311.9277
434.3280, 355.4668
435.5200, 435.1094
436.7130, 497.6406
437.9050, 503.4902
439.0970, 531.0332
440.2890, 455.7422
441.4810, 532.6191
442.6720, 402.1523
443.8640, 405.0918
445.0550, 565.5488
446.2460, 475.0801
447.4370, 447.6113
448.6280, 679.1387
449.8180, 545.7305
451.0090, 399.8516
452.1990, 269.5918
453.3890, 274.7773
454.5790, 268.6074
455.7690, 382.7871
456.9590, 422.2988
458.1480, 440.7773
459.3380, 383.9902
460.5270, 489.9668
461.7160, 400.3047
462.9050, 442.4102
464.0940, 425.8496
465.2820, 432.5195
466.4700, 413.5020
467.6590, 363.9883
468.8470, 427.4785
470.0350, 307.9668
471.2220, 326.6992
472.4100, 285.9590
473.5970, 359.4609
474.7850, 369.9707
475.9720, 378.6387
477.1590, 435.9531
478.3460, 417.5039
479.5320, 505.0156
480.7190, 548.5332
481.9050, 553.0566
483.0910, 681.5879
484.2770, 648.1289
485.4630, 793.6758
486.6490, 584.2305
487.8340, 932.7969
489.0200, 1009.367
490.2050, 1064.938
491.3900, 920.5059
492.5750, 804.0938
493.7600, 823.6895
494.9440, 657.3203
496.1290, 610.9707
497.3130, 657.6152
498.4970, 612.2559
499.6810, 523.8887
500.8650, 403.6328
502.0480, 419.2559
503.2320, 284.4590
504.4150, 388.0723
505.5980, 366.6797
506.7810, 442.2793
507.9640, 279.8711
509.1460, 152.4570
510.3290, 231.1504
511.5110, 52.72070
512.6930, 39.84961
513.8750, 228.5273
515.0570, 183.0723
516.2390, 0.4003910
517.4210, 345.6289
518.6020, 72.91602
519.7830, 38.85547
520.9640, 12.89648
522.1450, 102.0586
523.3260, 177.3457
524.5060, 55.26367
525.6870, 96.08984
526.8670, 95.43164
528.0470, 57.23828
529.2270, 48.04688
530.4070, 122.3203
531.5870, 162.4180
532.7660, 222.7461
533.9450, 214.8945
535.1240, 34.03125
536.3030, 66.84766
537.4820, 37.22070
538.6610, 51.72656
539.8390, 136.7148
541.0180, 154.2070
542.1960, 157.1113
543.3740, 22.00000
544.5520, 28.87305
545.7290, 34.27148
546.9070, 33.44531
548.0840, 4.322266
549.2620, 41.07617
550.4390, 83.81445
551.6160, 190.5371
552.7920, 164.2422
553.9690, 9.070313
555.1450, 56.58984
556.3220, 60.22852
557.4980, 12.14844
558.6740, 149.4414
559.8490, 88.01172
561.0250, 113.5645
562.2000, 77.09961
563.3760, 55.38281
564.5510, 24.85547
565.7260, 1.513672
566.9010, 122.9258
568.0750, 227.3164
569.2500, 325.6895
570.4240, 212.0410
571.5980, 225.3750
572.7720, 6.310547
573.9460, 94.96875
575.1200, 124.2285
576.2930, 100.4648
577.4670, 136.6016
578.6400, 113.8770
579.8130, 93.05664
580.9860, 73.22656
582.1590, 14.59570
583.3310, 212.5488
584.5040, 61.67969
585.6760, 22.19727
586.8480, 182.8750
588.0200, 156.9570
589.1920, 264.0312
590.3630, 126.0859
591.5350, 50.12109
592.7060, 93.17773
593.8770, 66.78906
595.0480, 282.1680
596.2190, 12.89453
597.3900, 172.9941
598.5600, 35.14258
599.7310, 62.66602
600.9010, 87.19531
602.0710, 92.50391
603.2410, 56.52344
604.4100, 109.3535
605.5800, 26.15820
606.7490, 73.55078
607.9190, 161.9160
609.0880, 283.2559
610.2570, 274.5742
611.4250, 267.3477
612.5940, 228.0020
613.7620, 340.0977
614.9310, 325.2402
616.0990, 265.4355
617.2670, 626.6055
618.4340, 530.7539
619.6020, 252.8770
620.7690, 543.3633
621.9370, 280.0391
623.1040, 478.5469
624.2710, 389.7676
625.4380, 303.8867
626.6040, 298.4727
627.7710, 447.7949
628.9370, 547.5195
630.1030, 380.1504
631.2690, 434.4531
632.4350, 394.9160
633.6010, 312.4980
634.7660, 386.9121
635.9320, 360.4160
637.0970, 262.7773
638.2620, 220.1094
639.4270, 246.4102
640.5920, 187.6816
641.7560, 412.9219
642.9210, 59.13086
644.0850, 496.2949
645.2490, 332.4277
646.4130, 280.5293
647.5770, 361.5996
648.7400, 451.6406
649.9040, 42.64844
651.0670, 280.6055
652.2300, 68.53320
653.3930, 191.4141
654.5560, 408.2598
655.7190, 119.0762
656.8810, 126.6738
658.0440, 27.58984
659.2060, 127.0664
660.3680, 170.9980
661.5300, 8.421875
662.6910, 373.1777
663.8530, 354.6621
665.0140, 364.1934
666.1750, 360.6113
667.3360, 354.9980
668.4970, 364.1621
669.6580, 419.4082
670.8190, 398.6973
671.9790, 269.0176
673.1390, 428.2422
674.2990, 519.4336
675.4590, 374.4219
676.6190, 385.4316
677.7790, 381.3535
678.9380, 343.1602
680.0970, 493.5566
681.2570, 667.5566
682.4160, 903.5254
683.5740, 947.1680
684.7330, 749.7676
685.8920, 981.2324
687.0500, 1024.674
688.2080, 882.9453
689.3660, 947.4961
690.5240, 1305.189
691.6820, 1075.904
692.8390, 1219.586
693.9960, 1185.107
695.1540, 1148.533
696.3110, 994.9375
697.4680, 1397.078
698.6240, 1122.600
699.7810, 1347.006
700.9370, 968.4668
702.0940, 1474.752
703.2500, 1518.828
704.4060, 1333.660
705.5610, 1397.072
706.7170, 1705.375
707.8720, 1463.645
709.0280, 1620.885
710.1830, 1377.092
711.3380, 1408.270
712.4920, 1359.875
713.6470, 1346.863
714.8020, 1324.955
715.9560, 1029.918
717.1100, 1116.963
718.2640, 942.0527
719.4180, 666.0137
720.5720, 735.1348
721.7250, 546.4414
722.8780, 776.5039
724.0320, 608.4746
725.1850, 639.4082
726.3380, 515.5391
727.4900, 558.6309
728.6430, 414.4824
729.7950, 399.1738
730.9470, 497.7070
732.1000, 587.1816
733.2510, 381.8652
734.4030, 545.4922
735.5550, 300.4199
736.7060, 438.9824
737.8570, 271.3809
739.0090, 90.32617
740.1600, 382.3066
741.3100, 393.8906
742.4610, 161.6719
743.6110, 146.0762
744.7620, 183.2148
745.9120, 210.0098
747.0620, 218.2715
748.2120, 286.5020
749.3610, 111.7051
750.5110, 116.8691
751.6600, 91.00195
752.8090, 87.09375
753.9580, 206.1484
755.1070, 294.1738
756.2560, 185.7559
757.4050, 190.7207
758.5530, 37.12500
759.7010, 73.55273
760.8490, 58.73633
761.9970, 45.61133
763.1450, 106.2500
764.2920, 154.2285
765.4400, 80.20312
766.5870, 196.8066
767.7340, 268.4980
768.8810, 213.9688
770.0280, 62.39258
771.1740, 151.7363
772.3210, 14.97656
773.4670, 58.19531
774.6130, 277.2832
775.7590, 328.3359
776.9050, 426.1719
778.0510, 389.3281
779.1960, 487.1582
780.3420, 424.0645
781.4870, 277.3496
782.6320, 416.1836
783.7770, 400.9805
784.9210, 349.7422
786.0660, 451.4688
787.2100, 343.1602
788.3540, 468.7012
789.4980, 320.3223
790.6420, 598.3457
791.7860, 729.7734
792.9300, 533.2910
794.0730, 548.9844
795.2160, 488.7324
796.3590, 365.3809
797.5020, 410.8340
798.6450, 599.1348
799.7880, 405.8848
800.9300, 499.2090
802.0720, 448.5020
803.2150, 450.7734
804.3560, 639.0156
805.4980, 513.2285
806.6400, 731.4238
807.7810, 605.5898
808.9230, 602.7227
810.0640, 807.8691
811.2050, 548.9844
812.3460, 662.0723
813.4860, 692.1309
814.6270, 651.1797
815.7670, 872.2031
816.9070, 560.2090
818.0470, 965.2246
819.1870, 763.2109
820.3270, 635.1699
821.4670, 814.1035
822.6060, 736.0098
823.7450, 909.9004
824.8840, 712.7754
826.0230, 744.6289
827.1620, 946.4570
828.3010, 1186.256
829.4390, 1259.029
830.5770, 1180.779
831.7150, 1313.508
832.8530, 1526.211
833.9910, 1442.891
835.1290, 1677.553
836.2660, 1562.191
837.4030, 1287.805
838.5410, 934.3945
839.6780, 878.9609
840.8140, 749.5234
841.9510, 648.0664
843.0870, 479.5918
844.2240, 409.0938
845.3600, 478.5723
846.4960, 453.0293
847.6320, 495.4668
848.7680, 463.0605
849.9030, 548.3105
851.0380, 472.0176
852.1740, 246.9688
853.3090, 416.3086
854.4440, 107.6328
855.5780, 73.66602
856.7130, 17.27539
857.8470, 57.18945
858.9820, 105.3262
860.1160, 37.39258
861.2500, 231.0020
862.3830, 10.49219
863.5170, 72.48242
864.6500, 113.4160
865.7840, 468.3184
866.9170, 99.79492
868.0500, 311.9746
869.1830, 404.7305
870.3150, 356.4941
871.4480, 708.2422
872.5800, 915.9844
873.7120, 1190.711
874.8440, 1456.441
875.9760, 1982.797
877.1080, 2084.531
878.2390, 2324.285
879.3710, 2536.027
880.5020, 2359.736
881.6330, 2624.518
882.7640, 2301.289
883.8940, 2047.049
885.0250, 1657.797
886.1550, 1382.051
887.2850, 917.3867
888.4160, 623.2500
889.5450, 458.0293
890.6750, 234.7207
891.8050, 99.40234
892.9340, 161.0664
894.0630, 58.27539
895.1930, 95.05273
896.3220, 229.0918
897.4500, 129.0742
898.5790, 380.8535
899.7070, 377.6758
900.8360, 428.1113
901.9640, 298.4414
903.0920, 103.6992
904.2200, 393.9043
905.3470, 540.4062
906.4750, 1322.717
907.6020, 1846.875
908.7290, 2528.174
909.8560, 3438.352
910.9830, 3699.643
912.1100, 4049.932
913.2360, 3750.223
914.3630, 3300.518
915.4890, 3031.814
916.6150, 3062.115
917.7410, 3039.426
918.8670, 3453.738
919.9920, 4536.055
921.1180, 5261.377
922.2430, 6079.705
923.3680, 6707.039
924.4930, 7082.389
925.6180, 7375.742
926.7420, 8118.111
927.8670, 8039.492
928.9910, 7543.883
930.1150, 6813.287
931.2390, 5894.703
932.3630, 5145.164
933.4860, 4555.641
934.6100, 4265.125
935.7330, 4292.645
936.8560, 4313.184
937.9790, 4238.742
939.1020, 3768.332
940.2250, 3589.936
941.3470, 3363.566
942.4700, 3848.215
943.5920, 4247.877
944.7140, 4839.564
945.8360, 5742.285
946.9570, 6913.027
948.0790, 7314.785
949.2000, 7029.559
950.3220, 5377.354
951.4430, 3688.172
952.5640, 2429.012
953.6840, 1731.867
954.8050, 1180.742
955.9250, 1047.639
957.0460, 780.5547
958.1660, 842.4902
959.2860, 757.4512
960.4050, 591.4316
961.5250, 771.4336
962.6440, 900.4609
963.7640, 810.5098
964.8830, 928.5859
966.0020, 696.6816
967.1210, 647.8047
968.2390, 653.9531
969.3580, 542.1270
970.4760, 545.3281
971.5940, 597.5547
972.7120, 514.8105
973.8300, 427.0938
974.9480, 505.4043
976.0650, 186.7441
977.1830, 96.11328
978.3000, 273.5137
979.4170, 362.9414
980.5340, 212.4023
981.6500, 118.8965
982.7670, 60.41992
983.8830, 12.40430
985.0000, 78.43945
986.1160, 35.85156
987.2320, 84.75586
988.3470, 12.39648
989.4630, 14.07422
990.5780, 16.51172
991.6940, 32.22461
992.8090, 34.80859
993.9240, 50.56641
995.0380, 69.25586
996.1530, 162.4355
997.2680, 236.0859
998.3820, 116.6602
999.4960, 281.4805
1000.610, 155.4004
1001.724, 151.9609
1002.837, 406.9668
1003.951, 541.0176
1005.064, 219.1113
1006.177, 290.2500
1007.291, 355.4336
1008.403, 504.6602
1009.516, 511.9336
1010.629, 506.2617
1011.741, 651.6328
1012.853, 946.0508
1013.965, 937.5195
1015.077, 601.0352
1016.189, 980.5977
1017.300, 963.2070
1018.412, 1109.871
1019.523, 1282.582
1020.634, 1441.344
1021.745, 1724.199
1022.856, 2093.031
1023.966, 2279.965
1025.077, 2702.949
1026.187, 2894.402
1027.297, 3550.496
1028.407, 3741.180
1029.517, 3751.855
1030.627, 3600.793
1031.736, 3409.777
1032.845, 2879.590
1033.955, 2757.801
1035.064, 2118.039
1036.172, 1990.664
1037.281, 2136.230
1038.390, 2068.055
1039.498, 1768.957
1040.606, 1683.953
1041.714, 1802.031
1042.822, 1854.227
1043.930, 1570.516
1045.037, 1664.883
1046.145, 1747.328
1047.252, 1666.848
1048.359, 1670.445
1049.466, 1732.117
1050.573, 1606.871
1051.679, 1632.691
1052.786, 1462.617
1053.892, 1588.605
1054.998, 1447.680
1056.104, 1443.828
1057.210, 1410.062
1058.315, 1373.375
1059.421, 1398.766
1060.526, 1276.242
1061.631, 1130.797
1062.736, 1313.438
1063.841, 1205.160
1064.946, 1028.590
1066.050, 1067.477
1067.154, 1212.445
1068.258, 1170.828
1069.362, 1331.570
1070.466, 1548.332
1071.570, 1531.383
1072.674, 1695.930
1073.777, 2124.988
1074.880, 1898.582
1075.983, 2016.223
1077.086, 1949.461
1078.189, 1879.793
1079.291, 1757.387
1080.394, 1502.445
1081.496, 1184.512
1082.598, 858.7109
1083.700, 956.3398
1084.802, 607.6602
1085.903, 682.3594
1087.005, 725.5625
1088.106, 749.1367
1089.207, 276.8086
1090.308, 203.5586
1091.409, 196.3984
1092.509, 238.3242
1093.610, 360.3359
1094.710, 223.4375
1095.810, 280.9766
1096.910, 156.9023
1098.010, 213.2656
1099.110, 168.7188
1100.209, 72.25781
1101.309, 14.88672
1102.408, 232.6055
1103.507, 144.4141
1104.606, 404.3086
1105.704, 338.2930
1106.803, 433.3672
1107.901, 396.5273
1108.999, 678.7812
1110.097, 639.1211
1111.195, 935.5586
1112.293, 970.0781
1113.391, 1287.691
1114.488, 1488.391
1115.585, 1962.633
1116.682, 2504.035
1117.779, 3119.676
1118.876, 3805.145
1119.973, 4547.297
1121.069, 5027.535
1122.165, 5659.125
1123.261, 6130.754
1124.357, 6183.016
1125.453, 6356.676
1126.549, 6339.516
1127.644, 5890.789
1128.739, 5233.289
1129.835, 4594.367
1130.930, 4163.539
1132.024, 3809.816
1133.119, 3692.184
1134.214, 3384.793
1135.308, 3208.414
1136.402, 2993.215
1137.496, 2922.801
1138.590, 2705.633
1139.684, 2698.598
1140.777, 2806.645
1141.871, 2657.789
1142.964, 2686.023
1144.057, 2702.523
1145.150, 2648.898
1146.243, 2725.262
1147.335, 2693.867
1148.428, 2675.574
1149.520, 2833.395
1150.612, 2656.352
1151.704, 2821.445
1152.796, 2513.727
1153.887, 2438.176
1154.979, 2510.859
1156.070, 1997.719
1157.161, 2304.750
1158.252, 2357.031
1159.343, 2174.547
1160.433, 2309.270
1161.524, 2457.270
1162.614, 2415.520
1163.704, 2449.977
1164.794, 2086.773
1165.884, 2249.789
1166.974, 2211.098
1168.063, 1878.672
1169.153, 1936.395
1170.242, 1699.230
1171.331, 1714.172
1172.420, 1532.219
1173.508, 1620.355
1174.597, 1203.590
1175.685, 1173.926
1176.774, 1063.348
1177.862, 1085.887
1178.950, 963.5664
1180.037, 932.1992
1181.125, 829.5312
1182.212, 832.5156
1183.300, 599.6992
1184.387, 523.9688
1185.474, 411.9727
1186.560, 231.7773
1187.647, 299.3047
1188.733, 295.9023
1189.820, 272.5781
1190.906, 286.9102
1191.992, 71.84375
1193.078, 158.0430
1194.163, 175.0078
1195.249, 100.9648
1196.334, 65.12500
1197.419, 70.28906
1198.504, 29.48047
1199.589, 139.1797
1200.674, 95.83203
1201.758, 144.4336
1202.843, 76.98438
1203.927, 137.4805
1205.011, 2.070313
1206.095, 103.6875
1207.179, 133.6250
1208.262, 168.8984
1209.345, 52.13672
1210.429, 5.308594
1211.512, 145.5820
1212.595, 1.464844
1213.677, 86.44141
1214.760, 142.6328
1215.842, 118.7734
1216.925, 224.9766
1218.007, 234.2422
1219.089, 294.5781
1220.171, 515.9727
1221.252, 434.4297
1222.334, 323.9531
1223.415, 713.5352
1224.496, 586.1836
1225.577, 520.8867
1226.658, 507.6484
1227.738, 519.4766
1228.819, 600.3672
1229.899, 556.2305
1230.979, 559.3164
1232.060, 554.3789
1233.139, 501.5000
1234.219, 567.6797
1235.299, 525.9141
1236.378, 464.1992
1237.457, 517.5352
1238.536, 476.9180
1239.615, 585.3516
1240.694, 647.8320
1241.772, 743.3516
1242.851, 547.9141
1243.929, 704.5156
1245.007, 610.1602
1246.085, 762.8359
1247.163, 942.5547
1248.240, 1022.320
1249.318, 1181.129
1250.395, 1077.969
1251.472, 1162.844
1252.549, 1133.754
1253.626, 1023.703
1254.703, 1316.680
1255.779, 1164.691
1256.855, 1359.738
1257.931, 1560.824
1259.007, 1488.957
1260.083, 1661.125
1261.159, 1521.309
1262.234, 1460.516
1263.310, 1615.480
1264.385, 1582.980
1265.460, 1762.273
1266.535, 1796.562
1267.610, 1673.871
1268.684, 1890.191
1269.758, 1777.535
1270.833, 1824.887
1271.907, 1741.254
1272.981, 1734.633
1274.054, 1909.023
1275.128, 1947.223
1276.201, 1828.465
1277.275, 2048.434
1278.348, 2140.379
1279.421, 2067.062
1280.493, 1975.477
1281.566, 2242.266
1282.638, 1860.539
1283.711, 2098.461
1284.783, 2065.250
1285.855, 2111.984
1286.927, 2144.656
1287.998, 2476.039
1289.070, 2543.980
1290.141, 2691.336
1291.212, 2746.352
1292.283, 2990.918
1293.354, 3090.461
1294.425, 2948.812
1295.495, 3016.285
1296.566, 3220.277
1297.636, 3212.184
1298.706, 2988.426
1299.776, 2912.770
1300.845, 3236.461
1301.915, 2775.859
1302.984, 2924.047
1304.054, 2788.852
1305.123, 2734.773
1306.191, 2783.629
1307.260, 2612.992
1308.329, 2673.605
1309.397, 2555.039
1310.465, 2697.512
1311.534, 2782.551
1312.602, 2576.367
1313.669, 2595.824
1314.737, 2888.816
1315.804, 2939.574
1316.872, 2767.168
1317.939, 2774.770
1319.006, 2548.367
1320.073, 2458.957
1321.139, 2872.555
1322.206, 2595.148
1323.272, 2437.730
1324.338, 2556.695
1325.404, 2364.270
1326.470, 2000.852
1327.536, 2194.094
1328.601, 1765.059
1329.667, 1960.078
1330.732, 1746.879
1331.797, 1443.270
1332.862, 1842.215
1333.926, 1379.707
1334.991, 1812.230
1336.055, 1430.223
1337.120, 1154.199
1338.184, 1075.984
1339.248, 1139.375
1340.311, 1094.832
1341.375, 1184.230
1342.438, 961.2617
1343.502, 1193.676
1344.565, 823.0703
1345.628, 1059.453
1346.691, 846.8203
1347.753, 1057.168
1348.816, 1048.496
1349.878, 1078.805
1350.940, 1140.098
1352.002, 1176.367
1353.064, 1440.621
1354.126, 1607.496
1355.187, 1971.062
1356.248, 2172.250
1357.310, 2569.422
1358.371, 2961.570
1359.431, 3390.688
1360.492, 3736.750
1361.553, 3793.680
1362.613, 3310.359
1363.673, 3424.652
1364.733, 2656.613
1365.793, 2081.047
1366.853, 1963.031
1367.912, 1453.625
1368.972, 1468.977
1370.031, 1283.969
1371.090, 1043.723
1372.149, 1046.340
1373.208, 890.8320
1374.267, 1007.203
1375.325, 815.3203
1376.383, 1129.094
1377.441, 1247.688
1378.499, 1342.148
1379.557, 1463.492
1380.615, 1302.750
1381.672, 1672.918
1382.730, 1718.988
1383.787, 1974.965
1384.844, 2246.465
1385.901, 2241.602
1386.957, 2705.262
1388.014, 2436.812
1389.070, 2448.246
1390.126, 2269.562
1391.182, 2349.750
1392.238, 2207.812
1393.294, 2147.738
1394.349, 2159.531
1395.405, 2434.172
1396.460, 2427.668
1397.515, 2249.004
1398.570, 1809.184
1399.625, 1683.188
1400.679, 1123.016
1401.734, 729.6602
1402.788, 519.1211
1403.842, 349.3906
1404.896, 289.4883
1405.950, 65.07812
1407.003, 72.81250
1408.057, 118.6328
1409.110, 77.31250
1410.163, 277.6289
1411.216, 99.05859
1412.269, 81.12891
1413.322, 334.1641
1414.374, 312.6602
1415.427, 49.88281
1416.479, 341.9688
1417.531, 65.21484
1418.583, 184.8008
1419.634, 111.6367
1420.686, 5.089844
1421.737, 54.52344
1422.788, 62.57812
1423.839, 2.714844
1424.890, 219.7070
1425.941, 307.3789
1426.992, 346.4219
1428.042, 551.7266
1429.092, 377.8086
1430.142, 406.7227
1431.192, 481.8828
1432.242, 195.4375
1433.291, 29.07812
1434.341, 200.3477
1435.390, 428.7852
1436.439, 141.5977
1437.488, 566.0117
1438.537, 468.8906
1439.586, 505.5117
1440.634, 553.7930
1441.682, 750.7461
1442.731, 1200.555
1443.779, 1443.285
1444.826, 1604.941
1445.874, 1801.516
1446.922, 1619.020
1447.969, 1992.441
1449.016, 2038.801
1450.063, 1842.113
1451.110, 2006.367
1452.157, 1871.535
1453.203, 1922.660
1454.250, 1924.688
1455.296, 1927.621
1456.342, 1995.465
1457.388, 2249.203
1458.433, 2544.824
1459.479, 2278.340
1460.524, 2705.734
1461.570, 2626.020
1462.615, 2739.180
1463.660, 2802.219
1464.705, 2825.129
1465.749, 2816.922
1466.794, 2510.602
1467.838, 2662.191
1468.882, 2577.699
1469.926, 2654.137
1470.970, 2628.293
1472.013, 2656.816
1473.057, 2579.074
1474.100, 2476.277
1475.143, 2501.441
1476.186, 2135.562
1477.229, 2374.645
1478.272, 2178.688
1479.314, 2450.699
1480.357, 2542.684
1481.399, 2248.652
1482.441, 2543.602
1483.483, 2516.547
1484.525, 2502.277
1485.566, 2262.922
1486.608, 2197.125
1487.649, 2323.918
1488.690, 2129.859
1489.731, 2286.883
1490.771, 2155.895
1491.812, 1982.738
1492.853, 1985.168
1493.893, 1986.672
1494.933, 1816.699
1495.973, 1697.301
1497.013, 1767.938
1498.052, 1848.945
1499.092, 1843.934
1500.131, 1804.977
1501.170, 1771.434
1502.209, 1673.297
1503.248, 1872.184
1504.287, 1714.160
1505.325, 1780.562
1506.363, 2491.324
1507.402, 2222.566
1508.440, 2334.121
1509.478, 2194.449
1510.515, 2147.328
1511.553, 2070.395
1512.590, 2059.605
1513.627, 2043.090
1514.664, 2026.312
1515.701, 2053.711
1516.738, 2004.066
1517.775, 2003.328
1518.811, 1667.430
1519.847, 1589.293
1520.883, 1544.840
1521.919, 1234.980
1522.955, 1143.617
1523.991, 1115.637
1525.026, 890.9297
1526.061, 983.4961
1527.096, 687.5938
1528.131, 875.7266
1529.166, 756.6992
1530.201, 317.5703
1531.235, 721.5938
1532.270, 597.9453
1533.304, 537.5547
1534.338, 299.3945
1535.372, 256.4375
1536.405, 346.9531
1537.439, 278.8477
1538.472, 119.1641
1539.505, 166.9531
1540.538, 8.691406
1541.571, 267.3281
1542.604, 93.17188
1543.637, 209.0391
1544.669, 7.796875
1545.701, 304.0430
1546.733, 156.0078
1547.765, 62.08594
1548.797, 268.8867
1549.829, 308.5117
1550.860, 161.3711
1551.891, 372.5391
1552.922, 323.5273
1553.953, 142.1914
1554.984, 171.1289
1556.015, 138.1914
1557.045, 11.35547
1558.076, 13.22656
1559.106, 11.06641
1560.136, 234.1641
1561.165, 255.8320
1562.195, 91.83594
1563.225, 2.7344000E-02
1564.254, 167.5234
1565.283, 0.0000000E+00
##END=



