##NAMES=Fluorapatite
##RRUFFID=R050194
##IDEAL CHEMISTRY=Ca_5_(PO_4_)_3_F
##LOCALITY=Siglo XX mine, Llallagua, Bolivia
##OWNER=RRUFF
##SOURCE=Dave Bunk Minerals
##DESCRIPTION=Purple crystal fragments
##STATUS=The identification of this mineral has been confirmed by X-ray diffraction and chemical analysis
##URL=rruff.info/R050194
##MEASURED CHEMISTRY=Ca_5.00_(P_1.00_O_4_)_3_F_1.00_
##PIN_ID=L01106
##ORIENTATION=Laser parallel to -c* (0 0 -1). Fiducial mark perpendicular to laser is parallel to -a [-1 0 0]
137.8140, 0.0000000E+00
139.0430, 33.05078
140.2710, 51.63135
141.5000, 111.1045
142.7280, 56.21289
143.9560, 1.458984
145.1840, 7.574219
146.4120, 33.77686
147.6390, 47.40723
148.8670, 77.06104
150.0940, 92.11621
151.3210, 36.52539
152.5490, 54.81348
153.7750, 77.11426
155.0020, 156.9375
156.2290, 57.97559
157.4550, 75.84082
158.6810, 78.82520
159.9080, 8.208008
161.1340, 56.20117
162.3590, 6.152832
163.5850, 17.81885
164.8110, 86.91016
166.0360, 38.11279
167.2610, 72.84912
168.4860, 85.20557
169.7110, 103.6572
170.9360, 37.41016
172.1610, 42.71094
173.3850, 71.05762
174.6100, 106.8574
175.8340, 41.90576
177.0580, 27.36865
178.2820, 60.00977
179.5050, 105.0405
180.7290, 44.60986
181.9520, 51.64307
183.1760, 52.14111
184.3990, 25.90430
185.6220, 66.12109
186.8450, 27.10693
188.0670, 24.70361
189.2900, 75.74707
190.5120, 46.90967
191.7340, 92.29736
192.9560, 43.22998
194.1780, 108.0020
195.4000, 101.1665
196.6220, 19.98438
197.8430, 60.62402
199.0640, 64.45752
200.2860, 144.9912
201.5070, 84.45947
202.7270, 65.83447
203.9480, 121.6885
205.1690, 29.94727
206.3890, 98.36621
207.6090, 79.85938
208.8290, 112.6558
210.0490, 51.24902
211.2690, 172.9624
212.4890, 113.2812
213.7080, 103.0596
214.9280, 131.2466
216.1470, 70.03174
217.3660, 118.2314
218.5850, 62.54346
219.8030, 117.3413
221.0220, 125.4873
222.2400, 7.696289
223.4590, 119.1895
224.6770, 74.67139
225.8950, 68.61719
227.1120, 93.88232
228.3300, 82.89844
229.5480, 79.32275
230.7650, 26.78857
231.9820, 82.65576
233.1990, 69.10938
234.4160, 121.4087
235.6330, 80.89062
236.8490, 108.0483
238.0660, 127.4429
239.2820, 167.0518
240.4980, 71.63525
241.7140, 128.8882
242.9300, 52.23145
244.1460, 80.93115
245.3610, 7.789063
246.5770, 9.771973
247.7920, 102.5625
249.0070, 94.42725
250.2220, 19.64844
251.4370, 152.7949
252.6510, 2.742188
253.8660, 7.767090
255.0800, 99.42578
256.2940, 4.197266
257.5080, 87.00195
258.7220, 46.35352
259.9360, 21.79199
261.1490, 76.81348
262.3630, 111.0635
263.5760, 41.39893
264.7890, 49.74561
266.0020, 65.59375
267.2150, 131.6519
268.4270, 53.28516
269.6400, 83.61621
270.8520, 154.7695
272.0640, 43.25195
273.2760, 126.7178
274.4880, 166.2959
275.7000, 56.20166
276.9120, 97.70166
278.1230, 16.70654
279.3340, 109.0845
280.5450, 90.48096
281.7560, 45.38672
282.9670, 63.44824
284.1780, 48.30322
285.3880, 107.3911
286.5980, 48.87549
287.8090, 19.18506
289.0190, 2.247070
290.2290, 116.4927
291.4380, 44.46143
292.6480, 165.6899
293.8570, 41.53369
295.0670, 1.696289
296.2760, 99.57178
297.4850, 64.28516
298.6930, 18.81055
299.9020, 56.35938
301.1110, 5.902832
302.3190, 107.7930
303.5270, 154.3325
304.7350, 105.8540
305.9430, 142.5625
307.1510, 21.22607
308.3580, 21.05225
309.5660, 36.55859
310.7730, 154.0928
311.9800, 114.2769
313.1870, 18.74365
314.3940, 81.00244
315.6010, 129.2437
316.8070, 49.08936
318.0130, 43.43115
319.2200, 170.9199
320.4260, 83.14795
321.6310, 48.05127
322.8370, 210.7231
324.0430, 90.32666
325.2480, 157.1973
326.4540, 78.66211
327.6590, 2.315430
328.8640, 71.42725
330.0680, 92.85547
331.2730, 144.7031
332.4780, 143.2505
333.6820, 37.66650
334.8860, 135.0781
336.0900, 8.270020
337.2940, 4.666504
338.4980, 125.5957
339.7010, 123.2295
340.9050, 11.84082
342.1080, 145.6270
343.3110, 61.95898
344.5140, 64.17676
345.7170, 59.50195
346.9200, 41.49414
348.1220, 83.45410
349.3240, 119.8438
350.5270, 102.6875
351.7290, 64.81348
352.9310, 67.32227
354.1320, 67.55566
355.3340, 52.83301
356.5350, 107.4766
357.7370, 70.42969
358.9380, 64.94238
360.1390, 20.91602
361.3400, 109.9805
362.5400, 47.23438
363.7410, 217.3135
364.9410, 78.43164
366.1410, 116.8926
367.3410, 8.578125
368.5410, 26.64062
369.7410, 37.03809
370.9400, 101.9619
372.1400, 74.78223
373.3390, 100.7598
374.5380, 103.0645
375.7370, 93.93555
376.9360, 100.4482
378.1350, 57.45020
379.3330, 74.97070
380.5310, 52.11523
381.7300, 8.891602
382.9280, 31.88867
384.1260, 89.14062
385.3230, 45.30859
386.5210, 18.75391
387.7180, 57.75391
388.9160, 81.25391
390.1130, 25.59180
391.3100, 64.19531
392.5060, 115.3076
393.7030, 29.03320
394.9000, 107.8936
396.0960, 110.3848
397.2920, 85.51660
398.4880, 189.3672
399.6840, 56.49316
400.8800, 158.9053
402.0750, 110.3760
403.2710, 136.1055
404.4660, 48.55859
405.6610, 218.7168
406.8560, 178.0859
408.0510, 121.7344
409.2450, 8.527344
410.4400, 141.4551
411.6340, 128.6357
412.8280, 24.29297
414.0220, 112.7676
415.2160, 147.5459
416.4100, 68.42090
417.6030, 49.65918
418.7970, 67.37012
419.9900, 38.89844
421.1830, 62.74121
422.3760, 148.8857
423.5690, 42.69824
424.7610, 74.69824
425.9540, 61.48926
427.1460, 146.2773
428.3380, 123.6562
429.5300, 193.6895
430.7220, 183.6865
431.9140, 16.92188
433.1050, 42.23730
434.2970, 160.5137
435.4880, 129.2070
436.6790, 221.9014
437.8700, 217.5400
439.0610, 82.75977
440.2510, 182.5938
441.4420, 143.6328
442.6320, 67.86328
443.8220, 158.8428
445.0120, 156.7227
446.2020, 181.8721
447.3910, 176.1025
448.5810, 160.1055
449.7700, 225.3613
450.9600, 133.5908
452.1490, 89.36621
453.3370, 112.6826
454.5260, 163.4521
455.7150, 105.8379
456.9030, 143.4580
458.0910, 136.5830
459.2800, 195.0938
460.4670, 69.63574
461.6550, 44.48047
462.8430, 95.58984
464.0300, 138.4033
465.2180, 166.6963
466.4050, 203.4688
467.5920, 135.7949
468.7790, 196.1875
469.9650, 56.46582
471.1520, 110.5664
472.3380, 146.0977
473.5250, 73.76465
474.7110, 117.4951
475.8970, 89.09863
477.0820, 157.3027
478.2680, 58.51758
479.4540, 25.70020
480.6390, 3.553711
481.8240, 8.825195
483.0090, 7.506836
484.1940, 23.23730
485.3780, 60.26465
486.5630, 78.45215
487.7470, 64.07910
488.9320, 127.2676
490.1160, 103.5996
491.3000, 28.81055
492.4830, 70.79590
493.6670, 53.43457
494.8500, 176.8984
496.0340, 242.5439
497.2170, 1.8555000E-02
498.4000, 119.8574
499.5820, 279.2959
500.7650, 126.0918
501.9480, 79.38184
503.1300, 10.36035
504.3120, 147.1074
505.4940, 131.6982
506.6760, 151.0049
507.8580, 57.87891
509.0390, 119.4990
510.2210, 125.7334
511.4020, 12.42090
512.5830, 103.2627
513.7640, 126.7178
514.9450, 64.66895
516.1250, 209.8770
517.3060, 252.0684
518.4860, 9.213867
519.6660, 68.10645
520.8460, 148.4873
522.0260, 252.2793
523.2060, 237.3965
524.3850, 240.1318
525.5650, 166.7490
526.7440, 118.8154
527.9230, 10.51172
529.1020, 15.93555
530.2810, 24.81738
531.4590, 18.05273
532.6380, 106.3594
533.8160, 79.44531
534.9940, 150.9307
536.1720, 32.38281
537.3500, 216.6855
538.5270, 85.52344
539.7050, 197.2344
540.8820, 17.18652
542.0590, 195.4521
543.2360, 107.4258
544.4130, 18.03125
545.5900, 34.45215
546.7660, 137.5303
547.9430, 108.4590
549.1190, 193.8125
550.2950, 167.2764
551.4710, 109.0508
552.6470, 6.050781
553.8220, 291.7734
554.9980, 64.59473
556.1730, 183.0762
557.3480, 11.95410
558.5230, 35.88379
559.6980, 161.2832
560.8730, 48.94922
562.0470, 89.92969
563.2220, 104.9473
564.3960, 42.63672
565.5700, 1.701172
566.7440, 188.1709
567.9170, 1.117188
569.0910, 260.5996
570.2640, 147.7695
571.4380, 83.06934
572.6110, 206.6260
573.7840, 130.5791
574.9570, 41.02441
576.1290, 89.40137
577.3020, 194.8105
578.4740, 399.1328
579.6460, 336.0967
580.8180, 304.4502
581.9900, 189.9717
583.1620, 205.0156
584.3330, 165.2842
585.5040, 212.3633
586.6760, 145.3457
587.8470, 157.2549
589.0180, 148.2441
590.1880, 110.1611
591.3590, 67.44727
592.5290, 61.28223
593.7000, 183.5215
594.8700, 177.0215
596.0400, 213.8369
597.2090, 270.0869
598.3790, 211.8271
599.5490, 151.5732
600.7180, 49.65820
601.8870, 194.4072
603.0560, 242.3447
604.2250, 209.6025
605.3940, 283.6738
606.5620, 350.8945
607.7300, 288.6680
608.8990, 84.55762
610.0670, 257.4414
611.2350, 118.5820
612.4020, 156.5801
613.5700, 130.2793
614.7370, 150.2852
615.9050, 212.5420
617.0720, 42.45898
618.2390, 220.7949
619.4060, 140.7705
620.5720, 119.7412
621.7390, 309.1973
622.9050, 106.8750
624.0710, 117.7188
625.2370, 169.4424
626.4030, 38.66895
627.5690, 4.388672
628.7340, 234.3486
629.9000, 165.4219
631.0650, 14.01562
632.2300, 304.6709
633.3950, 105.2656
634.5600, 91.77734
635.7240, 274.0820
636.8890, 69.36133
638.0530, 173.3008
639.2170, 76.87793
640.3810, 177.8760
641.5450, 221.6572
642.7080, 145.6895
643.8720, 159.0176
645.0350, 117.1992
646.1980, 99.90430
647.3610, 48.28125
648.5240, 130.8867
649.6870, 63.40039
650.8490, 215.9941
652.0120, 183.2559
653.1740, 90.72461
654.3360, 168.0957
655.4980, 116.1953
656.6600, 27.37109
657.8210, 195.9824
658.9830, 41.64844
660.1440, 203.3828
661.3050, 43.58203
662.4660, 113.1328
663.6270, 104.9922
664.7870, 435.4434
665.9480, 240.2070
667.1080, 269.0352
668.2680, 142.5176
669.4280, 201.0117
670.5880, 150.3613
671.7480, 17.09766
672.9070, 105.1621
674.0670, 46.43555
675.2260, 1.617188
676.3850, 47.50391
677.5440, 143.0371
678.7030, 132.0039
679.8610, 162.8613
681.0200, 175.9199
682.1780, 94.08984
683.3360, 116.4512
684.4940, 53.98633
685.6520, 146.2031
686.8090, 96.53320
687.9670, 175.9453
689.1240, 77.49023
690.2810, 130.3613
691.4380, 199.5586
692.5950, 184.6035
693.7520, 69.43555
694.9080, 219.6133
696.0650, 121.8379
697.2210, 53.20117
698.3770, 121.3340
699.5330, 58.65820
700.6880, 1.259766
701.8440, 37.99023
702.9990, 11.63477
704.1550, 104.1973
705.3100, 37.32617
706.4650, 119.2324
707.6190, 57.64648
708.7740, 94.11719
709.9290, 116.3242
711.0830, 39.82422
712.2370, 199.6562
713.3910, 116.5820
714.5450, 238.3457
715.6980, 182.8613
716.8520, 279.6230
718.0050, 106.3047
719.1580, 102.6875
720.3110, 146.8672
721.4640, 107.8535
722.6170, 154.4961
723.7700, 191.0195
724.9220, 190.2422
726.0740, 220.4512
727.2260, 178.3105
728.3780, 146.2129
729.5300, 140.3809
730.6810, 125.4590
731.8330, 206.1348
732.9840, 150.9004
734.1350, 109.5273
735.2860, 171.4062
736.4370, 75.80664
737.5880, 314.1641
738.7380, 34.89453
739.8880, 189.1328
741.0390, 102.2031
742.1890, 60.43945
743.3380, 131.3242
744.4880, 108.2773
745.6380, 27.20117
746.7870, 124.4980
747.9360, 177.8906
749.0850, 199.4668
750.2340, 271.3965
751.3830, 123.0879
752.5310, 198.9414
753.6800, 4.378906
754.8280, 185.3848
755.9760, 18.91797
757.1240, 118.6055
758.2720, 420.4316
759.4190, 113.3652
760.5670, 139.0645
761.7140, 237.3047
762.8610, 54.13281
764.0080, 204.8477
765.1550, 49.47266
766.3020, 301.2246
767.4480, 260.1973
768.5950, 95.96094
769.7410, 21.36719
770.8870, 47.03125
772.0330, 253.9023
773.1780, 170.5645
774.3240, 226.0605
775.4690, 13.39258
776.6140, 240.0586
777.7590, 277.6426
778.9040, 9.531250
780.0490, 176.7676
781.1940, 106.1836
782.3380, 347.8730
783.4820, 139.0547
784.6260, 218.5352
785.7700, 63.30664
786.9140, 120.3555
788.0580, 90.23633
789.2010, 41.66406
790.3450, 70.02148
791.4880, 95.88867
792.6310, 81.82617
793.7730, 131.3984
794.9160, 168.9023
796.0590, 138.7969
797.2010, 101.9395
798.3430, 94.11914
799.4850, 40.40625
800.6270, 185.4395
801.7690, 55.41797
802.9100, 107.2324
804.0520, 52.23438
805.1930, 191.8203
806.3340, 188.3242
807.4750, 9.974609
808.6160, 344.9414
809.7560, 120.1250
810.8970, 182.0781
812.0370, 241.4941
813.1770, 206.5371
814.3170, 300.0781
815.4570, 274.6348
816.5960, 151.0918
817.7360, 127.7168
818.8750, 337.2402
820.0140, 134.5957
821.1530, 24.75391
822.2920, 378.2227
823.4310, 107.3926
824.5690, 312.2949
825.7070, 77.50391
826.8460, 195.2402
827.9840, 60.14258
829.1220, 65.27344
830.2590, 64.28711
831.3970, 25.75781
832.5340, 62.96094
833.6710, 97.77734
834.8080, 119.5859
835.9450, 192.0430
837.0820, 235.1934
838.2190, 227.8105
839.3550, 241.3398
840.4910, 180.6660
841.6270, 179.8066
842.7630, 207.8535
843.8990, 74.97266
845.0350, 112.0664
846.1700, 116.9785
847.3060, 67.94531
848.4410, 177.3145
849.5760, 73.52734
850.7100, 43.66211
851.8450, 89.43555
852.9800, 119.4395
854.1140, 217.7637
855.2480, 290.3086
856.3820, 83.06055
857.5160, 245.9102
858.6500, 62.30078
859.7830, 112.8262
860.9170, 163.4473
862.0500, 9.800781
863.1830, 162.8926
864.3160, 127.4043
865.4480, 54.32617
866.5810, 225.4414
867.7130, 271.6992
868.8460, 130.9941
869.9780, 141.0039
871.1100, 103.1973
872.2410, 258.1855
873.3730, 38.85938
874.5050, 301.3809
875.6360, 328.3203
876.7670, 196.1836
877.8980, 188.6348
879.0290, 222.8594
880.1590, 296.3340
881.2900, 268.6621
882.4200, 151.4707
883.5500, 50.23438
884.6800, 292.1738
885.8100, 286.6250
886.9400, 100.3320
888.0690, 287.3691
889.1990, 122.6777
890.3280, 10.79688
891.4570, 2.933594
892.5860, 113.9512
893.7140, 38.71289
894.8430, 126.4043
895.9710, 102.0410
897.1000, 314.7344
898.2280, 117.9004
899.3560, 181.1074
900.4830, 72.93750
901.6110, 9.7660003E-03
902.7380, 137.0938
903.8660, 101.9941
904.9930, 226.1562
906.1200, 220.2617
907.2460, 48.55664
908.3730, 225.2422
909.5000, 192.5371
910.6260, 203.7734
911.7520, 24.20898
912.8780, 41.64844
914.0040, 9.230469
915.1290, 28.75000
916.2550, 379.2090
917.3800, 46.08594
918.5050, 421.4512
919.6300, 135.1172
920.7550, 340.0742
921.8800, 244.3027
923.0040, 192.7695
924.1290, 198.0742
925.2530, 126.9961
926.3770, 211.3672
927.5010, 217.5703
928.6250, 59.67578
929.7480, 300.1406
930.8720, 13.54102
931.9950, 216.8535
933.1180, 120.1855
934.2410, 246.6426
935.3640, 0.4082030
936.4860, 261.8359
937.6090, 65.39453
938.7310, 33.23047
939.8530, 225.6836
940.9750, 92.77930
942.0970, 89.82227
943.2180, 290.3633
944.3400, 295.7520
945.4610, 132.4023
946.5820, 184.2754
947.7030, 147.3613
948.8240, 126.2715
949.9450, 262.4805
951.0650, 216.6055
952.1860, 178.1816
953.3060, 435.6230
954.4260, 143.6895
955.5460, 592.0938
956.6650, 159.7051
957.7850, 567.6836
958.9040, 410.9023
960.0230, 638.1953
961.1420, 1021.225
962.2610, 1321.719
963.3800, 1639.549
964.4990, 1943.391
965.6170, 1867.221
966.7350, 2026.562
967.8530, 1450.291
968.9710, 1154.189
970.0890, 576.1504
971.2070, 526.2305
972.3240, 453.6172
973.4410, 258.9473
974.5580, 122.9570
975.6750, 195.0742
976.7920, 103.1465
977.9090, 320.8672
979.0250, 110.0742
980.1410, 397.7754
981.2580, 260.1016
982.3740, 105.0703
983.4890, 179.7031
984.6050, 94.97070
985.7200, 78.91602
986.8360, 161.2285
987.9510, 348.5664
989.0660, 229.3594
990.1810, 49.65234
991.2950, 102.4219
992.4100, 221.1758
993.5240, 224.0215
994.6390, 308.1660
995.7530, 109.1230
996.8660, 131.0898
997.9800, 117.3633
999.0940, 60.08203
1000.207, 293.0410
1001.320, 84.49414
1002.433, 177.1152
1003.546, 280.1230
1004.659, 33.15430
1005.772, 346.9844
1006.884, 97.44141
1007.996, 93.60352
1009.108, 52.56250
1010.220, 269.9805
1011.332, 281.0840
1012.444, 244.1348
1013.555, 150.3105
1014.666, 205.6328
1015.777, 122.9375
1016.888, 196.7539
1017.999, 119.5391
1019.110, 118.3516
1020.220, 107.9883
1021.331, 104.5117
1022.441, 183.6797
1023.551, 209.2617
1024.661, 105.4453
1025.770, 181.3438
1026.880, 259.8555
1027.989, 22.64844
1029.098, 97.16016
1030.207, 166.5586
1031.316, 76.43750
1032.425, 338.9023
1033.533, 198.4961
1034.642, 179.5195
1035.750, 83.83203
1036.858, 258.1953
1037.966, 75.40234
1039.073, 234.1094
1040.181, 194.7812
1041.288, 133.3789
1042.396, 198.0508
1043.503, 12.41797
1044.610, 71.11328
1045.716, 244.0859
1046.823, 18.55078
1047.929, 71.83203
1049.036, 113.9688
1050.142, 8.574219
1051.248, 258.8945
1052.353, 323.4766
1053.459, 287.6094
1054.564, 258.1602
1055.670, 83.71484
1056.775, 135.0820
1057.880, 167.4609
1058.985, 35.54688
1060.089, 241.9688
1061.194, 232.4102
1062.298, 36.92969
1063.402, 97.39844
1064.506, 6.773438
1065.610, 2.164063
1066.713, 1.847656
1067.817, 26.54297
1068.920, 86.11328
1070.023, 82.48047
1071.126, 189.0273
1072.229, 219.9219
1073.332, 144.2812
1074.435, 172.1250
1075.537, 56.04688
1076.639, 434.2539
1077.741, 169.5391
1078.843, 337.4922
1079.945, 195.6602
1081.046, 340.6719
1082.148, 321.5938
1083.249, 72.83594
1084.350, 162.0742
1085.451, 42.20312
1086.551, 57.42578
1087.652, 153.4102
1088.752, 276.6211
1089.853, 379.6797
1090.953, 372.7852
1092.053, 96.93359
1093.152, 352.1992
1094.252, 61.33203
1095.351, 77.44922
1096.451, 87.76562
1097.550, 148.8828
1098.649, 141.2344
1099.748, 124.1133
1100.846, 90.22266
1101.945, 142.3320
1103.043, 18.55859
1104.141, 91.52344
1105.239, 96.60938
1106.337, 14.77734
1107.434, 30.05469
1108.532, 120.1094
1109.629, 71.13281
1110.726, 16.12500
1111.823, 82.59766
1112.920, 55.40625
1114.017, 32.44531
1115.113, 299.6797
1116.210, 146.6172
1117.306, 308.2383
1118.402, 511.6680
1119.498, 7.414063
1120.593, 89.52734
1121.689, 79.46875
1122.784, 358.1367
1123.879, 253.8320
1124.974, 522.7773
1126.069, 336.7266
1127.164, 4.320313
1128.259, 66.44531
1129.353, 225.3281
1130.447, 300.4453
1131.541, 337.5508
1132.635, 369.9062
1133.729, 340.7852
1134.822, 346.7695
1135.916, 264.7539
1137.009, 262.3438
1138.102, 370.3477
1139.195, 179.2148
1140.288, 26.91016
1141.380, 268.3281
1142.473, 215.1797
1143.565, 70.19141
1144.657, 264.2148
1145.749, 89.23828
1146.841, 256.2695
1147.932, 241.1250
1149.024, 119.3477
1150.115, 229.4219
1151.206, 204.5039
1152.297, 133.5859
1153.388, 353.6797
1154.479, 277.5312
1155.569, 210.8906
1156.659, 285.0195
1157.750, 194.1602
1158.839, 138.3164
1159.929, 157.3398
1161.019, 83.51172
1162.108, 39.69922
1163.198, 190.7891
1164.287, 224.3594
1165.376, 81.21484
1166.465, 390.4453
1167.553, 415.6953
1168.642, 296.9609
1169.730, 163.2383
1170.818, 386.5273
1171.906, 275.8281
1172.994, 319.1406
1174.082, 247.8164
1175.170, 139.4062
1176.257, 244.7578
1177.344, 186.1289
1178.431, 228.4805
1179.518, 330.8984
1180.605, 267.4609
1181.691, 291.8789
1182.778, 222.6641
1183.864, 230.1523
1184.950, 199.6602
1186.036, 168.3320
1187.122, 19.44141
1188.207, 183.9844
1189.292, 124.5469
1190.378, 44.87109
1191.463, 241.4648
1192.548, 313.0742
1193.632, 141.5000
1194.717, 323.1406
1195.801, 234.7070
1196.886, 212.0781
1197.970, 339.2656
1199.054, 34.60547
1200.137, 280.3477
1201.221, 313.1094
1202.305, 213.8906
1203.388, 332.8789
1204.471, 311.5195
1205.554, 315.3672
1206.637, 253.8359
1207.719, 158.7188
1208.802, 60.64844
1209.884, 89.60156
1210.966, 220.5703
1212.048, 131.6719
1213.130, 28.56641
1214.212, 117.5938
1215.293, 31.64062
1216.374, 90.71094
1217.456, 4.796875
1218.536, 266.9023
1219.617, 84.02734
1220.698, 572.1719
1221.778, 258.3438
1222.859, 180.1484
1223.939, 66.35547
1225.019, 399.5820
1226.099, 7.167969
1227.178, 261.0977
1228.258, 220.3906
1229.337, 183.6992
1230.417, 234.0352
1231.496, 106.3867
1232.574, 124.7344
1233.653, 5.320313
1234.732, 141.7422
1235.810, 20.81641
1236.888, 112.0195
1237.966, 95.49219
1239.044, 90.00000
1240.122, 278.9727
1241.199, 485.8984
1242.277, 363.5820
1243.354, 88.45312
1244.431, 189.6875
1245.508, 277.3867
1246.585, 236.1094
1247.661, 304.8594
1248.738, 161.6367
1249.814, 180.5078
1250.890, 102.3359
1251.966, 73.19141
1253.042, 406.0977
1254.117, 149.0312
1255.193, 216.9922
1256.268, 38.98047
1257.343, 60.36719
1258.418, 379.4102
1259.493, 15.51953
1260.567, 243.5742
1261.642, 20.00781
1262.716, 405.2305
1263.790, 643.2852
1264.864, 704.2148
1265.938, 57.40234
1267.011, 324.4961
1268.085, 225.4219
1269.158, 111.2891
1270.231, 505.5977
1271.304, 38.17188
1272.377, 349.6133
1273.450, 365.5742
1274.522, 551.7031
1275.594, 369.3320
1276.666, 300.8203
1277.738, 600.9805
1278.810, 697.0430
1279.882, 472.3633
1280.953, 669.4336
1282.025, 113.0273
1283.096, 217.8516
1284.167, 608.0078
1285.238, 401.9727
1286.308, 605.8711
1287.379, 653.7188
1288.449, 8.039063
1289.519, 564.2656
1290.589, 602.9258
1291.659, 93.65625
1292.729, 623.8008
1293.798, 190.1055
1294.868, 100.5312
1295.937, 269.8477
1297.006, 169.3008
1298.075, 494.3164
1299.143, 409.3711
1300.212, 287.8867
1301.280, 326.2148
1302.348, 88.35547
1303.416, 337.3711
1304.484, 189.1523
1305.552, 326.2852
1306.620, 528.1328
1307.687, 234.7891
1308.754, 465.7148
1309.821, 116.2969
1310.888, 18.05469
1311.955, 6.968750
1313.021, 466.7812
1314.088, 111.1602
1315.154, 31.75391
1316.220, 327.5664
1317.286, 295.2891
1318.352, 426.8008
1319.417, 73.51562
1320.483, 175.7422
1321.548, 152.4180
1322.613, 426.2539
1323.678, 193.1953
1324.743, 67.17188
1325.807, 504.1836
1326.872, 330.2305
1327.936, 109.3125
1329.000, 389.4180
1330.064, 412.5547
1331.128, 503.7148
1332.191, 293.9102
1333.255, 330.1328
1334.318, 420.3867
1335.381, 23.68750
1336.444, 235.9141
1337.507, 88.27344
1338.569, 274.6641
1339.632, 348.0820
1340.694, 382.5312
1341.756, 449.0156
1342.818, 269.5273
1343.880, 296.0625
1344.941, 453.6367
1346.003, 76.23828
1347.064, 460.8750
1348.125, 384.5391
1349.186, 620.2344
1350.247, 465.9648
1351.308, 466.7500
1352.368, 392.5703
1353.428, 368.3867
1354.489, 326.6094
1355.549, 382.0234
1356.608, 271.9688
1357.668, 313.9453
1358.727, 364.9531
1359.787, 315.9961
1360.846, 345.1602
1361.905, 452.1836
1362.964, 376.3359
1364.022, 279.9805
1365.081, 387.2031
1366.139, 200.4648
1367.197, 292.7539
1368.255, 417.1016
1369.313, 528.4844
1370.371, 438.9102
1371.428, 78.37891
1372.486, 379.8945
1373.543, 659.4414
1374.600, 181.0234
1375.657, 563.6445
1376.713, 163.2930
1377.770, 79.98438
1378.826, 335.7109
1379.882, 416.4688
1380.938, 247.2617
1381.994, 508.0977
1383.050, 298.9570
1384.106, 139.8555
1385.161, 408.7969
1386.216, 290.7695
1387.271, 437.4961
1388.326, 32.45703
1389.381, 391.2383
1390.435, 103.3477
1391.490, 45.49609
1392.544, 230.6875
1393.598, 193.8320
1394.652, 319.0156
1395.705, 314.2344
1396.759, 281.3789
1397.812, 386.7891
1398.866, 239.2852
1399.919, 304.6562
1400.972, 406.0664
1402.024, 34.51953
1403.077, 610.0039
1404.129, 246.5312
1405.181, 462.0977
1406.233, 349.7031
1407.285, 378.3477
1408.337, 426.0312
1409.389, 360.1875
1410.440, 176.5195
1411.491, 237.3320
1412.542, 342.1836
1413.593, 130.0703
1414.644, 367.0039
1415.695, 222.8750
1416.745, 306.8906
1417.795, 228.9570
1418.845, 239.2070
1419.895, 248.2266
1420.945, 288.4219
1421.995, 371.4688
1423.044, 433.7500
1424.093, 497.1211
1425.142, 339.5312
1426.191, 391.9883
1427.240, 101.5039
1428.289, 452.0820
1429.337, 175.3633
1430.385, 405.0547
1431.433, 321.8125
1432.481, 238.6289
1433.529, 351.5195
1434.577, 264.4727
1435.624, 337.3047
1436.672, 125.8281
1437.719, 494.5000
1438.766, 144.6328
1439.812, 471.7031
1440.859, 425.6719
1441.905, 403.5273
1442.952, 157.8008
1443.998, 539.6289
1445.044, 154.0469
1446.090, 228.2266
1447.135, 340.3164
1448.181, 247.3047
1449.226, 231.2188
1450.271, 170.1914
1451.316, 363.2148
1452.361, 297.2812
1453.405, 360.4023
1454.450, 415.9766
1455.494, 380.7617
1456.538, 482.9648
1457.582, 527.2188
1458.626, 566.5234
1459.670, 92.87891
1460.713, 381.2812
1461.757, 220.2617
1462.800, 170.2422
1463.843, 723.8008
1464.886, 233.4141
1465.928, 363.0703
1466.971, 222.7891
1468.013, 211.5508
1469.055, 216.3672
1470.097, 172.2422
1471.139, 211.6328
1472.181, 455.1406
1473.222, 315.1680
1474.263, 519.2383
1475.305, 674.3711
1476.346, 446.5469
1477.386, 552.7734
1478.427, 290.0508
1479.468, 300.3750
1480.508, 284.7500
1481.548, 343.4102
1482.588, 327.8906
1483.628, 324.2891
1484.668, 499.0000
1485.707, 334.6367
1486.747, 312.3320
1487.786, 400.0820
1488.825, 513.8750
1489.864, 577.7266
1490.902, 188.6328
1491.941, 571.5820
1492.979, 372.5859
1494.017, 630.6406
1495.055, 285.7422
1496.093, 97.89844
1497.131, 332.1016
1498.168, 282.2812
1499.206, 37.50391
1500.243, 306.7656
1501.280, 372.0938
1502.317, 303.4727
1503.354, 202.8906
1504.390, 418.3477
1505.426, 227.8984
1506.463, 446.4883
1507.499, 424.1680
1508.535, 173.8789
1509.570, 536.6094
1510.606, 269.3516
1511.641, 432.1914
1512.676, 39.12109
1513.711, 329.1406
1514.746, 469.2539
1515.781, 527.4688
1516.816, 604.6094
1517.850, 255.2148
1518.884, 542.3711
1519.918, 474.6094
1520.952, 400.9453
1521.986, 617.3633
1523.019, 175.8711
1524.053, 374.4766
1525.086, 456.1680
1526.119, 133.9492
1527.152, 230.8398
1528.185, 571.8398
1529.217, 491.9336
1530.250, 628.1250
1531.282, 540.4180
1532.314, 410.8164
1533.346, 295.3242
1534.377, 481.9375
1535.409, 403.6523
1536.440, 531.4922
1537.472, 446.4531
1538.503, 446.5430
1539.534, 468.7695
1540.564, 205.1250
1541.595, 298.6289
1542.625, 708.2812
1543.656, 230.0859
1544.686, 221.0547
1545.716, 109.0898
1546.745, 444.0117
1547.775, 237.3828
1548.804, 158.0273
1549.834, 460.9727
1550.863, 219.2422
1551.892, 441.8594
1552.920, 302.8516
1553.949, 116.2695
1554.977, 432.1445
1556.006, 107.5352
1557.034, 276.5039
1558.062, 467.1250
1559.089, 258.6680
1560.117, 177.7695
1561.144, 321.9375
1562.172, 47.05859
1563.199, 238.9102
1564.226, 417.1289
1565.252, 42.05078
1566.279, 114.4531
1567.305, 20.66797
1568.332, 371.5977
1569.358, 32.48828
1570.384, 1.312500
1571.409, 0.0000000E+00
##END=



