##NAMES=Fluorapophyllite-(K)
##RRUFFID=R040095
##IDEAL CHEMISTRY=KCa_4_Si_8_O_20_F&#183;8H_2_O
##LOCALITY=unknown
##OWNER=RRUFF
##SOURCE=University of Arizona Mineral Museum
##DESCRIPTION=Colorless crystals
##STATUS=The identification of this mineral has been confirmed by X-ray diffraction and chemical analysis
##URL=rruff.info/R040095
##MEASURED CHEMISTRY=(K_0.90_Na_0.04_)Ca_3.96_Si_8.00_O_20_(F_0.82_(OH)_0.18_)·8H_2_O
##PIN_ID=L00946
##ORIENTATION=Laser parallel to c* (0 0 1). Fiducial mark perpendicular to laser is parallel to a [1 0 0]
81.94900, 0.0000000E+00
83.19000, 3514.824
84.43100, 7946.746
85.67200, 11615.46
86.91300, 15170.69
88.15400, 16977.20
89.39400, 17383.28
90.63400, 17128.68
91.87400, 15241.09
93.11400, 12190.02
94.35400, 8263.156
95.59300, 4732.637
96.83200, 1790.041
98.07200, 31.01758
99.31000, 410.2793
100.5490, 671.9004
101.7880, 2542.879
103.0260, 5394.125
104.2640, 9561.166
105.5020, 15310.95
106.7400, 19547.27
107.9780, 21697.24
109.2150, 19272.26
110.4520, 15631.68
111.6890, 11697.25
112.9260, 8790.650
114.1630, 8297.950
115.3990, 8094.943
116.6360, 8922.296
117.8720, 9091.475
119.1080, 8833.146
120.3440, 9365.690
121.5790, 9929.962
122.8150, 11083.81
124.0500, 11417.27
125.2850, 11295.95
126.5200, 10584.69
127.7550, 10083.42
128.9890, 9903.262
130.2230, 10137.78
131.4570, 10533.14
132.6910, 10551.40
133.9250, 9558.173
135.1590, 7727.029
136.3920, 5446.604
137.6250, 3345.752
138.8580, 1643.484
140.0910, 587.8330
141.3240, 364.1738
142.5570, 962.5352
143.7890, 1322.259
145.0210, 1399.331
146.2530, 1284.724
147.4850, 1028.419
148.7160, 807.4004
149.9480, 155.6064
151.1790, 532.3076
152.4100, 1417.530
153.6410, 2509.969
154.8710, 3927.292
156.1020, 5852.055
157.3320, 7769.500
158.5620, 10282.55
159.7920, 13014.03
161.0220, 15124.81
162.2520, 16180.29
163.4810, 15796.54
164.7100, 14247.15
165.9390, 11806.36
167.1680, 9074.673
168.3970, 6885.330
169.6250, 5107.990
170.8540, 3718.306
172.0820, 2666.218
173.3100, 2058.263
174.5370, 2043.725
175.7650, 2442.407
176.9920, 3003.456
178.2200, 4197.685
179.4470, 5932.476
180.6740, 8059.419
181.9000, 10512.25
183.1270, 13570.51
184.3530, 16323.46
185.5790, 18029.09
186.8050, 18470.64
188.0310, 17545.64
189.2570, 15733.78
190.4820, 13738.44
191.7070, 12318.09
192.9320, 11353.44
194.1570, 10892.80
195.3820, 11030.22
196.6060, 11971.67
197.8310, 13388.16
199.0550, 15046.66
200.2790, 17289.00
201.5030, 20286.90
202.7260, 23817.27
203.9500, 28142.30
205.1730, 32988.23
206.3960, 38379.16
207.6190, 44056.07
208.8420, 48515.99
210.0640, 51195.93
211.2870, 51642.86
212.5090, 49624.77
213.7310, 45519.66
214.9530, 40335.53
216.1740, 35314.38
217.3960, 31263.14
218.6170, 27866.16
219.8380, 24926.87
221.0590, 23011.01
222.2800, 21828.21
223.5000, 21274.02
224.7210, 21249.77
225.9410, 21490.71
227.1610, 21470.61
228.3810, 21485.49
229.6000, 20762.48
230.8200, 19702.46
232.0390, 18303.89
233.2580, 16392.43
234.4770, 13999.20
235.6960, 11874.19
236.9150, 9818.090
238.1330, 8140.129
239.3510, 6648.403
240.5690, 5369.130
241.7870, 4527.938
243.0050, 3779.176
244.2220, 3199.087
245.4400, 2694.240
246.6570, 2281.578
247.8740, 2147.834
249.0910, 1914.390
250.3070, 1698.807
251.5240, 1791.493
252.7400, 1789.215
253.9560, 1810.952
255.1720, 1965.194
256.3880, 2082.368
257.6030, 2298.679
258.8190, 2534.138
260.0340, 2836.078
261.2490, 3323.864
262.4640, 3726.825
263.6780, 4202.841
264.8930, 4826.323
266.1070, 5184.457
267.3210, 5433.482
268.5350, 5439.950
269.7490, 5151.909
270.9630, 4812.291
272.1760, 4420.574
273.3890, 4052.459
274.6030, 3757.572
275.8150, 3587.927
277.0280, 3395.818
278.2410, 3334.562
279.4530, 3466.193
280.6650, 3656.711
281.8770, 3935.286
283.0890, 4328.450
284.3010, 4936.490
285.5120, 5608.140
286.7230, 6421.346
287.9350, 7306.909
289.1460, 8452.108
290.3560, 9607.903
291.5670, 11272.02
292.7770, 12730.47
293.9880, 14535.13
295.1980, 16287.77
296.4080, 17574.43
297.6170, 18413.76
298.8270, 18412.74
300.0360, 17875.79
301.2450, 16606.45
302.4540, 14900.67
303.6630, 12981.83
304.8720, 11073.92
306.0800, 9235.922
307.2890, 7751.821
308.4970, 6575.592
309.7050, 5699.120
310.9120, 4798.340
312.1200, 4197.193
313.3270, 3760.643
314.5350, 3449.477
315.7420, 3101.605
316.9490, 3140.720
318.1550, 3021.569
319.3620, 3031.787
320.5680, 3010.990
321.7740, 3238.172
322.9800, 3394.146
324.1860, 3679.945
325.3920, 3943.935
326.5970, 4289.852
327.8030, 4741.583
329.0080, 5195.600
330.2130, 5821.655
331.4180, 6324.611
332.6220, 6883.156
333.8270, 7583.858
335.0310, 7977.743
336.2350, 8413.052
337.4390, 8330.214
338.6430, 8426.354
339.8460, 8009.470
341.0500, 7437.561
342.2530, 6594.625
343.4560, 5896.667
344.6590, 4953.682
345.8610, 4146.672
347.0640, 3268.639
348.2660, 2537.584
349.4680, 1956.511
350.6700, 1471.412
351.8720, 1135.281
353.0740, 776.1104
354.2750, 584.8960
355.4770, 358.4775
356.6780, 296.6343
357.8790, 167.2681
359.0790, 242.8486
360.2800, 46.37598
361.4800, 290.8457
362.6810, 390.2441
363.8810, 661.5474
365.0810, 811.7441
366.2800, 1182.831
367.4800, 1520.813
368.6790, 1975.710
369.8780, 2341.544
371.0770, 2657.342
372.2760, 3102.122
373.4750, 3251.887
374.6730, 3180.271
375.8720, 2634.251
377.0700, 2205.823
378.2680, 1678.990
379.4660, 1094.756
380.6630, 575.1113
381.8610, 240.0459
383.0580, 56.43311
384.2550, 337.3501
385.4520, 535.7920
386.6490, 516.2559
387.8460, 721.5308
389.0420, 592.0356
390.2380, 662.3154
391.4340, 723.1724
392.6300, 649.9502
393.8260, 551.4116
395.0210, 377.2988
396.2170, 473.8765
397.4120, 370.9907
398.6070, 289.3462
399.8020, 191.7622
400.9970, 20.46680
402.1910, 77.48291
403.3860, 178.3574
404.5800, 244.1748
405.7740, 359.6460
406.9680, 436.8506
408.1610, 532.1118
409.3550, 630.0562
410.5480, 728.5825
411.7410, 828.5933
412.9340, 915.5537
414.1270, 1300.204
415.3200, 1324.528
416.5120, 1845.307
417.7040, 2260.641
418.8960, 2860.839
420.0880, 3791.429
421.2800, 4983.318
422.4720, 6380.057
423.6630, 8126.446
424.8540, 10409.74
426.0450, 13317.31
427.2360, 16673.67
428.4270, 21072.39
429.6180, 25750.28
430.8080, 29963.47
431.9980, 32691.18
433.1880, 32470.56
434.3780, 29137.69
435.5680, 24624.61
436.7570, 19190.28
437.9470, 14870.62
439.1360, 11450.60
440.3250, 8619.036
441.5140, 6379.752
442.7020, 4798.663
443.8910, 3726.696
445.0790, 2829.833
446.2670, 2090.014
447.4550, 1725.237
448.6430, 1289.499
449.8310, 1523.790
451.0180, 1120.753
452.2060, 1056.542
453.3930, 847.9873
454.5800, 890.4917
455.7660, 936.0669
456.9530, 1109.703
458.1400, 1311.403
459.3260, 1577.202
460.5120, 1709.104
461.6980, 1909.151
462.8840, 1946.377
464.0690, 2006.804
465.2550, 1613.396
466.4400, 1644.135
467.6250, 1240.992
468.8100, 920.9165
469.9950, 646.9141
471.1790, 388.9727
472.3640, 370.0791
473.5480, 55.21777
474.7320, 125.3730
475.9160, 33.46387
477.1000, 88.31201
478.2830, 120.8159
479.4670, 293.9482
480.6500, 578.0864
481.8330, 776.2305
483.0160, 1046.379
484.1980, 1319.536
485.3810, 1365.697
486.5630, 1359.865
487.7450, 1211.040
488.9270, 1096.973
490.1090, 793.4067
491.2910, 677.6006
492.4730, 453.4907
493.6540, 188.4570
494.8350, 154.1240
496.0160, 51.39355
497.1970, 39.03174
498.3780, 21.31396
499.5580, 47.24072
500.7380, 128.3594
501.9190, 200.8984
503.0990, 215.7202
504.2780, 415.6694
505.4580, 341.1387
506.6380, 695.8477
507.8170, 672.2900
508.9960, 768.3896
510.1750, 948.0083
511.3540, 1122.339
512.5320, 1182.684
513.7110, 1202.042
514.8890, 1352.413
516.0670, 1379.798
517.2450, 1442.198
518.4230, 1489.615
519.6010, 1561.050
520.7780, 1503.282
521.9560, 1777.182
523.1330, 1768.836
524.3100, 2039.579
525.4860, 2001.166
526.6630, 2232.909
527.8400, 2512.244
529.0160, 2617.908
530.1920, 2995.477
531.3680, 3212.619
532.5440, 3407.269
533.7190, 3748.819
534.8950, 4087.859
536.0700, 4259.511
537.2450, 4528.629
538.4200, 4595.628
539.5950, 4713.693
540.7690, 4659.517
541.9440, 4569.533
543.1180, 4406.414
544.2920, 4209.702
545.4660, 4102.634
546.6400, 3954.059
547.8140, 3778.178
548.9870, 3565.821
550.1600, 3619.053
551.3330, 3524.875
552.5060, 3543.282
553.6790, 3511.279
554.8520, 3542.810
556.0240, 3666.924
557.1960, 3570.118
558.3680, 3951.396
559.5400, 3851.767
560.7120, 4231.232
561.8840, 4648.797
563.0550, 4947.462
564.2260, 5348.230
565.3980, 5828.095
566.5680, 6503.056
567.7390, 7161.107
568.9100, 8045.238
570.0800, 8972.440
571.2510, 10198.80
572.4210, 11279.14
573.5910, 12991.55
574.7600, 14690.33
575.9300, 16326.30
577.0990, 18530.14
578.2690, 20535.39
579.4380, 22744.69
580.6070, 24499.33
581.7750, 26163.18
582.9440, 27731.56
584.1120, 27659.34
585.2810, 27631.02
586.4490, 26810.01
587.6170, 25220.97
588.7840, 23257.23
589.9520, 21159.11
591.1190, 18566.44
592.2870, 16521.48
593.4540, 14360.85
594.6210, 12639.53
595.7880, 10969.03
596.9540, 9494.184
598.1210, 8209.293
599.2870, 7487.871
600.4530, 6492.752
601.6190, 5822.207
602.7850, 5231.531
603.9500, 4763.554
605.1160, 4363.953
606.2810, 4025.189
607.4460, 3804.142
608.6110, 3631.346
609.7760, 3355.802
610.9410, 3225.344
612.1050, 3099.753
613.2690, 3073.044
614.4330, 3066.629
615.5970, 3152.833
616.7610, 3213.249
617.9250, 3185.245
619.0880, 3295.803
620.2520, 3248.491
621.4150, 3368.194
622.5780, 3495.910
623.7400, 3607.640
624.9030, 3621.381
626.0660, 3794.137
627.2280, 3943.905
628.3900, 3875.686
629.5520, 4109.478
630.7140, 4269.283
631.8750, 4260.100
633.0370, 4451.936
634.1980, 4500.794
635.3590, 4653.684
636.5200, 4796.611
637.6810, 5065.731
638.8420, 5337.269
640.0020, 5518.321
641.1630, 5937.416
642.3230, 6257.555
643.4830, 6632.743
644.6430, 7131.974
645.8020, 7723.269
646.9620, 8296.605
648.1210, 8864.973
649.2810, 9688.384
650.4400, 10410.81
651.5980, 11151.25
652.7570, 12212.70
653.9160, 13254.16
655.0740, 14068.63
656.2320, 15027.10
657.3900, 16195.60
658.5480, 17009.10
659.7060, 17766.62
660.8630, 18492.15
662.0210, 18801.70
663.1780, 19050.28
664.3350, 18959.89
665.4920, 18562.55
666.6490, 17940.32
667.8050, 16971.23
668.9620, 15942.27
670.1180, 14748.49
671.2740, 13220.86
672.4300, 12280.39
673.5860, 10842.09
674.7410, 9770.951
675.8970, 8762.938
677.0520, 7766.023
678.2070, 7037.217
679.3620, 6187.499
680.5170, 5371.853
681.6720, 4791.259
682.8260, 4259.693
683.9800, 3815.143
685.1340, 3384.633
686.2880, 3084.080
687.4420, 2689.562
688.5960, 2431.049
689.7490, 2185.540
690.9030, 1904.031
692.0560, 1714.519
693.2090, 1513.333
694.3620, 1312.531
695.5140, 1188.941
696.6670, 991.3955
697.8190, 855.8374
698.9710, 764.2676
700.1230, 621.6846
701.2750, 627.0879
702.4270, 451.4775
703.5780, 394.8525
704.7300, 398.2119
705.8810, 304.5557
707.0320, 173.8823
708.1830, 216.1924
709.3340, 93.48389
710.4840, 197.7573
711.6350, 154.0112
712.7850, 24.24609
713.9350, 62.44531
715.0850, 8.617188
716.2350, 62.74268
717.3840, 66.16113
718.5340, 32.14941
719.6830, 24.79297
720.8320, 57.31104
721.9810, 24.50000
723.1300, 158.7603
724.2780, 75.15771
725.4270, 156.6548
726.5750, 141.2925
727.7230, 97.06445
728.8710, 203.9507
730.0190, 213.0059
731.1670, 113.2358
732.3140, 200.5928
733.4610, 228.1216
734.6090, 185.8384
735.7560, 182.4185
736.9030, 187.7720
738.0490, 104.9941
739.1960, 129.3472
740.3420, 158.8442
741.4880, 248.5020
742.6340, 172.3682
743.7800, 183.4038
744.9260, 176.6167
746.0720, 95.00342
747.2170, 164.5234
748.3620, 114.2144
749.5070, 59.04932
750.6520, 12.99707
751.7970, 60.95996
752.9420, 164.7656
754.0860, 214.7256
755.2300, 408.5659
756.3740, 522.3916
757.5180, 719.1880
758.6620, 820.9546
759.8060, 994.1519
760.9490, 1199.148
762.0930, 1393.073
763.2360, 1552.720
764.3790, 1671.662
765.5220, 1943.924
766.6640, 1830.479
767.8070, 1777.005
768.9490, 1785.500
770.0910, 1538.966
771.2330, 1505.401
772.3750, 1266.806
773.5170, 1177.179
774.6590, 1126.522
775.8000, 951.8398
776.9410, 963.1602
778.0820, 1062.418
779.2230, 1011.671
780.3640, 1165.866
781.5050, 1259.637
782.6450, 1605.875
783.7850, 1761.734
784.9260, 2058.357
786.0660, 2430.187
787.2050, 2797.444
788.3450, 3237.408
789.4850, 3564.336
790.6240, 3860.418
791.7630, 3783.277
792.9020, 3716.140
794.0410, 3456.409
795.1800, 3140.166
796.3180, 2459.205
797.4570, 2233.244
798.5950, 1863.896
799.7330, 1568.514
800.8710, 1371.096
802.0090, 1219.643
803.1460, 1073.787
804.2840, 1039.263
805.4210, 958.7012
806.5580, 799.1016
807.6950, 813.4644
808.8320, 711.7871
809.9680, 904.0713
811.1050, 702.3145
812.2410, 859.5161
813.3770, 851.6763
814.5130, 807.7930
815.6490, 774.8677
816.7850, 812.8994
817.9200, 869.8867
819.0560, 956.8311
820.1910, 993.7310
821.3260, 1170.586
822.4610, 1288.397
823.5960, 1285.165
824.7300, 1328.888
825.8650, 1472.567
826.9990, 1582.201
828.1330, 1622.791
829.2670, 1683.336
830.4010, 1751.838
831.5340, 1817.294
832.6680, 1918.707
833.8010, 1959.076
834.9340, 2150.401
836.0670, 2185.681
837.2000, 2182.918
838.3330, 2357.110
839.4660, 2303.259
840.5980, 2340.363
841.7300, 2412.426
842.8620, 2519.443
843.9940, 2445.417
845.1260, 2424.914
846.2570, 2456.736
847.3890, 2469.755
848.5200, 2464.930
849.6510, 2387.592
850.7820, 2402.978
851.9130, 2379.681
853.0440, 2351.425
854.1740, 2334.496
855.3050, 2301.790
856.4350, 2255.476
857.5650, 2138.842
858.6950, 2108.746
859.8240, 2036.769
860.9540, 1894.467
862.0830, 1745.808
863.2130, 1580.851
864.3420, 1504.290
865.4710, 1413.278
866.5990, 1334.549
867.7280, 1179.486
868.8560, 1157.129
869.9850, 1027.944
871.1130, 977.1167
872.2410, 933.3306
873.3690, 782.0771
874.4960, 822.5239
875.6240, 822.3994
876.7510, 709.4111
877.8780, 650.7236
879.0060, 656.6621
880.1320, 537.7661
881.2590, 497.1582
882.3860, 530.2979
883.5120, 443.1880
884.6380, 321.9922
885.7650, 362.9424
886.8910, 305.0103
888.0160, 322.2183
889.1420, 269.1465
890.2680, 281.6470
891.3930, 249.3467
892.5180, 340.0332
893.6430, 232.7061
894.7680, 167.3657
895.8930, 299.0322
897.0170, 316.7134
898.1420, 133.3984
899.2660, 224.0986
900.3900, 159.7871
901.5140, 182.4858
902.6380, 88.18408
903.7610, 203.8711
904.8850, 216.5596
906.0080, 169.2471
907.1310, 106.9331
908.2540, 156.6104
909.3770, 147.2764
910.5000, 199.9341
911.6220, 45.58057
912.7450, 99.21680
913.8670, 44.86230
914.9890, 107.4966
916.1110, 1.876953
917.2330, 83.26758
918.3550, 26.71484
919.4760, 2.190430
920.5970, 62.68262
921.7180, 10.79492
922.8390, 47.27490
923.9600, 78.75781
925.0810, 19.76855
926.2020, 119.6846
927.3220, 30.13086
928.4420, 44.41748
929.5620, 37.00244
930.6820, 0.4135740
931.8020, 44.18701
932.9220, 83.18262
934.0410, 89.54395
935.1600, 61.90527
936.2790, 245.2773
937.3980, 69.35742
938.5170, 26.96680
939.6360, 176.2866
940.7550, 51.60010
941.8730, 99.90820
942.9910, 120.2129
944.1090, 116.5137
945.2270, 132.8081
946.3450, 150.0991
947.4620, 203.3843
948.5800, 200.6646
949.6970, 209.9419
950.8140, 267.2144
951.9310, 154.4829
953.0480, 204.7480
954.1650, 167.0088
955.2810, 165.2676
956.3980, 333.5229
957.5140, 286.7754
958.6300, 316.0239
959.7460, 340.2700
960.8620, 324.5132
961.9780, 403.7544
963.0930, 526.9932
964.2080, 569.2310
965.3230, 709.4678
966.4380, 766.7041
967.5530, 778.9409
968.6680, 1001.177
969.7830, 1206.412
970.8970, 1197.648
972.0110, 975.8833
973.1250, 958.1191
974.2390, 880.3540
975.3530, 613.5898
976.4670, 490.8271
977.5800, 542.0654
978.6930, 444.3047
979.8070, 354.5454
980.9200, 454.7871
982.0320, 458.0322
983.1450, 468.2783
984.2580, 393.5342
985.3700, 470.7969
986.4820, 528.0742
987.5950, 473.3589
988.7070, 651.6772
989.8180, 609.0234
990.9300, 584.3853
992.0410, 680.7812
993.1530, 943.2056
994.2640, 1035.691
995.3750, 1188.220
996.4860, 1266.810
997.5970, 1414.459
998.7070, 1720.160
999.8180, 1991.938
1000.928, 2073.795
1002.038, 2495.710
1003.148, 2704.704
1004.258, 3049.783
1005.368, 3062.938
1006.477, 3343.170
1007.586, 3201.548
1008.696, 2981.959
1009.805, 2863.086
1010.914, 2444.690
1012.022, 2112.291
1013.131, 1746.781
1014.239, 1661.112
1015.348, 1338.951
1016.456, 1208.347
1017.564, 1212.428
1018.672, 1069.338
1019.780, 1140.609
1020.887, 1162.959
1021.994, 1247.364
1023.102, 1276.701
1024.209, 1335.453
1025.316, 1279.278
1026.423, 1422.526
1027.529, 1590.963
1028.636, 1595.848
1029.742, 1978.437
1030.848, 2076.592
1031.954, 2318.270
1033.060, 2421.750
1034.166, 2645.334
1035.272, 2940.175
1036.377, 3186.738
1037.482, 3492.059
1038.587, 3930.649
1039.692, 4381.262
1040.797, 4986.179
1041.902, 5360.441
1043.006, 6249.298
1044.111, 6985.706
1045.215, 7980.194
1046.319, 9402.271
1047.423, 11791.53
1048.527, 13000.46
1049.631, 15457.25
1050.734, 18774.69
1051.837, 23352.43
1052.941, 27312.32
1054.044, 32046.41
1055.146, 38177.76
1056.249, 44210.97
1057.352, 49733.43
1058.454, 53637.05
1059.556, 54662.80
1060.659, 52955.50
1061.761, 47860.65
1062.862, 41852.13
1063.964, 35098.18
1065.066, 29078.64
1066.167, 23463.05
1067.268, 18911.03
1068.369, 15490.42
1069.470, 12646.03
1070.571, 10424.84
1071.672, 8494.898
1072.772, 7075.389
1073.873, 5861.071
1074.973, 4893.094
1076.073, 4172.829
1077.173, 3616.267
1078.272, 3067.123
1079.372, 2692.572
1080.471, 2358.225
1081.571, 2137.909
1082.670, 1782.373
1083.769, 1643.003
1084.868, 1491.557
1085.966, 1332.176
1087.065, 1206.403
1088.163, 1078.511
1089.262, 989.0103
1090.360, 899.5146
1091.458, 884.0220
1092.555, 766.5366
1093.653, 811.1113
1094.751, 832.6382
1095.848, 793.2529
1096.945, 837.3496
1098.042, 820.8887
1099.139, 868.5977
1100.236, 873.4199
1101.333, 882.9878
1102.429, 894.7012
1103.525, 1076.264
1104.621, 1276.831
1105.718, 1456.401
1106.813, 1793.975
1107.909, 2003.861
1109.005, 2485.448
1110.100, 2957.039
1111.195, 3231.651
1112.291, 3651.249
1113.386, 3914.849
1114.480, 3951.450
1115.575, 3525.056
1116.670, 3197.665
1117.764, 2587.276
1118.858, 2040.892
1119.952, 1616.510
1121.046, 1233.448
1122.140, 1021.820
1123.234, 720.4497
1124.327, 549.1943
1125.421, 471.8262
1126.514, 385.4868
1127.607, 281.1211
1128.700, 280.7544
1129.792, 306.6128
1130.885, 259.3472
1131.978, 214.1470
1133.070, 207.9624
1134.162, 101.6367
1135.254, 76.29443
1136.346, 83.94971
1137.438, 110.6064
1138.529, 16.26270
1139.621, 23.93848
1140.712, 13.41064
1141.803, 13.23340
1142.894, 60.93506
1143.985, 14.41064
1145.076, 8.768066
1146.166, 56.86865
1147.257, 5.938477
1148.347, 20.98975
1149.437, 46.21582
1150.527, 11.35645
1151.617, 6.920898
1152.706, 5.475098
1153.796, 15.01904
1154.885, 32.04639
1155.975, 24.30273
1157.064, 42.58887
1158.153, 11.09424
1159.241, 70.41260
1160.330, 96.97070
1161.419, 57.59473
1162.507, 97.20605
1163.595, 15.01270
1164.683, 78.70947
1165.771, 34.50195
1166.859, 11.68408
1167.946, 41.14014
1169.034, 28.99854
1170.121, 28.88867
1171.208, 0.8105470
1172.295, 113.3257
1173.382, 1.374023
1174.469, 46.40381
1175.556, 27.42041
1176.642, 65.35400
1177.728, 108.8638
1178.815, 2.026855
1179.901, 62.94434
1180.986, 29.97217
1182.072, 42.90137
1183.158, 54.82471
1184.243, 43.26318
1185.328, 38.37842
1186.414, 31.53564
1187.499, 62.40625
1188.583, 15.24512
1189.668, 19.31689
1190.753, 37.92529
1191.837, 34.78857
1192.921, 69.85645
1194.005, 100.1177
1195.089, 20.90723
1196.173, 93.57959
1197.257, 7.467285
1198.340, 45.61328
1199.424, 50.96289
1200.507, 94.73291
1201.590, 14.08203
1202.673, 92.61914
1203.756, 49.23096
1204.839, 19.05176
1205.921, 44.60303
1207.004, 132.3589
1208.086, 33.14160
1209.168, 140.9399
1210.250, 69.47949
1211.332, 64.12061
1212.413, 132.4912
1213.495, 81.02832
1214.576, 101.3696
1215.657, 90.74023
1216.738, 67.26660
1217.819, 97.76221
1218.900, 133.3096
1219.981, 131.7314
1221.061, 134.9546
1222.142, 134.0029
1223.222, 116.4478
1224.302, 157.6221
1225.382, 112.2285
1226.461, 83.73730
1227.541, 53.99414
1228.621, 95.43359
1229.700, 70.07617
1230.779, 133.4990
1231.858, 100.8364
1232.937, 157.1606
1234.016, 235.4590
1235.094, 155.5068
1236.173, 188.7041
1237.251, 70.33984
1238.329, 238.4521
1239.407, 183.1519
1240.485, 140.9717
1241.563, 181.1274
1242.641, 229.0742
1243.718, 190.9224
1244.795, 205.8457
1245.873, 201.2583
1246.950, 169.3477
1248.026, 209.7090
1249.103, 196.4897
1250.180, 185.0688
1251.256, 140.9478
1252.333, 177.6538
1253.409, 128.5342
1254.485, 211.4419
1255.561, 150.1675
1256.636, 267.1934
1257.712, 196.8784
1258.787, 110.2793
1259.863, 150.1445
1260.938, 134.5889
1262.013, 131.3403
