##NAMES=Forsterite
##RRUFFID=R040057
##IDEAL CHEMISTRY=Mg_2_SiO_4_
##LOCALITY=Trudy's mine, San Carlos, Gila County, Arizona, USA
##OWNER=RRUFF
##SOURCE=Bob Downs
##DESCRIPTION=Dark green crystal fragments from xenoliths in a basalt flow
##STATUS=The identification of this mineral has been confirmed by X-ray diffraction and chemical analysis
##URL=rruff.info/R040057
##MEASURED CHEMISTRY=(Mg_1.67_Fe_0.32_Ni_0.01_)_Î£=2_Si_1.00_O_4_; trace amounts of Mn and Ca
##PIN_ID=L00449
##ORIENTATION=Laser parallel to b* (0 1 0). Fiducial mark perpendicular to laser is parallel to a [1 0 0]
87.798, 0.000
89.193, 81.799
90.587, 151.899
91.981, 136.320
93.375, 79.266
94.768, 98.351
96.161, 49.197
97.554, 101.923
98.947, 123.930
100.340, 38.790
101.732, 17.198
103.124, 34.912
104.516, 145.738
105.908, 204.521
107.300, 222.140
108.691, 164.497
110.082, 60.512
111.473, 108.114
112.864, 226.241
114.254, 328.886
115.644, 425.999
117.034, 475.485
118.424, 377.314
119.813, 312.460
121.203, 337.897
122.592, 272.607
123.981, 170.574
125.369, 117.784
126.758, 125.223
128.146, 115.872
129.534, 115.723
130.922, 107.793
132.309, 158.030
133.696, 85.414
135.083, 186.927
136.470, 121.596
137.857, 179.339
139.243, 221.192
140.630, 241.023
142.016, 238.176
143.401, 178.299
144.787, 191.560
146.172, 159.926
147.557, 133.392
148.942, 188.952
150.327, 144.601
151.711, 165.335
153.096, 175.149
154.480, 175.040
155.863, 132.002
157.247, 142.068
158.630, 100.265
160.013, 101.969
161.396, 92.872
162.779, 105.293
164.161, 93.765
165.544, 105.283
166.926, 113.842
168.308, 115.740
169.689, 121.909
171.070, 132.951
172.452, 116.629
173.833, 128.400
175.213, 102.030
176.594, 99.916
177.974, 107.597
179.354, 76.181
180.734, 61.780
182.114, 35.395
183.493, 43.028
184.872, 1.318
186.251, 30.356
187.630, 16.051
189.008, 46.859
190.387, 27.759
191.765, 42.184
193.143, 24.980
194.520, 4.763
195.898, 47.546
197.275, 31.887
198.652, 73.244
200.029, 36.621
201.405, 50.030
202.782, 115.476
204.158, 101.281
205.534, 293.415
206.909, 148.900
208.285, 247.397
209.660, 301.904
211.035, 265.418
212.410, 350.941
213.784, 403.488
215.159, 433.055
216.533, 496.629
217.907, 440.210
219.281, 382.797
220.654, 345.388
222.027, 375.985
223.400, 384.581
224.773, 383.758
226.146, 402.350
227.518, 394.746
228.891, 385.553
230.263, 363.353
231.634, 366.058
233.006, 318.967
234.377, 337.103
235.748, 289.677
237.119, 300.722
238.490, 318.302
239.860, 196.887
241.231, 257.676
242.601, 187.266
243.970, 165.858
245.340, 121.454
246.709, 87.050
248.079, 49.647
249.448, 7.245
250.816, 3.158
252.185, 21.439
253.553, 9.142
254.921, 34.637
256.289, 32.343
257.657, 33.857
259.024, 9.794
260.391, 32.677
261.758, 3.747
263.125, 15.079
264.492, 31.669
265.858, 40.490
267.224, 4.624
268.590, 1.320
269.956, 18.318
271.321, 38.365
272.687, 7.458
274.052, 61.591
275.416, 35.805
276.781, 65.209
278.146, 52.212
279.510, 104.530
280.874, 198.830
282.237, 201.157
283.601, 185.508
284.964, 245.953
286.327, 424.350
287.690, 494.739
289.053, 621.986
290.416, 843.017
291.778, 1017.893
293.140, 1325.346
294.502, 1547.016
295.863, 1791.418
297.225, 1950.557
298.586, 2097.368
299.947, 2104.719
301.308, 1904.829
302.668, 1644.672
304.029, 1527.951
305.389, 1328.957
306.749, 1218.663
308.108, 1195.720
309.468, 1190.398
310.827, 1221.223
312.186, 1196.826
313.545, 1258.755
314.903, 1350.282
316.262, 1249.596
317.620, 1447.343
318.978, 1452.483
320.336, 1409.282
321.693, 1335.095
323.051, 1284.416
324.408, 1116.670
325.765, 1120.521
327.121, 992.467
328.478, 893.229
329.834, 822.938
331.190, 838.677
332.546, 774.585
333.902, 723.343
335.257, 625.088
336.612, 531.228
337.967, 474.019
339.322, 360.778
340.677, 334.838
342.031, 281.504
343.385, 167.234
344.739, 180.092
346.093, 132.933
347.446, 66.633
348.799, 130.355
350.153, 85.082
351.505, 30.828
352.858, 78.581
354.210, 14.351
355.563, 39.531
356.915, 33.310
358.267, 6.932
359.618, 24.024
360.969, 52.765
362.321, 55.562
363.672, 10.644
365.022, 47.828
366.373, 17.971
367.723, 45.763
369.073, 44.564
370.423, 45.374
371.773, 3.195
373.122, 4.006
374.471, 53.824
375.821, 22.365
377.169, 108.444
378.518, 25.756
379.866, 23.027
381.215, 68.801
382.563, 4.419
383.910, 17.347
385.258, 12.103
386.605, 42.850
387.952, 38.596
389.299, 40.342
390.646, 39.062
391.992, 3.771
393.339, 93.468
394.685, 38.152
396.031, 99.819
397.376, 64.468
398.722, 201.104
400.067, 196.726
401.412, 234.336
402.757, 368.933
404.101, 478.517
405.446, 551.089
406.790, 690.648
408.134, 814.194
409.478, 929.727
410.821, 946.247
412.165, 902.754
413.508, 960.221
414.851, 903.701
416.193, 852.087
417.536, 942.558
418.878, 1061.474
420.220, 1172.931
421.562, 1195.280
422.904, 1385.721
424.245, 1403.120
425.586, 1210.354
426.927, 1177.764
428.268, 883.163
429.609, 681.512
430.949, 566.888
432.289, 511.252
433.629, 330.604
434.969, 242.943
436.309, 147.269
437.648, 88.564
438.987, 69.881
440.326, 46.166
441.665, 61.437
443.003, 68.692
444.342, 79.933
445.680, 47.160
447.018, 79.369
448.355, 36.436
449.693, 49.291
451.030, 13.203
452.367, 28.845
453.704, 98.126
455.041, 37.183
456.377, 32.292
457.713, 4.549
459.049, 37.642
460.385, 2.114
461.721, 6.834
463.056, 12.525
464.391, 26.186
465.726, 35.109
467.061, 56.437
468.395, 35.032
469.730, 68.605
471.064, 16.160
472.398, 103.684
473.731, 2.809
475.065, 24.677
476.398, 31.118
477.731, 64.546
479.064, 37.942
480.397, 57.315
481.729, 56.667
483.062, 83.998
484.394, 52.309
485.725, 55.617
487.057, 49.885
488.389, 70.161
489.720, 83.385
491.051, 76.811
492.382, 55.259
493.712, 79.635
495.043, 82.811
496.373, 17.366
497.703, 71.683
499.032, 27.875
500.362, 56.062
501.691, 121.099
503.020, 116.628
504.349, 93.532
505.678, 101.506
507.007, 137.054
508.335, 138.253
509.663, 204.139
510.991, 176.301
512.319, 161.716
513.646, 245.534
514.973, 160.737
516.300, 260.473
517.627, 266.533
518.954, 140.685
520.280, 258.476
521.607, 281.806
522.933, 289.228
524.259, 361.833
525.584, 338.565
526.910, 516.424
528.235, 489.723
529.560, 712.370
530.885, 675.431
532.209, 941.869
533.534, 1195.896
534.858, 1386.685
536.182, 1638.985
537.506, 1770.348
538.829, 1851.537
540.152, 1648.847
541.476, 1558.681
542.799, 1185.521
544.121, 1011.948
545.444, 816.345
546.766, 680.623
548.088, 531.941
549.410, 515.066
550.732, 468.270
552.053, 461.289
553.375, 363.333
554.696, 349.447
556.017, 414.438
557.337, 323.403
558.658, 374.342
559.978, 357.254
561.298, 418.139
562.618, 449.167
563.938, 413.831
565.257, 537.638
566.576, 456.417
567.895, 494.171
569.214, 623.898
570.533, 640.600
571.851, 662.274
573.170, 803.923
574.488, 792.546
575.805, 886.143
577.123, 884.714
578.440, 900.261
579.758, 897.782
581.075, 788.277
582.391, 952.747
583.708, 869.191
585.024, 972.609
586.341, 1040.001
587.657, 1152.368
588.972, 1298.321
590.288, 1427.023
591.603, 1659.312
592.918, 1905.575
594.233, 2178.812
595.548, 2429.024
596.863, 2622.210
598.177, 2912.372
599.491, 3073.462
600.805, 3126.572
602.119, 3056.656
603.432, 3022.716
604.746, 2858.680
606.059, 2538.688
607.372, 2256.702
608.685, 2122.851
609.997, 1704.210
611.309, 1651.716
612.621, 1294.637
613.933, 1158.332
615.245, 1064.285
616.557, 907.491
617.868, 821.013
619.179, 693.982
620.490, 590.180
621.801, 666.632
623.111, 466.636
624.421, 530.891
625.731, 382.430
627.041, 436.604
628.351, 222.143
629.660, 264.519
630.970, 331.100
632.279, 138.339
633.588, 232.965
634.896, 136.786
636.205, 200.157
637.513, 137.117
638.821, 140.400
640.129, 176.651
641.437, 237.007
642.744, 129.148
644.051, 134.305
645.358, 124.345
646.665, 134.550
647.972, 76.788
649.278, 14.975
650.584, 3.034
651.890, 118.078
653.196, 45.181
654.502, 67.861
655.807, 4.132
657.113, 37.124
658.418, 35.719
659.722, 60.431
661.027, 35.514
662.331, 5.762
663.636, 23.978
664.940, 59.166
666.244, 7.384
667.547, 60.624
668.851, 17.927
670.154, 57.270
671.457, 32.672
672.760, 5.880
674.062, 32.595
675.365, 40.114
676.667, 1.207
677.969, 40.380
679.271, 4.984
680.572, 102.674
681.874, 15.591
683.175, 24.849
684.476, 45.910
685.777, 52.716
687.077, 60.572
688.378, 74.518
689.678, 47.406
690.978, 6.626
692.278, 40.358
693.577, 122.622
694.877, 15.590
696.176, 105.551
697.475, 51.500
698.774, 64.405
700.072, 17.302
701.371, 16.185
702.669, 63.944
703.967, 34.093
705.265, 155.672
706.562, 28.454
707.860, 19.225
709.157, 96.986
710.454, 24.737
711.751, 171.479
713.047, 153.211
714.344, 170.934
715.640, 200.876
716.936, 105.354
718.232, 193.052
719.527, 94.741
720.823, 90.422
722.118, 152.097
723.413, 87.763
724.708, 100.423
726.002, 118.075
727.297, 134.721
728.591, 197.361
729.885, 260.993
731.179, 199.621
732.472, 155.242
733.766, 212.858
735.059, 421.468
736.352, 293.073
737.645, 238.673
738.937, 309.268
740.230, 202.858
741.522, 245.445
742.814, 247.027
744.106, 291.606
745.397, 344.181
746.689, 357.046
747.980, 349.320
749.271, 368.885
750.562, 433.447
751.853, 356.006
753.143, 422.563
754.433, 457.118
755.723, 370.671
757.013, 565.222
758.303, 441.792
759.592, 522.359
760.881, 525.925
762.170, 613.491
763.459, 566.089
764.748, 636.711
766.036, 685.344
767.325, 658.985
768.613, 734.667
769.901, 739.367
771.188, 751.084
772.476, 794.809
773.763, 820.198
775.050, 852.497
776.337, 905.079
777.624, 951.857
778.910, 999.648
780.196, 1044.276
781.482, 1098.513
782.768, 1152.067
784.054, 1187.884
785.339, 1288.710
786.625, 1296.546
787.910, 1411.377
789.195, 1491.235
790.479, 1645.091
791.764, 1704.971
793.048, 1921.855
794.332, 2090.747
795.616, 2217.644
796.900, 2547.546
798.183, 2583.449
799.467, 3085.375
800.750, 3380.292
802.033, 3680.245
803.316, 4438.991
804.598, 4744.699
805.880, 5734.481
807.163, 6734.451
808.445, 7695.043
809.726, 9242.853
811.008, 11184.777
812.289, 13562.705
813.570, 17048.770
814.851, 21738.324
816.132, 27282.492
817.413, 33600.578
818.693, 41059.070
819.973, 45606.926
821.253, 47038.074
822.533, 45322.930
823.813, 39682.527
825.092, 33931.711
826.371, 28388.490
827.650, 23689.730
828.929, 20358.641
830.208, 17528.139
831.486, 15258.287
832.764, 13715.887
834.042, 12781.387
835.320, 12135.219
836.598, 11647.119
837.875, 11378.183
839.152, 11408.795
840.429, 12093.047
841.706, 12495.871
842.983, 13577.250
844.259, 15408.062
845.536, 17225.148
846.812, 20238.547
848.088, 23470.035
849.363, 27148.307
850.639, 30456.824
851.914, 32132.812
853.189, 32728.363
854.464, 31560.732
855.739, 29093.133
857.013, 25511.641
858.288, 21574.096
859.562, 18502.734
860.836, 15701.292
862.110, 12741.831
863.383, 11217.524
864.656, 9253.143
865.930, 7944.869
867.203, 6665.616
868.475, 5753.386
869.748, 4783.172
871.020, 4248.978
872.292, 3618.801
873.564, 3200.645
874.836, 2784.522
876.108, 2513.420
877.379, 2244.337
878.650, 1962.271
879.922, 1890.239
881.192, 1648.227
882.463, 1544.237
883.733, 1367.271
885.004, 1200.322
886.274, 1049.394
887.544, 954.627
888.813, 868.593
890.083, 798.723
891.352, 756.873
892.621, 675.041
893.890, 588.229
895.159, 557.436
896.427, 421.662
897.695, 425.022
898.964, 577.172
900.232, 425.456
901.499, 432.760
902.767, 489.082
904.034, 313.424
905.301, 388.785
906.568, 414.166
907.835, 400.565
909.102, 291.985
910.368, 353.772
911.634, 514.230
912.900, 438.708
914.166, 613.204
915.432, 497.171
916.697, 401.354
917.962, 603.908
919.227, 482.990
920.492, 432.629
921.757, 422.238
923.021, 429.866
924.285, 417.511
925.550, 465.176
926.813, 460.060
928.077, 370.250
929.341, 419.969
930.604, 510.332
931.867, 381.086
933.130, 492.718
934.393, 706.506
935.655, 532.312
936.918, 639.135
938.180, 796.813
939.442, 773.672
940.703, 1032.547
941.965, 1110.524
943.226, 1196.693
944.488, 1462.845
945.749, 1761.787
947.009, 2030.747
948.270, 2204.018
949.530, 2527.939
950.791, 3108.949
952.051, 3347.221
953.311, 3580.262
954.570, 4026.070
955.830, 4178.145
957.089, 4309.508
958.348, 4229.628
959.607, 4205.037
960.866, 4001.221
962.124, 3896.724
963.383, 3688.248
964.641, 3440.480
965.899, 3128.757
967.156, 2798.073
968.414, 2534.421
969.671, 2247.792
970.928, 2001.864
972.185, 1775.291
973.442, 1600.741
974.699, 1361.230
975.955, 1206.744
977.211, 1008.311
978.468, 988.889
979.723, 874.045
980.979, 778.673
982.234, 808.332
983.490, 593.010
984.745, 630.842
986.000, 546.248
987.254, 396.020
988.509, 542.743
989.763, 451.545
991.017, 443.564
992.271, 416.579
993.525, 434.540
994.779, 430.879
996.032, 386.036
997.285, 362.050
998.538, 301.045
999.791, 424.148
1001.044, 230.250
1002.296, 459.436
1003.548, 260.514
1004.800, 333.600
1006.052, 323.576
1007.304, 222.687
1008.555, 219.895
1009.807, 204.295
1011.058, 262.480
1012.309, 211.693
1013.559, 158.927
1014.810, 173.215
1016.060, 143.462
1017.310, 195.979
1018.560, 57.350
1019.810, 99.628
1021.060, 239.932
1022.309, 151.225
1023.558, 269.113
1024.807, 124.281
1026.056, 170.851
1027.305, 131.174
1028.553, 256.618
1029.801, 203.484
1031.049, 100.079
1032.297, 182.487
1033.545, 183.685
1034.793, 114.177
1036.040, 83.709
1037.287, 144.131
1038.534, 71.558
1039.781, 253.412
1041.027, 111.110
1042.274, 161.560
1043.520, 105.015
1044.766, 151.474
1046.012, 92.050
1047.257, 117.524
1048.503, 166.008
1049.748, 102.493
1050.993, 143.984
1052.238, 116.479
1053.483, 51.976
1054.727, 68.477
1055.971, 206.982
1057.216, 20.490
1058.459, 33.001
1059.703, 98.487
1060.947, 20.011
1062.190, 50.485
1063.433, 25.007
1064.676, 80.554
1065.919, 24.100
1067.162, 106.347
1068.404, 43.204
1069.646, 32.771
1070.888, 126.653
1072.130, 55.076
1073.372, 20.498
1074.613, 17.920
1075.855, 7.660
1077.096, 38.244
1078.337, 135.154
1079.578, 39.447
1080.818, 70.933
1082.059, 59.689
1083.299, 23.660
1084.539, 77.006
1085.779, 63.464
1087.018, 39.195
1088.258, 82.130
1089.497, 6.452
1090.736, 23.229
1091.975, 25.925
1093.213, 3.637
1094.452, 102.644
1095.690, 17.920
1096.928, 3.809
1098.166, 50.545
1099.404, 83.688
1100.642, 54.083
1101.879, 64.111
1103.116, 28.702
1104.353, 19.465
1105.590, 67.375
1106.827, 101.840
1108.063, 66.049
1109.299, 18.019
1110.536, 1.200
1111.771, 64.750
1113.007, 87.255
1114.243, 121.020
1115.478, 107.011
1116.713, 41.199
1117.948, 49.175
1119.183, 65.790
1120.418, 144.255
1121.652, 304.283
1122.886, 379.350
1124.120, 246.384
1125.354, 46.298
1126.588, 213.318
1127.821, 11.542
1129.055, 71.794
1130.288, 113.729
1131.521, 63.859
1132.753, 30.677
1133.986, 42.312
1135.218, 216.709
1136.450, 61.130
1137.682, 126.814
1138.914, 23.482
1140.146, 35.773
1141.377, 59.297
1142.609, 49.901
1143.840, 31.085
1145.071, 69.872
1146.301, 99.577
1147.532, 64.703
1148.762, 69.334
1149.992, 54.784
1151.222, 89.046
1152.452, 136.484
1153.682, 15.073
1154.911, 179.325
1156.140, 81.249
1157.369, 46.782
1158.598, 107.725
1159.827, 157.545
1161.055, 107.741
1162.284, 98.129
1163.512, 141.270
1164.740, 51.562
1165.967, 19.887
1167.195, 116.013
1168.422, 113.503
1169.650, 142.010
1170.877, 37.280
1172.103, 24.553
1173.330, 63.325
1174.557, 149.515
1175.783, 99.130
1177.009, 15.438
1178.235, 77.841
1179.461, 31.294
1180.686, 38.250
1181.912, 110.180
1183.137, 114.225
1184.362, 164.293
1185.587, 197.661
1186.811, 64.509
1188.036, 89.088
1189.260, 268.699
1190.484, 169.480
1191.708, 240.663
1192.932, 127.749
1194.155, 162.694
1195.378, 337.068
1196.602, 203.746
1197.825, 218.045
1199.047, 248.892
1200.270, 234.611
1201.492, 239.588
1202.715, 263.504
1203.937, 213.604
1205.159, 267.546
1206.380, 246.051
1207.602, 159.216
1208.823, 234.677
1210.044, 205.326
1211.265, 253.646
1212.486, 251.592
1213.707, 195.316
1214.927, 249.104
1216.147, 223.926
1217.367, 280.621
1218.587, 239.909
1219.807, 265.176
1221.027, 206.421
1222.246, 204.646
1223.465, 336.646
1224.684, 300.340
1225.903, 256.503
1227.121, 316.735
1228.340, 296.137
1229.558, 308.374
1230.776, 230.452
1231.994, 143.507
1233.212, 270.543
1234.429, 271.944
1235.646, 185.944
1236.864, 379.926
1238.081, 239.805
1239.297, 232.489
1240.514, 340.191
1241.730, 256.101
1242.947, 203.991
1244.163, 196.568
1245.378, 291.488
1246.594, 266.307
1247.810, 272.069
1249.025, 205.641
1250.240, 231.650
1251.455, 197.393
1252.670, 143.851
1253.885, 184.553
1255.099, 193.963
1256.313, 31.594
1257.527, 195.902
1258.741, 186.194
1259.955, 6.220
1261.168, 226.315
1262.382, 113.832
1263.595, 223.314
1264.808, 147.770
1266.021, 129.517
1267.233, 131.919
1268.446, 121.283
1269.658, 126.726
1270.870, 153.884
1272.082, 126.137
1273.294, 95.380
1274.505, 62.042
1275.716, 135.236
1276.928, 86.410
1278.139, 158.531
1279.349, 109.507
1280.560, 93.867
1281.770, 68.876
1282.981, 91.914
1284.191, 168.863
1285.401, 6.599
1286.610, 30.327
1287.820, 113.116
1289.029, 26.482
1290.239, 129.100
1291.448, 112.812
1292.656, 11.451
1293.865, 123.167
1295.073, 23.761
1296.282, 32.258
1297.490, 22.864
1298.698, 118.452
1299.906, 29.140
1301.113, 50.683
1302.320, 20.865
1303.528, 46.392
1304.735, 42.146
1305.942, 27.264
1307.148, 135.641
1308.355, 27.950
1309.561, 164.287
1310.767, 137.341
1311.973, 24.525
1313.179, 85.787
1314.384, 77.010
1315.590, 129.229
1316.795, 168.837
1318.000, 27.148
1319.205, 121.041
1320.410, 196.166
1321.614, 52.847
1322.819, 74.702
1324.023, 46.507
1325.227, 143.481
1326.431, 179.650
1327.634, 74.490
1328.838, 5.312
1330.041, 40.214
1331.244, 174.092
1332.447, 5.471
1333.650, 18.109
1334.852, 143.922
1336.055, 47.717
1337.257, 56.492
1338.459, 2.863
1339.661, 0.700
1340.862, 140.580
1342.064, 25.272
1343.265, 80.947
1344.466, 105.604
1345.667, 19.246
1346.868, 85.870
1348.068, 49.479
1349.269, 44.072
1350.469, 169.649
1351.669, 121.215
1352.869, 149.763
1354.069, 219.322
1355.268, 15.126
1356.468, 183.404
1357.667, 132.941
1358.866, 38.534
1360.065, 172.110
1361.263, 37.634
1362.462, 151.156
1363.660, 192.674
1364.858, 137.194
1366.056, 137.710
1367.254, 216.228
1368.451, 143.633
1369.649, 199.159
1370.846, 151.693
1372.043, 240.247
1373.240, 154.741
1374.436, 178.044
1375.633, 233.158
1376.829, 126.363
1378.025, 3.341
1379.221, 148.928
1380.417, 179.183
1381.613, 151.409
1382.808, 223.619
1384.003, 255.828
1385.199, 258.031
1386.393, 278.536
1387.588, 261.336
1388.783, 272.306
1389.977, 239.439
1391.171, 246.538
1392.365, 153.401
1393.559, 231.257
1394.753, 186.009
1395.946, 240.878
1397.140, 211.021
1398.333, 261.551
1399.526, 166.273
1400.719, 334.442
1401.911, 226.158
1403.104, 231.050
1404.296, 157.376
1405.488, 286.000
1406.680, 103.454
1407.872, 159.086
1409.063, 299.465
1410.255, 162.502
1411.446, 304.326
1412.637, 124.848
1413.828, 212.223
1415.018, 328.717
1416.209, 289.673
1417.399, 247.660
1418.589, 288.100
1419.779, 211.486
1420.969, 308.412
1422.159, 280.174
1423.348, 276.402
1424.537, 275.165
1425.726, 221.732
1426.915, 285.697
1428.104, 167.677
1429.293, 283.178
1430.481, 150.212
1431.669, 251.729
1432.857, 207.226
1434.045, 259.870
1435.233, 397.759
1436.420, 351.677
1437.608, 220.833
1438.795, 318.873
1439.982, 369.860
1441.169, 323.604
1442.355, 383.317
1443.542, 424.994
1444.728, 238.632
1445.914, 431.236
1447.100, 274.223
1448.286, 437.163
1449.472, 524.211
1450.657, 537.110
1451.842, 253.979
1453.027, 352.944
1454.212, 298.736
1455.397, 238.194
1456.581, 306.480
1457.766, 426.480
1458.950, 232.415
1460.134, 428.284
1461.318, 262.181
1462.501, 393.080
1463.685, 374.998
1464.868, 328.940
1466.051, 414.041
1467.234, 203.104
1468.417, 203.137
1469.600, 266.204
1470.782, 302.430
1471.965, 63.819
1473.147, 334.249
1474.329, 297.803
1475.510, 128.373
1476.692, 252.979
1477.873, 242.619
1479.055, 167.338
1480.236, 317.063
1481.416, 158.785
1482.597, 306.509
1483.778, 317.335
1484.958, 112.189
1486.138, 100.086
1487.318, 339.036
1488.498, 223.059
1489.678, 207.170
1490.857, 31.381
1492.037, 229.698
1493.216, 198.129
1494.395, 120.686
1495.574, 165.359
1496.752, 43.150
1497.931, 44.956
1499.109, 141.120
1500.287, 10.337
1501.465, 13.735
1502.643, 30.343
1503.820, 60.189
1504.998, 88.301
1506.175, 32.711
1507.352, 79.461
1508.529, 148.611
1509.706, 6.836
1510.882, 139.985
1512.059, 117.245
1513.235, 87.120
1514.411, 11.763
1515.587, 69.775
1516.762, 0.000
##END=



