##NAMES=Forsterite
##RRUFFID=R060551
##IDEAL CHEMISTRY=Mg_2_SiO_4_
##LOCALITY=Kohiston, Pakistan
##OWNER=RRUFF
##SOURCE=Gemological Institute of America
##DESCRIPTION=Pale green fragment
##STATUS=The identification of this mineral has been confirmed by X-ray diffraction and chemical analysis
##URL=rruff.info/R060551
##MEASURED CHEMISTRY=(Mg_1.82_Fe_0.18_)_Î£=2_Si_1.00_O_4_; trace amounts of Mn
##PIN_ID=M01244
##ORIENTATION=Laser parallel to b* (0 1 0). Fiducial mark perpendicular to laser is parallel to c [0 0 1]
96.53000, 0.0000000E+00
97.77300, 5.145020
99.01500, 116.1772
100.2580, 41.46338
101.5000, 108.8818
102.7420, 234.7070
103.9840, 157.0864
105.2260, 267.1460
106.4670, 343.5835
107.7080, 408.4541
108.9490, 381.0479
110.1900, 451.8130
111.4310, 444.3159
112.6720, 421.2056
113.9120, 447.1968
115.1520, 445.0537
116.3920, 517.5781
117.6320, 422.6050
118.8710, 482.9917
120.1110, 469.6138
121.3500, 396.3579
122.5890, 499.1294
123.8270, 431.8428
125.0660, 390.4243
126.3040, 419.8105
127.5430, 484.9429
128.7810, 540.7710
130.0180, 411.2500
131.2560, 406.3379
132.4940, 402.9990
133.7310, 379.2007
134.9680, 375.2393
136.2050, 435.0635
137.4410, 386.7051
138.6780, 440.7837
139.9140, 524.2676
141.1500, 540.1250
142.3860, 527.3311
143.6220, 483.8657
144.8570, 516.7754
146.0920, 517.3784
147.3280, 582.2842
148.5620, 552.9790
149.7970, 645.9326
151.0320, 642.1357
152.2660, 630.5820
153.5000, 685.6250
154.7340, 606.1675
155.9680, 716.2930
157.2020, 645.6289
158.4350, 601.1670
159.6680, 529.8994
160.9010, 659.8213
162.1340, 660.9263
163.3670, 567.2104
164.5990, 614.6709
165.8310, 552.3018
167.0630, 607.0967
168.2950, 519.0513
169.5270, 609.1855
170.7580, 619.4443
171.9900, 555.6802
173.2210, 580.5605
174.4510, 395.3765
175.6820, 470.9033
176.9130, 418.6230
178.1430, 243.7007
179.3730, 324.9004
180.6030, 413.5703
181.8330, 241.8496
183.0620, 318.1807
184.2920, 349.5669
185.5210, 444.0112
186.7500, 459.5171
187.9790, 347.0850
189.2070, 524.7178
190.4360, 560.4165
191.6640, 401.1816
192.8920, 499.0151
194.1200, 501.9160
195.3480, 609.8843
196.5750, 575.9219
197.8020, 556.0278
199.0290, 551.2002
200.2560, 570.9619
201.4830, 587.7397
202.7090, 656.1309
203.9360, 663.6201
205.1620, 736.2251
206.3880, 795.8267
207.6140, 927.6553
208.8390, 994.4746
210.0650, 1183.412
211.2900, 1322.417
212.5150, 1469.480
213.7400, 1733.601
214.9640, 1985.775
216.1890, 2268.004
217.4130, 2600.286
218.6370, 2980.621
219.8610, 3112.014
221.0850, 3299.464
222.3080, 3403.975
223.5310, 3405.537
224.7540, 3357.150
225.9770, 3216.512
227.2000, 2954.541
228.4230, 2744.379
229.6450, 2351.292
230.8670, 1994.298
232.0890, 1749.348
233.3110, 1563.437
234.5320, 1436.574
235.7540, 1283.751
236.9750, 1131.968
238.1960, 1008.222
239.4170, 815.5137
240.6380, 640.8428
241.8580, 582.9541
243.0780, 584.4619
244.2990, 364.9590
245.5180, 362.1133
246.7380, 366.4209
247.9580, 237.6934
249.1770, 213.3623
250.3960, 208.7090
251.6150, 160.9521
252.8340, 102.8262
254.0530, 193.1777
255.2710, 100.2539
256.4890, 50.51172
257.7070, 120.0928
258.9250, 49.59180
260.1430, 47.16602
261.3600, 131.5977
262.5770, 29.83887
263.7950, 37.84863
265.0110, 116.6533
266.2280, 57.57129
267.4450, 63.59375
268.6610, 51.71777
269.8770, 89.93750
271.0930, 163.2500
272.3090, 61.64941
273.5250, 189.1338
274.7400, 215.6992
275.9550, 48.34082
277.1700, 246.0586
278.3850, 93.84766
279.6000, 185.7051
280.8140, 280.6309
282.0290, 222.6201
283.2430, 324.6719
284.4570, 314.7842
285.6700, 376.9541
286.8840, 395.1797
288.0970, 506.3906
289.3100, 661.7930
290.5230, 798.1768
291.7360, 1017.610
292.9490, 1260.162
294.1610, 1532.603
295.3740, 1841.196
296.5860, 2205.816
297.7970, 2654.478
299.0090, 3093.182
300.2210, 3653.928
301.4320, 4231.713
302.6430, 4639.537
303.8540, 4699.399
305.0650, 4447.299
306.2750, 4090.233
307.4860, 3513.361
308.6960, 2943.889
309.9060, 2391.015
311.1160, 2065.047
312.3260, 1841.371
313.5350, 1625.615
314.7440, 1491.776
315.9530, 1526.953
317.1620, 1550.170
318.3710, 1443.414
319.5800, 1748.687
320.7880, 1783.942
321.9960, 1872.389
323.2040, 2076.459
324.4120, 2381.829
325.6200, 2326.321
326.8270, 2504.735
328.0340, 2509.171
329.2410, 2443.630
330.4480, 2303.109
331.6550, 2337.611
332.8610, 2245.134
334.0680, 2295.678
335.2740, 2462.241
336.4800, 2640.826
337.6860, 2499.431
338.8910, 2566.054
340.0970, 2593.061
341.3020, 2284.722
342.5070, 2113.402
343.7120, 1920.592
344.9170, 1732.306
346.1210, 1457.190
347.3250, 1162.940
348.5290, 1105.881
349.7330, 877.6582
350.9370, 795.4531
352.1410, 647.2676
353.3440, 564.0898
354.5470, 510.0859
355.7500, 539.9395
356.9530, 379.1953
358.1560, 405.0791
359.3580, 406.1836
360.5610, 355.0938
361.7630, 316.0781
362.9650, 384.1201
364.1660, 217.2949
365.3680, 314.2461
366.5690, 341.2148
367.7710, 352.2090
368.9720, 468.0693
370.1720, 345.0850
371.3730, 285.1084
372.5740, 339.1406
373.7740, 426.2051
374.9740, 326.0186
376.1740, 249.4443
377.3740, 184.5869
378.5730, 153.7344
379.7730, 80.90234
380.9720, 21.07422
382.1710, 83.25000
383.3700, 64.55859
384.5680, 4.348633
385.7670, 1.134766
386.9650, 69.11914
388.1630, 0.5634770
389.3610, 11.21387
390.5590, 65.83594
391.7560, 75.29297
392.9540, 5.964844
394.1510, 80.49805
395.3480, 51.04297
396.5450, 36.57324
397.7420, 157.0566
398.9380, 183.5498
400.1340, 163.6514
401.3300, 148.1768
402.5260, 86.79688
403.7220, 64.44043
404.9180, 21.92383
406.1130, 19.29785
407.3080, 34.45215
408.5030, 219.8711
409.6980, 157.2959
410.8930, 239.7578
412.0870, 459.2432
413.2820, 459.7598
414.4760, 595.3184
415.6700, 792.9062
416.8630, 819.5020
418.0570, 916.1162
419.2500, 812.7344
420.4440, 789.3711
421.6370, 853.0459
422.8290, 575.7412
424.0220, 712.4404
425.2150, 542.1719
426.4070, 492.8711
427.5990, 423.5693
428.7910, 567.2686
429.9830, 613.9658
431.1740, 493.6621
432.3660, 512.3613
433.5570, 524.0586
434.7480, 425.7676
435.9390, 497.4736
437.1300, 633.1758
438.3200, 361.8740
439.5110, 527.5693
440.7010, 384.2607
441.8910, 452.9463
443.0810, 274.6260
444.2700, 319.3008
445.4600, 197.9707
446.6490, 243.6328
447.8380, 187.2900
449.0270, 75.94336
450.2160, 13.58887
451.4040, 11.56543
452.5930, 49.81055
453.7810, 35.60352
454.9690, 45.93848
456.1570, 52.46777
457.3440, 101.9873
458.5320, 3.497070
459.7190, 84.97852
460.9060, 82.45020
462.0930, 130.9121
463.2800, 44.63574
464.4660, 61.76172
465.6530, 39.14551
466.8390, 161.5117
468.0250, 66.86621
469.2110, 189.2080
470.3970, 98.53711
471.5820, 145.8545
472.7680, 225.1611
473.9530, 181.4541
475.1380, 215.5430
476.3230, 298.0010
477.5070, 173.2559
478.6920, 204.4961
479.8760, 123.7227
481.0600, 223.9365
482.2440, 68.13477
483.4280, 132.3164
484.6110, 122.4824
485.7950, 35.63379
486.9780, 199.7559
488.1610, 84.86426
489.3440, 99.95312
490.5260, 86.02832
491.7090, 189.0830
492.8910, 142.1240
494.0730, 104.1484
495.2550, 108.1553
496.4370, 28.55176
497.6190, 222.8984
498.8000, 45.64062
499.9810, 121.1533
501.1620, 10.29785
502.3430, 149.4785
503.5240, 20.67578
504.7050, 104.0439
505.8850, 96.83398
507.0650, 262.6113
508.2450, 129.0459
509.4250, 198.0762
510.6050, 75.74902
511.7840, 228.3457
512.9630, 249.1875
514.1430, 229.8838
515.3220, 215.9697
516.5000, 269.0332
517.6790, 284.9980
518.8570, 283.0547
520.0360, 346.5088
521.2140, 431.0127
522.3920, 389.4258
523.5690, 443.0059
524.7470, 541.2295
525.9240, 490.8877
527.1010, 591.9912
528.2780, 517.7021
529.4550, 731.9297
530.6320, 784.6992
531.8080, 829.7070
532.9850, 1002.678
534.1610, 1135.566
535.3370, 1437.359
536.5130, 1515.446
537.6880, 1958.081
538.8640, 2154.678
540.0390, 2641.691
541.2140, 3096.488
542.3890, 3496.544
543.5640, 3302.456
544.7380, 3346.646
545.9130, 2918.989
547.0870, 2472.880
548.2610, 1995.271
549.4350, 1642.906
550.6090, 1309.247
551.7820, 988.8037
552.9550, 838.7402
554.1290, 662.3936
555.3020, 608.1348
556.4740, 503.8916
557.6470, 439.0723
558.8200, 396.7568
559.9920, 328.4414
561.1640, 320.1445
562.3360, 272.8311
563.5080, 331.1807
564.6790, 376.8174
565.8510, 225.2422
567.0220, 322.6357
568.1930, 354.9971
569.3640, 400.3271
570.5350, 337.6260
571.7050, 354.8936
572.8760, 449.7646
574.0460, 558.9688
575.2160, 577.3057
576.3860, 658.6865
577.5550, 671.3262
578.7250, 750.4043
579.8940, 845.4502
581.0630, 885.4658
582.2320, 1016.448
583.4010, 963.4014
584.5700, 1109.320
585.7380, 1097.209
586.9070, 1221.066
588.0750, 1398.894
589.2430, 1021.126
590.4110, 1253.890
591.5780, 943.4629
592.7460, 949.6396
593.9130, 860.2188
595.0800, 770.8945
596.2470, 734.2793
597.4140, 740.4824
598.5800, 750.5303
599.7470, 854.8174
600.9130, 883.3047
602.0790, 1029.761
603.2450, 1188.188
604.4100, 1333.629
605.5760, 1282.877
606.7410, 1422.490
607.9070, 1312.801
609.0720, 1426.982
610.2360, 1495.233
611.4010, 1601.457
612.5660, 1320.651
613.7300, 1114.817
614.8940, 1071.955
616.0580, 943.0635
617.2220, 940.1445
618.3860, 730.1992
619.5490, 618.2246
620.7120, 584.2227
621.8750, 477.1943
623.0380, 476.4727
624.2010, 514.6885
625.3640, 492.5781
626.5260, 405.9473
627.6880, 428.7822
628.8510, 333.4385
630.0120, 301.2188
631.1740, 251.8008
632.3360, 249.5312
633.4970, 216.2363
634.6580, 212.9102
635.8200, 129.5645
636.9800, 127.2900
638.1410, 115.4570
639.3020, 84.80664
640.4620, 125.3398
641.6220, 114.6377
642.7820, 151.1162
643.9420, 172.5078
645.1020, 136.8291
646.2610, 134.0029
647.4210, 39.38770
648.5800, 5.731445
649.7390, 60.02246
650.8980, 161.4287
652.0570, 104.6650
653.2150, 117.8770
654.3730, 33.93359
655.5320, 66.81543
656.6900, 34.78418
657.8470, 71.17578
659.0050, 143.1113
660.1620, 2.7344000E-02
661.3200, 151.8926
662.4770, 193.7402
663.6340, 13.56836
664.7910, 48.64160
665.9470, 53.08789
667.1040, 147.2051
668.2600, 181.6182
669.4160, 46.83203
670.5720, 22.25977
671.7280, 116.3408
672.8840, 93.02832
674.0390, 108.2119
675.1940, 34.43945
676.3490, 30.33789
677.5040, 133.1543
678.6590, 129.6787
679.8140, 52.95312
680.9680, 110.0010
682.1220, 33.00586
683.2760, 20.97461
684.4300, 70.04395
685.5840, 80.88867
686.7380, 38.19043
687.8910, 8.315430
689.0440, 101.5312
690.1970, 88.63281
691.3500, 37.86523
692.5030, 84.13770
693.6560, 119.4746
694.8080, 76.89355
695.9600, 5.630859
697.1120, 43.49902
698.2640, 21.61133
699.4160, 47.92773
700.5670, 131.5039
701.7190, 63.16113
702.8700, 3.138672
704.0210, 100.4297
705.1720, 72.68164
706.3230, 38.96094
707.4730, 51.23535
708.6240, 75.50391
709.7740, 198.7676
710.9240, 19.97070
712.0740, 13.27734
713.2230, 63.47852
714.3730, 141.7344
715.5220, 21.94434
716.6720, 134.1523
717.8210, 21.35938
718.9690, 37.56445
720.1180, 43.76855
721.2670, 40.97168
722.4150, 52.17578
723.5630, 90.37891
724.7110, 197.5830
725.8590, 8.789063
727.0070, 26.00391
728.1540, 90.19824
729.3020, 174.4033
730.4490, 153.6162
731.5960, 156.8438
732.7430, 210.0762
733.8890, 209.3320
735.0360, 276.0098
736.1820, 282.6250
737.3280, 364.1260
738.4740, 313.4170
739.6200, 257.7129
740.7660, 271.0293
741.9120, 337.3525
743.0570, 307.7061
744.2020, 361.0674
745.3470, 305.4404
746.4920, 298.8213
747.6370, 246.2100
748.7810, 452.6084
749.9250, 411.0176
751.0700, 464.4404
752.2140, 521.7734
753.3580, 516.8721
754.5010, 568.7822
755.6450, 521.2812
756.7880, 543.7920
757.9310, 466.3135
759.0740, 553.8477
760.2170, 586.3936
761.3600, 536.9561
762.5020, 635.7002
763.6450, 689.1191
764.7870, 797.7275
765.9290, 738.3516
767.0710, 905.9912
768.2120, 907.6465
769.3540, 864.3174
770.4950, 900.0039
771.6370, 878.3057
772.7780, 886.4268
773.9180, 875.7588
775.0590, 933.1299
776.2000, 952.3867
777.3400, 982.2852
778.4800, 945.8369
779.6200, 977.3428
780.7600, 1060.192
781.9000, 1084.147
783.0390, 982.0332
784.1790, 1040.931
785.3180, 1238.177
786.4570, 1170.827
787.5960, 1311.836
788.7350, 1275.934
789.8730, 1382.793
791.0120, 1575.811
792.1500, 1508.471
793.2880, 1669.174
794.4260, 1868.979
795.5630, 1894.698
796.7010, 2131.021
797.8380, 2061.325
798.9760, 2254.735
800.1130, 2355.221
801.2500, 2753.703
802.3860, 2937.468
803.5230, 3255.453
804.6590, 3581.248
805.7960, 3999.993
806.9320, 4587.092
808.0680, 5133.623
809.2030, 5820.896
810.3390, 6761.805
811.4740, 7850.801
812.6100, 9454.202
813.7450, 11083.49
814.8800, 13440.45
816.0140, 16220.75
817.1490, 19916.78
818.2830, 24446.59
819.4180, 29841.39
820.5520, 35457.19
821.6860, 41741.93
822.8200, 46551.44
823.9530, 49278.45
825.0870, 48769.34
826.2200, 45730.96
827.3530, 41410.22
828.4860, 36436.73
829.6190, 31875.54
830.7510, 28134.28
831.8840, 25098.82
833.0160, 23249.32
834.1480, 21726.15
835.2800, 20673.98
836.4120, 20762.81
837.5440, 20950.67
838.6750, 21771.89
839.8070, 23466.84
840.9380, 25182.01
842.0690, 27963.23
843.2000, 31453.49
844.3300, 35763.79
845.4610, 41668.13
846.5910, 49229.54
847.7220, 58798.35
848.8520, 70383.83
849.9810, 84176.43
851.1110, 99520.04
852.2410, 115955.6
853.3700, 131833.3
854.4990, 144675.0
855.6280, 152196.8
856.7570, 151551.6
857.8860, 144778.5
859.0150, 130655.4
860.1430, 112855.3
861.2710, 95582.34
862.3990, 79239.39
863.5270, 65576.09
864.6550, 54155.24
865.7830, 44090.45
866.9100, 37123.71
868.0370, 30862.03
869.1640, 26177.38
870.2910, 22580.79
871.4180, 19660.25
872.5450, 17317.92
873.6710, 15516.08
874.7980, 13942.72
875.9240, 12771.31
877.0500, 12136.01
878.1760, 11585.92
879.3010, 11154.71
880.4270, 10851.56
881.5520, 10253.12
882.6770, 9702.735
883.8020, 9117.389
884.9270, 8303.686
886.0520, 7561.294
887.1760, 6633.432
888.3010, 5624.055
889.4250, 5209.291
890.5490, 4533.500
891.6730, 3853.838
892.7970, 3746.223
893.9200, 3288.656
895.0440, 3325.141
896.1670, 2975.678
897.2900, 2760.259
898.4130, 2567.891
899.5360, 2495.571
900.6580, 2365.300
901.7810, 2123.080
902.9030, 2072.909
904.0250, 2292.786
905.1470, 2113.713
906.2690, 2198.689
907.3910, 1924.715
908.5120, 1845.791
909.6330, 2095.918
910.7540, 2021.096
911.8750, 2462.325
912.9960, 2320.499
914.1170, 2566.833
915.2380, 2891.812
916.3580, 3248.246
917.4780, 3536.729
918.5980, 3609.732
919.7180, 3751.842
920.8380, 3485.480
921.9570, 3218.184
923.0770, 2769.179
924.1960, 2531.589
925.3150, 2465.597
926.4340, 2345.868
927.5530, 2499.122
928.6710, 2346.178
929.7900, 2283.307
930.9080, 2228.486
932.0260, 2626.296
933.1440, 2561.331
934.2620, 2890.770
935.3800, 3175.591
936.4970, 3126.450
937.6140, 3493.713
938.7320, 3639.269
939.8490, 3971.920
940.9660, 4203.867
942.0820, 4614.645
943.1990, 5174.507
944.3150, 5679.966
945.4310, 6149.258
946.5470, 6646.609
947.6630, 7508.438
948.7790, 8100.601
949.8950, 9081.846
951.0100, 10149.16
952.1250, 11218.54
953.2400, 12439.51
954.3550, 14015.12
955.4700, 15569.67
956.5850, 16489.76
957.6990, 18186.41
958.8140, 19313.11
959.9280, 20292.87
961.0420, 20824.65
962.1560, 20502.51
963.2690, 19790.42
964.3830, 18449.39
965.4960, 17130.44
966.6090, 15378.55
967.7230, 13739.70
968.8350, 12099.89
969.9480, 10373.13
971.0610, 8894.418
972.1730, 7443.962
973.2850, 6330.947
974.3980, 5349.430
975.5100, 4400.916
976.6210, 3674.435
977.7330, 3061.988
978.8440, 2706.576
979.9560, 2293.654
981.0670, 1944.310
982.1780, 1654.092
983.2890, 1323.818
984.3990, 1093.594
985.5100, 946.3984
986.6200, 821.2393
987.7310, 788.1104
988.8410, 636.0127
989.9510, 429.9463
991.0600, 534.9131
992.1700, 648.9102
993.2790, 332.9492
994.3890, 384.0205
995.4980, 283.9365
996.6070, 145.0684
997.7160, 410.2324
998.8240, 181.4248
999.9330, 366.6475
1001.041, 225.9111
1002.149, 308.0107
1003.257, 253.3330
1004.365, 114.6846
1005.473, 11.93750
1006.580, 35.28613
1007.688, 0.9062500
1008.795, 101.6367
1009.902, 13.82129
1011.009, 10.69629
1012.116, 41.81152
1013.222, 89.34375
1014.329, 56.32227
1015.435, 77.48535
1016.541, 20.09570
1017.647, 15.26855
1018.753, 26.59082
1019.859, 53.10547
1020.964, 54.13867
1022.070, 14.62598
1023.175, 145.5723
1024.280, 67.20117
1025.385, 108.9971
1026.490, 87.81641
1027.594, 54.65820
1028.699, 6.521484
1029.803, 91.41895
1030.907, 77.33594
1032.011, 191.2764
1033.115, 155.7764
1034.219, 197.2158
1035.322, 68.21680
1036.426, 178.2363
1037.529, 60.27734
1038.632, 42.33594
1039.735, 100.4160
1040.837, 79.51270
1041.940, 90.19824
1043.042, 65.76172
1044.145, 121.9141
1045.247, 20.91797
1046.349, 47.25684
1047.451, 34.55078
1048.552, 62.64160
1049.654, 87.84961
1050.755, 53.07324
1051.856, 30.31348
1052.957, 51.56836
1054.058, 33.83887
1055.159, 38.87793
1056.259, 4.601563
1057.360, 34.70898
1058.460, 108.0449
1059.560, 52.81445
1060.660, 64.39746
1061.760, 41.62207
1062.860, 73.85840
1063.959, 87.73438
1065.058, 18.52539
1066.158, 179.3232
1067.257, 47.20703
1068.355, 148.1055
1069.454, 14.07715
1070.553, 30.94336
1071.651, 66.97266
1072.749, 70.98926
1073.847, 31.98438
1074.945, 184.9990
1076.043, 192.6914
1077.141, 24.68652
1078.238, 152.5137
1079.336, 124.7959
1080.433, 95.85156
1081.530, 49.50977
1082.627, 23.81738
1083.723, 56.83301
1084.820, 116.5117
1085.916, 41.07422
1087.013, 195.6621
1088.109, 61.74512
1089.205, 67.80176
1090.301, 80.35352
1091.396, 85.90820
1092.492, 136.9277
1093.587, 130.3887
1094.682, 151.5938
1095.777, 143.1621
1096.872, 118.7305
1097.967, 122.3027
1099.061, 130.0742
1100.156, 101.2988
1101.250, 131.0254
1102.344, 81.60156
1103.438, 6.177734
1104.532, 43.73242
1105.626, 68.28125
1106.719, 184.8281
1107.813, 115.3750
1108.906, 137.9219
1109.999, 188.4668
1111.092, 54.00977
1112.184, 218.5469
1113.277, 73.08203
1114.370, 86.61328
1115.462, 193.1445
1116.554, 248.6738
1117.646, 183.1992
1118.738, 267.1211
1119.829, 136.2402
1120.921, 297.7578
1122.012, 191.2734
1123.104, 150.7832
1124.195, 321.8555
1125.286, 247.3594
1126.376, 23.05273
1127.467, 104.4004
1128.557, 479.8496
1129.648, 160.2930
1130.738, 230.7324
1131.828, 120.1562
1132.918, 65.58594
1134.008, 214.3828
1135.097, 267.7930
1136.186, 209.1973
1137.276, 301.2891
1138.365, 248.0820
1139.454, 244.4336
1140.543, 129.1855
1141.631, 418.5586
1142.720, 217.7695
1143.808, 453.1328
1144.896, 258.4863
1145.984, 325.8340
1147.072, 415.6758
1148.160, 270.0117
1149.248, 410.0938
1150.335, 330.8945
1151.422, 390.8262
1152.509, 648.6973
1153.596, 421.9141
1154.683, 490.0488
1155.770, 447.3281
1156.857, 391.6992
1157.943, 497.9629
1159.029, 576.2168
1160.115, 564.3535
1161.201, 461.5898
1162.287, 537.8164
1163.373, 483.0332
1164.458, 423.2422
1165.543, 402.4414
1166.629, 401.6309
1167.714, 472.8105
1168.799, 530.0820
1169.883, 507.2422
1170.968, 546.0332
1172.052, 581.2617
1173.137, 514.6621
1174.221, 592.7812
1175.305, 506.8887
1176.389, 360.0996
1177.472, 241.1855
1178.556, 217.3398
1179.639, 425.7363
1180.722, 297.7949
1181.805, 261.8398
1182.888, 543.8770
1183.971, 397.9004
1185.054, 238.9160
1186.136, 371.6816
1187.219, 339.0684
1188.301, 427.8984
1189.383, 413.2422
1190.465, 228.1855
1191.547, 323.1387
1192.628, 286.0801
1193.710, 121.0117
1194.791, 301.3496
1195.872, 307.5098
1196.953, 351.3066
1198.034, 216.1523
1199.115, 413.6094
1200.195, 192.7285
1201.276, 263.5918
1202.356, 396.4492
1203.436, 185.1191
1204.516, 387.9844
1205.596, 256.8086
1206.675, 413.3652
1207.755, 237.9082
1208.834, 199.4258
1209.913, 303.4980
1210.992, 300.8574
1212.071, 290.1172
1213.150, 291.7051
1214.229, 290.4844
1215.307, 322.7344
1216.386, 443.3945
1217.464, 335.1582
1218.542, 275.4395
1219.620, 445.1914
1220.697, 105.9375
1221.775, 331.6797
1222.852, 239.4180
1223.930, 309.1484
1225.007, 467.8750
1226.084, 378.5977
1227.161, 120.3105
1228.237, 487.0234
1229.314, 276.7285
1230.390, 388.4297
1231.466, 298.1230
1232.543, 299.8125
1233.619, 284.3145
1234.694, 228.4238
1235.770, 451.0645
1236.845, 308.7344
1237.921, 412.4023
1238.996, 178.0625
1240.071, 303.7188
1241.146, 328.9141
1242.221, 362.5625
1243.295, 386.0547
1244.370, 282.7539
1245.444, 384.3887
1246.518, 210.0176
1247.592, 221.6426
1248.666, 286.2637
1249.740, 109.8809
1250.814, 352.4922
1251.887, 176.1016
1252.960, 20.29688
1254.034, 197.2793
1255.107, 38.85352
1256.179, 126.6035
1257.252, 91.16602
1258.325, 78.72852
1259.397, 183.2832
1260.469, 31.16406
1261.542, 197.3574
1262.614, 17.06836
1263.685, 247.5801
1264.757, 205.0898
1265.829, 13.40430
1266.900, 137.0820
1267.971, 236.5703
1269.042, 17.05273
1270.113, 137.5469
1271.184, 226.0371
1272.255, 215.5254
1273.325, 191.6406
1274.396, 63.49414
1275.466, 7.974609
1276.536, 39.44727
1277.606, 70.02148
1278.676, 186.4062
1279.745, 128.1660
1280.815, 177.1836
1281.884, 36.45898
1282.953, 0.1308590
1284.022, 70.21484
1285.091, 20.61133
1286.160, 52.95312
1287.229, 94.05273
1288.297, 38.36914
1289.366, 144.9414
1290.434, 125.2520
1291.502, 70.56250
1292.570, 147.8691
1293.637, 61.17578
1294.705, 164.4824
1295.773, 276.7871
1296.840, 13.09375
1297.907, 155.3965
1298.974, 245.7012
1300.041, 102.0039
1301.108, 91.30859
1302.174, 250.6133
1303.241, 211.9180
1304.307, 31.22266
1305.373, 47.53320
1306.439, 202.8457
1307.505, 145.1699
1308.571, 257.4922
1309.636, 220.8418
1310.702, 75.19336
1311.767, 142.5488
1312.832, 184.9043
1313.897, 381.2637
1314.962, 78.63477
1316.027, 27.01367
1317.091, 38.40625
1318.156, 194.8320
1319.220, 129.2773
1320.284, 75.72656
1321.348, 255.1738
1322.412, 26.46484
1323.475, 194.9414
1324.539, 167.4258
1325.602, 27.03711
1326.666, 97.50195
1327.729, 106.0840
1328.792, 101.6797
1329.855, 137.3398
1330.917, 22.14453
1331.980, 103.4629
1333.042, 32.07422
1334.104, 44.26172
1335.167, 276.4355
1336.229, 150.1348
1337.290, 346.8809
1338.352, 16.33203
1339.414, 45.54688
1340.475, 92.22852
1341.536, 138.0215
1342.597, 165.9316
1343.658, 168.6465
1344.719, 202.4844
1345.780, 227.3223
1346.840, 170.1855
1347.901, 109.0527
1348.961, 158.9199
1350.021, 118.7910
1351.081, 189.6641
1352.141, 68.54102
1353.200, 96.41797
1354.260, 128.2988
1355.319, 52.17969
1356.379, 324.0664
1357.438, 352.9570
1358.497, 308.8477
1359.555, 246.7402
1360.614, 232.6406
1361.673, 261.5488
1362.731, 152.4668
1363.789, 303.3906
1364.847, 202.3145
1365.905, 269.2441
1366.963, 317.1758
1368.021, 268.1133
1369.078, 342.6562
1370.136, 319.0039
1371.193, 359.9570
1372.250, 313.9160
1373.307, 199.8809
1374.364, 329.8516
1375.420, 80.82617
1376.477, 197.8086
1377.533, 253.7949
1378.589, 244.7871
1379.646, 295.7852
1380.702, 296.2285
1381.757, 290.7578
1382.813, 162.1680
1383.869, 253.2129
1384.924, 191.2637
1385.979, 132.3223
1387.034, 239.3867
1388.089, 280.4668
1389.144, 152.5430
1390.199, 269.2500
1391.253, 123.3438
1392.308, 356.4434
1393.362, 95.69531
1394.416, 51.80859
1395.470, 174.9297
1396.524, 176.7500
1397.577, 70.88672
1398.631, 125.0332
1399.684, 338.1895
1400.738, 166.3535
1401.791, 227.5254
1402.844, 76.20703
1403.897, 6.601563
1404.949, 259.5879
1406.002, 171.7969
1407.054, 207.3984
1408.107, 330.6289
1409.159, 170.9492
1410.211, 63.43359
1411.263, 6.302734
1412.314, 46.87305
1413.366, 7.292969
1414.417, 97.46289
1415.468, 59.87695
1416.520, 123.2031
1417.571, 178.5410
1418.621, 133.8926
1419.672, 153.2598
1420.723, 312.6426
1421.773, 232.0352
1422.824, 67.44531
1423.874, 185.7676
1424.924, 170.2070
1425.974, 41.66602
1427.023, 353.3262
1428.073, 50.81641
1429.122, 155.3281
1430.172, 95.85547
1431.221, 123.5957
1432.270, 182.2617
1433.319, 108.0430
1434.367, 288.6523
1435.416, 215.0742
1436.465, 167.7246
1437.513, 368.9141
1438.561, 283.6152
1439.609, 315.3418
1440.657, 379.0957
1441.705, 204.8711
1442.752, 258.4316
1443.800, 439.5195
1444.847, 209.5625
1445.894, 286.1270
1446.942, 210.6582
1447.988, 346.1719
1449.035, 218.6602
1450.082, 363.0039
1451.128, 528.2539
1452.175, 505.2383
1453.221, 372.3926
1454.267, 448.9316
1455.313, 508.2129
1456.359, 399.5586
1457.405, 401.9297
1458.450, 364.9980
1459.496, 245.3691
1460.541, 243.8105
1461.586, 270.1719
1462.631, 324.5430
1463.676, 379.9199
1464.720, 204.3027
1465.765, 454.6934
1466.809, 232.0898
1467.854, 220.4961
1468.898, 347.9082
1469.942, 372.3301
1470.986, 404.7598
1472.029, 421.3438
1473.073, 465.6387
1474.116, 409.0879
1475.160, 337.5488
1476.203, 368.0156
1477.246, 171.4922
1478.289, 348.9727
1479.332, 450.4648
1480.374, 298.9648
1481.417, 267.5000
1482.459, 317.0469
1483.501, 380.5996
1484.543, 355.1816
1485.585, 257.7910
1486.627, 358.4102
1487.669, 180.0645
1488.710, 294.7285
1489.752, 295.4062
1490.793, 301.0918
1491.834, 262.7910
1492.875, 127.4453
1493.916, 247.2852
1494.956, 171.4219
1495.997, 240.0996
1497.037, 224.0820
1498.077, 262.1035
1499.118, 432.1562
1500.158, 241.2246
1501.197, 64.30664
1502.237, 281.4062
1503.277, 338.5195
1504.316, 255.6465
1505.355, 264.7871
1506.395, 336.9375
1507.434, 402.0938
1508.473, 337.1758
1509.511, 445.2578
1510.550, 493.3477
1511.588, 227.4355
1512.627, 551.5137
1513.665, 299.6016
1514.703, 207.7012
1515.741, 333.8203
1516.779, 297.9863
1517.816, 409.1797
1518.854, 114.4258
1519.891, 185.7422
1520.928, 292.1465
1521.966, 343.5820
1523.003, 380.0527
1524.039, 148.5605
1525.076, 82.10352
1526.113, 284.6855
1527.149, 190.3105
1528.185, 342.9766
1529.221, 235.6875
1530.257, 367.4434
1531.293, 252.2480
1532.329, 209.1016
1533.365, 201.0059
1534.400, 342.9609
1535.435, 168.9727
1536.471, 314.0371
1537.506, 259.1621
1538.541, 258.3379
1539.575, 349.5664
1540.610, 219.8516
1541.644, 180.1895
1542.679, 233.5879
1543.713, 139.0469
1544.747, 266.5781
1545.781, 305.1875
1546.815, 178.8848
1547.849, 122.6738
1548.882, 135.5605
1549.916, 127.5586
1550.949, 44.64062
1551.982, 210.8418
1553.015, 210.1523
1554.048, 224.5879
1555.081, 56.14844
1556.113, 82.84766
1557.146, 63.69141
1558.178, 183.6855
1559.210, 72.15234
1560.242, 194.1895
1561.274, 38.72266
1562.306, 414.4727
1563.338, 350.4551
1564.369, 277.6934
1565.400, 190.5645
1566.432, 43.25586
1567.463, 97.24414
1568.494, 118.0801
1569.525, 151.4023
1570.555, 209.0996
1571.586, 175.0547
1572.616, 129.7676
1573.647, 164.3105
1574.677, 120.9219
1575.707, 29.57031
1576.737, 57.04883
1577.766, 0.5820310
1578.796, 0.0000000E+00
##END=



