##NAMES=Gahnite
##RRUFFID=R040027
##IDEAL CHEMISTRY=Zn^2+^Al_2_O_4_
##LOCALITY=Rowe, Franklin County, Massachusetts, USA
##OWNER=RRUFF
##SOURCE=University of Arizona Mineral Museum
##DESCRIPTION=Dark blue octahedral single crystals embedded in quartz matrix
##STATUS=The identification of this mineral has been confirmed by X-ray diffraction and chemical analysis
##URL=rruff.info/R040027
##MEASURED CHEMISTRY=(Zn_0.83_Fe_0.11_Mg_0.06_)_Σ=1_(Al_0.96_Fe_0.04_)_Σ=2_O_4_
##PIN_ID=L00146
##ORIENTATION=Laser parallel to -c* (0 0 -1). Fiducial mark perpendicular to laser is parallel to -a [-1 0 0]
195.3830, 301.4961
196.7610, 354.5322
198.1390, 325.6636
199.5160, 300.9888
200.8930, 326.9312
202.2710, 258.9395
203.6470, 224.5029
205.0240, 343.2354
206.4000, 319.7466
207.7770, 346.9971
209.1520, 266.5117
210.5280, 343.3159
211.9040, 270.8823
213.2790, 304.4946
214.6540, 299.7949
216.0290, 250.3491
217.4030, 293.2134
218.7780, 193.3745
220.1520, 251.9282
221.5260, 232.1855
222.9000, 213.9116
224.2730, 144.6714
225.6460, 195.9482
227.0190, 302.9575
228.3920, 249.7207
229.7650, 263.0513
231.1370, 222.4800
232.5090, 235.3633
233.8810, 196.1230
235.2530, 194.3101
236.6250, 217.5884
237.9960, 128.0952
239.3670, 130.8223
240.7380, 90.97949
242.1080, 121.0049
243.4790, 100.6436
244.8490, 100.8765
246.2190, 114.9302
247.5890, 148.5488
248.9580, 67.52832
250.3280, 130.3237
251.6970, 57.12646
253.0650, 148.9312
254.4340, 30.73145
255.8030, 132.5215
257.1710, 88.29492
258.5390, 108.0415
259.9060, 157.7603
261.2740, 10.44482
262.6410, 53.08301
264.0080, 30.66406
265.3750, 36.20508
266.7420, 10.72949
268.1080, 14.09912
269.4750, 46.25439
270.8400, 63.83838
272.2060, 53.48877
273.5720, 49.20947
274.9370, 38.00098
276.3020, 57.87061
277.6670, 9.176270
279.0320, 80.14062
280.3960, 12.02930
281.7600, 37.83887
283.1250, 28.57129
284.4880, 81.22217
285.8520, 91.80469
287.2150, 1.683594
288.5780, 33.74072
289.9410, 1.921875
291.3040, 49.28760
292.6660, 42.32617
294.0290, 43.21094
295.3910, 61.95996
296.7530, 51.64697
298.1140, 79.27197
299.4760, 54.02637
300.8370, 32.36768
302.1980, 12.03418
303.5580, 20.80811
304.9190, 11.21436
306.2790, 5.041992
307.6390, 31.28760
308.9990, 57.47168
310.3590, 59.59717
311.7180, 60.67969
313.0770, 91.81396
314.4360, 77.53369
315.7950, 125.0571
317.1540, 91.36865
318.5120, 118.4302
319.8700, 161.2310
321.2280, 122.7661
322.5860, 108.0605
323.9430, 169.0889
325.3000, 198.8721
326.6570, 181.2959
328.0140, 213.4395
329.3710, 139.3848
330.7270, 168.1602
332.0830, 125.7842
333.4390, 203.9292
334.7950, 239.8032
336.1500, 188.5347
337.5060, 167.1323
338.8610, 134.4453
340.2150, 264.9878
341.5700, 211.7681
342.9240, 202.3535
344.2790, 257.9468
345.6330, 210.5840
346.9860, 264.2539
348.3400, 346.8389
349.6930, 320.3887
351.0460, 334.9214
352.3990, 361.2178
353.7520, 397.5356
355.1040, 395.7305
356.4570, 375.7373
357.8090, 408.6865
359.1600, 448.4771
360.5120, 394.1729
361.8630, 351.7612
363.2140, 418.1357
364.5650, 501.4907
365.9160, 497.4219
367.2670, 431.1016
368.6170, 382.1421
369.9670, 413.9521
371.3170, 380.7266
372.6660, 356.8984
374.0160, 373.0630
375.3650, 345.6528
376.7140, 372.1748
378.0630, 279.6377
379.4110, 328.8892
380.7600, 284.0894
382.1080, 293.7500
383.4560, 345.0962
384.8030, 386.4854
386.1510, 422.1328
387.4980, 471.5137
388.8450, 525.5146
390.1920, 589.7969
391.5390, 634.6553
392.8850, 772.3262
394.2310, 807.8101
395.5770, 978.3335
396.9230, 1014.609
398.2690, 1202.869
399.6140, 1390.281
400.9590, 1405.965
402.3040, 1599.688
403.6490, 1825.896
404.9930, 2139.513
406.3370, 2536.880
407.6810, 3279.259
409.0250, 4422.824
410.3690, 6298.706
411.7120, 8877.605
413.0550, 11997.35
414.3980, 14976.09
415.7410, 15376.00
417.0840, 14274.09
418.4260, 11053.88
419.7680, 7233.221
421.1100, 4846.825
422.4520, 3110.852
423.7930, 2175.309
425.1340, 1555.152
426.4750, 1139.456
427.8160, 991.9526
429.1570, 852.5620
430.4970, 717.7334
431.8370, 693.9189
433.1770, 546.0312
434.5170, 574.8252
435.8570, 439.9214
437.1960, 432.7539
438.5350, 501.3745
439.8740, 366.1724
441.2130, 376.6729
442.5510, 354.6738
443.8890, 316.5557
445.2270, 262.2246
446.5650, 200.8105
447.9030, 184.5010
449.2400, 94.95020
450.5770, 139.8965
451.9140, 83.41406
453.2510, 15.72412
454.5880, 46.95020
455.9240, 103.7739
457.2600, 9.766113
458.5960, 40.79248
459.9320, 5.4198999E-02
461.2670, 26.52832
462.6020, 40.71191
463.9380, 20.40234
465.2720, 35.29688
466.6070, 55.80859
467.9410, 28.40576
469.2760, 112.6621
470.6100, 161.3213
471.9430, 142.0264
473.2770, 208.7695
474.6100, 201.7451
475.9440, 197.5757
477.2760, 211.7715
478.6090, 127.5557
479.9420, 169.5576
481.2740, 165.7139
482.6060, 83.68701
483.9380, 132.5776
485.2700, 83.70361
486.6010, 154.9355
487.9320, 88.07715
489.2630, 172.3394
490.5940, 183.2778
491.9250, 198.3242
493.2550, 154.1812
494.5850, 158.3550
495.9150, 125.6714
497.2450, 77.76514
498.5750, 32.76367
499.9040, 31.36523
501.2330, 12.04004
502.5620, 43.22803
503.8910, 58.37598
505.2190, 135.7559
506.5480, 164.9355
507.8760, 236.3398
509.2030, 274.8560
510.5310, 223.3662
511.8590, 290.8706
513.1860, 224.3691
514.5130, 196.8628
515.8400, 218.3511
517.1660, 194.8364
518.4930, 172.3179
519.8190, 193.7969
521.1450, 278.2734
522.4700, 256.7480
523.7960, 265.2217
525.1210, 280.6943
526.4460, 281.1689
527.7710, 289.6455
529.0960, 278.2266
530.4210, 202.6016
531.7450, 231.0835
533.0690, 108.5698
534.3930, 39.06055
535.7160, 24.55859
537.0400, 1.936035
538.3630, 43.42285
539.6860, 37.91162
541.0090, 92.39990
542.3310, 120.9033
543.6540, 57.43604
544.9760, 40.97119
546.2980, 51.45850
547.6200, 17.65771
548.9410, 28.55713
550.2630, 13.07324
551.5840, 77.42041
552.9050, 51.92627
554.2250, 140.4458
555.5460, 239.9810
556.8660, 224.5542
558.1860, 268.1416
559.5060, 319.7446
560.8260, 388.3760
562.1450, 477.0254
563.4650, 525.7119
564.7840, 568.3877
566.1030, 542.1436
567.4210, 614.9141
568.7400, 655.7021
570.0580, 656.5264
571.3760, 574.3784
572.6940, 579.2476
574.0110, 547.1533
575.3290, 500.0786
576.6460, 550.0386
577.9630, 490.0161
579.2790, 486.0176
580.5960, 596.0381
581.9120, 593.0796
583.2280, 696.1553
584.5440, 732.7642
585.8600, 748.9360
587.1750, 816.5352
588.4910, 799.7202
589.8060, 830.9385
591.1210, 898.2046
592.4350, 964.5205
593.7500, 994.8872
595.0640, 1061.302
596.3780, 1096.756
597.6920, 1153.275
599.0060, 1200.993
600.3190, 1216.408
601.6320, 1283.021
602.9450, 1354.658
604.2580, 1373.323
605.5710, 1435.012
606.8830, 1716.724
608.1950, 1731.464
609.5070, 1998.229
610.8190, 2115.022
612.1310, 2421.636
613.4420, 2774.422
614.7530, 3149.249
616.0640, 3536.944
617.3750, 3897.063
618.6850, 4200.746
619.9950, 4501.654
621.3060, 4689.517
622.6150, 4988.440
623.9250, 5125.462
625.2350, 5268.533
626.5440, 5240.621
627.8530, 4949.742
629.1620, 4689.882
630.4710, 4287.043
631.7790, 3848.222
633.0870, 3508.419
634.3950, 3072.635
635.7030, 2920.867
637.0110, 2581.117
638.3180, 2474.385
639.6250, 2491.672
640.9320, 2327.976
642.2390, 2378.297
643.5460, 2503.635
644.8520, 2612.989
646.1580, 2943.358
647.4640, 3129.744
648.7700, 3640.147
650.0760, 4147.565
651.3810, 4917.003
652.6860, 5775.456
653.9910, 6867.927
655.2960, 7940.412
656.6000, 8352.915
657.9050, 8394.549
659.2090, 7607.082
660.5130, 6359.630
661.8170, 5232.194
663.1200, 3779.774
664.4230, 2874.368
665.7260, 2198.979
667.0290, 1574.604
668.3320, 1183.242
669.6350, 984.8936
670.9370, 644.5586
672.2390, 531.2388
673.5410, 403.9321
674.8420, 284.6401
676.1440, 292.3613
677.4450, 226.0972
678.7460, 209.8462
680.0470, 145.6094
681.3480, 124.3853
682.6480, 66.17578
683.9480, 164.9790
685.2480, 150.7959
686.5480, 232.6265
687.8480, 347.4697
689.1470, 375.3267
690.4470, 501.1968
691.7460, 569.0801
693.0440, 727.9761
694.3430, 852.8447
695.6410, 1021.656
696.9400, 1197.671
698.2380, 1421.582
699.5350, 1482.133
700.8330, 1684.648
702.1300, 1811.667
703.4270, 1822.425
704.7240, 1936.202
706.0210, 1815.688
707.3180, 1937.642
708.6140, 1760.856
709.9100, 1592.006
711.2060, 1461.721
712.5020, 1408.336
713.7980, 1195.607
715.0930, 962.0918
716.3880, 933.9487
717.6830, 828.3154
718.9780, 723.9414
720.2720, 693.2090
721.5670, 654.4219
722.8610, 653.4985
724.1550, 640.8081
725.4480, 665.6626
726.7420, 617.4868
728.0350, 638.8867
729.3280, 606.7051
730.6210, 694.5913
731.9140, 697.3960
733.2060, 801.7739
734.4990, 884.1953
735.7910, 794.7998
737.0830, 953.2861
738.3740, 960.0200
739.6660, 1042.601
740.9570, 1246.404
742.2480, 1267.063
743.5390, 1480.947
744.8300, 1548.529
746.1200, 1816.267
747.4100, 1981.575
748.7010, 2144.945
749.9900, 2442.556
751.2800, 2610.382
752.5700, 2955.580
753.8590, 3086.656
755.1480, 3108.430
756.4370, 3284.328
757.7250, 3132.354
759.0140, 3040.032
760.3020, 2840.603
761.5900, 2698.248
762.8780, 2590.896
764.1660, 2275.038
765.4530, 2230.694
766.7400, 1956.489
768.0270, 1935.276
769.3140, 1864.044
770.6010, 1695.935
771.8870, 1566.076
773.1740, 1572.794
774.4600, 1492.056
775.7450, 1419.623
777.0310, 1298.270
778.3160, 1182.161
779.6020, 1174.116
780.8870, 1005.714
782.1720, 1084.325
783.4560, 947.3433
784.7410, 867.2820
786.0250, 873.0405
787.3090, 798.6892
788.5930, 782.4575
789.8760, 759.0818
791.1600, 711.6418
792.4430, 658.4937
793.7260, 601.4595
795.0090, 603.1431
796.2910, 623.6575
797.5740, 507.3281
798.8560, 537.8501
800.1380, 499.3157
801.4200, 448.9207
802.7020, 438.4058
803.9830, 437.9854
805.2640, 451.5620
806.5450, 341.1731
807.8260, 350.8564
809.1070, 324.4648
810.3870, 365.8594
811.6670, 365.2490
812.9470, 247.6379
814.2270, 293.0984
815.5070, 216.4961
816.7860, 236.8694
818.0650, 292.3804
819.3440, 146.9417
820.6230, 224.3728
821.9020, 185.7197
823.1800, 200.0596
824.4590, 179.3921
825.7370, 161.7922
827.0140, 49.15381
828.2920, 178.5107
829.5690, 88.84570
830.8470, 145.2925
832.1240, 101.5784
833.4010, 95.85718
834.6770, 102.1284
835.9540, 108.3906
837.2300, 79.68457
838.5060, 61.92969
839.7820, 72.03125
841.0570, 70.39355
842.3330, 64.65063
843.6080, 54.86011
844.8830, 56.61841
846.1580, 54.64893
847.4330, 48.43286
848.7070, 61.60547
849.9810, 41.93823
851.2550, 50.23828
852.5290, 43.92432
853.8030, 14.76367
855.0760, 37.93799
856.3500, 22.10913
857.6230, 28.34473
858.8950, 34.50049
860.1680, 20.85693
861.4410, 15.09106
862.7130, 35.30029
863.9850, 4.461182
865.2570, 83.36255
866.5280, 19.67529
867.8000, 1.817383
869.0710, 37.17505
870.3420, 9.985352
871.6130, 63.86768
872.8840, 42.05029
874.1540, 7.811279
875.4250, 84.88672
876.6950, 43.92017
877.9650, 64.08740
879.2340, 15.17578
880.5040, 33.53394
881.7730, 45.71191
883.0420, 1.936768
884.3110, 28.38721
885.5800, 52.20288
886.8480, 5.222656
888.1170, 13.32544
889.3850, 5.145020
890.6530, 8.542236
891.9200, 18.94287
893.1880, 8.602051
894.4550, 5.750244
895.7220, 8.659668
896.9890, 30.12646
898.2560, 5.516846
899.5230, 1.810547
900.7890, 14.60986
902.0550, 2.052490
903.3210, 15.32129
904.5870, 58.31860
905.8520, 8.160889
907.1180, 18.85303
908.3830, 4.495605
909.6480, 12.55981
910.9130, 0.2541500
912.1770, 1.814453
913.4420, 0.9890140
914.7060, 43.15527
915.9700, 12.30591
917.2330, 44.28149
918.4970, 25.46240
919.7600, 15.51196
921.0240, 28.57568
922.2870, 24.37305
923.5500, 51.74585
924.8120, 43.97388
926.0750, 13.82300
927.3370, 83.84473
928.5990, 5.698730
929.8610, 28.51587
931.1220, 14.77319
932.3840, 80.83179
933.6450, 78.97607
934.9060, 25.83643
936.1670, 29.55713
937.4280, 47.50073
938.6880, 74.23608
939.9480, 45.78296
941.2080, 80.41333
942.4680, 95.93091
943.7280, 37.56616
944.9870, 32.15845
946.2470, 66.65234
947.5060, 107.1125
948.7650, 69.62769
950.0230, 105.0845
951.2820, 118.7708
952.5400, 84.99414
953.7980, 113.2053
955.0560, 90.97607
956.3140, 91.11255
957.5720, 82.38745
958.8290, 64.83423
960.0860, 82.06274
961.3430, 171.3289
962.6000, 143.5793
963.8560, 184.8306
965.1130, 116.0681
966.3690, 130.2656
967.6250, 143.4646
968.8810, 101.5308
970.1360, 88.59277
971.3920, 118.5044
972.6470, 144.3438
973.9020, 147.2358
975.1570, 186.0317
976.4110, 120.8054
977.6660, 128.6333
978.9200, 128.3623
980.1740, 132.1958
981.4280, 104.0806
982.6820, 198.8777
983.9350, 144.9177
985.1880, 148.7129
986.4410, 241.3794
987.6940, 133.1853
988.9470, 145.8792
990.1990, 188.5491
991.4520, 174.1284
992.7040, 134.8008
993.9560, 148.5540
995.2070, 156.2368
996.4590, 206.9258
997.7100, 155.6216
998.9610, 158.2375
1000.212, 106.8889
1001.463, 114.3955
1002.714, 117.5059
1003.964, 134.0857
1005.214, 152.4937
1006.464, 181.6812
1007.714, 132.0134
1008.964, 159.3523
1010.213, 100.2903
1011.462, 128.0869
1012.711, 131.2056
1013.960, 121.6072
1015.209, 196.4158
1016.457, 222.9656
1017.705, 118.1589
1018.954, 150.8901
1020.201, 100.0413
1021.449, 99.85059
1022.697, 138.5830
1023.944, 82.67822
1025.191, 127.7661
1026.438, 161.0522
1027.685, 87.99072
1028.931, 90.48975
1030.177, 142.7888
1031.423, 116.5298
1032.669, 155.9868
1033.915, 116.2085
1035.161, 167.4617
1036.406, 137.1541
1037.651, 165.7588
1038.896, 218.1577
1040.141, 100.6455
1041.386, 120.8411
1042.630, 168.1790
1043.874, 31.38721
1045.118, 118.6179
1046.362, 99.61060
1047.606, 127.8909
1048.849, 198.0012
1050.092, 53.56982
1051.336, 49.01880
1052.578, 85.21045
1053.821, 83.17310
1055.064, 123.7466
1056.306, 68.43530
1057.548, 45.44995
1058.790, 145.2886
1060.032, 72.07422
1061.273, 92.13428
1062.515, 59.25122
1063.756, 53.43091
1064.997, 52.42383
1066.237, 87.96216
1067.478, 34.03833
1068.718, 65.88330
1069.959, 39.67773
1071.199, 118.4897
1072.438, 78.36182
1073.678, 98.77197
1074.918, 62.59521
1076.157, 16.87744
1077.396, 49.82031
1078.635, 50.66260
1079.873, 8.745605
1081.112, 83.74609
1082.350, 1.364990
1083.588, 14.45508
1084.826, 39.82251
1086.064, 15.75220
1087.301, 24.82715
1088.539, 64.49585
1089.776, 39.02368
1091.013, 60.67456
1092.250, 27.36816
1093.486, 31.74878
1094.723, 48.99341
1095.959, 51.49878
1097.195, 33.15186
1098.431, 41.62622
1099.666, 2.227539
1100.902, 86.86230
1102.137, 84.33594
1103.372, 3.092285
1104.607, 91.36084
1105.842, 52.79541
1107.076, 10.17261
1108.311, 52.45459
1109.545, 37.78833
1110.779, 36.31323
1112.012, 30.81982
1113.246, 28.71899
1114.479, 32.93213
1115.712, 27.13330
1116.945, 53.56641
1118.178, 48.83813
1119.411, 79.03613
1120.643, 142.3406
1121.875, 72.70630
1123.108, 137.0554
1124.339, 90.38916
1125.571, 71.63159
1126.802, 94.88818
1128.034, 59.12598
1129.265, 41.36719
1130.496, 56.46606
1131.727, 2.700928
1132.957, 46.17993
1134.187, 71.37891
1135.418, 32.56226
1136.648, 53.93628
1137.877, 54.35498
1139.107, 70.68237
1140.336, 42.91479
1141.566, 18.10522
1142.795, 29.40649
1144.023, 22.58740
1145.252, 15.39404
1146.480, 29.09399
1147.709, 15.17700
1148.937, 7.474609
1150.165, 8.835693
1151.392, 15.95044
1152.620, 21.94629
1153.847, 12.87524
1155.074, 35.17871
1156.301, 34.06860
1157.528, 10.27832
1158.755, 9.544189
1159.981, 52.37329
1161.207, 3.303467
1162.433, 5.081299
1163.659, 87.98706
1164.885, 10.04150
1166.110, 66.97729
1167.336, 12.11621
1168.561, 70.69092
1169.786, 24.73706
1171.010, 20.69922
1172.235, 32.34937
1173.459, 14.57178
1174.683, 38.99146
1175.907, 10.78809
1177.131, 62.37402
1178.355, 55.40991
1179.578, 20.08887
1180.801, 57.14648
1182.024, 65.88232
1183.247, 59.97461
1184.470, 67.36255
1185.692, 69.61865
1186.915, 73.62622
1188.137, 89.21240
1189.359, 141.5891
1190.580, 55.48779
1191.802, 98.72437
1193.023, 106.6433
1194.244, 162.3748
1195.465, 115.2000
1196.686, 69.96265
1197.907, 137.4661
1199.127, 108.9468
1200.347, 103.6528
1201.567, 119.3899
1202.787, 88.19653
1204.007, 73.66064
1205.226, 100.1265
1206.446, 59.91821
1207.665, 73.35059
1208.884, 96.29443
1210.102, 44.92017
1211.321, 117.3188
1212.539, 73.71289
1213.758, 54.19214
1214.976, 71.59985
1216.193, 90.14966
1217.411, 77.41870
1218.628, 35.35376
1219.846, 102.7449
1221.063, 134.2456
1222.280, 76.58423
1223.496, 126.7146
1224.713, 94.97925
1225.929, 78.31714
1227.145, 122.6536
1228.361, 66.05127
1229.577, 74.07617
1230.793, 129.2131
1232.008, 118.3911
1233.223, 121.3821
1234.438, 178.4751
1235.653, 110.7214
1236.868, 208.8545
1238.082, 144.0703
1239.297, 116.1392
1240.511, 159.2207
1241.725, 159.3687
1242.938, 119.5208
1244.152, 197.5884
1245.365, 128.6846
1246.578, 168.5217
1247.791, 173.7925
1249.004, 213.0459
1250.217, 202.7104
1251.429, 234.9795
1252.642, 167.0806
1253.854, 174.9800
1255.066, 182.0669
1256.277, 191.0862
1257.489, 188.0913
1258.700, 198.8169
1259.911, 216.0225
1261.122, 200.9885
1262.333, 194.9216
1263.544, 168.9568
1264.754, 128.9646
1265.964, 185.0876
1267.174, 235.2512
1268.384, 122.3250
1269.594, 243.4551
1270.803, 177.5764
1272.013, 93.61279
1273.222, 135.7161
1274.431, 76.68335
1275.640, 85.56592
1276.848, 158.5032
1278.057, 15.16724
1279.265, 83.04492
1280.473, 139.0200
1281.681, 18.82422
1282.888, 13.72095
1284.096, 31.68970
1285.303, 50.70776
1286.510, 47.76343
1287.717, 26.45605
1288.924, 51.29395
1290.131, 29.98706
1291.337, 25.63940
1292.543, 68.69116
1293.749, 2.619873
1294.955, 1.168701
1296.161, 20.86548
1297.366, 61.44971
1298.571, 14.87549
1299.777, 51.13232
1300.981, 12.16138
1302.186, 7.457031
1303.391, 66.30957
1304.595, 44.35645
1305.799, 41.71558
1307.003, 64.30420
1308.207, 59.85620
1309.411, 26.80151
1310.614, 23.42188
1311.818, 57.01025
1313.021, 33.33691
1314.224, 0.4194340
1315.426, 36.24707
1316.629, 37.71484
1317.831, 54.25879
1319.033, 98.93457
1320.235, 23.59912
1321.437, 87.99707
1322.639, 16.68018
1323.840, 147.2500
1325.042, 12.66553
1326.243, 68.22998
1327.444, 30.82129
1328.644, 13.38037
1329.845, 66.07617
1331.045, 13.65967
1332.245, 102.2969
1333.445, 5.092773
1334.645, 26.50537
1335.845, 104.1899
1337.044, 18.72607
1338.244, 39.36621
1339.443, 35.86621
1340.642, 49.52490
1341.840, 43.04980
1343.039, 44.48340
1344.237, 25.90234
1345.435, 18.51367
1346.633, 28.11279
1347.831, 9.651367
1349.029, 48.72900
1350.226, 34.09229
1351.424, 94.82715
1352.621, 5.153320
1353.818, 23.41553
1355.014, 69.50537
1356.211, 66.90039
1357.407, 80.07520
1358.604, 40.14502
1359.800, 35.26758
1360.995, 77.40381
1362.191, 5.545410
1363.387, 126.4458
1364.582, 90.51318
1365.777, 91.61084
1366.972, 119.5400
1368.167, 149.4526
1369.361, 116.7744
1370.556, 62.19482
1371.750, 80.00635
1372.944, 31.70898
1374.138, 64.41162
1375.331, 115.0986
1376.525, 61.76270
1377.718, 119.7651
1378.911, 141.1094
1380.104, 140.7349
1381.297, 194.4985
1382.490, 137.2563
1383.682, 105.0063
1384.874, 153.7520
1386.066, 149.4888
1387.258, 180.2217
1388.450, 146.9473
1389.641, 177.6670
1390.833, 178.3813
1392.024, 177.0898
1393.215, 221.7930
1394.406, 222.4893
1395.596, 221.8555
1396.787, 227.0332
1397.977, 206.5249
1399.167, 208.1812
1400.357, 199.5303
1401.547, 190.1812
1402.736, 187.2065
1403.925, 172.4648
1405.115, 187.6660
1406.304, 177.4604
1407.492, 180.1421
1408.681, 163.5078
1409.870, 232.6108
1411.058, 213.3955
1412.246, 188.5532
1413.434, 140.7559
1414.622, 213.9155
1415.809, 140.9541
1416.997, 216.9321
1418.184, 94.46924
1419.371, 146.3774
1420.558, 190.6338
1421.744, 115.6968
1422.931, 114.6870
1424.117, 128.5308
1425.303, 76.12793
1426.489, 56.92090
1427.675, 58.19092
1428.861, 27.16113
1430.046, 156.7661
1431.231, 53.54590
1432.416, 122.3198
1433.601, 86.75244
1434.786, 42.34277
1435.970, 57.27051
1437.155, 29.69141
1438.339, 11.70654
1439.523, 97.28027
1440.707, 57.71631
1441.890, 44.03418
1443.074, 57.11816
1444.257, 53.20117
1445.440, 0.2885740
1446.623, 97.23828
1447.806, 1.827148
1448.989, 36.79102
1450.171, 47.90820
1451.353, 36.01172
1452.535, 37.09131
1453.717, 0.8540040
1454.899, 86.17432
1456.080, 85.17578
1457.262, 36.14893
1458.443, 95.09375
1459.624, 68.00781
1460.805, 27.89307
1461.985, 42.75586
1463.166, 97.60254
1464.346, 58.43164
1465.526, 96.26221
1466.706, 167.1318
1467.886, 76.00928
1469.065, 119.8760
1470.245, 111.7476
1471.424, 49.60400
1472.603, 155.4526
1473.782, 65.97754
1474.960, 97.79053
1476.139, 117.2812
1477.317, 36.11084
1478.495, 111.4766
1479.673, 31.32812
1480.851, 61.54492
1482.029, 26.25049
1483.206, 34.39600
1484.383, 91.92432
1485.560, 80.91357
1486.737, 19.53613
1487.914, 65.50879
1489.091, 28.36328
1490.267, 34.70605
1491.443, 41.19141
1492.619, 0.9790040
1493.795, 8.020508
1494.971, 108.7852
1496.146, 105.7339
1497.322, 16.80176
1498.497, 109.9365
1499.672, 60.71875
1500.846, 78.13135
1502.021, 57.17920
1503.196, 34.40381
1504.370, 69.80078
1505.544, 78.01270
1506.718, 19.82373
1507.892, 38.61328
1509.065, 54.03760
1510.238, 16.79688
1511.412, 18.95850
1512.585, 34.45605
1513.758, 42.12891
1514.930, 27.05176
1516.103, 30.94238
1517.275, 2.065918
1518.447, 0.1762700
1519.619, 0.0000000E+00
##END=



