##NAMES=Gaylussite
##RRUFFID=R040146
##IDEAL CHEMISTRY=Na_2_Ca(CO_3_)_2_&#183;5H_2_O
##LOCALITY=Searles Lake, Trona, San Bernardino County, California, USA
##OWNER=RRUFF
##SOURCE=University of Arizona Mineral Museum
##DESCRIPTION=Colorless crystal fragments
##STATUS=The identification of this mineral has been confirmed by X-ray diffraction and chemical analysis
##URL=rruff.info/R040146
##MEASURED CHEMISTRY=Na_2.00_Ca_1.00_(C_1.00_O_3_)_2_Â·5H_2_O
##PIN_ID=L00121
##ORIENTATION=Laser parallel to c* (0 0 1). Fiducial mark perpendicular to laser is parallel to a [1 0 0]
98.89200, 0.0000000E+00
100.1370, 3133.773
101.3810, 6244.922
102.6250, 7670.047
103.8680, 7393.766
105.1120, 6136.734
106.3550, 4436.594
107.5980, 3153.574
108.8410, 2587.492
110.0840, 3154.191
111.3260, 4124.355
112.5680, 5443.328
113.8100, 6798.484
115.0520, 7501.293
116.2940, 8423.656
117.5350, 8746.410
118.7770, 8799.992
120.0180, 9323.109
121.2590, 9322.629
122.4990, 10170.54
123.7400, 10116.58
124.9800, 9667.438
126.2200, 8909.973
127.4600, 7998.164
128.6990, 6914.738
129.9390, 5794.117
131.1780, 5114.551
132.4170, 4182.328
133.6560, 3278.770
134.8940, 2474.078
136.1330, 1575.383
137.3710, 671.7773
138.6090, 264.3477
139.8470, 471.7852
141.0840, 616.5391
142.3220, 108.7266
143.5590, 643.7734
144.7960, 1354.285
146.0320, 2074.336
147.2690, 2978.973
148.5050, 3513.719
149.7420, 4124.316
150.9780, 4225.258
152.2130, 4297.691
153.4490, 4910.707
154.6840, 5357.566
155.9190, 6070.180
157.1540, 7099.312
158.3890, 8229.480
159.6240, 9967.766
160.8580, 10963.05
162.0920, 12173.34
163.3260, 13191.79
164.5600, 13934.78
165.7930, 13477.89
167.0270, 12536.00
168.2600, 11229.74
169.4930, 9683.852
170.7260, 7965.051
171.9580, 6613.227
173.1900, 5478.504
174.4230, 4176.648
175.6550, 3447.797
176.8860, 2853.109
178.1180, 2075.691
179.3490, 1714.535
180.5800, 903.6758
181.8110, 527.1250
183.0420, 183.8438
184.2730, 482.1875
185.5030, 379.0195
186.7330, 919.6641
187.9630, 664.1406
189.1930, 842.4570
190.4220, 740.6445
191.6520, 584.7148
192.8810, 469.6758
194.1100, 507.7852
195.3390, 443.9883
196.5670, 305.2188
197.7960, 286.2461
199.0240, 218.9375
200.2520, 100.4688
201.4790, 183.8750
202.7070, 383.7305
203.9340, 1086.402
205.1620, 1016.543
206.3890, 1692.406
207.6150, 1984.531
208.8420, 2147.176
210.0680, 1801.012
211.2940, 1439.484
212.5200, 1587.355
213.7460, 1638.453
214.9720, 1507.770
216.1970, 1606.797
217.4220, 1566.496
218.6470, 2070.289
219.8720, 1948.480
221.0970, 2673.535
222.3210, 2949.383
223.5450, 3052.164
224.7690, 3781.406
225.9930, 3763.715
227.2170, 4609.988
228.4400, 4620.281
229.6630, 5210.516
230.8860, 5768.020
232.1090, 5978.945
233.3320, 5927.305
234.5540, 6098.234
235.7770, 5860.410
236.9990, 5478.664
238.2210, 5398.371
239.4420, 4816.738
240.6640, 4377.918
241.8850, 4343.750
243.1060, 4785.129
244.3270, 5132.270
245.5480, 5706.844
246.7680, 6345.113
247.9880, 7302.422
249.2080, 8310.094
250.4280, 9902.508
251.6480, 11234.97
252.8670, 12732.34
254.0870, 14302.88
255.3060, 15962.75
256.5250, 17058.62
257.7440, 17638.14
258.9620, 18462.96
260.1800, 18776.22
261.3990, 18893.25
262.6160, 18524.36
263.8340, 17698.54
265.0520, 16870.77
266.2690, 15639.30
267.4860, 14229.98
268.7030, 12330.00
269.9200, 10387.30
271.1370, 8840.316
272.3530, 7245.387
273.5690, 6340.707
274.7850, 5352.727
276.0010, 4594.312
277.2170, 4182.301
278.4320, 3742.699
279.6470, 3241.637
280.8620, 3065.383
282.0770, 2734.039
283.2920, 2442.613
284.5060, 2335.211
285.7210, 2179.504
286.9350, 2029.832
288.1490, 1461.512
289.3620, 1440.480
290.5760, 1366.668
291.7890, 1276.008
293.0020, 1308.895
294.2150, 1123.738
295.4280, 847.3359
296.6400, 873.0234
297.8530, 726.8164
299.0650, 733.9062
300.2770, 931.6758
301.4890, 505.8320
302.7000, 592.6797
303.9120, 408.7461
305.1230, 235.6484
306.3340, 620.3906
307.5450, 410.3945
308.7550, 127.2891
309.9660, 332.1250
311.1760, 22.16016
312.3860, 157.8945
313.5960, 44.75781
314.8050, 259.8984
316.0150, 34.67578
317.2240, 37.19531
318.4330, 5.648438
319.6420, 94.51953
320.8510, 124.7734
322.0590, 321.6758
323.2680, 272.4297
324.4760, 418.9609
325.6840, 141.4844
326.8910, 214.5039
328.0990, 128.0820
329.3060, 181.7461
330.5140, 162.6055
331.7210, 358.3594
332.9270, 431.9062
334.1340, 560.7812
335.3400, 470.5312
336.5470, 596.6875
337.7530, 527.5938
338.9590, 628.4766
340.1640, 607.0234
341.3700, 640.5430
342.5750, 441.7930
343.7800, 409.7500
344.9850, 668.6211
346.1900, 244.7422
347.3940, 474.6406
348.5990, 239.2969
349.8030, 236.7578
351.0070, 204.9297
352.2100, 114.6133
353.4140, 97.85156
354.6170, 27.18750
355.8210, 32.79688
357.0240, 45.89844
358.2260, 21.87500
359.4290, 300.1875
360.6320, 54.07422
361.8340, 89.06250
363.0360, 274.1328
364.2380, 76.59375
365.4400, 76.26562
366.6410, 71.12891
367.8420, 173.1953
369.0440, 180.5117
370.2440, 141.9414
371.4450, 103.6289
372.6460, 244.4297
373.8460, 60.71875
375.0460, 95.83594
376.2460, 64.92188
377.4460, 152.9805
378.6460, 99.61328
379.8450, 129.9336
381.0450, 116.0156
382.2440, 118.8672
383.4430, 237.4922
384.6410, 258.9023
385.8400, 22.87109
387.0380, 103.1523
388.2360, 81.99609
389.4340, 147.6055
390.6320, 85.00781
391.8300, 15.81641
393.0270, 227.1797
394.2240, 269.0117
395.4210, 300.6562
396.6180, 137.1172
397.8150, 438.3594
399.0110, 125.4023
400.2080, 112.2148
401.4040, 338.7891
402.6000, 540.1562
403.7950, 160.3086
404.9910, 185.2266
406.1860, 158.9102
407.3810, 228.3516
408.5760, 390.5625
409.7710, 246.5586
410.9660, 176.3203
412.1600, 314.8516
413.3540, 600.1523
414.5490, 116.2539
415.7420, 342.1094
416.9360, 648.7461
418.1300, 288.1797
419.3230, 138.3945
420.5160, 356.3750
421.7090, 120.1445
422.9020, 310.6758
424.0940, 467.9922
425.2870, 144.1055
426.4790, 568.9844
427.6710, 370.6641
428.8630, 0.1367190
430.0550, 356.3594
431.2460, 543.4180
432.4370, 514.3359
433.6290, 304.0664
434.8190, 243.6016
436.0100, 479.9375
437.2010, 346.0859
438.3910, 276.0547
439.5810, 576.8359
440.7710, 209.4414
441.9610, 679.8594
443.1510, 497.1133
444.3400, 614.1953
445.5300, 422.1055
446.7190, 577.8477
447.9080, 581.8164
449.0960, 573.8789
450.2850, 718.1094
451.4730, 468.2148
452.6620, 663.6328
453.8500, 243.9375
455.0370, 730.3164
456.2250, 477.3359
457.4120, 579.2695
458.6000, 614.9453
459.7870, 455.7734
460.9740, 511.9062
462.1610, 522.7656
463.3470, 674.1523
464.5330, 692.8398
465.7200, 676.0938
466.9060, 196.9492
468.0910, 630.4102
469.2770, 205.9375
470.4630, 250.4062
471.6480, 812.0000
472.8330, 612.6328
474.0180, 605.3320
475.2030, 541.2070
476.3870, 666.3750
477.5720, 404.2031
478.7560, 665.9023
479.9400, 429.3008
481.1240, 559.5078
482.3070, 854.0820
483.4910, 833.6719
484.6740, 989.2617
485.8570, 1237.301
487.0400, 1151.109
488.2230, 1087.676
489.4050, 1114.152
490.5880, 1123.070
491.7700, 1127.648
492.9520, 1158.004
494.1340, 813.8047
495.3160, 1142.711
496.4970, 966.0117
497.6780, 1500.016
498.8600, 1169.070
500.0400, 1536.469
501.2210, 1416.262
502.4020, 1163.559
503.5820, 1562.801
504.7630, 1442.852
505.9430, 1493.441
507.1220, 1733.324
508.3020, 1948.156
509.4820, 1705.215
510.6610, 2140.824
511.8400, 1996.996
513.0190, 2043.363
514.1980, 2769.047
515.3770, 2521.715
516.5550, 2724.977
517.7330, 2393.918
518.9110, 2832.820
520.0890, 2681.738
521.2670, 2838.465
522.4450, 2706.723
523.6220, 2881.582
524.7990, 2597.406
525.9760, 2781.039
527.1530, 2126.832
528.3300, 2131.891
529.5060, 1965.992
530.6830, 2234.238
531.8590, 1825.008
533.0350, 1744.980
534.2100, 1809.242
535.3860, 1349.926
536.5610, 1246.031
537.7370, 911.3438
538.9120, 885.3828
540.0870, 799.2188
541.2610, 730.1484
542.4360, 780.5078
543.6100, 764.6797
544.7850, 805.8398
545.9590, 684.7852
547.1320, 836.0469
548.3060, 709.8242
549.4800, 620.4805
550.6530, 696.5859
551.8260, 620.3281
552.9990, 652.1289
554.1720, 835.3945
555.3440, 1023.125
556.5170, 898.7930
557.6890, 956.0859
558.8610, 1100.820
560.0330, 1119.535
561.2050, 1043.402
562.3760, 1015.574
563.5480, 879.0625
564.7190, 1071.750
565.8900, 1151.355
567.0610, 1260.133
568.2310, 1113.055
569.4020, 1207.039
570.5720, 1509.074
571.7420, 979.8477
572.9120, 1831.461
574.0820, 1297.902
575.2520, 1323.121
576.4210, 1321.793
577.5900, 1438.949
578.7590, 1389.609
579.9280, 979.2461
581.0970, 1431.680
582.2660, 1052.898
583.4340, 1223.684
584.6020, 1082.668
585.7700, 1267.105
586.9380, 929.6992
588.1060, 877.9141
589.2730, 1106.121
590.4410, 1091.324
591.6080, 918.0977
592.7750, 739.8086
593.9420, 948.4336
595.1080, 767.9766
596.2750, 908.4688
597.4410, 722.8359
598.6070, 1078.410
599.7730, 1115.363
600.9390, 1183.738
602.1050, 1046.387
603.2700, 1239.090
604.4350, 435.4375
605.6010, 549.1250
606.7660, 36.76172
607.9300, 443.6836
609.0950, 332.2969
610.2590, 727.7383
611.4230, 123.9766
612.5880, 383.7383
613.7510, 145.1680
614.9150, 157.2383
616.0790, 3.425781
617.2420, 313.6172
618.4050, 331.4492
619.5680, 398.2227
620.7310, 451.2031
621.8940, 434.6992
623.0560, 466.0234
624.2190, 155.2695
625.3810, 491.8359
626.5430, 826.4688
627.7050, 850.2734
628.8660, 48.85547
630.0280, 533.5078
631.1890, 391.9883
632.3500, 318.2852
633.5110, 386.2891
634.6720, 328.4805
635.8330, 531.8672
636.9930, 517.5586
638.1530, 356.2891
639.3130, 600.2031
640.4730, 454.7852
641.6330, 284.1953
642.7930, 517.0234
643.9520, 492.9844
645.1110, 556.9727
646.2710, 748.0781
647.4290, 927.5781
648.5880, 991.4414
649.7470, 717.8945
650.9050, 936.7930
652.0630, 1135.754
653.2210, 1082.023
654.3790, 1319.465
655.5370, 1468.641
656.6950, 1377.230
657.8520, 1830.242
659.0090, 1623.535
660.1660, 1720.773
661.3230, 1229.633
662.4800, 1892.254
663.6360, 1507.719
664.7930, 1729.273
665.9490, 1855.195
667.1050, 2176.336
668.2610, 1418.375
669.4160, 1578.727
670.5720, 1610.941
671.7270, 1300.246
672.8830, 1422.145
674.0380, 896.3359
675.1920, 1598.242
676.3470, 1172.207
677.5020, 1203.262
678.6560, 996.3125
679.8100, 969.7070
680.9640, 1359.570
682.1180, 1091.469
683.2720, 1145.352
684.4250, 1554.297
685.5780, 1614.172
686.7320, 1269.117
687.8850, 1338.094
689.0370, 1870.477
690.1900, 1520.102
691.3420, 1623.195
692.4950, 1318.508
693.6470, 1507.949
694.7990, 1228.844
695.9510, 1192.664
697.1020, 1041.469
698.2540, 1104.242
699.4050, 1113.281
700.5560, 1025.027
701.7070, 1220.297
702.8580, 1267.691
704.0090, 1244.496
705.1590, 1423.289
706.3100, 895.5664
707.4600, 1080.355
708.6100, 1128.188
709.7590, 1247.355
710.9090, 1401.305
712.0590, 1511.215
713.2080, 1642.113
714.3570, 1832.434
715.5060, 2041.051
716.6550, 2265.332
717.8030, 2531.324
718.9520, 2849.309
720.1000, 2878.277
721.2480, 2914.250
722.3960, 2822.500
723.5440, 2357.438
724.6920, 1995.359
725.8390, 1462.273
726.9870, 1220.312
728.1340, 827.0469
729.2810, 640.9062
730.4280, 398.7539
731.5740, 35.41406
732.7210, 496.3789
733.8670, 192.1602
735.0130, 1.085938
736.1590, 345.6406
737.3050, 21.34766
738.4510, 271.0234
739.5960, 22.68359
740.7410, 134.3125
741.8870, 138.0859
743.0320, 387.4375
744.1760, 318.9805
745.3210, 34.00781
746.4660, 292.4844
747.6100, 128.0430
748.7540, 40.35156
749.8980, 419.5664
751.0420, 43.08984
752.1860, 259.1523
753.3290, 171.4141
754.4720, 237.9844
755.6160, 154.8125
756.7590, 330.2852
757.9020, 339.3438
759.0440, 521.3867
760.1870, 79.59766
761.3290, 196.3359
762.4710, 13.77344
763.6130, 99.91406
764.7550, 47.85547
765.8970, 62.41016
767.0390, 314.7812
768.1800, 37.58594
769.3210, 151.9922
770.4620, 132.4688
771.6030, 170.9648
772.7440, 366.3633
773.8840, 50.72266
775.0250, 284.0508
776.1650, 241.3398
777.3050, 53.40625
778.4450, 369.2227
779.5850, 58.72266
780.7240, 334.6250
781.8640, 59.50781
783.0030, 255.2852
784.1420, 138.9648
785.2810, 92.66797
786.4200, 230.7461
787.5590, 346.6719
788.6970, 330.0547
789.8350, 30.39844
790.9730, 238.7930
792.1110, 214.9531
793.2490, 37.86719
794.3870, 198.8516
795.5240, 49.00000
796.6620, 299.8164
797.7990, 441.5781
798.9360, 13.30078
800.0730, 26.02344
801.2090, 225.5781
802.3460, 133.1406
803.4820, 318.7344
804.6180, 109.4922
805.7540, 35.91406
806.8900, 316.7344
808.0260, 1.062500
809.1620, 478.3359
810.2970, 96.64844
811.4320, 490.8203
812.5670, 385.9609
813.7020, 366.5078
814.8370, 127.5625
815.9710, 281.5703
817.1060, 489.5234
818.2400, 455.8828
819.3740, 557.6875
820.5080, 398.1172
821.6420, 438.5391
822.7760, 397.2344
823.9090, 389.5703
825.0420, 293.4297
826.1760, 232.8047
827.3090, 121.6641
828.4410, 68.53906
829.5740, 275.5078
830.7060, 403.1172
831.8390, 183.7578
832.9710, 442.1172
834.1030, 188.3906
835.2350, 389.6172
836.3670, 168.2500
837.4980, 307.7500
838.6300, 297.7891
839.7610, 462.7031
840.8920, 481.7734
842.0230, 321.6172
843.1530, 745.8438
844.2840, 457.1484
845.4140, 374.2734
846.5450, 212.2109
847.6750, 732.9297
848.8050, 844.7188
849.9350, 801.6094
851.0640, 860.0156
852.1940, 431.8594
853.3230, 609.1562
854.4520, 593.0938
855.5810, 533.8438
856.7100, 835.1250
857.8390, 432.6641
858.9670, 1008.930
860.0960, 987.8438
861.2240, 905.5234
862.3520, 787.0469
863.4800, 766.5781
864.6080, 951.2422
865.7350, 670.4844
866.8630, 895.4609
867.9900, 857.3750
869.1170, 865.2500
870.2440, 663.8281
871.3710, 959.2734
872.4970, 907.0078
873.6240, 546.0469
874.7500, 1170.523
875.8760, 686.6250
877.0020, 1257.547
878.1280, 845.6797
879.2540, 890.0234
880.3790, 1289.133
881.5050, 989.6172
882.6300, 1297.125
883.7550, 1087.719
884.8800, 1438.703
886.0050, 1078.570
887.1290, 1284.953
888.2540, 1546.688
889.3780, 1413.211
890.5020, 1743.750
891.6260, 1305.711
892.7500, 1592.570
893.8730, 1528.359
894.9970, 1914.094
896.1200, 2203.109
897.2440, 1925.125
898.3670, 1900.734
899.4890, 1680.211
900.6120, 1877.875
901.7350, 1542.250
902.8570, 1828.398
903.9790, 1715.719
905.1010, 1879.148
906.2230, 1808.805
907.3450, 1733.203
908.4670, 1649.352
909.5880, 1604.695
910.7100, 1510.461
911.8310, 1495.328
912.9520, 1374.117
914.0730, 1259.055
915.1930, 1265.594
916.3140, 1128.930
917.4340, 1019.258
918.5550, 887.4766
919.6750, 891.2812
920.7950, 690.7109
921.9140, 632.5391
923.0340, 774.9375
924.1530, 923.2031
925.2730, 425.1797
926.3920, 698.9844
927.5110, 975.2656
928.6300, 633.5469
929.7480, 1099.664
930.8670, 784.4688
931.9850, 688.2891
933.1040, 508.4297
934.2220, 728.7656
935.3400, 753.2109
936.4570, 546.5234
937.5750, 399.4141
938.6920, 109.0391
939.8100, 804.7266
940.9270, 311.0547
942.0440, 597.5234
943.1610, 656.8359
944.2770, 396.5625
945.3940, 551.9609
946.5100, 462.6094
947.6270, 21.15625
948.7430, 515.5547
949.8590, 419.9062
950.9740, 427.8516
952.0900, 46.71875
953.2050, 490.6172
954.3210, 22.90625
955.4360, 436.0703
956.5510, 553.2656
957.6660, 367.3281
958.7800, 127.3203
959.8950, 233.8672
961.0090, 105.1016
962.1240, 326.8125
963.2380, 291.4766
964.3520, 127.5391
965.4650, 347.2969
966.5790, 402.0859
967.6930, 426.8438
968.8060, 448.5781
969.9190, 67.11719
971.0320, 319.7266
972.1450, 117.0547
973.2580, 195.9844
974.3700, 389.6328
975.4830, 192.3516
976.5950, 24.46094
977.7070, 157.0078
978.8190, 331.3672
979.9310, 168.6016
981.0430, 86.47656
982.1540, 373.6016
983.2650, 218.3438
984.3770, 4.406250
985.4880, 106.9375
986.5990, 225.6094
987.7090, 298.5469
988.8200, 94.20312
989.9300, 190.8047
991.0410, 119.6328
992.1510, 412.8438
993.2610, 261.3516
994.3710, 304.5156
995.4810, 331.1328
996.5900, 649.3750
997.6990, 454.7188
998.8090, 121.8359
999.9180, 534.8750
1001.027, 591.1016
1002.136, 707.2891
1003.244, 360.4453
1004.353, 680.2734
1005.461, 681.3516
1006.569, 274.1094
1007.677, 483.1641
1008.785, 229.1719
1009.893, 132.1562
1011.001, 286.0859
1012.108, 131.0000
1013.215, 226.7734
1014.323, 24.54688
1015.430, 78.25781
1016.536, 536.9219
1017.643, 593.5859
1018.750, 15.21094
1019.856, 483.7734
1020.962, 716.3125
1022.068, 98.82031
1023.174, 614.2891
1024.280, 501.7188
1025.386, 375.1484
1026.491, 557.5469
1027.597, 498.8984
1028.702, 672.2266
1029.807, 505.5391
1030.912, 495.8438
1032.017, 405.1172
1033.121, 276.7656
1034.226, 744.6250
1035.330, 160.8359
1036.434, 492.0312
1037.538, 742.2031
1038.642, 385.3516
1039.746, 801.5000
1040.850, 838.6172
1041.953, 1210.711
1043.056, 641.7656
1044.159, 1313.797
1045.262, 1259.797
1046.365, 1269.781
1047.468, 2092.820
1048.571, 2344.852
1049.673, 3132.836
1050.775, 2606.820
1051.877, 2907.766
1052.979, 2847.719
1054.081, 2873.641
1055.183, 3321.609
1056.284, 3206.539
1057.386, 4273.430
1058.487, 4391.219
1059.588, 5477.234
1060.689, 8078.117
1061.790, 10258.43
1062.890, 14946.71
1063.991, 21909.57
1065.091, 34961.41
1066.191, 56248.78
1067.291, 85595.55
1068.391, 127323.3
1069.491, 177516.1
1070.591, 226901.7
1071.690, 236985.2
1072.790, 197767.9
1073.889, 134286.2
1074.988, 78209.20
1076.087, 45775.86
1077.185, 27550.77
1078.284, 17921.38
1079.382, 12280.57
1080.481, 8125.672
1081.579, 6144.594
1082.677, 4600.094
1083.775, 4007.562
1084.872, 3103.445
1085.970, 2832.266
1087.067, 2337.602
1088.165, 1870.945
1089.262, 2045.266
1090.359, 1266.359
1091.456, 1446.117
1092.552, 905.5938
1093.649, 723.0234
1094.745, 657.1172
1095.842, 472.0703
1096.938, 525.0156
1098.034, 624.8438
1099.130, 787.1797
1100.225, 1068.641
1101.321, 674.6641
1102.416, 1162.953
1103.511, 320.6953
1104.607, 702.8359
1105.702, 436.8516
1106.796, 344.9844
1107.891, 819.1719
1108.986, 716.6719
1110.080, 481.3594
1111.174, 400.6641
1112.268, 856.2109
1113.362, 771.9219
1114.456, 415.2188
1115.550, 497.5859
1116.643, 2.242188
1117.737, 77.68750
1118.830, 270.9922
1119.923, 607.9531
1121.016, 619.0312
1122.109, 260.5000
1123.201, 560.6250
1124.294, 109.3984
1125.386, 144.1641
1126.478, 175.0078
1127.571, 210.1250
1128.663, 701.2344
1129.754, 128.3203
1130.846, 131.1562
1131.937, 444.6094
1133.029, 544.5938
1134.120, 661.5625
1135.211, 146.7344
1136.302, 558.6406
1137.393, 161.7344
1138.484, 493.0312
1139.574, 540.0781
1140.664, 421.1406
1141.755, 489.7812
1142.845, 459.0312
1143.935, 494.8438
1145.025, 590.6094
1146.114, 441.8672
1147.204, 583.3906
1148.293, 463.7656
1149.382, 641.3594
1150.471, 554.2031
1151.560, 367.7344
1152.649, 979.2500
1153.738, 759.5078
1154.826, 1384.977
1155.915, 1182.422
1157.003, 903.7734
1158.091, 700.1641
1159.179, 1312.719
1160.267, 1872.062
1161.355, 1101.938
1162.442, 912.2344
1163.529, 689.5078
1164.617, 826.3047
1165.704, 788.5312
1166.791, 486.6562
1167.878, 659.8359
1168.964, 334.9844
1170.051, 860.1172
1171.137, 369.2344
1172.224, 563.3750
1173.310, 912.4297
1174.396, 378.4609
1175.481, 376.4688
1176.567, 560.4609
1177.653, 477.4219
1178.738, 354.3594
1179.823, 564.2734
1180.909, 457.1719
1181.994, 433.0391
1183.078, 914.8906
1184.163, 46.71875
1185.248, 451.5078
1186.332, 1202.281
1187.416, 487.0234
1188.501, 274.3984
1189.585, 218.0938
1190.669, 366.7734
1191.752, 149.4297
1192.836, 162.0547
1193.919, 760.6562
1195.003, 332.2344
1196.086, 117.8906
1197.169, 604.4219
1198.252, 258.9297
1199.334, 695.4141
1200.417, 691.7891
1201.500, 394.3281
1202.582, 734.7500
1203.664, 340.1562
1204.746, 157.5391
1205.828, 351.2656
1206.910, 173.5938
1207.992, 579.9141
1209.073, 6.796875
1210.154, 990.4297
1211.236, 154.6562
1212.317, 523.9688
1213.398, 372.1406
1214.479, 685.2891
1215.559, 144.4531
1216.640, 159.5938
1217.720, 804.7266
1218.800, 259.8281
1219.881, 325.9062
1220.961, 68.97656
1222.040, 496.0234
1223.120, 529.0469
1224.200, 36.05469
1225.279, 341.0391
1226.358, 441.0000
1227.438, 378.9531
1228.517, 154.8984
1229.595, 4.828125
1230.674, 415.7109
1231.753, 144.4297
1232.831, 177.3203
1233.910, 343.0234
1234.988, 293.4766
1236.066, 129.8828
1237.144, 43.88281
1238.222, 594.3984
1239.299, 119.6562
1240.377, 7.968750
1241.454, 237.2422
1242.531, 191.5859
1243.608, 24.03125
1244.685, 251.7109
1245.762, 99.51562
1246.839, 112.1406
1247.915, 190.3047
1248.992, 571.3047
1250.068, 366.5312
1251.144, 349.7500
1252.220, 502.6875
1253.296, 21.89062
1254.372, 372.0391
1255.447, 122.4688
1256.523, 95.98438
1257.598, 163.6094
1258.673, 290.6719
1259.748, 374.9062
1260.823, 38.14844
1261.898, 596.1719
1262.973, 144.1797
1264.047, 33.17969
1265.122, 479.4609
1266.196, 132.5703
1267.270, 490.6328
1268.344, 73.50781
1269.418, 323.3594
1270.491, 244.2109
1271.565, 174.0625
1272.638, 562.8906
1273.712, 83.21875
1274.785, 590.5938
1275.858, 378.4141
1276.931, 439.2266
1278.003, 176.0391
1279.076, 445.8281
1280.148, 142.6328
1281.221, 419.4219
1282.293, 802.2031
1283.365, 485.9922
1284.437, 331.7656
1285.509, 666.5312
1286.580, 133.2891
1287.652, 43.03906
1288.723, 434.7812
1289.794, 90.48438
1290.866, 420.1953
1291.937, 812.8672
1293.007, 563.5312
1294.078, 367.1875
1295.149, 67.15625
1296.219, 230.4688
1297.289, 152.0859
1298.360, 193.7031
1299.430, 495.3047
1300.500, 39.10156
1301.569, 286.4844
1302.639, 195.0547
1303.709, 561.6328
1304.778, 293.2031
1305.847, 91.76562
1306.916, 293.3438
1307.985, 358.9062
1309.054, 921.4688
1310.123, 237.0391
1311.191, 770.6016
1312.260, 649.1562
1313.328, 207.7344
1314.396, 754.2969
1315.464, 327.8750
1316.532, 15.56250
1317.600, 436.0078
1318.668, 176.4062
1319.735, 470.0391
1320.802, 306.2266
1321.870, 663.4922
1322.937, 376.1562
1324.004, 53.17969
1325.071, 314.9062
1326.137, 343.5625
1327.204, 338.2266
1328.270, 454.8984
1329.337, 253.4297
1330.403, 487.1094
1331.469, 176.6641
1332.535, 535.2109
1333.601, 134.6719
1334.666, 288.8125
1335.732, 560.9531
1336.797, 505.4375
1337.862, 571.2812
1338.927, 754.7578
1339.992, 39.17188
1341.057, 262.2812
1342.122, 275.4375
1343.187, 110.1953
1344.251, 690.2344
1345.315, 223.3438
1346.380, 429.7969
1347.444, 599.2578
1348.508, 602.7109
1349.571, 763.5859
1350.635, 651.5391
1351.699, 900.4141
1352.762, 415.7969
1353.825, 357.2734
1354.888, 271.7578
1355.951, 449.1250
1357.014, 1191.336
1358.077, 146.4062
1359.140, 782.9062
1360.202, 727.6797
1361.264, 404.0234
1362.327, 1039.422
1363.389, 330.9688
1364.451, 889.1797
1365.513, 439.4922
1366.574, 303.0547
1367.636, 782.2812
1368.697, 114.0078
1369.759, 215.7344
1370.820, 780.3281
1371.881, 627.2109
1372.942, 284.8438
1374.002, 634.1250
1375.063, 792.5391
1376.124, 852.2734
1377.184, 967.3281
1378.244, 928.1016
1379.304, 960.8984
1380.364, 1049.703
1381.424, 589.8750
1382.484, 1414.750
1383.544, 1238.523
1384.603, 1176.133
1385.663, 1737.086
1386.722, 1586.055
1387.781, 1825.047
1388.840, 2541.617
1389.899, 2615.656
1390.957, 3019.711
1392.016, 3253.344
1393.074, 4181.438
1394.133, 4409.328
1395.191, 3868.477
1396.249, 4863.406
1397.307, 4697.586
1398.365, 5111.797
1399.422, 4484.047
1400.480, 4038.305
1401.537, 4373.797
1402.595, 3231.117
1403.652, 3465.469
1404.709, 2920.859
1405.766, 3549.266
1406.823, 3494.711
1407.879, 2879.141
1408.936, 3017.703
1409.992, 2564.391
1411.048, 2352.625
1412.104, 2214.195
1413.160, 1634.797
1414.216, 2148.305
1415.272, 2055.672
1416.328, 2484.250
1417.383, 2381.320
1418.439, 2520.969
1419.494, 3180.656
1420.549, 3181.383
1421.604, 2581.156
1422.659, 4120.133
1423.713, 3616.992
1424.768, 4236.898
1425.822, 4345.852
1426.877, 4194.852
1427.931, 4752.828
1428.985, 4389.930
1430.039, 4823.094
1431.093, 5229.297
1432.147, 4564.562
1433.200, 5006.891
1434.254, 4436.281
1435.307, 5247.742
1436.360, 4748.258
1437.413, 3983.867
1438.466, 4161.547
1439.519, 3911.320
1440.572, 3629.188
1441.624, 3431.156
1442.677, 3064.219
1443.729, 2516.734
1444.781, 2573.039
1445.833, 2817.555
1446.885, 2068.477
1447.937, 1956.352
1448.988, 2181.234
1450.040, 1587.281
1451.091, 1788.438
1452.143, 1602.516
1453.194, 1304.461
1454.245, 1569.219
1455.296, 1252.672
1456.347, 1312.008
1457.397, 1357.500
1458.448, 1248.977
1459.498, 1177.000
1460.549, 739.4766
1461.599, 1518.008
1462.649, 699.3906
1463.699, 640.9609
1464.748, 1292.555
1465.798, 643.1641
1466.848, 1087.812
1467.897, 558.4766
1468.946, 483.1875
1469.995, 1126.898
1471.044, 533.6328
1472.093, 821.4688
1473.142, 634.5078
1474.191, 378.9062
1475.239, 933.3984
1476.288, 287.9453
1477.336, 884.4531
1478.384, 905.1328
1479.432, 125.9609
1480.480, 618.8125
1481.528, 164.2812
1482.575, 1005.688
1483.623, 68.67969
1484.670, 12.81250
1485.718, 268.9922
1486.765, 146.2344
1487.812, 631.5312
1488.859, 808.9375
1489.905, 488.4531
1490.952, 311.0078
1491.999, 27.62500
1493.045, 769.3750
1494.091, 310.1797
1495.137, 280.9609
1496.183, 697.9688
1497.229, 46.95312
1498.275, 1123.992
1499.321, 328.0938
1500.366, 0.6875000
1501.412, 759.6406
1502.457, 27.97656
1503.502, 286.5234
1504.547, 562.1016
1505.592, 556.7656
1506.637, 903.5312
1507.682, 735.3516
1508.726, 1326.242
1509.771, 649.2031
1510.815, 1122.219
1511.859, 2052.312
1512.903, 1622.453
1513.947, 1807.656
1514.991, 1517.672
1516.034, 1472.711
1517.078, 1638.789
1518.121, 1704.938
1519.165, 1780.148
1520.208, 1761.891
1521.251, 1281.414
1522.294, 1657.336
1523.337, 1391.461
1524.379, 1349.734
1525.422, 1807.188
1526.464, 1350.797
1527.507, 1595.602
1528.549, 1474.578
1529.591, 1020.734
1530.633, 1235.078
1531.675, 1155.594
1532.717, 1330.523
1533.758, 1076.219
1534.800, 977.0938
1535.841, 1099.188
1536.882, 445.4688
1537.923, 1389.953
1538.964, 672.5391
1540.005, 750.7500
1541.046, 1165.148
1542.087, 566.6484
1543.127, 895.5234
1544.167, 491.5234
1545.208, 985.7344
1546.248, 859.1797
1547.288, 363.8594
1548.328, 897.7969
1549.367, 456.0234
1550.407, 168.5469
1551.447, 1093.391
1552.486, 500.5703
1553.525, 639.0703
1554.564, 977.9141
1555.603, 92.11719
1556.642, 1119.680
1557.681, 237.8438
1558.720, 757.6719
1559.758, 831.9531
1560.797, 490.4844
1561.835, 520.4531
1562.873, 316.2891
1563.911, 811.0547
1564.949, 648.8516
1565.987, 658.7812
1567.025, 1376.000
1568.062, 767.6641
1569.100, 622.0234
1570.137, 172.6406
1571.174, 169.7500
1572.212, 228.3672
1573.248, 1061.242
1574.285, 622.7891
1575.322, 1549.539
1576.359, 720.4062
1577.395, 1159.789
1578.432, 984.0938
1579.468, 446.1875
1580.504, 776.8125
1581.540, 0.0000000E+00
##END=



