##NAMES=Grunerite
##RRUFFID=R040150
##IDEAL CHEMISTRY=[box]Fe^2+^_2_Fe^2+^_5_Si_8_O_22_(OH)_2_
##LOCALITY=Smallwood mine, Heath Lake, Newfoundland, Canada
##OWNER=RRUFF
##SOURCE=University of Arizona Mineral Museum
##DESCRIPTION=Brown bladed crystals in parallel aggregate
##STATUS=The identification of this mineral has been confirmed by X-ray diffraction and chemical analysis
##URL=rruff.info/R040150
##MEASURED CHEMISTRY=(Fe_0.69_Mg_0.27_Ca_0.02_Mn_0.02_)_7_Si_8.02_O_22_((OH)_0.98_Cl_0.02_)_2_
##PIN_ID=M00350
##ORIENTATION=Laser parallel to a* (1 0 0). Fiducial mark perpendicular to laser is parallel to -b [0 -1 0]
54.966, 0.000
56.365, 62.233
57.765, 168.209
59.164, 84.227
60.563, 6.741
61.962, 4.462
63.360, 16.027
64.758, 40.748
66.157, 4.423
67.554, 217.753
68.952, 485.620
70.349, 1070.497
71.747, 1913.947
73.144, 3123.603
74.540, 4422.167
75.937, 6340.381
77.333, 8301.018
78.729, 10070.861
80.125, 11407.724
81.521, 10969.430
82.916, 9898.835
84.311, 8261.808
85.706, 7190.240
87.101, 5532.037
88.496, 4640.124
89.890, 4063.430
91.284, 3651.903
92.678, 3155.480
94.071, 2684.108
95.465, 2512.736
96.858, 2170.314
98.251, 1969.770
99.644, 1799.021
101.036, 1620.003
102.428, 1593.667
103.820, 1420.971
105.212, 1381.879
106.604, 1472.363
107.995, 1401.396
109.387, 1381.955
110.777, 1457.019
112.168, 1432.573
113.559, 1370.606
114.949, 1456.115
116.339, 1400.103
117.729, 1497.569
119.119, 1349.515
120.508, 1091.943
121.897, 966.853
123.286, 986.239
124.675, 834.086
126.063, 754.375
127.452, 601.089
128.840, 611.211
130.228, 563.724
131.615, 501.613
133.003, 505.864
134.390, 466.462
135.777, 463.396
137.164, 440.652
138.550, 547.141
139.937, 429.614
141.323, 571.067
142.709, 572.522
144.094, 680.012
145.480, 767.577
146.865, 876.234
148.250, 1157.000
149.635, 1380.884
151.019, 1696.896
152.403, 2086.046
153.788, 2682.337
155.171, 3304.775
156.555, 3941.367
157.939, 4518.110
159.322, 4632.013
160.705, 4151.072
162.088, 3506.294
163.470, 2817.678
164.853, 2296.227
166.235, 1927.939
167.617, 1679.820
168.998, 1574.901
170.380, 1537.234
171.761, 1613.857
173.142, 1708.753
174.523, 1917.982
175.904, 2217.555
177.284, 2498.456
178.664, 2913.679
180.044, 3417.225
181.424, 4156.111
182.803, 4788.340
184.183, 5302.912
185.562, 5640.850
186.940, 5905.081
188.319, 5631.607
189.698, 5505.374
191.076, 4979.304
192.454, 4644.346
193.831, 4420.475
195.209, 4087.682
196.586, 3914.966
197.963, 3704.326
199.340, 3690.760
200.717, 3661.267
202.093, 3608.847
203.470, 3652.497
204.846, 3668.217
206.221, 3748.002
207.597, 3646.256
208.972, 3560.784
210.347, 3434.750
211.722, 3213.789
213.097, 3082.887
214.472, 2820.043
215.846, 2800.255
217.220, 2561.522
218.594, 2443.841
219.967, 2285.211
221.341, 2018.441
222.714, 1987.482
224.087, 1620.353
225.460, 1557.559
226.832, 1435.536
228.204, 1318.384
229.577, 1241.478
230.948, 1144.525
232.320, 1106.741
233.692, 1084.294
235.063, 1042.899
236.434, 1044.323
237.805, 999.763
239.175, 984.467
240.545, 942.418
241.916, 931.582
243.286, 912.018
244.655, 924.644
246.025, 874.473
247.394, 897.498
248.763, 857.709
250.132, 849.100
251.501, 873.664
252.869, 828.393
254.237, 776.281
255.605, 791.323
256.973, 744.513
258.340, 767.846
259.708, 701.323
261.075, 695.939
262.442, 615.692
263.808, 541.583
265.175, 513.607
266.541, 493.760
267.907, 450.047
269.273, 476.476
270.639, 474.031
272.004, 489.711
273.369, 512.510
274.734, 580.419
276.099, 713.448
277.463, 675.589
278.828, 963.104
280.192, 1024.079
281.556, 1183.786
282.919, 1474.810
284.283, 1526.446
285.646, 1742.016
287.009, 1807.823
288.372, 1865.064
289.734, 2064.368
291.097, 2067.515
292.459, 1988.488
293.821, 2075.495
295.183, 1931.828
296.544, 1901.514
297.905, 1771.227
299.266, 1664.790
300.627, 1606.194
301.988, 1466.828
303.348, 1400.567
304.709, 1341.161
306.069, 1276.678
307.428, 1340.061
308.788, 1342.799
310.147, 1416.852
311.507, 1516.164
312.865, 1639.038
314.224, 1747.845
315.583, 1856.030
316.941, 2063.729
318.299, 2022.824
319.657, 1970.552
321.015, 1955.735
322.372, 1757.437
323.729, 1716.156
325.086, 1560.321
326.443, 1508.310
327.800, 1330.824
329.156, 1454.375
330.512, 1407.728
331.868, 1564.109
333.224, 1702.518
334.579, 1969.952
335.935, 2119.410
337.290, 2523.891
338.645, 2897.394
339.999, 3418.915
341.354, 3963.453
342.708, 4639.008
344.062, 5332.576
345.416, 5937.155
346.769, 6471.747
348.123, 6930.347
349.476, 7327.952
350.829, 7246.796
352.182, 6868.072
353.534, 6700.799
354.887, 5608.420
356.239, 4936.041
357.591, 4497.662
358.942, 4293.283
360.294, 3977.902
361.645, 3962.520
362.996, 3992.137
364.347, 4211.750
365.698, 4311.361
367.048, 4446.967
368.398, 4393.570
369.748, 4209.169
371.098, 3809.760
372.448, 3351.348
373.797, 2811.929
375.146, 2467.503
376.495, 2180.070
377.844, 2022.629
379.192, 1754.180
380.540, 1736.723
381.889, 1552.256
383.236, 1602.780
384.584, 1743.333
385.932, 1680.918
387.279, 1781.532
388.626, 1976.177
389.973, 2154.855
391.319, 2401.560
392.666, 2729.288
394.012, 3035.041
395.358, 3385.812
396.704, 3744.600
398.049, 4096.402
399.394, 4350.219
400.740, 4505.047
402.084, 4650.883
403.429, 4557.731
404.774, 4404.586
406.118, 4308.445
407.462, 3987.311
408.806, 3872.179
410.150, 3583.052
411.493, 3315.925
412.836, 3067.798
414.179, 2785.671
415.522, 2511.542
416.865, 2307.410
418.207, 1992.275
419.549, 1636.147
420.891, 1504.213
422.233, 1261.551
423.575, 1097.261
424.916, 853.139
426.257, 799.973
427.598, 728.184
428.939, 532.860
430.279, 477.857
431.619, 273.887
432.959, 218.469
434.299, 208.864
435.639, 182.255
436.978, 113.197
438.318, 44.104
439.657, 6.982
440.996, 39.606
442.334, 4.877
443.673, 65.801
445.011, 87.828
446.349, 66.605
447.687, 98.300
449.024, 36.901
450.361, 98.399
451.699, 123.881
453.036, 85.748
454.372, 146.558
455.709, 84.684
457.045, 118.894
458.381, 100.210
459.717, 110.622
461.053, 89.139
462.388, 105.749
463.724, 120.463
465.059, 115.291
466.394, 127.231
467.728, 138.291
469.063, 93.478
470.397, 127.770
471.731, 161.187
473.065, 151.746
474.398, 116.445
475.732, 88.266
477.065, 94.196
478.398, 114.238
479.731, 74.404
481.063, 63.675
482.396, 38.046
483.728, 4.505
485.060, 48.965
486.391, 30.388
487.723, 84.756
489.054, 87.083
490.385, 145.369
491.716, 236.618
493.047, 239.829
494.377, 288.002
495.708, 327.138
497.038, 330.245
498.368, 349.314
499.697, 345.346
501.027, 396.338
502.356, 437.300
503.685, 461.226
505.014, 498.116
506.342, 496.968
507.671, 631.784
508.999, 602.561
510.327, 710.302
511.655, 743.004
512.982, 833.673
514.310, 874.300
515.637, 955.890
516.964, 1127.441
518.291, 1214.952
519.617, 1412.430
520.944, 1666.365
522.270, 1817.288
523.596, 2263.658
524.921, 2487.986
526.247, 2828.274
527.572, 3152.525
528.897, 3400.736
530.222, 3552.904
531.547, 3396.033
532.871, 3227.120
534.196, 2820.165
535.520, 2451.170
536.844, 2062.136
538.167, 1750.059
539.491, 1483.943
540.814, 1249.785
542.137, 1082.202
543.460, 999.350
544.783, 867.072
546.105, 855.752
547.427, 845.389
548.749, 814.983
550.071, 834.535
551.393, 844.043
552.714, 916.509
554.035, 932.932
555.356, 1080.311
556.677, 1117.646
557.998, 1156.937
559.318, 1241.186
560.638, 1153.391
561.958, 1185.552
563.278, 1034.667
564.597, 1044.738
565.917, 913.765
567.236, 789.747
568.555, 691.683
569.874, 529.575
571.192, 485.422
572.511, 445.224
573.829, 376.984
575.147, 261.699
576.464, 293.368
577.782, 232.992
579.099, 148.571
580.416, 138.092
581.733, 124.554
583.050, 88.954
584.366, 90.280
585.683, 108.534
586.999, 43.720
588.315, 6.817
589.630, 60.805
590.946, 48.711
592.261, 75.528
593.576, 102.268
594.891, 40.938
596.206, 62.517
597.520, 62.013
598.834, 73.163
600.148, 88.881
601.462, 77.895
602.776, 137.617
604.089, 121.757
605.402, 151.991
606.715, 139.016
608.028, 130.635
609.341, 121.211
610.653, 186.967
611.965, 164.921
613.277, 209.864
614.589, 196.501
615.901, 270.807
617.212, 276.104
618.523, 331.569
619.834, 374.208
621.145, 417.633
622.456, 449.966
623.766, 509.459
625.076, 659.042
626.386, 670.773
627.696, 763.165
629.006, 801.254
630.315, 960.102
631.624, 989.400
632.933, 1166.779
634.242, 1334.793
635.551, 1528.307
636.859, 1683.438
638.167, 1923.947
639.475, 2329.012
640.783, 2547.571
642.090, 3010.122
643.398, 3470.238
644.705, 4255.539
646.012, 4979.322
647.318, 5880.078
648.625, 7296.038
649.931, 8795.978
651.237, 10897.894
652.543, 13451.788
653.849, 16477.920
655.155, 20888.986
656.460, 25236.820
657.765, 30947.633
659.070, 35040.457
660.375, 40180.871
661.679, 43700.277
662.984, 43182.375
664.288, 41136.734
665.592, 37414.602
666.895, 31840.488
668.199, 26275.145
669.502, 21778.227
670.805, 17447.840
672.108, 14448.939
673.411, 11589.017
674.713, 9659.582
676.016, 8369.984
677.318, 6924.781
678.620, 6099.217
679.921, 5237.712
681.223, 4669.191
682.524, 4228.654
683.825, 3672.406
685.126, 3426.837
686.427, 3081.253
687.727, 2762.976
689.028, 2594.361
690.328, 2285.732
691.628, 2198.365
692.927, 2020.090
694.227, 1869.418
695.526, 1663.068
696.825, 1634.404
698.124, 1446.241
699.423, 1440.771
700.721, 1278.354
702.020, 1248.764
703.318, 1185.003
704.616, 1084.232
705.913, 1000.448
707.211, 972.655
708.508, 932.145
709.805, 908.331
711.102, 827.549
712.399, 810.714
713.695, 720.871
714.992, 743.504
716.288, 740.643
717.584, 685.773
718.879, 680.177
720.175, 586.010
721.470, 620.116
722.765, 529.216
724.060, 509.309
725.355, 493.396
726.649, 480.541
727.944, 451.616
729.238, 529.216
730.532, 421.280
731.825, 485.339
733.119, 586.394
734.412, 511.433
735.705, 571.268
736.998, 655.823
738.291, 815.994
739.584, 958.014
740.876, 1124.040
742.168, 1392.678
743.460, 1531.686
744.752, 1627.666
746.043, 1701.448
747.334, 1668.665
748.626, 1461.054
749.916, 1306.435
751.207, 1109.250
752.498, 995.087
753.788, 883.901
755.078, 835.204
756.368, 804.193
757.658, 756.785
758.947, 800.446
760.237, 894.819
761.526, 849.073
762.815, 870.188
764.104, 811.173
765.392, 794.093
766.680, 785.345
767.969, 689.496
769.257, 716.900
770.544, 707.345
771.832, 763.838
773.119, 749.377
774.406, 750.965
775.693, 816.598
776.980, 750.279
778.267, 865.015
779.553, 851.804
780.839, 790.651
782.125, 789.560
783.411, 785.519
784.697, 635.538
785.982, 642.627
787.267, 594.783
788.552, 454.999
789.837, 463.268
791.122, 343.659
792.406, 164.975
793.690, 170.410
794.974, 115.893
796.258, 59.419
797.542, 139.980
798.825, 53.563
800.108, 115.174
801.391, 35.803
802.674, 41.452
803.957, 5.119
805.239, 29.804
806.522, 46.508
807.804, 64.769
809.085, 8.048
810.367, 5.689
811.649, 22.446
812.930, 59.778
814.211, 22.001
815.492, 23.210
816.772, 13.405
818.053, 22.584
819.333, 6.749
820.613, 38.895
821.893, 10.969
823.173, 45.147
824.452, 19.746
825.732, 18.340
827.011, 18.408
828.290, 23.539
829.568, 56.490
830.847, 66.515
832.125, 31.537
833.403, 8.455
834.681, 4.469
835.959, 5.507
837.236, 42.431
838.514, 4.641
839.791, 36.737
841.068, 13.142
842.345, 23.999
843.621, 64.164
844.898, 11.647
846.174, 15.436
847.450, 48.796
848.726, 13.947
850.001, 0.668
851.277, 21.365
852.552, 11.042
853.827, 13.696
855.102, 7.327
856.376, 7.065
857.651, 8.484
858.925, 19.929
860.199, 14.401
861.473, 13.101
862.746, 6.957
864.020, 1.605
865.293, 6.545
866.566, 21.148
867.839, 20.221
869.112, 18.431
870.384, 44.112
871.656, 48.821
872.928, 24.557
874.200, 13.322
875.472, 21.115
876.744, 16.937
878.015, 12.817
879.286, 3.334
880.557, 18.573
881.828, 22.491
883.098, 5.469
884.369, 7.458
885.639, 7.482
886.909, 31.540
888.178, 20.635
889.448, 25.766
890.717, 50.938
891.987, 0.845
893.256, 22.418
894.524, 286.735
895.793, 473.099
897.061, 490.525
898.330, 655.015
899.598, 479.565
900.865, 226.173
902.133, 74.835
903.401, 100.553
904.668, 106.327
905.935, 84.156
907.202, 79.040
908.468, 154.973
909.735, 145.966
911.001, 224.009
912.267, 140.100
913.533, 210.239
914.799, 249.432
916.064, 200.672
917.330, 254.953
918.595, 197.277
919.860, 208.642
921.124, 254.058
922.389, 283.508
923.653, 307.990
924.918, 255.505
926.182, 340.058
927.445, 265.655
928.709, 322.287
929.972, 292.958
931.236, 364.659
932.499, 263.390
933.761, 331.155
935.024, 298.953
936.286, 301.778
937.549, 422.643
938.811, 319.536
940.073, 438.458
941.334, 430.408
942.596, 512.386
943.857, 524.395
945.118, 643.431
946.379, 660.494
947.640, 713.583
948.900, 812.700
950.161, 949.842
951.421, 1011.010
952.681, 1218.206
953.940, 1307.428
955.200, 1524.676
956.459, 1728.950
957.719, 1988.250
958.978, 2312.575
960.236, 2672.663
961.495, 3079.828
962.753, 3462.230
964.012, 3798.658
965.270, 4292.070
966.527, 4698.917
967.785, 4929.753
969.043, 5036.924
970.300, 5057.835
971.557, 4737.241
972.814, 4645.633
974.071, 4202.264
975.327, 3926.479
976.583, 3438.162
977.840, 3117.375
979.095, 2732.613
980.351, 2405.372
981.607, 2149.301
982.862, 1897.843
984.117, 1727.754
985.372, 1604.615
986.627, 1413.501
987.882, 1458.412
989.136, 1386.043
990.390, 1331.004
991.644, 1499.990
992.898, 1453.677
994.152, 1550.712
995.405, 1575.772
996.659, 1681.580
997.912, 1719.306
999.165, 1748.439
1000.417, 1808.262
1001.670, 1785.409
1002.922, 1893.067
1004.174, 1837.043
1005.426, 1920.977
1006.678, 2017.095
1007.930, 2161.396
1009.181, 2328.720
1010.432, 2676.068
1011.683, 2916.439
1012.934, 3222.538
1014.185, 3728.956
1015.435, 4262.352
1016.685, 4761.815
1017.935, 5414.302
1019.185, 6123.323
1020.435, 6812.853
1021.684, 7415.405
1022.934, 7993.980
1024.183, 8298.578
1025.432, 8347.196
1026.680, 8248.838
1027.929, 7827.498
1029.177, 7490.182
1030.425, 6828.821
1031.673, 6340.546
1032.921, 5727.760
1034.169, 5055.527
1035.416, 4644.455
1036.663, 4183.275
1037.911, 3787.696
1039.157, 3454.543
1040.404, 3253.053
1041.650, 3010.565
1042.897, 2812.420
1044.143, 2629.042
1045.389, 2494.087
1046.634, 2340.393
1047.880, 2219.624
1049.125, 2125.901
1050.371, 1997.103
1051.615, 1943.903
1052.860, 1757.665
1054.105, 1698.131
1055.349, 1642.439
1056.593, 1552.413
1057.837, 1496.815
1059.081, 1477.357
1060.325, 1445.251
1061.568, 1464.697
1062.812, 1450.698
1064.055, 1409.351
1065.298, 1361.768
1066.540, 1317.012
1067.783, 1224.347
1069.025, 1173.026
1070.267, 1222.806
1071.509, 1070.845
1072.751, 1086.387
1073.993, 1138.556
1075.234, 1120.640
1076.475, 1091.182
1077.716, 1159.868
1078.957, 1029.176
1080.198, 1072.171
1081.438, 1069.591
1082.679, 991.992
1083.919, 1057.346
1085.159, 1076.759
1086.398, 1104.642
1087.638, 1158.320
1088.877, 1167.911
1090.116, 1204.421
1091.355, 1304.151
1092.594, 1509.567
1093.833, 1650.073
1095.071, 1814.564
1096.309, 2042.171
1097.547, 2203.682
1098.785, 2257.200
1100.023, 2247.911
1101.260, 2188.663
1102.498, 2037.219
1103.735, 1780.768
1104.972, 1642.416
1106.208, 1419.979
1107.445, 1292.547
1108.681, 1155.123
1109.918, 1049.715
1111.154, 960.699
1112.389, 909.917
1113.625, 834.525
1114.860, 764.146
1116.096, 749.776
1117.331, 677.415
1118.566, 660.060
1119.800, 628.711
1121.035, 602.374
1122.269, 585.534
1123.503, 508.774
1124.737, 532.458
1125.971, 523.145
1127.205, 459.837
1128.438, 500.534
1129.671, 439.729
1130.904, 401.944
1132.137, 384.667
1133.370, 355.396
1134.602, 382.127
1135.834, 355.860
1137.066, 275.594
1138.298, 316.333
1139.530, 200.074
1140.762, 283.814
1141.993, 263.558
1143.224, 231.302
1144.455, 191.045
1145.686, 202.790
1146.917, 191.535
1148.147, 208.282
1149.377, 203.028
1150.607, 180.772
1151.837, 203.518
1153.067, 153.263
1154.296, 135.007
1155.526, 153.750
1156.755, 147.491
1157.984, 140.228
1159.213, 140.962
1160.441, 98.693
1161.670, 105.422
1162.898, 71.147
1164.126, 56.869
1165.354, 68.587
1166.581, 74.300
1167.809, 48.011
1169.036, 52.717
1170.263, 43.825
1171.490, 37.114
1172.717, 35.804
1173.943, 37.489
1175.170, 42.167
1176.396, 43.041
1177.622, 32.506
1178.848, 40.166
1180.073, 37.819
1181.299, 17.468
1182.524, 11.891
1183.749, 9.268
1184.974, 18.662
1186.199, 23.921
1187.423, 1.504
1188.648, 17.800
1189.872, 4.737
1191.096, 28.347
1192.320, 7.444
1193.543, 27.968
1194.767, 11.735
1195.990, 25.832
1197.213, 7.156
1198.436, 16.556
1199.659, 31.105
1200.881, 8.401
1202.104, 5.146
1203.326, 0.141
1204.548, 16.670
1205.770, 39.708
1206.991, 3.751
1208.213, 20.503
1209.434, 12.651
1210.655, 54.200
1211.876, 17.929
1213.096, 1.439
1214.317, 0.602
1215.537, 19.827
1216.757, 52.709
1217.977, 9.465
1219.197, 28.157
1220.417, 8.104
1221.636, 7.308
1222.855, 29.974
1224.074, 0.175
1225.293, 9.114
1226.512, 18.158
1227.731, 48.466
1228.949, 8.450
1230.167, 10.420
1231.385, 63.521
1232.603, 15.144
1233.820, 38.166
1235.038, 44.402
1236.255, 52.519
1237.472, 39.575
1238.689, 14.582
1239.906, 58.855
1241.122, 65.675
1242.338, 53.951
1243.555, 120.624
1244.771, 89.318
1245.986, 51.312
1247.202, 50.255
1248.417, 68.372
1249.633, 125.018
1250.848, 61.994
1252.063, 98.850
1253.277, 200.393
1254.492, 133.432
1255.706, 160.178
1256.920, 120.828
1258.134, 106.264
1259.348, 120.801
1260.562, 111.601
1261.775, 136.782
1262.988, 135.760
1264.201, 139.252
1265.414, 155.589
1266.627, 116.281
1267.839, 149.817
1269.052, 82.108
1270.264, 131.486
1271.476, 183.862
1272.688, 151.148
1273.899, 138.407
1275.111, 113.727
1276.322, 123.202
1277.533, 145.511
1278.744, 147.887
1279.955, 131.124
1281.165, 172.338
1282.376, 161.441
1283.586, 169.526
1284.796, 144.590
1286.006, 112.621
1287.215, 127.454
1288.425, 131.264
1289.634, 128.011
1290.843, 159.949
1292.052, 138.866
1293.261, 111.961
1294.469, 146.895
1295.678, 116.738
1296.886, 151.560
1298.094, 177.353
1299.302, 137.120
1300.509, 174.863
1301.717, 197.580
1302.924, 185.260
1304.131, 175.917
1305.338, 163.545
1306.545, 183.148
1307.752, 165.727
1308.958, 172.276
1310.164, 220.853
1311.370, 164.358
1312.576, 175.832
1313.782, 157.283
1314.987, 230.692
1316.193, 146.077
1317.398, 199.438
1318.603, 204.773
1319.807, 175.079
1321.012, 139.356
1322.216, 168.607
1323.421, 151.834
1324.625, 159.029
1325.829, 161.198
1327.032, 137.343
1328.236, 139.318
1329.439, 146.394
1330.642, 148.865
1331.845, 144.902
1333.048, 99.273
1334.251, 153.636
1335.453, 72.224
1336.656, 68.962
1337.858, 129.772
1339.060, 79.315
1340.261, 154.927
1341.463, 75.485
1342.664, 81.520
1343.866, 96.544
1345.067, 81.598
1346.267, 85.880
1347.468, 117.439
1348.669, 70.264
1349.869, 60.650
1351.069, 68.890
1352.269, 4.743
1353.469, 34.035
1354.668, 57.794
1355.868, 67.854
1357.067, 52.138
1358.266, 71.476
1359.465, 1.085
1360.664, 66.901
1361.862, 50.497
1363.061, 16.204
1364.259, 72.895
1365.457, 13.205
1366.655, 25.162
1367.852, 34.710
1369.050, 3.658
1370.247, 21.741
1371.444, 18.855
1372.641, 40.225
1373.838, 40.487
1375.035, 28.825
1376.231, 14.677
1377.427, 14.924
1378.623, 17.890
1379.819, 24.239
1381.015, 27.396
1382.211, 30.521
1383.406, 13.615
1384.601, 45.671
1385.796, 10.311
1386.991, 63.599
1388.185, 56.542
1389.380, 25.451
1390.574, 28.326
1391.768, 16.173
1392.962, 55.968
1394.156, 22.737
1395.350, 30.473
1396.543, 71.171
1397.736, 15.836
1398.929, 35.463
1400.122, 45.059
1401.315, 83.621
1402.507, 56.150
1403.700, 73.646
1404.892, 51.109
1406.084, 11.540
1407.276, 51.938
1408.467, 87.304
1409.659, 8.363
1410.850, 39.939
1412.041, 93.209
1413.232, 59.448
1414.423, 55.656
1415.614, 72.833
1416.804, 75.006
1417.994, 56.182
1419.184, 30.110
1420.374, 47.913
1421.564, 35.650
1422.753, 55.365
1423.943, 56.022
1425.132, 77.827
1426.321, 126.438
1427.510, 96.550
1428.698, 73.561
1429.887, 9.886
1431.075, 107.362
1432.263, 76.322
1433.451, 80.629
1434.639, 87.420
1435.827, 26.079
1437.014, 48.405
1438.201, 123.979
1439.388, 76.826
1440.575, 85.144
1441.762, 92.857
1442.949, 62.012
1444.135, 98.841
1445.321, 90.312
1446.507, 112.604
1447.693, 66.692
1448.879, 67.631
1450.064, 80.897
1451.250, 88.846
1452.435, 34.432
1453.620, 127.055
1454.805, 52.860
1455.989, 57.366
1457.174, 91.246
1458.358, 62.554
1459.542, 125.572
1460.726, 99.531
1461.910, 100.428
1463.093, 122.505
1464.277, 81.924
1465.460, 85.218
1466.643, 29.545
1467.826, 33.398
1469.009, 111.289
1470.191, 41.940
1471.373, 66.675
1472.556, 106.400
1473.738, 59.100
1474.919, 54.877
1476.101, 25.663
1477.283, 44.437
1478.464, 0.133
1479.645, 80.574
1480.826, 35.448
1482.007, 95.289
1483.187, 40.197
1484.368, 6.870
1485.548, 34.162
1486.728, 38.251
1487.908, 38.424
1489.088, 73.657
1490.268, 60.956
1491.447, 63.134
1492.626, 45.523
1493.805, 27.519
1494.984, 55.099
1496.163, 0.595
1497.341, 25.321
1498.520, 13.397
1499.698, 5.502
1500.876, 37.710
1502.054, 0.000
##END=



