##NAMES=Helvine
##RRUFFID=R060059
##IDEAL CHEMISTRY=Mn^2+^_4_(BeSiO_4_)_3_S^2-^
##LOCALITY=Schwarzenberg, Saxony, Germany
##OWNER=RRUFF
##SOURCE=University of Arizona Mineral Museum
##DESCRIPTION=Yellow-tan colored tetrahedra
##STATUS=The identification of this mineral has been confirmed by X-ray diffraction and chemical analysis
##URL=rruff.info/R060059
##MEASURED CHEMISTRY=(Mn^2+^_2.93_Fe^2+^_0.48_Zn_0.35_Ca_0.15_Fe^3+^_0.09_)_Σ=4_Be_3.00_((Si_0.97_Al_0.03_)_Σ=1_O_4_)_3_S_1.00_; BeO assumed by stoichiometry
##PIN_ID=M00669
##ORIENTATION=Laser parallel to -a* (-1 0 0). Fiducial mark perpendicular to laser is parallel to -c [0 0 -1]
93.28600, 0.0000000E+00
94.52300, 536.4414
95.75900, 622.8047
96.99500, 24.41016
98.23100, 113.5078
99.46700, 758.0820
100.7030, 1767.230
101.9390, 2614.031
103.1740, 4392.961
104.4090, 5526.766
105.6440, 5807.988
106.8790, 6526.508
108.1140, 6622.070
109.3490, 7289.820
110.5830, 8010.117
111.8180, 9235.527
113.0520, 10314.34
114.2860, 12450.47
115.5200, 15476.81
116.7530, 17456.83
117.9870, 20873.44
119.2200, 23841.93
120.4530, 25540.82
121.6860, 28887.35
122.9190, 32624.21
124.1520, 36995.55
125.3850, 41302.10
126.6170, 44611.77
127.8490, 47950.44
129.0810, 49071.83
130.3130, 48323.13
131.5450, 47128.38
132.7770, 43646.60
134.0080, 39117.41
135.2390, 34230.46
136.4710, 29975.79
137.7020, 26614.70
138.9320, 24041.68
140.1630, 21873.19
141.3930, 19745.62
142.6240, 17128.32
143.8540, 14966.58
145.0840, 12792.67
146.3140, 11503.80
147.5440, 10587.59
148.7730, 10663.66
150.0020, 11127.76
151.2320, 12631.54
152.4610, 13649.81
153.6900, 15302.68
154.9180, 17191.80
156.1470, 18531.04
157.3750, 19637.78
158.6040, 20725.98
159.8320, 22072.00
161.0600, 23295.61
162.2870, 24510.27
163.5150, 26670.90
164.7420, 28660.67
165.9700, 31520.67
167.1970, 34629.06
168.4240, 36859.36
169.6510, 39790.46
170.8770, 41478.55
172.1040, 42430.95
173.3300, 41873.15
174.5560, 40341.11
175.7820, 37969.71
177.0080, 33975.20
178.2340, 29250.52
179.4590, 23723.99
180.6850, 18876.18
181.9100, 14760.05
183.1350, 11231.53
184.3600, 8927.566
185.5850, 7338.105
186.8090, 6592.113
188.0340, 6120.531
189.2580, 6041.314
190.4820, 6086.402
191.7060, 5888.754
192.9300, 6159.295
194.1530, 6230.984
195.3770, 6140.793
196.6000, 5519.627
197.8230, 4731.363
199.0460, 4413.906
200.2690, 3288.223
201.4910, 2511.314
202.7140, 1532.219
203.9360, 881.9570
205.1580, 42.54688
206.3800, 617.9883
207.6020, 713.6172
208.8240, 1112.926
210.0450, 1003.596
211.2670, 1328.412
212.4880, 1291.408
213.7090, 1283.014
214.9300, 1177.303
216.1510, 873.2871
217.3710, 751.9355
218.5920, 587.9395
219.8120, 557.2617
221.0320, 346.7090
222.2520, 78.22266
223.4720, 609.6953
224.6910, 1000.506
225.9110, 1911.125
227.1300, 2912.387
228.3490, 3635.738
229.5680, 4483.111
230.7870, 5368.367
232.0050, 6856.973
233.2240, 7600.785
234.4420, 8476.520
235.6600, 9138.334
236.8780, 9483.818
238.0960, 9749.271
239.3140, 9252.121
240.5310, 8705.584
241.7490, 7548.746
242.9660, 6684.238
244.1830, 5674.449
245.4000, 4451.234
246.6160, 3442.889
247.8330, 2730.072
249.0490, 2282.895
250.2660, 1963.330
251.4820, 1618.979
252.6980, 1228.715
253.9130, 1354.633
255.1290, 1501.416
256.3440, 1687.055
257.5600, 1576.066
258.7750, 1636.953
259.9900, 1754.867
261.2040, 2265.158
262.4190, 2365.777
263.6330, 2945.545
264.8480, 3516.105
266.0620, 3998.023
267.2760, 4571.250
268.4900, 5221.359
269.7030, 5744.830
270.9170, 6286.244
272.1300, 7080.357
273.3430, 8135.479
274.5560, 8686.375
275.7690, 9619.965
276.9820, 10358.28
278.1940, 11415.25
279.4070, 12539.40
280.6190, 13495.35
281.8310, 14203.30
283.0430, 15038.86
284.2550, 15536.17
285.4660, 16244.75
286.6770, 17299.64
287.8890, 17225.67
289.1000, 17860.86
290.3110, 18017.57
291.5210, 18156.78
292.7320, 18350.61
293.9420, 18824.09
295.1530, 18423.00
296.3630, 18442.29
297.5730, 18117.21
298.7830, 17550.54
299.9920, 17105.21
301.2020, 16270.66
302.4110, 15246.42
303.6200, 14092.81
304.8290, 12919.68
306.0380, 11791.37
307.2470, 10486.01
308.4550, 9218.469
309.6630, 8274.301
310.8720, 7022.510
312.0800, 6199.854
313.2880, 5278.906
314.4950, 4741.391
315.7030, 3988.396
316.9100, 3419.990
318.1170, 3195.766
319.3240, 2809.158
320.5310, 2664.422
321.7380, 2304.150
322.9450, 2241.711
324.1510, 2203.254
325.3570, 2018.164
326.5630, 1887.143
327.7690, 1924.559
328.9750, 1772.980
330.1810, 1806.479
331.3860, 1638.865
332.5910, 1445.943
333.7960, 1755.719
335.0010, 1617.049
336.2060, 1712.867
337.4110, 1732.420
338.6150, 1626.398
339.8200, 1687.428
341.0240, 1778.219
342.2280, 1761.221
343.4320, 1754.521
344.6350, 1768.262
345.8390, 1842.689
347.0420, 1848.461
348.2450, 2087.928
349.4480, 2033.248
350.6510, 2299.691
351.8540, 2889.070
353.0560, 2977.852
354.2590, 3124.457
355.4610, 3299.900
356.6630, 3396.148
357.8650, 3382.869
359.0670, 3647.580
360.2680, 3865.346
361.4700, 4010.137
362.6710, 3838.482
363.8720, 3492.242
365.0730, 3286.051
366.2740, 2615.180
367.4740, 2228.941
368.6750, 1734.746
369.8750, 1368.148
371.0750, 1002.783
372.2750, 701.2383
373.4750, 456.5977
374.6740, 377.9004
375.8740, 249.1152
377.0730, 384.2461
378.2720, 263.2832
379.4710, 353.2051
380.6700, 248.0020
381.8690, 377.6680
383.0670, 312.3359
384.2660, 225.6914
385.4640, 254.8086
386.6620, 41.77734
387.8600, 39.51367
389.0570, 25.03711
390.2550, 50.32422
391.4520, 85.62500
392.6490, 83.13281
393.8460, 180.9023
395.0430, 196.0430
396.2400, 219.4492
397.4370, 66.35156
398.6330, 230.9785
399.8290, 244.9824
401.0250, 57.53906
402.2210, 321.1250
403.4170, 243.7422
404.6130, 315.5547
405.8080, 395.2031
407.0030, 276.9785
408.1980, 242.3477
409.3930, 367.4570
410.5880, 404.3184
411.7830, 249.9277
412.9770, 341.2852
414.1720, 422.3945
415.3660, 302.2598
416.5600, 349.8809
417.7530, 224.2617
418.9470, 370.4023
420.1410, 69.30859
421.3340, 33.97656
422.5270, 266.3965
423.7200, 180.5879
424.9130, 66.54688
426.1060, 258.2695
427.2980, 436.7676
428.4900, 259.0410
429.6830, 552.0957
430.8750, 411.9375
432.0670, 751.5645
433.2580, 1002.527
434.4500, 1239.211
435.6410, 1749.264
436.8320, 1871.117
438.0240, 2396.783
439.2140, 2578.264
440.4050, 3035.566
441.5960, 3393.701
442.7860, 3508.676
443.9760, 3267.502
445.1670, 3085.189
446.3560, 2657.748
447.5460, 2174.180
448.7360, 1811.486
449.9250, 1356.668
451.1150, 728.7266
452.3040, 619.6562
453.4930, 269.4473
454.6810, 456.0918
455.8700, 264.5938
457.0590, 139.9492
458.2470, 230.1484
459.4350, 23.79688
460.6230, 230.0879
461.8110, 86.17773
462.9980, 23.36719
464.1860, 79.24414
465.3730, 207.2383
466.5600, 151.7363
467.7470, 201.5977
468.9340, 139.5293
470.1210, 116.0078
471.3080, 1.429688
472.4940, 47.89844
473.6800, 241.2305
474.8660, 223.5254
476.0520, 121.8789
477.2380, 199.1172
478.4230, 84.16406
479.6090, 114.0312
480.7940, 38.80859
481.9790, 275.2305
483.1640, 76.19141
484.3490, 113.9023
485.5330, 1.367188
486.7180, 40.01562
487.9020, 178.6602
489.0860, 203.7676
490.2700, 317.1152
491.4540, 176.3867
492.6370, 178.3926
493.8210, 102.3965
495.0040, 132.7930
496.1870, 444.9492
497.3700, 339.8145
498.5530, 420.4980
499.7360, 737.6641
500.9180, 763.0039
502.1000, 674.4336
503.2830, 729.2676
504.4650, 811.8281
505.6460, 1032.234
506.8280, 1057.668
508.0100, 1232.416
509.1910, 1218.520
510.3720, 1511.031
511.5530, 1614.502
512.7340, 1898.691
513.9150, 2069.354
515.0950, 2176.070
516.2760, 2271.160
517.4560, 2925.463
518.6360, 3179.102
519.8160, 3363.459
520.9950, 3751.570
522.1750, 3857.785
523.3540, 4271.973
524.5340, 4659.621
525.7130, 4815.895
526.8920, 5096.711
528.0700, 5188.559
529.2490, 5648.734
530.4270, 5710.834
531.6060, 5756.729
532.7840, 5910.811
533.9620, 5924.100
535.1390, 5969.326
536.3170, 6096.297
537.4940, 5852.268
538.6720, 6090.273
539.8490, 6003.109
541.0260, 6049.027
542.2030, 6259.957
543.3790, 6447.252
544.5560, 6830.357
545.7320, 7151.059
546.9080, 7665.982
548.0840, 8170.148
549.2600, 8862.736
550.4360, 9641.797
551.6110, 10477.37
552.7860, 11482.73
553.9620, 12459.00
555.1370, 13557.50
556.3110, 14742.38
557.4860, 15522.46
558.6610, 16616.43
559.8350, 17632.29
561.0090, 18207.41
562.1830, 18639.89
563.3570, 18772.72
564.5310, 18595.84
565.7040, 17917.84
566.8780, 17269.22
568.0510, 16294.41
569.2240, 15286.25
570.3970, 14143.29
571.5700, 13667.46
572.7420, 12756.99
573.9150, 12232.86
575.0870, 11511.71
576.2590, 11025.59
577.4310, 10750.37
578.6030, 10193.05
579.7740, 9721.643
580.9460, 9263.139
582.1170, 8733.889
583.2880, 8413.850
584.4590, 7727.064
585.6300, 7100.184
586.8010, 6585.213
587.9710, 6189.148
589.1410, 5720.994
590.3110, 5364.746
591.4810, 4844.406
592.6510, 4693.102
593.8210, 4210.273
594.9900, 4309.914
596.1600, 4108.273
597.3290, 3978.770
598.4980, 3989.680
599.6670, 3636.902
600.8350, 3742.371
602.0040, 3516.473
603.1720, 3461.701
604.3400, 3406.812
605.5080, 3307.219
606.6760, 3207.555
607.8440, 3217.709
609.0120, 3179.301
610.1790, 3082.633
611.3460, 2808.332
612.5130, 2625.820
613.6800, 2632.033
614.8470, 2514.152
616.0130, 2448.367
617.1800, 2250.680
618.3460, 2414.227
619.5120, 2319.066
620.6780, 2268.961
621.8440, 2332.211
623.0090, 2080.199
624.1750, 2103.207
625.3400, 2145.779
626.5050, 1905.840
627.6700, 1744.246
628.8350, 1323.746
629.9990, 994.7812
631.1640, 975.2617
632.3280, 772.1211
633.4920, 545.9609
634.6560, 405.4355
635.8200, 50.98438
636.9840, 42.73047
638.1470, 143.0859
639.3100, 127.8281
640.4730, 139.5449
641.6360, 150.0703
642.7990, 182.0762
643.9620, 77.19141
645.1240, 229.7480
646.2870, 235.5781
647.4490, 171.5488
648.6110, 326.9902
649.7730, 109.4590
650.9340, 61.60938
652.0960, 313.3477
653.2570, 152.1602
654.4180, 207.0488
655.5790, 25.94336
656.7400, 172.8379
657.9010, 175.6914
659.0620, 360.3828
660.2220, 511.8105
661.3820, 554.2754
662.5420, 690.4824
663.7020, 853.0469
664.8620, 886.7383
666.0210, 1212.459
667.1810, 1265.840
668.3400, 1453.289
669.4990, 1796.506
670.6580, 1867.791
671.8170, 2164.566
672.9750, 2616.729
674.1340, 2850.977
675.2920, 2778.982
676.4500, 2989.156
677.6080, 2929.248
678.7660, 2841.055
679.9230, 2815.291
681.0810, 2335.395
682.2380, 2128.443
683.3950, 1944.547
684.5520, 1569.084
685.7090, 1515.568
686.8660, 1244.994
688.0220, 899.3594
689.1780, 977.6699
690.3340, 846.9219
691.4900, 654.1191
692.6460, 619.2578
693.8020, 628.3398
694.9570, 595.3652
696.1130, 680.3340
697.2680, 452.2500
698.4230, 568.1035
699.5780, 822.9062
700.7320, 425.6562
701.8870, 491.3516
703.0410, 455.0020
704.1950, 825.5938
705.3490, 775.1426
706.5030, 601.6445
707.6570, 1022.100
708.8110, 691.5059
709.9640, 982.8652
711.1170, 1023.174
712.2700, 1035.436
713.4230, 1098.643
714.5760, 1157.795
715.7280, 1258.887
716.8810, 1411.928
718.0330, 1260.912
719.1850, 1421.838
720.3370, 1240.715
721.4890, 1255.531
722.6400, 1139.301
723.7920, 1127.012
724.9430, 1084.674
726.0940, 910.2852
727.2450, 1120.842
728.3960, 1362.352
729.5460, 1022.811
730.6970, 944.2168
731.8470, 1065.582
732.9970, 968.9023
734.1470, 1031.188
735.2970, 1252.434
736.4460, 1225.645
737.5960, 1182.826
738.7450, 1433.973
739.8940, 1527.096
741.0430, 1487.188
742.1920, 1564.268
743.3410, 1686.320
744.4890, 1666.609
745.6370, 1656.420
746.7850, 1634.479
747.9330, 1617.559
749.0810, 1427.605
750.2290, 1483.652
751.3760, 1258.680
752.5240, 1334.688
753.6710, 1058.727
754.8180, 1017.785
755.9650, 758.8457
757.1110, 751.9219
758.2580, 921.9902
759.4040, 877.0352
760.5510, 859.0684
761.6970, 888.1367
762.8420, 1022.199
763.9880, 835.2617
765.1340, 851.3047
766.2790, 639.3301
767.4240, 787.3672
768.5690, 691.3848
769.7140, 734.3770
770.8590, 684.3477
772.0030, 640.3145
773.1480, 441.1973
774.2920, 554.4629
775.4360, 518.2363
776.5800, 474.4727
777.7240, 514.5977
778.8670, 268.9121
780.0110, 161.4980
781.1540, 209.0137
782.2970, 184.0586
783.4400, 157.4785
784.5830, 98.49023
785.7250, 29.48242
786.8680, 9.195313
788.0100, 12.90234
789.1520, 17.17969
790.2940, 1.095703
791.4360, 85.09766
792.5780, 27.32422
793.7190, 32.26367
794.8600, 13.86914
796.0010, 109.4629
797.1420, 31.34961
798.2830, 54.61523
799.4240, 196.7285
800.5640, 117.4160
801.7050, 1.156250
802.8450, 69.90234
803.9850, 65.67969
805.1250, 125.4902
806.2640, 160.3535
807.4040, 127.2891
808.5430, 175.2168
809.6820, 3.660156
810.8210, 188.4043
811.9600, 54.54688
813.0990, 7.707031
814.2370, 120.8691
815.3760, 65.92773
816.5140, 69.27344
817.6520, 147.4902
818.7900, 46.75781
819.9270, 50.03516
821.0650, 155.6836
822.2020, 215.4121
823.3390, 216.1504
824.4760, 154.9062
825.6130, 534.6719
826.7500, 357.4492
827.8870, 572.2500
829.0230, 468.0508
830.1590, 643.7363
831.2950, 696.5156
832.4310, 600.2305
833.5670, 850.1953
834.7030, 749.4414
835.8380, 784.2441
836.9730, 1094.373
838.1080, 1149.725
839.2430, 1102.406
840.3780, 1504.990
841.5130, 1326.268
842.6470, 1278.578
843.7810, 1612.924
844.9150, 1909.314
846.0490, 1861.742
847.1830, 2074.264
848.3170, 2387.832
849.4500, 2391.422
850.5830, 2896.072
851.7160, 3114.744
852.8490, 3171.449
853.9820, 3529.189
855.1150, 3895.953
856.2470, 3935.736
857.3800, 4253.545
858.5120, 4744.377
859.6440, 5287.238
860.7760, 5808.125
861.9070, 6444.039
863.0390, 7100.980
864.1700, 7722.947
865.3010, 8384.941
866.4320, 9688.961
867.5630, 10594.01
868.6940, 12051.10
869.8240, 13404.25
870.9540, 15121.46
872.0850, 17044.70
873.2150, 19709.99
874.3450, 22677.32
875.4740, 26260.67
876.6040, 30494.10
877.7330, 35552.56
878.8620, 42157.09
879.9910, 50121.65
881.1200, 59383.25
882.2490, 70598.90
883.3770, 83147.57
884.5060, 98101.27
885.6340, 113006.0
886.7620, 129104.8
887.8900, 144269.6
889.0180, 158348.4
890.1450, 167974.3
891.2730, 173795.3
892.4000, 175003.2
893.5270, 173047.2
894.6540, 167258.3
895.7810, 159235.4
896.9070, 148169.5
898.0340, 135759.6
899.1600, 123658.8
900.2860, 111477.0
901.4120, 100269.3
902.5380, 90002.59
903.6630, 80351.92
904.7890, 71604.27
905.9140, 64420.66
907.0390, 57452.09
908.1640, 51791.56
909.2890, 46788.07
910.4130, 42091.65
911.5380, 37923.29
912.6620, 34275.04
913.7860, 31644.90
914.9100, 28940.87
916.0340, 26574.63
917.1580, 24067.80
918.2810, 22207.03
919.4040, 20370.38
920.5280, 18801.73
921.6510, 17072.42
922.7730, 16071.96
923.8960, 14913.06
925.0180, 14064.64
926.1410, 13427.13
927.2630, 12604.48
928.3850, 11814.11
929.5070, 11441.66
930.6280, 11023.23
931.7500, 10642.92
932.8710, 10397.85
933.9920, 10247.70
935.1130, 9886.793
936.2340, 9825.508
937.3550, 10263.07
938.4760, 10031.58
939.5960, 9976.410
940.7160, 9881.148
941.8360, 9875.107
942.9560, 9359.992
944.0760, 9013.375
945.1950, 8362.359
946.3150, 7509.244
947.4340, 6955.361
948.5530, 6361.297
949.6720, 5961.297
950.7900, 5280.564
951.9090, 4994.396
953.0270, 4580.350
954.1460, 3884.371
955.2640, 3835.387
956.3820, 3446.877
957.4990, 3417.408
958.6170, 3126.668
959.7340, 3145.291
960.8520, 2874.992
961.9690, 2576.098
963.0860, 2667.270
964.2020, 2677.115
965.3190, 2601.262
966.4350, 2798.789
967.5520, 2402.789
968.6680, 2608.863
969.7840, 2610.871
970.8990, 2899.568
972.0150, 2768.830
973.1310, 2760.268
974.2460, 2749.912
975.3610, 2648.273
976.4760, 2815.477
977.5910, 2527.762
978.7050, 2651.492
979.8200, 2479.238
980.9340, 2465.867
982.0480, 2492.406
983.1620, 2162.869
984.2760, 2479.078
985.3900, 2839.607
986.5030, 2460.156
987.6160, 2632.764
988.7300, 2654.395
989.8430, 2638.082
990.9550, 2764.779
992.0680, 2766.188
993.1810, 2740.406
994.2930, 2881.199
995.4050, 2940.316
996.5170, 3054.547
997.6290, 3110.668
998.7410, 3203.625
999.8520, 3601.092
1000.964, 3931.248
1002.075, 3790.045
1003.186, 4351.750
1004.297, 4471.086
1005.407, 4623.857
1006.518, 5122.785
1007.628, 5622.354
1008.738, 5928.564
1009.848, 6598.346
1010.958, 6972.711
1012.068, 7814.246
1013.178, 8149.828
1014.287, 8671.188
1015.396, 9120.492
1016.505, 9428.430
1017.614, 9703.184
1018.723, 9792.668
1019.831, 9706.096
1020.940, 9677.016
1022.048, 9224.230
1023.156, 8861.217
1024.264, 8483.199
1025.372, 7742.160
1026.479, 7282.289
1027.587, 6523.875
1028.694, 5963.027
1029.801, 5381.531
1030.908, 5079.953
1032.015, 4766.191
1033.121, 4199.871
1034.228, 3745.734
1035.334, 3806.611
1036.440, 3689.877
1037.546, 3494.189
1038.652, 3448.678
1039.758, 3120.914
1040.863, 3132.531
1041.968, 2909.088
1043.074, 2919.604
1044.178, 2570.773
1045.283, 2702.209
1046.388, 2413.236
1047.492, 2434.340
1048.597, 2153.393
1049.701, 2101.455
1050.805, 1861.531
1051.909, 1709.617
1053.012, 1684.711
1054.116, 1310.816
1055.219, 1444.062
1056.322, 1283.285
1057.425, 1209.527
1058.528, 1189.932
1059.631, 1081.686
1060.733, 1042.617
1061.836, 963.9141
1062.938, 862.2266
1064.040, 821.5527
1065.142, 756.9336
1066.243, 711.6426
1067.345, 679.0371
1068.446, 567.4805
1069.547, 547.9551
1070.648, 497.5215
1071.749, 510.9238
1072.850, 413.4316
1073.951, 483.9961
1075.051, 420.5879
1076.151, 324.2539
1077.251, 278.0000
1078.351, 346.7422
1079.451, 375.5254
1080.550, 290.3145
1081.650, 436.1035
1082.749, 187.9082
1083.848, 225.7070
1084.947, 330.5137
1086.046, 4.345703
1087.144, 37.82227
1088.243, 68.99414
1089.341, 97.80469
1090.439, 24.39258
1091.537, 12.54883
1092.635, 3.953125
1093.732, 55.07617
1094.830, 12.35352
1095.927, 4.351563
1097.024, 99.95898
1098.121, 167.3320
1099.218, 92.80469
1100.314, 155.3398
1101.411, 151.9707
1102.507, 144.6953
1103.603, 151.5137
1104.699, 55.42969
1105.795, 73.54102
1106.890, 14.58398
1107.986, 45.33594
1109.081, 77.43555
1110.176, 66.58594
1111.271, 48.80078
1112.366, 268.0684
1113.461, 89.50000
1114.555, 192.9922
1115.649, 128.2383
1116.744, 284.1348
1117.838, 34.51367
1118.931, 16.96875
1120.025, 201.2910
1121.119, 93.15430
1122.212, 304.3711
1123.305, 183.0215
1124.398, 3.492188
1125.491, 191.6270
1126.584, 46.87500
1127.676, 30.96094
1128.768, 67.14453
1129.861, 117.6230
1130.953, 28.45508
1132.044, 92.21875
1133.136, 2.033203
1134.228, 106.4160
1135.319, 66.97070
1136.410, 31.60938
1137.501, 9.382813
1138.592, 17.89258
1139.683, 164.9785
1140.773, 81.15820
1141.864, 41.16016
1142.954, 24.67578
1144.044, 73.49609
1145.134, 179.7500
1146.224, 39.01758
1147.313, 69.16016
1148.402, 119.0488
1149.492, 106.5449
1150.581, 27.94531
1151.670, 38.75586
1152.758, 18.89258
1153.847, 140.3242
1154.935, 54.21289
1156.024, 57.42578
1157.112, 131.6211
1158.200, 80.54688
1159.287, 141.1328
1160.375, 91.86719
1161.462, 101.2793
1162.550, 143.1113
1163.637, 25.25000
1164.724, 247.4902
1165.810, 317.5117
1166.897, 165.0938
1167.983, 160.6621
1169.070, 125.4961
1170.156, 191.7500
1171.242, 118.0488
1172.327, 127.6152
1173.413, 142.7363
1174.499, 232.2148
1175.584, 174.2480
1176.669, 446.2402
1177.754, 263.7461
1178.839, 337.7715
1179.923, 390.2227
1181.008, 300.0527
1182.092, 310.4297
1183.176, 457.4141
1184.260, 375.5547
1185.344, 300.8105
1186.428, 571.1133
1187.511, 421.7168
1188.595, 419.3730
1189.678, 260.4336
1190.761, 329.3418
1191.843, 350.2070
1192.926, 521.4316
1194.009, 358.7812
1195.091, 549.2246
1196.173, 257.6270
1197.255, 375.2812
1198.337, 548.9922
1199.419, 416.4219
1200.500, 497.8867
1201.582, 451.2949
1202.663, 536.7031
1203.744, 355.8750
1204.825, 531.9453
1205.905, 695.3379
1206.986, 402.8672
1208.066, 495.7188
1209.146, 767.7500
1210.226, 464.6562
1211.306, 467.1914
1212.386, 605.7520
1213.466, 563.1836
1214.545, 431.0254
1215.624, 496.7617
1216.703, 576.0059
1217.782, 517.1562
1218.861, 632.3262
1219.939, 658.1777
1221.018, 458.6914
1222.096, 581.7031
1223.174, 748.7910
1224.252, 582.3008
1225.330, 625.7363
1226.407, 524.4883
1227.485, 636.9297
1228.562, 571.9805
1229.639, 602.5469
1230.716, 698.0312
1231.793, 465.5742
1232.869, 532.4180
1233.946, 639.6875
1235.022, 467.7715
1236.098, 586.6406
1237.174, 334.7832
1238.250, 437.0723
1239.325, 555.2676
1240.401, 374.0039
1241.476, 562.7109
1242.551, 476.5273
1243.626, 353.4180
1244.701, 263.3711
1245.776, 528.5645
1246.850, 441.4219
1247.924, 269.2500
1248.999, 439.0059
1250.073, 177.7246
1251.146, 551.3672
1252.220, 219.9883
1253.293, 258.5586
1254.367, 391.9453
1255.440, 298.4219
1256.513, 388.5566
1257.586, 301.5586
1258.658, 225.6582
1259.731, 151.9043
1260.803, 156.6191
1261.875, 147.9727
1262.947, 178.9727
1264.019, 172.3848
1265.091, 136.1504
1266.162, 95.45898
1267.234, 104.5859
1268.305, 20.05078
1269.376, 39.66992
1270.447, 180.0332
1271.517, 73.62109
1272.588, 188.0098
1273.658, 298.3359
1274.729, 286.8672
1275.799, 38.56836
1276.868, 130.3184
1277.938, 220.6348
1279.008, 26.09570
1280.077, 124.1621
1281.146, 156.5605
1282.215, 270.9746
1283.284, 97.59180
1284.353, 202.1914
1285.421, 194.7852
1286.490, 108.1914
1287.558, 251.1133
1288.626, 275.4434
1289.694, 119.4004
1290.762, 231.4180
1291.829, 148.5898
1292.897, 120.2969
1293.964, 149.7930
1295.031, 246.2500
1296.098, 239.2930
1297.165, 165.2656
1298.231, 294.0371
1299.298, 272.0352
1300.364, 197.6289
1301.430, 368.2578
1302.496, 196.8984
1303.562, 346.8613
1304.627, 515.5332
1305.693, 159.5898
1306.758, 264.5371
1307.823, 152.5117
1308.888, 322.4453
1309.953, 150.3438
1311.018, 233.2031
1312.082, 186.0234
1313.146, 247.1973
1314.210, 6.089844
1315.274, 24.86719
1316.338, 258.3457
1317.402, 9.212891
1318.465, 174.8848
1319.529, 85.22266
1320.592, 210.5156
1321.655, 82.76758
1322.718, 14.97461
1323.780, 70.12500
1324.843, 165.8828
1325.905, 139.9512
1326.967, 194.9785
1328.029, 174.9062
1329.091, 175.7812
1330.153, 163.5762
1331.214, 25.66602
1332.275, 60.02930
1333.337, 127.3105
1334.398, 130.7266
1335.458, 232.7715
1336.519, 176.2344
1337.580, 192.6602
1338.640, 284.0547
1339.700, 248.4121
1340.760, 309.7383
1341.820, 154.0332
1342.880, 165.2891
1343.939, 284.5137
1344.999, 278.7051
1346.058, 349.8730
1347.117, 95.00586
1348.176, 226.1016
1349.235, 302.1719
1350.293, 215.2109
1351.351, 344.2188
1352.410, 309.5156
1353.468, 470.4844
1354.526, 562.0625
1355.583, 587.9766
1356.641, 351.6523
1357.698, 453.9590
1358.756, 420.5781
1359.813, 381.6348
1360.869, 531.6152
1361.926, 333.4609
1362.983, 480.4668
1364.039, 489.6660
1365.095, 561.7852
1366.152, 497.4629
1367.207, 475.2852
1368.263, 589.7129
1369.319, 628.4883
1370.374, 548.4531
1371.430, 624.7715
1372.485, 421.4746
1373.540, 463.4961
1374.594, 611.9902
1375.649, 538.5215
1376.703, 617.1758
1377.758, 637.3438
1378.812, 395.1602
1379.866, 609.7559
1380.920, 626.7324
1381.973, 440.9297
1383.027, 640.1172
1384.080, 482.2559
1385.133, 451.7266
1386.186, 516.7832
1387.239, 481.7578
1388.291, 566.2520
1389.344, 390.9766
1390.396, 306.9121
1391.448, 375.8672
1392.500, 513.6152
1393.552, 379.8828
1394.604, 376.2832
1395.655, 592.8965
1396.707, 424.1426
1397.758, 500.1738
1398.809, 284.2969
1399.860, 575.0332
1400.910, 550.6133
1401.961, 689.1641
1403.011, 517.7500
1404.061, 434.5449
1405.111, 454.6816
1406.161, 453.8711
1407.211, 431.5918
1408.260, 666.5117
1409.310, 476.9180
1410.359, 407.4004
1411.408, 553.5059
1412.457, 442.5664
1413.506, 695.1367
1414.554, 569.4199
1415.603, 588.7969
1416.651, 596.4453
1417.699, 632.6309
1418.747, 600.4590
1419.794, 682.1230
1420.842, 565.9668
1421.889, 436.2070
1422.937, 585.4141
1423.984, 613.3145
1425.031, 616.7344
1426.077, 736.0625
1427.124, 468.0781
1428.170, 595.5000
1429.217, 511.5176
1430.263, 515.9375
1431.309, 504.3594
1432.354, 632.2305
1433.400, 577.5449
1434.445, 574.7227
1435.491, 571.3906
1436.536, 459.3477
1437.581, 292.5000
1438.625, 553.2969
1439.670, 680.3418
1440.714, 713.8945
1441.759, 312.5137
1442.803, 475.9258
1443.847, 409.7188
1444.890, 337.3418
1445.934, 579.0234
1446.978, 240.9941
1448.021, 477.3203
1449.064, 482.3828
1450.107, 594.8027
1451.150, 479.8848
1452.192, 435.0898
1453.235, 613.0957
1454.277, 648.1973
1455.319, 506.9258
1456.361, 626.3320
1457.403, 280.6074
1458.445, 342.3418
1459.486, 581.1973
1460.528, 451.0039
1461.569, 574.6172
1462.610, 601.7500
1463.651, 190.8203
1464.691, 541.9648
1465.732, 563.5137
1466.772, 246.6191
1467.812, 571.5801
1468.852, 301.2871
1469.892, 243.4395
1470.932, 345.4473
1471.971, 280.7363
1473.011, 478.8008
1474.050, 423.6621
1475.089, 345.8730
1476.128, 366.7793
1477.166, 107.9238
1478.205, 367.9941
1479.243, 273.5449
1480.282, 355.2910
1481.320, 476.9531
1482.357, 292.7930
1483.395, 432.3750
1484.433, 69.91992
1485.470, 127.5645
1486.507, 139.9629
1487.544, 420.8477
1488.581, 137.6953
1489.618, 134.4570
1490.655, 133.2246
1491.691, 229.9824
1492.727, 194.7266
1493.763, 148.4668
1494.799, 223.1875
1495.835, 19.89844
1496.871, 202.6035
1497.906, 55.28906
1498.941, 32.04297
1499.976, 146.6035
1501.011, 212.2266
1502.046, 97.82227
1503.081, 145.3984
1504.115, 190.9414
1505.149, 185.4570
1506.183, 95.09570
1507.217, 270.9023
1508.251, 149.7188
1509.285, 122.5527
1510.318, 302.3945
1511.352, 14.71289
1512.385, 264.1875
1513.418, 94.38086
1514.450, 255.7852
1515.483, 175.2148
1516.516, 205.6660
1517.548, 281.1387
1518.580, 245.6309
1519.612, 231.1367
1520.644, 64.66406
1521.675, 105.2129
1522.707, 146.7891
1523.738, 27.60742
1524.769, 81.03320
1525.800, 9.710938
1526.831, 65.43359
1527.862, 124.2051
1528.892, 226.0234
1529.923, 187.8965
1530.953, 189.8262
1531.983, 130.8047
1533.013, 178.8379
1534.042, 28.68555
1535.072, 238.8359
1536.101, 297.2949
1537.131, 99.51758
1538.160, 81.82812
1539.188, 263.2324
1540.217, 266.7305
1541.246, 150.3262
1542.274, 190.6992
1543.302, 120.3008
1544.330, 143.2617
1545.358, 58.34375
1546.386, 75.35938
1547.413, 114.2500
1548.441, 142.9551
1549.468, 206.8984
1550.495, 215.1367
1551.522, 424.4785
1552.549, 506.9316
1553.575, 732.5137
1554.602, 517.3984
1555.628, 211.4355
1556.654, 176.6309
1557.680, 2.904297
1558.706, 5.753906
1559.731, 29.61914
1560.757, 50.89648
1561.782, 209.9258
1562.807, 150.2051
1563.832, 135.9727
1564.857, 7.703125
1565.881, 125.0234
1566.906, 258.9805
1567.930, 181.5977
1568.954, 111.2500
1569.978, 47.91992
1571.002, 0.0000000E+00
##END=



