##NAMES=Helvine
##RRUFFID=R060059
##IDEAL CHEMISTRY=Mn^2+^_4_(BeSiO_4_)_3_S^2-^
##LOCALITY=Schwarzenberg, Saxony, Germany
##OWNER=RRUFF
##SOURCE=University of Arizona Mineral Museum
##DESCRIPTION=Yellow-tan colored tetrahedra
##STATUS=The identification of this mineral has been confirmed by X-ray diffraction and chemical analysis
##URL=rruff.info/R060059
##MEASURED CHEMISTRY=(Mn^2+^_2.93_Fe^2+^_0.48_Zn_0.35_Ca_0.15_Fe^3+^_0.09_)_Σ=4_Be_3.00_((Si_0.97_Al_0.03_)_Σ=1_O_4_)_3_S_1.00_; BeO assumed by stoichiometry
##PIN_ID=M00669
##ORIENTATION=Laser parallel to -a* (-1 0 0). Fiducial mark perpendicular to laser is parallel to -c [0 0 -1]
83.38800, 0.0000000E+00
84.62600, 121.7246
85.86300, 500.1758
87.10100, 170.6719
88.33800, 93.26562
89.57500, 129.6406
90.81200, 566.0391
92.04900, 718.2441
93.28600, 499.6309
94.52300, 678.4688
95.75900, 528.7227
96.99500, 554.7598
98.23100, 896.4551
99.46700, 1621.533
100.7030, 2279.461
101.9390, 2955.125
103.1740, 4219.871
104.4090, 4961.467
105.6440, 5452.363
106.8790, 5686.506
108.1140, 5472.078
109.3490, 5422.496
110.5830, 5869.316
111.8180, 6206.230
113.0520, 7127.992
114.2860, 8910.738
115.5200, 9118.957
116.7530, 10362.15
117.9870, 11263.45
119.2200, 12133.36
120.4530, 12584.62
121.6860, 13723.25
122.9190, 14320.88
124.1520, 15795.90
125.3850, 17173.10
126.6170, 18380.10
127.8490, 18944.35
129.0810, 19206.04
130.3130, 19343.10
131.5450, 18422.73
132.7770, 16989.13
134.0080, 14980.48
135.2390, 13858.92
136.4710, 12667.60
137.7020, 11716.63
138.9320, 11209.12
140.1630, 10329.15
141.3930, 9919.805
142.6240, 9367.156
143.8540, 8946.275
145.0840, 8629.941
146.3140, 8784.859
147.5440, 9319.684
148.7730, 10148.95
150.0020, 11063.13
151.2320, 12146.52
152.4610, 13280.77
153.6900, 14642.99
154.9180, 15993.02
156.1470, 17608.25
157.3750, 19232.08
158.6040, 21052.40
159.8320, 23226.12
161.0600, 26257.26
162.2870, 29777.88
163.5150, 33838.99
164.7420, 39026.57
165.9700, 45390.61
167.1970, 52497.05
168.4240, 60037.59
169.6510, 68099.14
170.8770, 75127.46
172.1040, 80087.10
173.3300, 83038.99
174.5560, 82628.79
175.7820, 78503.95
177.0080, 70954.32
178.2340, 61670.88
179.4590, 50525.59
180.6850, 39592.45
181.9100, 31023.42
183.1350, 23969.47
184.3600, 18842.62
185.5850, 15512.80
186.8090, 13243.02
188.0340, 11691.27
189.2580, 10818.52
190.4820, 10313.71
191.7060, 9692.785
192.9300, 9538.699
194.1530, 9685.457
195.3770, 8991.061
196.6000, 7957.508
197.8230, 6941.803
199.0460, 5838.947
200.2690, 4955.945
201.4910, 3653.809
202.7140, 3043.553
203.9360, 2081.938
205.1580, 1165.070
206.3800, 664.3301
207.6020, 97.62500
208.8240, 193.3809
210.0450, 282.2676
211.2670, 428.4746
212.4880, 654.6191
213.7090, 1115.322
214.9300, 794.9668
216.1510, 857.4883
217.3710, 430.8730
218.5920, 731.4902
219.8120, 691.4062
221.0320, 399.9961
222.2520, 302.6680
223.4720, 128.3984
224.6910, 100.5117
225.9110, 404.7520
227.1300, 709.4570
228.3490, 1206.783
229.5680, 1614.750
230.7870, 2172.102
232.0050, 2680.094
233.2240, 3252.430
234.4420, 3508.600
235.6600, 3966.594
236.8780, 4294.229
238.0960, 4624.711
239.3140, 4538.598
240.5310, 4815.840
241.7490, 4502.906
242.9660, 4375.637
244.1830, 3991.414
245.4000, 3799.455
246.6160, 3290.035
247.8330, 2722.469
249.0490, 2311.902
250.2660, 1804.777
251.4820, 1323.197
252.6980, 1093.033
253.9130, 1031.785
255.1290, 1014.154
256.3440, 1290.744
257.5600, 969.7617
258.7750, 1100.160
259.9900, 776.8691
261.2040, 1092.287
262.4190, 1160.275
263.6330, 1306.520
264.8480, 1674.703
266.0620, 1851.873
267.2760, 2232.244
268.4900, 2501.986
269.7030, 2724.658
270.9170, 3138.947
272.1300, 3441.740
273.3430, 3872.975
274.5560, 4279.926
275.7690, 4719.461
276.9820, 4977.383
278.1940, 5486.871
279.4070, 5516.898
280.6190, 6049.598
281.8310, 6473.598
283.0430, 6680.920
284.2550, 7139.457
285.4660, 7184.777
286.6770, 7632.887
287.8890, 7799.793
289.1000, 7887.500
290.3110, 8183.010
291.5210, 8185.262
292.7320, 8174.803
293.9420, 8535.293
295.1530, 8566.145
296.3630, 8952.492
297.5730, 9159.660
298.7830, 9615.734
299.9920, 10049.11
301.2020, 10551.23
302.4110, 10929.25
303.6200, 11126.22
304.8290, 10997.12
306.0380, 10819.98
307.2470, 10317.77
308.4550, 9481.496
309.6630, 8391.156
310.8720, 7433.746
312.0800, 6493.270
313.2880, 5554.717
314.4950, 4776.068
315.7030, 4407.746
316.9100, 3685.262
318.1170, 3154.125
319.3240, 2923.617
320.5310, 2478.850
321.7380, 2118.738
322.9450, 1955.535
324.1510, 1653.457
325.3570, 1499.760
326.5630, 1474.984
327.7690, 1080.000
328.9750, 1135.225
330.1810, 1009.131
331.3860, 1004.068
332.5910, 808.0527
333.7960, 934.4668
335.0010, 817.2246
336.2060, 718.4062
337.4110, 907.2305
338.6150, 742.5078
339.8200, 781.0684
341.0240, 666.8750
342.2280, 775.8340
343.4320, 715.9551
344.6350, 574.5664
345.8390, 793.8770
347.0420, 675.9629
348.2450, 686.0098
349.4480, 592.7324
350.6510, 676.8750
351.8540, 575.8320
353.0560, 627.4727
354.2590, 809.1133
355.4610, 774.6914
356.6630, 1020.473
357.8650, 1023.643
359.0670, 909.5820
360.2680, 1095.662
361.4700, 901.8867
362.6710, 812.8828
363.8720, 1011.100
365.0730, 734.9414
366.2740, 492.1426
367.4740, 310.5859
368.6750, 319.1113
369.8750, 238.2988
371.0750, 98.46680
372.2750, 118.9473
373.4750, 56.86133
374.6740, 62.18555
375.8740, 23.56641
377.0730, 54.17578
378.2720, 39.64453
379.4710, 18.96875
380.6700, 58.37695
381.8690, 150.2109
383.0670, 141.1094
384.2660, 121.8535
385.4640, 212.4414
386.6620, 1.123047
387.8600, 99.14258
389.0570, 282.2480
390.2550, 157.1973
391.4520, 184.9902
392.6490, 165.6230
393.8460, 273.0977
395.0430, 109.4180
396.2400, 211.7168
397.4370, 188.8672
398.6330, 474.5859
399.8290, 376.0645
401.0250, 466.5215
402.2210, 566.4707
403.4170, 443.8027
404.6130, 463.3750
405.8080, 507.3379
407.0030, 366.4238
408.1980, 523.9551
409.3930, 428.5000
410.5880, 523.9082
411.7830, 373.1797
412.9770, 487.3066
414.1720, 525.3027
415.3660, 327.1660
416.5600, 385.8887
417.7530, 381.4785
418.9470, 410.9336
420.1410, 490.9043
421.3340, 528.4473
422.5270, 576.5156
423.7200, 593.4590
424.9130, 462.2793
426.1060, 565.9727
427.2980, 805.5469
428.4900, 787.0039
429.6830, 1019.342
430.8750, 1275.566
432.0670, 1865.676
433.2580, 2152.672
434.4500, 2800.553
435.6410, 3397.318
436.8320, 4836.975
438.0240, 5397.377
439.2140, 6178.930
440.4050, 6899.336
441.5960, 7278.605
442.7860, 7562.789
443.9760, 7635.895
445.1670, 7144.920
446.3560, 6576.863
447.5460, 5258.729
448.7360, 4237.510
449.9250, 3104.211
451.1150, 2278.834
452.3040, 1744.373
453.4930, 1240.834
454.6810, 863.2148
455.8700, 663.5137
457.0590, 736.7344
458.2470, 505.2227
459.4350, 514.9277
460.6230, 400.8984
461.8110, 220.7832
462.9980, 258.5762
464.1860, 78.27344
465.3730, 79.12500
466.5600, 22.34961
467.7470, 12.27734
468.9340, 73.63281
470.1210, 44.43164
471.3080, 156.3789
472.4940, 201.2656
473.6800, 219.8887
474.8660, 123.7539
476.0520, 94.58398
477.2380, 58.01562
478.4230, 116.0410
479.6090, 111.8320
480.7940, 81.24023
481.9790, 3.453125
483.1640, 15.16406
484.3490, 144.7227
485.5330, 65.60547
486.7180, 87.98242
487.9020, 127.3340
489.0860, 151.2695
490.2700, 129.3535
491.4540, 7.535156
492.6370, 383.1953
493.8210, 384.5195
495.0040, 393.2578
496.1870, 259.6133
497.3700, 390.8164
498.5530, 294.6250
499.7360, 422.1562
500.9180, 596.5234
502.1000, 634.9004
503.2830, 570.9316
504.4650, 808.8770
505.6460, 1136.160
506.8280, 798.0566
508.0100, 1188.611
509.1910, 1178.174
510.3720, 1417.656
511.5530, 1562.859
512.7340, 1827.904
513.9150, 1955.352
515.0950, 2068.660
516.2760, 2282.758
517.4560, 2590.793
518.6360, 2999.793
519.8160, 3146.871
520.9950, 3434.770
522.1750, 3883.471
523.3540, 4207.113
524.5340, 4557.006
525.7130, 5098.455
526.8920, 5666.766
528.0700, 6168.406
529.2490, 6905.469
530.4270, 7265.555
531.6060, 7199.363
532.7840, 7704.594
533.9620, 7494.879
535.1390, 7636.033
536.3170, 7543.607
537.4940, 7186.467
538.6720, 6751.744
539.8490, 6597.879
541.0260, 6286.156
542.2030, 5966.973
543.3790, 5559.111
544.5560, 5685.619
545.7320, 5423.562
546.9080, 5096.547
548.0840, 5341.664
549.2600, 5695.143
550.4360, 5805.227
551.6110, 6051.857
552.7860, 6354.832
553.9620, 6648.115
555.1370, 7141.826
556.3110, 7496.641
557.4860, 8160.570
558.6610, 8645.689
559.8350, 8976.742
561.0090, 9292.988
562.1830, 9671.391
563.3570, 9899.062
564.5310, 10110.72
565.7040, 10178.39
566.8780, 10082.47
568.0510, 9972.928
569.2240, 9679.887
570.3970, 9664.785
571.5700, 9483.613
572.7420, 9229.381
573.9150, 9156.082
575.0870, 8872.721
576.2590, 8524.297
577.4310, 8453.812
578.6030, 8123.264
579.7740, 7875.652
580.9460, 7504.980
582.1170, 7269.246
583.2880, 7035.449
584.4590, 6450.590
585.6300, 5846.670
586.8010, 5675.689
587.9710, 5110.645
589.1410, 4860.543
590.3110, 4626.381
591.4810, 4239.156
592.6510, 4076.871
593.8210, 3917.725
594.9900, 3727.121
596.1600, 3732.881
597.3290, 3745.355
598.4980, 3685.771
599.6670, 3734.697
600.8350, 3448.615
602.0040, 3722.012
603.1720, 3530.609
604.3400, 3444.320
605.5080, 3784.230
606.6760, 3470.363
607.8440, 3246.953
609.0120, 3355.014
610.1790, 3270.012
611.3460, 3079.066
612.5130, 2721.770
613.6800, 2684.639
614.8470, 2641.328
616.0130, 2669.873
617.1800, 2543.861
618.3460, 2454.662
619.5120, 2325.512
620.6780, 2177.570
621.8440, 2093.031
623.0090, 2087.320
624.1750, 2012.955
625.3400, 1858.293
626.5050, 1715.629
627.6700, 1532.711
628.8350, 1283.643
629.9990, 1131.271
631.1640, 845.7930
632.3280, 470.7324
633.4920, 495.4609
634.6560, 428.0195
635.8200, 169.7734
636.9840, 120.9531
638.1470, 56.84180
639.3100, 211.9785
640.4730, 344.7617
641.6360, 166.1230
642.7990, 267.2695
643.9620, 0.7929690
645.1240, 352.2539
646.2870, 351.0664
647.4490, 84.22852
648.6110, 191.1094
649.7730, 50.29883
650.9340, 25.13867
652.0960, 237.3008
653.2570, 83.02344
654.4180, 255.7754
655.5790, 406.2988
656.7400, 397.5156
657.9010, 571.8809
659.0620, 754.1367
660.2220, 1285.365
661.3820, 1504.350
662.5420, 1637.586
663.7020, 1839.678
664.8620, 2121.352
666.0210, 2234.615
667.1810, 2734.361
668.3400, 2832.613
669.4990, 3146.982
670.6580, 3718.738
671.8170, 4398.260
672.9750, 5002.246
674.1340, 5312.223
675.2920, 5677.465
676.4500, 5980.051
677.6080, 5894.801
678.7660, 5758.141
679.9230, 5431.355
681.0810, 4730.520
682.2380, 3955.629
683.3950, 3451.689
684.5520, 2938.697
685.7090, 2490.652
686.8660, 2011.557
688.0220, 1935.408
689.1780, 1619.213
690.3340, 1211.969
691.4900, 1192.672
692.6460, 874.3262
693.8020, 831.9336
694.9570, 769.4902
696.1130, 808.0000
697.2680, 815.4629
698.4230, 703.8809
699.5780, 533.2520
700.7320, 668.5801
701.8870, 518.8594
703.0410, 814.0898
704.1950, 566.2734
705.3490, 712.4121
706.5030, 654.5039
707.6570, 936.5547
708.8110, 731.5527
709.9640, 875.5059
711.1170, 890.4102
712.2700, 880.2695
713.4230, 945.0840
714.5760, 927.3008
715.7280, 942.5723
716.8810, 902.2520
718.0330, 944.8828
719.1850, 879.4707
720.3370, 888.9941
721.4890, 757.5156
722.6400, 842.9727
723.7920, 848.3867
724.9430, 757.7559
726.0940, 801.0840
727.2450, 549.3691
728.3960, 730.6152
729.5460, 749.8164
730.6970, 564.9805
731.8470, 608.0996
732.9970, 570.1816
734.1470, 419.2227
735.2970, 575.2207
736.4460, 547.1797
737.5960, 618.0996
738.7450, 467.9824
739.8940, 770.8281
741.0430, 560.6387
742.1920, 654.4199
743.3410, 750.1699
744.4890, 378.8926
745.6370, 556.5996
746.7850, 834.2812
747.9330, 445.9375
749.0810, 557.5840
750.2290, 607.2109
751.3760, 441.8457
752.5240, 683.5000
753.6710, 405.1777
754.8180, 324.8555
755.9650, 393.5215
757.1110, 501.1719
758.2580, 573.8223
759.4040, 585.4688
760.5510, 335.0898
761.6970, 403.6875
762.8420, 403.2656
763.9880, 418.8477
765.1340, 543.4180
766.2790, 289.9668
767.4240, 418.4844
768.5690, 429.9805
769.7140, 315.4512
770.8590, 23.43164
772.0030, 122.4355
773.1480, 316.1211
774.2920, 30.30078
775.4360, 8.714844
776.5800, 263.1758
777.7240, 44.23242
778.8670, 193.8613
780.0110, 77.64648
781.1540, 183.0352
782.2970, 79.79297
783.4400, 165.0742
784.5830, 45.74414
785.7250, 1.818359
786.8680, 133.6504
788.0100, 58.97266
789.1520, 69.86133
790.2940, 29.07422
791.4360, 6.199219
792.5780, 33.44531
793.7190, 14.56445
794.8600, 44.00000
796.0010, 55.29102
797.1420, 47.68750
798.2830, 165.9277
799.4240, 18.36328
800.5640, 45.35547
801.7050, 248.8906
802.8450, 27.87305
803.9850, 83.65820
805.1250, 76.49414
806.2640, 186.3730
807.4040, 50.34766
808.5430, 23.35156
809.6820, 7.375000
810.8210, 61.41406
811.9600, 142.4844
813.0990, 152.6250
814.2370, 207.8359
815.3760, 32.14844
816.5140, 85.52344
817.6520, 149.1914
818.7900, 137.8574
819.9270, 324.5234
821.0650, 327.2363
822.2020, 279.9707
823.3390, 396.7480
824.4760, 515.5469
825.6130, 420.3848
826.7500, 577.2480
827.8870, 715.1113
829.0230, 676.0000
830.1590, 745.8906
831.2950, 644.7812
832.4310, 812.7500
833.5670, 744.7285
834.7030, 876.7676
835.8380, 931.9121
836.9730, 1059.967
838.1080, 1256.154
839.2430, 1211.193
840.3780, 1160.402
841.5130, 1331.676
842.6470, 1759.957
843.7810, 1685.309
844.9150, 1953.703
846.0490, 2119.104
847.1830, 2071.531
848.3170, 2167.963
849.4500, 2559.410
850.5830, 2813.883
851.7160, 2829.367
852.8490, 3160.861
853.9820, 3570.361
855.1150, 3774.867
856.2470, 3873.379
857.3800, 4246.900
858.5120, 4541.426
859.6440, 5078.961
860.7760, 5310.504
861.9070, 5780.053
863.0390, 6569.611
864.1700, 7051.180
865.3010, 8012.756
866.4320, 8904.344
867.5630, 9815.941
868.6940, 11000.55
869.8240, 12186.17
870.9540, 14158.59
872.0850, 15768.24
873.2150, 18133.91
874.3450, 21043.58
875.4740, 24155.28
876.6040, 28354.98
877.7330, 33300.70
878.8620, 39728.43
879.9910, 46755.17
881.1200, 55398.64
882.2490, 65859.41
883.3770, 77890.21
884.5060, 91743.99
885.6340, 106220.8
886.7620, 121546.6
887.8900, 135590.5
889.0180, 148871.3
890.1450, 156544.1
891.2730, 161084.7
892.4000, 161725.5
893.5270, 158415.4
894.6540, 151448.3
895.7810, 141919.2
896.9070, 131566.9
898.0340, 120125.9
899.1600, 108242.9
900.2860, 97449.88
901.4120, 87441.89
902.5380, 78150.55
903.6630, 69879.09
904.7890, 62461.69
905.9140, 55682.55
907.0390, 49694.49
908.1640, 44551.60
909.2890, 40530.55
910.4130, 36059.42
911.5380, 32982.21
912.6620, 29771.19
913.7860, 27031.49
914.9100, 24652.62
916.0340, 22787.43
917.1580, 20943.89
918.2810, 18902.41
919.4040, 17571.53
920.5280, 16165.84
921.6510, 15249.79
922.7730, 13839.91
923.8960, 12854.62
925.0180, 11991.97
926.1410, 11444.01
927.2630, 10645.97
928.3850, 9977.133
929.5070, 9756.578
930.6280, 9262.859
931.7500, 8661.230
932.8710, 8516.602
933.9920, 8230.201
935.1130, 8079.525
936.2340, 7852.273
937.3550, 7617.662
938.4760, 7431.041
939.5960, 7224.754
940.7160, 7037.055
941.8360, 6818.160
942.9560, 6537.645
944.0760, 6334.500
945.1950, 6031.863
946.3150, 5647.215
947.4340, 5070.344
948.5530, 4827.982
949.6720, 4228.488
950.7900, 3957.805
951.9090, 3966.826
953.0270, 3546.535
954.1460, 3398.943
955.2640, 3136.094
956.3820, 2996.928
957.4990, 2777.893
958.6170, 2639.891
959.7340, 2482.113
960.8520, 2277.230
961.9690, 2442.857
963.0860, 2514.154
964.2020, 2227.215
965.3190, 2254.717
966.4350, 2663.295
967.5520, 2546.336
968.6680, 2851.049
969.7840, 2949.596
970.8990, 3054.949
972.0150, 3085.801
973.1310, 2918.920
974.2460, 3172.617
975.3610, 2896.717
976.4760, 2808.816
977.5910, 2875.359
978.7050, 2606.135
979.8200, 2744.867
980.9340, 2300.066
982.0480, 2122.787
983.1620, 2087.449
984.2760, 2099.260
985.3900, 2158.078
986.5030, 2128.258
987.6160, 1964.945
988.7300, 2058.564
989.8430, 2026.197
990.9550, 2299.119
992.0680, 2113.777
993.1810, 2162.684
994.2930, 2374.473
995.4050, 2157.197
996.5170, 2408.160
997.6290, 2856.041
998.7410, 2391.881
999.8520, 2530.004
1000.964, 2409.010
1002.075, 2379.225
1003.186, 2520.211
1004.297, 2568.328
1005.407, 2683.643
1006.518, 2751.377
1007.628, 3037.537
1008.738, 3115.541
1009.848, 3330.938
1010.958, 3515.977
1012.068, 3736.219
1013.178, 3734.312
1014.287, 4212.645
1015.396, 4334.043
1016.505, 4299.158
1017.614, 4616.492
1018.723, 4489.680
1019.831, 4532.818
1020.940, 4549.037
1022.048, 4323.752
1023.156, 4132.002
1024.264, 3972.684
1025.372, 3498.477
1026.479, 3243.691
1027.587, 3174.637
1028.694, 2683.330
1029.801, 2687.639
1030.908, 2244.885
1032.015, 2237.137
1033.121, 2004.934
1034.228, 1797.803
1035.334, 1919.086
1036.440, 1685.352
1037.546, 1618.625
1038.652, 1595.555
1039.758, 1475.834
1040.863, 1326.580
1041.968, 1210.176
1043.074, 1145.920
1044.178, 1307.012
1045.283, 1381.182
1046.388, 1371.123
1047.492, 1029.102
1048.597, 1115.770
1049.701, 1030.818
1050.805, 939.0000
1051.909, 1086.592
1053.012, 793.6504
1054.116, 937.0312
1055.219, 906.4082
1056.322, 955.9844
1057.425, 831.9922
1058.528, 761.4004
1059.631, 864.1602
1060.733, 870.7754
1061.836, 726.8730
1062.938, 780.8594
1064.040, 481.3340
1065.142, 492.0156
1066.243, 636.5508
1067.345, 501.4023
1068.446, 558.5840
1069.547, 542.5293
1070.648, 193.5859
1071.749, 423.5703
1072.850, 403.2031
1073.951, 125.7852
1075.051, 212.9375
1076.151, 269.6016
1077.251, 124.2617
1078.351, 157.9121
1079.451, 243.5664
1080.550, 170.2383
1081.650, 163.9336
1082.749, 4.662109
1083.848, 92.39258
1084.947, 4.886719
1086.046, 18.80859
1087.144, 176.5137
1088.243, 89.94922
1089.341, 154.0059
1090.439, 73.06641
1091.537, 138.7422
1092.635, 87.51367
1093.732, 27.64453
1094.830, 71.21875
1095.927, 0.8476560
1097.024, 82.88672
1098.121, 262.0918
1099.218, 12.24219
1100.314, 213.4297
1101.411, 352.7617
1102.507, 125.3125
1103.603, 43.25000
1104.699, 23.42383
1105.795, 92.85156
1106.890, 211.7559
1107.986, 15.34766
1109.081, 216.5371
1110.176, 119.3516
1111.271, 52.46680
1112.366, 48.52344
1113.461, 128.2031
1114.555, 6.093750
1115.649, 39.32031
1116.744, 9.359375
1117.838, 38.25781
1118.931, 161.9355
1120.025, 194.9219
1121.119, 340.6602
1122.212, 120.1152
1123.305, 234.0664
1124.398, 133.5820
1125.491, 179.6309
1126.584, 385.0293
1127.676, 168.0410
1128.768, 207.3750
1129.861, 230.0957
1130.953, 169.0508
1132.044, 202.1250
1133.136, 156.6602
1134.228, 47.94727
1135.319, 44.91602
1136.410, 147.2090
1137.501, 66.84375
1138.592, 202.7129
1139.683, 353.7285
1140.773, 158.1348
1141.864, 349.4180
1142.954, 212.8281
1144.044, 252.3398
1145.134, 209.7910
1146.224, 198.2480
1147.313, 306.9688
1148.402, 221.4414
1149.492, 260.1328
1150.581, 283.7891
1151.670, 259.0664
1152.758, 143.4512
1153.847, 258.0059
1154.935, 172.2461
1156.024, 149.0684
1157.112, 301.7090
1158.200, 122.4590
1159.287, 186.2148
1160.375, 280.5605
1161.462, 343.8574
1162.550, 354.1191
1163.637, 172.3477
1164.724, 156.5332
1165.810, 16.76172
1166.897, 318.9824
1167.983, 395.3809
1169.070, 152.6621
1170.156, 322.0586
1171.242, 206.0000
1172.327, 244.9238
1173.413, 195.8672
1174.499, 264.6758
1175.584, 111.0703
1176.669, 405.2637
1177.754, 517.6113
1178.839, 398.7988
1179.923, 285.4062
1181.008, 242.4941
1182.092, 204.6230
1183.176, 165.5273
1184.260, 351.2715
1185.344, 246.8398
1186.428, 170.5273
1187.511, 405.8398
1188.595, 524.4570
1189.678, 243.2910
1190.761, 462.4785
1191.843, 428.6270
1192.926, 484.0723
1194.009, 570.2227
1195.091, 404.5098
1196.173, 536.4922
1197.255, 455.9355
1198.337, 566.0996
1199.419, 554.1797
1200.500, 571.2012
1201.582, 566.8711
1202.663, 577.9746
1203.744, 613.6641
1204.825, 646.9219
1205.905, 545.6133
1206.986, 737.7754
1208.066, 841.9043
1209.146, 863.1562
1210.226, 551.8965
1211.306, 669.2617
1212.386, 615.1797
1213.466, 557.4590
1214.545, 735.0117
1215.624, 471.2500
1216.703, 644.5879
1217.782, 632.7129
1218.861, 705.9766
1219.939, 602.2168
1221.018, 556.8730
1222.096, 680.1348
1223.174, 710.7734
1224.252, 596.3613
1225.330, 675.1152
1226.407, 404.5859
1227.485, 444.8066
1228.562, 601.8301
1229.639, 494.6035
1230.716, 567.0039
1231.793, 557.2988
1232.869, 228.8926
1233.946, 487.8730
1235.022, 494.2129
1236.098, 245.8848
1237.174, 470.7148
1238.250, 257.3828
1239.325, 190.9766
1240.401, 252.0273
1241.476, 194.9688
1242.551, 333.2910
1243.626, 283.7715
1244.701, 215.1055
1245.776, 219.2520
1246.850, 157.2070
1247.924, 203.3301
1248.999, 123.9844
1250.073, 178.5078
1251.146, 263.3398
1252.220, 115.5781
1253.293, 213.9668
1254.367, 69.27930
1255.440, 43.07617
1256.513, 133.2441
1257.586, 91.01367
1258.658, 133.5254
1259.731, 54.04883
1260.803, 58.08789
1261.875, 157.3262
1262.947, 209.3594
1264.019, 58.59766
1265.091, 187.6816
1266.162, 14.54102
1267.234, 41.04883
1268.305, 3.886719
1269.376, 129.9492
1270.447, 33.40820
1271.517, 16.54883
1272.588, 81.26953
1273.658, 53.88672
1274.729, 190.6719
1275.799, 133.1406
1276.868, 68.86523
1277.938, 283.3438
1279.008, 263.9453
1280.077, 141.5703
1281.146, 223.0879
1282.215, 275.0859
1283.284, 88.47852
1284.353, 153.4707
1285.421, 187.2793
1286.490, 3.357422
1287.558, 140.2383
1288.626, 229.0605
1289.694, 271.2402
1290.762, 301.4609
1291.829, 234.6504
1292.897, 242.8691
1293.964, 210.6602
1295.031, 190.8711
1296.098, 139.9414
1297.165, 158.4219
1298.231, 120.7129
1299.298, 220.3066
1300.364, 213.8066
1301.430, 199.4336
1302.496, 352.8223
1303.562, 71.46094
1304.627, 107.1660
1305.693, 65.95508
1306.758, 89.71094
1307.823, 236.4336
1308.888, 92.97070
1309.953, 73.28711
1311.018, 252.4102
1312.082, 79.66406
1313.146, 55.15039
1314.210, 134.9004
1315.274, 343.6016
1316.338, 128.9824
1317.402, 67.33594
1318.465, 378.2344
1319.529, 319.5293
1320.592, 126.7969
1321.655, 187.0332
1322.718, 11.75586
1323.780, 221.4062
1324.843, 84.54688
1325.905, 139.6562
1326.967, 278.7402
1328.029, 75.79883
1329.091, 54.17383
1330.153, 110.7891
1331.214, 272.7266
1332.275, 219.6367
1333.337, 207.5234
1334.398, 97.38477
1335.458, 138.2188
1336.519, 69.01172
1337.580, 177.7773
1338.640, 271.5215
1339.700, 91.24219
1340.760, 50.06250
1341.820, 337.5957
1342.880, 143.2324
1343.939, 192.8535
1344.999, 332.4512
1346.058, 331.0801
1347.117, 318.7109
1348.176, 163.3691
1349.235, 304.0254
1350.293, 171.7051
1351.351, 417.3906
1352.410, 396.0566
1353.468, 307.7266
1354.526, 265.3828
1355.583, 157.0195
1356.641, 319.7109
1357.698, 331.3906
1358.756, 273.1172
1359.813, 395.9238
1360.869, 352.5371
1361.926, 501.3516
1362.983, 431.1562
1364.039, 353.8086
1365.095, 211.6445
1366.152, 244.4297
1367.207, 216.0391
1368.263, 213.3555
1369.319, 232.7188
1370.374, 262.4883
1371.430, 278.3613
1372.485, 285.1133
1373.540, 341.9023
1374.594, 323.5527
1375.649, 229.1250
1376.703, 313.4785
1377.758, 338.0996
1378.812, 339.9082
1379.866, 582.1816
1380.920, 503.8496
1381.973, 503.8965
1383.027, 575.6562
1384.080, 315.7109
1385.133, 553.4043
1386.186, 379.1289
1387.239, 469.2227
1388.291, 442.5312
1389.344, 381.7773
1390.396, 334.3242
1391.448, 592.1426
1392.500, 252.5957
1393.552, 399.6680
1394.604, 604.5137
1395.655, 437.1250
1396.707, 393.3789
1397.758, 736.6914
1398.809, 398.7949
1399.860, 411.7598
1400.910, 406.8613
1401.961, 163.2734
1403.011, 579.4453
1404.061, 570.2949
1405.111, 416.8945
1406.161, 402.4883
1407.211, 475.6816
1408.260, 645.2148
1409.310, 433.7988
1410.359, 544.6641
1411.408, 538.9062
1412.457, 579.2969
1413.506, 570.5352
1414.554, 443.7363
1415.603, 629.3066
1416.651, 758.8945
1417.699, 693.4805
1418.747, 393.0664
1419.794, 652.6582
1420.842, 554.1738
1421.889, 521.4434
1422.937, 705.3477
1423.984, 573.3262
1425.031, 850.1387
1426.077, 863.3652
1427.124, 576.5566
1428.170, 504.6855
1429.217, 732.8965
1430.263, 770.4707
1431.309, 697.1934
1432.354, 856.7129
1433.400, 666.3418
1434.445, 658.4961
1435.491, 652.1152
1436.536, 880.6387
1437.581, 749.7422
1438.625, 684.0977
1439.670, 929.0020
1440.714, 650.7402
1441.759, 803.8066
1442.803, 683.5215
1443.847, 539.9805
1444.890, 527.0352
1445.934, 452.7520
1446.978, 438.2422
1448.021, 406.7930
1449.064, 446.6094
1450.107, 440.1328
1451.150, 439.7480
1452.192, 439.2949
1453.235, 547.7168
1454.277, 423.2715
1455.319, 533.5742
1456.361, 559.6543
1457.403, 435.0938
1458.445, 657.8633
1459.486, 498.6816
1460.528, 514.6523
1461.569, 477.5352
1462.610, 459.5039
1463.651, 606.0156
1464.691, 390.2617
1465.732, 375.5430
1466.772, 112.8477
1467.812, 264.1406
1468.852, 208.3438
1469.892, 387.6133
1470.932, 302.8711
1471.971, 399.1172
1473.011, 518.3457
1474.050, 421.5625
1475.089, 331.7656
1476.128, 413.9492
1477.166, 452.1211
1478.205, 400.2754
1479.243, 175.4219
1480.282, 462.5508
1481.320, 255.7051
1482.357, 292.9512
1483.395, 286.3184
1484.433, 209.6035
1485.470, 298.7949
1486.507, 237.9844
1487.544, 57.21289
1488.581, 281.4824
1489.618, 296.8047
1490.655, 450.1680
1491.691, 205.5586
1492.727, 71.95312
1493.763, 287.3398
1494.799, 281.7227
1495.835, 290.7539
1496.871, 371.6777
1497.906, 280.1797
1498.941, 206.6660
1499.976, 96.14844
1501.011, 231.6270
1502.046, 42.11328
1503.081, 494.6074
1504.115, 147.1016
1505.149, 246.6055
1506.183, 87.12500
1507.217, 265.6660
1508.251, 201.2188
1509.285, 184.8398
1510.318, 34.39453
1511.352, 155.6094
1512.385, 49.59570
1513.418, 87.90234
1514.450, 168.9102
1515.483, 127.8203
1516.516, 195.7520
1517.548, 382.7559
1518.580, 45.82227
1519.612, 234.9219
1520.644, 42.09570
1521.675, 49.33398
1522.707, 285.6055
1523.738, 103.9023
1524.769, 34.23633
1525.800, 263.6016
1526.831, 378.0059
1527.862, 287.4492
1528.892, 245.9355
1529.923, 249.4688
1530.953, 327.0527
1531.983, 237.6855
1533.013, 308.3672
1534.042, 207.1074
1535.072, 225.3145
1536.101, 302.7598
1537.131, 230.6738
1538.160, 249.6484
1539.188, 138.2793
1540.217, 343.8457
1541.246, 461.4668
1542.274, 496.2246
1543.302, 199.0488
1544.330, 330.7051
1545.358, 244.4805
1546.386, 160.3906
1547.413, 349.9023
1548.441, 98.57617
1549.468, 283.8906
1550.495, 294.3438
1551.522, 384.9805
1552.549, 302.0352
1553.575, 272.7852
1554.602, 416.2539
1555.628, 463.6816
1556.654, 360.3125
1557.680, 454.4102
1558.706, 194.5703
1559.731, 244.3594
1560.757, 427.3691
1561.782, 329.8848
1562.807, 428.0293
1563.832, 252.2461
1564.857, 31.05664
1565.881, 312.8926
1566.906, 2.806641
1567.930, 170.8828
1568.954, 178.3281
1569.978, 274.5020
1571.002, 1.785156
1572.025, 224.7090
1573.049, 6.505859
1574.072, 274.5449
1575.095, 372.2109
1576.118, 263.4102
1577.141, 99.24609
1578.164, 0.0000000E+00
##END=



