##NAMES=Jacobsite
##RRUFFID=R060780
##IDEAL CHEMISTRY=Mn^2+^Fe^3+^_2_O_4_
##LOCALITY=Jakobsberg, Sweden
##OWNER=RRUFF
##SOURCE=Michael Scott
##DESCRIPTION=Black grains
##STATUS=The identification of this mineral is confirmed by single-crystal X-ray diffraction and chemical analysis.
##URL=rruff.info/R060780
##MEASURED CHEMISTRY=(Mn^2+^_0.75_Mg_0.25_)_Σ=1_(Fe^3+^_1.92_Mn^3+^_0.08_)_Σ=2_O_4_
##PIN_ID=M01488
##ORIENTATION=Laser parallel to a* (1 0 0). Fiducial mark perpendicular to laser is parallel to c [0 0 1]
200.2690, 0.0000000E+00
201.4910, 54.82031
202.7140, 322.7031
203.9360, 172.0469
205.1580, 116.9609
206.3800, 595.0391
207.6020, 716.1719
208.8240, 1013.602
210.0450, 792.1484
211.2670, 149.6641
212.4880, 27.46875
213.7090, 412.1250
214.9300, 941.6719
216.1510, 705.6641
217.3710, 1024.086
218.5920, 968.9375
219.8120, 787.0234
221.0320, 813.3828
222.2520, 928.7969
223.4720, 1323.391
224.6910, 652.1016
225.9110, 574.3516
227.1300, 907.0781
228.3490, 236.9297
229.5680, 862.6953
230.7870, 1161.047
232.0050, 1215.586
233.2240, 438.1328
234.4420, 694.4219
235.6600, 518.2188
236.8780, 423.7031
238.0960, 902.5156
239.3140, 277.7266
240.5310, 660.8047
241.7490, 603.7188
242.9660, 749.0547
244.1830, 458.7812
245.4000, 302.4062
246.6160, 578.7266
247.8330, 238.3984
249.0490, 633.0391
250.2660, 826.3203
251.4820, 828.1328
252.6980, 41.26562
253.9130, 293.6875
255.1290, 140.1484
256.3440, 23.07812
257.5600, 396.2422
258.7750, 237.1797
259.9900, 187.8047
261.2040, 200.7031
262.4190, 413.1875
263.6330, 217.4453
264.8480, 157.8125
266.0620, 521.7422
267.2760, 663.0938
268.4900, 450.3125
269.7030, 524.9609
270.9170, 609.8594
272.1300, 133.9844
273.3430, 191.8594
274.5560, 89.50781
275.7690, 29.95312
276.9820, 447.7344
278.1940, 174.1016
279.4070, 294.6172
280.6190, 328.2031
281.8310, 561.1094
283.0430, 362.7656
284.2550, 192.6641
285.4660, 582.2266
286.6770, 1071.766
287.8890, 801.1797
289.1000, 1364.344
290.3110, 1161.281
291.5210, 914.9766
292.7320, 1159.734
293.9420, 1548.352
295.1530, 1867.227
296.3630, 1671.742
297.5730, 2372.172
298.7830, 1941.039
299.9920, 2377.633
301.2020, 3389.984
302.4110, 2757.164
303.6200, 2699.922
304.8290, 3142.492
306.0380, 4220.727
307.2470, 3980.906
308.4550, 3919.719
309.6630, 3237.148
310.8720, 3601.555
312.0800, 3722.977
313.2880, 3633.469
314.4950, 4380.164
315.7030, 4424.086
316.9100, 4153.219
318.1170, 4651.602
319.3240, 4330.203
320.5310, 4393.023
321.7380, 4227.055
322.9450, 3977.281
324.1510, 5019.711
325.3570, 4952.344
326.5630, 4858.156
327.7690, 4845.164
328.9750, 4781.992
330.1810, 4721.812
331.3860, 4725.781
332.5910, 4769.891
333.7960, 4791.422
335.0010, 4846.742
336.2060, 4804.008
337.4110, 4570.102
338.6150, 4639.188
339.8200, 4469.461
341.0240, 4584.016
342.2280, 4570.836
343.4320, 4511.930
344.6350, 4502.820
345.8390, 4328.547
347.0420, 4269.242
348.2450, 4005.805
349.4480, 3559.375
350.6510, 3497.812
351.8540, 3088.219
353.0560, 2758.898
354.2590, 2806.930
355.4610, 2843.273
356.6630, 2170.445
357.8650, 2423.867
359.0670, 2236.648
360.2680, 1906.164
361.4700, 1810.125
362.6710, 1579.062
363.8720, 1442.828
365.0730, 1429.531
366.2740, 1111.570
367.4740, 1475.500
368.6750, 1126.984
369.8750, 1068.680
371.0750, 963.8828
372.2750, 1157.625
373.4750, 917.9844
374.6740, 106.1719
375.8740, 168.2109
377.0730, 144.6484
378.2720, 123.9688
379.4710, 217.6328
380.6700, 353.7422
381.8690, 295.2109
383.0670, 573.1875
384.2660, 365.4766
385.4640, 565.2422
386.6620, 767.9375
387.8600, 357.5312
389.0570, 1034.625
390.2550, 608.9688
391.4520, 599.4297
392.6490, 380.9297
393.8460, 573.0312
395.0430, 615.9453
396.2400, 212.4453
397.4370, 46.64844
398.6330, 232.9531
399.8290, 350.0391
401.0250, 303.7266
402.2210, 31.67188
403.4170, 486.4844
404.6130, 647.7031
405.8080, 414.2578
407.0030, 690.8438
408.1980, 390.2891
409.3930, 73.69531
410.5880, 232.1172
411.7830, 50.08594
412.9770, 36.29688
414.1720, 69.70312
415.3660, 369.9531
416.5600, 96.96094
417.7530, 38.69531
418.9470, 204.1094
420.1410, 390.4219
421.3340, 455.4219
422.5270, 724.3594
423.7200, 758.8047
424.9130, 736.7031
426.1060, 997.4766
427.2980, 1091.141
428.4900, 1121.188
429.6830, 1404.375
430.8750, 1210.922
432.0670, 1652.648
433.2580, 1775.500
434.4500, 1752.500
435.6410, 2233.703
436.8320, 2358.789
438.0240, 2187.648
439.2140, 2328.273
440.4050, 2152.750
441.5960, 2586.164
442.7860, 3147.578
443.9760, 2530.148
445.1670, 2892.883
446.3560, 2974.734
447.5460, 4090.570
448.7360, 3092.406
449.9250, 3435.453
451.1150, 4181.750
452.3040, 2728.297
453.4930, 2825.125
454.6810, 3802.211
455.8700, 2807.570
457.0590, 3116.211
458.2470, 3180.117
459.4350, 3165.312
460.6230, 3120.766
461.8110, 3296.500
462.9980, 2846.516
464.1860, 3100.805
465.3730, 3650.359
466.5600, 3134.195
467.7470, 2944.312
468.9340, 3223.711
470.1210, 3690.391
471.3080, 3015.336
472.4940, 2857.562
473.6800, 3038.273
474.8660, 2899.766
476.0520, 3357.922
477.2380, 3186.281
478.4230, 3579.898
479.6090, 3663.812
480.7940, 3817.992
481.9790, 3799.453
483.1640, 4541.219
484.3490, 3354.266
485.5330, 3964.602
486.7180, 4767.211
487.9020, 4115.109
489.0860, 4227.188
490.2700, 4523.430
491.4540, 4787.875
492.6370, 5112.906
493.8210, 4924.734
495.0040, 4965.883
496.1870, 4542.656
497.3700, 4756.156
498.5530, 4784.922
499.7360, 4951.023
500.9180, 5403.359
502.1000, 5851.938
503.2830, 5547.344
504.4650, 5448.781
505.6460, 5248.070
506.8280, 4699.617
508.0100, 5200.453
509.1910, 5284.641
510.3720, 5861.156
511.5530, 5826.930
512.7340, 5458.016
513.9150, 6062.375
515.0950, 6058.031
516.2760, 5989.016
517.4560, 6173.266
518.6360, 6520.844
519.8160, 6409.352
520.9950, 7094.297
522.1750, 7043.141
523.3540, 7707.414
524.5340, 7577.094
525.7130, 7645.078
526.8920, 7729.984
528.0700, 7944.633
529.2490, 8167.578
530.4270, 8254.453
531.6060, 8368.336
532.7840, 8023.867
533.9620, 8603.852
535.1390, 8975.789
536.3170, 9132.008
537.4940, 8458.328
538.6720, 8873.477
539.8490, 8866.742
541.0260, 8835.734
542.2030, 9491.336
543.3790, 9785.328
544.5560, 10341.94
545.7320, 10889.35
546.9080, 10484.09
548.0840, 11466.09
549.2600, 11718.19
550.4360, 11645.42
551.6110, 12851.04
552.7860, 12763.92
553.9620, 13215.11
555.1370, 13395.09
556.3110, 13831.72
557.4860, 13984.85
558.6610, 14856.20
559.8350, 15044.04
561.0090, 15525.24
562.1830, 15585.90
563.3570, 16829.01
564.5310, 17388.60
565.7040, 17731.50
566.8780, 17913.70
568.0510, 18934.27
569.2240, 19054.00
570.3970, 20083.66
571.5700, 20937.66
572.7420, 21624.89
573.9150, 21647.54
575.0870, 22529.21
576.2590, 23066.91
577.4310, 23590.84
578.6030, 24522.52
579.7740, 25596.64
580.9460, 26261.48
582.1170, 26867.05
583.2880, 27756.22
584.4590, 28727.69
585.6300, 29523.53
586.8010, 30324.76
587.9710, 31216.36
589.1410, 32506.24
590.3110, 33870.44
591.4810, 35605.97
592.6510, 37541.87
593.8210, 38699.06
594.9900, 40580.58
596.1600, 41914.38
597.3290, 43061.48
598.4980, 44884.94
599.6670, 46693.66
600.8350, 48394.67
602.0040, 49813.95
603.1720, 51284.58
604.3400, 52527.48
605.5080, 54168.66
606.6760, 55535.11
607.8440, 56612.84
609.0120, 57919.84
610.1790, 58293.11
611.3460, 59285.65
612.5130, 61484.45
613.6800, 61417.53
614.8470, 61891.87
616.0130, 62084.45
617.1800, 61977.31
618.3460, 62432.42
619.5120, 62355.99
620.6780, 62251.90
621.8440, 62303.28
623.0090, 61688.51
624.1750, 61341.48
625.3400, 60617.11
626.5050, 59522.98
627.6700, 59019.08
628.8350, 57222.44
629.9990, 56356.03
631.1640, 54924.86
632.3280, 54179.57
633.4920, 52776.86
634.6560, 50930.38
635.8200, 50462.84
636.9840, 49770.50
638.1470, 47706.73
639.3100, 45239.38
640.4730, 43702.05
641.6360, 42449.95
642.7990, 41774.08
643.9620, 39981.42
645.1240, 38097.62
646.2870, 38128.30
647.4490, 35861.02
648.6110, 35412.42
649.7730, 33530.86
650.9340, 33009.46
652.0960, 32448.17
653.2570, 30797.21
654.4180, 30095.36
655.5790, 29517.27
656.7400, 28252.87
657.9010, 27785.91
659.0620, 26864.09
660.2220, 26527.43
661.3820, 25636.50
662.5420, 24601.98
663.7020, 24539.91
664.8620, 24376.47
666.0210, 23328.33
667.1810, 23128.98
668.3400, 22542.61
669.4990, 21783.28
670.6580, 21808.92
671.8170, 21186.91
672.9750, 20684.94
674.1340, 19945.84
675.2920, 19156.83
676.4500, 18870.24
677.6080, 18330.68
678.7660, 17498.09
679.9230, 17396.10
681.0810, 17129.85
682.2380, 16692.41
683.3950, 15582.79
684.5520, 15334.06
685.7090, 14774.73
686.8660, 14760.48
688.0220, 14575.40
689.1780, 13961.90
690.3340, 13425.51
691.4900, 12991.25
692.6460, 12155.08
693.8020, 11818.89
694.9570, 11257.66
696.1130, 10484.80
697.2680, 10031.62
698.4230, 9270.141
699.5780, 8914.477
700.7320, 8548.789
701.8870, 8173.500
703.0410, 7443.508
704.1950, 7503.289
705.3490, 6668.125
706.5030, 6009.484
707.6570, 6108.617
708.8110, 5743.922
709.9640, 4804.391
711.1170, 4675.211
712.2700, 4729.602
713.4230, 4494.891
714.5760, 4136.016
715.7280, 3784.328
716.8810, 3490.203
718.0330, 3457.602
719.1850, 2883.914
720.3370, 2936.484
721.4890, 2761.789
722.6400, 2165.656
723.7920, 2466.047
724.9430, 2588.516
726.0940, 2540.086
727.2450, 1811.914
728.3960, 1944.500
729.5460, 1741.828
730.6970, 1531.234
731.8470, 1784.000
732.9970, 1243.000
734.1470, 1019.984
735.2970, 1283.039
736.4460, 1049.656
737.5960, 949.1172
738.7450, 628.9844
739.8940, 1030.820
741.0430, 1029.664
742.1920, 308.4062
743.3410, 703.0938
744.4890, 591.7734
745.6370, 177.3594
746.7850, 1109.938
747.9330, 169.3984
749.0810, 194.7344
750.2290, 191.0703
751.3760, 122.3438
752.5240, 267.5469
753.6710, 284.1250
754.8180, 142.7422
755.9650, 330.7188
757.1110, 608.6328
758.2580, 384.4609
759.4040, 144.5391
760.5510, 193.7969
761.6970, 44.26562
762.8420, 197.1719
763.9880, 145.5078
765.1340, 407.7578
766.2790, 29.91406
767.4240, 87.96875
768.5690, 213.9141
769.7140, 38.22656
770.8590, 181.5156
772.0030, 92.85156
773.1480, 80.35938
774.2920, 107.9766
775.4360, 265.7578
776.5800, 458.7500
777.7240, 529.9219
778.8670, 131.4844
780.0110, 195.9141
781.1540, 109.2266
782.2970, 20.92969
783.4400, 108.5234
784.5830, 115.6641
785.7250, 311.9922
786.8680, 332.6172
788.0100, 76.42969
789.1520, 123.6641
790.2940, 27.03906
791.4360, 92.41406
792.5780, 28.08594
793.7190, 85.05469
794.8600, 105.9531
796.0010, 480.2031
797.1420, 200.8906
798.2830, 583.8750
799.4240, 405.3750
800.5640, 291.2969
801.7050, 164.5703
802.8450, 126.1641
803.9850, 128.0312
805.1250, 138.7969
806.2640, 119.4453
807.4040, 414.0859
808.5430, 217.9297
809.6820, 222.2422
810.8210, 2.781250
811.9600, 42.57812
813.0990, 469.6562
814.2370, 9.742188
815.3760, 220.8828
816.5140, 223.8125
817.6520, 47.45312
818.7900, 42.97656
819.9270, 256.1328
821.0650, 203.0938
822.2020, 391.1641
823.3390, 215.0625
824.4760, 443.9219
825.6130, 169.5547
826.7500, 57.21875
827.8870, 555.3359
829.0230, 72.06250
830.1590, 345.1641
831.2950, 673.7578
832.4310, 85.04688
833.5670, 232.2891
834.7030, 384.6094
835.8380, 314.9531
836.9730, 101.7266
838.1080, 299.7969
839.2430, 68.35938
840.3780, 579.6797
841.5130, 1065.523
842.6470, 28.16406
843.7810, 2.460938
844.9150, 156.5938
846.0490, 135.9219
847.1830, 131.1328
848.3170, 345.0547
849.4500, 127.7266
850.5830, 368.1016
851.7160, 252.7578
852.8490, 67.54688
853.9820, 132.8594
855.1150, 151.1406
856.2470, 187.4062
857.3800, 511.8281
858.5120, 1086.875
859.6440, 46.28906
860.7760, 14.85938
861.9070, 60.19531
863.0390, 608.7422
864.1700, 477.2422
865.3010, 141.5078
866.4320, 21.46875
867.5630, 542.0547
868.6940, 231.4219
869.8240, 468.5078
870.9540, 537.3594
872.0850, 171.9922
873.2150, 381.3359
874.3450, 1126.414
875.4740, 1368.297
876.6040, 117.9609
877.7330, 1154.305
878.8620, 716.1953
879.9910, 536.3672
881.1200, 1067.070
882.2490, 637.5703
883.3770, 1468.844
884.5060, 464.2578
885.6340, 1200.656
886.7620, 1620.000
887.8900, 1739.336
889.0180, 660.6875
890.1450, 1128.477
891.2730, 976.2578
892.4000, 798.3828
893.5270, 1483.234
894.6540, 577.7500
895.7810, 1248.523
896.9070, 764.9453
898.0340, 1478.625
899.1600, 1875.883
900.2860, 1973.133
901.4120, 872.3984
902.5380, 1318.141
903.6630, 1143.844
904.7890, 943.9297
905.9140, 1606.102
907.0390, 678.5703
908.1640, 1325.328
909.2890, 1342.883
910.4130, 1647.258
911.5380, 1319.461
912.6620, 1171.898
913.7860, 1671.195
914.9100, 1824.867
916.0340, 1435.484
917.1580, 1759.695
918.2810, 807.7812
919.4040, 970.5000
920.5280, 1615.008
921.6510, 1035.297
922.7730, 597.5078
923.8960, 1024.562
925.0180, 1239.523
926.1410, 1036.188
927.2630, 755.7656
928.3850, 906.5781
929.5070, 800.7734
930.6280, 1226.477
931.7500, 876.0703
932.8710, 1007.570
933.9920, 1070.398
935.1130, 581.8281
936.2340, 878.8125
937.3550, 1511.172
938.4760, 1057.352
939.5960, 435.5625
940.7160, 1213.711
941.8360, 1674.172
942.9560, 1802.953
944.0760, 766.7656
945.1950, 1255.320
946.3150, 1137.352
947.4340, 990.8828
948.5530, 1680.055
949.6720, 808.6641
950.7900, 1521.195
951.9090, 1368.539
953.0270, 1032.906
954.1460, 1443.344
955.2640, 1193.516
956.3820, 1587.188
957.4990, 1267.148
958.6170, 1271.422
959.7340, 1035.219
960.8520, 567.1953
961.9690, 1064.367
963.0860, 1318.656
964.2020, 1403.008
965.3190, 671.4453
966.4350, 949.9141
967.5520, 851.8047
968.6680, 751.9844
969.7840, 1192.844
970.8990, 609.5781
972.0150, 1058.398
973.1310, 1075.000
974.2460, 1297.875
975.3610, 1124.750
976.4760, 316.3516
977.5910, 976.8828
978.7050, 1006.211
979.8200, 772.0391
980.9340, 344.0859
982.0480, 618.7344
983.1620, 549.7812
984.2760, 1116.906
985.3900, 452.1484
986.5030, 72.42969
987.6160, 399.5781
988.7300, 663.5391
989.8430, 710.7344
990.9550, 21.86719
992.0680, 283.9766
993.1810, 177.6016
994.2930, 33.36719
995.4050, 466.2969
996.5170, 156.5938
997.6290, 285.7969
998.7410, 307.1797
999.8520, 511.4609
1000.964, 293.7266
1002.075, 220.3984
1003.186, 556.5938
1004.297, 667.8438
1005.407, 418.0703
1006.518, 635.5781
1007.628, 1009.602
1008.738, 809.1562
1009.848, 957.7109
1010.958, 739.1875
1012.068, 825.7266
1013.178, 473.2578
1014.287, 748.7344
1015.396, 686.2656
1016.505, 655.7344
1017.614, 736.2656
1018.723, 579.8672
1019.831, 741.4062
1020.940, 822.9531
1022.048, 839.5078
1023.156, 529.0781
1024.264, 859.6562
1025.372, 643.2500
1026.479, 951.8594
1027.587, 205.4844
1028.694, 906.7891
1029.801, 640.4609
1030.908, 411.1641
1032.015, 785.9062
1033.121, 512.6719
1034.228, 891.4531
1035.334, 879.2734
1036.440, 707.1328
1037.546, 1372.016
1038.652, 901.9297
1039.758, 1670.891
1040.863, 850.8906
1041.968, 639.9453
1043.074, 700.0547
1044.178, 1180.219
1045.283, 911.4922
1046.388, 1424.906
1047.492, 1260.367
1048.597, 1525.883
1049.701, 1189.453
1050.805, 1059.094
1051.909, 1219.898
1053.012, 1684.578
1054.116, 1278.453
1055.219, 1306.469
1056.322, 1029.641
1057.425, 912.8672
1058.528, 1265.211
1059.631, 1054.625
1060.733, 1108.141
1061.836, 1438.758
1062.938, 1196.445
1064.040, 1241.266
1065.142, 1531.289
1066.243, 1277.867
1067.345, 1536.906
1068.446, 1378.578
1069.547, 1343.453
1070.648, 1335.609
1071.749, 1272.305
1072.850, 1357.055
1073.951, 1266.500
1075.051, 1675.039
1076.151, 1762.812
1077.251, 1186.680
1078.351, 1768.727
1079.451, 1230.914
1080.550, 1352.250
1081.650, 1530.852
1082.749, 1436.586
1083.848, 1907.422
1084.947, 1453.375
1086.046, 1786.484
1087.144, 1064.734
1088.243, 1750.094
1089.341, 1658.562
1090.439, 1686.305
1091.537, 1238.164
1092.635, 1647.297
1093.732, 1368.609
1094.830, 1380.102
1095.927, 1093.914
1097.024, 1183.914
1098.121, 1442.234
1099.218, 2016.914
1100.314, 1854.789
1101.411, 1621.797
1102.507, 1498.094
1103.603, 1000.750
1104.699, 1462.516
1105.795, 1713.352
1106.890, 1764.406
1107.986, 1017.242
1109.081, 1301.312
1110.176, 1172.258
1111.271, 1026.602
1112.366, 1456.398
1113.461, 826.2500
1114.555, 1247.289
1115.649, 1248.898
1116.744, 1442.789
1117.838, 1221.008
1118.931, 1127.250
1120.025, 1450.289
1121.119, 1543.305
1122.212, 1274.578
1123.305, 1481.766
1124.398, 839.0312
1125.491, 942.4375
1126.584, 1368.070
1127.676, 1121.117
1128.768, 1335.133
1129.861, 868.0156
1130.953, 754.2422
1132.044, 734.6641
1133.136, 720.8984
1134.228, 635.0859
1135.319, 616.0312
1136.410, 482.1250
1137.501, 175.3828
1138.592, 435.8125
1139.683, 972.3984
1140.773, 269.1250
1141.864, 654.0625
1142.954, 463.1953
1144.044, 508.4766
1145.134, 355.8906
1146.224, 702.4453
1147.313, 968.1484
1148.402, 894.9922
1149.492, 1125.977
1150.581, 434.4062
1151.670, 897.5078
1152.758, 1149.438
1153.847, 1201.703
1154.935, 455.5234
1156.024, 740.6953
1157.112, 612.7969
1158.200, 468.0625
1159.287, 898.7734
1160.375, 269.6172
1161.462, 691.5078
1162.550, 694.1562
1163.637, 888.9297
1164.724, 667.9609
1165.810, 575.7266
1166.897, 899.4453
1167.983, 993.0156
1169.070, 724.8828
1170.156, 932.7891
1171.242, 290.6719
1172.327, 394.7031
1173.413, 823.1484
1174.499, 473.0625
1175.584, 591.7500
1176.669, 452.5781
1177.754, 633.5703
1178.839, 1033.719
1179.923, 847.0078
1181.008, 1042.047
1182.092, 943.6875
1183.176, 636.4844
1184.260, 873.4219
1185.344, 843.5156
1186.428, 291.8438
1187.511, 780.7188
1188.595, 1058.750
1189.678, 1137.719
1190.761, 417.5312
1191.843, 731.2969
1192.926, 629.3594
1194.009, 510.6797
1195.091, 967.4375
1196.173, 364.2812
1197.255, 812.2656
1198.337, 848.5000
1199.419, 1073.578
1200.500, 771.6797
1201.582, 1140.172
1202.663, 598.1328
1203.744, 723.9141
1204.825, 1079.828
1205.905, 581.8750
1206.986, 575.1641
1208.066, 1039.188
1209.146, 1292.398
1210.226, 1345.484
1211.306, 600.2109
1212.386, 886.2578
1213.466, 759.1484
1214.545, 615.2734
1215.624, 1046.820
1216.703, 418.3984
1217.782, 841.0078
1218.861, 844.2500
1219.939, 1039.727
1221.018, 819.5234
1222.096, 774.9453
1223.174, 448.0156
1224.252, 935.1875
1225.330, 1211.289
1226.407, 1287.609
1227.485, 577.2812
1228.562, 886.4453
1229.639, 782.5391
1230.716, 661.7344
1231.793, 1116.461
1232.869, 518.0938
1233.946, 963.8516
1235.022, 990.1250
1236.098, 1208.609
1237.174, 1030.102
1238.250, 961.4453
1239.325, 769.8906
1240.401, 812.9531
1241.476, 893.5859
1242.551, 1060.258
1243.626, 896.6250
1244.701, 775.9844
1245.776, 713.5703
1246.850, 886.2500
1247.924, 785.0312
1248.999, 606.5703
1250.073, 456.5938
1251.146, 706.6719
1252.220, 590.2422
1253.293, 527.6094
1254.367, 753.4688
1255.440, 425.9297
1256.513, 614.4766
1257.586, 814.1172
1258.658, 743.2500
1259.731, 627.6875
1260.803, 386.0938
1261.875, 851.6016
1262.947, 1107.102
1264.019, 1161.680
1265.091, 417.7422
1266.162, 707.2188
1267.234, 581.4453
1268.305, 438.7500
1269.376, 871.4219
1270.447, 261.5625
1271.517, 685.3047
1272.588, 689.6250
1273.658, 886.0938
1274.729, 666.7656
1275.799, 575.9141
1276.868, 901.1328
1277.938, 996.0156
1279.008, 730.0078
1280.077, 940.6328
1281.146, 299.6406
1282.215, 404.6016
1283.284, 831.8047
1284.353, 587.1484
1285.421, 804.1250
1286.490, 847.7734
1287.558, 88.18750
1288.626, 743.0703
1289.694, 773.8125
1290.762, 186.5625
1291.829, 771.8125
1292.897, 269.7500
1293.964, 155.8359
1295.031, 334.0781
1296.098, 211.7266
1297.165, 571.7812
1298.231, 465.9922
1299.298, 322.6875
1300.364, 353.4141
1301.430, 126.6719
1302.496, 341.1953
1303.562, 166.4375
1304.627, 308.8438
1305.693, 524.3281
1306.758, 185.2734
1307.823, 433.6875
1308.888, 219.8047
1309.953, 556.2266
1311.018, 670.4766
1312.082, 389.7656
1313.146, 455.6094
1314.210, 591.4766
1315.274, 27.05469
1316.338, 328.9219
1317.402, 42.28906
1318.465, 260.3750
1319.529, 111.8906
1320.592, 55.00781
1321.655, 170.3359
1322.718, 142.9844
1323.780, 206.0781
1324.843, 242.0469
1325.905, 229.5703
1326.967, 145.5938
1328.029, 143.6250
1329.091, 168.3828
1330.153, 12.66406
1331.214, 399.3359
1332.275, 11.36719
1333.337, 101.4531
1334.398, 317.5312
1335.458, 201.6484
1336.519, 10.14844
1337.580, 198.9844
1338.640, 142.1562
1339.700, 618.5234
1340.760, 416.8906
1341.820, 483.5781
1342.880, 409.3984
1343.939, 256.7656
1344.999, 275.2578
1346.058, 403.5781
1347.117, 109.9297
1348.176, 277.3125
1349.235, 54.73438
1350.293, 215.8047
1351.351, 145.6250
1352.410, 358.1016
1353.468, 106.6016
1354.526, 248.8984
1355.583, 457.4062
1356.641, 18.75000
1357.698, 645.1250
1358.756, 401.5234
1359.813, 142.1406
1360.869, 854.1094
1361.926, 612.3906
1362.983, 451.7031
1364.039, 354.9531
1365.095, 531.4844
1366.152, 312.5312
1367.207, 194.5859
1368.263, 14.36719
1369.319, 341.4453
1370.374, 53.26562
1371.430, 173.8203
1372.485, 414.7578
1373.540, 308.2500
1374.594, 239.5547
1375.649, 169.1484
1376.703, 15.90625
1377.758, 216.3125
1378.812, 352.5156
1379.866, 325.2969
1380.920, 167.8594
1381.973, 180.9922
1383.027, 161.1094
1384.080, 80.19531
1385.133, 80.05469
1386.186, 136.2812
1387.239, 4.726563
1388.291, 113.2266
1389.344, 35.13281
1390.396, 282.9922
1391.448, 397.8203
1392.500, 17.56250
1393.552, 302.1250
1394.604, 139.6406
1395.655, 320.1016
1396.707, 256.4766
1397.758, 257.8203
1398.809, 253.5312
1399.860, 102.7578
1400.910, 364.9688
1401.961, 328.1250
1403.011, 393.2500
1404.061, 566.3281
1405.111, 76.37500
1406.161, 54.37500
1407.211, 186.3203
1408.260, 170.2422
1409.310, 116.1484
1410.359, 82.99219
1411.408, 430.8281
1412.457, 35.63281
1413.506, 193.4453
1414.554, 302.7656
1415.603, 446.9219
1416.651, 125.6328
1417.699, 329.3672
1418.747, 308.7031
1419.794, 582.5469
1420.842, 677.9219
1421.889, 31.76562
1422.937, 9.421875
1423.984, 67.37500
1425.031, 7.843750
1426.077, 461.7734
1427.124, 720.1250
1428.170, 772.7422
1429.217, 32.56250
1430.263, 323.6094
1431.309, 201.4844
1432.354, 61.37500
1433.400, 494.4688
1434.445, 129.7734
1435.491, 296.9141
1436.536, 295.2969
1437.581, 484.2266
1438.625, 266.9453
1439.670, 178.4453
1440.714, 505.9453
1441.759, 259.3516
1442.803, 243.6719
1443.847, 535.5859
1444.890, 627.5234
1445.934, 79.03125
1446.978, 245.6094
1448.021, 156.9609
1449.064, 39.11719
1450.107, 508.6484
1451.150, 97.29688
1452.192, 362.8281
1453.235, 394.1406
1454.277, 626.8984
1455.319, 417.9219
1456.361, 668.7891
1457.403, 775.7109
1458.445, 810.8359
1459.486, 710.8516
1460.528, 727.7266
1461.569, 274.3516
1462.610, 595.3047
1463.651, 367.2656
1464.691, 288.2500
1465.732, 906.2422
1466.772, 763.8203
1467.812, 404.8438
1468.852, 675.7969
1469.892, 472.3750
1470.932, 443.2344
1471.971, 639.6250
1473.011, 591.2188
1474.050, 629.4609
1475.089, 564.4219
1476.128, 639.7891
1477.166, 673.4766
1478.205, 720.1875
1479.243, 887.8203
1480.282, 790.2578
1481.320, 604.8672
1482.357, 770.9688
1483.395, 999.1094
1484.433, 391.1953
1485.470, 430.1484
1486.507, 730.2344
1487.544, 184.8828
1488.581, 310.2734
1489.618, 52.57812
1490.655, 325.8047
1491.691, 737.2969
1492.727, 672.4219
1493.763, 752.5312
1494.799, 616.6797
1495.835, 195.4062
1496.871, 338.2109
1497.906, 393.1328
1498.941, 692.0391
1499.976, 356.1797
1501.011, 465.4297
1502.046, 550.2500
1503.081, 578.8984
1504.115, 654.1797
1505.149, 556.7969
1506.183, 481.2891
1507.217, 753.2734
1508.251, 192.6719
1509.285, 301.2031
1510.318, 552.0078
1511.352, 401.1484
1512.385, 203.5859
1513.418, 488.6016
1514.450, 451.7188
1515.483, 573.9531
1516.516, 966.8750
1517.548, 735.2578
1518.580, 695.6406
1519.612, 535.2734
1520.644, 771.7734
1521.675, 447.3828
1522.707, 32.82031
1523.738, 534.8984
1524.769, 166.6406
1525.800, 570.0781
1526.831, 477.2578
1527.862, 584.1875
1528.892, 583.0078
1529.923, 571.4531
1530.953, 868.8125
1531.983, 420.8359
1533.013, 533.6875
1534.042, 134.2344
1535.072, 469.7656
1536.101, 393.0469
1537.131, 96.49219
1538.160, 975.6562
1539.188, 269.4297
1540.217, 536.1953
1541.246, 343.5234
1542.274, 3.796875
1543.302, 578.6641
1544.330, 0.0000000E+00
##END=



