##NAMES=Kanoite
##RRUFFID=R061134
##IDEAL CHEMISTRY=Mn^2+^MgSi_2_O_6_
##LOCALITY=Balmat, St. Lawrence County, New York, USA
##OWNER=RRUFF
##SOURCE=Michael Scott
##DESCRIPTION=Yellowish brown granular aggregate
##STATUS=The identification of this mineral has been confirmed by X-ray diffraction and chemical analysis
##URL=rruff.info/R061134
##MEASURED CHEMISTRY=(Mn^2+^_0.88_Ca_0.12_)_Σ=1_(Mg_0.98_Fe^3+^_0.02_)_Σ=1_(Si_0.98_Al_0.02_)_2_O_6_
##PIN_ID=M00204
##ORIENTATION=Laser parallel to (-1 0 -1). Fiducial mark perpendicular to laser is parallel to -b [0 -1 0]
111.5030, 0.0000000E+00
112.7420, 4.041992
113.9810, 240.1465
115.2200, 179.9414
116.4580, 196.9307
117.6970, 122.7812
118.9350, 10.74316
120.1730, 152.9600
121.4100, 207.1191
122.6480, 400.2412
123.8850, 468.5723
125.1230, 541.5254
126.3600, 771.6309
127.5960, 864.5156
128.8330, 1120.911
130.0700, 1342.516
131.3060, 1724.116
132.5420, 1927.515
133.7780, 2084.542
135.0140, 2476.049
136.2500, 2456.912
137.4850, 2772.026
138.7200, 3083.303
139.9550, 2836.662
141.1900, 2464.035
142.4250, 1976.358
143.6600, 2060.574
144.8940, 1781.968
146.1280, 1711.811
147.3620, 1675.407
148.5960, 1434.719
149.8300, 1301.685
151.0630, 977.2471
152.2960, 796.3604
153.5300, 650.9873
154.7620, 344.0967
155.9950, 390.6631
157.2280, 57.66602
158.4600, 55.09180
159.6920, 235.9316
160.9250, 43.18555
162.1560, 187.8516
163.3880, 95.91699
164.6200, 106.3662
165.8510, 62.18359
167.0820, 38.35645
168.3130, 97.87598
169.5440, 92.73242
170.7750, 135.9189
172.0050, 257.4209
173.2350, 263.2334
174.4650, 249.3447
175.6950, 225.7451
176.9250, 0.4267580
178.1550, 9.617188
179.3840, 84.60254
180.6130, 204.0820
181.8420, 233.8154
183.0710, 194.7920
184.3000, 70.00781
185.5280, 223.3887
186.7570, 176.7119
187.9850, 190.0303
189.2130, 297.3740
190.4400, 294.7666
191.6680, 382.2256
192.8960, 284.7646
194.1230, 354.3945
195.3500, 386.1240
196.5770, 308.9609
197.8030, 381.9082
199.0300, 447.9736
200.2560, 391.1582
201.4830, 701.4736
202.7090, 683.9521
203.9340, 712.6250
205.1600, 803.4863
206.3860, 732.5820
207.6110, 887.9551
208.8360, 1012.760
210.0610, 1284.616
211.2860, 1399.820
212.5100, 1705.202
213.7350, 1969.697
214.9590, 2233.276
216.1830, 2305.028
217.4070, 2416.242
218.6310, 2311.887
219.8540, 2369.963
221.0780, 2247.150
222.3010, 2024.447
223.5240, 2059.908
224.7470, 1995.498
225.9690, 2101.256
227.1920, 2002.174
228.4140, 2015.200
229.6360, 2001.328
230.8580, 1894.558
232.0800, 1698.888
233.3020, 1717.316
234.5230, 1526.842
235.7440, 1257.469
236.9650, 1265.190
238.1860, 1170.008
239.4070, 995.9199
240.6280, 1074.926
241.8480, 950.0234
243.0680, 928.2139
244.2880, 928.4951
245.5080, 832.8662
246.7280, 897.3262
247.9470, 881.8730
249.1660, 717.5059
250.3860, 780.2266
251.6040, 621.0322
252.8230, 744.9199
254.0420, 614.8906
255.2600, 580.9424
256.4790, 580.0762
257.6970, 661.2900
258.9150, 603.3408
260.1320, 570.9326
261.3500, 585.1855
262.5670, 370.1514
263.7840, 537.4854
265.0010, 241.2197
266.2180, 134.3154
267.4350, 106.7344
268.6510, 178.4521
269.8680, 216.4453
271.0840, 121.6934
272.3000, 348.1797
273.5160, 221.8896
274.7310, 412.8125
275.9470, 497.9336
277.1620, 616.2441
278.3770, 718.7363
279.5920, 685.3994
280.8070, 569.2266
282.0210, 664.2129
283.2360, 566.3516
284.4500, 725.6348
285.6640, 778.0586
286.8780, 644.6191
288.0920, 768.3096
289.3050, 830.1289
290.5180, 894.9336
291.7320, 1054.991
292.9450, 1117.088
294.1570, 1290.778
295.3700, 1473.573
296.5830, 1471.444
297.7950, 1857.189
299.0070, 2099.824
300.2190, 2184.181
301.4310, 2367.615
302.6420, 2725.680
303.8540, 3098.081
305.0650, 3386.809
306.2760, 3571.187
307.4870, 3894.685
308.6980, 4423.109
309.9080, 5092.713
311.1190, 5832.510
312.3290, 6443.350
313.5390, 7282.294
314.7490, 8305.318
315.9580, 9378.003
317.1680, 10569.20
318.3770, 11663.48
319.5860, 12539.82
320.7950, 13514.24
322.0040, 14129.74
323.2130, 14340.29
324.4210, 14080.86
325.6290, 13816.57
326.8380, 13166.34
328.0460, 12323.17
329.2530, 11076.07
330.4610, 10537.02
331.6680, 9348.030
332.8760, 8570.668
334.0830, 7589.792
335.2890, 7031.979
336.4960, 6294.786
337.7030, 5623.088
338.9090, 5261.461
340.1150, 4615.730
341.3210, 4245.025
342.5270, 3996.553
343.7330, 3879.135
344.9380, 3853.771
346.1440, 3602.463
347.3490, 3563.207
348.5540, 3393.004
349.7590, 3382.854
350.9630, 3359.755
352.1680, 3413.704
353.3720, 3466.703
354.5760, 3326.751
355.7800, 3338.844
356.9840, 3357.981
358.1870, 3150.163
359.3910, 3101.391
360.5940, 3107.661
361.7970, 2796.976
363.0000, 2775.332
364.2030, 2915.730
365.4050, 2883.172
366.6080, 2923.653
367.8100, 3066.176
369.0120, 3339.740
370.2140, 3400.343
371.4150, 3401.985
372.6170, 3663.665
373.8180, 3600.384
375.0190, 3618.139
376.2200, 3299.930
377.4210, 3415.760
378.6220, 3300.625
379.8220, 3335.524
381.0230, 3489.461
382.2230, 3746.431
383.4230, 3880.436
384.6220, 4345.475
385.8220, 4748.545
387.0220, 5241.651
388.2210, 5707.789
389.4200, 6039.957
390.6190, 6276.160
391.8180, 6476.393
393.0160, 6298.654
394.2150, 5890.949
395.4130, 5308.273
396.6110, 4526.629
397.8090, 3673.012
399.0060, 3011.424
400.2040, 2608.865
401.4010, 2061.335
402.5980, 1836.832
403.7950, 1520.393
404.9920, 1264.021
406.1890, 1251.708
407.3860, 1187.453
408.5820, 1235.253
409.7780, 1058.106
410.9740, 1240.014
412.1700, 1089.970
413.3650, 976.9736
414.5610, 1074.026
415.7560, 861.1250
416.9510, 980.2686
418.1460, 960.4561
419.3410, 848.6875
420.5360, 593.9600
421.7300, 617.2744
422.9240, 603.6279
424.1180, 351.0215
425.3120, 408.4541
426.5060, 294.9238
427.7000, 379.4307
428.8930, 194.9736
430.0860, 66.55273
431.2790, 44.16699
432.4720, 108.8145
433.6650, 18.50391
434.8580, 23.20215
436.0500, 90.06055
437.2420, 30.32715
438.4340, 53.45605
439.6260, 51.81836
440.8180, 20.87988
442.0090, 127.0967
443.2010, 53.33887
444.3920, 51.98340
445.5830, 297.6885
446.7740, 44.91602
447.9640, 208.0244
449.1550, 78.51465
450.3450, 98.92578
451.5350, 134.3672
452.7250, 86.64551
453.9150, 90.86523
455.1050, 172.9561
456.2940, 81.03027
457.4830, 134.0215
458.6720, 7.518555
459.8610, 108.1641
461.0500, 50.81348
462.2390, 234.5801
463.4270, 151.0732
464.6150, 250.6494
465.8040, 247.0723
466.9910, 207.3623
468.1790, 357.4893
469.3670, 190.2373
470.5540, 142.2656
471.7410, 235.0947
472.9280, 255.8975
474.1150, 221.5996
475.3020, 55.43262
476.4890, 139.4932
477.6750, 61.37012
478.8610, 32.73926
480.0470, 178.2275
481.2330, 95.87305
482.4190, 27.97559
483.6040, 29.85254
484.7900, 81.73242
485.9750, 143.6738
487.1600, 134.5498
488.3450, 189.4814
489.5290, 177.4229
490.7140, 90.38965
491.8980, 194.3662
493.0820, 350.3555
494.2660, 262.3535
495.4500, 479.3594
496.6340, 706.3809
497.8170, 810.4229
499.0010, 940.4912
500.1840, 1138.697
501.3670, 1295.745
502.5500, 1419.904
503.7320, 1304.072
504.9150, 1256.253
506.0970, 1365.443
507.2790, 1279.660
508.4610, 1323.880
509.6430, 1387.125
510.8250, 1348.383
512.0060, 1558.645
513.1870, 1496.915
514.3680, 1780.186
515.5490, 1617.495
516.7300, 1646.816
517.9110, 1651.157
519.0910, 1914.500
520.2710, 1801.847
521.4510, 1735.191
522.6310, 1488.536
523.8110, 1632.879
524.9910, 1308.221
526.1700, 1320.562
527.3490, 1258.904
528.5280, 1233.269
529.7070, 1311.931
530.8860, 1395.006
532.0650, 1532.380
533.2430, 1540.750
534.4210, 1752.118
535.5990, 1818.303
536.7770, 1987.842
537.9550, 2033.212
539.1320, 2092.592
540.3100, 2203.968
541.4870, 2192.363
542.6640, 1980.782
543.8410, 1894.193
545.0170, 1946.630
546.1940, 1833.061
547.3700, 1772.486
548.5470, 1879.904
549.7230, 2085.316
550.8980, 1974.720
552.0740, 2312.114
553.2500, 2302.506
554.4250, 2394.887
555.6000, 2543.259
556.7750, 2205.621
557.9500, 2119.979
559.1250, 1909.330
560.2990, 1535.690
561.4730, 1175.050
562.6480, 1130.398
563.8220, 889.7344
564.9950, 645.0645
566.1690, 774.3818
567.3430, 671.6953
568.5160, 573.0000
569.6890, 547.2920
570.8620, 323.5723
572.0350, 484.8389
573.2070, 429.0898
574.3800, 511.3262
575.5520, 336.6826
576.7240, 355.8857
577.8960, 314.1514
579.0680, 377.9180
580.2400, 313.6729
581.4110, 159.4385
582.5830, 191.4160
583.7540, 309.5869
584.9250, 127.1172
586.0950, 129.6445
587.2660, 145.6162
588.4370, 75.67480
589.6070, 30.73926
590.7770, 149.5586
591.9470, 79.32715
593.1170, 58.76855
594.2860, 66.01367
595.4560, 107.4219
596.6250, 43.85938
597.7940, 58.62988
598.9630, 31.91211
600.1320, 69.85840
601.3000, 72.27930
602.4690, 122.9141
603.6370, 81.22754
604.8050, 22.03027
605.9730, 52.27148
607.1410, 171.2266
608.3090, 21.41406
609.4760, 169.9492
610.6430, 69.73438
611.8100, 140.1152
612.9770, 247.1846
614.1440, 243.0439
615.3110, 271.1162
616.4770, 144.1699
617.6430, 177.1562
618.8090, 270.2480
619.9750, 80.62500
621.1410, 378.6777
622.3070, 174.7510
623.4720, 554.8594
624.6370, 346.1582
625.8020, 548.6572
626.9670, 461.5957
628.1320, 506.6084
629.2970, 630.8457
630.4610, 584.1768
631.6250, 876.1270
632.7890, 767.1895
633.9530, 1029.846
635.1170, 1125.756
636.2810, 1244.359
637.4440, 1548.818
638.6070, 1607.232
639.7700, 1806.168
640.9330, 2145.619
642.0960, 2362.705
643.2590, 2674.894
644.4210, 3287.945
645.5830, 3711.947
646.7450, 4147.801
647.9070, 4923.513
649.0690, 5681.736
650.2310, 6724.104
651.3920, 7619.667
652.5530, 9184.143
653.7140, 10331.35
654.8750, 11700.76
656.0360, 12998.19
657.1970, 14434.54
658.3570, 15954.00
659.5170, 17137.26
660.6770, 18440.27
661.8370, 19826.25
662.9970, 21345.19
664.1570, 22600.11
665.3160, 23673.99
666.4750, 24587.19
667.6340, 24231.76
668.7930, 23214.55
669.9520, 21715.60
671.1110, 19397.50
672.2690, 17006.32
673.4270, 14973.00
674.5850, 12591.63
675.7430, 10805.30
676.9010, 9156.922
678.0590, 8003.670
679.2160, 6844.437
680.3730, 6129.275
681.5300, 5241.881
682.6870, 4346.321
683.8440, 4031.834
685.0010, 3571.158
686.1570, 3192.703
687.3130, 2972.069
688.4690, 2559.606
689.6250, 2666.791
690.7810, 2229.940
691.9370, 2131.147
693.0920, 1898.227
694.2470, 1713.271
695.4020, 1528.279
696.5570, 1435.604
697.7120, 1326.974
698.8670, 1249.930
700.0210, 1282.032
701.1750, 1121.863
702.3290, 1150.658
703.4830, 930.7109
704.6370, 1119.433
705.7910, 844.0996
706.9440, 912.9785
708.0970, 627.5918
709.2510, 703.0439
710.4030, 1010.585
711.5560, 724.0898
712.7090, 816.5586
713.8610, 672.9912
715.0140, 500.3916
716.1660, 583.7568
717.3180, 549.1035
718.4690, 749.4219
719.6210, 471.7148
720.7730, 576.8105
721.9240, 698.0488
723.0750, 542.2764
724.2260, 599.8896
725.3770, 686.5430
726.5270, 601.6445
727.6780, 499.6045
728.8280, 602.8926
729.9780, 560.0732
731.1280, 446.2500
732.2780, 342.9326
733.4280, 584.1270
734.5770, 281.9541
735.7260, 456.5166
736.8760, 339.1494
738.0250, 282.3008
739.1730, 355.2100
740.3220, 136.1377
741.4700, 382.9326
742.6190, 61.98730
743.7670, 179.9385
744.9150, 96.02539
746.0630, 188.8086
747.2100, 58.57910
748.3580, 96.28711
749.5050, 26.69629
750.6520, 222.2773
751.7990, 83.86621
752.9460, 8.417969
754.0930, 113.0879
755.2390, 171.2451
756.3860, 136.6084
757.5320, 174.9395
758.6780, 12.84082
759.8240, 125.4102
760.9690, 45.34082
762.1150, 113.8311
763.2600, 7.974609
764.4060, 53.06348
765.5510, 47.11328
766.6950, 92.12305
767.8400, 9.900391
768.9850, 112.0156
770.1290, 35.89844
771.2730, 228.7412
772.4170, 104.5547
773.5610, 13.33887
774.7050, 2.924805
775.8480, 35.24219
776.9920, 76.63086
778.1350, 86.11230
779.2780, 17.31250
780.4210, 56.69434
781.5640, 14.04199
782.7060, 13.34766
783.8490, 35.38867
784.9910, 78.80957
786.1330, 44.02246
787.2750, 7.8125000E-02
788.4170, 81.13086
789.5580, 16.15625
790.7000, 123.1465
791.8410, 101.8887
792.9820, 8.021484
794.1230, 40.19922
795.2640, 61.55859
796.4040, 80.29297
797.5450, 196.0000
798.6850, 186.6816
799.8250, 145.3438
800.9650, 136.9824
802.1050, 196.5977
803.2450, 53.19141
804.3840, 73.24219
805.5230, 180.2520
806.6630, 36.27344
807.8020, 65.14844
808.9400, 69.54492
810.0790, 91.92383
811.2170, 149.2793
812.3560, 73.61523
813.4940, 39.07227
814.6320, 42.80469
815.7700, 39.41211
816.9070, 79.39258
818.0450, 93.26562
819.1820, 68.78906
820.3190, 111.1758
821.4560, 104.7773
822.5930, 27.71289
823.7300, 44.62891
824.8670, 15.52539
826.0030, 144.4023
827.1390, 104.9512
828.2750, 20.89844
829.4110, 139.9160
830.5470, 89.71289
831.6820, 167.4961
832.8180, 30.73828
833.9530, 6.001953
835.0880, 93.28516
836.2230, 49.63086
837.3580, 47.98828
838.4920, 127.5938
839.6270, 35.81836
840.7610, 70.74609
841.8950, 51.70508
843.0290, 37.52930
844.1630, 43.30273
845.2960, 30.22070
846.4300, 99.23633
847.5630, 95.67969
848.6960, 158.1113
849.8290, 192.5312
850.9620, 15.93945
852.0940, 247.3379
853.2270, 298.7246
854.3590, 220.1016
855.4910, 59.46680
856.6230, 134.8223
857.7550, 228.1680
858.8870, 111.5059
860.0180, 119.8301
861.1500, 83.15234
862.2810, 209.4668
863.4120, 111.7715
864.5430, 185.1094
865.6730, 346.4512
866.8040, 338.7832
867.9340, 255.1133
869.0640, 231.4668
870.1940, 198.8457
871.3240, 170.2637
872.4540, 300.7012
873.5830, 309.1406
874.7130, 308.5957
875.8420, 400.0488
876.9710, 402.0098
878.1000, 348.6523
879.2290, 431.5879
880.3570, 408.7148
881.4860, 139.7578
882.6140, 451.2148
883.7420, 366.2930
884.8700, 414.0977
885.9980, 571.2773
887.1250, 423.7480
888.2530, 470.4004
889.3800, 453.8184
890.5070, 454.6641
891.6340, 405.1211
892.7610, 578.4492
893.8880, 428.9062
895.0140, 342.2246
896.1400, 432.4883
897.2670, 319.8496
898.3930, 326.0371
899.5180, 441.8242
900.6440, 447.1523
901.7700, 512.3809
902.8950, 361.3613
904.0200, 433.2363
905.1450, 455.4668
906.2700, 485.5664
907.3950, 585.0449
908.5190, 579.7109
909.6440, 621.9102
910.7680, 603.4121
911.8920, 669.1465
913.0160, 662.3691
914.1400, 707.0527
915.2630, 725.5020
916.3870, 773.9844
917.5100, 693.0410
918.6330, 878.1270
919.7560, 729.3398
920.8790, 979.6953
922.0010, 1132.516
923.1240, 1264.170
924.2460, 1236.637
925.3680, 1498.168
926.4900, 1437.998
927.6120, 1506.529
928.7340, 1487.223
929.8550, 1508.869
930.9760, 1593.387
932.0980, 1491.090
933.2190, 1507.018
934.3390, 1682.959
935.4600, 1575.910
936.5810, 1740.873
937.7010, 1789.863
938.8210, 1799.545
939.9410, 1747.857
941.0610, 1752.922
942.1810, 1771.729
943.3010, 1620.656
944.4200, 1472.652
945.5390, 1353.781
946.6580, 1133.961
947.7770, 1125.076
948.8960, 1154.229
950.0150, 877.2305
951.1330, 876.1953
952.2510, 921.0703
953.3690, 770.1621
954.4870, 826.3965
955.6050, 630.5430
956.7230, 914.8574
957.8400, 902.9336
958.9580, 810.1699
960.0750, 982.2168
961.1920, 1127.600
962.3090, 884.0117
963.4250, 1263.350
964.5420, 1349.801
965.6580, 1342.268
966.7740, 1336.750
967.8900, 1650.904
969.0060, 1657.008
970.1220, 1878.520
971.2380, 1813.863
972.3530, 2057.473
973.4680, 2217.102
974.5830, 2414.455
975.6980, 2539.119
976.8130, 2788.826
977.9280, 2989.305
979.0420, 3164.031
980.1560, 3668.906
981.2710, 3911.674
982.3850, 4284.480
983.4980, 5110.312
984.6120, 5680.160
985.7260, 6811.031
986.8390, 7603.922
987.9520, 8839.834
989.0650, 10682.77
990.1780, 12674.72
991.2910, 15111.70
992.4030, 18051.70
993.5160, 21440.71
994.6280, 25088.75
995.7400, 29233.82
996.8520, 33382.90
997.9640, 36910.01
999.0750, 40305.14
1000.187, 42700.29
1001.298, 43929.47
1002.409, 44412.68
1003.520, 43393.89
1004.631, 41358.12
1005.741, 39190.39
1006.852, 36704.68
1007.962, 33208.98
1009.072, 30010.31
1010.182, 26818.66
1011.292, 23621.00
1012.402, 21272.39
1013.511, 18866.82
1014.621, 16804.26
1015.730, 15034.99
1016.839, 13291.09
1017.948, 11755.34
1019.056, 10521.15
1020.165, 9400.984
1021.273, 8462.584
1022.382, 7557.205
1023.490, 6750.865
1024.598, 6176.590
1025.706, 5537.971
1026.813, 4955.738
1027.921, 4360.527
1029.028, 4131.361
1030.135, 3821.211
1031.242, 3523.928
1032.349, 3052.852
1033.456, 2736.809
1034.562, 2540.795
1035.668, 2485.807
1036.775, 2122.314
1037.881, 2218.387
1038.987, 2070.516
1040.092, 1806.668
1041.198, 1755.844
1042.303, 1696.596
1043.408, 1629.840
1044.514, 1505.463
1045.618, 1488.539
1046.723, 1477.910
1047.828, 1335.338
1048.932, 1350.789
1050.037, 1302.832
1051.141, 1326.334
1052.245, 1274.863
1053.349, 1101.154
1054.452, 980.7422
1055.556, 1045.371
1056.659, 922.5566
1057.762, 989.2324
1058.865, 833.4004
1059.968, 889.1484
1061.071, 720.9160
1062.174, 750.7148
1063.276, 732.5469
1064.378, 769.3984
1065.480, 694.2773
1066.582, 665.1699
1067.684, 661.0820
1068.786, 576.0098
1069.887, 522.4980
1070.988, 525.8398
1072.090, 579.1758
1073.191, 522.1934
1074.291, 631.8867
1075.392, 657.9453
1076.493, 852.0215
1077.593, 679.4258
1078.693, 823.1953
1079.793, 960.3164
1080.893, 901.4512
1081.993, 967.1426
1083.092, 953.8047
1084.192, 914.0137
1085.291, 848.2559
1086.390, 774.5410
1087.489, 783.8398
1088.588, 588.1816
1089.686, 837.5371
1090.785, 560.9062
1091.883, 663.2910
1092.981, 597.6895
1094.079, 500.0547
1095.177, 656.4766
1096.275, 555.9160
1097.373, 466.3672
1098.470, 501.8301
1099.567, 423.3047
1100.664, 319.2969
1101.761, 384.3984
1102.858, 326.5352
1103.954, 312.3105
1105.051, 332.7695
1106.147, 338.3652
1107.243, 341.9805
1108.339, 471.6055
1109.435, 313.2500
1110.531, 481.9121
1111.626, 216.5820
1112.722, 418.2695
1113.817, 546.4316
1114.912, 511.1367
1116.007, 460.8496
1117.101, 779.5742
1118.196, 704.3047
1119.290, 636.0430
1120.385, 766.7930
1121.479, 577.5508
1122.573, 743.3164
1123.666, 637.0859
1124.760, 627.8672
1125.853, 562.6582
1126.947, 634.4551
1128.040, 513.4590
1129.133, 464.2812
1130.226, 332.8984
1131.318, 303.9336
1132.411, 243.7734
1133.503, 205.6211
1134.596, 161.4746
1135.688, 31.33398
1136.780, 165.1992
1137.871, 8.072266
1138.963, 222.9512
1140.054, 151.8340
1141.146, 147.7227
1142.237, 36.38477
1143.328, 77.50195
1144.419, 56.39648
1145.509, 116.2949
1146.600, 12.42383
1147.690, 42.52148
1148.780, 21.37305
1149.870, 11.71094
1150.960, 10.81250
1152.050, 13.08398
1153.139, 124.9863
1154.229, 165.8945
1155.318, 87.80469
1156.407, 20.28320
1157.496, 231.6250
1158.585, 55.53320
1159.674, 87.44531
1160.762, 183.3613
1161.850, 43.72266
1162.939, 16.17773
1164.027, 92.16992
1165.114, 82.07227
1166.202, 45.97852
1167.290, 33.11719
1168.377, 66.77344
1169.464, 215.8867
1170.551, 71.77930
1171.638, 106.6738
1172.725, 109.2520
1173.812, 104.9375
1174.898, 262.2285
1175.984, 108.5352
1177.071, 73.09766
1178.157, 53.72656
1179.242, 142.0879
1180.328, 134.0156
1181.414, 112.5312
1182.499, 62.08008
1183.584, 70.37695
1184.669, 47.12305
1185.754, 107.6191
1186.839, 80.88867
1187.924, 92.55273
1189.008, 174.0098
1190.092, 86.67578
1191.177, 131.5996
1192.260, 39.87305
1193.344, 40.14453
1194.428, 178.4102
1195.512, 41.54688
1196.595, 200.8047
1197.678, 36.05664
1198.761, 158.3047
1199.844, 40.45508
1200.927, 69.25000
1202.009, 36.09961
1203.092, 198.0176
1204.174, 39.87500
1205.256, 182.1953
1206.338, 53.25781
1207.420, 16.68164
1208.502, 53.65039
1209.583, 96.33203
1210.665, 175.3086
1211.746, 165.2773
1212.827, 268.2383
1213.908, 206.1973
1214.988, 221.1465
1216.069, 44.09180
1217.149, 157.0293
1218.230, 154.9590
1219.310, 68.87891
1220.390, 154.7949
1221.470, 175.7031
1222.549, 219.6016
1223.629, 19.50781
1224.708, 235.3535
1225.787, 56.20508
1226.866, 125.0488
1227.945, 318.8848
1229.024, 116.7129
1230.103, 25.45117
1231.181, 5.353516
1232.259, 118.0410
1233.337, 6.804688
1234.415, 91.95312
1235.493, 83.27344
1236.571, 163.9922
1237.648, 193.7070
1238.726, 270.4062
1239.803, 179.0996
1240.880, 156.7832
1241.957, 291.4688
1243.034, 34.86914
1244.110, 169.7461
1245.187, 154.3555
1246.263, 190.9492
1247.339, 85.53516
1248.415, 171.1113
1249.491, 102.6777
1250.566, 182.2344
1251.642, 140.7812
1252.717, 273.3184
1253.793, 239.8457
1254.868, 106.5957
1255.943, 188.1035
1257.017, 359.5996
1258.092, 99.08398
1259.166, 207.1855
1260.241, 26.65234
1261.315, 164.0957
1262.389, 258.5293
1263.462, 298.9512
1264.536, 369.3613
1265.610, 363.5234
1266.683, 324.1523
1267.756, 265.5352
1268.829, 276.9043
1269.902, 283.2227
1270.975, 232.6113
1272.048, 368.9785
1273.120, 323.3027
1274.192, 399.9004
1275.264, 52.92383
1276.336, 338.9531
1277.408, 266.8965
1278.480, 88.16406
1279.551, 305.1523
1280.623, 201.1465
1281.694, 198.4023
1282.765, 200.6484
1283.836, 172.8828
1284.907, 174.1094
1285.977, 323.6914
1287.048, 214.8945
1288.118, 237.0898
1289.188, 158.2715
1290.258, 293.4434
1291.328, 234.0020
1292.398, 74.94336
1293.467, 236.0820
1294.537, 111.2109
1295.606, 147.3301
1296.675, 227.9648
1297.744, 71.93945
1298.813, 100.0879
1299.882, 221.1035
1300.950, 62.10742
1302.018, 13.45508
1303.086, 156.4980
1304.155, 171.0938
1305.222, 159.2734
1306.290, 132.2031
1307.358, 157.5781
1308.425, 184.0234
1309.492, 127.3555
1310.559, 184.2422
1311.626, 92.12109
1312.693, 323.2715
1313.760, 141.1367
1314.826, 197.9922
1315.893, 255.3086
1316.959, 64.15039
1318.025, 172.5254
1319.091, 190.3320
1320.157, 271.1602
1321.222, 192.9785
1322.288, 187.7852
1323.353, 18.41992
1324.418, 229.3574
1325.483, 149.1270
1326.548, 54.89062
1327.612, 284.6465
1328.677, 218.8496
1329.741, 156.2012
1330.806, 175.5879
1331.870, 72.32031
1332.934, 209.3867
1333.997, 268.1094
1335.061, 176.8262
1336.124, 359.2461
1337.188, 179.2910
1338.251, 292.9902
1339.314, 310.6875
1340.377, 295.3789
1341.439, 219.0508
1342.502, 296.7188
1343.564, 216.3789
1344.627, 348.0352
1345.689, 207.6875
1346.751, 431.3379
1347.813, 409.0801
1348.874, 550.7207
1349.936, 791.3535
1350.997, 242.9883
1352.058, 193.4648
1353.119, 69.08789
1354.180, 165.7266
1355.241, 112.3320
1356.301, 222.9336
1357.362, 121.4609
1358.422, 194.6934
1359.482, 49.08984
1360.542, 221.4863
1361.602, 78.40820
1362.662, 124.9785
1363.721, 315.5449
1364.781, 261.1094
1365.840, 290.6719
1366.899, 107.2324
1367.958, 224.7891
1369.017, 20.34375
1370.075, 223.1289
1371.134, 88.21094
1372.192, 123.7578
1373.250, 350.3047
1374.308, 256.8496
1375.366, 162.3926
1376.424, 154.9375
1377.481, 198.4805
1378.539, 169.0215
1379.596, 141.5625
1380.653, 247.1035
1381.710, 6.355469
1382.767, 28.18555
1383.824, 175.7246
1384.880, 163.3301
1385.937, 34.12891
1386.993, 279.4043
1388.049, 318.7383
1389.105, 160.4961
1390.161, 281.0312
1391.216, 100.5703
1392.272, 33.11133
1393.327, 170.6523
1394.382, 190.1973
1395.437, 31.74219
1396.492, 128.2930
1397.547, 91.34375
1398.601, 83.39844
1399.656, 133.9590
1400.710, 120.5156
1401.764, 173.0742
1402.818, 136.2129
1403.872, 151.7285
1404.925, 126.2539
1405.979, 75.76953
1407.032, 67.30273
1408.085, 197.7227
1409.139, 197.2617
1410.191, 118.1797
1411.244, 264.7305
1412.297, 248.2852
1413.349, 310.8496
1414.402, 305.4199
1415.454, 78.99414
1416.506, 267.5742
1417.558, 134.1602
1418.609, 266.7559
1419.661, 42.26758
1420.712, 105.8770
1421.764, 283.4922
1422.815, 238.1152
1423.866, 246.1523
1424.916, 39.17773
1425.967, 131.8340
1427.018, 197.5410
1428.068, 173.0410
1429.118, 208.2812
1430.168, 308.8594
1431.218, 208.5098
1432.268, 17.19727
1433.318, 132.8906
1434.367, 317.5840
1435.416, 28.28320
1436.465, 166.0195
1437.514, 206.7559
1438.563, 155.4941
1439.612, 171.2656
1440.661, 202.0527
1441.709, 130.2500
1442.757, 109.7148
1443.805, 31.52344
1444.853, 65.59570
1445.901, 42.01562
1446.949, 86.77148
1447.996, 68.07812
1449.044, 253.3711
1450.091, 134.1016
1451.138, 82.84570
1452.185, 308.6680
1453.232, 202.5254
1454.278, 281.3984
1455.325, 107.3164
1456.371, 265.2617
1457.417, 237.2051
1458.463, 211.1504
1459.509, 280.0977
1460.555, 82.04688
1461.601, 24.99805
1462.646, 109.9648
1463.691, 141.9473
1464.737, 128.9316
1465.782, 208.8984
1466.826, 125.4297
1467.871, 128.4219
1468.916, 170.4219
1469.960, 367.4258
1471.004, 415.4258
1472.048, 56.46680
1473.092, 9.541016
1474.136, 293.6230
1475.180, 66.71484
1476.223, 260.8125
1477.267, 24.39062
1478.310, 129.7207
1479.353, 27.64844
1480.396, 117.7617
1481.439, 175.8906
1482.481, 76.96680
1483.524, 6.185547
1484.566, 3.912109
1485.608, 120.5215
1486.650, 86.70703
1487.692, 77.90820
1488.734, 136.1250
1489.775, 96.35742
1490.817, 178.5371
1491.858, 66.72656
1492.899, 260.9297
1493.940, 238.1465
1494.981, 2.625000
1496.022, 143.6172
1497.062, 191.8730
1498.103, 393.1465
1499.143, 96.53906
1500.183, 202.9473
1501.223, 55.42969
1502.263, 99.92188
1503.302, 166.4434
1504.342, 81.99023
1505.381, 73.55273
1506.420, 256.1348
1507.459, 240.7363
1508.498, 274.3203
1509.537, 45.93945
1510.576, 124.6055
1511.614, 89.31641
1512.652, 183.0547
1513.691, 13.82031
1514.729, 163.6074
1515.767, 74.41992
1516.804, 212.2109
1517.842, 353.0781
1518.879, 248.9707
1519.917, 185.9688
1520.954, 109.0039
1521.991, 310.0742
1523.028, 221.9258
1524.064, 362.0625
1525.101, 141.0781
1526.137, 208.2266
1527.173, 148.4512
1528.210, 296.4863
1529.245, 267.5508
1530.281, 286.6504
1531.317, 159.7832
1532.352, 78.04297
1533.388, 202.4043
1534.423, 14.64453
1535.458, 253.9277
1536.493, 297.2480
1537.528, 236.6094
1538.562, 261.0059
1539.597, 114.4434
1540.631, 253.6621
1541.665, 146.1777
1542.700, 268.7715
1543.733, 208.3320
1544.767, 221.9316
1545.801, 242.5703
1546.834, 212.2402
1547.868, 226.1270
1548.901, 294.7930
1549.934, 218.2656
1550.967, 118.8867
1551.999, 72.12305
1553.032, 99.99414
1554.064, 125.6816
1555.097, 240.5234
1556.129, 278.2480
1557.161, 345.8516
1558.193, 151.2891
1559.224, 163.4492
1560.256, 125.2383
1561.287, 197.9199
1562.318, 289.8379
1563.350, 226.0781
1564.380, 226.6094
1565.411, 331.6875
1566.442, 166.9805
1567.472, 3.910156
1568.503, 145.0508
1569.533, 177.4922
1570.563, 0.0000000E+00
##END=



