##NAMES=Kyanite
##RRUFFID=R040119
##IDEAL CHEMISTRY=Al_2_OSiO_4_
##LOCALITY=Rutherford County, North Carolina, USA
##OWNER=RRUFF
##SOURCE=University of Arizona Mineral Museum
##DESCRIPTION=Blue bladed crystal
##STATUS=The identification of this mineral has been confirmed by X-ray diffraction and chemical analysis
##URL=rruff.info/R040119
##MEASURED CHEMISTRY=(Al_0.99_Fe^3+^_0.01_)_2_OSi_1.00_O_4_
##PIN_ID=L00051
##ORIENTATION=Laser parallel to b* (0 1 0). Fiducial mark perpendicular to laser is parallel to -c [0 0 -1]
69.76100, 0.0000000E+00
71.00100, 170.5664
72.24000, 1851.012
73.47900, 1629.469
74.71800, 2459.875
75.95700, 2877.723
77.19600, 2560.906
78.43500, 2801.871
79.67300, 3039.066
80.91200, 2353.031
82.15000, 2451.363
83.38800, 2013.082
84.62600, 1256.586
85.86300, 694.1055
87.10100, 385.6758
88.33800, 379.7734
89.57500, 388.9102
90.81200, 602.6133
92.04900, 561.9609
93.28600, 261.9258
94.52300, 169.3867
95.75900, 128.7617
96.99500, 129.8984
98.23100, 73.31250
99.46700, 188.9570
100.7030, 27.89062
101.9390, 737.8164
103.1740, 1398.375
104.4090, 2231.117
105.6440, 2061.680
106.8790, 1989.391
108.1140, 1351.523
109.3490, 785.9727
110.5830, 1090.809
111.8180, 1311.320
113.0520, 1478.809
114.2860, 1552.168
115.5200, 1781.523
116.7530, 2280.762
117.9870, 2058.633
119.2200, 2069.336
120.4530, 2254.770
121.6860, 1431.031
122.9190, 679.2266
124.1520, 941.4102
125.3850, 392.6680
126.6170, 360.1328
127.8490, 252.6367
129.0810, 20.80859
130.3130, 188.2344
131.5450, 28.82812
132.7770, 25.49219
134.0080, 114.1719
135.2390, 70.13672
136.4710, 138.2930
137.7020, 338.7930
138.9320, 469.9180
140.1630, 153.9531
141.3930, 399.6211
142.6240, 209.4805
143.8540, 418.3320
145.0840, 254.4727
146.3140, 504.5273
147.5440, 219.5312
148.7730, 353.4922
150.0020, 253.3984
151.2320, 216.2734
152.4610, 319.5234
153.6900, 96.33594
154.9180, 246.3750
156.1470, 524.9688
157.3750, 168.4453
158.6040, 696.2656
159.8320, 898.8672
161.0600, 654.0703
162.2870, 747.1641
163.5150, 591.4844
164.7420, 274.0078
165.9700, 609.1016
167.1970, 551.2578
168.4240, 1055.391
169.6510, 692.6719
170.8770, 855.6719
172.1040, 753.7422
173.3300, 1236.844
174.5560, 1156.992
175.7820, 964.1484
177.0080, 1161.359
178.2340, 1190.578
179.4590, 879.8203
180.6850, 609.0781
181.9100, 652.3438
183.1350, 309.6172
184.3600, 120.9062
185.5850, 498.1953
186.8090, 511.4766
188.0340, 560.7500
189.2580, 215.0000
190.4820, 145.2344
191.7060, 67.56250
192.9300, 317.6250
194.1530, 398.7969
195.3770, 465.9297
196.6000, 53.02344
197.8230, 161.0859
199.0460, 73.11719
200.2690, 523.1250
201.4910, 510.0547
202.7140, 161.9531
203.9360, 281.8047
205.1580, 5.484375
206.3800, 197.8516
207.6020, 498.7188
208.8240, 232.2109
210.0450, 472.6953
211.2670, 0.8750000
212.4880, 3.679688
213.7090, 262.5156
214.9300, 143.6094
216.1510, 52.66406
217.3710, 610.3594
218.5920, 684.5391
219.8120, 668.5391
221.0320, 1053.055
222.2520, 905.9062
223.4720, 1348.023
224.6910, 1701.258
225.9110, 1895.609
227.1300, 1602.039
228.3490, 1400.531
229.5680, 909.0859
230.7870, 378.3750
232.0050, 236.6406
233.2240, 131.9375
234.4420, 240.2500
235.6600, 400.4297
236.8780, 70.25000
238.0960, 365.1172
239.3140, 17.11719
240.5310, 66.16406
241.7490, 38.22656
242.9660, 210.4453
244.1830, 108.1953
245.4000, 170.4766
246.6160, 39.17188
247.8330, 298.1641
249.0490, 19.35156
250.2660, 151.7891
251.4820, 140.8047
252.6980, 86.53125
253.9130, 545.6094
255.1290, 620.6719
256.3440, 603.6797
257.5600, 594.6172
258.7750, 274.5156
259.9900, 34.82031
261.2040, 272.2578
262.4190, 120.8906
263.6330, 254.6719
264.8480, 376.6328
266.0620, 68.82812
267.2760, 135.8203
268.4900, 93.37500
269.7030, 672.8438
270.9170, 848.2266
272.1300, 1232.531
273.3430, 1694.758
274.5560, 2434.867
275.7690, 3095.367
276.9820, 2918.289
278.1940, 3009.469
279.4070, 3036.812
280.6190, 2399.344
281.8310, 2252.781
283.0430, 2017.156
284.2550, 2298.406
285.4660, 2969.445
286.6770, 4059.461
287.8890, 4886.289
289.1000, 6501.086
290.3110, 8251.828
291.5210, 10069.55
292.7320, 11028.24
293.9420, 12227.92
295.1530, 14547.59
296.3630, 16611.25
297.5730, 19999.89
298.7830, 22582.50
299.9920, 26662.75
301.2020, 25903.70
302.4110, 23576.50
303.6200, 19019.12
304.8290, 12865.70
306.0380, 7867.055
307.2470, 5726.289
308.4550, 3257.445
309.6630, 2077.602
310.8720, 1917.609
312.0800, 1650.406
313.2880, 1897.969
314.4950, 2675.922
315.7030, 3146.305
316.9100, 3573.633
318.1170, 4730.977
319.3240, 5428.336
320.5310, 7148.727
321.7380, 8753.133
322.9450, 10249.57
324.1510, 11862.02
325.3570, 12678.50
326.5630, 11075.00
327.7690, 9124.516
328.9750, 5973.023
330.1810, 3701.844
331.3860, 1575.430
332.5910, 1095.047
333.7960, 691.6797
335.0010, 560.9922
336.2060, 789.3906
337.4110, 869.8828
338.6150, 1102.633
339.8200, 996.3828
341.0240, 1277.180
342.2280, 895.5312
343.4320, 680.2500
344.6350, 710.8672
345.8390, 476.7812
347.0420, 569.7109
348.2450, 1045.008
349.4480, 1627.008
350.6510, 1833.898
351.8540, 2738.203
353.0560, 3893.305
354.2590, 5166.445
355.4610, 6993.617
356.6630, 9448.000
357.8650, 10726.41
359.0670, 12563.70
360.2680, 13150.98
361.4700, 11596.08
362.6710, 9309.461
363.8720, 6725.875
365.0730, 4899.305
366.2740, 3907.750
367.4740, 3660.195
368.6750, 4113.672
369.8750, 4804.148
371.0750, 5264.641
372.2750, 5949.148
373.4750, 6517.875
374.6740, 6905.195
375.8740, 7652.734
377.0730, 8090.289
378.2720, 8552.500
379.4710, 9565.086
380.6700, 11124.24
381.8690, 12089.42
383.0670, 13933.51
384.2660, 15518.30
385.4640, 16287.91
386.6620, 16279.05
387.8600, 15791.93
389.0570, 16140.57
390.2550, 16830.09
391.4520, 17611.16
392.6490, 17386.16
393.8460, 15160.33
395.0430, 13100.58
396.2400, 11011.72
397.4370, 10660.29
398.6330, 11860.27
399.8290, 13938.27
401.0250, 16219.30
402.2210, 18763.36
403.4170, 20197.36
404.6130, 19237.44
405.8080, 16421.68
407.0030, 12795.48
408.1980, 9364.953
409.3930, 6235.859
410.5880, 4284.180
411.7830, 4316.719
412.9770, 3904.031
414.1720, 4711.484
415.3660, 5147.977
416.5600, 5596.523
417.7530, 6923.102
418.9470, 6984.742
420.1410, 6513.422
421.3340, 5419.141
422.5270, 4512.906
423.7200, 3550.727
424.9130, 3471.594
426.1060, 3491.516
427.2980, 3815.477
428.4900, 5297.492
429.6830, 6688.562
430.8750, 9073.711
432.0670, 10724.94
433.2580, 13287.22
434.4500, 15933.56
435.6410, 17455.95
436.8320, 17871.41
438.0240, 17317.91
439.2140, 14909.45
440.4050, 12132.06
441.5960, 9285.727
442.7860, 7257.445
443.9760, 5625.219
445.1670, 4475.047
446.3560, 4380.938
447.5460, 4468.906
448.7360, 3740.930
449.9250, 2883.016
451.1150, 1967.172
452.3040, 1163.500
453.4930, 430.8984
454.6810, 101.1406
455.8700, 177.9062
457.0590, 124.3906
458.2470, 2.367188
459.4350, 317.3125
460.6230, 259.3203
461.8110, 571.3984
462.9980, 489.5469
464.1860, 981.7734
465.3730, 1069.055
466.5600, 1097.414
467.7470, 1235.844
468.9340, 1549.344
470.1210, 1841.906
471.3080, 2418.547
472.4940, 2864.250
473.6800, 4259.047
474.8660, 6271.906
476.0520, 9094.844
477.2380, 11871.84
478.4230, 15352.92
479.6090, 20730.09
480.7940, 26705.38
481.9790, 32998.75
483.1640, 41116.20
484.3490, 47402.73
485.5330, 51607.38
486.7180, 51596.12
487.9020, 46743.98
489.0860, 38657.91
490.2700, 31030.97
491.4540, 23431.12
492.6370, 19560.38
493.8210, 15321.80
495.0040, 12320.38
496.1870, 9479.109
497.3700, 7543.906
498.5530, 5711.789
499.7360, 4843.805
500.9180, 3929.938
502.1000, 3767.125
503.2830, 3404.469
504.4650, 3356.938
505.6460, 3703.484
506.8280, 3815.172
508.0100, 3713.992
509.1910, 4277.930
510.3720, 4744.961
511.5530, 4698.055
512.7340, 3909.234
513.9150, 3740.500
515.0950, 3047.836
516.2760, 2089.266
517.4560, 1529.805
518.6360, 876.4531
519.8160, 828.2266
520.9950, 79.11719
522.1750, 186.0938
523.3540, 148.7031
524.5340, 162.3828
525.7130, 122.9062
526.8920, 460.2734
528.0700, 66.65625
529.2490, 156.8438
530.4270, 51.75781
531.6060, 450.6094
532.7840, 309.5156
533.9620, 353.3359
535.1390, 104.0859
536.3170, 333.7656
537.4940, 304.5312
538.6720, 350.9922
539.8490, 311.5781
541.0260, 877.2109
542.2030, 969.9375
543.3790, 1344.711
544.5560, 1485.555
545.7320, 1979.555
546.9080, 1171.828
548.0840, 1662.094
549.2600, 1264.477
550.4360, 1451.297
551.6110, 1404.016
552.7860, 1874.859
553.9620, 2083.297
555.1370, 3153.266
556.3110, 4390.305
557.4860, 5328.000
558.6610, 7299.141
559.8350, 8474.328
561.0090, 10447.56
562.1830, 11351.85
563.3570, 11085.19
564.5310, 10207.56
565.7040, 8278.992
566.8780, 7206.469
568.0510, 5420.984
569.2240, 5357.547
570.3970, 5189.859
571.5700, 5141.617
572.7420, 4971.094
573.9150, 4819.305
575.0870, 3603.078
576.2590, 2472.508
577.4310, 1900.484
578.6030, 1729.453
579.7740, 1423.398
580.9460, 909.3750
582.1170, 643.5938
583.2880, 459.6484
584.4590, 508.3203
585.6300, 628.4531
586.8010, 338.6094
587.9710, 214.8281
589.1410, 405.5547
590.3110, 86.03906
591.4810, 241.7734
592.6510, 306.9531
593.8210, 256.7188
594.9900, 620.7188
596.1600, 1177.125
597.3290, 1432.500
598.4980, 1379.922
599.6670, 2112.961
600.8350, 3195.461
602.0040, 3079.648
603.1720, 3580.430
604.3400, 4274.211
605.5080, 4462.812
606.6760, 4448.430
607.8440, 3995.492
609.0120, 3348.148
610.1790, 3000.445
611.3460, 2247.203
612.5130, 1908.898
613.6800, 1591.180
614.8470, 1877.906
616.0130, 1748.656
617.1800, 1832.797
618.3460, 1707.828
619.5120, 1556.617
620.6780, 1930.633
621.8440, 1608.773
623.0090, 1524.078
624.1750, 1703.266
625.3400, 2048.266
626.5050, 1973.492
627.6700, 2165.805
628.8350, 2344.297
629.9990, 2465.508
631.1640, 3010.055
632.3280, 2936.414
633.4920, 3259.453
634.6560, 3108.484
635.8200, 3177.258
636.9840, 3165.016
638.1470, 2826.984
639.3100, 2495.734
640.4730, 2087.461
641.6360, 1619.297
642.7990, 1377.344
643.9620, 819.0781
645.1240, 829.3281
646.2870, 700.0547
647.4490, 461.2344
648.6110, 822.0000
649.7730, 547.9609
650.9340, 586.0000
652.0960, 795.0078
653.2570, 806.0859
654.4180, 918.0625
655.5790, 818.5859
656.7400, 1036.125
657.9010, 1057.258
659.0620, 1218.281
660.2220, 1182.258
661.3820, 1633.062
662.5420, 1334.664
663.7020, 1655.938
664.8620, 1445.031
666.0210, 2423.914
667.1810, 2234.578
668.3400, 2127.547
669.4990, 2693.617
670.6580, 2575.406
671.8170, 2525.469
672.9750, 1969.781
674.1340, 2096.500
675.2920, 1279.797
676.4500, 1128.312
677.6080, 1129.883
678.7660, 924.8984
679.9230, 722.8984
681.0810, 334.7422
682.2380, 247.7656
683.3950, 627.0000
684.5520, 196.5469
685.7090, 120.9609
686.8660, 598.3516
688.0220, 322.4531
689.1780, 76.14844
690.3340, 752.1406
691.4900, 330.1406
692.6460, 83.55469
693.8020, 354.1484
694.9570, 362.1016
696.1130, 88.08594
697.2680, 604.6641
698.4230, 300.5156
699.5780, 371.3047
700.7320, 475.0391
701.8870, 429.7031
703.0410, 567.2969
704.1950, 747.6641
705.3490, 868.1328
706.5030, 719.7031
707.6570, 573.0312
708.8110, 143.2969
709.9640, 22.51562
711.1170, 63.42969
712.2700, 220.5156
713.4230, 412.3828
714.5760, 201.1797
715.7280, 325.8984
716.8810, 341.8438
718.0330, 586.1172
719.1850, 457.6250
720.3370, 330.0469
721.4890, 473.3984
722.6400, 252.6719
723.7920, 598.8672
724.9430, 441.9844
726.0940, 169.0312
727.2450, 297.9844
728.3960, 136.8594
729.5460, 98.14844
730.6970, 337.6562
731.8470, 113.7266
732.9970, 305.0234
734.1470, 508.2422
735.2970, 348.6328
736.4460, 327.1875
737.5960, 341.0703
738.7450, 246.3672
739.8940, 120.7109
741.0430, 201.9453
742.1920, 448.0859
743.3410, 547.1562
744.4890, 734.1250
745.6370, 174.0156
746.7850, 730.8047
747.9330, 157.5234
749.0810, 514.1250
750.2290, 555.6484
751.3760, 406.0781
752.5240, 606.4141
753.6710, 553.6719
754.8180, 226.8359
755.9650, 496.8984
757.1110, 567.8672
758.2580, 515.7500
759.4040, 45.54688
760.5510, 463.2031
761.6970, 134.7656
762.8420, 19.77344
763.9880, 51.51562
765.1340, 246.6719
766.2790, 128.8281
767.4240, 114.3359
768.5690, 83.37500
769.7140, 51.03906
770.8590, 92.63281
772.0030, 341.5547
773.1480, 166.3672
774.2920, 132.4688
775.4360, 312.2422
776.5800, 1.039063
777.7240, 141.5234
778.8670, 400.9609
780.0110, 142.7031
781.1540, 41.60938
782.2970, 183.2969
783.4400, 207.9219
784.5830, 55.37500
785.7250, 128.0234
786.8680, 92.09375
788.0100, 352.1172
789.1520, 12.12500
790.2940, 203.9688
791.4360, 140.6875
792.5780, 114.2891
793.7190, 91.23438
794.8600, 20.98438
796.0010, 82.92188
797.1420, 82.27344
798.2830, 224.5547
799.4240, 3.070313
800.5640, 73.40625
801.7050, 152.6094
802.8450, 138.2812
803.9850, 197.5859
805.1250, 277.5938
806.2640, 461.0938
807.4040, 227.0312
808.5430, 287.0234
809.6820, 155.0156
810.8210, 360.7266
811.9600, 241.4375
813.0990, 583.0469
814.2370, 18.40625
815.3760, 684.9609
816.5140, 441.2266
817.6520, 85.38281
818.7900, 541.4141
819.9270, 466.3750
821.0650, 508.2734
822.2020, 525.0703
823.3390, 519.5781
824.4760, 577.6719
825.6130, 809.6562
826.7500, 908.7578
827.8870, 60.05469
829.0230, 672.1953
830.1590, 237.7188
831.2950, 305.6484
832.4310, 764.4609
833.5670, 576.5703
834.7030, 764.1953
835.8380, 828.7188
836.9730, 1027.156
838.1080, 829.5000
839.2430, 1063.750
840.3780, 537.8984
841.5130, 828.9375
842.6470, 697.8906
843.7810, 1081.750
844.9150, 1112.516
846.0490, 868.4688
847.1830, 1141.961
848.3170, 1405.664
849.4500, 999.5781
850.5830, 1079.867
851.7160, 1323.469
852.8490, 1187.469
853.9820, 1404.453
855.1150, 1208.414
856.2470, 1174.289
857.3800, 1925.859
858.5120, 1401.562
859.6440, 1761.578
860.7760, 1416.086
861.9070, 1244.516
863.0390, 2047.828
864.1700, 1648.562
865.3010, 1845.516
866.4320, 2407.133
867.5630, 2486.258
868.6940, 2514.734
869.8240, 2667.922
870.9540, 3139.641
872.0850, 3276.344
873.2150, 3529.289
874.3450, 3746.109
875.4740, 4065.617
876.6040, 4523.148
877.7330, 4900.148
878.8620, 5468.078
879.9910, 6176.125
881.1200, 7146.094
882.2490, 7461.594
883.3770, 8946.422
884.5060, 10085.55
885.6340, 10729.16
886.7620, 12454.81
887.8900, 13510.83
889.0180, 14306.33
890.1450, 15269.74
891.2730, 15863.70
892.4000, 16323.70
893.5270, 17044.88
894.6540, 17802.76
895.7810, 19714.45
896.9070, 20886.92
898.0340, 22769.44
899.1600, 24464.06
900.2860, 25532.83
901.4120, 25820.00
902.5380, 25075.92
903.6630, 22457.06
904.7890, 20027.81
905.9140, 17710.65
907.0390, 15101.75
908.1640, 12681.18
909.2890, 11061.40
910.4130, 9797.219
911.5380, 8745.547
912.6620, 7591.789
913.7860, 6920.406
914.9100, 6969.984
916.0340, 6021.992
917.1580, 6097.227
918.2810, 6305.375
919.4040, 5970.695
920.5280, 5705.750
921.6510, 6300.156
922.7730, 6122.859
923.8960, 6276.336
925.0180, 6316.578
926.1410, 6511.430
927.2630, 6699.828
928.3850, 7403.117
929.5070, 7128.305
930.6280, 8584.812
931.7500, 8506.359
932.8710, 9223.859
933.9920, 9458.445
935.1130, 10869.16
936.2340, 11740.88
937.3550, 11884.34
938.4760, 12418.05
939.5960, 13284.04
940.7160, 13950.30
941.8360, 15096.52
942.9560, 15970.67
944.0760, 17230.77
945.1950, 18549.21
946.3150, 19889.70
947.4340, 21713.88
948.5530, 22464.80
949.6720, 23629.67
950.7900, 24527.99
951.9090, 24167.27
953.0270, 24942.45
954.1460, 23939.98
955.2640, 23873.36
956.3820, 23350.12
957.4990, 22767.60
958.6170, 22897.28
959.7340, 22438.83
960.8520, 21975.97
961.9690, 21184.11
963.0860, 20086.45
964.2020, 18835.24
965.3190, 16976.78
966.4350, 15518.84
967.5520, 13923.80
968.6680, 12243.55
969.7840, 10638.43
970.8990, 9867.273
972.0150, 8469.086
973.1310, 7981.867
974.2460, 7131.609
975.3610, 6091.500
976.4760, 5430.172
977.5910, 4968.242
978.7050, 4689.250
979.8200, 4539.828
980.9340, 4207.367
982.0480, 4408.914
983.1620, 3466.453
984.2760, 3986.953
985.3900, 2934.438
986.5030, 3393.883
987.6160, 3610.180
988.7300, 3809.570
989.8430, 3262.930
990.9550, 3547.047
992.0680, 4038.344
993.1810, 3762.625
994.2930, 4767.867
995.4050, 4385.125
996.5170, 5138.336
997.6290, 5896.539
998.7410, 6217.719
999.8520, 6616.875
1000.964, 6591.016
1002.075, 6896.234
1003.186, 6281.445
1004.297, 5084.633
1005.407, 4586.781
1006.518, 3802.031
1007.628, 3251.258
1008.738, 2510.578
1009.848, 2906.883
1010.958, 2395.156
1012.068, 2115.422
1013.178, 2227.711
1014.287, 1656.969
1015.396, 1312.445
1016.505, 1551.680
1017.614, 1547.344
1018.723, 1395.539
1019.831, 1174.594
1020.940, 951.7344
1022.048, 1101.859
1023.156, 843.9688
1024.264, 1227.055
1025.372, 1681.133
1026.479, 443.1797
1027.587, 668.2109
1028.694, 888.2266
1029.801, 478.2500
1030.908, 767.2422
1032.015, 1067.242
1033.121, 86.25000
1034.228, 299.2656
1035.334, 561.2656
1036.440, 411.2578
1037.546, 257.2969
1038.652, 223.3359
1039.758, 295.4141
1040.863, 78.52344
1041.968, 262.6250
1043.074, 208.2109
1044.178, 224.1641
1045.283, 303.7422
1046.388, 59.60156
1047.492, 300.5234
1048.597, 160.4453
1049.701, 419.4219
1050.805, 322.4297
1051.909, 160.5547
1053.012, 353.4453
1054.116, 688.4844
1055.219, 180.0156
1056.322, 306.0234
1057.425, 100.8984
1058.528, 665.7344
1059.631, 14.75000
1060.733, 273.0703
1061.836, 385.8906
1062.938, 830.7656
1064.040, 707.6719
1065.142, 272.6172
1066.243, 287.6094
1067.345, 230.6016
1068.446, 223.5938
1069.547, 524.6406
1070.648, 350.0234
1071.749, 383.1172
1072.850, 336.2188
1073.951, 33.58594
1075.051, 318.7188
1076.151, 89.29688
1077.251, 368.5938
1078.351, 70.03906
1079.451, 310.2578
1080.550, 534.5625
1081.650, 268.3203
1082.749, 627.6953
1083.848, 362.0469
1084.947, 20.60938
1086.046, 53.29688
1087.144, 120.4375
1088.243, 87.13281
1089.341, 159.2969
1090.439, 95.42969
1091.537, 539.5625
1092.635, 861.6875
1093.732, 460.8125
1094.830, 395.9219
1095.927, 703.0312
1097.024, 339.1406
1098.121, 502.2500
1099.218, 172.3594
1100.314, 65.95312
1101.411, 854.0312
1102.507, 483.1094
1103.603, 684.1719
1104.699, 483.2188
1105.795, 559.2656
1106.890, 660.2969
1107.986, 385.3125
1109.081, 639.3438
1110.176, 749.3438
1111.271, 589.3438
1112.366, 388.3906
1113.461, 909.3906
1114.555, 474.3906
1115.649, 998.3906
1116.744, 261.3594
1117.838, 516.3281
1118.931, 62.68750
1120.025, 579.1875
1121.119, 289.0781
1122.212, 20.95312
1123.305, 204.7969
1124.398, 533.6406
1125.491, 592.4688
1126.584, 504.7656
1127.676, 940.5938
1128.768, 452.7812
1129.861, 692.5938
1130.953, 1041.391
1132.044, 812.1875
1133.136, 286.9688
1134.228, 295.7500
1135.319, 489.5312
1136.410, 315.2969
1137.501, 345.0469
1138.592, 487.8125
1139.683, 393.5625
1140.773, 397.5000
1141.864, 203.0312
1142.954, 344.7656
1144.044, 416.8125
1145.134, 560.5156
1146.224, 26.76562
1147.313, 452.8750
1148.402, 72.53125
1149.492, 632.1562
1150.581, 149.2031
1151.670, 545.2812
1152.758, 738.7812
1153.847, 917.2812
1154.935, 1030.172
1156.024, 758.2500
1157.112, 796.7188
1158.200, 481.1875
1159.287, 142.6406
1160.375, 565.1094
1161.462, 136.5625
1162.550, 701.0156
1163.637, 428.4688
1164.724, 950.4844
1165.810, 246.9219
1166.897, 330.3594
1167.983, 596.7812
1169.070, 926.2031
1170.156, 763.6250
1171.242, 743.0312
1172.327, 650.0469
1173.413, 451.4688
1174.499, 180.1875
1175.584, 338.9375
1176.669, 14.32812
1177.754, 281.2656
1178.839, 596.6406
1179.923, 168.9844
1181.008, 558.3594
1182.092, 270.7031
1183.176, 1086.344
1184.260, 267.7031
1185.344, 261.9531
1186.428, 556.7344
1187.511, 51.51562
1188.595, 496.4531
1189.678, 170.3594
1190.761, 394.2344
1191.843, 318.3125
1192.926, 311.4062
1194.009, 410.4844
1195.091, 122.5625
1196.173, 523.6719
1197.255, 459.7500
1198.337, 243.1719
1199.419, 44.23438
1200.500, 8.687500
1201.582, 139.5625
1202.663, 58.46875
1203.744, 614.3750
1204.825, 279.9062
1205.905, 365.1875
1206.986, 283.1250
1208.066, 765.8281
1209.146, 207.1250
1210.226, 366.8281
1211.306, 262.5312
1212.386, 449.5938
1213.466, 592.1406
1214.545, 350.7031
1215.624, 189.3750
1216.703, 518.0000
1217.782, 70.35938
1218.861, 316.7500
1219.939, 81.18750
1221.018, 520.3750
1222.096, 56.89062
1223.174, 743.4375
1224.252, 295.9844
1225.330, 95.54688
1226.407, 528.0938
1227.485, 449.6562
1228.562, 505.2188
1229.639, 3.234375
1230.716, 793.8438
1231.793, 433.4219
1232.869, 351.0000
1233.946, 826.5781
1235.022, 669.1562
1236.098, 704.7500
1237.174, 805.3438
1238.250, 609.9375
1239.325, 355.5312
1240.401, 551.1562
1241.476, 36.78125
1242.551, 246.4062
1243.626, 488.0469
1244.701, 1042.703
1245.776, 1020.562
1246.850, 381.0156
1247.924, 849.6875
1248.999, 976.5000
1250.073, 219.1719
1251.146, 528.8750
1252.220, 442.7812
1253.293, 832.5000
1254.367, 419.2188
1255.440, 98.04688
1256.513, 513.6250
1257.586, 32.65625
1258.658, 117.0312
1259.731, 179.7344
1260.803, 468.4531
1261.875, 620.1875
1262.947, 312.9219
1264.019, 728.6406
1265.091, 824.4062
1266.162, 216.1562
1267.234, 265.9531
1268.305, 36.75000
1269.376, 317.5625
1270.447, 987.3750
1271.517, 107.2031
1272.588, 205.9531
1273.658, 599.8125
1274.729, 321.5938
1275.799, 568.1406
1276.868, 410.9531
1277.938, 463.3125
1279.008, 611.1562
1280.077, 374.1250
1281.146, 547.9844
1282.215, 663.8750
1283.284, 454.7812
1284.353, 635.7031
1285.421, 847.6406
1286.490, 613.5938
1287.558, 304.5469
1288.626, 721.5625
1289.694, 390.5781
1290.762, 139.5938
1291.829, 775.6406
1292.897, 798.7031
1293.964, 418.7812
1295.031, 790.9062
1296.098, 536.0312
1297.165, 791.1719
1298.231, 531.3281
1299.298, 971.5469
1300.364, 1287.750
1301.430, 567.9844
1302.496, 779.2344
1303.562, 886.5781
1304.627, 652.0000
1305.693, 748.5312
1306.758, 460.0000
1307.823, 613.4844
1308.888, 651.0156
1309.953, 742.5469
1311.018, 864.1250
1312.082, 954.7812
1313.146, 839.2344
1314.210, 338.7188
1315.274, 698.5156
1316.338, 374.2969
1317.402, 665.2188
1318.465, 70.48438
1319.529, 1070.484
1320.592, 361.5156
1321.655, 507.5625
1322.718, 761.6562
1323.780, 393.7969
1324.843, 1175.984
1325.905, 570.1875
1326.967, 510.4688
1328.029, 381.7500
1329.091, 177.5625
1330.153, 558.1406
1331.214, 113.5156
1332.275, 517.9375
1333.337, 669.4062
1334.398, 488.6406
1335.458, 235.0938
1336.519, 168.5938
1337.580, 413.1406
1338.640, 42.31250
1339.700, 275.1875
1340.760, 295.3906
1341.820, 688.9844
1342.880, 1007.609
1343.939, 419.2812
1344.999, 91.98438
1346.058, 451.8281
1347.117, 425.6562
1348.176, 44.51562
1349.235, 663.4219
1350.293, 609.0000
1351.351, 1033.922
1352.410, 551.8906
1353.468, 603.8750
1354.526, 715.9219
1355.583, 409.9688
1356.641, 966.0469
1357.698, 154.8438
1358.756, 585.0000
1359.813, 179.1875
1360.869, 601.4219
1361.926, 725.7031
1362.983, 780.0156
1364.039, 509.3281
1365.095, 234.7188
1366.152, 73.62500
1367.207, 811.0781
1368.263, 26.57812
1369.319, 175.9531
1370.374, 638.7969
1371.430, 543.3750
1372.485, 884.0156
1373.540, 686.6562
1374.594, 422.3594
1375.649, 665.0938
1376.703, 499.2812
1377.758, 669.0469
1378.812, 527.9531
1379.866, 498.2344
1380.920, 520.2188
1381.973, 580.8594
1383.027, 777.8750
1384.080, 888.0000
1385.133, 767.7969
1386.186, 1022.000
1387.239, 592.2656
1388.291, 752.0000
1389.344, 484.3438
1390.396, 473.7344
1391.448, 766.1719
1392.500, 723.6562
1393.552, 1055.188
1394.604, 561.7656
1395.655, 983.3750
1396.707, 358.0469
1397.758, 1108.781
1398.809, 239.5469
1399.860, 67.03125
1400.910, 372.9062
1401.961, 401.8281
1403.011, 42.84375
1404.061, 295.8438
1405.111, 717.9062
1406.161, 427.0469
1407.211, 394.2656
1408.260, 869.5156
1409.310, 685.8281
1410.359, 851.2031
1411.408, 657.6094
1412.457, 373.0625
1413.506, 1128.578
1414.554, 370.1562
1415.603, 349.7969
1416.651, 1063.500
1417.699, 485.2500
1418.747, 532.0625
1419.794, 545.9375
1420.842, 849.8750
1421.889, 956.8906
1422.937, 1001.953
1423.984, 984.0781
1425.031, 659.2812
1426.077, 818.1562
1427.124, 546.9219
1428.170, 802.3438
1429.217, 847.8438
1430.263, 605.4219
1431.309, 913.0938
1432.354, 871.8594
1433.400, 995.4062
1434.445, 812.6406
1435.491, 811.6094
1436.536, 846.8281
1437.581, 697.0781
1438.625, 835.4375
1439.670, 872.8906
1440.714, 805.5781
1441.759, 624.3438
1442.803, 765.2812
1443.847, 534.3750
1444.890, 578.0625
1445.934, 769.7812
1446.978, 547.3906
1448.021, 860.1875
1449.064, 530.1875
1450.107, 1379.422
1451.150, 863.0312
1452.192, 874.7031
1453.235, 1012.828
1454.277, 487.1719
1455.319, 679.6719
1456.361, 345.6875
1457.403, 593.7656
1458.445, 628.1250
1459.486, 486.5625
1460.528, 379.1562
1461.569, 956.7656
1462.610, 202.4688
1463.651, 780.8594
1464.691, 761.7188
1465.732, 752.6406
1466.772, 340.5781
1467.812, 586.5938
1468.852, 283.6875
1469.892, 291.8438
1470.932, 705.0781
1471.971, 684.3750
1473.011, 129.7656
1474.050, 764.2188
1475.089, 172.2188
1476.128, 527.3125
1477.166, 423.9219
1478.205, 730.6250
1479.243, 906.3906
1480.282, 785.2344
1481.320, 254.1562
1482.357, 154.7969
1483.395, 212.3594
1484.433, 292.6094
1485.470, 256.9375
1486.507, 272.3438
1487.544, 987.8438
1488.581, 158.4219
1489.618, 150.0781
1490.655, 132.0469
1491.691, 524.9219
1492.727, 389.9844
1493.763, 270.1250
1494.799, 23.62500
1495.835, 190.6875
1496.871, 111.1094
1497.906, 198.6250
1498.941, 50.21875
1499.976, 337.9062
1501.011, 27.29688
1502.046, 89.57812
1503.081, 671.5625
1504.115, 85.39062
1505.149, 492.7812
1506.183, 68.01562
1507.217, 119.3438
1508.251, 272.7500
1509.285, 540.2500
1510.318, 819.7969
1511.352, 716.2500
1512.385, 38.85938
1513.418, 546.8906
1514.450, 259.6875
1515.483, 259.5156
1516.516, 324.2812
1517.548, 251.0625
1518.580, 374.0000
1519.612, 382.0781
1520.644, 694.5312
1521.675, 629.4375
1522.707, 422.9688
1523.738, 682.9375
1524.769, 285.1094
1525.800, 392.4375
1526.831, 632.9375
1527.862, 6.890625
1528.892, 549.7500
1529.923, 53.78125
1530.953, 507.8906
1531.983, 1083.156
1533.013, 420.6250
1534.042, 494.2969
1535.072, 1123.156
1536.101, 1708.094
1537.131, 1117.562
1538.160, 425.8906
1539.188, 744.4375
1540.217, 876.3438
1541.246, 837.3438
1542.274, 462.0781
1543.302, 1115.438
1544.330, 724.0469
1545.358, 476.9062
1546.386, 730.3594
1547.413, 624.7812
1548.441, 418.5156
1549.468, 1002.625
1550.495, 642.0938
1551.522, 969.9062
1552.549, 441.1250
1553.575, 383.9062
1554.602, 697.3125
1555.628, 264.5781
1556.654, 482.3750
1557.680, 929.1250
1558.706, 286.5938
1559.731, 528.8281
1560.757, 442.0469
1561.782, 982.3438
1562.807, 1105.766
1563.832, 730.4688
1564.857, 1475.516
1565.881, 433.1094
1566.906, 391.5156
1567.930, 192.8750
1568.954, 255.5312
1569.978, 906.8594
1571.002, 791.2812
1572.025, 975.4062
1573.049, 1597.062
1574.072, 471.5625
1575.095, 811.7656
1576.118, 6.609375
1577.141, 737.9844
1578.164, 0.0000000E+00
##END=



