##NAMES=Kyanite
##RRUFFID=R050450
##IDEAL CHEMISTRY=Al_2_OSiO_4_
##LOCALITY=Switzerland
##OWNER=RRUFF
##SOURCE=Marcus Origlieri
##DESCRIPTION=Blue bladed crystals
##STATUS=The identification of this mineral has been confirmed by X-ray diffraction and chemical analysis
##URL=rruff.info/R050450
##MEASURED CHEMISTRY=Al_2.00_OSi_1.00_O_4_
##PIN_ID=M01855
##ORIENTATION=Laser parallel to (1 1 0). Fiducial mark perpendicular to laser is parallel to c [0 0 1]
148.7160, 0.0000000E+00
149.9470, 75.99609
151.1780, 138.8105
152.4080, 98.50391
153.6380, 283.0859
154.8690, 291.0371
156.0980, 221.1738
157.3280, 398.4883
158.5580, 19.58398
159.7870, 241.5742
161.0170, 281.2988
162.2460, 75.37109
163.4750, 187.8066
164.7030, 228.9258
165.9320, 228.7891
167.1600, 467.2188
168.3890, 217.9727
169.6170, 89.80859
170.8450, 313.9180
172.0730, 120.2168
173.3000, 362.8926
174.5280, 291.7734
175.7550, 439.3691
176.9820, 398.3262
178.2090, 300.9277
179.4350, 236.8848
180.6620, 213.7520
181.8880, 163.5625
183.1150, 139.3516
184.3410, 105.1406
185.5670, 40.04297
186.7920, 116.8105
188.0180, 165.7129
189.2430, 94.66211
190.4690, 36.66602
191.6940, 209.7246
192.9180, 116.9961
194.1430, 68.01953
195.3680, 86.88086
196.5920, 179.2949
197.8160, 10.54883
199.0400, 206.8809
200.2640, 305.2930
201.4880, 320.7910
202.7110, 495.9648
203.9350, 587.0098
205.1580, 794.9414
206.3810, 962.3066
207.6040, 1150.055
208.8270, 1105.854
210.0490, 851.8047
211.2710, 492.9180
212.4940, 599.2109
213.7160, 223.6738
214.9370, 154.3008
216.1590, 98.08594
217.3810, 163.0254
218.6020, 244.1094
219.8230, 126.3438
221.0440, 294.7207
222.2650, 304.2324
223.4860, 542.8555
224.7060, 950.5664
225.9260, 1186.352
227.1470, 1273.178
228.3670, 1106.049
229.5860, 874.9883
230.8060, 591.0020
232.0260, 549.0859
233.2450, 254.2422
234.4640, 65.46289
235.6830, 55.24414
236.9020, 56.11719
238.1200, 138.5508
239.3390, 26.05469
240.5570, 164.6016
241.7750, 143.1973
242.9930, 236.8633
244.2110, 274.6055
245.4290, 173.3828
246.6460, 419.1953
247.8630, 373.0840
249.0810, 222.0469
250.2980, 326.0801
251.5140, 389.1836
252.7310, 177.3574
253.9470, 127.6016
255.1640, 2.912109
256.3800, 198.7070
257.5960, 143.7441
258.8120, 171.7305
260.0270, 61.85938
261.2430, 113.5234
262.4580, 66.25781
263.6730, 71.93750
264.8880, 152.0645
266.1030, 112.1270
267.3170, 248.9453
268.5320, 45.16602
269.7460, 381.6055
270.9600, 508.1816
272.1740, 386.0371
273.3880, 411.2969
274.6010, 967.8340
275.8150, 1406.408
277.0280, 1704.959
278.2410, 1862.738
279.4540, 1874.979
280.6670, 1794.727
281.8790, 1572.352
283.0920, 1238.029
284.3040, 946.7656
285.5160, 797.5527
286.7280, 975.3984
287.9400, 1451.297
289.1510, 2063.250
290.3630, 3150.258
291.5740, 4141.320
292.7850, 5292.430
293.9960, 6308.598
295.2070, 6810.598
296.4170, 6633.365
297.6280, 7860.855
298.8380, 10878.14
300.0480, 14617.95
301.2580, 17799.83
302.4680, 19361.72
303.6770, 18042.67
304.8870, 14442.65
306.0960, 10034.69
307.3050, 6239.758
308.5140, 3586.402
309.7230, 2103.561
310.9310, 1168.768
312.1400, 755.0254
313.3480, 866.2051
314.5560, 1177.445
315.7640, 1375.562
316.9720, 2299.920
318.1790, 2967.066
319.3870, 3660.389
320.5940, 4155.777
321.8010, 5394.223
323.0080, 7447.725
324.2150, 10215.28
325.4210, 12938.88
326.6280, 14449.53
327.8340, 13412.24
329.0400, 10540.99
330.2460, 7530.799
331.4510, 4859.928
332.6570, 2482.836
333.8620, 1626.797
335.0680, 890.8105
336.2730, 738.8730
337.4780, 333.9883
338.6820, 853.1250
339.8870, 929.3145
341.0910, 1228.850
342.2950, 1283.139
343.5000, 1485.480
344.7030, 1169.875
345.9070, 1013.322
347.1110, 625.8164
348.3140, 486.2656
349.5170, 560.6934
350.7200, 737.1719
351.9230, 1113.684
353.1260, 1659.154
354.3290, 1820.680
355.5310, 1896.262
356.7330, 2752.895
357.9350, 4331.582
359.1370, 5712.318
360.3390, 7318.111
361.5400, 7497.949
362.7420, 6639.844
363.9430, 5305.785
365.1440, 3615.777
366.3450, 2233.818
367.5460, 1357.904
368.7460, 1285.041
369.9470, 1273.227
371.1470, 1585.457
372.3470, 1893.023
373.5470, 2479.061
374.7460, 3078.432
375.9460, 3951.850
377.1450, 5024.316
378.3450, 6188.828
379.5440, 6963.385
380.7430, 7576.148
381.9410, 8899.277
383.1400, 11548.97
384.3380, 14511.33
385.5370, 16537.11
386.7350, 16735.63
387.9320, 15540.00
389.1300, 13433.40
390.3280, 11941.36
391.5250, 11648.38
392.7220, 11967.15
393.9190, 11519.88
395.1160, 10110.70
396.3130, 8579.418
397.5100, 6934.625
398.7060, 5670.738
399.9020, 5647.031
401.0980, 6847.318
402.2940, 9099.668
403.4900, 11371.64
404.6860, 13300.07
405.8810, 12958.53
407.0760, 11097.03
408.2710, 8379.852
409.4660, 5578.307
410.6610, 3419.715
411.8550, 2149.408
413.0500, 1372.154
414.2440, 856.9434
415.4380, 844.7773
416.6320, 744.6445
417.8260, 712.5449
419.0190, 1053.475
420.2130, 1197.434
421.4060, 1272.418
422.5990, 1074.432
423.7920, 887.4746
424.9850, 757.5430
426.1770, 749.6406
427.3700, 1061.764
428.5620, 1661.916
429.7540, 2349.096
430.9460, 3486.303
432.1380, 4341.539
433.3290, 6155.803
434.5210, 7638.096
435.7120, 9882.410
436.9030, 11925.78
438.0940, 14184.17
439.2850, 14804.59
440.4750, 14086.04
441.6660, 12037.52
442.8560, 9234.039
444.0460, 6836.582
445.2360, 5503.156
446.4260, 4804.766
447.6160, 4685.396
448.8050, 4908.078
449.9940, 4709.791
451.1830, 4244.535
452.3720, 3289.307
453.5610, 2167.107
454.7500, 1491.938
455.9380, 876.8145
457.1260, 744.7246
458.3150, 553.6660
459.5020, 699.6406
460.6900, 632.6445
461.8780, 706.6816
463.0650, 1109.750
464.2530, 1419.846
465.4400, 1518.990
466.6270, 1788.184
467.8130, 1730.439
469.0000, 1638.730
470.1870, 1524.047
471.3730, 1617.408
472.5590, 1612.799
473.7450, 1770.217
474.9310, 2356.682
476.1160, 3478.186
477.3020, 4794.736
478.4870, 7261.340
479.6720, 10111.99
480.8570, 13210.67
482.0420, 16052.39
483.2270, 21125.13
484.4110, 27594.94
485.5960, 34949.75
486.7800, 40436.63
487.9640, 41467.54
489.1480, 38134.54
490.3310, 31560.56
491.5150, 24460.65
492.6980, 18666.77
493.8810, 13770.91
495.0640, 10659.11
496.2470, 8119.330
497.4300, 6213.566
498.6120, 4677.824
499.7950, 3439.109
500.9770, 2876.410
502.1590, 2281.756
503.3410, 1929.127
504.5220, 1646.787
505.7040, 1381.977
506.8850, 1405.436
508.0660, 1372.914
509.2470, 1448.414
510.4280, 1494.928
511.6090, 1406.461
512.7890, 1535.006
513.9700, 1520.576
515.1500, 1305.166
516.3300, 975.8438
517.5100, 749.5352
518.6900, 534.2461
519.8690, 332.9727
521.0490, 227.7129
522.2280, 6.486328
523.4070, 34.72070
524.5860, 18.06836
525.7640, 188.1289
526.9430, 129.5918
528.1210, 99.66406
529.3000, 182.9570
530.4780, 74.32227
531.6560, 41.28516
532.8330, 188.0957
534.0110, 182.5547
535.1880, 212.0918
536.3650, 307.7246
537.5430, 336.4961
538.7190, 215.4316
539.8960, 13.46094
541.0730, 39.49805
542.2490, 235.4492
543.4250, 123.4316
544.6020, 18.41797
545.7780, 182.4375
546.9530, 408.4746
548.1290, 127.6152
549.3040, 26.31445
550.4800, 233.9531
551.6550, 363.9180
552.8300, 162.0527
554.0040, 118.5000
555.1790, 186.4121
556.3540, 643.7168
557.5280, 712.7207
558.7020, 1103.555
559.8760, 1394.232
561.0500, 2144.494
562.2230, 2918.582
563.3970, 3384.658
564.5700, 3095.730
565.7430, 2865.793
566.9160, 2087.850
568.0890, 1710.125
569.2620, 1068.656
570.4340, 695.8047
571.6070, 659.3887
572.7790, 389.2500
573.9510, 599.6816
575.1230, 248.4062
576.2940, 349.8398
577.4660, 419.1348
578.6370, 255.9375
579.8080, 231.0020
580.9790, 336.7109
582.1500, 261.6484
583.3210, 337.5977
584.4910, 571.5078
585.6620, 608.4082
586.8320, 729.2930
588.0020, 589.1660
589.1720, 602.0234
590.3410, 456.8672
591.5110, 496.7070
592.6800, 481.9180
593.8500, 446.7148
595.0190, 566.7617
596.1880, 674.0703
597.3560, 851.0254
598.5250, 1097.936
599.6930, 1411.857
600.8620, 1865.039
602.0300, 2273.543
603.1970, 2790.998
604.3650, 3447.602
605.5330, 3823.652
606.7000, 4148.174
607.8680, 4357.869
609.0350, 4207.834
610.2020, 3598.953
611.3680, 3274.814
612.5350, 2535.098
613.7010, 2746.879
614.8680, 2357.312
616.0340, 2685.572
617.2000, 2758.715
618.3660, 2952.924
619.5310, 2674.451
620.6970, 2980.758
621.8620, 2766.807
623.0270, 2835.055
624.1920, 2846.832
625.3570, 2923.996
626.5220, 3174.279
627.6860, 3323.930
628.8500, 3518.688
630.0140, 3344.168
631.1780, 3675.752
632.3420, 3530.047
633.5060, 3671.070
634.6700, 3357.188
635.8330, 3564.254
636.9960, 3794.484
638.1590, 3862.230
639.3220, 3627.836
640.4850, 3615.924
641.6470, 3034.268
642.8100, 2706.619
643.9720, 2312.879
645.1340, 2267.102
646.2960, 2182.736
647.4570, 2235.893
648.6190, 2365.355
649.7800, 2573.596
650.9420, 2987.168
652.1030, 3012.814
653.2640, 3605.625
654.4240, 3893.641
655.5850, 4228.684
656.7450, 4489.664
657.9060, 4549.703
659.0660, 4298.043
660.2260, 4131.973
661.3850, 3338.807
662.5450, 2761.535
663.7040, 2274.135
664.8640, 1953.885
666.0230, 1545.250
667.1820, 1618.242
668.3410, 1645.586
669.4990, 1583.188
670.6580, 1683.369
671.8160, 1595.717
672.9740, 1370.857
674.1320, 1058.654
675.2900, 716.9336
676.4480, 667.8398
677.6050, 564.2344
678.7630, 499.3125
679.9200, 467.7324
681.0770, 402.1895
682.2340, 436.8535
683.3900, 322.4531
684.5470, 369.4277
685.7030, 366.3574
686.8590, 238.3223
688.0150, 106.4355
689.1710, 24.62500
690.3270, 45.08594
691.4830, 49.66992
692.6380, 20.28125
693.7930, 23.92383
694.9480, 15.33789
696.1030, 63.61719
697.2580, 99.04297
698.4130, 136.5312
699.5670, 236.9902
700.7210, 278.2617
701.8750, 540.4863
703.0290, 365.6621
704.1830, 505.7891
705.3370, 332.8691
706.4900, 234.9023
707.6430, 172.8828
708.7970, 263.8125
709.9490, 159.6914
711.1020, 92.51758
712.2550, 195.2871
713.4070, 124.0059
714.5600, 192.6680
715.7120, 16.72461
716.8640, 102.7949
718.0160, 62.25977
719.1670, 122.6621
720.3190, 361.0098
721.4700, 73.30469
722.6210, 333.5430
723.7720, 547.7305
724.9230, 516.8691
726.0740, 400.9551
727.2250, 396.9922
728.3750, 416.9785
729.5250, 312.9121
730.6750, 221.7988
731.8250, 356.6289
732.9750, 255.4062
734.1240, 3.867188
735.2740, 63.77344
736.4230, 66.35547
737.5720, 81.87109
738.7210, 170.3301
739.8700, 127.6309
741.0190, 135.0742
742.1670, 97.35742
743.3150, 18.41797
744.4630, 26.28711
745.6110, 93.25000
746.7590, 52.65625
747.9070, 191.4980
749.0540, 17.71680
750.2020, 142.9766
751.3490, 59.61328
752.4960, 96.18750
753.6430, 10.30078
754.7890, 40.87305
755.9360, 58.54492
757.0820, 32.33008
758.2280, 98.78516
759.3740, 26.16016
760.5200, 99.80469
761.6660, 43.70898
762.8120, 106.5469
763.9570, 64.67188
765.1020, 23.54492
766.2470, 169.4277
767.3920, 9.982422
768.5370, 120.6777
769.6810, 5.476563
770.8260, 326.6445
771.9700, 84.28320
773.1140, 74.66992
774.2580, 252.5664
775.4020, 120.4082
776.5460, 24.19336
777.6890, 259.9121
778.8320, 46.41992
779.9750, 0.1503910
781.1180, 31.35156
782.2610, 15.94141
783.4040, 82.39258
784.5460, 28.67969
785.6890, 104.1348
786.8310, 147.0703
787.9730, 68.18750
789.1150, 268.2441
790.2560, 1.746094
791.3980, 18.19336
792.5390, 246.9297
793.6810, 147.7500
794.8220, 8.373047
795.9630, 55.93555
797.1030, 125.4453
798.2440, 59.10352
799.3840, 142.2500
800.5240, 61.55664
801.6650, 122.8086
802.8040, 295.0371
803.9440, 20.71875
805.0840, 260.4609
806.2230, 28.61328
807.3630, 323.7500
808.5020, 3.861328
809.6410, 10.90625
810.7790, 83.93945
811.9180, 216.9648
813.0570, 25.00781
814.1950, 188.0215
815.3330, 8.5937999E-02
816.4710, 162.1387
817.6090, 366.1465
818.7470, 333.1133
819.8840, 218.0352
821.0220, 117.9082
822.1590, 39.27148
823.2960, 25.00586
824.4330, 290.0430
825.5690, 80.01758
826.7060, 150.0117
827.8420, 374.6523
828.9790, 225.0918
830.1150, 305.1660
831.2510, 194.7344
832.3860, 110.8633
833.5220, 308.2461
834.6570, 272.7656
835.7930, 267.3926
836.9280, 375.3887
838.0630, 324.5117
839.1980, 370.5996
840.3320, 537.6426
841.4670, 659.6484
842.6010, 665.8867
843.7350, 714.3066
844.8690, 746.6953
846.0030, 739.6465
847.1370, 677.6523
848.2700, 774.5605
849.4040, 655.8516
850.5370, 765.8105
851.6700, 811.0137
852.8030, 649.3125
853.9360, 892.0527
855.0680, 964.4746
856.2000, 828.2070
857.3330, 980.6602
858.4650, 1015.379
859.5970, 1430.424
860.7290, 1242.758
861.8600, 1403.053
862.9920, 1605.312
864.1230, 1355.539
865.2540, 1398.725
866.3850, 1349.869
867.5160, 1353.592
868.6460, 1275.674
869.7770, 1552.449
870.9070, 1464.295
872.0370, 1255.676
873.1670, 1518.430
874.2970, 1596.277
875.4270, 1670.516
876.5570, 1801.541
877.6860, 1974.777
878.8150, 2217.375
879.9440, 2411.736
881.0730, 2637.586
882.2020, 2915.219
883.3300, 3464.576
884.4590, 3847.725
885.5870, 4473.102
886.7150, 5168.996
887.8430, 5873.383
888.9710, 6123.135
890.0990, 6453.008
891.2260, 6672.973
892.3530, 6438.807
893.4810, 5980.271
894.6080, 5618.893
895.7340, 4779.709
896.8610, 4341.316
897.9880, 3985.359
899.1140, 3511.988
900.2400, 3460.447
901.3660, 3277.982
902.4920, 3020.846
903.6180, 3042.666
904.7430, 2877.166
905.8690, 2667.516
906.9940, 2582.395
908.1190, 2501.312
909.2440, 2134.951
910.3690, 2375.242
911.4930, 2094.621
912.6180, 2200.088
913.7420, 2342.539
914.8660, 2204.172
915.9900, 2159.938
917.1140, 1956.471
918.2380, 2266.330
919.3610, 2117.574
920.4850, 2715.590
921.6080, 2773.439
922.7310, 2864.309
923.8540, 2944.600
924.9760, 3194.184
926.0990, 3443.293
927.2210, 3824.289
928.3440, 4180.592
929.4660, 4677.691
930.5880, 4893.492
931.7090, 5330.066
932.8310, 6058.053
933.9520, 7056.887
935.0740, 7522.805
936.1950, 8658.543
937.3160, 9181.395
938.4360, 10366.64
939.5570, 11326.55
940.6780, 12089.18
941.7980, 13123.17
942.9180, 14316.42
944.0380, 15584.74
945.1580, 17707.54
946.2780, 18977.58
947.3970, 20806.17
948.5170, 22426.13
949.6360, 23538.08
950.7550, 25025.83
951.8740, 24969.63
952.9930, 25462.07
954.1110, 25096.49
955.2300, 24193.45
956.3480, 23622.97
957.4660, 22343.46
958.5840, 21384.03
959.7020, 21009.03
960.8190, 20753.30
961.9370, 20787.88
963.0540, 19933.15
964.1710, 18991.04
965.2880, 17645.21
966.4050, 15807.63
967.5220, 14058.95
968.6380, 12332.04
969.7550, 10722.79
970.8710, 9370.852
971.9870, 8111.348
973.1030, 7018.107
974.2190, 6071.676
975.3340, 5253.658
976.4500, 4513.684
977.5650, 4264.258
978.6800, 3640.234
979.7950, 3179.320
980.9100, 2985.250
982.0250, 2586.375
983.1390, 2658.291
984.2530, 2079.500
985.3680, 2128.168
986.4820, 1994.084
987.5950, 1857.754
988.7090, 1967.178
989.8230, 1721.369
990.9360, 2266.637
992.0490, 1754.443
993.1620, 2163.877
994.2750, 2553.559
995.3880, 2859.227
996.5010, 3637.082
997.6130, 4049.457
998.7250, 4775.039
999.8370, 5474.074
1000.949, 6103.170
1002.061, 6692.359
1003.173, 6421.840
1004.284, 5910.971
1005.396, 5097.953
1006.507, 4274.121
1007.618, 2998.500
1008.729, 2322.949
1009.839, 1800.650
1010.950, 1855.805
1012.060, 1465.955
1013.171, 1387.502
1014.281, 1140.000
1015.391, 867.7305
1016.500, 826.0664
1017.610, 948.0605
1018.719, 588.4551
1019.829, 811.7109
1020.938, 604.7930
1022.047, 730.4062
1023.156, 776.2969
1024.264, 852.1797
1025.373, 648.1016
1026.481, 897.8164
1027.589, 538.0273
1028.697, 547.1602
1029.805, 492.9375
1030.913, 416.2695
1032.020, 292.9531
1033.128, 453.3945
1034.235, 109.1992
1035.342, 399.9414
1036.449, 52.59766
1037.556, 91.17578
1038.663, 182.9727
1039.769, 105.3398
1040.875, 60.18750
1041.981, 124.1758
1043.087, 154.1758
1044.193, 251.0977
1045.299, 231.3906
1046.404, 104.8633
1047.510, 223.7031
1048.615, 11.51562
1049.720, 2.753906
1050.825, 14.46484
1051.930, 35.06641
1053.034, 110.7891
1054.139, 61.56641
1055.243, 94.19922
1056.347, 137.1953
1057.451, 29.76562
1058.555, 98.19141
1059.658, 57.53906
1060.762, 204.9727
1061.865, 19.16406
1062.968, 59.41406
1064.071, 28.28906
1065.174, 386.2188
1066.277, 53.60156
1067.380, 35.85547
1068.482, 225.6133
1069.584, 85.57812
1070.686, 80.35547
1071.788, 28.11328
1072.890, 204.6641
1073.992, 87.01172
1075.093, 109.9492
1076.194, 155.1836
1077.295, 72.02344
1078.396, 146.4023
1079.497, 144.0078
1080.598, 117.7461
1081.698, 361.4102
1082.799, 445.5352
1083.899, 457.9648
1084.999, 406.7422
1086.099, 451.4492
1087.199, 455.1172
1088.298, 480.7617
1089.398, 355.4141
1090.497, 221.1055
1091.596, 64.67969
1092.695, 379.2070
1093.794, 422.7070
1094.892, 339.1719
1095.991, 274.6094
1097.089, 44.45703
1098.187, 111.8125
1099.285, 52.42188
1100.383, 26.30078
1101.481, 102.2109
1102.579, 100.3906
1103.676, 181.5273
1104.773, 371.6211
1105.870, 153.6836
1106.967, 48.70703
1108.064, 367.6836
1109.161, 135.6289
1110.257, 343.5352
1111.353, 242.4023
1112.449, 435.2422
1113.545, 223.0352
1114.641, 28.79688
1115.737, 28.48438
1116.832, 79.16406
1117.928, 18.77344
1119.023, 72.12109
1120.118, 126.0938
1121.213, 177.3359
1122.308, 154.7734
1123.402, 259.1758
1124.497, 105.5430
1125.591, 554.8711
1126.685, 37.15625
1127.779, 226.4023
1128.873, 0.6054690
1129.967, 301.7617
1131.060, 10.11719
1132.153, 146.9375
1133.247, 119.9570
1134.340, 284.9375
1135.433, 122.8828
1136.525, 155.7852
1137.618, 107.6484
1138.710, 52.46875
1139.802, 64.74609
1140.895, 11.94141
1141.987, 91.58594
1143.078, 87.18750
1144.170, 146.2539
1145.261, 33.82812
1146.353, 21.45312
1147.444, 158.1445
1148.535, 116.0312
1149.626, 79.83594
1150.716, 364.2070
1151.807, 138.7969
1152.897, 274.9219
1153.988, 115.7539
1155.078, 88.61328
1156.168, 103.9141
1157.257, 154.4023
1158.347, 271.8477
1159.436, 411.2617
1160.526, 151.3555
1161.615, 65.11719
1162.704, 102.9648
1163.793, 13.07422
1164.881, 102.0664
1165.970, 112.5391
1167.058, 137.4766
1168.147, 150.6758
1169.235, 100.9922
1170.323, 197.6562
1171.410, 73.94922
1172.498, 374.0117
1173.585, 33.30078
1174.673, 348.6719
1175.760, 314.3359
1176.847, 343.9609
1177.934, 285.0156
1179.020, 48.53125
1180.107, 162.8047
1181.193, 340.2930
1182.279, 201.3945
1183.365, 40.40625
1184.451, 247.3828
1185.537, 419.9336
1186.623, 178.5742
1187.708, 360.3594
1188.793, 56.66016
1189.878, 34.20312
1190.963, 14.46875
1192.048, 12.59375
1193.133, 84.43750
1194.217, 166.5898
1195.302, 143.2656
1196.386, 336.4531
1197.470, 54.46484
1198.554, 163.3594
1199.638, 10.98828
1200.721, 337.7734
1201.805, 228.8008
1202.888, 89.05469
1203.971, 183.4453
1205.054, 33.30469
1206.137, 94.22266
1207.219, 137.2852
1208.302, 139.9648
1209.384, 77.91797
1210.466, 35.82422
1211.548, 48.57812
1212.630, 167.8867
1213.712, 89.16406
1214.794, 236.4023
1215.875, 366.6133
1216.956, 416.7930
1218.037, 530.9375
1219.118, 232.0547
1220.199, 217.1445
1221.280, 351.0195
1222.360, 531.2070
1223.441, 357.2109
1224.521, 362.1758
1225.601, 491.1172
1226.681, 130.0234
1227.760, 418.9727
1228.840, 166.1680
1229.919, 427.0820
1230.999, 161.9766
1232.078, 416.0352
1233.157, 731.0586
1234.236, 346.3906
1235.314, 591.0664
1236.393, 379.2188
1237.471, 561.9062
1238.549, 470.5039
1239.627, 519.4922
1240.705, 751.0352
1241.783, 278.4180
1242.860, 776.9023
1243.938, 535.1445
1245.015, 556.5898
1246.092, 637.6484
1247.169, 360.2031
1248.246, 608.4648
1249.323, 612.9414
1250.399, 541.6133
1251.475, 722.4922
1252.552, 584.2500
1253.628, 558.4219
1254.703, 302.9414
1255.779, 600.1719
1256.855, 750.3945
1257.930, 404.3867
1259.005, 559.8125
1260.080, 811.9844
1261.155, 956.6523
1262.230, 657.2148
1263.305, 645.6406
1264.379, 655.7227
1265.454, 676.1172
1266.528, 907.6328
1267.602, 1046.926
1268.676, 1089.965
1269.750, 833.8906
1270.823, 998.5273
1271.897, 1058.664
1272.970, 799.7617
1274.043, 871.4180
1275.116, 1030.445
1276.189, 750.8711
1277.261, 771.7734
1278.334, 740.3281
1279.406, 983.1875
1280.478, 685.9805
1281.550, 828.9062
1282.622, 938.2617
1283.694, 666.2969
1284.766, 571.3125
1285.837, 561.2695
1286.908, 523.9922
1287.979, 593.1953
1289.050, 609.7891
1290.121, 758.7969
1291.192, 731.1992
1292.262, 774.2148
1293.333, 920.4297
1294.403, 773.1719
1295.473, 1118.055
1296.543, 992.7148
1297.613, 852.7422
1298.682, 1025.547
1299.752, 874.7461
1300.821, 967.4141
1301.890, 751.9492
1302.959, 951.1055
1304.028, 938.6172
1305.096, 796.1211
1306.165, 1071.609
1307.233, 1034.086
1308.301, 1207.602
1309.370, 917.5898
1310.437, 823.0430
1311.505, 1286.180
1312.573, 893.1367
1313.640, 1079.457
1314.708, 1022.879
1315.775, 1029.910
1316.842, 1375.324
1317.908, 1369.840
1318.975, 1151.262
1320.042, 1055.855
1321.108, 1287.570
1322.174, 1150.199
1323.240, 1075.168
1324.306, 1056.043
1325.372, 979.4102
1326.438, 967.5820
1327.503, 922.8867
1328.568, 912.7578
1329.634, 921.1602
1330.699, 840.4766
1331.763, 790.2266
1332.828, 517.3750
1333.893, 443.8945
1334.957, 638.6719
1336.021, 739.6328
1337.085, 248.6094
1338.149, 583.3281
1339.213, 349.8750
1340.277, 500.4805
1341.340, 560.5859
1342.404, 384.3633
1343.467, 409.7578
1344.530, 581.1875
1345.593, 642.6211
1346.655, 449.0547
1347.718, 655.4453
1348.780, 375.7812
1349.843, 730.2188
1350.905, 658.6562
1351.967, 473.0977
1353.028, 633.5352
1354.090, 352.9805
1355.152, 239.9766
1356.213, 318.4219
1357.274, 228.5898
1358.335, 760.0117
1359.396, 427.1562
1360.457, 294.5859
1361.517, 580.0234
1362.578, 336.4609
1363.638, 285.9062
1364.698, 448.3516
1365.758, 297.8047
1366.818, 324.2656
1367.878, 410.6758
1368.937, 455.0117
1369.997, 477.3477
1371.056, 331.6914
1372.115, 75.12500
1373.174, 166.4688
1374.232, 560.3320
1375.291, 342.7031
1376.350, 391.0781
1377.408, 540.4648
1378.466, 463.0977
1379.524, 398.4922
1380.582, 487.8984
1381.640, 455.1211
1382.697, 570.5391
1383.754, 294.2852
1384.812, 677.7188
1385.869, 497.6523
1386.926, 355.1016
1387.983, 521.5625
1389.039, 332.1758
1390.096, 322.3555
1391.152, 233.9766
1392.208, 249.4766
1393.264, 196.3438
1394.320, 224.2461
1395.376, 184.7656
1396.431, 161.3008
1397.487, 138.8633
1398.542, 133.4414
1399.597, 345.0391
1400.652, 147.6367
1401.707, 107.7109
1402.762, 385.9492
1403.816, 86.62891
1404.871, 37.63281
1405.925, 63.11719
1406.979, 138.9141
1408.033, 271.7109
1409.086, 251.5625
1410.140, 278.3398
1411.194, 168.2227
1412.247, 223.8711
1413.300, 140.5078
1414.353, 96.14844
1415.406, 132.4453
1416.458, 245.3789
1417.511, 181.9688
1418.563, 148.5820
1419.616, 191.2148
1420.668, 126.1562
1421.720, 192.5312
1422.772, 185.8984
1423.823, 188.6016
1424.875, 167.0781
1425.926, 122.7461
1426.977, 326.1914
1428.028, 182.7617
1429.079, 8.812500
1430.130, 449.2266
1431.180, 322.6289
1432.231, 348.0273
1433.281, 642.4102
1434.331, 575.5938
1435.381, 552.6680
1436.431, 570.7734
1437.481, 894.0898
1438.530, 1022.586
1439.580, 1291.082
1440.629, 1374.348
1441.678, 1101.391
1442.727, 1429.578
1443.776, 1508.820
1444.824, 1378.098
1445.873, 1752.398
1446.921, 1633.727
1447.969, 1628.090
1449.017, 1723.469
1450.065, 1860.879
1451.113, 2015.316
1452.160, 1974.781
1453.208, 1838.281
1454.255, 1861.805
1455.302, 1910.352
1456.349, 1950.922
1457.396, 1668.508
1458.443, 2186.117
1459.489, 1659.746
1460.535, 1786.398
1461.582, 1732.078
1462.628, 1353.781
1463.674, 1530.508
1464.719, 1053.262
1465.765, 1123.039
1466.810, 1283.836
1467.856, 1264.664
1468.901, 1054.473
1469.946, 947.3555
1470.991, 910.2695
1472.035, 874.1836
1473.080, 953.1094
1474.124, 843.9883
1475.169, 533.7969
1476.213, 979.6211
1477.257, 651.4727
1478.300, 952.3438
1479.344, 786.2266
1480.388, 545.1250
1481.431, 1044.047
1482.474, 807.9961
1483.517, 645.7383
1484.560, 843.5078
1485.603, 549.8594
1486.645, 617.7695
1487.688, 393.7070
1488.730, 474.6680
1489.772, 336.5430
1490.814, 324.5664
1491.856, 535.6172
1492.898, 268.6797
1493.939, 261.7031
1494.981, 312.3945
1496.022, 197.2227
1497.063, 144.5859
1498.104, 260.3047
1499.145, 53.05469
1500.186, 326.8477
1501.226, 184.6641
1502.266, 232.5508
1503.307, 46.52344
1504.347, 288.4180
1505.387, 526.3711
1506.426, 68.66406
1507.466, 250.3203
1508.505, 122.6914
1509.545, 416.3008
1510.584, 73.30469
1511.623, 240.3086
1512.662, 394.3203
1513.700, 165.3281
1514.739, 56.33594
1515.777, 169.3398
1516.815, 221.3398
1517.854, 2.675781
1518.892, 115.3008
1519.929, 228.2695
1520.967, 404.2227
1522.004, 494.1562
1523.042, 538.0781
1524.079, 216.0938
1525.116, 434.2500
1526.153, 371.0547
1527.190, 360.6133
1528.226, 426.7773
1529.263, 520.5898
1530.299, 469.7422
1531.335, 486.6172
1532.371, 492.9883
1533.407, 452.4062
1534.443, 273.9492
1535.478, 400.5273
1536.514, 273.3945
1537.549, 363.2773
1538.584, 388.2031
1539.619, 239.6914
1540.654, 345.2461
1541.689, 394.9102
1542.723, 359.7734
1543.757, 467.1680
1544.792, 292.9453
1545.826, 149.1016
1546.860, 182.4492
1547.893, 286.7305
1548.927, 193.8164
1549.960, 110.6367
1550.994, 223.6445
1552.027, 12.67969
1553.060, 369.4023
1554.093, 42.00000
1555.126, 229.2461
1556.158, 234.1406
1557.191, 577.2383
1558.223, 332.8398
1559.255, 322.5820
1560.287, 1.046875
1561.319, 33.89453
1562.350, 50.78125
1563.382, 0.0000000E+00
##END=



