##NAMES=Laverovite
##RRUFFID=R060216
##IDEAL CHEMISTRY=K_2_NaMn^2+^_7_Zr^4+^_2_(Si_4_O_12_)_2_O_2_(OH)_4_F
##LOCALITY=Desourdy Quarry, Mont Saint-Hilaire, Rouville County, Quebec, Canada
##OWNER=RRUFF
##SOURCE=Royal Ontario Museum
##DESCRIPTION=Brown fragment showing lamellar habit. Type sample
##STATUS=The identification of this mineral has been confirmed by X-ray diffraction and chemical analysis
##URL=rruff.info/R060216
##MEASURED CHEMISTRY=(K_1.74_Na_0.18_[box]_0.08_)_Σ=2_(Na_0.92_Ca_0.08_)_Σ=1_(Mn_4.09_Fe^2+^_2.67_Mg_0.24_)_Σ=7_(Zr_1.42_Ti_0.58_)_Σ=2_(Si_7.86_Al_0.14_)_Σ=8_O_26_((OH)_3.14_O_0.86_)_Σ=4_
##PIN_ID=L00587
##ORIENTATION=Laser parallel to -b* (0 -1 0). Fiducial mark perpendicular to laser is parallel to -c [0 0 -1]
159.7350, 0.0000000E+00
160.9660, 261.2949
162.1970, 1139.842
163.4270, 1764.080
164.6580, 2674.684
165.8880, 2914.621
167.1180, 3033.785
168.3480, 2750.471
169.5780, 2829.613
170.8080, 2587.701
172.0370, 2553.246
173.2670, 2214.533
174.4960, 2022.297
175.7250, 1805.709
176.9540, 1525.816
178.1820, 1388.395
179.4110, 1003.381
180.6390, 1005.111
181.8670, 706.2891
183.0950, 987.7324
184.3230, 1487.785
185.5500, 2187.715
186.7780, 2327.273
188.0050, 1931.139
189.2320, 1881.285
190.4590, 1963.070
191.6850, 2036.428
192.9120, 1981.543
194.1380, 2078.330
195.3650, 2343.787
196.5910, 2404.152
197.8160, 2583.887
199.0420, 2742.162
200.2680, 3309.787
201.4930, 4286.414
202.7180, 4239.770
203.9430, 2694.617
205.1680, 565.8730
206.3930, 60.51367
207.6170, 492.5898
208.8410, 673.4141
210.0660, 490.1035
211.2890, 271.7051
212.5130, 0.7617190
213.7370, 80.42969
214.9600, 416.8672
216.1840, 229.4785
217.4070, 331.5879
218.6300, 321.3633
219.8520, 696.0801
221.0750, 654.1719
222.2970, 903.7734
223.5200, 874.5742
224.7420, 1024.967
225.9640, 1251.334
227.1850, 1432.672
228.4070, 1603.281
229.6280, 1772.301
230.8490, 1942.881
232.0700, 2037.863
233.2910, 2191.322
234.5120, 2254.637
235.7320, 2368.396
236.9530, 2556.912
238.1730, 2556.387
239.3930, 2417.973
240.6130, 2476.900
241.8320, 2298.541
243.0520, 2256.234
244.2710, 2323.002
245.4900, 2132.719
246.7090, 1937.895
247.9280, 1983.797
249.1470, 1740.494
250.3650, 1823.994
251.5840, 1639.297
252.8020, 1920.416
254.0200, 1440.230
255.2370, 1675.797
256.4550, 1795.695
257.6720, 1805.305
258.8900, 1377.658
260.1070, 1512.617
261.3240, 1421.750
262.5400, 1321.518
263.7570, 1535.305
264.9730, 1353.590
266.1900, 1217.656
267.4060, 996.6758
268.6220, 990.5586
269.8370, 943.5156
271.0530, 835.3242
272.2680, 736.0449
273.4830, 520.6660
274.6980, 705.1836
275.9130, 821.5898
277.1280, 801.8906
278.3420, 722.0781
279.5570, 702.1484
280.7710, 722.1074
281.9850, 648.5352
283.1990, 707.4707
284.4120, 592.2793
285.6260, 766.7754
286.8390, 832.1562
288.0520, 808.4219
289.2650, 872.5723
290.4780, 827.5938
291.6910, 881.5000
292.9030, 1029.289
294.1160, 865.1445
295.3280, 958.0742
296.5400, 922.0449
297.7510, 796.6992
298.9630, 1023.807
300.1740, 711.4629
301.3860, 814.7578
302.5970, 865.3926
303.8080, 786.4121
305.0180, 743.9824
306.2290, 712.1094
307.4390, 395.3691
308.6500, 585.9082
309.8600, 755.4336
311.0700, 545.0391
312.2790, 700.3770
313.4890, 405.8477
314.6980, 468.8555
315.9080, 431.1133
317.1170, 727.9434
318.3250, 570.2402
319.5340, 617.7422
320.7430, 713.3105
321.9510, 783.4844
323.1590, 790.2324
324.3670, 828.9570
325.5750, 858.9648
326.7830, 923.3750
327.9900, 1014.775
329.1980, 1063.916
330.4050, 1140.969
331.6120, 1188.203
332.8190, 1307.436
334.0250, 1534.564
335.2320, 1558.820
336.4380, 1806.273
337.6440, 1944.896
338.8500, 1693.629
340.0560, 2099.053
341.2620, 2215.463
342.4670, 2242.861
343.6730, 2532.330
344.8780, 2376.766
346.0830, 2444.053
347.2870, 2598.297
348.4920, 2758.682
349.6970, 2671.824
350.9010, 2969.795
352.1050, 2718.258
353.3090, 3005.631
354.5130, 3168.076
355.7160, 3256.229
356.9200, 2957.982
358.1230, 3544.648
359.3260, 3474.262
360.5290, 3151.945
361.7320, 3544.309
362.9340, 3505.270
364.1370, 3498.988
365.3390, 3464.748
366.5410, 3352.002
367.7430, 3270.348
368.9450, 3157.836
370.1460, 3126.998
371.3480, 3042.711
372.5490, 3089.230
373.7500, 2952.898
374.9510, 2947.482
376.1520, 2973.336
377.3520, 2698.105
378.5520, 2742.395
379.7530, 2552.551
380.9530, 2407.824
382.1530, 2475.715
383.3520, 2216.428
384.5520, 2089.898
385.7510, 2140.877
386.9500, 2136.965
388.1490, 1942.494
389.3480, 1807.117
390.5470, 1992.682
391.7450, 1745.385
392.9440, 1989.740
394.1420, 1712.775
395.3400, 1739.723
396.5380, 1749.576
397.7350, 1870.340
398.9330, 1737.014
400.1300, 1864.596
401.3270, 1496.092
402.5240, 1485.506
403.7210, 1520.842
404.9180, 1650.105
406.1140, 1196.291
407.3110, 1202.404
408.5070, 1011.443
409.7030, 1054.414
410.8990, 1005.311
412.0940, 1078.137
413.2900, 1057.893
414.4850, 1090.578
415.6800, 1159.193
416.8750, 1074.357
418.0700, 1097.555
419.2650, 1189.465
420.4590, 1091.594
421.6530, 1095.004
422.8470, 971.8086
424.0410, 978.4766
425.2350, 890.1680
426.4290, 760.5000
427.6220, 601.0215
428.8160, 684.0078
430.0090, 255.6660
431.2020, 117.4238
432.3940, 253.1055
433.5870, 10.71484
434.7790, 102.2324
435.9720, 37.67383
437.1640, 183.9707
438.3560, 100.7617
439.5470, 332.6816
440.7390, 257.8066
441.9300, 207.1445
443.1220, 300.6758
444.3130, 318.9766
445.5040, 310.4238
446.6940, 537.1895
447.8850, 299.9238
449.0750, 87.50586
450.2660, 414.4727
451.4560, 377.9141
452.6460, 184.4238
453.8350, 267.5703
455.0250, 188.2715
456.2140, 261.4062
457.4040, 135.3613
458.5930, 11.05273
459.7820, 204.8066
460.9700, 74.76758
462.1590, 206.5332
463.3470, 264.5645
464.5350, 217.0820
465.7240, 399.7773
466.9110, 282.3945
468.0990, 246.0664
469.2870, 423.7598
470.4740, 416.6309
471.6610, 488.7871
472.8480, 595.0684
474.0350, 638.6074
475.2220, 914.2988
476.4090, 805.9707
477.5950, 363.5879
478.7810, 704.1445
479.9670, 490.6465
481.1530, 456.0957
482.3390, 647.4883
483.5240, 640.8281
484.7100, 501.1133
485.8950, 470.3438
487.0800, 462.5234
488.2650, 594.6504
489.4490, 564.7227
490.6340, 419.7422
491.8180, 516.7129
493.0030, 337.6270
494.1870, 394.3750
495.3700, 503.3848
496.5540, 378.4121
497.7380, 372.6191
498.9210, 197.9609
500.1040, 281.3711
501.2870, 40.77930
502.4700, 70.16211
503.6530, 154.4961
504.8350, 51.78906
506.0180, 81.03906
507.2000, 105.2422
508.3820, 48.60547
509.5640, 82.47266
510.7450, 26.49609
511.9270, 116.4629
513.1080, 3.623047
514.2890, 18.77148
515.4700, 17.98047
516.6510, 134.7480
517.8320, 46.42578
519.0130, 70.94922
520.1930, 123.6035
521.3730, 117.1094
522.5530, 53.56641
523.7330, 103.9746
524.9130, 100.8984
526.0920, 120.7480
527.2710, 199.9336
528.4510, 138.1680
529.6300, 273.3633
530.8080, 181.5215
531.9870, 164.6445
533.1660, 101.7305
534.3440, 156.6055
535.5220, 439.7871
536.7000, 354.7637
537.8780, 574.7285
539.0560, 802.6895
540.2330, 729.6367
541.4110, 1082.574
542.5880, 1333.520
543.7650, 1400.475
544.9420, 1660.350
546.1180, 1762.455
547.2950, 2101.500
548.4710, 2421.576
549.6470, 2919.721
550.8230, 2942.904
551.9990, 3531.137
553.1750, 3777.447
554.3500, 3785.826
555.5260, 4082.857
556.7010, 4118.840
557.8760, 4206.449
559.0510, 4221.139
560.2250, 4105.822
561.4000, 4088.523
562.5740, 3749.250
563.7480, 3676.055
564.9220, 3285.934
566.0960, 3193.871
567.2700, 3162.812
568.4430, 2885.605
569.6170, 2614.770
570.7900, 2565.334
571.9630, 2343.963
573.1360, 2050.996
574.3080, 2246.359
575.4810, 2321.223
576.6530, 2290.623
577.8250, 1822.037
578.9980, 1902.746
580.1690, 1763.195
581.3410, 1599.855
582.5130, 2360.236
583.6840, 1893.648
584.8550, 2053.273
586.0260, 2141.838
587.1970, 1962.043
588.3680, 2132.121
589.5380, 2029.219
590.7080, 1941.783
591.8790, 2258.971
593.0490, 2252.617
594.2190, 2140.574
595.3880, 2215.482
596.5580, 2046.551
597.7270, 2192.211
598.8960, 2085.992
600.0650, 2084.170
601.2340, 2214.424
602.4030, 2043.719
603.5710, 2197.098
604.7400, 2140.777
605.9080, 2249.316
607.0760, 2361.676
608.2440, 2386.600
609.4120, 2408.430
610.5790, 2344.059
611.7460, 2497.715
612.9140, 2416.729
614.0810, 2689.172
615.2480, 2725.639
616.4140, 2828.125
617.5810, 2936.633
618.7470, 3023.389
619.9130, 3143.941
621.0790, 3327.338
622.2450, 3255.645
623.4110, 3444.264
624.5770, 3407.906
625.7420, 3649.566
626.9070, 3998.148
628.0720, 4085.758
629.2370, 4332.494
630.4020, 4589.258
631.5660, 4736.854
632.7310, 5538.662
633.8950, 5907.029
635.0590, 6243.691
636.2230, 5680.578
637.3870, 6149.285
638.5500, 6592.020
639.7140, 7104.078
640.8770, 7770.535
642.0400, 8515.039
643.2030, 9196.719
644.3660, 9961.801
645.5280, 11157.51
646.6910, 12398.39
647.8530, 13221.42
649.0150, 14200.76
650.1770, 15029.81
651.3390, 15494.67
652.5000, 15456.96
653.6620, 15796.65
654.8230, 14828.80
655.9840, 14877.67
657.1450, 12656.26
658.3060, 11642.53
659.4660, 10675.84
660.6270, 9853.545
661.7870, 9068.285
662.9470, 8288.812
664.1070, 7883.611
665.2670, 7325.449
666.4260, 7181.432
667.5860, 6980.801
668.7450, 6879.971
669.9040, 6778.609
671.0630, 6965.074
672.2220, 6996.527
673.3800, 7261.773
674.5390, 7498.307
675.6970, 7654.098
676.8550, 7519.395
678.0130, 7858.451
679.1710, 8041.529
680.3290, 8506.070
681.4860, 8760.301
682.6430, 9249.629
683.8000, 9273.273
684.9570, 9535.879
686.1140, 9908.941
687.2710, 10322.65
688.4270, 10338.22
689.5840, 11007.30
690.7400, 10938.85
691.8960, 11012.97
693.0520, 11306.00
694.2070, 11374.84
695.3630, 11725.64
696.5180, 11788.01
697.6730, 11939.96
698.8280, 12214.68
699.9830, 12508.94
701.1380, 12115.28
702.2920, 12472.18
703.4470, 12220.77
704.6010, 12336.87
705.7550, 12656.69
706.9090, 13334.64
708.0620, 12665.59
709.2160, 12908.27
710.3690, 12880.61
711.5220, 12773.32
712.6750, 12860.78
713.8280, 12663.69
714.9810, 12855.20
716.1340, 12705.73
717.2860, 12459.30
718.4380, 12470.96
719.5900, 12422.69
720.7420, 12069.55
721.8940, 11808.53
723.0450, 11411.61
724.1970, 11111.15
725.3480, 10919.13
726.4990, 10561.58
727.6500, 10364.79
728.8010, 10066.96
729.9510, 9906.773
731.1020, 9580.328
732.2520, 9314.740
733.4020, 8950.035
734.5520, 8640.332
735.7020, 8350.369
736.8510, 7942.211
738.0010, 7792.775
739.1500, 7593.371
740.2990, 7383.980
741.4480, 7303.609
742.5970, 6921.252
743.7450, 6839.906
744.8940, 6562.574
746.0420, 6601.252
747.1900, 6577.938
748.3380, 6506.637
749.4860, 6258.344
750.6330, 7346.057
751.7810, 7491.777
752.9280, 7026.504
754.0750, 6193.234
755.2220, 6254.967
756.3690, 5954.707
757.5160, 6133.453
758.6620, 5930.203
759.8090, 5746.957
760.9550, 5983.715
762.1010, 5752.480
763.2470, 5523.250
764.3920, 5586.023
765.5380, 5108.799
766.6830, 4931.576
767.8280, 4762.363
768.9730, 4658.146
770.1180, 4403.938
771.2630, 4178.730
772.4070, 3767.531
773.5520, 3715.332
774.6960, 3697.137
775.8400, 3221.947
776.9840, 3184.760
778.1280, 3019.578
779.2710, 2854.400
780.4140, 2897.230
781.5580, 2768.068
782.7010, 2637.916
783.8440, 2543.770
784.9860, 2402.629
786.1290, 2272.498
787.2710, 2085.381
788.4140, 1980.271
789.5560, 1908.170
790.6980, 1771.074
791.8390, 1762.984
792.9810, 1625.908
794.1220, 1520.842
795.2640, 1341.779
796.4050, 1375.725
797.5460, 995.6855
798.6860, 1151.648
799.8270, 983.6191
800.9680, 800.5918
802.1080, 871.5703
803.2480, 684.5527
804.3880, 551.5391
805.5280, 487.5273
806.6670, 401.5176
807.8070, 198.5078
808.9460, 280.5020
810.0850, 297.4980
811.2240, 204.4961
812.3630, 316.4961
813.5020, 42.50391
814.6400, 70.54492
815.7790, 34.63867
816.9170, 40.77148
818.0550, 99.94727
819.1930, 115.5254
820.3300, 134.6445
821.4680, 195.9473
822.6050, 201.4961
823.7430, 194.1738
824.8800, 301.9805
826.0170, 212.9688
827.1530, 235.0938
828.2900, 354.3711
829.4260, 303.8613
830.5620, 430.5352
831.6990, 247.4629
832.8340, 322.5508
833.9700, 346.8340
835.1060, 13.67188
836.2410, 95.84375
837.3760, 128.4434
838.5120, 328.1348
839.6470, 307.0293
840.7810, 235.1113
841.9160, 55.34570
843.0500, 105.1094
844.1850, 105.0156
845.3190, 164.4746
846.4530, 127.0469
847.5870, 244.7148
848.7200, 14.53906
849.8540, 4.398438
850.9870, 333.7148
852.1200, 492.8262
853.2530, 322.9375
854.3860, 113.0488
855.5190, 322.1641
856.6510, 477.2754
857.7840, 260.3887
858.9160, 509.9805
860.0480, 439.8789
861.1800, 686.7207
862.3110, 624.8301
863.4430, 623.9375
864.5740, 1125.043
865.7060, 952.1445
866.8370, 1099.242
867.9680, 1072.336
869.0980, 1139.426
870.2290, 1357.510
871.3590, 1490.592
872.4900, 1822.666
873.6200, 1868.738
874.7500, 1798.805
875.8790, 1737.867
877.0090, 2089.926
878.1380, 2082.982
879.2680, 2096.039
880.3970, 2272.088
881.5260, 2246.133
882.6550, 2622.174
883.7830, 2513.209
884.9120, 2757.240
886.0400, 2867.268
887.1680, 3036.289
888.2960, 3043.311
889.4240, 3199.324
890.5520, 3329.355
891.6790, 3382.385
892.8070, 3475.410
893.9340, 3630.451
895.0610, 3775.492
896.1880, 3817.555
897.3140, 4054.613
898.4410, 4076.686
899.5670, 4306.754
900.6940, 4218.838
901.8200, 4459.920
902.9450, 4554.330
904.0710, 4694.979
905.1970, 4829.158
906.3220, 5046.236
907.4470, 5208.566
908.5730, 5349.381
909.6980, 5464.457
910.8220, 5486.533
911.9470, 5543.967
913.0710, 5471.680
914.1960, 5607.756
915.3200, 5558.848
916.4440, 5691.938
917.5680, 5838.033
918.6910, 5776.125
919.8150, 6001.229
920.9380, 5911.332
922.0610, 6117.463
923.1840, 5842.592
924.3070, 5850.723
925.4300, 5685.855
926.5520, 5745.984
927.6750, 5684.111
928.7970, 5612.686
929.9190, 5533.406
931.0410, 5526.598
932.1630, 5508.824
933.2840, 5534.082
934.4060, 5368.381
935.5270, 5382.719
936.6480, 5418.072
937.7690, 5198.453
938.8900, 5370.859
940.0100, 5450.287
941.1310, 5177.717
942.2510, 5147.148
943.3710, 5170.584
944.4910, 5129.039
945.6110, 5125.514
946.7310, 5038.986
947.8500, 5177.488
948.9690, 4900.516
950.0890, 5000.857
951.2080, 4547.215
952.3260, 4671.139
953.4450, 4339.447
954.5640, 4142.695
955.6820, 4042.680
956.8000, 3827.738
957.9180, 3643.377
959.0360, 3257.428
960.1540, 3190.646
961.2710, 3091.395
962.3890, 2564.723
963.5060, 2443.521
964.6230, 2276.461
965.7400, 2074.418
966.8570, 1800.844
967.9730, 1948.541
969.0900, 1696.727
970.2060, 1713.164
971.3220, 1517.104
972.4380, 1407.002
973.5540, 1573.373
974.6700, 1529.086
975.7850, 1420.350
976.9010, 1507.928
978.0160, 1608.418
979.1310, 1428.967
980.2460, 1557.822
981.3600, 1454.068
982.4750, 1343.977
983.5890, 1378.203
984.7030, 1631.029
985.8170, 1676.324
986.9310, 1772.662
988.0450, 1789.029
989.1590, 1909.631
990.2720, 2051.084
991.3850, 2139.396
992.4980, 2208.867
993.6110, 2336.406
994.7240, 2476.988
995.8370, 2619.031
996.9490, 2820.127
998.0620, 2957.930
999.1740, 3213.646
1000.286, 3396.393
1001.398, 3518.172
1002.509, 3665.982
1003.621, 3841.832
1004.732, 4059.334
1005.843, 4379.137
1006.954, 4560.699
1008.065, 5078.684
1009.176, 5374.699
1010.286, 5663.875
1011.397, 6196.701
1012.507, 6475.816
1013.617, 7066.965
1014.727, 7563.145
1015.837, 7989.359
1016.946, 7941.605
1018.056, 8786.883
1019.165, 9527.197
1020.274, 9514.578
1021.383, 10323.96
1022.492, 10407.52
1023.601, 11109.62
1024.709, 11639.11
1025.817, 11698.62
1026.926, 11905.62
1028.034, 12161.20
1029.141, 12052.56
1030.249, 12121.21
1031.357, 11994.12
1032.464, 11616.83
1033.571, 11306.75
1034.678, 10890.53
1035.785, 10350.34
1036.892, 9827.750
1037.999, 9264.664
1039.105, 8651.492
1040.211, 8054.428
1041.317, 7585.703
1042.423, 6976.414
1043.529, 6489.062
1044.635, 6193.623
1045.740, 5721.717
1046.845, 5416.799
1047.951, 5100.818
1049.056, 4816.002
1050.160, 4558.605
1051.265, 4312.621
1052.370, 4082.133
1053.474, 3907.441
1054.578, 3694.109
1055.682, 3559.768
1056.786, 3601.881
1057.890, 3272.314
1058.993, 3266.777
1060.097, 3215.270
1061.200, 2993.607
1062.303, 3165.129
1063.406, 3052.373
1064.509, 3358.160
1065.612, 3135.418
1066.714, 2850.678
1067.816, 3062.664
1068.919, 3114.188
1070.021, 2944.502
1071.122, 3000.051
1072.224, 2765.736
1073.326, 2894.564
1074.427, 2946.420
1075.528, 2918.303
1076.629, 2858.979
1077.730, 2821.762
1078.831, 2634.250
1079.931, 2628.418
1081.032, 2610.561
1082.132, 2450.898
1083.232, 2238.996
1084.332, 2051.262
1085.432, 2103.262
1086.531, 2105.508
1087.631, 2216.893
1088.730, 1865.273
1089.829, 1981.707
1090.928, 1562.445
1092.027, 1565.094
1093.126, 1711.000
1094.224, 1485.830
1095.323, 1365.773
1096.421, 1384.523
1097.519, 1283.707
1098.617, 1425.037
1099.715, 1013.469
1100.812, 1109.914
1101.910, 1031.834
1103.007, 829.2832
1104.104, 878.0391
1105.201, 893.9707
1106.298, 638.0488
1107.394, 975.2676
1108.491, 716.1855
1109.587, 452.2070
1110.683, 436.6719
1111.779, 356.0879
1112.875, 578.4961
1113.971, 424.9375
1115.066, 701.7539
1116.162, 417.4668
1117.257, 460.0781
1118.352, 324.7422
1119.447, 360.3984
1120.542, 346.6309
1121.636, 452.4980
1122.731, 293.2090
1123.825, 355.9277
1124.919, 207.6621
1126.013, 118.7891
1127.107, 175.5449
1128.200, 234.3125
1129.294, 181.2969
1130.387, 330.0840
1131.480, 195.8828
1132.573, 171.6934
1133.666, 23.51172
1134.759, 123.7324
1135.851, 210.8223
1136.944, 7.679688
1138.036, 14.44141
1139.128, 277.3379
1140.220, 69.24414
1141.312, 13.84375
1142.403, 70.92969
1143.495, 60.97656
1144.586, 64.88867
1145.677, 157.8047
1146.768, 74.92578
1147.859, 24.01172
1148.950, 44.94531
1150.040, 23.33984
1151.130, 2.789063
1152.221, 222.9590
1153.311, 7.486328
1154.401, 121.3789
1155.490, 139.7461
1156.580, 132.6484
1157.669, 113.2246
1158.759, 140.8145
1159.848, 132.0840
1160.937, 73.89648
1162.025, 85.13867
1163.114, 65.63672
1164.202, 99.45898
1165.291, 24.27539
1166.379, 102.0098
1167.467, 65.07422
1168.555, 19.16797
1169.642, 110.5488
1170.730, 97.38477
1171.817, 9.908203
1172.905, 21.20508
1173.992, 44.48438
1175.078, 0.8320310
1176.165, 175.8438
1177.252, 19.48438
1178.338, 59.70898
1179.425, 69.15039
1180.511, 23.09570
1181.597, 118.9766
1182.682, 40.43750
1183.768, 215.3789
1184.854, 102.0703
1185.939, 73.41406
1187.024, 95.56641
1188.109, 108.8613
1189.194, 133.3184
1190.279, 44.76953
1191.363, 3.580078
1192.448, 85.00781
1193.532, 94.38477
1194.616, 116.9980
1195.700, 90.61914
1196.784, 136.4805
1197.867, 114.3633
1198.951, 41.40625
1200.034, 68.10742
1201.117, 54.10352
1202.200, 70.31445
1203.283, 99.41016
1204.366, 66.12109
1205.448, 85.55859
1206.531, 47.75781
1207.613, 23.13086
1208.695, 106.5234
1209.777, 65.90820
1210.859, 50.61719
1211.940, 128.7188
1213.022, 179.1641
1214.103, 65.86914
1215.184, 117.4844
1216.265, 197.8242
1217.346, 39.75391
1218.427, 200.5742
1219.507, 33.71875
1220.587, 20.53906
1221.668, 145.5195
1222.748, 89.93750
1223.828, 30.04492
1224.907, 174.9062
1225.987, 9.001953
1227.066, 336.8828
1228.146, 160.9395
1229.225, 209.8320
1230.304, 22.32812
1231.382, 322.4141
1232.461, 181.1328
1233.540, 277.8242
1234.618, 131.4902
1235.696, 127.1250
1236.774, 11.73438
1237.852, 73.28516
1238.930, 72.80859
1240.007, 2.583984
1241.085, 147.1641
1242.162, 169.8262
1243.239, 183.2012
1244.316, 119.0254
1245.393, 152.2461
1246.469, 327.7832
1247.546, 49.32422
1248.622, 196.5566
1249.698, 37.53320
1250.774, 255.6426
1251.850, 247.7754
1252.926, 315.8223
1254.001, 385.4473
1255.077, 51.15625
1256.152, 383.2676
1257.227, 250.4453
1258.302, 92.30273
1259.377, 274.1172
1260.451, 255.0918
1261.526, 248.8320
1262.600, 299.5586
1263.674, 92.23828
1264.748, 177.8613
1265.822, 133.4570
1266.896, 177.8926
1267.969, 387.2109
1269.043, 256.7832
1270.116, 427.2207
1271.189, 388.4258
1272.262, 337.4062
1273.335, 422.7344
1274.407, 389.0938
1275.480, 218.6152
1276.552, 229.8320
1277.624, 274.5156
1278.696, 176.6562
1279.768, 172.5020
1280.840, 221.0215
1281.911, 166.1953
1282.982, 240.0332
1284.054, 222.3945
1285.125, 285.2227
1286.196, 226.0859
1287.266, 234.4688
1288.337, 221.4043
1289.407, 233.4004
1290.478, 239.1367
1291.548, 305.6230
1292.618, 245.2520
1293.688, 292.6699
1294.757, 274.0938
1295.827, 196.7441
1296.896, 270.2227
1297.965, 389.1289
1299.034, 251.5332
1300.103, 325.8984
1301.172, 556.9160
1302.241, 417.4961
1303.309, 331.8828
1304.377, 417.9805
1305.445, 320.1602
1306.513, 259.5098
1307.581, 228.5742
1308.649, 253.6367
1309.716, 184.5430
1310.784, 406.5254
1311.851, 225.2012
1312.918, 406.1074
1313.985, 340.6562
1315.052, 158.4980
1316.118, 147.2949
1317.185, 392.0508
1318.251, 388.7695
1319.317, 239.4453
1320.383, 253.2715
1321.449, 196.9414
1322.514, 372.8418
1323.580, 230.1875
1324.645, 361.4316
1325.711, 240.6504
1326.776, 401.9844
1327.840, 445.5605
1328.905, 133.3418
1329.970, 90.88477
1331.034, 397.2852
1332.099, 281.5293
1333.163, 50.74219
1334.227, 373.9160
1335.290, 275.2344
1336.354, 215.9844
1337.418, 262.0449
1338.481, 221.8906
1339.544, 185.7441
1340.607, 113.6074
1341.670, 139.5430
1342.733, 149.3281
1343.795, 197.3945
1344.858, 167.2422
1345.920, 169.9785
1346.982, 238.7578
1348.044, 27.48438
1349.106, 215.0098
1350.168, 116.6211
1351.229, 221.0625
1352.291, 288.6367
1353.352, 164.1582
1354.413, 221.9727
1355.474, 155.4316
1356.534, 47.98047
1357.595, 196.3730
1358.656, 280.7812
1359.716, 484.0605
1360.776, 484.3730
1361.836, 469.4570
1362.896, 487.5918
1363.955, 307.6055
1365.015, 247.5605
1366.074, 162.8809
1367.134, 236.1152
1368.193, 111.9375
1369.252, 124.3730
1370.310, 39.78711
1371.369, 84.73828
1372.427, 44.49805
1373.486, 0.3437500
1374.544, 16.05664
1375.602, 186.4980
1376.660, 39.16406
1377.717, 287.5098
1378.775, 180.6719
1379.832, 282.3633
1380.889, 164.1543
1381.946, 139.7949
1383.003, 146.0273
1384.060, 121.6172
1385.117, 316.1816
1386.173, 221.5156
1387.230, 26.02539
1388.286, 253.5020
1389.342, 183.9551
1390.398, 35.38672
1391.453, 374.3965
1392.509, 184.5215
1393.564, 315.2246
1394.619, 123.9727
1395.675, 161.2832
1396.729, 331.3008
1397.784, 392.0000
1398.839, 16.65820
1399.893, 204.2969
1400.948, 166.3164
1402.002, 119.0234
1403.056, 385.6484
1404.110, 73.42383
1405.163, 193.7891
1406.217, 88.38477
1407.270, 260.0352
1408.324, 195.8262
1409.377, 278.2148
1410.430, 259.0391
1411.483, 312.7598
1412.535, 182.6211
1413.588, 205.4219
1414.640, 138.8711
1415.692, 159.4375
1416.744, 274.0762
1417.796, 270.8027
1418.848, 244.5000
1419.900, 207.1387
1420.951, 237.4473
1422.002, 171.1953
1423.053, 189.5898
1424.104, 257.2637
1425.155, 181.0371
1426.206, 203.6875
1427.256, 300.2441
1428.307, 189.8750
1429.357, 134.4922
1430.407, 180.2676
1431.457, 177.8535
1432.507, 320.4277
1433.556, 352.8750
1434.606, 375.1836
1435.655, 406.9902
1436.704, 258.6309
1437.753, 406.1465
1438.802, 327.7910
1439.851, 359.0586
1440.899, 409.5801
1441.948, 371.5195
1442.996, 344.2324
1444.044, 322.4414
1445.092, 375.5117
1446.140, 262.6387
1447.187, 146.7715
1448.235, 210.3945
1449.282, 282.2852
1450.329, 67.37891
1451.376, 71.03711
1452.423, 105.2734
1453.470, 288.7012
1454.517, 304.9258
1455.563, 342.0898
1456.609, 273.1211
1457.655, 298.9180
1458.701, 211.4336
1459.747, 275.3926
1460.793, 217.5566
1461.838, 182.4551
1462.884, 202.7754
1463.929, 275.9141
1464.974, 390.7715
1466.019, 102.0430
1467.064, 436.3457
1468.108, 287.6270
1469.153, 229.9043
1470.197, 448.0234
1471.241, 249.5723
1472.285, 523.9590
1473.329, 406.2246
1474.373, 422.8555
1475.416, 195.8809
1476.460, 457.8223
1477.503, 241.3633
1478.546, 321.7246
1479.589, 341.7031
1480.632, 210.0352
1481.674, 102.5566
1482.717, 342.4668
1483.759, 354.5117
1484.801, 240.1992
1485.843, 305.9414
1486.885, 164.5410
1487.927, 150.8184
1488.968, 490.7109
1490.010, 329.7617
1491.051, 421.3848
1492.092, 624.0020
1493.133, 505.4434
1494.174, 209.8711
1495.215, 397.4707
1496.255, 293.0586
1497.296, 87.63086
1498.336, 12.20117
1499.376, 34.07812
1500.416, 57.06250
1501.456, 6.623047
1502.495, 0.8378910
1503.535, 19.52539
1504.574, 155.2305
1505.613, 82.76562
1506.652, 173.2656
1507.691, 271.7793
1508.730, 192.2969
1509.768, 211.7441
1510.807, 155.2812
1511.845, 110.2969
1512.883, 236.3594
1513.921, 184.8359
1514.959, 272.2910
1515.996, 130.7246
1517.034, 212.6230
1518.071, 148.9551
1519.109, 267.7305
1520.146, 119.1445
1521.183, 66.51953
1522.219, 191.8867
1523.256, 108.3691
1524.292, 226.0137
1525.329, 188.6504
1526.365, 143.2910
1527.401, 482.6113
1528.437, 371.5996
1529.472, 385.6426
1530.508, 280.7188
1531.543, 79.83398
1532.579, 160.9668
1533.614, 225.1250
1534.649, 472.9277
1535.683, 342.3066
1536.718, 283.8477
1537.753, 153.3203
1538.787, 249.1895
1539.821, 179.4902
1540.855, 134.7656
1541.889, 240.0312
1542.923, 213.3203
1543.956, 355.5781
1544.990, 1.203125
1546.023, 268.7402
1547.056, 422.4160
1548.089, 467.7617
1549.122, 77.01367
1550.155, 249.2344
1551.187, 195.6484
1552.220, 131.8594
1553.252, 382.7695
1554.284, 55.67773
1555.316, 303.1836
1556.348, 321.6875
1557.379, 445.1035
1558.411, 336.4355
1559.442, 302.7480
1560.474, 333.2188
1561.505, 174.4238
1562.535, 35.00977
1563.566, 10.95312
1564.597, 216.5410
1565.627, 93.92383
1566.658, 143.8047
1567.688, 287.0098
1568.718, 102.8984
1569.748, 0.3457030
1570.777, 0.0000000E+00
##END=



