##NAMES=Magnesiochromite
##RRUFFID=R060797
##IDEAL CHEMISTRY=MgCr^3+^_2_O_4_
##LOCALITY=Benbow mine, Stillwater Complex, Mount Wood area, Stillwater County, Montana, USA
##OWNER=RRUFF
##SOURCE=California Institute of Technology
##DESCRIPTION=Black granular massive
##STATUS=The identification of this mineral has been confirmed by X-ray diffraction and chemical analysis
##URL=rruff.info/R060797
##MEASURED CHEMISTRY=(Mg_0.55_Fe^2+^_0.45_)_Σ=1_(Cr_1.28_Al_0.58_Fe^3+^_0.14_)_Σ=2_O_4_
##PIN_ID=M01281
##ORIENTATION=Laser parallel to -a* (-1 0 0). Fiducial mark perpendicular to laser is parallel to c [0 0 1]
125.2950, 0.0000000E+00
126.5290, 201.4395
127.7630, 20.08398
128.9970, 300.4551
130.2300, 769.7480
131.4640, 1190.109
132.6970, 986.6074
133.9300, 1311.418
135.1630, 1597.828
136.3950, 2342.762
137.6280, 2422.721
138.8600, 2137.707
140.0920, 2435.943
141.3240, 2219.768
142.5560, 1854.535
143.7880, 1617.619
145.0190, 1886.475
146.2510, 1804.678
147.4820, 1711.971
148.7130, 1726.332
149.9440, 1708.861
151.1750, 1522.482
152.4050, 1601.025
153.6360, 1596.363
154.8660, 1653.334
156.0960, 1892.680
157.3260, 1895.129
158.5560, 1778.371
159.7850, 1699.133
161.0150, 1595.172
162.2440, 1722.363
163.4730, 1849.766
164.7020, 1838.297
165.9310, 1911.535
167.1590, 1918.041
168.3880, 1931.258
169.6160, 1901.803
170.8440, 1885.838
172.0720, 1869.256
173.3000, 1842.748
174.5280, 1811.150
175.7550, 1784.238
176.9820, 1737.531
178.2100, 1733.133
179.4370, 1696.223
180.6630, 1702.863
181.8900, 1808.389
183.1170, 1530.918
184.3430, 1877.055
185.5690, 1846.602
186.7950, 2569.498
188.0210, 2478.855
189.2470, 2747.949
190.4720, 2948.211
191.6970, 3081.119
192.9230, 3072.902
194.1480, 3149.912
195.3730, 3132.688
196.5970, 3071.041
197.8220, 3039.662
199.0460, 2833.922
200.2700, 2896.723
201.4940, 2708.998
202.7180, 2445.566
203.9420, 1984.461
205.1660, 1721.660
206.3890, 1592.951
207.6120, 1083.377
208.8350, 1099.805
210.0580, 942.1387
211.2810, 909.2969
212.5040, 928.8652
213.7260, 891.9570
214.9480, 914.7754
216.1700, 930.3477
217.3920, 972.9668
218.6140, 1031.854
219.8360, 1080.863
221.0570, 1117.768
222.2790, 1155.129
223.5000, 1218.686
224.7210, 1207.141
225.9410, 1226.836
227.1620, 1267.029
228.3820, 1080.357
229.6030, 1239.820
230.8230, 1354.689
232.0430, 1335.529
233.2630, 1156.986
234.4820, 1138.564
235.7020, 1258.367
236.9210, 1148.051
238.1400, 1157.539
239.3590, 1005.229
240.5780, 1132.619
241.7970, 1189.082
243.0150, 1140.736
244.2340, 1056.410
245.4520, 1165.445
246.6700, 1044.355
247.8880, 1093.902
249.1060, 1229.594
250.3230, 1061.760
251.5400, 896.7520
252.7580, 1070.676
253.9750, 911.0664
255.1920, 969.9551
256.4080, 765.6387
257.6250, 835.2754
258.8410, 672.5488
260.0580, 765.6152
261.2740, 541.4805
262.4900, 745.1426
263.7050, 676.6133
264.9210, 610.8926
266.1360, 714.9883
267.3520, 547.9023
268.5670, 556.6387
269.7820, 359.2051
270.9960, 604.6035
272.2110, 455.0234
273.4250, 583.5742
274.6400, 364.4961
275.8540, 222.6699
277.0680, 187.2773
278.2810, 392.2031
279.4950, 390.3770
280.7090, 377.7344
281.9220, 418.2266
283.1350, 297.8125
284.3480, 319.4512
285.5610, 474.1152
286.7730, 257.7832
287.9860, 230.4258
289.1980, 36.02148
290.4100, 255.5254
291.6220, 190.9551
292.8340, 168.2930
294.0460, 319.5234
295.2570, 264.6543
296.4690, 2.330078
297.6800, 49.51953
298.8910, 7.203125
300.1020, 75.70508
301.3120, 18.03320
302.5230, 87.83203
303.7330, 21.07422
304.9440, 73.36914
306.1540, 39.26172
307.3630, 135.4609
308.5730, 154.4297
309.7830, 190.8906
310.9920, 201.1328
312.2010, 154.8828
313.4100, 48.88477
314.6190, 4.115234
315.8280, 116.5684
317.0370, 342.2793
318.2450, 18.68359
319.4530, 176.9434
320.6610, 276.8359
321.8690, 47.95312
323.0770, 242.0059
324.2850, 136.6211
325.4920, 158.9824
326.6990, 50.11133
327.9060, 125.0430
329.1130, 193.4941
330.3200, 56.25391
331.5270, 143.2852
332.7330, 42.60938
333.9390, 127.1895
335.1450, 111.0449
336.3510, 65.16406
337.5570, 175.5293
338.7630, 226.1562
339.9680, 119.0605
341.1740, 309.2012
342.3790, 54.62500
343.5840, 226.2598
344.7890, 25.14453
345.9930, 203.2246
347.1980, 354.5918
348.4020, 278.2324
349.6060, 336.1211
350.8100, 1.716797
352.0140, 267.6230
353.2180, 104.2793
354.4210, 22.15625
355.6250, 146.2246
356.8280, 235.5703
358.0310, 105.7422
359.2340, 173.1895
360.4360, 59.48047
361.6390, 229.0762
362.8410, 46.12109
364.0430, 224.5918
365.2450, 295.4453
366.4470, 9.664063
367.6490, 132.2344
368.8510, 60.06250
370.0520, 205.2246
371.2530, 140.6523
372.4540, 1.673828
373.6550, 83.26953
374.8560, 104.4648
376.0560, 94.92383
377.2570, 66.36328
378.4570, 26.60742
379.6570, 162.8379
380.8570, 115.6973
382.0570, 144.9297
383.2560, 55.85742
384.4560, 335.6074
385.6550, 181.2383
386.8540, 205.6738
388.0530, 5.990234
389.2520, 193.2031
390.4510, 294.2676
391.6490, 139.2070
392.8470, 189.0625
394.0450, 87.80078
395.2430, 142.5078
396.4410, 238.1621
397.6390, 242.8047
398.8360, 261.4102
400.0340, 311.0156
401.2310, 345.6172
402.4280, 334.2227
403.6250, 367.8281
404.8210, 410.4453
406.0180, 399.6113
407.2140, 523.3770
408.4100, 462.0215
409.6060, 446.6816
410.8020, 600.3594
411.9980, 685.0098
413.1930, 704.7246
414.3890, 796.5195
415.5840, 874.7070
416.7790, 1036.764
417.9740, 1043.475
419.1680, 1081.471
420.3630, 1131.473
421.5570, 1135.879
422.7510, 1195.785
423.9450, 1290.900
425.1390, 1137.938
426.3330, 1450.121
427.5270, 1373.385
428.7200, 1634.887
429.9130, 1723.648
431.1060, 1520.904
432.2990, 1895.217
433.4920, 1791.680
434.6840, 1785.254
435.8770, 1720.592
437.0690, 1726.363
438.2610, 1827.762
439.4530, 1629.539
440.6450, 1632.967
441.8360, 1619.385
443.0280, 1481.488
444.2190, 1424.219
445.4100, 1424.967
446.6010, 1523.369
447.7920, 1439.523
448.9820, 1566.859
450.1730, 1608.168
451.3630, 1726.762
452.5530, 1857.254
453.7430, 1898.555
454.9330, 2071.314
456.1230, 2055.090
457.3120, 2286.641
458.5010, 2383.125
459.6910, 2260.688
460.8800, 2389.803
462.0680, 2341.322
463.2570, 2346.766
464.4460, 2361.482
465.6340, 2127.139
466.8220, 2212.795
468.0100, 2253.877
469.1980, 2147.963
470.3860, 2366.203
471.5730, 2370.008
472.7600, 2182.738
473.9480, 2466.311
475.1350, 2611.662
476.3210, 2553.582
477.5080, 2506.449
478.6950, 2699.594
479.8810, 2941.891
481.0670, 2992.543
482.2530, 3025.305
483.4390, 3369.086
484.6250, 3659.240
485.8100, 3887.684
486.9960, 3720.678
488.1810, 4041.621
489.3660, 4100.723
490.5510, 4382.668
491.7360, 4221.754
492.9200, 4221.566
494.1050, 4146.953
495.2890, 4386.809
496.4730, 4355.301
497.6570, 4427.332
498.8400, 4559.977
500.0240, 4555.414
501.2070, 4744.820
502.3910, 4846.016
503.5740, 4917.797
504.7570, 5077.375
505.9400, 4966.912
507.1220, 5130.725
508.3050, 5203.582
509.4870, 5296.422
510.6690, 5550.570
511.8510, 5518.777
513.0330, 5775.410
514.2140, 6342.646
515.3960, 6589.801
516.5770, 6530.500
517.7580, 6910.527
518.9390, 7064.660
520.1200, 7217.311
521.3010, 7534.877
522.4810, 7964.592
523.6610, 8172.010
524.8420, 8366.619
526.0220, 8638.402
527.2010, 8861.186
528.3810, 9048.562
529.5610, 9359.906
530.7400, 9603.285
531.9190, 9846.492
533.0980, 10115.47
534.2770, 10347.97
535.4560, 10627.25
536.6340, 11058.74
537.8120, 11357.43
538.9910, 11818.33
540.1690, 12411.45
541.3460, 12886.80
542.5240, 13359.36
543.7020, 13914.69
544.8790, 14453.07
546.0560, 15008.29
547.2330, 15489.72
548.4100, 16125.37
549.5870, 16461.25
550.7630, 16531.32
551.9400, 17177.62
553.1160, 17282.12
554.2920, 17822.86
555.4680, 17929.79
556.6440, 18265.95
557.8190, 18456.11
558.9950, 18889.19
560.1700, 19246.66
561.3450, 19530.28
562.5200, 19666.20
563.6950, 19880.10
564.8690, 19993.71
566.0440, 20056.13
567.2180, 20140.28
568.3920, 20044.52
569.5660, 20307.10
570.7400, 20385.85
571.9130, 20406.81
573.0870, 20050.97
574.2600, 19655.45
575.4330, 18744.03
576.6060, 18425.94
577.7790, 17546.05
578.9520, 16874.40
580.1240, 16062.82
581.2960, 15367.75
582.4690, 14289.83
583.6410, 13460.16
584.8120, 12694.71
585.9840, 11959.53
587.1560, 11169.60
588.3270, 10716.94
589.4980, 10060.56
590.6690, 9512.449
591.8400, 9518.631
593.0110, 9106.109
594.1810, 8775.871
595.3510, 8323.932
596.5220, 8000.336
597.6920, 8110.045
598.8610, 7813.043
600.0310, 7786.324
601.2010, 7230.887
602.3700, 7143.844
603.5390, 6607.051
604.7080, 6506.566
605.8770, 6471.291
607.0460, 6125.289
608.2140, 5934.613
609.3830, 5675.758
610.5510, 5411.969
611.7190, 5092.102
612.8870, 4910.484
614.0550, 4637.186
615.2220, 4366.160
616.3900, 4136.443
617.5570, 3842.996
618.7240, 3641.820
619.8910, 3301.914
621.0580, 2967.275
622.2240, 2904.953
623.3910, 2432.926
624.5570, 2349.152
625.7230, 2320.691
626.8890, 1909.475
628.0550, 1735.549
629.2200, 1728.871
630.3860, 1678.080
631.5510, 1843.391
632.7160, 2005.621
633.8810, 2182.158
635.0460, 2599.910
636.2100, 2672.018
637.3750, 2858.297
638.5390, 3284.520
639.7030, 3755.266
640.8670, 4083.809
642.0310, 4428.088
643.1950, 5056.303
644.3580, 5158.941
645.5210, 5617.939
646.6850, 5811.338
647.8480, 6313.020
649.0100, 6583.102
650.1730, 6645.715
651.3350, 6946.389
652.4980, 7037.621
653.6600, 7226.131
654.8220, 7335.250
655.9840, 7421.098
657.1450, 7509.447
658.3070, 7527.705
659.4680, 7563.453
660.6300, 7682.062
661.7910, 7603.889
662.9510, 7739.662
664.1120, 7612.004
665.2730, 7944.521
666.4330, 7920.578
667.5930, 8361.412
668.7530, 8232.051
669.9130, 8388.400
671.0730, 8627.914
672.2320, 8722.826
673.3920, 8961.643
674.5510, 9319.232
675.7100, 9792.670
676.8690, 10024.43
678.0280, 10529.60
679.1860, 10727.45
680.3450, 11255.64
681.5030, 11592.18
682.6610, 12125.54
683.8190, 12498.59
684.9770, 12936.30
686.1340, 13414.44
687.2920, 13777.90
688.4490, 14298.13
689.6060, 14576.89
690.7630, 14951.56
691.9200, 15374.34
693.0760, 15719.18
694.2330, 16111.18
695.3890, 16414.73
696.5450, 16903.51
697.7010, 16868.17
698.8570, 17268.32
700.0130, 17255.56
701.1680, 16912.44
702.3230, 16952.80
703.4780, 16765.69
704.6330, 16376.75
705.7880, 15942.14
706.9430, 15475.36
708.0970, 15112.13
709.2520, 14817.08
710.4060, 14112.83
711.5600, 13735.31
712.7140, 13077.67
713.8670, 12500.86
715.0210, 11968.70
716.1740, 11295.11
717.3270, 10748.52
718.4800, 10212.91
719.6330, 9601.492
720.7860, 8814.004
721.9380, 8276.674
723.0910, 7838.531
724.2430, 7286.217
725.3950, 6989.686
726.5470, 6404.771
727.6980, 6248.809
728.8500, 5922.922
730.0010, 5016.775
731.1530, 4774.656
732.3040, 4472.590
733.4550, 4380.182
734.6050, 4101.566
735.7560, 3791.010
736.9060, 3174.414
738.0560, 3121.365
739.2060, 3104.217
740.3560, 2687.221
741.5060, 2725.078
742.6560, 2282.234
743.8050, 2327.854
744.9540, 2437.959
746.1030, 1813.252
747.2520, 1800.637
748.4010, 1528.168
749.5500, 1492.652
750.6980, 1160.299
751.8460, 1092.650
752.9950, 1221.645
754.1420, 934.4863
755.2900, 1081.076
756.4380, 808.8945
757.5850, 809.4336
758.7330, 706.8633
759.8800, 653.0938
761.0270, 863.4258
762.1730, 628.3438
763.3200, 928.7734
764.4670, 435.4922
765.6130, 376.4590
766.7590, 480.2266
767.9050, 182.1133
769.0510, 343.2031
770.1960, 150.4648
771.3420, 63.44336
772.4870, 101.5312
773.6320, 2.263672
774.7770, 111.5332
775.9220, 56.29492
777.0670, 25.53320
778.2110, 42.23828
779.3560, 114.4336
780.5000, 169.1582
781.6440, 62.57422
782.7880, 225.9023
783.9320, 110.5293
785.0750, 171.1602
786.2180, 269.9277
787.3620, 202.3223
788.5050, 176.2344
789.6480, 174.1797
790.7900, 211.9199
791.9330, 15.06250
793.0750, 161.7969
794.2170, 82.34180
795.3590, 80.99219
796.5010, 107.4473
797.6430, 168.7441
798.7850, 47.07812
799.9260, 210.1484
801.0670, 201.5859
802.2080, 61.00781
803.3490, 219.5176
804.4900, 167.1953
805.6310, 11.79102
806.7710, 76.99023
807.9110, 95.25977
809.0510, 88.77734
810.1910, 50.62500
811.3310, 151.8242
812.4710, 154.7734
813.6100, 93.92578
814.7490, 159.7441
815.8880, 199.2695
817.0270, 180.1309
818.1660, 107.5508
819.3050, 78.21289
820.4430, 83.70117
821.5820, 254.7676
822.7200, 161.5430
823.8580, 49.60156
824.9950, 174.7598
826.1330, 11.79297
827.2710, 151.9355
828.4080, 30.93359
829.5450, 107.7656
830.6820, 11.26562
831.8190, 128.2832
832.9560, 152.7852
834.0920, 127.4824
835.2280, 28.92969
836.3650, 71.49219
837.5010, 27.39062
838.6360, 12.53906
839.7720, 78.55078
840.9080, 112.4258
842.0430, 41.10742
843.1780, 51.60547
844.3130, 48.48047
845.4480, 0.2890630
846.5830, 63.56445
847.7170, 157.2754
848.8520, 10.86914
849.9860, 56.28711
851.1200, 65.15234
852.2540, 210.8828
853.3870, 94.08398
854.5210, 59.66602
855.6540, 156.2695
856.7880, 49.26172
857.9210, 205.0039
859.0540, 282.1152
860.1860, 46.11133
861.3190, 171.9180
862.4510, 296.5840
863.5840, 20.13281
864.7160, 245.4707
865.8480, 32.49414
866.9790, 168.5117
868.1110, 283.3750
869.2420, 316.7578
870.3740, 24.95117
871.5050, 152.6797
872.6360, 112.0156
873.7660, 64.27539
874.8970, 250.5117
876.0280, 5.068359
877.1580, 187.2031
878.2880, 198.3945
879.4180, 287.5859
880.5480, 207.3730
881.6770, 179.2832
882.8070, 209.4492
883.9360, 240.8398
885.0650, 327.0723
886.1940, 162.1582
887.3230, 126.0547
888.4520, 214.7520
889.5800, 122.2676
890.7090, 205.5762
891.8370, 344.7070
892.9650, 316.6875
894.0930, 251.5117
895.2200, 107.1660
896.3480, 390.5977
897.4750, 478.8867
898.6020, 428.0371
899.7290, 380.0469
900.8560, 370.9043
901.9830, 234.3027
903.1090, 448.8262
904.2360, 376.2051
905.3620, 256.4316
906.4880, 450.4785
907.6140, 444.3809
908.7400, 424.1387
909.8650, 494.2422
910.9900, 443.1484
912.1160, 470.7441
913.2410, 560.9199
914.3660, 473.4277
915.4900, 535.2500
916.6150, 319.2422
917.7390, 279.8711
918.8640, 361.2383
919.9880, 484.2617
921.1120, 316.1152
922.2350, 329.6816
923.3590, 396.7520
924.4820, 371.5332
925.6060, 462.1094
926.7290, 162.8301
927.8520, 583.6660
928.9740, 416.8145
930.0970, 285.6680
931.2190, 462.3574
932.3420, 240.7598
933.4640, 426.3184
934.5860, 399.2773
935.7080, 410.1914
936.8290, 522.1484
937.9510, 389.9609
939.0720, 382.2656
940.1930, 462.8203
941.3140, 400.5996
942.4350, 325.6992
943.5560, 329.6582
944.6760, 338.5918
945.7960, 292.9355
946.9170, 401.0098
948.0370, 314.5234
949.1560, 379.6992
950.2760, 355.0000
951.3960, 414.0391
952.5150, 322.4922
953.6340, 253.6094
954.7530, 291.9316
955.8720, 323.5801
956.9910, 388.5801
958.1090, 428.9512
959.2280, 383.3672
960.3460, 242.9805
961.4640, 252.9941
962.5820, 179.8223
963.6990, 157.3730
964.8170, 109.0781
965.9340, 164.6797
967.0510, 141.4141
968.1690, 188.1621
969.2850, 250.3184
970.4020, 239.9941
971.5190, 265.5820
972.6350, 300.5293
973.7510, 190.0117
974.8670, 196.9746
975.9830, 117.7598
977.0990, 132.7305
978.2150, 433.8359
979.3300, 192.9180
980.4450, 331.8145
981.5600, 407.9102
982.6750, 270.2695
983.7900, 233.7559
984.9050, 67.40625
986.0190, 289.3965
987.1340, 162.8145
988.2480, 248.2246
989.3620, 172.6523
990.4750, 387.8730
991.5890, 141.1562
992.7020, 291.2754
993.8160, 279.3555
994.9290, 253.2773
996.0420, 277.5605
997.1550, 247.2148
998.2670, 220.9043
999.3800, 249.5039
1000.492, 275.3457
1001.604, 211.1406
1002.716, 178.8652
1003.828, 196.6328
1004.940, 132.1426
1006.051, 231.2930
1007.163, 111.4590
1008.274, 203.0547
1009.385, 84.72266
1010.496, 68.46289
1011.606, 147.6973
1012.717, 89.09375
1013.827, 134.3398
1014.937, 133.1445
1016.047, 146.1895
1017.157, 131.1074
1018.267, 94.84180
1019.377, 85.76953
1020.486, 53.42188
1021.595, 24.94727
1022.704, 54.07031
1023.813, 36.30664
1024.922, 166.7500
1026.030, 188.9238
1027.139, 155.9219
1028.247, 169.2344
1029.355, 66.43359
1030.463, 104.9141
1031.571, 105.2480
1032.678, 142.0410
1033.786, 97.98828
1034.893, 69.36523
1036.000, 212.4180
1037.107, 169.0293
1038.214, 360.3848
1039.321, 46.51172
1040.427, 262.8613
1041.533, 211.0469
1042.639, 156.8516
1043.745, 134.4121
1044.851, 296.3301
1045.957, 172.6035
1047.062, 303.2656
1048.168, 149.3574
1049.273, 39.90039
1050.378, 217.0527
1051.482, 72.04102
1052.587, 174.2363
1053.692, 206.3516
1054.796, 152.5176
1055.900, 8.199219
1057.004, 76.30273
1058.108, 267.0293
1059.212, 115.0801
1060.315, 235.2031
1061.418, 224.7734
1062.522, 228.2461
1063.625, 249.2461
1064.728, 286.2188
1065.830, 166.0332
1066.933, 353.7441
1068.035, 57.52539
1069.137, 272.0234
1070.239, 401.4102
1071.341, 448.4297
1072.443, 170.4727
1073.545, 313.0449
1074.646, 286.9004
1075.747, 252.8477
1076.848, 453.1172
1077.949, 222.0723
1079.050, 418.1113
1080.150, 444.9727
1081.251, 549.0938
1082.351, 510.7598
1083.451, 593.8711
1084.551, 600.6875
1085.651, 668.6230
1086.750, 627.9316
1087.850, 483.4531
1088.949, 471.6875
1090.048, 449.4766
1091.147, 417.3906
1092.246, 425.2988
1093.345, 496.3516
1094.443, 539.4648
1095.541, 580.9414
1096.639, 660.8789
1097.737, 578.9980
1098.835, 525.5469
1099.933, 533.5137
1101.030, 606.3418
1102.128, 508.3613
1103.225, 599.4180
1104.322, 640.6680
1105.419, 592.2793
1106.515, 742.0508
1107.612, 561.1699
1108.708, 580.3828
1109.804, 594.9688
1110.900, 652.9004
1111.996, 651.7832
1113.092, 779.3691
1114.187, 832.9668
1115.283, 613.5801
1116.378, 889.2422
1117.473, 777.6387
1118.568, 656.4082
1119.662, 695.1562
1120.757, 880.0586
1121.851, 979.0332
1122.946, 996.6660
1124.040, 689.3086
1125.134, 801.7285
1126.227, 745.9707
1127.321, 683.3594
1128.414, 854.9668
1129.508, 595.0684
1130.601, 763.3535
1131.693, 760.5996
1132.786, 836.1738
1133.879, 817.0039
1134.971, 796.3691
1136.064, 724.1133
1137.156, 673.5801
1138.248, 741.3887
1139.339, 1001.031
1140.431, 740.6719
1141.522, 832.8516
1142.614, 554.1172
1143.705, 772.9316
1144.796, 745.7949
1145.887, 835.6973
1146.977, 716.6465
1148.068, 655.6523
1149.158, 705.8203
1150.248, 865.8184
1151.338, 756.9648
1152.428, 596.1719
1153.518, 615.4512
1154.607, 832.7891
1155.696, 605.1973
1156.785, 579.6641
1157.874, 679.1758
1158.963, 419.7383
1160.052, 535.3516
1161.141, 441.5566
1162.229, 491.7871
1163.317, 419.5684
1164.405, 413.3906
1165.493, 589.2598
1166.581, 332.4844
1167.668, 200.4648
1168.756, 506.4902
1169.843, 680.5664
1170.930, 671.7051
1172.017, 554.8887
1173.103, 454.1211
1174.190, 373.4023
1175.276, 308.7285
1176.363, 401.1035
1177.449, 306.1270
1178.535, 485.9961
1179.620, 238.5117
1180.706, 367.0762
1181.791, 353.6992
1182.877, 118.3906
1183.962, 430.1387
1185.047, 353.9375
1186.131, 349.7988
1187.216, 407.7207
1188.300, 371.6953
1189.385, 384.0957
1190.469, 269.8086
1191.553, 347.9688
1192.637, 269.1855
1193.720, 200.3008
1194.804, 234.6328
1195.887, 144.0137
1196.970, 245.4648
1198.053, 218.9688
1199.136, 271.5273
1200.219, 67.13867
1201.301, 101.8008
1202.383, 97.71094
1203.465, 313.4844
1204.547, 219.3066
1205.629, 108.9961
1206.711, 254.9316
1207.792, 136.9219
1208.874, 219.9707
1209.955, 175.0820
1211.036, 226.0039
1212.117, 243.4805
1213.198, 299.9258
1214.278, 293.2637
1215.359, 191.7695
1216.439, 232.3613
1217.519, 81.86523
1218.599, 138.4375
1219.678, 156.0664
1220.758, 153.7461
1221.837, 189.1406
1222.917, 234.2852
1223.996, 121.1367
1225.075, 181.0410
1226.153, 68.99609
1227.232, 202.0215
1228.310, 84.10547
1229.389, 69.24414
1230.467, 251.4453
1231.545, 116.7012
1232.622, 1.009766
1233.700, 197.3691
1234.777, 123.7793
1235.855, 149.2441
1236.932, 77.76172
1238.009, 267.3320
1239.086, 142.9609
1240.162, 154.6543
1241.239, 289.4160
1242.315, 0.7519530
1243.391, 300.1484
1244.467, 86.10742
1245.543, 326.1211
1246.619, 290.2344
1247.694, 302.1738
1248.769, 167.5137
1249.844, 346.7559
1250.919, 111.6895
1251.994, 68.42578
1253.069, 59.89062
1254.144, 242.4062
1255.218, 245.9727
1256.292, 206.5898
1257.366, 126.2617
1258.440, 102.9824
1259.514, 30.24219
1260.587, 98.57812
1261.661, 12.54883
1262.734, 162.3730
1263.807, 57.34766
1264.880, 37.37109
1265.952, 138.4473
1267.025, 29.42578
1268.097, 9.251953
1269.170, 107.9707
1270.242, 88.24609
1271.314, 89.57227
1272.385, 180.9473
1273.457, 45.37109
1274.528, 103.8516
1275.600, 124.6621
1276.671, 55.68750
1277.742, 172.6074
1278.812, 62.29688
1279.883, 19.03711
1280.954, 182.8262
1282.024, 239.6660
1283.094, 203.5566
1284.164, 162.4941
1285.234, 105.4805
1286.303, 180.5137
1287.373, 175.5996
1288.442, 64.73242
1289.511, 17.91602
1290.580, 95.15430
1291.649, 107.4395
1292.718, 280.7695
1293.786, 216.1523
1294.855, 220.8867
1295.923, 202.0723
1296.991, 178.6016
1298.059, 128.1777
1299.126, 234.7949
1300.194, 220.2480
1301.261, 339.1660
1302.328, 206.9180
1303.395, 383.7129
1304.462, 192.5508
1305.529, 224.4336
1306.596, 294.3574
1307.662, 188.3262
1308.728, 328.3340
1309.794, 188.3848
1310.860, 282.4746
1311.926, 270.6094
1312.991, 58.77930
1314.057, 55.99609
1315.122, 5.251953
1316.187, 145.5469
1317.252, 117.8828
1318.317, 19.25586
1319.381, 158.6699
1320.446, 57.37305
1321.510, 50.89453
1322.574, 120.6113
1323.638, 39.15430
1324.702, 53.73242
1325.766, 24.34570
1326.829, 176.9922
1327.892, 7.673828
1328.956, 159.3867
1330.019, 159.8750
1331.081, 203.8828
1332.144, 126.6738
1333.206, 84.49219
1334.269, 147.3711
1335.331, 111.2676
1336.393, 223.2012
1337.455, 97.17578
1338.516, 122.2812
1339.578, 92.33398
1340.639, 93.57031
1341.701, 256.5547
1342.762, 9.279297
1343.822, 11.07812
1344.883, 127.1660
1345.944, 297.1172
1347.004, 161.4375
1348.064, 255.7988
1349.124, 186.1699
1350.184, 158.6094
1351.244, 130.7559
1352.304, 83.66406
1353.363, 58.15430
1354.422, 84.22656
1355.481, 161.8555
1356.540, 322.5195
1357.599, 149.2227
1358.657, 144.9609
1359.716, 212.7363
1360.774, 98.53711
1361.832, 286.3848
1362.890, 247.2676
1363.948, 234.1895
1365.006, 288.2051
1366.063, 358.7285
1367.120, 251.9551
1368.178, 259.5742
1369.234, 161.9277
1370.291, 132.4492
1371.348, 50.76758
1372.404, 70.96875
1373.461, 173.2031
1374.517, 191.3398
1375.573, 291.6406
1376.629, 358.9785
1377.684, 373.3477
1378.740, 417.2402
1379.795, 349.0469
1380.850, 155.5156
1381.905, 206.0176
1382.960, 286.5508
1384.015, 155.1152
1385.070, 333.7148
1386.124, 125.3457
1387.178, 318.7129
1388.232, 528.4023
1389.286, 220.0293
1390.340, 370.7871
1391.393, 344.6074
1392.447, 328.4316
1393.500, 322.2891
1394.553, 222.8848
1395.606, 430.7402
1396.659, 504.6973
1397.711, 391.8574
1398.764, 384.8613
1399.816, 462.8984
1400.868, 386.4805
1401.920, 363.4551
1402.972, 381.2852
1404.023, 286.3555
1405.075, 392.2324
1406.126, 407.2695
1407.177, 491.5078
1408.228, 311.7246
1409.279, 171.9727
1410.330, 381.2500
1411.380, 311.5234
1412.431, 369.7246
1413.481, 349.5352
1414.531, 352.7168
1415.580, 315.8672
1416.630, 325.9941
1417.680, 163.9590
1418.729, 270.9395
1419.778, 312.4668
1420.827, 564.5898
1421.876, 270.6055
1422.925, 355.6309
1423.973, 210.6641
1425.022, 161.7031
1426.070, 66.74805
1427.118, 174.7930
1428.166, 308.8262
1429.214, 387.8223
1430.261, 307.7832
1431.309, 298.7324
1432.356, 322.6699
1433.403, 251.1797
1434.450, 278.4316
1435.497, 196.3359
1436.543, 262.1211
1437.590, 312.8457
1438.636, 259.5215
1439.682, 297.0820
1440.728, 151.8730
1441.774, 375.4707
1442.819, 269.6016
1443.865, 184.2266
1444.910, 270.7266
1445.955, 0.8066410
1447.000, 161.6328
1448.045, 213.1172
1449.090, 80.35742
1450.134, 85.53711
1451.178, 428.6484
1452.223, 76.69727
1453.267, 231.4238
1454.310, 74.65430
1455.354, 303.2832
1456.398, 230.1484
1457.441, 251.1992
1458.484, 32.14062
1459.527, 185.1191
1460.570, 213.8574
1461.613, 103.7637
1462.655, 158.6816
1463.698, 38.23438
1464.740, 195.8789
1465.782, 176.0215
1466.824, 282.2031
1467.866, 91.42773
1468.907, 140.6973
1469.948, 146.0039
1470.990, 64.64844
1472.031, 42.74023
1473.072, 104.1621
1474.112, 47.42383
1475.153, 246.9473
1476.194, 65.31445
1477.234, 51.69141
1478.274, 152.0859
1479.314, 15.46875
1480.354, 108.7520
1481.393, 124.0645
1482.433, 98.40430
1483.472, 89.77148
1484.511, 103.1680
1485.550, 143.5879
1486.589, 125.1836
1487.628, 74.50781
1488.666, 99.00391
1489.704, 46.85156
1490.743, 19.68945
1491.781, 14.42383
1492.819, 37.89062
1493.856, 47.57617
1494.894, 38.76758
1495.931, 1.177734
1496.968, 71.41992
1498.005, 135.0195
1499.042, 32.36719
1500.079, 133.2480
1501.115, 215.8828
1502.152, 113.5469
1503.188, 82.75977
1504.224, 95.03516
1505.260, 214.7246
1506.296, 342.5176
1507.331, 346.6406
1508.367, 325.9902
1509.402, 328.1523
1510.437, 299.1797
1511.472, 276.8613
1512.507, 215.2480
1513.541, 216.3984
1514.576, 184.1055
1515.610, 90.95117
1516.644, 152.3594
1517.678, 138.2852
1518.712, 134.5059
1519.746, 284.1699
1520.779, 265.0000
1521.813, 104.0859
1522.846, 303.8086
1523.879, 169.5645
1524.912, 93.83789
1525.944, 84.49023
1526.977, 86.99219
1528.009, 83.37500
1529.041, 106.7773
1530.073, 139.7422
1531.105, 170.8027
1532.137, 222.2109
1533.168, 274.6523
1534.200, 310.3379
1535.231, 204.0039
1536.262, 253.4883
1537.293, 90.63867
1538.324, 78.15625
1539.354, 221.3066
1540.385, 42.40039
1541.415, 180.0293
1542.445, 233.4199
1543.475, 21.62500
1544.505, 34.62305
1545.534, 159.0586
1546.564, 358.9473
1547.593, 472.4277
1548.622, 504.3164
1549.651, 210.7500
1550.680, 335.8145
1551.708, 290.5801
1552.737, 232.5645
1553.765, 408.7324
1554.793, 158.7285
1555.821, 336.7656
1556.849, 343.3184
1557.877, 424.9082
1558.904, 334.5215
1559.932, 290.1738
1560.959, 254.9883
1561.986, 278.6953
1563.013, 4.632813
1564.039, 80.61328
1565.066, 334.7168
1566.092, 18.85547
1567.119, 90.41406
1568.145, 282.5762
1569.170, 389.2852
1570.196, 416.2363
1571.222, 98.69922
1572.247, 205.0215
1573.272, 149.3613
1574.297, 85.16602
1575.322, 257.0117
1576.347, 0.8281250
1577.372, 0.0000000E+00
##END=



