##NAMES=Magnetite
##RRUFFID=R060656
##IDEAL CHEMISTRY=Fe^2+^Fe^3+^_2_O_4_
##LOCALITY=Jacupiranga Pegmatite, Sao Paulo State, Brazil
##OWNER=RRUFF
##SOURCE=Michael Scott
##DESCRIPTION=Black rounded octahedra associated with phlogopite and diopside
##STATUS=The identification of this mineral has been confirmed by X-ray diffraction and chemical analysis
##URL=rruff.info/R060656
##MEASURED CHEMISTRY=(Fe^2+^_0.98_Mg_0.01_Mn_0.01_)(Fe^3+^_1.96_Ti_0.02_Mg_0.02_)O_4_
##PIN_ID=M00920
##ORIENTATION=Laser parallel to a* (1 0 0). Fiducial mark perpendicular to laser is parallel to b [0 1 0]
175.7550, 0.0000000E+00
176.9820, 67.72754
178.2100, 34.87305
179.4370, 9.046875
180.6630, 60.37695
181.8900, 33.42090
183.1170, 83.04980
184.3430, 222.6260
185.5690, 342.1914
186.7950, 303.7188
188.0210, 396.3955
189.2470, 282.0312
190.4720, 420.3789
191.6970, 533.9961
192.9230, 670.9785
194.1480, 726.3301
195.3730, 779.4697
196.5970, 737.1465
197.8220, 676.5352
199.0460, 743.3525
200.2700, 807.9404
201.4940, 684.8096
202.7180, 850.7656
203.9420, 504.3330
205.1660, 266.9707
206.3890, 218.0762
207.6120, 20.84766
208.8350, 182.0342
210.0580, 131.9141
211.2810, 193.0088
212.5040, 225.5156
213.7260, 238.6016
214.9480, 171.3740
216.1700, 163.8984
217.3920, 150.1543
218.6140, 221.0020
219.8360, 144.1895
221.0570, 219.4219
222.2790, 150.8457
223.5000, 252.0244
224.7210, 78.56934
225.9410, 94.34570
227.1620, 153.4238
228.3820, 73.86914
229.6030, 132.3516
230.8230, 41.91016
232.0430, 174.5850
233.2630, 144.8096
234.4820, 79.15332
235.7020, 122.3848
236.9210, 250.5000
238.1400, 48.50977
239.3590, 61.42090
240.5780, 45.72949
241.7970, 115.9648
243.0150, 52.72266
244.2340, 44.34082
245.4520, 22.89160
246.6700, 212.3848
247.8880, 45.17773
249.1060, 20.24023
250.3230, 84.72070
251.5400, 103.2646
252.7580, 78.47852
253.9750, 46.78906
255.1920, 34.21387
256.4080, 31.05078
257.6250, 24.63770
258.8410, 3.031250
260.0580, 8.676758
261.2740, 72.15039
262.4900, 139.9873
263.7050, 162.8291
264.9210, 198.6719
266.1360, 227.5020
267.3520, 142.3203
268.5670, 243.1260
269.7820, 264.1729
270.9960, 103.1143
272.2110, 350.9307
273.4250, 248.2285
274.6400, 177.1973
275.8540, 188.5234
277.0680, 182.0264
278.2810, 259.9561
279.4950, 308.8867
280.7090, 395.9229
281.9220, 438.8232
283.1350, 445.6484
284.3480, 327.0977
285.5610, 611.5059
286.7730, 561.2939
287.9860, 435.5371
289.1980, 670.6572
290.4100, 714.9678
291.6220, 736.5742
292.8340, 695.8447
294.0460, 650.9883
295.2570, 716.1660
296.4690, 741.3779
297.6800, 724.6230
298.8910, 816.8994
300.1020, 806.2090
301.3120, 818.5303
302.5230, 798.9697
303.7330, 833.5605
304.9440, 797.9824
306.1540, 829.4346
307.3630, 871.9160
308.5730, 809.4268
309.7830, 813.9707
310.9920, 842.5430
312.2010, 826.3906
313.4100, 923.7891
314.6190, 840.4629
315.8280, 663.1699
317.0370, 630.9150
318.2450, 706.6943
319.4530, 557.5117
320.6610, 592.3662
321.8690, 769.4023
323.0770, 571.5352
324.2850, 554.6934
325.4920, 457.8389
326.6990, 533.9551
327.9060, 435.0264
329.1130, 387.0479
330.3200, 515.0078
331.5270, 619.9033
332.7330, 568.2012
333.9390, 584.2383
335.1450, 473.1768
336.3510, 488.7949
337.5570, 345.3232
338.7630, 346.7617
339.9680, 292.1240
341.1740, 320.4102
342.3790, 293.6045
343.5840, 203.7188
344.7890, 212.7666
345.9930, 184.7354
347.1980, 210.6396
348.4020, 308.4775
349.6060, 179.2480
350.8100, 267.9736
352.0140, 173.6758
353.2180, 84.60156
354.4210, 179.9131
355.6250, 157.9521
356.8280, 128.6240
358.0310, 266.2988
359.2340, 35.41602
360.4360, 137.3760
361.6390, 18.17285
362.8410, 220.6406
364.0430, 128.2588
365.2450, 17.90723
366.4470, 9.833008
367.6490, 7.442383
368.8510, 114.5508
370.0520, 3.784180
371.2530, 8.663086
372.4540, 109.1670
373.6550, 61.05078
374.8560, 32.19336
376.0560, 65.02441
377.2570, 80.91602
378.4570, 85.03320
379.6570, 131.7129
380.8570, 30.12695
382.0570, 109.7549
383.2560, 115.1084
384.4560, 84.91211
385.6550, 10.72266
386.8540, 50.18652
388.0530, 190.1865
389.2520, 30.46387
390.4510, 95.81445
391.6490, 96.61133
392.8470, 13.34766
394.0450, 149.9043
395.2430, 11.03027
396.4410, 50.77246
397.6390, 49.66113
398.8360, 115.1494
400.0340, 180.9668
401.2310, 152.6533
402.4280, 144.8408
403.6250, 75.60156
404.8210, 63.32520
406.0180, 45.63574
407.2140, 46.38281
408.4100, 33.21387
409.6060, 24.21191
410.8020, 18.66602
411.9980, 116.1484
413.1930, 118.4678
414.3890, 28.19629
415.5840, 129.7607
416.7790, 95.34766
417.9740, 32.91895
419.1680, 44.51172
420.3630, 88.12500
421.5570, 61.74121
422.7510, 94.34961
423.9450, 191.9580
425.1390, 104.5654
426.3330, 145.2070
427.5270, 1.114258
428.7200, 138.5762
429.9130, 47.70020
431.1060, 160.0410
432.2990, 155.7812
433.4920, 59.47852
434.6840, 111.1680
435.8770, 231.8779
437.0690, 96.62305
438.2610, 198.4092
439.4530, 165.2393
440.6450, 177.1113
441.8360, 228.0264
443.0280, 188.9834
444.2190, 97.98438
445.4100, 123.0283
446.6010, 184.1143
447.7920, 237.2383
448.9820, 288.4053
450.1730, 103.6162
451.3630, 91.87109
452.5530, 179.2178
453.7430, 297.7295
454.9330, 366.4961
456.1230, 388.1963
457.3120, 221.6904
458.5010, 298.2988
459.6910, 277.5508
460.8800, 252.8369
462.0680, 363.7793
463.2570, 224.8750
464.4460, 233.5752
465.6340, 247.3477
466.8220, 355.1504
468.0100, 290.3936
469.1980, 335.8486
470.3860, 326.7451
471.5730, 248.6738
472.7600, 369.6338
473.9480, 354.6260
475.1350, 188.6523
476.3210, 398.7119
477.5080, 331.8066
478.6950, 508.9355
479.8810, 348.1006
481.0670, 486.3008
482.2530, 491.2383
483.4390, 626.8105
484.6250, 564.1221
485.8100, 615.4717
486.9960, 707.8604
488.1810, 651.2871
489.3660, 722.7539
490.5510, 733.2627
491.7360, 662.8105
492.9200, 853.3984
494.1050, 838.0391
495.2890, 1009.722
496.4730, 868.4482
497.6570, 923.2188
498.8400, 967.0371
500.0240, 1023.904
501.2070, 982.8193
502.3910, 1025.778
503.5740, 966.7852
504.7570, 1050.668
505.9400, 1064.769
507.1220, 982.9277
508.3050, 1100.016
509.4870, 1142.942
510.6690, 1203.857
511.8510, 1243.877
513.0330, 1327.906
514.2140, 1326.993
515.3960, 1476.523
516.5770, 1478.109
517.7580, 1485.817
518.9390, 1509.534
520.1200, 1738.061
521.3010, 1652.876
522.4810, 1800.974
523.6610, 1684.896
524.8420, 1958.361
526.0220, 1949.696
527.2010, 2195.788
528.3810, 2008.996
529.5610, 2135.309
530.7400, 2008.685
531.9190, 2142.115
533.0980, 2098.647
534.2770, 2153.003
535.4560, 1963.126
536.6340, 1927.861
537.8120, 2224.217
538.9910, 2065.147
540.1690, 2182.238
541.3460, 2079.734
542.5240, 2225.954
543.7020, 2324.005
544.8790, 2375.458
546.0560, 2242.036
547.2330, 2352.348
548.4100, 2366.049
549.5870, 2389.218
550.7630, 2523.975
551.9400, 2408.715
553.1160, 2457.550
554.2920, 2346.455
555.4680, 2311.427
556.6440, 2329.457
557.8190, 2369.554
558.9950, 2436.725
560.1700, 2415.965
561.3450, 2362.265
562.5200, 2400.652
563.6950, 2217.113
564.8690, 2233.629
566.0440, 2340.203
567.2180, 2217.832
568.3920, 2235.516
569.5660, 2332.224
570.7400, 2156.051
571.9130, 2254.910
573.0870, 2238.878
574.2600, 2128.898
575.4330, 1869.974
576.6060, 1696.112
577.7790, 1701.302
578.9520, 1531.555
580.1240, 1584.886
581.2960, 1341.273
582.4690, 1205.715
583.6410, 1009.208
584.8120, 893.6270
585.9840, 763.3633
587.1560, 738.0234
588.3270, 606.7354
589.4980, 619.5127
590.6690, 528.3408
591.8400, 470.2256
593.0110, 623.1641
594.1810, 513.1523
595.3510, 558.1904
596.5220, 567.2783
597.6920, 563.4141
598.8610, 637.5996
600.0310, 644.8359
601.2010, 661.1221
602.3700, 575.4570
603.5390, 692.8467
604.7080, 651.2871
605.8770, 677.7754
607.0460, 788.0127
608.2140, 872.2158
609.3830, 945.5312
610.5510, 1106.215
611.7190, 1091.943
612.8870, 1074.719
614.0550, 1182.539
615.2220, 1284.410
616.3900, 1254.328
617.5570, 1376.290
618.7240, 1449.306
619.8910, 1380.364
621.0580, 1632.469
622.2240, 1732.620
623.3910, 1809.814
624.5570, 1832.054
625.7230, 1949.339
626.8890, 2153.667
628.0550, 2164.039
629.2200, 2335.453
630.3860, 2431.912
631.5510, 2584.412
632.7160, 2715.956
633.8810, 2911.294
635.0460, 3081.922
636.2100, 3301.809
637.3750, 3447.299
638.5390, 3781.178
639.7030, 3984.108
640.8670, 4238.939
642.0310, 4749.979
643.1950, 4857.209
644.3580, 5172.459
645.5210, 5263.658
646.6850, 5673.456
647.8480, 5903.522
649.0100, 6252.627
650.1730, 6640.773
651.3350, 6972.062
652.4980, 7480.312
653.6600, 7926.902
654.8220, 8296.692
655.9840, 8696.063
657.1450, 9397.239
658.3070, 9623.716
659.4680, 10182.19
660.6300, 10477.73
661.7910, 10877.30
662.9510, 11173.33
664.1120, 11451.99
665.2730, 11645.45
666.4330, 11837.16
667.5930, 11909.75
668.7530, 12020.72
669.9130, 12096.58
671.0730, 12084.48
672.2320, 11662.74
673.3920, 11568.79
674.5510, 11261.47
675.7100, 10960.61
676.8690, 10631.59
678.0280, 10276.10
679.1860, 9950.307
680.3450, 9567.011
681.5030, 9241.522
682.6610, 8844.908
683.8190, 8451.441
684.9770, 8031.002
686.1340, 7671.619
687.2920, 7234.865
688.4490, 6897.852
689.6060, 6657.828
690.7630, 6191.520
691.9200, 6124.146
693.0760, 5692.395
694.2330, 5378.473
695.3890, 5194.076
696.5450, 4905.293
697.7010, 4616.156
698.8570, 4376.039
700.0130, 4095.664
701.1680, 3828.736
702.3230, 3745.188
703.4780, 3464.336
704.6330, 3071.354
705.7880, 3037.802
706.9430, 2989.324
708.0970, 2620.016
709.2520, 2518.627
710.4060, 2415.275
711.5600, 2262.575
712.7140, 2160.327
713.8670, 2045.234
715.0210, 1937.039
716.1740, 1856.787
717.3270, 1772.928
718.4800, 1732.740
719.6330, 1564.948
720.7860, 1489.056
721.9380, 1338.166
723.0910, 1357.703
724.2430, 1287.500
725.3950, 1153.625
726.5470, 1131.741
727.6980, 1085.112
728.8500, 985.8877
730.0010, 925.3799
731.1530, 888.0391
732.3040, 733.1562
733.4550, 810.9424
734.6050, 830.7393
735.7560, 666.7793
736.9060, 598.6445
738.0560, 662.5771
739.2060, 540.9863
740.3560, 439.1182
741.5060, 527.3506
742.6560, 497.0439
743.8050, 424.9062
744.9540, 395.7773
746.1030, 267.6729
747.2520, 453.6826
748.4010, 360.7119
749.5500, 385.7549
750.6980, 293.9307
751.8460, 372.6172
752.9950, 228.2256
754.1420, 153.0010
755.2900, 225.7939
756.4380, 113.0342
757.5850, 152.6719
758.7330, 136.3496
759.8800, 139.3037
761.0270, 124.7295
762.1730, 111.6045
763.3200, 81.67578
764.4670, 81.24219
765.6130, 79.82422
766.7590, 64.33887
767.9050, 132.0664
769.0510, 121.5791
770.1960, 32.07715
771.3420, 57.43945
772.4870, 167.0117
773.6320, 62.44727
774.7770, 22.86719
775.9220, 7.729492
777.0670, 39.34570
778.2110, 9.008789
779.3560, 22.34473
780.5000, 27.10352
781.6440, 51.61133
782.7880, 20.24707
783.9320, 44.94336
785.0750, 63.19434
786.2180, 121.5195
787.3620, 132.9473
788.5050, 44.11816
789.6480, 21.84277
790.7900, 9.617188
791.9330, 45.11035
793.0750, 54.97656
794.2170, 94.81055
795.3590, 3.029297
796.5010, 23.78613
797.6430, 77.67480
798.7850, 68.62500
799.9260, 1.619141
801.0670, 33.19141
802.2080, 8.022461
803.3490, 113.2725
804.4900, 33.61621
805.6310, 6.011719
806.7710, 2.444336
807.9110, 68.08496
809.0510, 132.4131
810.1910, 38.98242
811.3310, 39.65137
812.4710, 44.65527
813.6100, 9.065430
814.7490, 74.83496
815.8880, 92.68750
817.0270, 63.63281
818.1660, 121.6758
819.3050, 8.167969
820.4430, 55.50098
821.5820, 72.01660
822.7200, 99.72949
823.8580, 28.51172
824.9950, 54.76367
826.1330, 85.09473
827.2710, 20.16016
828.4080, 124.5898
829.5450, 21.71094
830.6820, 17.79590
831.8190, 31.31934
832.9560, 17.62012
834.0920, 36.34766
835.2280, 23.29004
836.3650, 21.57422
837.5010, 90.60938
838.6360, 31.89844
839.7720, 70.73633
840.9080, 33.11230
842.0430, 57.88184
843.1780, 56.39160
844.3130, 0.8593750
845.4480, 44.73438
846.5830, 60.41406
847.7170, 33.81250
848.8520, 122.9893
849.9860, 70.13086
851.1200, 18.23047
852.2540, 186.2744
853.3870, 18.28418
854.5210, 41.76270
855.6540, 46.10254
856.7880, 112.9199
857.9210, 114.7002
859.0540, 81.44043
860.1860, 32.13965
861.3190, 118.7852
862.4510, 121.3906
863.5840, 1.958008
864.7160, 230.4580
865.8480, 45.92188
866.9790, 83.33496
868.1110, 128.7041
869.2420, 197.0352
870.3740, 195.8574
871.5050, 141.5869
872.6360, 180.8057
873.7660, 165.9873
874.8970, 107.1318
876.0280, 134.2334
877.1580, 63.29492
878.2880, 90.30762
879.4180, 184.2744
880.5480, 182.2061
881.6770, 176.0967
882.8070, 75.95215
883.9360, 245.7588
885.0650, 235.5283
886.1940, 188.8057
887.3230, 282.9570
888.4520, 99.61523
889.5800, 200.2295
890.7090, 194.8047
891.8370, 68.34277
892.9650, 273.8311
894.0930, 218.2822
895.2200, 157.6963
896.3480, 218.0703
897.4750, 243.4072
898.6020, 136.7080
899.7290, 321.9668
900.8560, 272.1904
901.9830, 259.3750
903.1090, 189.5303
904.2360, 239.7109
905.3620, 348.5820
906.4880, 407.6279
907.6140, 417.7676
908.7400, 241.3877
909.8650, 308.0430
910.9900, 277.2529
912.1160, 242.2969
913.2410, 341.9160
914.3660, 268.0557
915.4900, 311.8105
916.6150, 386.5381
917.7390, 326.2305
918.8640, 287.8867
919.9880, 253.7373
921.1120, 310.3223
922.2350, 183.8711
923.3590, 306.3809
924.4820, 329.7549
925.6060, 361.1943
926.7290, 248.3008
927.8520, 280.2275
928.9740, 229.5791
930.0970, 264.1211
931.2190, 262.3848
932.3420, 263.6406
933.4640, 273.8701
934.5860, 276.9980
935.7080, 249.5654
936.8290, 314.4775
937.9510, 332.0879
939.0720, 392.4785
940.1930, 442.7451
941.3140, 410.1260
942.4350, 292.6016
943.5560, 322.5449
944.6760, 358.1270
945.7960, 277.9121
946.9170, 290.0830
948.0370, 211.7969
949.1560, 222.6709
950.2760, 304.3115
951.3960, 284.7207
952.5150, 200.8457
953.6340, 271.2217
954.7530, 306.6211
955.8720, 183.0684
956.9910, 274.5566
958.1090, 329.9072
959.2280, 263.6299
960.3460, 224.6191
961.4640, 142.6104
962.5820, 275.8848
963.6990, 234.2158
964.8170, 233.9160
965.9340, 252.7949
967.0510, 273.1396
968.1690, 395.8633
969.2850, 243.3281
970.4020, 156.5352
971.5190, 193.2510
972.6350, 303.0898
973.7510, 231.5371
974.8670, 200.2773
975.9830, 184.1396
977.0990, 163.5576
978.2150, 211.8896
979.3300, 303.0410
980.4450, 281.2617
981.5600, 254.4326
982.6750, 200.9639
983.7900, 200.8721
984.9050, 319.2051
986.0190, 473.9688
987.1340, 273.0225
988.2480, 394.6719
989.3620, 249.6338
990.4750, 241.1855
991.5890, 310.8242
992.7020, 188.4453
993.8160, 105.6240
994.9290, 357.5264
996.0420, 107.0869
997.1550, 244.6406
998.2670, 213.9209
999.3800, 178.7822
1000.492, 230.9131
1001.604, 187.8594
1002.716, 311.3301
1003.828, 222.1143
1004.940, 307.8721
1006.051, 282.3691
1007.163, 361.0195
1008.274, 282.5869
1009.385, 201.6602
1010.496, 220.9902
1011.606, 185.2021
1012.717, 336.9326
1013.827, 219.4746
1014.937, 437.9912
1016.047, 342.4609
1017.157, 317.6680
1018.267, 290.0244
1019.377, 235.0176
1020.486, 164.4697
1021.595, 195.0469
1022.704, 289.6826
1023.813, 207.1562
1024.922, 224.5898
1026.030, 302.5557
1027.139, 283.1006
1028.247, 264.5850
1029.355, 360.7715
1030.463, 304.2236
1031.571, 308.7256
1032.678, 300.6826
1033.786, 266.0469
1034.893, 278.0654
1036.000, 240.7295
1037.107, 253.9785
1038.214, 287.4326
1039.321, 220.9443
1040.427, 398.3672
1041.533, 342.2139
1042.639, 397.2021
1043.745, 354.6064
1044.851, 330.0020
1045.957, 351.3896
1047.062, 307.7744
1048.168, 241.1514
1049.273, 427.4873
1050.378, 210.8486
1051.482, 344.2031
1052.587, 313.5488
1053.692, 282.8965
1054.796, 389.2373
1055.900, 281.3223
1057.004, 389.6494
1058.108, 449.9795
1059.212, 271.3027
1060.315, 356.6729
1061.418, 337.9990
1062.522, 354.2725
1063.625, 429.4697
1064.728, 420.3506
1065.830, 459.8057
1066.933, 435.1279
1068.035, 363.3682
1069.137, 302.6826
1070.239, 333.2998
1071.341, 340.6104
1072.443, 366.9482
1073.545, 371.2949
1074.646, 333.6426
1075.747, 360.9912
1076.848, 321.3359
1077.949, 261.7168
1079.050, 281.0938
1080.150, 309.4834
1081.251, 319.6973
1082.351, 337.0527
1083.451, 344.3232
1084.551, 351.6162
1085.651, 361.0820
1086.750, 360.0928
1087.850, 344.9414
1088.949, 333.1104
1090.048, 307.6143
1091.147, 256.1514
1092.246, 249.8496
1093.345, 308.4238
1094.443, 172.9590
1095.541, 316.5654
1096.639, 373.2148
1097.737, 225.9941
1098.835, 374.6719
1099.933, 491.3525
1101.030, 299.0469
1102.128, 229.7607
1103.225, 139.4922
1104.322, 268.7275
1105.419, 210.4990
1106.515, 315.2900
1107.612, 271.0811
1108.708, 116.3486
1109.804, 240.0811
1110.900, 314.0264
1111.996, 340.8662
1113.092, 179.4961
1114.187, 266.2441
1115.283, 250.5654
1116.378, 236.1738
1117.473, 352.1172
1118.568, 270.8477
1119.662, 272.7422
1120.757, 277.4004
1121.851, 238.5791
1122.946, 264.5146
1124.040, 219.4512
1125.134, 175.3877
1126.227, 235.3291
1127.321, 186.4375
1128.414, 185.2285
1129.508, 155.1777
1130.601, 148.1445
1131.693, 111.8691
1132.786, 170.3193
1133.879, 138.2979
1134.971, 228.2773
1136.064, 274.2578
1137.156, 269.2383
1138.248, 154.2197
1139.339, 222.2021
1140.431, 119.1855
1141.522, 219.1729
1142.614, 109.1621
1143.705, 105.1592
1144.796, 176.1602
1145.887, 197.1621
1146.977, 121.1660
1148.068, 240.1719
1149.158, 219.1836
1150.248, 88.19824
1151.338, 173.2129
1152.428, 99.22852
1153.518, 17.24609
1154.607, 61.37695
1155.696, 143.4043
1156.785, 230.4326
1157.874, 80.46973
1158.963, 213.5078
1160.052, 39.54785
1161.141, 153.5898
1162.229, 107.6328
1163.317, 129.6787
1164.405, 80.72754
1165.493, 77.79297
1166.581, 29.17090
1167.668, 60.86816
1168.756, 5.909180
1169.843, 1.047852
1170.930, 24.99414
1172.017, 10.04004
1173.103, 143.0859
1174.190, 46.13477
1175.276, 73.18457
1176.363, 126.2373
1177.449, 23.29102
1178.535, 57.34766
1179.620, 33.59375
1180.706, 141.4492
1181.791, 42.49316
1182.877, 139.5400
1183.962, 139.8594
1185.047, 85.64062
1186.131, 103.6934
1187.216, 100.7510
1188.300, 30.81152
1189.385, 107.8730
1190.469, 66.06250
1191.553, 64.97070
1192.637, 98.00391
1193.720, 30.95898
1194.804, 77.06445
1195.887, 27.91113
1196.970, 116.1025
1198.053, 15.88281
1199.136, 63.12695
1200.219, 37.86133
1201.301, 26.13184
1202.383, 35.12793
1203.465, 142.1270
1204.547, 85.12793
1205.629, 133.1318
1206.711, 164.2500
1207.792, 89.88379
1208.874, 184.1592
1209.955, 30.17285
1211.036, 45.80957
1212.117, 27.26562
1213.198, 85.51465
1214.278, 148.5049
1215.359, 164.3818
1216.439, 7.974609
1217.519, 62.73242
1218.599, 36.03223
1219.678, 5.338867
1220.758, 110.2646
1221.837, 34.70801
1222.917, 68.05078
1223.996, 71.91504
1225.075, 130.9951
1226.153, 67.97559
1227.232, 66.04297
1228.310, 57.90430
1229.389, 72.85254
1230.467, 62.80273
1231.545, 21.75488
1232.622, 106.7070
1233.700, 40.33887
1234.777, 89.59375
1235.855, 171.5273
1236.932, 12.46289
1238.009, 56.39844
1239.086, 82.33594
1240.162, 20.27246
1241.239, 120.2119
1242.315, 28.15137
1243.391, 80.82812
1244.467, 73.07031
1245.543, 85.03125
1246.619, 113.0049
1247.694, 68.86035
1248.769, 139.7393
1249.844, 6.596680
1250.919, 86.94824
1251.994, 190.8232
1253.069, 244.9102
1254.144, 251.8770
1255.218, 70.62109
1256.292, 132.4307
1257.366, 96.83301
1258.440, 57.23926
1259.514, 153.2617
1260.587, 0.6054690
1261.661, 93.26660
1262.734, 18.93750
1263.807, 87.80176
1264.880, 113.6660
1265.952, 167.5322
1267.025, 214.3984
1268.097, 92.26562
1269.170, 95.13379
1270.242, 113.4277
1271.314, 66.13477
1272.385, 150.7451
1273.457, 77.61621
1274.528, 56.49023
1275.600, 112.3643
1276.671, 159.2393
1277.742, 111.1162
1278.812, 178.9922
1279.883, 100.8711
1280.954, 12.74902
1282.024, 70.62988
1283.094, 98.84570
1284.164, 122.9844
1285.234, 106.8154
1286.303, 185.6494
1287.373, 134.4824
1288.442, 169.3184
1289.511, 199.1553
1290.580, 161.9941
1291.649, 203.0137
1292.718, 191.7871
1293.786, 189.5176
1294.855, 228.3623
1295.923, 124.5732
1296.991, 218.4219
1298.059, 155.2588
1299.126, 120.0293
1300.194, 25.88184
1301.261, 87.73730
1302.328, 156.5947
1303.395, 177.4551
1304.462, 162.3164
1305.529, 206.1797
1306.596, 264.0459
1307.662, 87.91504
1308.728, 263.8184
1309.794, 137.6924
1310.860, 290.5684
1311.926, 209.4473
1312.991, 133.3291
1314.057, 255.2148
1315.122, 97.11816
1316.187, 115.0244
1317.252, 187.9336
1318.317, 206.8467
1319.381, 99.71387
1320.446, 144.6348
1321.510, 110.5596
1322.574, 48.62891
1323.638, 20.56152
1324.702, 22.68750
1325.766, 33.27051
1326.829, 53.77441
1327.892, 114.7441
1328.956, 136.3545
1330.019, 190.3018
1331.081, 41.25098
1332.144, 142.2012
1333.206, 152.1533
1334.269, 164.1084
1335.331, 238.0635
1336.393, 213.0205
1337.455, 48.98047
1338.516, 199.9424
1339.578, 115.5547
1340.639, 137.9102
1341.701, 164.3408
1342.762, 115.3105
1343.822, 248.2842
1344.883, 81.75098
1345.944, 158.7295
1347.004, 94.71094
1348.064, 68.42480
1349.124, 164.8418
1350.184, 53.68359
1351.244, 79.67578
1352.304, 95.34863
1353.363, 199.6465
1354.422, 245.6377
1355.481, 172.5156
1356.540, 145.5146
1357.599, 87.51660
1358.657, 228.5225
1359.716, 148.5322
1360.774, 212.5459
1361.832, 225.0645
1362.890, 193.0869
1363.948, 250.1133
1365.006, 131.1445
1366.063, 210.1797
1367.120, 113.2197
1368.178, 236.2637
1369.234, 212.3135
1370.291, 4.637695
1371.348, 161.3857
1372.404, 119.4453
1373.461, 61.65625
1374.517, 125.5254
1375.573, 1.408203
1376.629, 222.6641
1377.684, 216.7383
1378.740, 208.8223
1379.795, 52.91309
1380.850, 57.00781
1381.905, 149.1113
1382.960, 127.2188
1384.015, 284.3330
1385.070, 141.4541
1386.124, 267.5820
1387.178, 171.8398
1388.232, 217.7451
1389.286, 126.8906
1390.340, 79.04395
1391.393, 108.2021
1392.447, 55.42383
1393.500, 73.53906
1394.553, 57.71777
1395.606, 116.9033
1396.659, 174.0957
1397.711, 85.29590
1398.764, 156.5029
1399.816, 157.7168
1400.868, 143.9395
1401.920, 178.1670
1402.972, 191.4033
1404.023, 57.64844
1405.075, 193.9014
1406.126, 101.1621
1407.177, 33.43262
1408.228, 284.7119
1409.279, 27.99902
1410.330, 51.19141
1411.380, 154.4961
1412.431, 41.81152
1413.481, 214.1357
1414.531, 103.4697
1415.580, 121.8115
1416.630, 129.3350
1417.680, 106.4941
1418.729, 97.90625
1419.778, 135.2939
1420.827, 160.6934
1421.876, 191.1035
1422.925, 183.5332
1423.973, 187.9756
1425.022, 141.4307
1426.070, 178.9014
1427.118, 108.3857
1428.166, 174.8848
1429.214, 154.3975
1430.261, 140.9277
1431.309, 177.4727
1432.356, 97.03613
1433.403, 23.61523
1434.450, 177.2129
1435.497, 28.83789
1436.543, 235.4814
1437.590, 221.1465
1438.636, 38.83398
1439.682, 167.6807
1440.728, 125.7275
1441.774, 86.48633
1442.819, 88.27148
1443.865, 75.62793
1444.910, 124.9287
1445.955, 109.8242
1447.000, 124.7549
1448.045, 181.4531
1449.090, 153.1523
1450.134, 175.8291
1451.178, 299.4531
1452.223, 190.0605
1453.267, 215.6592
1454.310, 193.2949
1455.354, 102.6270
1456.398, 107.9639
1457.441, 10.30957
1458.484, 46.65918
1459.527, 144.0166
1460.570, 239.4141
1461.613, 94.82715
1462.655, 184.2500
1463.698, 73.68457
1464.740, 89.12500
1465.782, 107.5947
1466.824, 70.17676
1467.866, 173.5801
1468.907, 87.11523
1469.948, 153.6602
1470.990, 208.2285
1472.031, 202.8193
1473.072, 11.57910
1474.112, 150.0322
1475.153, 54.56055
1476.194, 175.2451
1477.234, 104.3232
1478.274, 69.03223
1479.314, 165.7803
1480.354, 63.54297
1481.393, 64.31738
1482.433, 185.1064
1483.472, 164.9072
1484.511, 134.7256
1485.550, 173.5566
1486.589, 62.40234
1487.628, 159.2617
1488.666, 381.1348
1489.704, 182.0234
1490.743, 224.4824
1491.781, 146.8447
1492.819, 66.77637
1493.856, 95.72461
1494.894, 92.77441
1495.931, 10.81836
1496.968, 121.8809
1498.005, 10.04102
1499.042, 9.945313
1500.079, 185.1670
1501.115, 116.2969
1502.152, 103.4424
1503.188, 65.60547
1504.224, 47.13086
1505.260, 194.9795
1506.296, 66.19141
1507.331, 93.41797
1508.367, 188.6582
1509.402, 42.91309
1510.437, 104.1260
1511.472, 9.649414
1512.507, 89.58301
1513.541, 223.8232
1514.576, 159.0771
1515.610, 134.8975
1516.644, 242.3232
1517.678, 299.9844
1518.712, 310.5615
1519.746, 132.9346
1520.779, 198.4141
1521.813, 166.5107
1522.846, 130.6514
1523.879, 230.4414
1524.912, 202.0527
1525.944, 249.2539
1526.977, 112.8613
1528.009, 117.5332
1529.041, 147.2725
1530.073, 110.0488
1531.105, 224.8633
1532.137, 150.7178
1533.168, 106.6143
1534.200, 227.5537
1535.231, 184.5361
1536.262, 201.5664
1537.293, 27.66895
1538.324, 159.4375
1539.354, 44.23926
1540.385, 161.4678
1541.415, 141.7500
1542.445, 158.0850
1543.475, 216.4795
1544.505, 95.93555
1545.534, 98.98633
1546.564, 114.5703
1547.593, 134.2334
1548.622, 136.4277
1549.651, 242.3018
1550.680, 298.4775
1551.708, 307.6436
1552.737, 128.6875
1553.765, 192.9180
1554.793, 159.8525
1555.821, 122.9141
1556.849, 221.7207
1557.877, 70.77051
1558.904, 167.7637
1559.932, 166.0361
1560.959, 168.8350
1561.986, 65.38672
1563.013, 17.18848
1564.039, 38.74707
1565.066, 144.1650
1566.092, 246.1289
1567.119, 298.6582
1568.145, 304.5156
1569.170, 122.6514
1570.196, 184.4199
1571.222, 86.03125
1572.247, 36.39746
1573.272, 72.22168
1574.297, 80.48047
1575.322, 81.82812
1576.347, 76.65430
1577.372, 0.0000000E+00
##END=



