##NAMES=Magnesite
##RRUFFID=R050676
##IDEAL CHEMISTRY=MgCO_3_
##LOCALITY=Tyrol, Austria
##OWNER=RRUFF
##SOURCE=University of Arizona Mineral Museum
##DESCRIPTION=Brown rhombohedral crystals
##STATUS=The identification of this mineral has been confirmed by X-ray diffraction and chemical analysis
##URL=rruff.info/R050676
##MEASURED CHEMISTRY=(Mg_0.87_Fe^2+^_0.12_Ca_0.01_)_Î£=1_CO_3_; trace amounts of Mn and Cd; CO_2_ estimated by difference
##PIN_ID=M01410
##ORIENTATION=Laser parallel to c* (0 0 1). Fiducial mark perpendicular to laser is parallel to a [1 0 0]
61.07900, 0.0000000E+00
62.32000, 22.16016
63.56100, 38.34082
64.80100, 237.6597
66.04100, 2.865234
67.28100, 12.98438
68.52100, 406.2251
69.76100, 446.3330
71.00100, 541.2690
72.24000, 566.0391
73.47900, 547.0928
74.71800, 762.9868
75.95700, 896.4507
77.19600, 962.3696
78.43500, 779.4243
79.67300, 861.3989
80.91200, 1138.517
82.15000, 1533.432
83.38800, 1344.562
84.62600, 1103.927
85.86300, 633.5249
87.10100, 457.6504
88.33800, 223.8032
89.57500, 268.1050
90.81200, 165.6670
92.04900, 110.5679
93.28600, 243.8613
94.52300, 172.9600
95.75900, 28.98193
96.99500, 95.79932
98.23100, 49.02637
99.46700, 161.3496
100.7030, 232.9912
101.9390, 204.6782
103.1740, 335.9443
104.4090, 455.2637
105.6440, 573.0068
106.8790, 366.4717
108.1140, 236.8096
109.3490, 200.2095
110.5830, 219.5903
111.8180, 236.3140
113.0520, 268.3804
114.2860, 304.8711
115.5200, 542.1621
116.7530, 392.4565
117.9870, 425.7671
119.2200, 687.1748
120.4530, 1211.549
121.6860, 1119.808
122.9190, 1091.935
124.1520, 497.9243
125.3850, 234.7827
126.6170, 161.5151
127.8490, 19.12598
129.0810, 75.61865
130.3130, 37.99854
131.5450, 1.730469
132.7770, 18.56641
134.0080, 68.50439
135.2390, 11.51172
136.4710, 85.49805
137.7020, 28.53613
138.9320, 130.5874
140.1630, 40.65283
141.3930, 53.72705
142.6240, 17.19385
143.8540, 103.8843
145.0840, 5.433105
146.3140, 92.15918
147.5440, 48.93701
148.7730, 138.5806
150.0020, 9.086426
151.2320, 62.50098
152.4610, 50.18018
153.6900, 79.49561
154.9180, 46.88184
156.1470, 174.7197
157.3750, 184.1460
158.6040, 260.5698
159.8320, 208.0581
161.0600, 190.2417
162.2870, 274.4736
163.5150, 278.5186
164.7420, 298.8813
165.9700, 257.7764
167.1970, 209.4351
168.4240, 224.1680
169.6510, 303.3096
170.8770, 381.7476
172.1040, 353.1660
173.3300, 445.0537
174.5560, 404.8198
175.7820, 499.6904
177.0080, 544.4229
178.2340, 495.5879
179.4590, 519.0015
180.6850, 643.8564
181.9100, 638.1982
183.1350, 649.1831
184.3600, 801.9126
185.5850, 800.6123
186.8090, 835.2886
188.0340, 996.9370
189.2580, 1111.556
190.4820, 1167.143
191.7060, 1448.698
192.9300, 1630.220
194.1530, 2002.709
195.3770, 2301.167
196.6000, 2631.591
197.8230, 3218.981
199.0460, 3850.341
200.2690, 4614.669
201.4910, 5422.966
202.7140, 6689.230
203.9360, 8024.465
205.1580, 9502.667
206.3800, 11408.84
207.6020, 13530.98
208.8240, 15826.75
210.0450, 16786.56
211.2670, 16363.35
212.4880, 14123.13
213.7090, 11194.83
214.9300, 8273.521
216.1510, 5754.158
217.3710, 3712.737
218.5920, 2547.249
219.8120, 1833.689
221.0320, 1194.056
222.2520, 918.3501
223.4720, 603.5728
224.6910, 640.7261
225.9110, 421.7969
227.1300, 346.7622
228.3490, 207.6353
229.5680, 195.4189
230.7870, 120.1177
232.0050, 151.7324
233.2240, 150.2656
234.4420, 116.7251
235.6600, 197.1133
236.8780, 185.4351
238.0960, 63.69385
239.3140, 112.8887
240.5310, 192.0234
241.7490, 47.06641
242.9660, 58.67139
244.1830, 67.32910
245.4000, 141.3403
246.6160, 44.25830
247.8330, 12.21680
249.0490, 10.59619
250.2660, 38.83301
251.4820, 8.951660
252.6980, 53.93994
253.9130, 108.0498
255.1290, 108.4229
256.3440, 165.6523
257.5600, 7.750000
258.7750, 43.21582
259.9900, 7.134766
261.2040, 125.9858
262.4190, 83.69238
263.6330, 150.4429
264.8480, 22.29053
266.0620, 176.1182
267.2760, 38.23047
268.4900, 168.5054
269.7030, 67.52539
270.9170, 112.3623
272.1300, 122.6401
273.3430, 131.9624
274.5560, 93.25928
275.7690, 165.1865
276.9820, 42.59766
278.1940, 91.01367
279.4070, 85.34277
280.6190, 60.53809
281.8310, 39.88916
283.0430, 85.16846
284.2550, 157.4282
285.4660, 77.33008
286.6770, 40.75342
287.8890, 28.95361
289.1000, 27.53369
290.3110, 29.74658
291.5210, 160.0640
292.7320, 214.3364
293.9420, 11.31494
295.1530, 246.2661
296.3630, 161.2485
297.5730, 153.3755
298.7830, 157.3882
299.9920, 151.3379
301.2020, 248.4619
302.4110, 208.1465
303.6200, 287.0845
304.8290, 341.5659
306.0380, 266.9614
307.2470, 356.0259
308.4550, 475.6084
309.6630, 600.1621
310.8720, 806.6582
312.0800, 1005.937
313.2880, 1260.298
314.4950, 1529.322
315.7030, 1976.428
316.9100, 2492.462
318.1170, 2948.441
319.3240, 3878.394
320.5310, 4816.317
321.7380, 6021.190
322.9450, 7486.021
324.1510, 8816.822
325.3570, 9579.602
326.5630, 9938.363
327.7690, 9260.105
328.9750, 7880.828
330.1810, 6301.534
331.3860, 4777.222
332.5910, 3469.896
333.7960, 2615.553
335.0010, 1980.194
336.2060, 1521.817
337.4110, 1200.439
338.6150, 1139.042
339.8200, 932.6294
341.0240, 820.1992
342.2280, 734.7539
343.4320, 759.2930
344.6350, 635.8574
345.8390, 547.3188
347.0420, 477.8076
348.2450, 414.2388
349.4480, 377.8398
350.6510, 368.1792
351.8540, 330.6069
353.0560, 388.0186
354.2590, 371.3989
355.4610, 250.7476
356.6630, 340.0645
357.8650, 289.3506
359.0670, 293.6128
360.2680, 299.8438
361.4700, 297.0439
362.6710, 297.2480
363.8720, 321.3506
365.0730, 287.4585
366.2740, 317.5356
367.4740, 308.3735
368.6750, 327.6016
369.8750, 334.5898
371.0750, 368.5488
372.2750, 369.4785
373.4750, 229.1074
374.6740, 349.6538
375.8740, 416.8550
377.0730, 228.1597
378.2720, 338.4287
379.4710, 357.5288
380.6700, 297.9355
381.8690, 230.2651
383.0670, 356.8789
384.2660, 292.8486
385.4640, 332.1230
386.6620, 324.4604
387.8600, 304.9199
389.0570, 204.4336
390.2550, 178.3984
391.4520, 164.5854
392.6490, 160.2183
393.8460, 174.2798
395.0430, 188.3618
396.2400, 208.6367
397.4370, 154.8823
398.6330, 78.55518
399.8290, 89.20557
401.0250, 13.07324
402.2210, 145.3145
403.4170, 147.3306
404.6130, 152.4341
405.8080, 178.7969
407.0030, 159.4673
408.1980, 128.0811
409.3930, 122.6611
410.5880, 46.40771
411.7830, 4.246094
412.9770, 50.91406
414.1720, 86.01514
415.3660, 0.5942380
416.5600, 8.186523
417.7530, 80.76807
418.9470, 11.60986
420.1410, 99.84619
421.3340, 20.50293
422.5270, 57.41504
423.7200, 43.47021
424.9130, 53.68018
426.1060, 25.84131
427.2980, 28.22412
428.4900, 100.5894
429.6830, 30.56787
430.8750, 13.78027
432.0670, 138.6987
433.2580, 61.49756
434.4500, 136.1528
435.6410, 140.4736
436.8320, 104.0103
438.0240, 12.12256
439.2140, 92.76611
440.4050, 19.93896
441.5960, 21.69971
442.7860, 62.53271
443.9760, 42.72852
445.1670, 28.33789
446.3560, 30.25342
447.5460, 120.3218
448.7360, 94.64502
449.9250, 146.2202
451.1150, 65.88721
452.3040, 63.81494
453.4930, 69.31836
454.6810, 118.8984
455.8700, 53.37256
457.0590, 239.8311
458.2470, 212.0435
459.4350, 214.5317
460.6230, 179.1221
461.8110, 484.5312
462.9980, 627.8960
464.1860, 565.8306
465.3730, 571.7378
466.5600, 474.1606
467.7470, 321.7837
468.9340, 306.4175
470.1210, 263.2324
471.3080, 171.6616
472.4940, 370.0967
473.6800, 303.5049
474.8660, 375.7891
476.0520, 353.6318
477.2380, 376.8892
478.4230, 403.2861
479.6090, 418.3384
480.7940, 551.5615
481.9790, 551.7725
483.1640, 556.2852
484.3490, 572.8765
485.5330, 548.4458
486.7180, 590.6333
487.9020, 625.8320
489.0860, 685.2729
490.2700, 769.4917
491.4540, 805.8843
492.6370, 767.8857
493.8210, 936.2656
495.0040, 814.5615
496.1870, 998.6401
497.3700, 930.7124
498.5530, 884.0186
499.7360, 903.2368
500.9180, 891.1440
502.1000, 929.6841
503.2830, 1011.512
504.4650, 1047.591
505.6460, 1037.662
506.8280, 1125.726
508.0100, 1084.780
509.1910, 1080.019
510.3720, 990.0542
511.5530, 929.0801
512.7340, 920.0776
513.9150, 875.9321
515.0950, 899.1133
516.2760, 910.1118
517.4560, 927.1040
518.6360, 943.6235
519.8160, 982.5854
520.9950, 953.5688
522.1750, 970.5513
523.3540, 933.5264
524.5340, 872.5059
525.7130, 969.5000
526.8920, 785.4873
528.0700, 757.4707
529.2490, 813.4512
530.4270, 812.4282
531.6060, 852.4092
532.7840, 756.2783
533.9620, 671.1260
535.1390, 797.9644
536.3170, 686.8701
537.4940, 588.8379
538.6720, 607.8560
539.8490, 533.6958
541.0260, 591.2148
542.2030, 651.7778
543.3790, 511.0103
544.5560, 694.8467
545.7320, 578.6929
546.9080, 595.5723
548.0840, 586.5625
549.2600, 472.4712
550.4360, 554.2510
551.6110, 484.0171
552.7860, 436.4624
553.9620, 409.7085
555.1370, 472.1733
556.3110, 366.7930
557.4860, 280.9453
558.6610, 461.7754
559.8350, 355.1626
561.0090, 374.8613
562.1830, 423.5728
563.3570, 306.8228
564.5310, 380.7695
565.7040, 461.3242
566.8780, 317.7446
568.0510, 317.0200
569.2240, 287.5503
570.3970, 392.3823
571.5700, 196.9365
572.7420, 267.8633
573.9150, 360.8770
575.0870, 180.6016
576.2590, 237.6685
577.4310, 279.7554
578.6030, 311.7021
579.7740, 371.2769
580.9460, 350.1865
582.1170, 255.0278
583.2880, 154.7905
584.4590, 306.5659
585.6300, 90.26416
586.8010, 245.8984
587.9710, 147.2607
589.1410, 15.72412
590.3110, 87.17334
591.4810, 62.26807
592.6510, 3.7108999E-02
593.8210, 252.7896
594.9900, 64.43896
596.1600, 160.4980
597.3290, 126.1567
598.4980, 74.82422
599.6670, 82.15430
600.8350, 55.12451
602.0040, 103.0864
603.1720, 134.0405
604.3400, 135.9868
605.5080, 68.92578
606.6760, 157.8564
607.8440, 30.77881
609.0120, 25.69189
610.1790, 4.405273
611.3460, 69.48535
612.5130, 65.36719
613.6800, 69.24170
614.8470, 21.89307
616.0130, 8.044922
617.1800, 147.7925
618.3460, 61.62158
619.5120, 73.55811
620.6780, 158.2202
621.8440, 104.0059
623.0090, 23.78320
624.1750, 2.577637
625.3400, 5.362793
626.5050, 94.13672
627.6700, 88.91406
628.8350, 28.68408
629.9990, 79.44238
631.1640, 35.43652
632.3280, 18.07031
633.4920, 33.65137
634.6560, 51.53027
635.8200, 132.2305
636.9840, 125.2236
638.1470, 43.90625
639.3100, 65.13770
640.4730, 39.16602
641.6360, 208.1328
642.7990, 63.01758
643.9620, 239.3477
645.1240, 344.3730
646.2870, 144.8975
647.4490, 162.7354
648.6110, 71.56445
649.7730, 169.1875
650.9340, 226.8633
652.0960, 123.0303
653.2570, 140.7988
654.4180, 290.9932
655.5790, 193.4111
656.7400, 170.1504
657.9010, 2.951172
659.0620, 338.8779
660.2220, 203.7217
661.3820, 244.2910
662.5420, 263.7686
663.7020, 272.9561
664.8620, 293.8799
666.0210, 343.3398
667.1810, 382.2891
668.3400, 248.9072
669.4990, 254.5547
670.6580, 354.0254
671.8170, 475.6143
672.9750, 300.3018
674.1340, 326.9961
675.2920, 428.5547
676.4500, 414.9980
677.6080, 466.9609
678.7660, 466.5469
679.9230, 463.9668
681.0810, 434.8057
682.2380, 432.2344
683.3950, 478.9805
684.5520, 422.3066
685.7090, 409.2959
686.8660, 645.0537
688.0220, 650.6064
689.1780, 550.6836
690.3340, 469.1182
691.4900, 519.6338
692.6460, 597.2021
693.8020, 655.3779
694.9570, 613.1035
696.1130, 806.6455
697.2680, 789.2383
698.4230, 693.7637
699.5780, 810.1182
700.7320, 963.5830
701.8870, 976.6211
703.0410, 1103.058
704.1950, 1087.517
705.3490, 1245.790
706.5030, 1198.752
707.6570, 1345.026
708.8110, 1409.300
709.9640, 1650.963
711.1170, 1574.092
712.2700, 1836.500
713.4230, 2001.309
714.5760, 2342.505
715.7280, 2605.159
716.8810, 2838.836
718.0330, 3058.420
719.1850, 3448.506
720.3370, 3809.373
721.4890, 4213.227
722.6400, 4655.066
723.7920, 5264.645
724.9430, 5865.709
726.0940, 6686.129
727.2450, 7506.917
728.3960, 8404.585
729.5460, 9592.580
730.6970, 10652.17
731.8470, 11989.66
732.9970, 13383.36
734.1470, 14398.94
735.2970, 15437.59
736.4460, 16317.23
737.5960, 16618.08
738.7450, 16512.62
739.8940, 15748.02
741.0430, 14900.59
742.1920, 13946.13
743.3410, 12385.66
744.4890, 10777.04
745.6370, 9362.529
746.7850, 8233.747
747.9330, 7080.929
749.0810, 5997.906
750.2290, 5143.234
751.3760, 4357.728
752.5240, 3641.013
753.6710, 3168.390
754.8180, 2684.530
755.9650, 2122.901
757.1110, 1929.067
758.2580, 1464.642
759.4040, 1411.135
760.5510, 947.3877
761.6970, 990.8330
762.8420, 812.0537
763.9880, 638.8496
765.1340, 562.8057
766.2790, 576.9053
767.4240, 375.7305
768.5690, 397.7441
769.7140, 210.5498
770.8590, 247.7129
772.0030, 144.4658
773.1480, 221.2676
774.2920, 13.37891
775.4360, 191.3311
776.5800, 7.017578
777.7240, 176.7500
778.8670, 58.70508
780.0110, 99.90527
781.1540, 42.64355
782.2970, 89.16406
783.4400, 30.81445
784.5830, 128.4346
785.7250, 128.0303
786.8680, 174.4102
788.0100, 158.9570
789.1520, 52.13477
790.2940, 132.6299
791.4360, 50.11426
792.5780, 35.05566
793.7190, 134.9678
794.8600, 2.646484
796.0010, 83.20703
797.1420, 104.7100
798.2830, 28.00000
799.4240, 195.3447
800.5640, 8.421875
801.7050, 34.15625
802.8450, 226.9678
803.9850, 70.33203
805.1250, 144.4053
806.2640, 134.4805
807.4040, 75.49805
808.5430, 141.4404
809.6820, 114.3525
810.8210, 109.2402
811.9600, 138.1016
813.0990, 161.9375
814.2370, 54.74902
815.3760, 120.5312
816.5140, 92.28809
817.6520, 117.0186
818.7900, 13.27637
819.9270, 2.623047
821.0650, 164.9854
822.2020, 45.56836
823.3390, 61.12207
824.4760, 98.64844
825.6130, 38.14941
826.7500, 23.61816
827.8870, 95.05273
829.0230, 78.46094
830.1590, 168.8428
831.2950, 13.20117
832.4310, 2.477539
833.5670, 61.79980
834.7030, 70.04883
835.8380, 63.72852
836.9730, 82.41797
838.1080, 27.46191
839.2430, 81.60156
840.3780, 75.63867
841.5130, 115.6484
842.6470, 32.63477
843.7810, 110.5889
844.9150, 106.5195
846.0490, 23.57617
847.1830, 131.2734
848.3170, 60.10059
849.4500, 4.900391
850.5830, 18.66113
851.7160, 37.38672
852.8490, 25.42676
853.9820, 8.541016
855.1150, 109.1465
856.2470, 209.7266
857.3800, 216.2852
858.5120, 188.8213
859.6440, 7.557617
860.7760, 89.03320
861.9070, 42.51562
863.0390, 237.9395
864.1700, 39.34082
865.3010, 83.71875
866.4320, 198.0723
867.5630, 104.2666
868.6940, 259.5781
869.8240, 186.8672
870.9540, 313.1494
872.0850, 291.4102
873.2150, 387.6484
874.3450, 522.8848
875.4740, 562.0967
876.6040, 754.6865
877.7330, 590.0742
878.8620, 583.2256
879.9910, 650.3564
881.1200, 696.4678
882.2490, 372.6572
883.3770, 349.2383
884.5060, 191.7559
885.6340, 369.7881
886.7620, 90.79980
887.8900, 167.7900
889.0180, 197.7598
890.1450, 52.71387
891.2730, 125.6475
892.4000, 157.5586
893.5270, 107.4521
894.6540, 15.65918
895.7810, 133.1807
896.9070, 68.99805
898.0340, 43.74902
899.1600, 143.4736
900.2860, 10.81836
901.4120, 180.8447
902.5380, 201.4873
903.6630, 123.1143
904.7890, 158.7217
905.9140, 133.3135
907.0390, 179.8896
908.1640, 181.2812
909.2890, 79.82227
910.4130, 141.0449
911.5380, 177.5508
912.6620, 104.4814
913.7860, 11.07910
914.9100, 190.7090
916.0340, 71.88574
917.1580, 10.58984
918.2810, 120.5703
919.4040, 88.02441
920.5280, 172.1377
921.6510, 145.2344
922.7730, 166.5137
923.8960, 11.71191
925.0180, 98.39062
926.1410, 12.55664
927.2630, 97.03418
928.3850, 140.3779
929.5070, 90.18359
930.6280, 61.28418
931.7500, 17.95996
932.8710, 204.8457
933.9920, 35.90039
935.1130, 127.0215
936.2340, 50.59082
937.3550, 128.0186
938.4760, 12.06641
939.5960, 172.6025
940.7160, 34.44531
941.8360, 174.2373
942.9560, 111.1816
944.0760, 112.9844
945.1950, 151.6641
946.3150, 33.31445
947.4340, 195.0781
948.5530, 198.9336
949.6720, 81.24805
950.7900, 128.9150
951.9090, 181.4629
953.0270, 81.10742
954.1460, 305.8721
955.2640, 295.3027
956.3820, 403.1309
957.4990, 494.2734
958.6170, 697.7559
959.7340, 999.1602
960.8520, 1183.147
961.9690, 1591.761
963.0860, 1824.269
964.2020, 1735.305
965.3190, 1875.529
966.4350, 1392.783
967.5520, 971.1992
968.6680, 655.5459
969.7840, 473.9434
970.8990, 358.5146
972.0150, 133.9590
973.1310, 231.8125
974.2460, 319.2510
975.3610, 80.66406
976.4760, 228.2441
977.5910, 170.1270
978.7050, 197.6875
979.8200, 78.22852
980.9340, 72.36035
982.0480, 195.0088
983.1620, 103.3604
984.2760, 138.2910
985.3900, 145.8145
986.5030, 35.11719
987.6160, 9.099609
988.7300, 173.9902
989.8430, 69.55957
990.9550, 70.32910
992.0680, 51.09766
993.1810, 52.13281
994.2930, 77.87305
995.4050, 27.64258
996.5170, 7.482422
997.6290, 162.2275
998.7410, 57.31055
999.8520, 124.7803
1000.964, 24.47363
1002.075, 112.0830
1003.186, 117.8242
1004.297, 191.5684
1005.407, 209.9033
1006.518, 277.0605
1007.628, 172.8096
1008.738, 54.56250
1009.848, 59.68262
1010.958, 7.946289
1012.068, 4.791016
1013.178, 110.5312
1014.287, 79.27637
1015.396, 145.9746
1016.505, 42.28418
1017.614, 41.60352
1018.723, 130.0684
1019.831, 159.7451
1020.940, 49.22559
1022.048, 102.9141
1023.156, 285.6084
1024.264, 172.9531
1025.372, 200.6279
1026.479, 252.3418
1027.587, 519.9639
1028.694, 397.4736
1029.801, 363.2090
1030.908, 570.4238
1032.015, 532.7607
1033.121, 657.5195
1034.228, 499.4746
1035.334, 704.2500
1036.440, 864.0352
1037.546, 791.8291
1038.652, 1006.633
1039.758, 1109.446
1040.863, 1261.269
1041.968, 1405.176
1043.074, 1458.894
1044.178, 1603.753
1045.283, 1738.622
1046.388, 1898.509
1047.492, 1999.871
1048.597, 2295.805
1049.701, 2489.720
1050.805, 2654.869
1051.909, 2841.874
1053.012, 2977.895
1054.116, 3417.929
1055.219, 3781.975
1056.322, 3972.033
1057.425, 4223.449
1058.528, 4800.544
1059.631, 5221.631
1060.733, 5753.744
1061.836, 6485.875
1062.938, 6965.020
1064.040, 7770.184
1065.142, 8598.181
1066.243, 9729.376
1067.345, 10764.51
1068.446, 12090.73
1069.547, 13357.91
1070.648, 15499.29
1071.749, 17285.76
1072.850, 19622.25
1073.951, 22266.88
1075.051, 25090.23
1076.151, 28720.62
1077.251, 32723.03
1078.351, 37523.46
1079.451, 43574.90
1080.550, 50528.36
1081.650, 59924.08
1082.749, 70793.57
1083.848, 84080.40
1084.947, 100164.9
1086.046, 118876.5
1087.144, 141850.7
1088.243, 166827.2
1089.341, 194499.9
1090.439, 222045.5
1091.537, 248307.2
1092.635, 266909.8
1093.732, 279061.2
1094.830, 279954.8
1095.927, 268860.5
1097.024, 250731.1
1098.121, 225733.9
1099.218, 200284.7
1100.314, 174122.5
1101.411, 149480.3
1102.507, 127420.2
1103.603, 107088.1
1104.699, 90174.01
1105.795, 74946.97
1106.890, 62132.93
1107.986, 51801.91
1109.081, 42775.92
1110.176, 35958.94
1111.271, 30069.98
1112.366, 25227.06
1113.461, 21412.17
1114.555, 18044.31
1115.649, 15546.46
1116.744, 13243.64
1117.838, 11492.21
1118.931, 9873.944
1120.025, 8670.878
1121.119, 7519.178
1122.212, 6912.503
1123.305, 6019.855
1124.398, 5428.225
1125.491, 4866.601
1126.584, 4329.016
1127.676, 3808.420
1128.768, 3432.877
1129.861, 3186.352
1130.953, 2859.850
1132.044, 2560.366
1133.136, 2495.044
1134.228, 2181.614
1135.319, 2084.203
1136.410, 1848.816
1137.501, 1674.450
1138.592, 1585.102
1139.683, 1301.808
1140.773, 1354.587
1141.864, 1346.030
1142.954, 1155.678
1144.044, 1193.576
1145.134, 1096.491
1146.224, 1271.458
1147.313, 1041.325
1148.402, 966.2900
1149.492, 1000.398
1150.581, 630.4961
1151.670, 708.6357
1152.758, 537.8398
1153.847, 521.0918
1154.935, 522.3789
1156.024, 406.6865
1157.112, 521.0176
1158.200, 528.3691
1159.287, 363.7402
1160.375, 341.1582
1161.462, 316.5957
1162.550, 399.0801
1163.637, 310.5908
1164.724, 162.1221
1165.810, 276.6836
1166.897, 148.2666
1167.983, 194.8662
1169.070, 200.4834
1170.156, 296.1201
1171.242, 178.7715
1172.327, 5.557617
1173.413, 241.1289
1174.499, 202.8330
1175.584, 165.5537
1176.669, 325.2920
1177.754, 35.04688
1178.839, 171.8291
1179.923, 138.6299
1181.008, 61.44727
1182.092, 47.28516
1183.176, 193.1387
1184.260, 43.00879
1185.344, 126.8945
1186.428, 32.79688
1187.511, 34.71484
1188.595, 1.651367
1189.678, 8.913086
1190.761, 72.58008
1191.843, 24.57227
1192.926, 91.58105
1194.009, 20.60449
1195.091, 77.64355
1196.173, 21.70801
1197.255, 52.78711
1198.337, 15.88086
1199.419, 9.989258
1200.500, 5.869141
1201.582, 21.08398
1202.663, 10.09766
1203.744, 16.36914
1204.825, 20.82031
1205.905, 79.02344
1206.986, 116.2402
1208.066, 101.4707
1209.146, 125.7148
1210.226, 14.97363
1211.306, 12.75488
1212.386, 86.52832
1213.466, 47.17578
1214.545, 214.1201
1215.624, 102.4297
1216.703, 25.24707
1217.782, 113.0840
1218.861, 73.42578
1219.939, 1.218750
1221.018, 30.14941
1222.096, 33.52832
1223.174, 25.07910
1224.252, 139.3184
1225.330, 31.72852
1226.407, 79.84961
1227.485, 125.5596
1228.562, 121.9785
1229.639, 150.4102
1230.716, 119.8525
1231.793, 137.3066
1232.869, 24.77148
1233.946, 73.24707
1235.022, 219.7334
1236.098, 229.2295
1237.174, 130.7334
1238.250, 113.2471
1239.325, 113.7715
1240.401, 123.3027
1241.476, 112.8057
1242.551, 299.8809
1243.626, 92.16992
1244.701, 105.7314
1245.776, 77.29785
1246.850, 124.1270
1247.924, 100.4053
1248.999, 84.52539
1250.073, 226.5557
1251.146, 257.2061
1252.220, 200.5381
1253.293, 508.1953
1254.367, 35.99707
1255.440, 225.7266
1256.513, 286.5166
1257.586, 129.2949
1258.658, 34.98926
1259.731, 190.0234
1260.803, 146.6260
1261.875, 257.5557
1262.947, 167.6377
1264.019, 143.4775
1265.091, 100.8965
1266.162, 283.5723
1267.234, 132.4932
1268.305, 222.7373
1269.376, 249.2588
1270.447, 196.5928
1271.517, 50.66016
1272.588, 150.2637
1273.658, 107.4453
1274.729, 312.9990
1275.799, 156.7461
1276.868, 282.6914
1277.938, 256.5762
1279.008, 257.2480
1280.077, 230.6172
1281.146, 258.0332
1282.215, 264.2129
1283.284, 277.7881
1284.353, 341.6768
1285.421, 245.4961
1286.490, 290.7666
1287.558, 322.4824
1288.626, 269.4834
1289.694, 353.4033
1290.762, 410.3428
1291.829, 294.5107
1292.897, 249.5449
1293.964, 266.5000
1295.031, 297.3271
1296.098, 342.0820
1297.165, 356.7119
1298.231, 285.4629
1299.298, 262.0635
1300.364, 305.3877
1301.430, 316.1689
1302.496, 408.7490
1303.562, 401.3232
1304.627, 468.8896
1305.693, 551.4502
1306.758, 240.0020
1307.823, 421.5469
1308.888, 414.0859
1309.953, 220.6162
1311.018, 527.1387
1312.082, 303.6543
1313.146, 333.1621
1314.210, 375.6621
1315.274, 534.1543
1316.338, 384.6387
1317.402, 529.1074
1318.465, 399.5752
1319.529, 496.0361
1320.592, 212.4883
1321.655, 327.9336
1322.718, 294.3711
1323.780, 310.7988
1324.843, 342.2197
1325.905, 340.8887
1326.967, 328.9609
1328.029, 362.4531
1329.091, 300.7520
1330.153, 270.7158
1331.214, 300.9326
1332.275, 324.0049
1333.337, 345.3877
1334.398, 366.7666
1335.458, 373.1240
1336.519, 377.5176
1337.580, 384.8877
1338.640, 347.2539
1339.700, 358.3779
1340.760, 431.7373
1341.820, 414.7598
1342.880, 256.1113
1343.939, 492.4590
1344.999, 430.2080
1346.058, 109.5479
1347.117, 226.8818
1348.176, 210.1738
1349.235, 252.4795
1350.293, 282.7715
1351.351, 259.4492
1352.410, 343.7295
1353.468, 290.9834
1354.526, 321.5371
1355.583, 209.6152
1356.641, 307.8252
1357.698, 217.0293
1358.756, 121.2236
1359.813, 230.3887
1360.869, 284.5352
1361.926, 290.6729
1362.983, 247.6797
1364.039, 150.6104
1365.095, 202.5068
1366.152, 246.3311
1367.207, 179.1416
1368.263, 11.15723
1369.319, 48.40820
1370.374, 52.92969
1371.430, 164.4219
1372.485, 165.8760
1373.540, 148.3115
1374.594, 158.3496
1375.649, 57.73828
1376.703, 9.891602
1377.758, 38.44727
1378.812, 1.764648
1379.866, 118.0537
1380.920, 87.13672
1381.973, 104.3770
1383.027, 90.61621
1384.080, 96.83789
1385.133, 118.0420
1386.186, 70.24805
1387.239, 148.3955
1388.291, 33.54492
1389.344, 7.671875
1390.396, 93.76855
1391.448, 21.84570
1392.500, 134.8965
1393.552, 86.92773
1394.604, 90.06152
1395.655, 158.1084
1396.707, 107.2314
1397.758, 32.58301
1398.809, 15.63184
1399.860, 138.1133
1400.910, 80.83496
1401.961, 113.4697
1403.011, 94.15820
1404.061, 104.7598
1405.111, 111.6650
1406.161, 43.15918
1407.211, 123.7041
1408.260, 56.32324
1409.310, 14.99414
1410.359, 103.2930
1411.408, 41.55762
1412.457, 66.79688
1413.506, 142.0166
1414.554, 6.779297
1415.603, 96.39355
1416.651, 93.54883
1417.699, 28.68945
1418.747, 81.80566
1419.794, 89.90430
1420.842, 106.9863
1421.889, 123.0332
1422.937, 151.5234
1423.984, 121.1377
1425.031, 210.1582
1426.077, 189.1631
1427.124, 200.1543
1428.170, 273.1338
1429.217, 245.0996
1430.263, 360.0557
1431.309, 412.0010
1432.354, 510.8984
1433.400, 484.8682
1434.445, 783.7920
1435.491, 907.7109
1436.536, 1109.625
1437.581, 1431.537
1438.625, 1835.448
1439.670, 2028.359
1440.714, 2281.273
1441.759, 2926.190
1442.803, 2988.117
1443.847, 3014.053
1444.890, 3321.001
1445.934, 3144.968
1446.978, 2818.955
1448.021, 2804.969
1449.064, 2494.015
1450.107, 2035.102
1451.150, 1912.425
1452.192, 1928.626
1453.235, 1907.502
1454.277, 1416.086
1455.319, 1510.531
1456.361, 1295.965
1457.403, 1442.379
1458.445, 1224.773
1459.486, 1231.145
1460.528, 1168.501
1461.569, 1132.847
1462.610, 1095.175
1463.651, 1083.484
1464.691, 1266.773
1465.732, 1038.042
1466.772, 1018.291
1467.812, 1137.547
1468.852, 1008.780
1469.892, 1032.990
1470.932, 1001.181
1471.971, 982.3486
1473.011, 1059.501
1474.050, 976.2900
1475.089, 1130.480
1476.128, 955.5264
1477.166, 960.5898
1478.205, 957.6572
1479.243, 887.8477
1480.282, 866.3994
1481.320, 1068.902
1482.357, 853.4785
1483.395, 1047.840
1484.433, 774.7480
1485.470, 869.9023
1486.507, 650.2422
1487.544, 781.6660
1488.581, 743.7461
1489.618, 534.3926
1490.655, 682.7324
1491.691, 711.0410
1492.727, 482.3027
1493.763, 226.6973
1494.799, 498.9180
1495.835, 474.5039
1496.871, 468.4902
1497.906, 243.6914
1498.941, 160.7109
1499.976, 386.8301
1501.011, 366.4902
1502.046, 408.1270
1503.081, 153.9590
1504.115, 485.7520
1505.149, 310.5078
1506.183, 207.2246
1507.217, 248.9023
1508.251, 169.5352
1509.285, 175.2461
1510.318, 331.6719
1511.352, 182.1680
1512.385, 343.6133
1513.418, 355.0000
1514.450, 299.3262
1515.483, 88.56641
1516.516, 214.7383
1517.548, 231.8086
1518.580, 119.7539
1519.612, 157.5723
1520.644, 125.6816
1521.675, 274.7930
1522.707, 120.1875
1523.738, 237.4238
1524.769, 273.4961
1525.800, 160.3984
1526.831, 157.2363
1527.862, 330.9141
1528.892, 169.5684
1529.923, 210.0957
1530.953, 188.4453
1531.983, 95.74219
1533.013, 124.2148
1534.042, 75.28125
1535.072, 250.6387
1536.101, 64.76367
1537.131, 130.3438
1538.160, 54.07812
1539.188, 173.9004
1540.217, 186.7324
1541.246, 239.5586
1542.274, 324.3789
1543.302, 352.2578
1544.330, 178.0195
1545.358, 423.8516
1546.386, 266.7031
1547.413, 224.5859
1548.441, 276.5156
1549.468, 315.5137
1550.495, 245.6172
1551.522, 242.8535
1552.549, 320.2695
1553.575, 441.9062
1554.602, 256.8086
1555.628, 359.0273
1556.654, 138.5469
1557.680, 362.2969
1558.706, 9.238281
1559.731, 239.3887
1560.757, 142.7910
1561.782, 261.4863
1562.807, 38.53125
1563.832, 256.9863
1564.857, 104.9141
1565.881, 229.3809
1566.906, 234.4355
1567.930, 211.1270
1568.954, 149.5605
1569.978, 270.8867
1571.002, 105.2969
1572.025, 130.0059
1573.049, 124.3184
1574.072, 5.318359
1575.095, 193.7188
1576.118, 46.83594
1577.141, 0.0000000E+00
##END=



