##NAMES=Magnetite
##RRUFFID=R060222
##IDEAL CHEMISTRY=Fe^2+^Fe^3+^_2_O_4_
##LOCALITY=Cerro Hua√±aquino, Potosi Department, Bolivia
##OWNER=RRUFF
##SOURCE=Rock Currier
##DESCRIPTION=Black octahedra, the surface is hematite and the interior is magnetite
##STATUS=The identification of this mineral has been confirmed by X-ray diffraction and chemical analysis
##URL=rruff.info/R060222
##MEASURED CHEMISTRY=(Fe^2+^_0.95_Mg_0.05_)(Fe^3+^_0.99_Al_0.01_)_2_O_4_
##PIN_ID=L01600
##ORIENTATION=Laser parallel to a* (1 0 0). Fiducial mark perpendicular to laser is parallel to b [0 1 0]
125.3240, 0.0000000E+00
126.5580, 209.0781
127.7920, 447.0859
129.0260, 408.5977
130.2590, 644.2773
131.4920, 285.9551
132.7250, 74.81250
133.9580, 34.14844
135.1910, 226.5918
136.4230, 448.0137
137.6560, 482.1465
138.8880, 917.5605
140.1200, 541.3750
141.3520, 253.1699
142.5830, 36.30664
143.8150, 355.8438
145.0460, 383.6328
146.2770, 727.3574
147.5080, 599.1680
148.7390, 252.9902
149.9700, 17.85938
151.2000, 330.0742
152.4310, 267.3008
153.6610, 645.6367
154.8910, 528.3555
156.1210, 161.3652
157.3500, 427.8242
158.5800, 74.99219
159.8090, 173.2754
161.0380, 281.6934
162.2670, 1091.807
163.4960, 2043.555
164.7240, 2161.152
165.9530, 983.5098
167.1810, 453.1094
168.4090, 9.857422
169.6370, 489.0156
170.8650, 178.3438
172.0920, 297.9434
173.3200, 248.4238
174.5470, 289.2148
175.7740, 576.1992
177.0010, 822.9980
178.2280, 1009.305
179.4540, 797.1035
180.6810, 484.4062
181.9070, 477.4473
183.1330, 747.7246
184.3590, 586.9355
185.5850, 937.4199
186.8100, 640.2207
188.0350, 544.9492
189.2610, 788.9297
190.4860, 785.0078
191.7110, 696.6504
192.9350, 863.1797
194.1600, 698.6699
195.3840, 851.1406
196.6080, 696.7969
197.8320, 699.1738
199.0560, 686.8613
200.2800, 826.6094
201.5030, 695.7559
202.7270, 720.8926
203.9500, 530.8984
205.1730, 707.5117
206.3950, 549.2812
207.6180, 437.1855
208.8410, 424.1992
210.0630, 379.3008
211.2850, 371.4648
212.5070, 465.6719
213.7290, 222.9180
214.9500, 417.1758
216.1720, 308.4199
217.3930, 495.6465
218.6140, 471.8594
219.8350, 314.0430
221.0560, 444.6504
222.2770, 386.1309
223.4970, 496.0684
224.7170, 517.9414
225.9370, 523.7500
227.1570, 297.4570
228.3770, 74.04492
229.5970, 185.5078
230.8160, 30.81836
232.0350, 144.4141
233.2540, 39.36914
234.4730, 115.9492
235.6920, 102.8398
236.9110, 130.2480
238.1290, 128.7598
239.3470, 100.7148
240.5650, 62.91602
241.7830, 188.5781
243.0010, 114.5176
244.2180, 52.82227
245.4360, 82.45703
246.6530, 128.4336
247.8700, 282.5566
249.0870, 260.5488
250.3040, 538.7090
251.5200, 746.8379
252.7370, 881.2539
253.9530, 739.9531
255.1690, 1131.582
256.3850, 1146.080
257.6000, 584.1309
258.8160, 662.9043
260.0310, 664.2812
261.2460, 593.0195
262.4610, 101.2969
263.6760, 20.13867
264.8910, 179.6836
266.1050, 229.2031
267.3200, 152.6680
268.5340, 283.9785
269.7480, 589.2148
270.9620, 978.4043
272.1750, 928.9375
273.3890, 485.5586
274.6020, 595.1016
275.8150, 328.4980
277.0280, 356.7070
278.2410, 375.6992
279.4540, 431.4570
280.6660, 444.9648
281.8790, 668.2246
283.0910, 819.2324
284.3030, 836.9199
285.5140, 840.3613
286.7260, 1138.551
287.9380, 1174.469
289.1490, 1208.016
290.3600, 1289.359
291.5710, 1377.463
292.7820, 1197.334
293.9920, 1278.828
295.2030, 1386.039
296.4130, 1261.789
297.6230, 1590.531
298.8330, 1494.912
300.0430, 1481.787
301.2520, 1595.309
302.4620, 1280.543
303.6710, 1526.957
304.8800, 1290.875
306.0890, 1241.127
307.2980, 1232.535
308.5070, 1004.787
309.7150, 1155.258
310.9230, 1231.773
312.1310, 1238.330
313.3390, 965.8848
314.5470, 1048.020
315.7550, 990.8340
316.9620, 926.0586
318.1690, 1062.676
319.3760, 828.7539
320.5830, 961.7383
321.7900, 949.0371
322.9960, 1003.164
324.2030, 911.8477
325.4090, 865.0703
326.6150, 831.0762
327.8210, 950.1230
329.0270, 995.9062
330.2320, 970.4629
331.4380, 667.2441
332.6430, 722.6895
333.8480, 633.2285
335.0530, 539.0703
336.2580, 645.7324
337.4620, 381.9551
338.6670, 547.2480
339.8710, 412.4141
341.0750, 463.0039
342.2790, 338.8652
343.4820, 165.7090
344.6860, 112.5039
345.8890, 294.8730
347.0920, 362.6699
348.2960, 147.5547
349.4980, 476.5410
350.7010, 195.3555
351.9040, 239.5039
353.1060, 403.7520
354.3080, 244.3340
355.5100, 247.6445
356.7120, 195.3145
357.9140, 210.8516
359.1150, 220.2891
360.3170, 228.4434
361.5180, 20.42188
362.7190, 33.24805
363.9200, 160.8828
365.1200, 292.0020
366.3210, 184.9492
367.5210, 28.59961
368.7210, 10.77734
369.9210, 91.12891
371.1210, 5.052734
372.3210, 221.1094
373.5200, 27.89453
374.7200, 52.85352
375.9190, 228.0879
377.1180, 36.43945
378.3170, 52.33203
379.5150, 45.50586
380.7140, 67.41992
381.9120, 175.9883
383.1110, 89.41211
384.3090, 186.0020
385.5060, 137.4668
386.7040, 55.12500
387.9020, 137.3477
389.0990, 67.53516
390.2960, 207.5938
391.4930, 17.02539
392.6900, 195.7109
393.8860, 54.28711
395.0830, 150.9062
396.2790, 171.4180
397.4750, 141.0430
398.6710, 61.48633
399.8670, 54.12891
401.0630, 302.1836
402.2580, 270.9297
403.4540, 162.9551
404.6490, 376.9688
405.8440, 333.6895
407.0390, 432.3418
408.2330, 505.2832
409.4280, 521.6934
410.6220, 378.2012
411.8160, 349.2578
413.0100, 543.6406
414.2040, 514.6816
415.3980, 241.0566
416.5910, 443.3945
417.7850, 299.0059
418.9780, 225.0469
420.1710, 160.9004
421.3640, 323.8867
422.5560, 13.92578
423.7490, 262.1738
424.9410, 64.45508
426.1330, 310.5430
427.3250, 191.6055
428.5170, 142.6426
429.7090, 127.6602
430.9000, 61.09180
432.0910, 44.62695
433.2820, 12.58203
434.4730, 29.55078
435.6640, 46.44336
436.8550, 59.35352
438.0450, 64.24805
439.2360, 82.13477
440.4260, 93.01367
441.6160, 3.826172
442.8060, 180.7207
443.9950, 283.8496
445.1850, 317.2109
446.3740, 71.78516
447.5630, 186.3340
448.7520, 156.6270
449.9410, 121.0059
451.1300, 286.2363
452.3180, 81.35156
453.5060, 243.3906
454.6950, 258.9863
455.8830, 341.6074
457.0700, 279.0684
458.2580, 261.4102
459.4450, 388.9414
460.6330, 436.1191
461.8200, 356.9453
463.0070, 443.9180
464.1940, 378.8652
465.3800, 233.8789
466.5670, 219.9121
467.7530, 194.9609
468.9390, 352.0254
470.1250, 238.1191
471.3110, 323.2402
472.4970, 336.3906
473.6820, 350.5703
474.8680, 284.7793
476.0530, 174.0273
477.2380, 312.3105
478.4230, 370.6289
479.6070, 384.9824
480.7920, 289.0703
481.9760, 380.4902
483.1600, 394.8320
484.3440, 433.3242
485.5280, 634.4902
486.7120, 511.9980
487.8950, 630.3027
489.0780, 402.4863
490.2620, 652.0215
491.4450, 636.7227
492.6270, 485.4883
493.8100, 488.5332
494.9920, 584.8359
496.1750, 501.1504
497.3570, 697.7285
498.5390, 820.6973
499.7210, 873.7422
500.9020, 648.1523
502.0840, 782.7070
503.2650, 773.0898
504.4460, 756.2090
505.6270, 940.7832
506.8080, 755.9766
507.9890, 938.7773
509.1690, 974.7344
510.3500, 1074.322
511.5300, 1029.992
512.7100, 1032.523
513.8900, 1179.352
515.0690, 1184.062
516.2490, 1172.875
517.4280, 1207.053
518.6070, 1273.723
519.7860, 1237.346
520.9650, 1168.260
522.1440, 1246.395
523.3220, 1336.266
524.5010, 1291.402
525.6790, 1503.189
526.8570, 1643.041
528.0350, 1715.211
529.2130, 1496.807
530.3900, 1657.057
531.5670, 1462.688
532.7450, 1512.879
533.9220, 1765.922
535.0980, 1601.629
536.2750, 1751.322
537.4520, 1539.066
538.6280, 1730.666
539.8040, 1854.920
540.9800, 1909.443
542.1560, 1684.080
543.3320, 1819.961
544.5070, 1811.615
545.6830, 1797.434
546.8580, 1984.137
548.0330, 1913.758
549.2080, 2052.680
550.3830, 2178.703
551.5570, 2058.791
552.7310, 2208.979
553.9060, 1888.285
555.0800, 2134.682
556.2540, 2293.133
557.4270, 2084.648
558.6010, 2044.242
559.7740, 1981.930
560.9470, 2003.701
562.1210, 2004.369
563.2930, 1967.445
564.4660, 2020.414
565.6390, 2096.441
566.8110, 2003.553
567.9830, 2093.719
569.1550, 1986.957
570.3270, 2004.254
571.4990, 2031.646
572.6710, 2068.092
573.8420, 2016.023
575.0130, 1866.146
576.1840, 1883.771
577.3550, 1730.455
578.5260, 1610.191
579.6970, 1491.988
580.8670, 1360.340
582.0370, 1308.742
583.2070, 1202.676
584.3770, 1009.689
585.5470, 1106.756
586.7170, 786.8750
587.8860, 773.0527
589.0550, 945.2812
590.2240, 875.5723
591.3930, 1031.912
592.5620, 804.3066
593.7310, 835.7559
594.8990, 728.2715
596.0670, 968.8457
597.2350, 848.4766
598.4030, 997.1582
599.5710, 1112.895
600.7390, 1155.684
601.9060, 1280.521
603.0740, 1272.111
604.2410, 1323.354
605.4080, 1294.348
606.5740, 1339.393
607.7410, 1440.498
608.9080, 1475.385
610.0740, 1564.861
611.2400, 1499.000
612.4060, 1745.414
613.5720, 1918.154
614.7370, 2021.084
615.9030, 1845.365
617.0680, 2029.602
618.2330, 2069.633
619.3980, 2103.793
620.5630, 2338.846
621.7280, 2203.852
622.8920, 2435.756
624.0570, 2521.307
625.2210, 2673.861
626.3850, 2662.988
627.5490, 2769.934
628.7120, 3043.930
629.8760, 3113.975
631.0390, 3461.066
632.2020, 3436.207
633.3650, 3581.391
634.5280, 3710.625
635.6910, 3932.900
636.8530, 4110.363
638.0160, 4373.354
639.1780, 4529.764
640.3400, 4846.178
641.5020, 5036.240
642.6640, 5559.277
643.8250, 5609.619
644.9870, 6095.254
646.1480, 6488.473
647.3090, 6516.027
648.4700, 7353.072
649.6300, 7528.352
650.7910, 7965.494
651.9510, 8401.398
653.1120, 8938.727
654.2720, 9436.566
655.4320, 9941.152
656.5910, 10440.49
657.7510, 11009.70
658.9100, 11329.89
660.0690, 11923.21
661.2290, 12336.34
662.3880, 12732.71
663.5460, 13018.67
664.7050, 13455.23
665.8630, 13902.81
667.0220, 14126.82
668.1800, 13977.81
669.3380, 14447.61
670.4950, 14514.48
671.6530, 14207.59
672.8100, 14335.77
673.9680, 13864.88
675.1250, 14084.32
676.2820, 13639.32
677.4390, 13246.94
678.5950, 12789.53
679.7520, 12357.37
680.9080, 11919.10
682.0640, 11483.96
683.2200, 11044.67
684.3760, 10607.95
685.5320, 9947.738
686.6870, 9752.051
687.8420, 9123.438
688.9980, 8802.480
690.1530, 8582.463
691.3070, 7820.637
692.4620, 7431.242
693.6170, 6890.314
694.7710, 6510.750
695.9250, 6053.289
697.0790, 5903.945
698.2330, 5424.793
699.3870, 5334.691
700.5400, 4826.658
701.6940, 4619.156
702.8470, 4255.578
704.0000, 4092.158
705.1530, 3925.217
706.3050, 3706.385
707.4580, 3433.656
708.6100, 3233.758
709.7630, 3065.783
710.9150, 2707.248
712.0660, 2625.541
713.2180, 2286.549
714.3700, 2073.109
715.5210, 2105.508
716.6720, 2001.215
717.8240, 1918.895
718.9740, 1858.936
720.1250, 1496.896
721.2760, 1572.850
722.4260, 1636.766
723.5770, 1191.896
724.7270, 1369.178
725.8770, 1220.738
727.0260, 1198.641
728.1760, 1166.277
729.3250, 1027.299
730.4750, 988.2812
731.6240, 743.3848
732.7730, 739.1777
733.9220, 856.0586
735.0700, 810.3574
736.2190, 579.7754
737.3670, 663.8027
738.5150, 583.7754
739.6630, 678.5176
740.8110, 610.2422
741.9590, 658.9512
743.1060, 526.9355
744.2540, 619.9531
745.4010, 456.4551
746.5480, 169.2109
747.6950, 239.2168
748.8410, 245.8086
749.9880, 271.7539
751.1340, 286.7285
752.2800, 278.4395
753.4260, 246.3828
754.5720, 234.0137
755.7180, 313.8262
756.8640, 321.2559
758.0090, 275.6621
759.1540, 353.0430
760.2990, 141.3984
761.4440, 164.0215
762.5890, 180.3262
763.7340, 16.60352
764.8780, 33.85352
766.0220, 279.0742
767.1660, 208.2676
768.3100, 329.4316
769.4540, 299.4785
770.5980, 129.6738
771.7410, 156.7520
772.8840, 168.7988
774.0280, 50.81836
775.1700, 101.1172
776.3130, 108.7832
777.4560, 84.34766
778.5980, 291.4414
779.7410, 58.21094
780.8830, 7.064453
782.0250, 212.6152
783.1670, 115.7383
784.3080, 214.1934
785.4500, 25.19727
786.5910, 77.45117
787.7320, 32.81445
788.8730, 111.0430
790.0140, 38.76562
791.1550, 47.35742
792.2950, 99.56055
793.4360, 138.4160
794.5760, 170.6406
795.7160, 56.84570
796.8560, 152.1328
797.9960, 83.55664
799.1350, 117.0801
800.2750, 251.7266
801.4140, 99.56250
802.5530, 161.5117
803.6920, 36.39062
804.8310, 115.7520
805.9690, 95.01953
807.1080, 100.5996
808.2460, 53.16992
809.3840, 54.69727
810.5220, 76.17383
811.6600, 64.39258
812.7970, 126.9375
813.9350, 79.77930
815.0720, 51.39258
816.2090, 110.5137
817.3460, 87.41602
818.4830, 19.53711
819.6200, 24.42969
820.7560, 115.2559
821.8930, 59.03516
823.0290, 116.7617
824.1650, 64.56250
825.3010, 55.00391
826.4360, 213.5156
827.5720, 58.01953
828.7070, 127.6660
829.8420, 54.45508
830.9770, 116.6445
832.1120, 21.69336
833.2470, 45.32812
834.3820, 79.45117
835.5160, 47.70312
836.6500, 39.94336
837.7840, 27.52148
838.9180, 60.02734
840.0520, 109.4746
841.1860, 31.12891
842.3190, 74.16602
843.4520, 1.595703
844.5850, 79.55469
845.7180, 92.35156
846.8510, 132.6094
847.9840, 173.5176
849.1160, 277.3770
850.2490, 3.812500
851.3810, 147.9121
852.5130, 108.5840
853.6450, 61.44141
854.7760, 230.3770
855.9080, 325.5234
857.0390, 350.8418
858.1700, 97.33398
859.3010, 203.7480
860.4320, 165.8555
861.5630, 121.9883
862.6930, 278.9219
863.8240, 65.70703
864.9540, 219.3457
866.0840, 226.4570
867.2140, 194.5312
868.3440, 11.47266
869.4730, 99.33203
870.6030, 144.1348
871.7320, 129.8848
872.8610, 197.5820
873.9900, 206.2285
875.1190, 296.8262
876.2470, 333.3730
877.3760, 258.2969
878.5040, 188.3320
879.6320, 175.7363
880.7600, 68.09180
881.8880, 228.3828
883.0150, 164.6270
884.1430, 277.8184
885.2700, 168.9629
886.3970, 157.0566
887.5240, 215.0996
888.6510, 155.0938
889.7780, 222.0371
890.9040, 173.9336
892.0310, 440.7793
893.1570, 415.5781
894.2830, 323.3320
895.4090, 410.0371
896.5350, 187.6973
897.6600, 317.3086
898.7860, 265.8750
899.9110, 333.3926
901.0360, 379.7559
902.1610, 583.2949
903.2860, 480.6758
904.4100, 469.0137
905.5350, 549.3203
906.6590, 390.5801
907.7830, 492.7949
908.9070, 350.9824
910.0310, 233.1230
911.1540, 456.4551
912.2780, 369.5215
913.4010, 406.5820
914.5240, 237.5605
915.6470, 375.4414
916.7700, 381.5781
917.8930, 399.4238
919.0150, 369.6934
920.1380, 366.8320
921.2600, 416.0566
922.3820, 290.2578
923.5040, 444.6055
924.6260, 275.2031
925.7470, 360.3770
926.8690, 275.6289
927.9900, 398.7109
929.1110, 619.1953
930.2320, 406.5527
931.3530, 376.9160
932.4730, 457.1602
933.5940, 210.5742
934.7140, 538.7559
935.8340, 388.3848
936.9540, 501.4395
938.0740, 457.4902
939.1930, 416.1543
940.3130, 308.8594
941.4320, 460.7559
942.5510, 329.5977
943.6700, 469.1953
944.7890, 212.7500
945.9080, 381.3613
947.0260, 531.6621
948.1450, 357.4023
949.2630, 280.5801
950.3810, 408.7910
951.4990, 385.3906
952.6170, 313.8008
953.7340, 440.7344
954.8520, 484.7988
955.9690, 359.2871
957.0860, 322.2480
958.2030, 381.6699
959.3200, 327.0059
960.4360, 445.6719
961.5530, 416.3789
962.6690, 422.8984
963.7850, 535.9688
964.9010, 404.5586
966.0170, 554.7676
967.1330, 352.8555
968.2480, 467.8418
969.3630, 400.6172
970.4790, 593.3223
971.5940, 352.9395
972.7080, 409.0098
973.8230, 341.1348
974.9380, 411.0859
976.0520, 550.5430
977.1660, 338.8867
978.2800, 382.1172
979.3940, 580.4922
980.5080, 617.9277
981.6220, 620.7402
982.7350, 495.0605
983.8480, 567.4688
984.9610, 583.2988
986.0740, 563.2754
987.1870, 660.9219
988.3000, 502.5742
989.4120, 613.8438
990.5250, 515.1680
991.6370, 639.4785
992.7490, 732.8086
993.8610, 843.8984
994.9720, 850.9668
996.0840, 742.4297
997.1950, 761.6797
998.3060, 861.1719
999.4170, 667.2559
1000.528, 798.3535
1001.639, 740.3066
1002.750, 646.5488
1003.860, 739.6758
1004.970, 689.3633
1006.080, 699.9043
1007.190, 723.8828
1008.300, 793.7480
1009.410, 763.8887
1010.519, 641.0215
1011.628, 701.1465
1012.738, 656.9707
1013.846, 521.7324
1014.955, 560.9883
1016.064, 635.9590
1017.172, 657.6523
1018.281, 646.7363
1019.389, 699.4375
1020.497, 723.2637
1021.605, 696.9688
1022.713, 773.5879
1023.820, 859.4922
1024.928, 820.1895
1026.035, 635.2383
1027.142, 614.2852
1028.249, 655.3281
1029.356, 704.3672
1030.462, 883.1113
1031.569, 892.0820
1032.675, 797.1758
1033.781, 977.2012
1034.887, 752.2285
1035.993, 719.2539
1037.098, 762.2773
1038.204, 725.8203
1039.309, 712.8418
1040.415, 705.8594
1041.520, 734.7051
1042.624, 687.0332
1043.729, 828.9707
1044.834, 874.4102
1045.938, 944.4531
1047.042, 943.5215
1048.146, 972.5781
1049.250, 1068.646
1050.354, 866.7188
1051.458, 1013.811
1052.561, 735.9219
1053.664, 835.0938
1054.767, 769.2695
1055.870, 1071.473
1056.973, 1033.680
1058.076, 911.8887
1059.178, 883.1699
1060.281, 775.3984
1061.383, 810.1855
1062.485, 935.5879
1063.587, 869.7695
1064.688, 932.1230
1065.790, 927.5293
1066.891, 990.5469
1067.993, 1050.449
1069.094, 978.0156
1070.195, 890.6191
1071.295, 1127.109
1072.396, 1034.777
1073.496, 986.4922
1074.597, 1019.668
1075.697, 916.0098
1076.797, 819.7793
1077.897, 1051.557
1078.996, 733.2168
1080.096, 1000.035
1081.195, 719.7930
1082.294, 937.6562
1083.393, 842.5293
1084.492, 942.4082
1085.591, 923.2812
1086.689, 882.4492
1087.788, 867.1699
1088.886, 834.1309
1089.984, 752.0996
1091.082, 790.0762
1092.180, 831.0938
1093.277, 876.1211
1094.375, 963.7363
1095.472, 886.8066
1096.569, 881.9336
1097.666, 855.6309
1098.763, 897.2754
1099.860, 764.4707
1100.956, 694.7012
1102.053, 632.9766
1103.149, 687.2871
1104.245, 609.5645
1105.341, 762.2539
1106.436, 841.2246
1107.532, 850.4062
1108.627, 585.9551
1109.723, 677.0723
1110.818, 623.2891
1111.913, 563.5957
1113.007, 708.4512
1114.102, 479.5703
1115.197, 617.6152
1116.291, 609.2109
1117.385, 667.8633
1118.479, 581.3730
1119.573, 539.7246
1120.666, 643.3145
1121.760, 666.4922
1122.853, 563.3477
1123.947, 626.3301
1125.040, 392.5078
1126.132, 419.1816
1127.225, 558.2207
1128.318, 462.4277
1129.410, 528.1328
1130.502, 532.3555
1131.595, 507.5508
1132.687, 310.0117
1133.778, 400.7227
1134.870, 421.6953
1135.961, 163.9062
1137.053, 266.1094
1138.144, 224.0645
1139.235, 176.1133
1140.326, 329.0195
1141.416, 111.8359
1142.507, 261.5742
1143.597, 264.8574
1144.688, 335.1855
1145.778, 260.3633
1146.868, 230.3965
1147.957, 345.6465
1149.047, 380.5117
1150.136, 289.0312
1151.226, 363.6992
1152.315, 141.5508
1153.404, 179.8848
1154.493, 330.5996
1155.581, 246.4844
1156.670, 323.8711
1157.758, 184.5176
1158.846, 164.5352
1159.934, 39.56250
1161.022, 59.93945
1162.110, 154.6504
1163.198, 136.7090
1164.285, 263.7793
1165.372, 361.8613
1166.459, 200.9336
1167.546, 289.0547
1168.633, 78.83008
1169.720, 186.2637
1170.806, 167.3691
1171.892, 70.51562
1172.979, 150.5820
1174.065, 57.68945
1175.150, 74.18945
1176.236, 82.91211
1177.322, 237.0195
1178.407, 219.1426
1179.492, 189.7129
1180.577, 205.4141
1181.662, 1.566406
1182.747, 71.73047
1183.832, 92.90234
1184.916, 11.08398
1186.000, 141.2793
1187.084, 79.48438
1188.168, 57.70312
1189.252, 81.06641
1190.336, 136.1387
1191.419, 124.6445
1192.503, 116.5215
1193.586, 20.30273
1194.669, 122.8770
1195.752, 15.06445
1196.835, 13.73633
1197.917, 101.5391
1199.000, 137.6211
1200.082, 69.78906
1201.164, 55.03125
1202.246, 81.12891
1203.328, 6.298828
1204.409, 98.47656
1205.491, 76.66211
1206.572, 143.8555
1207.653, 85.05859
1208.734, 16.44336
1209.815, 52.47852
1210.896, 172.3027
1211.976, 21.83594
1213.057, 236.9824
1214.137, 67.13867
1215.217, 88.69531
1216.297, 139.9023
1217.377, 37.89648
1218.456, 354.7070
1219.536, 136.8574
1220.615, 5.011719
1221.694, 29.17578
1222.773, 18.34766
1223.852, 80.47461
1224.931, 172.6680
1226.009, 47.82227
1227.088, 59.97852
1228.166, 51.14648
1229.244, 120.6816
1230.322, 48.43750
1231.400, 181.5664
1232.477, 56.69922
1233.555, 148.8418
1234.632, 34.98828
1235.709, 155.1426
1236.786, 280.3066
1237.863, 86.52539
1238.939, 6.394531
1240.016, 153.7422
1241.092, 62.88086
1242.168, 60.95117
1243.245, 105.1895
1244.320, 94.33398
1245.396, 19.48633
1246.472, 274.6445
1247.547, 163.6660
1248.622, 390.9766
1249.697, 217.1504
1250.772, 45.33203
1251.847, 236.5195
1252.922, 200.7266
1253.996, 464.9395
1255.071, 272.1562
1256.145, 118.5156
1257.219, 240.7441
1258.293, 219.9805
1259.366, 116.2207
1260.440, 75.46680
1261.513, 261.7168
1262.587, 270.9727
1263.660, 299.2344
1264.733, 180.6660
1265.805, 355.9395
1266.878, 172.2188
1267.951, 392.5195
1269.023, 244.8281
1270.095, 317.1406
1271.167, 312.4590
1272.239, 297.7852
1273.311, 337.1133
1274.382, 225.4492
1275.454, 405.7891
1276.525, 260.1348
1277.596, 84.48828
1278.667, 314.8457
1279.738, 381.2070
1280.808, 458.5762
1281.879, 420.9473
1282.949, 422.3242
1284.019, 475.7070
1285.089, 459.2656
1286.159, 698.6582
1287.229, 615.0586
1288.298, 341.4590
1289.368, 565.8672
1290.437, 499.2812
1291.506, 634.6992
1292.575, 593.1211
1293.644, 542.5488
1294.712, 655.9824
1295.781, 573.4180
1296.849, 570.5039
1297.917, 623.4297
1298.985, 517.8809
1300.053, 711.3379
1301.121, 764.6641
1302.188, 432.1309
1303.255, 796.5996
1304.323, 570.6797
1305.390, 719.1602
1306.457, 820.6445
1307.523, 590.4551
1308.590, 765.2109
1309.656, 866.2207
1310.723, 897.4512
1311.789, 649.9102
1312.855, 762.3672
1313.921, 730.5586
1314.986, 692.8340
1316.052, 857.6465
1317.117, 650.6777
1318.182, 806.5781
1319.248, 820.0781
1320.312, 893.9453
1321.377, 829.3242
1322.442, 570.6699
1323.506, 652.2441
1324.571, 695.8281
1325.635, 575.8398
1326.699, 799.0156
1327.762, 691.6191
1328.826, 598.2305
1329.890, 412.0176
1330.953, 617.6406
1332.016, 675.2695
1333.079, 667.9043
1334.142, 567.5410
1335.205, 561.1855
1336.268, 608.8359
1337.330, 361.6133
1338.392, 492.2773
1339.454, 712.0156
1340.516, 486.6875
1341.578, 363.3711
1342.640, 527.0605
1343.701, 249.8086
1344.763, 451.5508
1345.824, 156.2617
1346.885, 284.9805
1347.946, 547.7051
1349.007, 432.4355
1350.067, 570.1777
1351.128, 545.9277
1352.188, 309.1016
1353.248, 226.8672
1354.308, 358.6406
1355.368, 312.4219
1356.428, 402.2109
1357.487, 370.0059
1358.547, 443.8125
1359.606, 263.9355
1360.665, 77.74414
1361.724, 224.5625
1362.783, 128.3867
1363.841, 227.8516
1364.900, 101.6973
1365.958, 110.6836
1367.016, 178.5371
1368.074, 112.4062
1369.132, 234.3262
1370.190, 309.5762
1371.247, 351.4570
1372.304, 180.3477
1373.362, 92.24805
1374.419, 166.1602
1375.476, 235.0762
1376.532, 51.00000
1377.589, 179.9336
1378.645, 291.8750
1379.702, 344.1406
1380.758, 91.10352
1381.814, 280.0762
1382.870, 2.943359
1383.925, 260.0469
1384.981, 123.0469
1386.036, 10.04688
1387.092, 337.0527
1388.147, 186.0703
1389.202, 39.09961
1390.256, 249.1367
1391.311, 46.81250
1392.365, 109.2344
1393.420, 40.29492
1394.474, 145.6777
1395.528, 189.1797
1396.582, 343.8535
1397.636, 245.9551
1398.689, 101.0723
1399.742, 39.42773
1400.796, 66.54492
1401.849, 187.4824
1402.902, 131.6406
1403.955, 308.8164
1405.007, 216.0000
1406.060, 190.1953
1407.112, 42.40430
1408.164, 27.61914
1409.216, 80.84766
1410.268, 46.08203
1411.320, 44.68359
1412.371, 115.4902
1413.423, 29.30469
1414.474, 192.7734
1415.525, 282.5117
1416.576, 302.4863
1417.627, 43.65430
1418.678, 144.8125
1419.728, 101.7129
1420.778, 52.71680
1421.829, 204.5703
1422.879, 13.65234
1423.928, 135.0430
1424.978, 137.2285
1426.028, 206.4512
1427.077, 130.5254
1428.126, 99.46484
1429.176, 213.6211
1430.225, 247.3750
1431.273, 154.8145
1432.322, 136.2441
1433.371, 271.9688
1434.419, 337.3145
1435.467, 336.2246
1436.515, 59.68359
1437.563, 146.4707
1438.611, 92.32812
1439.658, 35.62109
1440.706, 183.0859
1441.753, 35.46680
1442.800, 115.5039
1443.847, 123.3398
1444.894, 201.5859
1445.941, 138.0293
1446.987, 122.6660
1448.034, 255.8906
1449.080, 311.9902
1450.126, 245.1035
1451.172, 347.7090
1452.218, 156.8730
1453.263, 208.9180
1454.309, 138.0527
1455.354, 88.43164
1456.399, 96.88867
1457.444, 90.25586
1458.489, 87.68359
1459.534, 142.1328
1460.579, 152.6816
1461.623, 149.1055
1462.667, 166.1191
1463.711, 132.5059
1464.755, 143.1582
1465.799, 135.8281
1466.843, 83.55469
1467.886, 69.29883
1468.930, 126.0938
1469.973, 1.937500
1471.016, 131.7969
1472.059, 25.66992
1473.101, 115.5820
1474.144, 105.5371
1475.186, 87.69336
1476.229, 207.4629
1477.271, 73.46484
1478.313, 85.48633
1479.355, 62.50000
1480.396, 154.5566
1481.438, 103.4336
1482.479, 218.4980
1483.520, 231.5840
1484.561, 2.531250
1485.602, 153.3281
1486.643, 238.3320
1487.684, 253.5215
1488.724, 10.03125
1489.765, 86.40234
1490.805, 38.61133
1491.845, 15.08984
1492.885, 132.0859
1493.924, 90.81641
1494.964, 53.21484
1496.003, 47.54102
1497.042, 112.1582
1498.082, 37.78320
1499.120, 80.36719
1500.159, 21.37305
1501.198, 74.66992
1502.236, 90.01367
1503.275, 9.384766
1504.313, 60.21484
1505.351, 107.2129
1506.389, 38.66992
1507.427, 76.15430
1508.464, 188.6641
1509.502, 158.2090
1510.539, 182.7012
1511.576, 103.2539
1512.613, 159.8242
1513.650, 153.4219
1514.687, 141.0391
1515.723, 221.6816
1516.759, 217.3398
1517.796, 125.0273
1518.832, 74.24609
1519.868, 35.51758
1520.903, 133.3203
1521.939, 126.1582
1522.975, 243.0371
1524.010, 111.9531
1525.045, 44.80078
1526.080, 45.78125
1527.115, 94.79688
1528.150, 153.8516
1529.184, 196.9355
1530.219, 260.0645
1531.253, 90.23242
1532.287, 108.6426
1533.321, 131.9453
1534.355, 128.5273
1535.388, 211.3066
1536.422, 164.7773
1537.455, 67.86914
1538.488, 235.9707
1539.522, 330.3652
1540.554, 355.0469
1541.587, 89.83203
1542.620, 195.4746
1543.652, 156.8633
1544.685, 112.3965
1545.717, 268.8496
1546.749, 55.22266
1547.781, 208.5352
1548.812, 197.3145
1549.844, 270.5586
1550.875, 198.6152
1551.906, 171.4551
1552.938, 289.4453
1553.968, 326.9531
1554.999, 238.0234
1556.030, 315.1445
1557.060, 297.7734
1558.091, 137.0020
1559.121, 290.8516
1560.151, 210.0957
1561.181, 134.2207
1562.211, 218.6660
1563.240, 27.10742
1564.270, 18.94531
1565.299, 22.89062
1566.328, 154.6973
1567.357, 59.85742
1568.386, 177.7383
1569.415, 202.4434
1570.443, 261.1172
1571.472, 135.7871
1572.500, 297.3906
1573.528, 367.1426
1574.556, 122.3789
1575.584, 203.9707
1576.611, 112.2637
1577.639, 0.0000000E+00
##END=



