##NAMES=Mesolite
##RRUFFID=R050013
##IDEAL CHEMISTRY=Na_2_Ca_2_(Si_9_Al_6_)O_30_&#183;8H_2_O
##LOCALITY=Poona, Maharashtra, India
##OWNER=RRUFF
##SOURCE=University of Arizona Mineral Museum
##DESCRIPTION=Clear to white elongated prismatic single crystal
##STATUS=The identification of this mineral has been confirmed by X-ray diffraction and chemical analysis
##URL=rruff.info/R050013
##MEASURED CHEMISTRY=Na_2.00_Ca_2.00_(Si_9.00_Al_6.00_)O_30_Â·8H_2_O
##PIN_ID=M00156
##ORIENTATION=Laser parallel to -a* (-1 0 0). Fiducial mark perpendicular to laser is parallel to b [0 1 0]
113.2080, 0.0000000E+00
114.4400, 249.7676
115.6710, 5.011719
116.9030, 115.4258
118.1340, 72.78906
119.3650, 46.51953
120.5960, 29.52148
121.8270, 325.6289
123.0580, 331.7793
124.2880, 835.0254
125.5190, 1134.570
126.7490, 1273.846
127.9790, 2032.740
129.2090, 2267.273
130.4390, 2324.953
131.6680, 2382.418
132.8980, 2470.273
134.1270, 2617.219
135.3560, 3191.021
136.5850, 3804.496
137.8140, 4734.514
139.0430, 5441.100
140.2710, 6398.035
141.5000, 7218.117
142.7280, 7752.793
143.9560, 7480.516
145.1840, 7625.877
146.4120, 7484.416
147.6390, 7670.461
148.8670, 8572.393
150.0940, 8828.021
151.3210, 8981.348
152.5490, 8955.381
153.7750, 8706.127
155.0020, 8461.598
156.2290, 8158.801
157.4550, 7710.754
158.6810, 7661.469
159.9080, 7596.961
161.1340, 7509.262
162.3590, 7753.617
163.5850, 7685.688
164.8110, 7455.389
166.0360, 7130.629
167.2610, 7163.236
168.4860, 6811.684
169.7110, 6547.529
170.9360, 6016.531
172.1610, 5793.906
173.3850, 5347.131
174.6100, 4816.609
175.8340, 4528.412
177.0580, 4259.359
178.2820, 3916.633
179.5050, 3615.117
180.7290, 3507.027
181.9520, 3389.275
183.1760, 3084.773
184.3990, 2935.641
185.6220, 2736.857
186.8450, 2501.818
188.0670, 2391.855
189.2900, 2130.102
190.5120, 2161.830
191.7340, 2107.795
192.9560, 2056.107
194.1780, 1791.650
195.4000, 1769.814
196.6220, 1395.908
197.8430, 1208.936
199.0640, 1059.902
200.2860, 885.8086
201.5070, 659.6543
202.7270, 617.4355
203.9480, 480.1562
205.1690, 305.8105
206.3890, 389.4004
207.6090, 391.9219
208.8290, 239.0098
210.0490, 327.2188
211.2690, 422.1504
212.4890, 439.6836
213.7080, 159.4102
214.9280, 142.0918
216.1470, 52.03320
217.3660, 51.87109
218.5850, 12.00781
219.8030, 42.33008
221.0220, 142.8555
222.2400, 58.74023
223.4590, 0.3847660
224.6770, 125.1094
225.8950, 117.3887
227.1120, 200.9883
228.3300, 138.7656
229.5480, 62.79883
230.7650, 126.9023
231.9820, 62.92383
233.1990, 88.32031
234.4160, 46.36523
235.6330, 23.98047
236.8490, 120.6367
238.0660, 305.8945
239.2820, 423.7812
240.4980, 313.5898
241.7140, 102.1152
242.9300, 31.73242
244.1460, 49.66602
245.3610, 63.75781
246.5770, 87.99414
247.7920, 13.16992
249.0070, 102.2832
250.2220, 196.0977
251.4370, 155.4395
252.6510, 277.1992
253.8660, 241.9824
255.0800, 334.9570
256.2940, 523.8242
257.5080, 723.6348
258.7220, 507.3965
259.9360, 402.0215
261.1490, 408.3359
262.3630, 309.3066
263.5760, 327.3301
264.7890, 658.5879
266.0020, 604.4258
267.2150, 341.0215
268.4270, 480.7363
269.6400, 300.5449
270.8520, 436.4238
272.0640, 438.3613
273.2760, 640.3398
274.4880, 339.3457
275.7000, 790.3672
276.9120, 547.3926
278.1230, 671.4121
279.3340, 758.4199
280.5450, 718.4082
281.7560, 1196.373
282.9670, 1250.314
284.1780, 1529.225
285.3880, 1666.102
286.5980, 2040.939
287.8090, 2202.734
289.0190, 2544.461
290.2290, 2548.123
291.4380, 2540.721
292.6480, 2236.252
293.8570, 1959.709
295.0670, 1558.098
296.2760, 1496.418
297.4850, 1036.672
298.6930, 1146.857
299.9020, 631.9785
301.1110, 488.0332
302.3190, 266.0273
303.5270, 340.9531
304.7350, 106.8164
305.9430, 115.6094
307.1510, 36.33789
308.3580, 43.98828
309.5660, 89.56250
310.7730, 165.9473
311.9800, 38.35352
313.1870, 24.46289
314.3940, 134.6055
315.6010, 76.51758
316.8070, 57.11523
318.0130, 78.50977
319.2200, 275.7695
320.4260, 156.9668
321.6310, 183.3828
322.8370, 127.1875
324.0430, 42.20312
325.2480, 115.0449
326.4540, 18.20898
327.6590, 40.43359
328.8640, 100.9883
330.0680, 85.32617
331.2730, 176.9004
332.4780, 180.2637
333.6820, 92.56641
334.8860, 162.8066
336.0900, 180.9883
337.2940, 333.1094
338.4980, 323.1758
339.7010, 376.1875
340.9050, 435.1445
342.1080, 499.0547
343.3110, 809.9102
344.5140, 906.7148
345.7170, 973.4668
346.9200, 1045.172
348.1220, 975.8281
349.3240, 979.4297
350.5270, 980.9824
351.7290, 616.4883
352.9310, 715.9414
354.1320, 684.3379
355.3340, 501.6660
356.5350, 525.9062
357.7370, 265.9863
358.9380, 463.9531
360.1390, 314.7793
361.3400, 272.1348
362.5400, 274.6191
363.7410, 162.1582
364.9410, 274.0508
366.1410, 11.40430
367.3410, 5.308594
368.5410, 99.23633
369.7410, 113.7461
370.9400, 18.28320
372.1400, 84.50000
373.3390, 76.46875
374.5380, 177.7578
375.7370, 247.1836
376.9360, 30.00586
378.1350, 235.2129
379.3330, 122.2988
380.5310, 272.5684
381.7300, 278.5684
382.9280, 201.3418
384.1260, 131.2305
385.3230, 161.7988
386.5210, 270.1934
387.7180, 54.20703
388.9160, 248.6738
390.1130, 144.1699
391.3100, 273.6914
392.5060, 386.3320
393.7030, 406.2207
394.9000, 514.4492
396.0960, 458.8496
397.2920, 604.5625
398.4880, 632.1426
399.6840, 577.0996
400.8800, 856.1953
402.0750, 974.2852
403.2710, 1122.361
404.4660, 1362.400
405.6610, 1537.428
406.8560, 1692.205
408.0510, 1893.021
409.2450, 2054.965
410.4400, 2307.896
411.6340, 2353.691
412.8280, 2534.580
414.0220, 2738.127
415.2160, 2651.936
416.4100, 3037.699
417.6030, 3214.424
418.7970, 3582.934
419.9900, 3480.570
421.1830, 3428.164
422.3760, 3529.715
423.5690, 3475.221
424.7610, 3243.686
425.9540, 3104.105
427.1460, 3104.484
428.3380, 3157.818
429.5300, 3266.320
430.7220, 3373.355
431.9140, 3687.561
433.1050, 3858.725
434.2970, 4162.844
435.4880, 4233.922
436.6790, 4766.955
437.8700, 5051.949
439.0610, 5182.898
440.2510, 5038.809
441.4420, 5045.680
442.6320, 4875.506
443.8220, 4786.293
445.0120, 4402.041
446.2020, 4123.059
447.3910, 3887.344
448.5810, 3274.336
449.7700, 2966.346
450.9600, 2633.844
452.1490, 2542.555
453.3370, 2091.131
454.5260, 1966.104
455.7150, 1841.441
456.9030, 1603.182
458.0910, 1308.012
459.2800, 1342.156
460.4670, 1158.873
461.6550, 1210.977
462.8430, 1106.438
464.0300, 1043.266
465.2180, 970.2676
466.4050, 987.7715
467.5920, 1129.838
468.7790, 1094.170
469.9650, 1106.891
471.1520, 1138.801
472.3380, 1440.873
473.5250, 1318.717
474.7110, 1435.395
475.8970, 1434.068
477.0820, 1822.902
478.2680, 1942.367
479.4540, 2074.949
480.6390, 2026.145
481.8240, 2302.268
483.0090, 2562.580
484.1940, 2945.107
485.3780, 3069.756
486.5630, 3331.377
487.7470, 3407.973
488.9320, 3558.541
490.1160, 3595.084
491.3000, 3711.600
492.4830, 3622.090
493.6670, 3562.604
494.8500, 3523.830
496.0340, 3239.568
497.2170, 3361.027
498.4000, 3168.461
499.5820, 3114.873
500.7650, 3339.410
501.9480, 3265.754
503.1300, 3541.453
504.3120, 3640.988
505.4940, 3700.539
506.6760, 4022.537
507.8580, 4458.102
509.0390, 4760.402
510.2210, 5283.320
511.4020, 5751.680
512.5830, 6360.258
513.7640, 7173.195
514.9450, 8610.172
516.1250, 9968.934
517.3060, 11650.50
518.4860, 13891.96
519.6660, 16748.08
520.8460, 19717.53
522.0260, 22982.11
523.2060, 27132.30
524.3850, 30728.45
525.5650, 34353.23
526.7440, 37033.38
527.9230, 38153.85
529.1020, 38187.70
530.2810, 35981.59
531.4590, 33022.16
532.6380, 28674.40
533.8160, 24756.17
534.9940, 20964.74
536.1720, 17308.34
537.3500, 14593.98
538.5270, 12062.96
539.7050, 10184.53
540.8820, 8272.750
542.0590, 7001.148
543.2360, 5973.945
544.4130, 5242.285
545.5900, 4596.816
546.7660, 3857.578
547.9430, 3561.654
549.1190, 3453.010
550.2950, 2745.014
551.4710, 2693.090
552.6470, 2619.305
553.8220, 2248.281
554.9980, 2071.771
556.1730, 1752.527
557.3480, 1721.986
558.5230, 1749.428
559.6980, 1503.854
560.8730, 1377.266
562.0470, 1213.662
563.2220, 1010.043
564.3960, 1022.410
565.5700, 1036.758
566.7440, 944.0938
567.9170, 1066.414
569.0910, 748.7188
570.2640, 930.0078
571.4380, 665.2832
572.6110, 653.5410
573.7840, 651.7871
574.9570, 641.0156
576.1290, 402.2305
577.3020, 471.4316
578.4740, 441.6191
579.6460, 417.0723
580.8180, 629.9473
581.9900, 441.0918
583.1620, 548.2207
584.3330, 491.3359
585.5040, 646.6680
586.6760, 299.7520
587.8470, 709.8281
589.0180, 250.3086
590.1880, 405.3652
591.3590, 350.7012
592.5290, 469.0293
593.7000, 301.6348
594.8700, 396.9395
596.0400, 308.0332
597.2090, 440.1270
598.3790, 346.4043
599.5490, 277.5059
600.7180, 386.6055
601.8870, 316.9492
603.0560, 292.5742
604.2250, 296.6562
605.3940, 308.0977
606.5620, 348.7930
607.7300, 357.8477
608.8990, 333.9062
610.0670, 277.9551
611.2350, 295.0215
612.4020, 492.0859
613.5700, 377.1445
614.7370, 739.2012
615.9050, 696.2480
617.0720, 1014.287
618.2390, 1121.320
619.4060, 1385.344
620.5720, 1445.361
621.7390, 1636.365
622.9050, 1922.359
624.0710, 1962.342
625.2370, 2265.311
626.4030, 2136.352
627.5690, 1922.588
628.7340, 1928.516
629.9000, 1366.428
631.0650, 1208.326
632.2300, 943.7305
633.3950, 957.9434
634.5600, 874.4570
635.7240, 805.0449
636.8890, 964.5859
638.0530, 733.0488
639.2170, 973.0859
640.3810, 1053.402
641.5450, 1098.439
642.7080, 1312.184
643.8720, 1394.686
645.0350, 1655.832
646.1980, 1627.041
647.3610, 1775.748
648.5240, 1929.789
649.6870, 1559.967
650.8490, 1741.727
652.0120, 1565.039
653.1740, 1541.654
654.3360, 1340.730
655.4980, 1110.701
656.6600, 1053.828
657.8210, 814.7617
658.9830, 677.9434
660.1440, 552.1309
661.3050, 498.3496
662.4660, 412.0234
663.6270, 14.65625
664.7870, 186.4062
665.9480, 91.26953
667.1080, 193.1309
668.2680, 299.6543
669.4280, 61.27539
670.5880, 34.23633
671.7480, 25.30273
672.9070, 80.24805
674.0670, 259.9414
675.2260, 177.5996
676.3850, 109.8672
677.5440, 137.3359
678.7030, 103.5742
679.8610, 98.58984
681.0200, 79.08008
682.1780, 21.61914
683.3360, 71.81836
684.4940, 28.14258
685.6520, 52.73633
686.8090, 57.65039
687.9670, 53.32422
689.1240, 133.2637
690.2810, 9.822266
691.4380, 27.96094
692.5950, 40.15820
693.7520, 306.5781
694.9080, 173.2871
696.0650, 417.9707
697.2210, 314.6270
698.3770, 327.2598
699.5330, 412.8672
700.6880, 395.4492
701.8440, 759.0078
702.9990, 957.5391
704.1550, 1328.047
705.3100, 1368.525
706.4650, 1669.982
707.6190, 1864.414
708.7740, 2123.822
709.9290, 2216.201
711.0830, 2268.557
712.2370, 1888.889
713.3910, 1844.191
714.5450, 1533.475
715.6980, 1353.729
716.8520, 1173.959
718.0050, 933.1641
719.1580, 782.3418
720.3110, 423.4961
721.4640, 555.6250
722.6170, 465.7285
723.7700, 173.8086
724.9220, 355.8594
726.0740, 322.8848
727.2260, 126.8867
728.3780, 372.8613
729.5300, 157.8105
730.6810, 158.7305
731.8330, 91.62305
732.9840, 161.4863
734.1350, 340.3203
735.2860, 264.1309
736.4370, 182.9160
737.5880, 411.6719
738.7380, 235.4023
739.8880, 0.1074220
741.0390, 92.76953
742.1890, 342.3984
743.3380, 246.0039
744.4880, 523.5820
745.6380, 476.1367
746.7870, 756.6680
747.9360, 799.1699
749.0850, 667.6504
750.2340, 903.1055
751.3830, 769.5352
752.5310, 913.9414
753.6800, 821.3242
754.8280, 638.6836
755.9760, 653.0156
757.1240, 672.3242
758.2720, 479.6113
759.4190, 531.8711
760.5670, 510.1094
761.7140, 515.3242
762.8610, 582.5137
764.0080, 183.6797
765.1550, 132.8223
766.3020, 285.9395
767.4480, 268.0293
768.5950, 365.0977
769.7410, 76.14453
770.8870, 129.8398
772.0330, 41.06445
773.1780, 25.06250
774.3240, 30.75391
775.4690, 39.53906
776.6140, 137.2930
777.7590, 101.9746
778.9040, 128.6562
780.0490, 20.26367
781.1940, 106.1641
782.3380, 89.30859
783.4820, 69.75586
784.6260, 94.82422
785.7700, 101.5000
786.9140, 68.80078
788.0580, 168.0762
789.2010, 9.673828
790.3450, 126.4688
791.4880, 93.62500
792.6310, 122.6953
793.7730, 87.25977
794.9160, 144.6992
796.0590, 39.36719
797.2010, 103.4961
798.3430, 55.72070
799.4850, 78.94531
800.6270, 97.60547
801.7690, 11.86914
802.9100, 116.3398
804.0520, 85.83594
805.1930, 50.28125
806.3340, 213.7637
807.4750, 76.04492
808.6160, 38.42578
809.7560, 21.09375
810.8970, 31.58398
812.0370, 35.26367
813.1770, 113.0859
814.3170, 7.972656
815.4570, 141.2324
816.5960, 68.16211
817.7360, 103.7773
818.8750, 25.36914
820.0140, 13.08594
821.1530, 31.22656
822.2920, 92.14062
823.4310, 54.75195
824.5690, 257.0996
825.7070, 94.09766
826.8460, 88.41797
827.9840, 264.6348
829.1220, 288.6855
830.2590, 207.9434
831.3970, 284.6602
832.5340, 439.0820
833.6710, 374.7676
834.8080, 367.4434
835.9450, 456.1055
837.0820, 459.7559
838.2190, 661.3926
839.3550, 454.0156
840.4910, 634.6270
841.6270, 812.2246
842.7630, 576.8125
843.8990, 649.3848
845.0350, 858.9473
846.1700, 827.4980
847.3060, 863.0371
848.4410, 840.5645
849.5760, 816.0820
850.7100, 959.5879
851.8450, 941.0801
852.9800, 1426.564
854.1140, 1196.037
855.2480, 1480.498
856.3820, 1778.953
857.5160, 1794.395
858.6500, 2124.828
859.7830, 2079.250
860.9170, 1865.432
862.0500, 1921.836
863.1830, 1582.230
864.3160, 1314.197
865.4480, 1446.572
866.5810, 1253.654
867.7130, 1041.734
868.8460, 1058.525
869.9780, 658.6074
871.1100, 679.3457
872.2410, 967.2715
873.3730, 617.4297
874.5050, 573.8477
875.6360, 655.2656
876.7670, 400.4355
877.8980, 750.3242
879.0290, 541.7363
880.1590, 576.1602
881.2900, 514.6113
882.4200, 601.0586
883.5500, 511.5430
884.6800, 501.0469
885.8100, 605.5723
886.9400, 545.1016
888.0690, 342.6816
889.1990, 249.2559
890.3280, 298.8281
891.4570, 439.4336
892.5860, 506.0352
893.7140, 370.6836
894.8430, 460.3281
895.9710, 462.9961
897.1000, 493.6641
898.2280, 552.3262
899.3560, 537.9844
900.4830, 546.2734
901.6110, 549.0859
902.7380, 487.5566
903.8660, 518.2012
904.9930, 434.8418
906.1200, 391.9648
907.2460, 511.2617
908.3730, 474.2402
909.5000, 194.1270
910.6260, 434.0469
911.7520, 313.0293
912.8780, 183.4238
914.0040, 279.5195
915.1290, 430.8848
916.2550, 264.5273
917.3800, 317.4297
918.5050, 412.6738
919.6300, 82.85352
920.7550, 104.5273
921.8800, 254.8555
923.0040, 253.0938
924.1290, 318.7578
925.2530, 440.9004
926.3770, 606.7363
927.5010, 892.1133
928.6250, 815.6914
929.7480, 1308.139
930.8720, 1574.828
931.9950, 1677.348
933.1180, 1714.869
934.2410, 1841.461
935.3640, 1748.119
936.4860, 1677.227
937.6090, 1493.148
938.7310, 1394.863
939.8530, 1117.512
940.9750, 898.0273
942.0970, 697.9805
943.2180, 620.9434
944.3400, 259.3809
945.4610, 203.8906
946.5820, 119.5078
947.7030, 402.0039
948.8240, 105.0410
949.9450, 191.5566
951.0650, 328.1875
952.1860, 237.6914
953.3060, 341.0176
954.4260, 428.1660
955.5460, 276.3066
956.6650, 287.5469
957.7850, 484.9707
958.9040, 402.3945
960.0230, 530.8887
961.1420, 682.3965
962.2610, 809.9219
963.3800, 894.4668
964.4990, 923.0449
965.6170, 1106.654
966.7350, 1067.277
967.8530, 1139.914
968.9710, 1204.562
970.0890, 1830.223
971.2070, 1506.895
972.3240, 1765.578
973.4410, 1808.275
974.5580, 1501.982
975.6750, 1606.703
976.7920, 1282.438
977.9090, 1148.186
979.0250, 926.9453
980.1410, 875.7129
981.2580, 707.5000
982.3740, 503.2969
983.4890, 474.1055
984.6050, 572.9297
985.7200, 630.7656
986.8360, 906.6172
987.9510, 865.4766
989.0660, 1046.352
990.1810, 1010.242
991.2950, 1155.141
992.4100, 1184.057
993.5240, 1058.984
994.6390, 1063.926
995.7530, 1379.881
996.8660, 1360.852
997.9800, 1626.834
999.0940, 1709.832
1000.207, 2270.842
1001.320, 2256.869
1002.433, 2263.910
1003.546, 2128.967
1004.659, 1503.039
1005.772, 1149.127
1006.884, 1011.549
1007.996, 431.8535
1009.108, 690.0293
1010.220, 737.4492
1011.332, 706.7637
1012.444, 840.9395
1013.555, 923.0898
1014.666, 785.8086
1015.777, 1012.020
1016.888, 1077.154
1017.999, 1066.758
1019.110, 1322.041
1020.220, 1413.047
1021.331, 1827.092
1022.441, 1984.367
1023.551, 1730.654
1024.661, 2151.037
1025.770, 2299.340
1026.880, 2288.350
1027.989, 2736.670
1029.098, 2863.594
1030.207, 2748.932
1031.316, 3048.279
1032.425, 2919.633
1033.533, 3210.996
1034.642, 3286.367
1035.750, 3616.748
1036.858, 4341.135
1037.966, 4758.557
1039.073, 5477.961
1040.181, 6274.377
1041.288, 6575.846
1042.396, 6520.326
1043.503, 6010.832
1044.610, 5025.350
1045.716, 4519.879
1046.823, 3733.418
1047.929, 3342.002
1049.036, 2573.596
1050.142, 2242.203
1051.248, 1994.939
1052.353, 1624.639
1053.459, 1479.150
1054.564, 1306.025
1055.670, 1171.238
1056.775, 1079.971
1057.880, 883.7129
1058.985, 818.4746
1060.089, 741.2832
1061.194, 663.9414
1062.298, 626.4375
1063.402, 611.3711
1064.506, 703.5449
1065.610, 826.4395
1066.713, 852.4941
1067.817, 941.4629
1068.920, 946.4668
1070.023, 838.4746
1071.126, 710.4941
1072.229, 771.5176
1073.332, 828.5488
1074.435, 849.8633
1075.537, 989.6270
1076.639, 1016.701
1077.741, 1079.797
1078.843, 1185.900
1079.945, 1121.006
1081.046, 1270.129
1082.148, 1257.287
1083.249, 1498.602
1084.350, 1470.809
1085.451, 1147.035
1086.551, 1301.291
1087.652, 1235.553
1088.752, 956.8164
1089.853, 1148.080
1090.953, 795.3516
1092.053, 733.6211
1093.152, 964.8926
1094.252, 814.1660
1095.351, 780.4414
1096.451, 748.7188
1097.550, 633.9941
1098.649, 493.2734
1099.748, 340.5527
1100.846, 572.8320
1101.945, 581.1133
1103.043, 682.3965
1104.141, 563.6777
1105.239, 545.9609
1106.337, 701.2402
1107.434, 931.5254
1108.532, 826.8086
1109.629, 809.0918
1110.726, 614.3730
1111.823, 768.6602
1112.920, 653.9414
1114.017, 545.2246
1115.113, 633.5078
1116.210, 573.7930
1117.306, 640.0742
1118.402, 544.3555
1119.498, 736.6387
1120.593, 485.9199
1121.689, 569.1973
1122.784, 503.4785
1123.879, 630.7578
1124.974, 569.0352
1126.069, 628.3145
1127.164, 584.0898
1128.259, 325.8652
1129.353, 448.1387
1130.447, 180.4141
1131.541, 61.68359
1132.635, 251.9551
1133.729, 256.2266
1134.822, 211.4961
1135.916, 120.7656
1137.009, 14.03125
1138.102, 2.296875
1139.195, 366.4414
1140.288, 10.38281
1141.380, 31.33203
1142.473, 11.31250
1143.565, 302.6992
1144.657, 41.29688
1145.749, 129.3164
1146.841, 113.5820
1147.932, 150.5195
1149.024, 77.71094
1150.115, 87.93359
1151.206, 18.19922
1152.297, 194.4883
1153.388, 211.1133
1154.479, 98.71094
1155.569, 134.6914
1156.659, 100.8242
1157.750, 175.6602
1158.839, 109.7500
1159.929, 93.83984
1161.019, 33.50781
1162.108, 131.8555
1163.198, 46.19922
1164.287, 159.5430
1165.376, 164.8828
1166.465, 136.2266
1167.553, 282.5664
1168.642, 26.90625
1169.730, 436.2461
1170.818, 276.5742
1171.906, 250.9102
1172.994, 416.2422
1174.082, 335.5664
1175.170, 326.8945
1176.257, 174.2148
1177.344, 144.5352
1178.431, 110.8516
1179.518, 56.16406
1180.605, 80.51953
1181.691, 21.73438
1182.778, 17.01562
1183.864, 295.2070
1184.950, 102.4297
1186.036, 135.3477
1187.122, 289.7812
1188.207, 180.9102
1189.292, 297.0352
1190.378, 303.1562
1191.463, 246.7266
1192.548, 192.2422
1193.632, 28.21094
1194.717, 3.828125
1195.801, 160.1133
1196.886, 112.9453
1197.970, 270.9180
1199.054, 329.7773
1200.137, 242.6289
1201.221, 236.4805
1202.305, 232.5625
1203.388, 191.3359
1204.471, 214.0000
1205.554, 144.8281
1206.637, 142.6523
1207.719, 97.47266
1208.802, 47.29297
1209.884, 296.1055
1210.966, 306.9141
1212.048, 355.7148
1213.130, 34.48828
1214.212, 343.2773
1215.293, 257.0312
1216.374, 560.7852
1217.456, 454.5312
1218.536, 302.2734
1219.617, 182.0117
1220.698, 179.4258
1221.778, 80.47266
1222.859, 247.1953
1223.939, 317.9141
1225.019, 446.6289
1226.099, 180.3359
1227.178, 388.0391
1228.258, 213.7383
1229.337, 498.4336
1230.417, 267.1211
1231.496, 648.8086
1232.574, 615.4883
1233.653, 644.1641
1234.732, 455.8359
1235.810, 726.5000
1236.888, 904.1641
1237.966, 539.8242
1239.044, 895.4805
1240.122, 604.1250
1241.199, 427.7734
1242.277, 732.4102
1243.354, 978.0508
1244.431, 760.6797
1245.508, 361.3086
1246.585, 592.9375
1247.661, 805.5664
1248.738, 1013.188
1249.814, 720.8086
1250.890, 766.4219
1251.966, 760.0430
1253.042, 673.6680
1254.117, 662.2852
1255.193, 664.4609
1256.268, 448.5195
1257.343, 722.1328
1258.418, 657.7422
1259.493, 741.4023
1260.567, 947.0547
1261.642, 732.7266
1262.716, 798.4453
1263.790, 1155.223
1264.864, 1277.992
1265.938, 1064.766
1267.011, 1624.547
1268.085, 1203.000
1269.158, 857.5781
1270.231, 1548.316
1271.304, 1410.824
1272.377, 1406.457
1273.450, 1351.250
1274.522, 1218.078
1275.594, 1244.348
1276.666, 1193.145
1277.738, 1290.027
1278.810, 1047.215
1279.882, 1079.457
1280.953, 1146.582
1282.025, 682.6055
1283.096, 975.4062
1284.167, 846.2109
1285.238, 813.9336
1286.308, 1157.746
1287.379, 1070.867
1288.449, 890.0625
1289.519, 883.2891
1290.589, 1080.121
1291.659, 1338.957
1292.729, 1100.797
1293.798, 988.6367
1294.868, 1184.484
1295.937, 1289.867
1297.006, 1184.852
1298.075, 1003.680
1299.143, 1093.527
1300.212, 1019.379
1301.280, 980.2266
1302.348, 1008.082
1303.416, 948.9023
1304.484, 884.7891
1305.552, 920.6406
1306.620, 1054.496
1307.687, 1101.348
1308.754, 818.1992
1309.821, 902.0508
1310.888, 1154.820
1311.955, 930.6250
1313.021, 1248.477
1314.088, 1367.316
1315.154, 1482.672
1316.220, 1748.508
1317.286, 1418.344
1318.352, 1817.180
1319.417, 1589.012
1320.483, 1621.332
1321.548, 1625.156
1322.613, 1267.910
1323.678, 1155.445
1324.743, 1283.285
1325.807, 973.0234
1326.872, 1109.879
1327.936, 817.7422
1329.000, 763.6211
1330.064, 618.5039
1331.128, 640.3945
1332.191, 587.2969
1333.255, 703.2109
1334.318, 889.1289
1335.381, 392.0586
1336.444, 405.0000
1337.507, 730.9453
1338.569, 301.9062
1339.632, 331.8750
1340.694, 500.8594
1341.756, 555.7070
1342.818, 529.7070
1343.880, 539.7188
1344.941, 531.7461
1346.003, 437.7773
1347.064, 340.8281
1348.125, 355.8867
1349.186, 464.9648
1350.247, 339.0469
1351.308, 515.1406
1352.368, 174.2539
1353.428, 365.3750
1354.489, 623.5078
1355.549, 251.6523
1356.608, 140.8164
1357.668, 230.9844
1358.727, 479.1641
1359.787, 252.3555
1360.846, 246.5547
1361.905, 184.7734
1362.964, 473.9961
1364.022, 351.2109
1365.081, 366.4141
1366.139, 248.6289
1367.197, 433.8555
1368.255, 522.0938
1369.313, 307.3398
1370.371, 530.5977
1371.428, 416.8672
1372.486, 538.2227
1373.543, 750.5742
1374.600, 367.1016
1375.657, 378.5469
1376.713, 337.8672
1377.770, 351.2031
1378.826, 215.4297
1379.882, 281.9336
1380.938, 605.7930
1381.994, 490.1836
1383.050, 784.3125
1384.106, 440.7305
1385.161, 457.5391
1386.216, 278.2031
1387.271, 285.6719
1388.326, 373.2969
1389.381, 298.9883
1390.435, 278.4922
1391.490, 328.0234
1392.544, 214.6289
1393.598, 136.1680
1394.652, 94.06250
1395.705, 113.8906
1396.759, 142.7695
1397.812, 166.9805
1398.866, 86.12891
1399.919, 136.0547
1400.972, 81.19531
1402.024, 130.0391
1403.077, 127.2969
1404.129, 68.20312
1405.181, 93.82031
1406.233, 72.82031
1407.285, 33.40234
1408.337, 151.5859
1409.389, 92.72656
1410.440, 100.2422
1411.491, 190.4023
1412.542, 122.6367
1413.593, 191.7383
1414.644, 6.894531
1415.695, 185.3711
1416.745, 279.6758
1417.795, 115.3203
1418.845, 217.1406
1419.895, 228.9766
1420.945, 75.48438
1421.995, 14.03906
1423.044, 45.33594
1424.093, 117.6758
1425.142, 185.3203
1426.191, 235.0117
1427.240, 277.7656
1428.289, 359.8789
1429.337, 385.9688
1430.385, 501.9961
1431.433, 663.9492
1432.481, 641.1211
1433.529, 924.5938
1434.577, 990.3008
1435.624, 1313.957
1436.672, 1513.680
1437.719, 1672.188
1438.766, 1781.641
1439.812, 1947.180
1440.859, 2250.430
1441.905, 2306.641
1442.952, 2697.012
1443.998, 2341.340
1445.044, 2744.289
1446.090, 2717.641
1447.135, 2890.496
1448.181, 2869.922
1449.226, 2913.121
1450.271, 2915.953
1451.316, 2945.543
1452.361, 2913.160
1453.405, 2907.805
1454.450, 2942.477
1455.494, 3230.180
1456.538, 2921.906
1457.582, 2677.676
1458.626, 2814.496
1459.670, 2507.344
1460.713, 2563.223
1461.757, 2295.133
1462.800, 2207.066
1463.843, 2039.039
1464.886, 1856.043
1465.928, 1733.074
1466.971, 1620.145
1468.013, 1413.242
1469.055, 1497.379
1470.097, 1386.547
1471.139, 1464.750
1472.181, 1409.781
1473.222, 1326.270
1474.263, 1279.566
1475.305, 1197.512
1476.346, 851.2539
1477.386, 1084.625
1478.427, 931.0234
1479.468, 959.3945
1480.508, 1150.703
1481.548, 1247.809
1482.588, 905.8438
1483.628, 975.8906
1484.668, 1112.938
1485.707, 652.9844
1486.747, 602.0469
1487.786, 683.1328
1488.825, 570.5664
1489.864, 518.7188
1490.902, 555.7344
1491.941, 511.7578
1492.979, 491.7969
1494.017, 409.0508
1495.055, 374.2930
1496.093, 239.3594
1497.131, 208.5547
1498.168, 216.4453
1499.206, 40.60547
1500.243, 206.8008
1501.280, 354.0469
1502.317, 322.3477
1503.354, 16.70703
1504.390, 62.13281
1505.426, 138.6367
1506.463, 257.2266
1507.499, 113.9141
1508.535, 332.6914
1509.570, 180.5977
1510.606, 127.4297
1511.641, 358.5781
1512.676, 43.37500
1513.711, 122.2891
1514.746, 149.1641
1515.781, 348.9844
1516.816, 18.17969
1517.850, 264.4023
1518.884, 228.6602
1519.918, 252.9492
1520.952, 21.26953
1521.986, 203.6172
1523.019, 227.9961
1524.053, 292.4023
1525.086, 249.8320
1526.119, 521.2930
1527.152, 250.7969
1528.185, 572.3438
1529.217, 372.9492
1530.250, 615.6836
1531.282, 310.6797
1532.314, 332.7500
1533.346, 430.9297
1534.377, 286.9414
1535.409, 598.8750
1536.440, 376.7891
1537.472, 645.3516
1538.503, 501.5312
1539.534, 756.9141
1540.564, 574.6016
1541.595, 241.7461
1542.625, 395.9180
1543.656, 193.1836
1544.686, 464.6875
1545.716, 334.8477
1546.745, 287.4023
1547.775, 578.0312
1548.804, 148.4688
1549.834, 171.3867
1550.863, 90.96875
1551.892, 322.9180
1552.920, 286.4258
1553.949, 475.0664
1554.977, 497.7461
1556.006, 104.6875
1557.034, 41.78125
1558.062, 164.8711
1559.089, 296.2656
1560.117, 124.5234
1561.144, 246.9375
1562.172, 206.0898
1563.199, 94.10938
1564.226, 248.7695
1565.252, 159.6133
1566.279, 60.05469
1567.305, 3.535156
1568.332, 120.1016
1569.358, 100.1641
1570.384, 0.0000000E+00
##END=



