##NAMES=Metatorbernite
##RRUFFID=R040171
##IDEAL CHEMISTRY=Cu^2+^(U^6+^O_2_)_2_(PO_4_)_2_&#183;8H_2_O
##LOCALITY=La Luz de Cobre, Sonora, Mexico
##OWNER=RRUFF
##SOURCE=University of Arizona Mineral Museum
##DESCRIPTION=Green thin tabular crystals
##STATUS=The identification of this mineral has been confirmed by X-ray diffraction and chemical analysis
##URL=rruff.info/R040171
##MEASURED CHEMISTRY=(Cu_0.80_[box]_0.20_)_Σ=1_(U_1.00_O_2_)_2_(P_1.00_O_4_)_2_·8((H_2_O)_0.95_(H_3_O)^+^_0.05_)
##PIN_ID=M00079
##ORIENTATION=Laser parallel to -c* (0 0 -1). Fiducial mark perpendicular to laser is parallel to a [1 0 0]
85.009, 0.000
86.404, 0.945
87.798, 80.594
89.193, 308.896
90.587, 574.760
91.981, 902.590
93.375, 1370.606
94.768, 1801.829
96.161, 2278.218
97.554, 2281.327
98.947, 2080.553
100.340, 1609.861
101.732, 1285.557
103.124, 1000.357
104.516, 932.286
105.908, 987.880
107.300, 1188.449
108.691, 1210.150
110.082, 1351.856
111.473, 1295.605
112.864, 1158.426
114.254, 1093.339
115.644, 963.366
117.034, 792.517
118.424, 664.802
119.813, 632.229
121.203, 628.357
122.592, 669.033
123.981, 719.015
125.369, 780.527
126.758, 622.198
128.146, 623.078
129.534, 496.405
130.922, 458.105
132.309, 342.371
133.696, 343.890
135.083, 232.577
136.470, 256.431
137.857, 191.450
139.243, 264.633
140.630, 209.978
142.016, 257.482
143.401, 206.145
144.787, 178.963
146.172, 158.951
147.557, 112.953
148.942, 95.307
150.327, 55.697
151.711, 59.222
153.096, 72.880
154.480, 107.673
155.863, 18.401
157.247, 18.658
158.630, 10.151
160.013, 35.828
161.396, 52.373
162.779, 30.138
164.161, 50.546
165.544, 91.489
166.926, 52.117
168.308, 113.494
169.689, 11.870
171.070, 101.200
172.452, 14.029
173.833, 8.557
175.213, 70.704
176.594, 124.506
177.974, 191.922
179.354, 281.036
180.734, 372.857
182.114, 438.792
183.493, 590.842
184.872, 969.004
186.251, 1229.278
187.630, 1697.660
189.008, 2161.145
190.387, 2718.725
191.765, 3225.398
193.143, 3492.167
194.520, 3518.029
195.898, 3045.985
197.275, 2348.035
198.652, 1734.179
200.029, 1287.415
201.405, 892.745
202.782, 679.166
204.158, 398.667
205.534, 393.238
206.909, 383.852
208.285, 199.488
209.660, 299.125
211.035, 416.780
212.410, 360.482
213.784, 496.272
215.159, 617.154
216.533, 792.124
217.907, 984.183
219.281, 1122.331
220.654, 1537.567
222.027, 1456.893
223.400, 1477.305
224.773, 1438.805
226.146, 1256.392
227.518, 1033.067
228.891, 744.828
230.263, 547.676
231.634, 511.610
233.006, 494.631
234.377, 508.739
235.748, 260.933
237.119, 49.213
238.490, 116.420
239.860, 6.034
241.231, 90.427
242.601, 10.800
243.970, 47.087
245.340, 3.334
246.709, 52.468
248.079, 34.666
249.448, 108.280
250.816, 97.488
252.185, 118.788
253.553, 73.796
254.921, 77.316
256.289, 101.235
257.657, 47.384
259.024, 85.014
260.391, 22.287
261.758, 43.367
263.125, 65.285
264.492, 36.065
265.858, 1.284
267.224, 93.243
268.590, 0.329
269.956, 65.000
271.321, 18.263
272.687, 52.462
274.052, 70.394
275.416, 48.315
276.781, 150.302
278.146, 224.354
279.510, 186.471
280.874, 346.653
282.237, 303.898
283.601, 445.208
284.964, 336.582
286.327, 361.995
287.690, 499.422
289.053, 490.836
290.416, 466.185
291.778, 492.457
293.140, 439.696
294.502, 420.974
295.863, 287.320
297.225, 377.731
298.586, 342.207
299.947, 326.747
301.308, 492.349
302.668, 505.015
304.029, 380.743
305.389, 385.533
306.749, 320.384
308.108, 327.295
309.468, 366.267
310.827, 284.297
312.186, 280.387
313.545, 253.961
314.903, 307.743
316.262, 234.007
317.620, 168.329
318.978, 244.707
320.336, 263.132
321.693, 280.623
323.051, 257.490
324.408, 240.442
325.765, 126.772
327.121, 304.848
328.478, 198.920
329.834, 282.146
331.190, 258.116
332.546, 368.415
333.902, 225.220
335.257, 440.256
336.612, 322.978
337.967, 412.508
339.322, 363.505
340.677, 353.525
342.031, 404.577
343.385, 428.661
344.739, 509.801
346.093, 466.997
347.446, 461.250
348.799, 473.557
350.153, 586.921
351.505, 613.339
352.858, 625.812
354.210, 693.336
355.563, 703.917
356.915, 838.555
358.267, 680.245
359.618, 775.994
360.969, 768.794
362.321, 899.647
363.672, 796.552
365.022, 920.507
366.373, 976.528
367.723, 993.600
369.073, 978.723
370.423, 1020.913
371.773, 1096.154
373.122, 1062.458
374.471, 1166.812
375.821, 1219.216
377.169, 1147.671
378.518, 1263.215
379.866, 1177.808
381.215, 1147.490
382.563, 1261.222
383.910, 1252.022
385.258, 1248.874
386.605, 1320.773
387.952, 1448.725
389.299, 1413.744
390.646, 1482.828
391.992, 1463.959
393.339, 1700.147
394.685, 1821.428
396.031, 2085.760
397.376, 2563.148
398.722, 2633.582
400.067, 3007.083
401.412, 2984.672
402.757, 3014.242
404.101, 3548.143
405.446, 3712.292
406.790, 3801.149
408.134, 3652.700
409.478, 3371.602
410.821, 2878.157
412.165, 2638.155
413.508, 2190.221
414.851, 2199.520
416.193, 2066.708
417.536, 1934.952
418.878, 1862.253
420.220, 1899.638
421.562, 1866.000
422.904, 1855.947
424.245, 1905.455
425.586, 1896.445
426.927, 1850.652
428.268, 1980.222
429.609, 1930.192
430.949, 1911.839
432.289, 2065.074
433.629, 2369.189
434.969, 2301.048
436.309, 2621.070
437.648, 2683.151
438.987, 2875.278
440.326, 2894.462
441.665, 2864.691
443.003, 2716.965
444.342, 2662.291
445.680, 2525.659
447.018, 2309.081
448.355, 2231.546
449.693, 1854.059
451.030, 1850.615
452.367, 1772.217
453.704, 1799.872
455.041, 1563.574
456.377, 1622.149
457.713, 1574.108
459.049, 1626.939
460.385, 1590.818
461.721, 1599.739
463.056, 1641.702
464.391, 1563.707
465.726, 1506.753
467.061, 1593.838
468.395, 1359.965
469.730, 1281.131
471.064, 1347.336
472.398, 1088.581
473.731, 1147.864
475.065, 1021.187
476.398, 1049.548
477.731, 972.947
479.064, 1029.384
480.397, 948.859
481.729, 979.375
483.062, 934.930
484.394, 846.524
485.725, 921.164
487.057, 844.850
488.389, 847.579
489.720, 752.357
491.051, 721.190
492.382, 685.072
493.712, 736.013
495.043, 770.994
496.373, 637.032
497.703, 639.110
499.032, 610.226
500.362, 611.375
501.691, 698.560
503.020, 681.778
504.349, 680.030
505.678, 621.316
507.007, 685.893
508.335, 647.245
509.663, 620.937
510.991, 608.355
512.319, 559.015
513.646, 559.286
514.973, 512.134
516.300, 494.323
517.627, 555.897
518.954, 455.882
520.280, 377.517
521.607, 417.182
522.933, 545.877
524.259, 414.601
525.584, 416.695
526.910, 226.631
528.235, 363.440
529.560, 341.802
530.885, 394.087
532.209, 353.497
533.534, 261.415
534.858, 357.359
536.182, 338.468
537.506, 392.275
538.829, 350.296
540.152, 294.626
541.476, 252.846
542.799, 343.368
544.121, 171.834
545.444, 282.200
546.766, 213.263
548.088, 233.099
549.410, 259.013
550.732, 219.237
552.053, 287.079
553.375, 294.833
554.696, 202.463
556.017, 229.994
557.337, 210.315
558.658, 198.716
559.978, 148.763
561.298, 116.009
562.618, 208.813
563.938, 103.261
565.257, 77.458
566.576, 135.501
567.895, 17.528
569.214, 215.110
570.533, 250.806
571.851, 23.981
573.170, 15.007
574.488, 201.311
575.805, 89.270
577.123, 43.092
578.440, 1.235
579.758, 23.914
581.075, 102.849
582.391, 4.214
583.708, 52.320
585.024, 28.500
586.341, 18.905
587.657, 34.778
588.972, 51.714
590.288, 167.646
591.603, 135.635
592.918, 20.090
594.233, 224.170
595.548, 102.135
596.863, 338.875
598.177, 19.543
599.491, 125.797
600.805, 68.101
602.119, 111.793
603.432, 42.812
604.746, 131.138
606.059, 165.292
607.372, 72.406
608.685, 52.536
609.997, 58.704
611.309, 112.488
612.621, 116.021
613.933, 126.008
615.245, 157.033
616.557, 130.036
617.868, 193.134
619.179, 176.000
620.490, 176.407
621.801, 181.271
623.111, 208.136
624.421, 162.999
625.731, 284.860
627.041, 140.723
628.351, 272.584
629.660, 162.443
630.970, 80.300
632.279, 248.153
633.588, 170.009
634.896, 207.860
636.205, 134.708
637.513, 255.553
638.821, 59.396
640.129, 121.235
641.437, 192.069
642.744, 212.898
644.051, 110.722
645.358, 128.539
646.665, 111.351
647.972, 169.156
649.278, 94.955
650.584, 193.746
651.890, 50.530
653.196, 220.308
654.502, 195.076
655.807, 122.836
657.113, 24.587
658.418, 113.329
659.722, 176.063
661.027, 175.787
662.331, 164.501
663.636, 0.205
664.940, 121.895
666.244, 0.574
667.547, 164.238
668.851, 67.892
670.154, 89.533
671.457, 3.163
672.760, 2.223
674.062, 109.372
675.365, 13.046
676.667, 73.511
677.969, 62.054
679.271, 123.585
680.572, 60.102
681.874, 42.395
683.175, 26.064
684.476, 86.508
685.777, 43.062
687.077, 17.323
688.378, 24.312
689.678, 99.014
690.978, 57.325
692.278, 39.621
693.577, 124.100
694.877, 153.086
696.176, 129.743
697.475, 46.331
698.774, 50.611
700.072, 37.388
701.371, 46.368
702.669, 15.328
703.967, 50.738
705.265, 34.862
706.562, 82.961
707.860, 15.231
709.157, 140.467
710.454, 8.190
711.751, 7.185
713.047, 88.402
714.344, 51.030
715.640, 12.525
716.936, 94.065
718.232, 55.823
719.527, 127.173
720.823, 10.497
722.118, 54.749
723.413, 12.073
724.708, 27.256
726.002, 24.624
727.297, 50.743
728.591, 62.466
729.885, 45.738
731.179, 70.779
732.472, 27.795
733.766, 33.222
735.059, 29.689
736.352, 34.226
737.645, 27.917
738.937, 46.832
740.230, 24.601
741.522, 57.332
742.814, 23.965
744.106, 99.678
745.397, 102.298
746.689, 38.893
747.980, 1.453
749.271, 8.967
750.562, 13.562
751.853, 83.853
753.143, 0.239
754.433, 84.578
755.723, 81.889
757.013, 23.172
758.303, 112.415
759.592, 8.632
760.881, 98.803
762.170, 46.961
763.459, 104.085
764.748, 88.189
766.036, 5.273
767.325, 78.309
768.613, 125.614
769.901, 105.626
771.188, 165.214
772.476, 54.188
773.763, 276.127
775.050, 92.041
776.337, 252.941
777.624, 232.987
778.910, 212.877
780.196, 231.745
781.482, 267.041
782.768, 268.215
784.054, 317.026
785.339, 469.854
786.625, 366.614
787.910, 350.352
789.195, 495.077
790.479, 374.790
791.764, 508.478
793.048, 594.853
794.332, 591.494
795.616, 701.112
796.900, 815.702
798.183, 912.269
799.467, 996.815
800.750, 1118.522
802.033, 1276.366
803.316, 1345.949
804.598, 1463.758
805.880, 1574.676
807.163, 1626.592
808.445, 1892.974
809.726, 2085.330
811.008, 2296.661
812.289, 2687.967
813.570, 2856.244
814.851, 3485.498
816.132, 4122.727
817.413, 4885.930
818.693, 5900.852
819.973, 8036.002
821.253, 10988.821
822.533, 16234.920
823.813, 24769.994
825.092, 36007.039
826.371, 44770.730
827.650, 44324.086
828.929, 33772.062
830.208, 22644.641
831.486, 14657.566
832.764, 9648.466
834.042, 7010.344
835.320, 5224.202
836.598, 4173.695
837.875, 3606.351
839.152, 3218.137
840.429, 2829.372
841.706, 2451.687
842.983, 1930.881
844.259, 1496.568
845.536, 1186.230
846.812, 971.730
848.088, 846.533
849.363, 550.126
850.639, 626.410
851.914, 469.805
853.189, 529.897
854.464, 454.047
855.739, 510.297
857.013, 560.849
858.288, 532.629
859.562, 259.331
860.836, 265.721
862.110, 327.491
863.383, 208.350
864.656, 281.330
865.930, 170.408
867.203, 226.694
868.475, 129.899
869.748, 220.455
871.020, 56.832
872.292, 155.646
873.564, 122.829
874.836, 57.265
876.108, 43.857
877.379, 113.462
878.650, 69.508
879.922, 238.442
881.192, 103.891
882.463, 178.501
883.733, 178.799
885.004, 311.448
886.274, 195.230
887.544, 249.688
888.813, 390.430
890.083, 320.267
891.352, 395.929
892.621, 436.996
893.890, 487.422
895.159, 566.623
896.427, 585.351
897.695, 641.024
898.964, 816.694
900.232, 713.313
901.499, 881.464
902.767, 803.989
904.034, 796.114
905.301, 633.471
906.568, 718.385
907.835, 578.702
909.102, 560.963
910.368, 358.826
911.634, 385.353
912.900, 333.562
914.166, 321.128
915.432, 300.530
916.697, 142.780
917.962, 141.370
919.227, 192.236
920.492, 28.832
921.757, 166.905
923.021, 12.194
924.285, 90.113
925.550, 159.440
926.813, 81.985
928.077, 108.604
929.341, 47.235
930.604, 67.745
931.867, 118.502
933.130, 27.988
934.393, 35.548
935.655, 166.084
936.918, 67.526
938.180, 126.956
939.442, 9.375
940.703, 80.899
941.965, 208.192
943.226, 90.568
944.488, 21.955
945.749, 187.302
947.009, 167.636
948.270, 198.961
949.530, 106.275
950.791, 211.777
952.051, 122.070
953.311, 270.223
954.570, 242.494
955.830, 324.756
957.089, 408.209
958.348, 338.261
959.607, 361.492
960.866, 486.715
962.124, 414.928
963.383, 477.132
964.641, 579.326
965.899, 565.511
967.156, 752.688
968.414, 700.854
969.671, 851.013
970.928, 1037.166
972.185, 1172.310
973.442, 1448.448
974.699, 1657.578
975.955, 2166.700
977.211, 2771.814
978.468, 3214.691
979.723, 3993.797
980.979, 4916.896
982.234, 5922.992
983.490, 8027.084
984.745, 10230.171
986.000, 13944.914
987.254, 18184.984
988.509, 21038.066
989.763, 23216.146
991.017, 22931.207
992.271, 22085.285
993.525, 20797.365
994.779, 20508.447
996.032, 21037.520
997.285, 21244.588
998.538, 19974.654
999.791, 16711.756
1001.044, 13665.849
1002.296, 10318.979
1003.548, 8504.104
1004.800, 7229.247
1006.052, 6252.387
1007.304, 5120.523
1008.555, 3818.660
1009.807, 2870.814
1011.058, 2186.980
1012.309, 1750.143
1013.559, 1667.315
1014.810, 1266.528
1016.060, 1008.746
1017.310, 896.971
1018.560, 814.191
1019.810, 692.433
1021.060, 679.686
1022.309, 640.452
1023.558, 537.735
1024.807, 525.017
1026.056, 438.846
1027.305, 464.553
1028.553, 358.874
1029.801, 412.980
1031.049, 299.308
1032.297, 215.632
1033.545, 320.963
1034.793, 257.296
1036.040, 153.630
1037.287, 205.969
1038.534, 225.327
1039.781, 215.691
1041.027, 194.060
1042.274, 206.208
1043.520, 182.410
1044.766, 219.238
1046.012, 141.641
1047.257, 166.062
1048.503, 128.485
1049.748, 279.911
1050.993, 185.342
1052.238, 197.786
1053.483, 202.242
1054.727, 56.716
1055.971, 95.192
1057.216, 149.683
1058.459, 121.178
1059.703, 34.678
1060.947, 13.186
1062.190, 81.697
1063.433, 51.777
1064.676, 54.724
1065.919, 29.767
1067.162, 22.272
1068.404, 17.215
1069.646, 94.283
1070.888, 26.102
1072.130, 20.347
1073.372, 56.805
1074.613, 39.622
1075.855, 33.057
1077.096, 62.503
1078.337, 71.091
1079.578, 96.140
1080.818, 91.495
1082.059, 11.850
1083.299, 55.257
1084.539, 19.273
1085.779, 66.046
1087.018, 85.329
1088.258, 39.657
1089.497, 58.008
1090.736, 54.696
1091.975, 70.594
1093.213, 20.110
1094.452, 97.473
1095.690, 91.771
1096.928, 50.072
1098.166, 30.381
1099.404, 25.304
1100.642, 93.005
1101.879, 18.678
1103.116, 65.639
1104.353, 24.963
1105.590, 26.707
1106.827, 18.382
1108.063, 161.942
1109.299, 105.272
1110.536, 94.610
1111.771, 170.956
1113.007, 29.310
1114.243, 148.670
1115.478, 61.038
1116.713, 214.419
1117.948, 36.809
1119.183, 235.206
1120.418, 41.613
1121.652, 134.028
1122.886, 189.458
1124.120, 106.897
1125.354, 94.343
1126.588, 21.201
1127.821, 91.256
1129.055, 45.721
1130.288, 24.194
1131.521, 74.679
1132.753, 103.171
1133.986, 43.325
1135.218, 47.172
1136.450, 199.678
1137.682, 35.194
1138.914, 88.721
1140.146, 77.256
1141.377, 122.802
1142.609, 45.357
1143.840, 87.925
1145.071, 135.861
1146.301, 170.088
1147.532, 218.687
1148.762, 223.293
1149.992, 148.911
1151.222, 178.541
1152.452, 231.181
1153.682, 309.831
1154.911, 136.492
1156.140, 270.164
1157.369, 244.846
1158.598, 269.541
1159.827, 291.246
1161.055, 450.963
1162.284, 274.689
1163.512, 419.429
1164.740, 351.179
1165.967, 386.940
1167.195, 274.712
1168.422, 497.495
1169.650, 437.292
1170.877, 435.103
1172.103, 430.923
1173.330, 419.756
1174.557, 472.603
1175.783, 478.464
1177.009, 540.336
1178.235, 519.222
1179.461, 478.119
1180.686, 517.028
1181.912, 640.950
1183.137, 690.885
1184.362, 672.831
1185.587, 642.790
1186.811, 658.762
1188.036, 648.746
1189.260, 687.744
1190.484, 800.754
1191.708, 746.777
1192.932, 807.813
1194.155, 691.863
1195.378, 784.926
1196.602, 902.001
1197.825, 794.092
1199.047, 791.195
1200.270, 912.313
1201.492, 822.443
1202.715, 962.590
1203.937, 804.750
1205.159, 977.923
1206.380, 895.112
1207.602, 991.315
1208.823, 875.534
1210.044, 934.768
1211.265, 997.821
1212.486, 989.086
1213.707, 1327.502
1214.927, 1028.381
1216.147, 1033.704
1217.367, 848.390
1218.587, 1090.149
1219.807, 918.526
1221.027, 1001.570
1222.246, 1074.979
1223.465, 939.401
1224.684, 1000.206
1225.903, 1109.541
1227.121, 1090.998
1228.340, 1091.676
1229.558, 1129.688
1230.776, 1025.096
1231.994, 1033.527
1233.212, 1042.055
1234.429, 1026.598
1235.646, 1029.153
1236.864, 991.603
1238.081, 1130.283
1239.297, 988.888
1240.514, 1087.484
1241.730, 1097.121
1242.947, 1042.774
1244.163, 1058.442
1245.378, 1024.125
1246.594, 1167.624
1247.810, 986.339
1249.025, 919.789
1250.240, 1088.536
1251.455, 846.299
1252.670, 948.877
1253.885, 1098.863
1255.099, 914.674
1256.313, 962.503
1257.527, 842.349
1258.741, 1073.211
1259.955, 968.092
1261.168, 890.988
1262.382, 910.082
1263.595, 828.014
1264.808, 896.964
1266.021, 871.301
1267.233, 823.286
1268.446, 822.550
1269.658, 910.571
1270.870, 919.612
1272.082, 896.670
1273.294, 791.979
1274.505, 710.075
1275.716, 751.188
1276.928, 649.322
1278.139, 630.475
1279.349, 808.646
1280.560, 743.170
1281.770, 683.381
1282.981, 734.611
1284.191, 635.861
1285.401, 699.130
1286.610, 612.420
1287.820, 606.729
1289.029, 697.059
1290.239, 441.408
1291.448, 707.777
1292.656, 539.168
1293.865, 446.579
1295.073, 580.010
1296.282, 520.460
1297.490, 464.932
1298.698, 396.424
1299.906, 405.567
1301.113, 596.473
1302.320, 412.030
1303.528, 448.608
1304.735, 408.210
1305.942, 234.833
1307.148, 414.480
1308.355, 444.143
1309.561, 370.829
1310.767, 448.539
1311.973, 351.271
1313.179, 331.029
1314.384, 328.810
1315.590, 436.602
1316.795, 328.412
1318.000, 356.230
1319.205, 212.073
1320.410, 285.941
1321.614, 386.835
1322.819, 228.753
1324.023, 358.407
1325.227, 294.668
1326.431, 375.666
1327.634, 320.689
1328.838, 158.741
1330.041, 228.820
1331.244, 301.928
1332.447, 345.062
1333.650, 233.226
1334.852, 168.420
1336.055, 240.644
1337.257, 199.897
1338.459, 286.184
1339.661, 159.502
1340.862, 199.852
1342.064, 242.235
1343.265, 224.656
1344.466, 149.112
1345.667, 318.607
1346.868, 249.142
1348.068, 363.716
1349.269, 344.672
1350.469, 203.991
1351.669, 283.697
1352.869, 273.450
1354.069, 217.252
1355.268, 220.108
1356.468, 226.720
1357.667, 389.210
1358.866, 263.271
1360.065, 263.448
1361.263, 262.651
1362.462, 157.638
1363.660, 254.976
1364.858, 286.816
1366.056, 42.200
1367.254, 230.081
1368.451, 271.040
1369.649, 233.065
1370.846, 106.158
1372.043, 244.304
1373.240, 224.478
1374.436, 138.723
1375.633, 249.017
1376.829, 109.347
1378.025, 162.706
1379.221, 159.110
1380.417, 178.546
1381.613, 137.021
1382.808, 171.544
1384.003, 99.098
1385.199, 214.684
1386.393, 63.297
1387.588, 41.937
1388.783, 193.603
1389.977, 19.289
1391.171, 189.008
1392.365, 39.230
1393.559, 286.563
1394.753, 284.390
1395.946, 230.270
1397.140, 151.184
1398.333, 140.133
1399.526, 154.115
1400.719, 186.133
1401.911, 81.185
1403.104, 153.271
1404.296, 103.391
1405.488, 59.453
1406.680, 55.739
1407.872, 40.965
1409.063, 27.773
1410.255, 223.523
1411.446, 61.143
1412.637, 141.225
1413.828, 15.628
1415.018, 88.068
1416.209, 48.547
1417.399, 30.061
1418.589, 30.610
1419.779, 5.348
1420.969, 29.819
1422.159, 12.478
1423.348, 26.172
1424.537, 98.899
1425.726, 125.662
1426.915, 71.459
1428.104, 154.288
1429.293, 46.148
1430.481, 13.039
1431.669, 96.958
1432.857, 175.901
1434.045, 98.832
1435.233, 36.780
1436.420, 170.746
1437.608, 188.737
1438.795, 93.792
1439.982, 118.912
1441.169, 169.098
1442.355, 229.347
1443.542, 173.658
1444.728, 114.036
1445.914, 151.479
1447.100, 124.928
1448.286, 330.562
1449.472, 172.208
1450.657, 222.466
1451.842, 298.222
1453.027, 238.048
1454.212, 242.946
1455.397, 358.918
1456.581, 343.966
1457.766, 319.772
1458.950, 376.826
1460.134, 192.277
1461.318, 381.432
1462.501, 252.659
1463.685, 139.962
1464.868, 295.343
1466.051, 57.802
1467.234, 272.343
1468.417, 118.969
1469.600, 146.682
1470.782, 162.488
1471.965, 67.393
1473.147, 152.405
1474.329, 90.680
1475.510, 174.768
1476.692, 56.122
1477.873, 119.596
1479.055, 155.191
1480.236, 80.979
1481.416, 235.901
1482.597, 94.962
1483.778, 177.370
1484.958, 42.196
1486.138, 105.251
1487.318, 69.553
1488.498, 217.124
1489.678, 160.993
1490.857, 48.193
1492.037, 71.759
1493.216, 267.739
1494.395, 217.023
1495.574, 230.188
1496.752, 279.776
1497.931, 53.004
1499.109, 15.317
1500.287, 91.811
1501.465, 93.670
1502.643, 140.737
1503.820, 124.401
1504.998, 12.271
1506.175, 102.567
1507.352, 0.000
##END=



