##NAMES=Microcline
##RRUFFID=R040154
##IDEAL CHEMISTRY=KAlSi_3_O_8_
##LOCALITY=Mitchell County, North Carolina, USA
##OWNER=RRUFF
##SOURCE=University of Arizona Mineral Museum
##DESCRIPTION=White cleavage fragment with some perthitic character
##STATUS=The identification of this mineral has been confirmed by X-ray diffraction and chemical analysis
##URL=rruff.info/R040154
##MEASURED CHEMISTRY=(K_0.90_Na_0.09_Ba_0.01_)Al_1.00_(Si_2.99_Al_0.01_)_Î£=3_O_8_
##PIN_ID=L00158
##ORIENTATION=Laser parallel to b* (0 1 0). Fiducial mark perpendicular to laser is parallel to c [0 0 1]
112.864, 0.000
114.254, 26.940
115.644, 42.773
117.034, 308.101
118.424, 540.116
119.813, 1202.101
121.203, 1892.744
122.592, 2711.033
123.981, 3501.779
125.369, 3942.501
126.758, 4098.471
128.146, 3949.477
129.534, 3895.671
130.922, 3419.070
132.309, 3366.690
133.696, 3399.576
135.083, 4188.439
136.470, 4931.430
137.857, 6203.338
139.243, 7398.836
140.630, 8803.202
142.016, 10000.090
143.401, 11560.994
144.787, 13233.163
146.172, 15036.312
147.557, 16749.004
148.942, 18126.926
150.327, 19240.629
151.711, 19895.570
153.096, 20672.199
154.480, 20767.930
155.863, 20584.045
157.247, 19927.830
158.630, 18597.543
160.013, 16783.389
161.396, 14423.580
162.779, 11725.519
164.161, 9460.048
165.544, 7525.595
166.926, 6120.298
168.308, 4925.902
169.689, 4454.096
171.070, 4195.388
172.452, 4199.646
173.833, 4426.193
175.213, 4627.038
176.594, 4590.593
177.974, 4519.200
179.354, 4440.841
180.734, 4087.163
182.114, 3547.817
183.493, 3084.928
184.872, 2676.199
186.251, 2285.556
187.630, 2075.988
189.008, 1978.495
190.387, 2204.087
191.765, 2354.465
193.143, 2914.683
194.520, 3393.225
195.898, 3875.803
197.275, 4158.520
198.652, 4067.507
200.029, 3799.814
201.405, 3149.465
202.782, 2532.461
204.158, 1912.799
205.534, 1501.465
206.909, 1001.441
208.285, 662.712
209.660, 510.257
211.035, 208.051
212.410, 140.070
213.784, 71.219
215.159, 165.546
216.533, 235.082
217.907, 251.452
219.281, 260.688
220.654, 334.805
222.027, 277.824
223.400, 283.791
224.773, 263.740
226.146, 294.707
227.518, 288.888
228.891, 316.727
230.263, 282.441
231.634, 253.592
233.006, 218.833
234.377, 177.110
235.748, 181.420
237.119, 244.761
238.490, 26.131
239.860, 13.471
241.231, 256.045
242.601, 264.593
243.970, 595.115
245.340, 862.586
246.709, 1297.784
248.079, 2063.671
249.448, 2882.821
250.816, 4162.119
252.185, 5486.812
253.553, 6755.186
254.921, 7982.463
256.289, 8656.077
257.657, 9032.344
259.024, 8925.422
260.391, 8619.512
261.758, 8445.651
263.125, 8579.844
264.492, 8427.089
265.858, 7997.381
267.224, 7532.787
268.590, 6635.834
269.956, 6182.712
271.321, 5655.092
272.687, 5580.752
274.052, 5860.438
275.416, 6978.338
276.781, 8421.419
278.146, 10458.729
279.510, 13278.222
280.874, 16146.202
282.237, 18587.465
283.601, 19720.666
284.964, 19621.564
286.327, 18928.979
287.690, 16447.771
289.053, 13662.839
290.416, 11245.116
291.778, 8937.544
293.140, 7501.039
294.502, 5986.547
295.863, 5189.023
297.225, 4487.441
298.586, 3803.782
299.947, 3288.036
301.308, 2557.196
302.668, 2094.255
304.029, 1706.168
305.389, 1443.871
306.749, 1070.316
308.108, 981.474
309.468, 745.328
310.827, 583.901
312.186, 435.219
313.545, 372.435
314.903, 463.149
316.262, 385.799
317.620, 466.255
318.978, 598.532
320.336, 621.645
321.693, 716.601
323.051, 1134.411
324.408, 1536.082
325.765, 2254.622
327.121, 3468.977
328.478, 4145.779
329.834, 3815.850
331.190, 3696.143
332.546, 3281.723
333.902, 2821.624
335.257, 2094.846
336.612, 1533.469
337.967, 1229.619
339.322, 767.295
340.677, 678.797
342.031, 515.299
343.385, 413.814
344.739, 450.342
346.093, 407.693
347.446, 373.423
348.799, 565.971
350.153, 708.527
351.505, 979.093
352.858, 1085.667
354.210, 1259.249
355.563, 1275.837
356.915, 1328.425
358.267, 1256.012
359.618, 1112.613
360.969, 1182.215
362.321, 1110.814
363.672, 1189.434
365.022, 1543.183
366.373, 1700.696
367.723, 2361.322
369.073, 2865.950
370.423, 3252.600
371.773, 3233.266
373.122, 3065.917
374.471, 2766.351
375.821, 1960.838
377.169, 1588.537
378.518, 1079.337
379.866, 786.848
381.215, 514.350
382.563, 344.322
383.910, 291.648
385.258, 179.557
386.605, 167.087
387.952, 22.890
389.299, 69.727
390.646, 89.921
391.992, 181.354
393.339, 283.934
394.685, 484.318
396.031, 1323.891
397.376, 1502.088
398.722, 2171.022
400.067, 2675.987
401.412, 3207.682
402.757, 3432.869
404.101, 3085.531
405.446, 2486.225
406.790, 1910.578
408.134, 1515.917
409.478, 1429.245
410.821, 1092.562
412.165, 971.863
413.508, 967.144
414.851, 682.379
416.193, 320.601
417.536, 147.823
418.878, 78.047
420.220, 166.728
421.562, 227.548
422.904, 125.428
424.245, 151.344
425.586, 174.303
426.927, 115.309
428.268, 224.348
429.609, 152.743
430.949, 23.273
432.289, 37.090
433.629, 20.586
434.969, 164.029
436.309, 153.628
437.648, 247.161
438.987, 384.952
440.326, 510.822
441.665, 721.207
443.003, 1018.010
444.342, 1450.524
445.680, 1985.191
447.018, 2872.596
448.355, 3667.169
449.693, 4781.115
451.030, 5956.227
452.367, 6960.832
453.704, 6943.847
455.041, 6968.311
456.377, 6147.223
457.713, 5513.084
459.049, 4891.895
460.385, 4761.652
461.721, 4940.361
463.056, 5200.021
464.391, 6040.632
465.726, 7694.191
467.061, 9866.702
468.395, 12711.167
469.730, 16763.588
471.064, 20555.955
472.398, 24748.285
473.731, 26693.947
475.065, 27105.285
476.398, 25564.941
477.731, 22692.215
479.064, 19187.770
480.397, 16428.816
481.729, 14223.872
483.062, 12236.885
484.394, 10591.864
485.725, 8900.805
487.057, 7203.709
488.389, 5798.579
489.720, 4654.418
491.051, 4118.227
492.382, 3725.010
493.712, 3622.770
495.043, 3743.510
496.373, 4013.234
497.703, 4646.943
499.032, 5510.641
500.362, 6573.326
501.691, 8524.003
503.020, 10764.162
504.349, 14664.891
505.678, 19334.764
507.007, 25746.457
508.335, 33070.891
509.663, 40352.234
510.991, 46743.852
512.319, 48863.438
513.646, 48321.066
514.973, 41657.836
516.300, 34772.398
517.627, 27102.955
518.954, 20329.178
520.280, 15889.948
521.607, 11841.926
522.933, 9578.768
524.259, 7277.669
525.584, 6024.761
526.910, 4944.816
528.235, 4196.048
529.560, 3556.316
530.885, 2908.407
532.209, 2586.171
533.534, 2356.082
534.858, 2019.981
536.182, 1785.155
537.506, 1769.803
538.829, 1561.652
540.152, 1262.654
541.476, 1206.206
542.799, 954.502
544.121, 904.143
545.444, 1027.061
546.766, 671.355
548.088, 799.710
549.410, 691.666
550.732, 746.457
552.053, 593.493
553.375, 467.965
554.696, 517.769
556.017, 506.660
557.337, 531.634
558.658, 511.848
559.978, 347.835
561.298, 440.003
562.618, 327.201
563.938, 249.604
565.257, 318.779
566.576, 258.947
567.895, 381.255
569.214, 346.502
570.533, 241.691
571.851, 357.466
573.170, 458.631
574.488, 321.781
575.805, 493.916
577.123, 478.699
578.440, 736.177
579.758, 1153.050
581.075, 1000.108
582.391, 829.569
583.708, 649.399
585.024, 428.785
586.341, 328.874
587.657, 219.222
588.972, 155.977
590.288, 138.095
591.603, 87.138
592.918, 116.294
594.233, 75.701
595.548, 91.776
596.863, 31.774
598.177, 10.760
599.491, 15.273
600.805, 19.671
602.119, 61.400
603.432, 36.485
604.746, 90.355
606.059, 39.212
607.372, 6.947
608.685, 188.873
609.997, 64.318
611.309, 148.443
612.621, 10.194
613.933, 143.930
615.245, 157.653
616.557, 193.365
617.868, 371.066
619.179, 356.756
620.490, 445.435
621.801, 545.102
623.111, 609.760
624.421, 944.405
625.731, 884.041
627.041, 1292.666
628.351, 1098.279
629.660, 1047.995
630.970, 1286.589
632.279, 961.695
633.588, 1126.275
634.896, 958.977
636.205, 1270.543
637.513, 1123.119
638.821, 1194.850
640.129, 1525.452
641.437, 1677.047
642.744, 1701.567
644.051, 2037.078
645.358, 2241.579
646.665, 2474.072
647.972, 2684.553
649.278, 2898.025
650.584, 2866.490
651.890, 2934.943
653.196, 2680.388
654.502, 2610.823
655.807, 2082.248
657.113, 1852.663
658.418, 1715.068
659.722, 1343.466
661.027, 1210.854
662.331, 822.237
663.636, 831.613
664.940, 488.983
666.244, 472.349
667.547, 184.705
668.851, 375.052
670.154, 149.389
671.457, 110.714
672.760, 225.028
674.062, 186.332
675.365, 42.375
676.667, 103.872
677.969, 53.156
679.271, 67.247
680.572, 36.027
681.874, 22.866
683.175, 26.217
684.476, 24.541
685.777, 104.513
687.077, 85.563
688.378, 86.433
689.678, 145.949
690.978, 18.076
692.278, 292.974
693.577, 122.087
694.877, 189.904
696.176, 79.170
697.475, 103.412
698.774, 109.434
700.072, 40.562
701.371, 65.294
702.669, 30.300
703.967, 226.229
705.265, 310.812
706.562, 231.330
707.860, 139.910
709.157, 451.342
710.454, 321.881
711.751, 482.381
713.047, 287.740
714.344, 453.705
715.640, 200.277
716.936, 245.768
718.232, 366.746
719.527, 152.989
720.823, 230.368
722.118, 231.569
723.413, 188.544
724.708, 199.909
726.002, 236.790
727.297, 75.831
728.591, 330.983
729.885, 400.092
731.179, 250.239
732.472, 383.257
733.766, 473.371
735.059, 453.506
736.352, 662.952
737.645, 925.880
738.937, 1101.185
740.230, 1141.501
741.522, 1540.767
742.814, 1982.371
744.106, 2596.348
745.397, 3151.254
746.689, 3510.402
747.980, 3917.596
749.271, 4059.860
750.562, 3866.562
751.853, 3139.527
753.143, 2762.241
754.433, 2302.598
755.723, 1703.400
757.013, 1679.970
758.303, 1253.732
759.592, 1248.084
760.881, 1083.739
762.170, 1155.051
763.459, 1103.925
764.748, 954.693
766.036, 997.719
767.325, 1073.475
768.613, 912.534
769.901, 851.380
771.188, 702.896
772.476, 748.389
773.763, 376.857
775.050, 524.303
776.337, 343.724
777.624, 487.123
778.910, 321.497
780.196, 263.850
781.482, 336.177
782.768, 276.483
784.054, 204.765
785.339, 234.023
786.625, 107.257
787.910, 276.464
789.195, 200.647
790.479, 235.806
791.764, 226.940
793.048, 188.052
794.332, 216.140
795.616, 215.544
796.900, 286.243
798.183, 265.260
799.467, 333.253
800.750, 387.223
802.033, 418.274
803.316, 610.198
804.598, 558.100
805.880, 966.977
807.163, 1604.830
808.445, 1314.661
809.726, 1646.470
811.008, 1961.256
812.289, 2047.018
813.570, 2298.757
814.851, 2127.475
816.132, 1683.168
817.413, 1259.839
818.693, 1244.488
819.973, 874.114
821.253, 619.718
822.533, 649.297
823.813, 361.855
825.092, 291.360
826.371, 365.678
827.650, 319.170
828.929, 287.638
830.208, 240.411
831.486, 209.931
832.764, 131.553
834.042, 202.603
835.320, 203.561
836.598, 326.294
837.875, 169.033
839.152, 221.562
840.429, 240.022
841.706, 167.628
842.983, 43.527
844.259, 159.244
845.536, 93.944
846.812, 42.350
848.088, 51.301
849.363, 19.900
850.639, 145.801
851.914, 17.882
853.189, 106.329
854.464, 36.058
855.739, 110.528
857.013, 68.199
858.288, 37.341
859.562, 84.526
860.836, 52.217
862.110, 84.267
863.383, 52.389
864.656, 22.974
865.930, 37.372
867.203, 31.816
868.475, 21.700
869.748, 35.240
871.020, 34.330
872.292, 82.108
873.564, 43.316
874.836, 6.276
876.108, 164.897
877.379, 27.266
878.650, 69.541
879.922, 91.659
881.192, 9.755
882.463, 61.404
883.733, 45.550
885.004, 60.320
886.274, 40.759
887.544, 29.824
888.813, 37.126
890.083, 93.888
891.352, 6.887
892.621, 8.870
893.890, 16.161
895.159, 88.220
896.427, 10.340
897.695, 45.393
898.964, 64.337
900.232, 16.145
901.499, 21.938
902.767, 143.716
904.034, 54.483
905.301, 47.239
906.568, 103.999
907.835, 189.750
909.102, 47.495
910.368, 55.229
911.634, 226.964
912.900, 75.689
914.166, 261.404
915.432, 108.107
916.697, 64.805
917.962, 277.492
919.227, 64.186
920.492, 244.870
921.757, 19.545
923.021, 106.209
924.285, 255.866
925.550, 230.513
926.813, 204.153
928.077, 229.786
929.341, 185.407
930.604, 321.022
931.867, 132.635
933.130, 252.240
934.393, 287.834
935.655, 101.421
936.918, 307.889
938.180, 128.461
939.442, 198.506
940.703, 162.062
941.965, 259.480
943.226, 97.017
944.488, 139.528
945.749, 355.867
947.009, 171.316
948.270, 242.755
949.530, 293.253
950.791, 177.740
952.051, 164.224
953.311, 42.700
954.570, 320.169
955.830, 282.634
957.089, 268.092
958.348, 168.541
959.607, 297.986
960.866, 178.427
962.124, 317.895
963.383, 334.356
964.641, 256.811
965.899, 380.276
967.156, 263.738
968.414, 259.194
969.671, 376.644
970.928, 480.103
972.185, 468.116
973.442, 399.007
974.699, 468.457
975.955, 498.918
977.211, 471.390
978.468, 601.857
979.723, 588.323
980.979, 386.784
982.234, 765.259
983.490, 377.700
984.745, 850.812
986.000, 742.285
987.254, 732.815
988.509, 1241.398
989.763, 1190.805
991.017, 1523.396
992.271, 1769.018
993.525, 1793.562
994.779, 2051.467
996.032, 2173.078
997.285, 2222.434
998.538, 1870.732
999.791, 2294.089
1001.044, 1977.307
1002.296, 2378.164
1003.548, 2142.541
1004.800, 2056.637
1006.052, 1966.117
1007.304, 1762.912
1008.555, 1651.559
1009.807, 1367.160
1011.058, 1157.820
1012.309, 1145.438
1013.559, 1070.184
1014.810, 966.807
1016.060, 902.232
1017.310, 957.221
1018.560, 713.365
1019.810, 995.879
1021.060, 942.486
1022.309, 893.580
1023.558, 1137.391
1024.807, 998.059
1026.056, 1256.938
1027.305, 1433.984
1028.553, 1620.613
1029.801, 1565.119
1031.049, 1488.066
1032.297, 1461.881
1033.545, 1486.324
1034.793, 1455.496
1036.040, 1633.410
1037.287, 1656.223
1038.534, 1848.123
1039.781, 1974.607
1041.027, 1734.920
1042.274, 1620.609
1043.520, 1694.318
1044.766, 1573.107
1046.012, 1446.045
1047.257, 1543.330
1048.503, 1876.932
1049.748, 1746.404
1050.993, 2113.691
1052.238, 1924.498
1053.483, 1806.178
1054.727, 1728.131
1055.971, 1531.035
1057.216, 1262.303
1058.459, 1128.658
1059.703, 1041.602
1060.947, 855.277
1062.190, 759.748
1063.433, 607.816
1064.676, 550.980
1065.919, 462.266
1067.162, 377.531
1068.404, 385.051
1069.646, 313.656
1070.888, 382.158
1072.130, 519.066
1073.372, 437.035
1074.613, 438.549
1075.855, 436.201
1077.096, 386.141
1078.337, 399.090
1079.578, 328.961
1080.818, 445.963
1082.059, 389.457
1083.299, 520.580
1084.539, 466.160
1085.779, 493.520
1087.018, 545.066
1088.258, 536.955
1089.497, 627.324
1090.736, 715.432
1091.975, 796.535
1093.213, 875.184
1094.452, 1059.738
1095.690, 1000.891
1096.928, 1193.426
1098.166, 1217.789
1099.404, 1327.857
1100.642, 1171.639
1101.879, 1373.248
1103.116, 1331.758
1104.353, 1474.617
1105.590, 1378.668
1106.827, 1649.025
1108.063, 1667.855
1109.299, 1822.551
1110.536, 1991.658
1111.771, 2285.033
1113.007, 2546.303
1114.243, 3054.293
1115.478, 3454.455
1116.713, 4185.436
1117.948, 5159.877
1119.183, 5906.344
1120.418, 7271.910
1121.652, 8674.117
1122.886, 9681.176
1124.120, 10154.117
1125.354, 9622.031
1126.588, 9039.572
1127.821, 8122.438
1129.055, 7407.068
1130.288, 6838.453
1131.521, 6149.100
1132.753, 5669.445
1133.986, 5601.275
1135.218, 6109.613
1136.450, 5944.111
1137.682, 6527.658
1138.914, 6159.984
1140.146, 5806.115
1141.377, 5423.316
1142.609, 4745.215
1143.840, 4223.773
1145.071, 3648.229
1146.301, 2968.371
1147.532, 2612.715
1148.762, 2145.121
1149.992, 1741.521
1151.222, 1483.838
1152.452, 1407.859
1153.682, 1057.154
1154.911, 1103.715
1156.140, 794.926
1157.369, 784.691
1158.598, 635.248
1159.827, 698.016
1161.055, 484.686
1162.284, 565.820
1163.512, 597.174
1164.740, 409.346
1165.967, 457.443
1167.195, 357.871
1168.422, 327.346
1169.650, 289.613
1170.877, 133.518
1172.103, 266.814
1173.330, 124.273
1174.557, 287.430
1175.783, 342.096
1177.009, 57.121
1178.235, 248.500
1179.461, 174.066
1180.686, 225.016
1181.912, 190.191
1183.137, 314.441
1184.362, 190.004
1185.587, 135.750
1186.811, 203.457
1188.036, 107.041
1189.260, 246.850
1190.484, 229.607
1191.708, 307.582
1192.932, 64.189
1194.155, 143.115
1195.378, 90.508
1196.602, 60.547
1197.825, 63.129
1199.047, 196.010
1200.270, 66.074
1201.492, 329.223
1202.715, 70.445
1203.937, 168.027
1205.159, 150.885
1206.380, 285.170
1207.602, 290.355
1208.823, 308.246
1210.044, 211.129
1211.265, 281.906
1212.486, 172.666
1213.707, 67.391
1214.927, 197.180
1216.147, 68.215
1217.367, 267.832
1218.587, 109.459
1219.807, 14.016
1221.027, 124.852
1222.246, 92.336
1223.465, 23.785
1224.684, 204.199
1225.903, 99.410
1227.121, 24.248
1228.340, 134.068
1229.558, 265.395
1230.776, 114.721
1231.994, 73.908
1233.212, 92.750
1234.429, 166.275
1235.646, 168.010
1236.864, 260.111
1238.081, 256.830
1239.297, 250.414
1240.514, 231.387
1241.730, 221.340
1242.947, 129.277
1244.163, 171.176
1245.378, 265.193
1246.594, 71.041
1247.810, 112.123
1249.025, 111.230
1250.240, 52.939
1251.455, 245.760
1252.670, 172.391
1253.885, 58.969
1255.099, 90.500
1256.313, 108.006
1257.527, 166.402
1258.741, 190.752
1259.955, 40.967
1261.168, 17.574
1262.382, 272.754
1263.595, 146.873
1264.808, 30.875
1266.021, 114.133
1267.233, 16.402
1268.446, 30.312
1269.658, 36.826
1270.870, 36.021
1272.082, 114.689
1273.294, 52.547
1274.505, 89.959
1275.716, 147.486
1276.928, 46.018
1278.139, 153.355
1279.349, 64.316
1280.560, 88.109
1281.770, 111.020
1282.981, 96.041
1284.191, 146.004
1285.401, 189.916
1286.610, 21.227
1287.820, 40.760
1289.029, 42.492
1290.239, 101.174
1291.448, 21.795
1292.656, 38.639
1293.865, 103.859
1295.073, 105.307
1296.282, 121.305
1297.490, 32.922
1298.698, 127.385
1299.906, 74.643
1301.113, 18.855
1302.320, 50.012
1303.528, 75.123
1304.735, 74.818
1305.942, 61.158
1307.148, 160.088
1308.355, 4.037
1309.561, 144.775
1310.767, 30.541
1311.973, 81.250
1313.179, 85.086
1314.384, 110.494
1315.590, 37.020
1316.795, 18.512
1318.000, 37.104
1319.205, 121.191
1320.410, 54.479
1321.614, 109.289
1322.819, 84.477
1324.023, 59.566
1325.227, 160.600
1326.431, 0.418
1327.634, 81.494
1328.838, 6.650
1330.041, 190.131
1331.244, 192.734
1332.447, 49.424
1333.650, 158.801
1334.852, 5.395
1336.055, 106.934
1337.257, 190.430
1338.459, 112.406
1339.661, 233.664
1340.862, 91.654
1342.064, 7.465
1343.265, 103.225
1344.466, 292.441
1345.667, 65.113
1346.868, 207.246
1348.068, 155.361
1349.269, 82.311
1350.469, 185.141
1351.669, 164.107
1352.869, 308.037
1354.069, 417.930
1355.268, 367.436
1356.468, 282.445
1357.667, 282.107
1358.866, 258.293
1360.065, 192.979
1361.263, 301.088
1362.462, 272.742
1363.660, 326.977
1364.858, 52.084
1366.056, 283.340
1367.254, 488.986
1368.451, 372.553
1369.649, 99.787
1370.846, 383.527
1372.043, 75.844
1373.240, 263.045
1374.436, 255.012
1375.633, 290.625
1376.829, 114.809
1378.025, 177.887
1379.221, 118.070
1380.417, 260.078
1381.613, 206.344
1382.808, 378.543
1384.003, 328.174
1385.199, 299.986
1386.393, 276.717
1387.588, 328.262
1388.783, 246.832
1389.977, 413.117
1391.171, 203.768
1392.365, 184.779
1393.559, 346.049
1394.753, 234.131
1395.946, 400.428
1397.140, 375.943
1398.333, 419.867
1399.526, 338.002
1400.719, 299.877
1401.911, 332.178
1403.104, 500.248
1404.296, 178.367
1405.488, 372.354
1406.680, 271.520
1407.872, 204.193
1409.063, 359.744
1410.255, 169.148
1411.446, 319.820
1412.637, 289.541
1413.828, 371.713
1415.018, 423.686
1416.209, 296.941
1417.399, 285.713
1418.589, 387.084
1419.779, 211.410
1420.969, 327.305
1422.159, 275.615
1423.348, 253.490
1424.537, 360.719
1425.726, 347.625
1426.915, 336.561
1428.104, 346.191
1429.293, 304.607
1430.481, 125.748
1431.669, 359.102
1432.857, 339.566
1434.045, 282.928
1435.233, 431.119
1436.420, 557.176
1437.608, 431.059
1438.795, 274.344
1439.982, 304.482
1441.169, 469.355
1442.355, 392.680
1443.542, 409.508
1444.728, 375.926
1445.914, 378.631
1447.100, 327.701
1448.286, 448.170
1449.472, 419.658
1450.657, 556.582
1451.842, 488.379
1453.027, 415.834
1454.212, 510.668
1455.397, 300.287
1456.581, 549.418
1457.766, 476.373
1458.950, 332.293
1460.134, 633.461
1461.318, 355.570
1462.501, 293.660
1463.685, 522.064
1464.868, 312.156
1466.051, 744.797
1467.234, 275.043
1468.417, 329.990
1469.600, 483.041
1470.782, 577.135
1471.965, 268.342
1473.147, 323.809
1474.329, 549.553
1475.510, 239.535
1476.692, 342.990
1477.873, 423.055
1479.055, 360.166
1480.236, 529.312
1481.416, 151.404
1482.597, 417.443
1483.778, 230.469
1484.958, 244.502
1486.138, 331.590
1487.318, 250.500
1488.498, 238.951
1489.678, 290.188
1490.857, 306.545
1492.037, 408.988
1493.216, 375.543
1494.395, 199.234
1495.574, 329.100
1496.752, 49.881
1497.931, 308.291
1499.109, 99.590
1500.287, 239.023
1501.465, 124.582
1502.643, 204.285
1503.820, 101.168
1504.998, 90.252
1506.175, 33.568
1507.352, 85.146
1508.529, 19.008
1509.706, 57.428
1510.882, 125.312
1512.059, 151.484
1513.235, 228.564
1514.411, 1.703
1515.587, 245.830
1516.762, 4.545
1517.938, 51.547
1519.113, 186.762
1520.288, 249.727
1521.463, 0.000
##END=



