##NAMES=Microcline
##RRUFFID=R050193
##IDEAL CHEMISTRY=KAlSi_3_O_8_
##LOCALITY=Devil's Head, Douglas County, Colorado, USA
##OWNER=RRUFF
##SOURCE=Dave Bunk Minerals
##DESCRIPTION=White to colorless heterogeneous mixture of K and Na feldspar in a cluster of crystals. Crystal structure determined, presented below. This sample is known as an intermediate microcline in the literature.
##STATUS=The identification of this mineral has been confirmed by X-ray diffraction and chemical analysis
##URL=rruff.info/R050193
##MEASURED CHEMISTRY=(K_0.929_Na_0.071_)(Al_1.005_Si_2.994_Fe_0.001_)O_7.993_F_0.007_  ; Light Band :  (Na_0.973_K_0.007_Ca_0.020_)(Al_1.020_Si_2.980_)O_8_ ; Dark Band
##PIN_ID=L00937
##ORIENTATION=Laser parallel to (1 1 0). Fiducial mark perpendicular to laser is parallel to c [0 0 1]
136.4230, 0.0000000E+00
137.6560, 4.804688
138.8880, 3.945313
140.1200, 452.8203
141.3520, 542.0312
142.5830, 1040.617
143.8150, 1095.805
145.0460, 1817.164
146.2770, 2301.891
147.5080, 3136.250
148.7390, 3970.523
149.9700, 4442.891
151.2000, 4999.570
152.4310, 5506.859
153.6610, 5964.852
154.8910, 6217.789
156.1210, 6737.992
157.3500, 7151.875
158.5800, 7096.391
159.8090, 6982.336
161.0380, 6668.781
162.2670, 6403.250
163.4960, 5959.719
164.7240, 4964.133
165.9530, 4092.289
167.1810, 2780.828
168.4090, 3041.359
169.6370, 2077.469
170.8650, 2121.484
172.0920, 1736.703
173.3200, 1715.383
174.5470, 2051.758
175.7740, 1831.062
177.0010, 1971.539
178.2280, 2105.039
179.4540, 2539.828
180.6810, 2892.125
181.9070, 2644.125
183.1330, 2951.469
184.3590, 2978.648
185.5850, 3329.586
186.8100, 2979.133
188.0350, 3281.922
189.2610, 2939.891
190.4860, 2803.477
191.7110, 2709.469
192.9350, 2227.156
194.1600, 2815.094
195.3840, 2711.102
196.6080, 3524.133
197.8320, 3450.156
199.0560, 3806.133
200.2800, 3740.867
201.5030, 3536.906
202.7270, 3535.727
203.9500, 3427.328
205.1730, 3379.727
206.3950, 3106.930
207.6180, 2991.961
208.8410, 2699.812
210.0630, 2521.562
211.2850, 2179.445
212.5070, 1816.555
213.7290, 1368.930
214.9500, 880.5547
216.1720, 859.4375
217.3930, 603.5859
218.6140, 223.9531
219.8350, 47.54688
221.0560, 255.6641
222.2770, 280.6953
223.4970, 685.5703
224.7170, 154.6328
225.9370, 39.41406
227.1570, 99.98438
228.3770, 210.5156
229.5970, 385.9375
230.8160, 137.2969
232.0350, 102.3750
233.2540, 307.9688
234.4730, 357.3516
235.6920, 61.82031
236.9110, 275.3594
238.1290, 170.2109
239.3470, 52.47656
240.5650, 330.5547
241.7830, 434.8438
243.0010, 432.4688
244.2180, 858.8906
245.4360, 1012.312
246.6530, 1260.000
247.8700, 1793.656
249.0870, 2152.719
250.3040, 2391.406
251.5200, 3228.203
252.7370, 3455.188
253.9530, 3554.336
255.1690, 4192.156
256.3850, 4290.453
257.6000, 4954.375
258.8160, 5401.391
260.0310, 5551.977
261.2460, 6637.516
262.4610, 7242.570
263.6760, 8125.258
264.8910, 8592.094
266.1050, 9945.695
267.3200, 10651.63
268.5340, 10671.80
269.7480, 10714.99
270.9620, 10807.23
272.1750, 11025.50
273.3890, 11033.80
274.6020, 11371.12
275.8150, 12570.48
277.0280, 12644.86
278.2410, 13808.28
279.4540, 15292.73
280.6660, 15690.23
281.8790, 16621.97
283.0910, 17204.82
284.3030, 16834.25
285.5140, 17012.86
286.7260, 15690.14
287.9380, 15100.94
289.1490, 14367.71
290.3600, 13323.22
291.5710, 12459.95
292.7820, 10976.85
293.9920, 9521.836
295.2030, 8125.859
296.4130, 6644.844
297.6230, 5362.742
298.8330, 3993.555
300.0430, 3111.258
301.2520, 3221.836
302.4620, 1694.289
303.6710, 2064.609
304.8800, 1572.719
306.0890, 1556.578
307.2980, 1093.133
308.5070, 878.3750
309.7150, 1270.312
310.9230, 811.9766
312.1310, 540.3984
313.3390, 625.5703
314.5470, 393.5234
315.7550, 675.2812
316.9620, 716.8516
318.1690, 700.2578
319.3760, 520.4766
320.5830, 759.5547
321.7900, 944.4844
322.9960, 778.2734
324.2030, 836.7969
325.4090, 1339.438
326.6150, 1441.953
327.8210, 1467.016
329.0270, 1712.266
330.2320, 1977.188
331.4380, 1585.320
332.6430, 1467.961
333.8480, 1177.203
335.0530, 1212.453
336.2580, 838.7109
337.4620, 542.9688
338.6670, 266.2266
339.8710, 395.4688
341.0750, 365.6953
342.2790, 530.9141
343.4820, 490.6797
344.6860, 48.65625
345.8890, 440.4766
347.0920, 36.57812
348.2960, 32.36719
349.4980, 437.5938
350.7010, 164.5547
351.9040, 472.4766
353.1060, 104.3750
354.3080, 289.2500
355.5100, 201.0938
356.7120, 25.07812
357.9140, 673.6797
359.1150, 467.4062
360.3170, 106.1250
361.5180, 282.8125
362.7190, 691.4688
363.9200, 598.2109
365.1200, 1070.008
366.3210, 758.0312
367.5210, 906.5234
368.7210, 1085.664
369.9210, 1142.172
371.1210, 1138.938
372.3210, 1026.930
373.5200, 1133.023
374.7200, 527.1406
375.9190, 746.8906
377.1180, 907.6562
378.3170, 348.7500
379.5150, 197.7812
380.7140, 67.38281
381.9120, 308.3906
383.1110, 283.6406
384.3090, 365.5625
385.5060, 480.9453
386.7040, 294.2500
387.9020, 364.8438
389.0990, 58.50781
390.2960, 153.2578
391.4930, 167.9375
392.6900, 199.1328
393.8860, 441.2969
395.0830, 128.4688
396.2790, 428.6406
397.4750, 499.8125
398.6710, 1299.000
399.8670, 1369.195
401.0630, 2070.406
402.2580, 1988.625
403.4540, 2207.859
404.6490, 2111.109
405.8440, 2751.203
407.0390, 3251.117
408.2330, 3243.000
409.4280, 3013.859
410.6220, 3398.797
411.8160, 2608.773
413.0100, 1999.875
414.2040, 2211.070
415.3980, 1953.469
416.5910, 1836.953
417.7850, 1787.453
418.9780, 1210.984
420.1710, 1181.594
421.3640, 555.2812
422.5560, 476.1328
423.7490, 438.0000
424.9410, 220.8984
426.1330, 517.8125
427.3250, 260.5312
428.5170, 98.60156
429.7090, 9.539063
430.9000, 234.2812
432.0910, 117.0547
433.2820, 439.7891
434.4730, 690.4766
435.6640, 890.1172
436.8550, 1335.711
438.0450, 1227.258
439.2360, 1692.750
440.4260, 2148.195
441.6160, 2914.594
442.8060, 3597.938
443.9950, 4162.250
445.1850, 5300.500
446.3740, 6365.703
447.5630, 7904.867
448.7520, 8795.984
449.9410, 10546.05
451.1300, 12592.07
452.3180, 13854.05
453.5060, 14992.99
454.6950, 15995.89
455.8830, 16265.34
457.0700, 15915.09
458.2580, 15371.80
459.4450, 14584.78
460.6330, 14028.65
461.8200, 14111.34
463.0070, 13958.67
464.1940, 14452.29
465.3800, 15676.86
466.5670, 17548.58
467.7530, 18880.09
468.9390, 21760.56
470.1250, 25274.03
471.3110, 31470.47
472.4970, 36266.90
473.6820, 41091.42
474.8680, 46292.61
476.0530, 49273.94
477.2380, 50643.95
478.4230, 49073.62
479.6070, 45601.98
480.7920, 40900.77
481.9760, 35640.02
483.1600, 29882.18
484.3440, 25474.21
485.5280, 21523.48
486.7120, 18132.03
487.8950, 16104.00
489.0780, 13532.32
490.2620, 12540.68
491.4450, 11979.89
492.6270, 11012.19
493.8100, 10984.90
494.9920, 11115.34
496.1750, 11467.23
497.3570, 13192.82
498.5390, 14821.45
499.7210, 17207.64
500.9020, 20689.86
502.0840, 24959.27
503.2650, 29782.59
504.4460, 37732.18
505.6270, 43455.36
506.8080, 51253.30
507.9890, 59068.53
509.1690, 66877.83
510.3500, 73358.27
511.5300, 80012.92
512.7100, 83687.64
513.8900, 83667.40
515.0690, 78955.25
516.2490, 70625.17
517.4280, 59549.23
518.6070, 48620.38
519.7860, 39215.52
520.9650, 31503.53
522.1440, 24483.16
523.3220, 20367.34
524.5010, 16470.98
525.6790, 13868.66
526.8570, 11887.71
528.0350, 9718.094
529.2130, 8373.523
530.3900, 6967.109
531.5670, 6297.570
532.7450, 5742.836
533.9220, 4825.266
535.0980, 4030.492
536.2750, 4221.273
537.4520, 3759.914
538.6280, 3397.906
539.8040, 3002.055
540.9800, 2990.258
542.1560, 2619.281
543.3320, 2275.141
544.5070, 2509.633
545.6830, 2181.141
546.8580, 1373.086
548.0330, 2193.836
549.2080, 1204.539
550.3830, 1379.953
551.5570, 1473.672
552.7310, 1289.969
553.9060, 952.5312
555.0800, 1473.164
556.2540, 1142.617
557.4270, 573.4219
558.6010, 1012.633
559.7740, 754.0781
560.9470, 995.0078
562.1210, 689.7109
563.2930, 800.8984
564.4660, 912.6016
565.6390, 782.5781
566.8110, 818.0547
567.9830, 671.6797
569.1550, 933.7031
570.3270, 724.0703
571.4990, 1140.953
572.6710, 1258.680
573.8420, 1381.547
575.0130, 1311.328
576.1840, 1084.508
577.3550, 1458.656
578.5260, 1197.812
579.6970, 1828.328
580.8670, 1599.438
582.0370, 1739.523
583.2070, 1963.594
584.3770, 1524.625
585.5470, 1371.633
586.7170, 1395.617
587.8860, 1188.578
589.0550, 1086.367
590.2240, 680.4609
591.3930, 716.3984
592.5620, 867.3281
593.7310, 534.2188
594.8990, 941.0938
596.0670, 931.9375
597.2350, 821.7734
598.4030, 574.5703
599.5710, 400.3594
600.7390, 418.1328
601.9060, 785.8750
603.0740, 152.5859
604.2410, 568.2578
605.4080, 603.9141
606.5740, 429.5391
607.7410, 563.2656
608.9080, 896.9688
610.0740, 790.6406
611.2400, 916.2812
612.4060, 563.8984
613.5720, 462.4922
614.7370, 302.0547
615.9030, 273.5938
617.0680, 345.8672
618.2330, 431.7656
619.3980, 544.2969
620.5630, 817.8203
621.7280, 793.3594
622.8920, 568.9141
624.0570, 1088.445
625.2210, 391.9375
626.3850, 1195.398
627.5490, 1303.836
628.7120, 981.3672
629.8760, 1509.875
631.0390, 1008.383
632.2020, 1196.023
633.3650, 1114.711
634.5280, 1519.438
635.6910, 835.1719
636.8530, 936.8984
638.0160, 599.5938
639.1780, 1202.250
640.3400, 1320.938
641.5020, 1582.562
642.6640, 1175.164
643.8250, 1378.750
644.9870, 1247.305
646.1480, 1274.922
647.3090, 1196.297
648.4700, 1451.727
649.6300, 1378.125
650.7910, 1467.469
651.9510, 1469.766
653.1120, 1497.023
654.2720, 1280.328
655.4320, 1272.492
656.5910, 1069.492
657.7510, 875.5547
658.9100, 921.6562
660.0690, 867.5078
661.2290, 1032.414
662.3880, 770.2578
663.5460, 971.0859
664.7050, 458.9375
665.8630, 835.8125
667.0220, 556.7422
668.1800, 501.7422
669.3380, 388.7578
670.4950, 430.8203
671.6530, 104.8750
672.8100, 288.1094
673.9680, 223.6641
675.1250, 57.64062
676.2820, 69.92188
677.4390, 393.4141
678.5950, 10.17969
679.7520, 111.1484
680.9080, 157.3828
682.0640, 28.51562
683.2200, 73.56250
684.3760, 357.4844
685.5320, 123.8359
686.6870, 71.37500
687.8420, 276.0703
688.9980, 97.96875
690.1530, 146.0938
691.3070, 26.35938
692.4620, 363.7656
693.6170, 172.4688
694.7710, 614.5938
695.9250, 156.8672
697.0790, 133.5312
698.2330, 28.94531
699.3870, 124.5000
700.5400, 183.6328
701.6940, 423.6641
702.8470, 45.78125
704.0000, 180.1562
705.1530, 491.7344
706.3050, 260.2031
707.4580, 395.6016
708.6100, 388.1016
709.7630, 350.1953
710.9150, 671.2734
712.0660, 755.5938
713.2180, 684.1172
714.3700, 831.6641
715.5210, 1458.062
716.6720, 925.9141
717.8240, 738.3281
718.9740, 1324.844
720.1250, 1166.586
721.2760, 1194.117
722.4260, 1472.547
723.5770, 1418.828
724.7270, 1527.242
725.8770, 859.2578
727.0260, 1430.984
728.1760, 1441.656
729.3250, 981.4375
730.4750, 1188.133
731.6240, 1607.633
732.7730, 1852.641
733.9220, 2045.555
735.0700, 2146.352
736.2190, 2461.844
737.3670, 2649.461
738.5150, 3016.703
739.6630, 3359.000
740.8110, 3327.844
741.9590, 3796.031
743.1060, 4004.320
744.2540, 4648.688
745.4010, 4594.977
746.5480, 5063.359
747.6950, 5285.164
748.8410, 5090.180
749.9880, 5032.242
751.1340, 5507.664
752.2800, 5428.273
753.4260, 5281.992
754.5720, 5383.961
755.7180, 5470.562
756.8640, 5458.711
758.0090, 5327.320
759.1540, 5505.891
760.2990, 5512.734
761.4440, 5359.336
762.5890, 4585.891
763.7340, 4611.961
764.8780, 4318.266
766.0220, 4025.141
767.1660, 4164.945
768.3100, 3482.078
769.4540, 3636.367
770.5980, 3460.664
771.7410, 3428.531
772.8840, 3070.234
774.0280, 2828.578
775.1700, 2528.492
776.3130, 2531.914
777.4560, 2573.578
778.5980, 2361.383
779.7410, 2336.172
780.8830, 1741.516
782.0250, 1748.258
783.1670, 1711.320
784.3080, 1798.914
785.4500, 1736.383
786.5910, 1677.375
787.7320, 1689.156
788.8730, 1690.383
790.0140, 1711.797
791.1550, 1946.891
792.2950, 1857.047
793.4360, 1443.953
794.5760, 2292.711
795.7160, 1732.578
796.8560, 2083.227
797.9960, 1949.195
799.1350, 2196.844
800.2750, 1790.266
801.4140, 2261.000
802.5530, 1930.586
803.6920, 2650.641
804.8310, 2401.938
805.9690, 2279.156
807.1080, 3117.391
808.2460, 3921.961
809.3840, 3914.656
810.5220, 4683.961
811.6600, 4513.625
812.7970, 4792.711
813.9350, 5120.000
815.0720, 4798.266
816.2090, 4536.359
817.3460, 3853.570
818.4830, 3637.141
819.6200, 2567.344
820.7560, 2141.414
821.8930, 1798.422
823.0290, 1937.195
824.1650, 1217.477
825.3010, 1343.945
826.4360, 1292.266
827.5720, 1272.938
828.7070, 1497.086
829.8420, 749.3906
830.9770, 787.9219
832.1120, 672.8594
833.2470, 1160.938
834.3820, 662.4219
835.5160, 836.8125
836.6500, 704.7578
837.7840, 849.0938
838.9180, 859.4531
840.0520, 159.3906
841.1860, 533.2734
842.3190, 296.3203
843.4520, 767.2578
844.5850, 717.6250
845.7180, 551.8359
846.8510, 530.7422
847.9840, 689.8672
849.1160, 382.2031
850.2490, 589.1094
851.3810, 606.4531
852.5130, 24.67188
853.6450, 558.7344
854.7760, 508.2656
855.9080, 192.0781
857.0390, 220.7422
858.1700, 700.2656
859.3010, 711.6797
860.4320, 562.9609
861.5630, 825.1328
862.6930, 536.1797
863.8240, 119.8906
864.9540, 90.79688
866.0840, 472.3438
867.2140, 256.7656
868.3440, 587.0547
869.4730, 395.2266
870.6030, 303.2578
871.7320, 164.1641
872.8610, 342.9297
873.9900, 57.57812
875.1190, 572.0781
876.2470, 216.4531
877.3760, 516.6875
878.5040, 175.8203
879.6320, 374.8125
880.7600, 386.3281
881.8880, 199.1641
883.0150, 113.5234
884.1430, 470.7500
885.2700, 433.8438
886.3970, 115.8203
887.5240, 218.6641
888.6510, 78.36719
889.7780, 324.0547
890.9040, 138.1953
892.0310, 272.3125
893.1570, 70.28906
894.2830, 151.8594
895.4090, 28.25781
896.5350, 221.1719
897.6600, 292.4688
898.7860, 225.6484
899.9110, 177.6953
901.0360, 172.3906
902.1610, 87.28125
903.2860, 91.82031
904.4100, 311.7734
905.5350, 242.6953
906.6590, 157.8906
907.7830, 104.0391
908.9070, 399.0312
910.0310, 305.2578
911.1540, 389.3750
912.2780, 536.3828
913.4010, 234.2734
914.5240, 204.0391
915.6470, 277.6875
916.7700, 149.2109
917.8930, 68.61719
919.0150, 119.7891
920.1380, 357.0469
921.2600, 195.0938
922.3820, 217.0234
923.5040, 311.8203
924.6260, 233.4141
925.7470, 279.0078
926.8690, 227.5703
927.9900, 256.7891
929.1110, 256.0234
930.2320, 197.8594
931.3530, 217.8828
932.4730, 103.7812
933.5940, 626.5703
934.7140, 77.53906
935.8340, 300.0312
936.9540, 332.9688
938.0740, 65.67188
939.1930, 421.5234
940.3130, 108.6250
941.4320, 82.31250
942.5510, 104.4062
943.6700, 192.3359
944.7890, 39.96875
945.9080, 239.6797
947.0260, 75.28906
948.1450, 90.82031
949.2630, 148.2812
950.3810, 79.34375
951.4990, 516.9375
952.6170, 435.1406
953.7340, 289.2656
954.8520, 370.3047
955.9690, 109.3203
957.0860, 502.3750
958.2030, 627.4062
959.3200, 561.3906
960.4360, 778.1953
961.5530, 193.3125
962.6690, 869.2031
963.7850, 251.0391
964.9010, 139.9141
966.0170, 526.9766
967.1330, 643.8125
968.2480, 380.7578
969.3630, 552.5078
970.4790, 501.0156
971.5940, 430.0000
972.7080, 1042.648
973.8230, 797.5156
974.9380, 1299.281
976.0520, 1882.656
977.1660, 1928.984
978.2800, 1441.219
979.3940, 2062.164
980.5080, 1278.344
981.6220, 1891.383
982.7350, 1848.109
983.8480, 2193.484
984.9610, 1548.648
986.0740, 1573.914
987.1870, 1533.562
988.3000, 1850.484
989.4120, 1868.133
990.5250, 1904.500
991.6370, 2148.906
992.7490, 2237.070
993.8610, 2392.203
994.9720, 2587.312
996.0840, 2756.039
997.1950, 2918.320
998.3060, 3204.922
999.4170, 3005.055
1000.528, 2876.148
1001.639, 3353.273
1002.750, 4120.727
1003.860, 3581.906
1004.970, 3559.453
1006.080, 2953.930
1007.190, 2106.109
1008.300, 1941.273
1009.410, 1980.289
1010.519, 2477.750
1011.628, 1551.414
1012.738, 1777.594
1013.846, 1547.547
1014.955, 1758.688
1016.064, 1108.797
1017.172, 1666.312
1018.281, 914.4531
1019.389, 1259.359
1020.497, 1418.750
1021.605, 1091.656
1022.713, 798.6250
1023.820, 978.5156
1024.928, 1099.906
1026.035, 1206.844
1027.142, 1164.547
1028.249, 1204.219
1029.356, 1175.656
1030.462, 1632.188
1031.569, 1779.953
1032.675, 1470.422
1033.781, 1511.641
1034.887, 1275.016
1035.993, 1392.609
1037.098, 1172.188
1038.204, 981.8281
1039.309, 1226.844
1040.415, 819.1875
1041.520, 792.9375
1042.624, 550.7656
1043.729, 892.1875
1044.834, 673.9219
1045.938, 659.2500
1047.042, 773.2656
1048.146, 746.7656
1049.250, 778.4219
1050.354, 911.9844
1051.458, 698.0938
1052.561, 737.4844
1053.664, 985.4531
1054.767, 615.1406
1055.870, 1000.922
1056.973, 810.6406
1058.076, 520.0000
1059.178, 611.9531
1060.281, 180.7812
1061.383, 472.5781
1062.485, 338.7031
1063.587, 342.7969
1064.688, 857.3750
1065.790, 482.4531
1066.891, 21.21875
1067.993, 575.4062
1069.094, 193.7656
1070.195, 384.7031
1071.295, 767.1250
1072.396, 621.1719
1073.496, 1084.156
1074.597, 588.6250
1075.697, 834.4688
1076.797, 395.6875
1077.897, 1066.547
1078.996, 1136.219
1080.096, 1149.250
1081.195, 1619.656
1082.294, 1803.375
1083.393, 1868.328
1084.492, 2348.766
1085.591, 2197.906
1086.689, 1902.906
1087.788, 3003.719
1088.886, 2829.891
1089.984, 3466.547
1091.082, 4383.312
1092.180, 4175.781
1093.277, 4670.516
1094.375, 5371.016
1095.472, 6645.797
1096.569, 6827.766
1097.666, 7663.516
1098.763, 7564.719
1099.860, 8084.266
1100.956, 8049.812
1102.053, 7933.031
1103.149, 7882.422
1104.245, 7097.656
1105.341, 6956.125
1106.436, 6668.453
1107.532, 7155.031
1108.627, 7040.578
1109.723, 7358.812
1110.818, 7327.047
1111.913, 8216.219
1113.007, 8155.359
1114.102, 8756.938
1115.197, 8672.031
1116.291, 9527.688
1117.385, 10618.81
1118.479, 10769.89
1119.573, 11523.88
1120.666, 11895.91
1121.760, 12036.25
1122.853, 12648.16
1123.947, 12668.38
1125.040, 12222.22
1126.132, 11243.27
1127.225, 10566.03
1128.318, 9905.859
1129.410, 9417.688
1130.502, 9380.422
1131.595, 8958.672
1132.687, 8546.750
1133.778, 8793.594
1134.870, 8374.297
1135.961, 8313.016
1137.053, 8196.766
1138.144, 7670.094
1139.235, 7865.578
1140.326, 7408.266
1141.416, 7225.797
1142.507, 6629.219
1143.597, 6270.594
1144.688, 5770.953
1145.778, 5238.281
1146.868, 5279.719
1147.957, 4225.422
1149.047, 4618.812
1150.136, 3833.156
1151.226, 3584.469
1152.315, 3454.750
1153.404, 3597.047
1154.493, 3331.297
1155.581, 2851.609
1156.670, 2466.922
1157.758, 2032.203
1158.846, 2250.469
1159.934, 1899.766
1161.022, 1390.062
1162.110, 1555.344
1163.198, 1107.594
1164.285, 1973.828
1165.372, 2171.016
1166.459, 1393.250
1167.546, 1744.484
1168.633, 576.6875
1169.720, 1114.969
1170.806, 660.2969
1171.892, 1703.656
1172.979, 895.0469
1174.065, 958.4062
1175.150, 1212.734
1176.236, 705.0625
1177.322, 848.3438
1178.407, 134.6094
1179.492, 413.8438
1180.577, 843.0625
1181.662, 543.2344
1182.747, 554.4062
1183.832, 265.5469
1184.916, 186.2188
1186.000, 477.2969
1187.084, 46.37500
1188.168, 284.3906
1189.252, 800.4062
1190.336, 399.3750
1191.419, 676.7656
1192.503, 99.70312
1193.586, 282.6094
1194.669, 605.4688
1195.752, 510.3125
1196.835, 292.1406
1197.917, 128.2656
1199.000, 285.4375
1200.082, 562.6250
1201.164, 357.2812
1202.246, 233.9375
1203.328, 256.4531
1204.409, 368.0000
1205.491, 190.4531
1206.572, 495.8906
1207.653, 258.6562
1208.734, 108.5938
1209.815, 90.79688
1210.896, 57.01562
1211.976, 227.0938
1213.057, 143.8281
1214.137, 482.1250
1215.217, 157.0938
1216.297, 283.0000
1217.377, 173.1250
1218.456, 84.39062
1219.536, 16.26562
1220.615, 629.8438
1221.694, 709.4219
1222.773, 794.9375
1223.852, 269.4531
1224.931, 382.9375
1226.009, 57.62500
1227.088, 370.7500
1228.166, 587.0938
1229.244, 634.4219
1230.322, 472.7188
1231.400, 282.0000
1232.477, 66.46875
1233.555, 14.59375
1234.632, 137.4844
1235.709, 433.4219
1236.786, 103.3438
1237.863, 98.20312
1238.939, 828.0625
1240.016, 429.9062
1241.092, 858.6875
1242.168, 662.4688
1243.245, 321.7969
1244.320, 648.7031
1245.396, 255.2031
1246.472, 348.3438
1247.547, 375.8594
1248.622, 659.0625
1249.697, 367.2344
1250.772, 370.6250
1251.847, 704.2812
1252.922, 16.15625
1253.996, 532.9531
1255.071, 114.2500
1256.145, 400.4375
1257.219, 80.90625
1258.293, 65.82812
1259.366, 585.1406
1260.440, 105.4219
1261.513, 269.9219
1262.587, 325.2344
1263.660, 343.5000
1264.733, 329.7812
1265.805, 514.0156
1266.878, 547.2656
1267.951, 556.4531
1269.023, 303.6406
1270.095, 339.9688
1271.167, 447.8906
1272.239, 597.2188
1273.311, 637.2969
1274.382, 919.3594
1275.454, 688.4219
1276.525, 272.4531
1277.596, 1032.453
1278.667, 377.4375
1279.738, 1154.406
1280.808, 836.3594
1281.879, 1148.281
1282.949, 1372.188
1284.019, 890.0781
1285.089, 1139.953
1286.159, 961.7969
1287.229, 1639.625
1288.298, 1280.422
1289.368, 1858.219
1290.437, 1590.047
1291.506, 792.8594
1292.575, 1745.641
1293.644, 1777.422
1294.712, 582.1719
1295.781, 825.9062
1296.849, 1721.625
1297.917, 1541.328
1298.985, 1361.031
1300.053, 867.7188
1301.121, 1348.375
1302.188, 1177.000
1303.255, 1111.625
1304.323, 1360.234
1305.390, 647.8125
1306.457, 1129.406
1307.523, 1345.812
1308.590, 1827.344
1309.656, 1216.875
1310.723, 1429.375
1311.789, 975.8750
1312.855, 194.2500
1313.921, 1098.109
1314.986, 1087.438
1316.052, 606.2031
1317.117, 1373.906
1318.182, 1284.219
1319.248, 1443.406
1320.312, 1201.672
1321.377, 375.5781
1322.442, 1070.234
1323.506, 842.4688
1324.571, 732.6719
1325.635, 1589.359
1326.699, 722.6875
1327.762, 1044.344
1328.826, 1090.562
1329.890, 1339.453
1330.953, 1082.828
1332.016, 820.9062
1333.079, 1029.812
1334.142, 840.9531
1335.205, 1664.031
1336.268, 490.8906
1337.330, 1470.625
1338.392, 731.2812
1339.454, 524.6094
1340.516, 403.8125
1341.578, 633.6250
1342.640, 1208.609
1343.701, 1036.469
1344.763, 907.8594
1345.824, 1754.734
1346.885, 405.1406
1347.946, 801.6719
1349.007, 958.5625
1350.067, 427.4375
1351.128, 326.3125
1352.188, 941.5938
1353.248, 470.3438
1354.308, 740.3438
1355.368, 380.0312
1356.428, 373.0781
1357.487, 375.5000
1358.547, 365.5469
1359.606, 195.4062
1360.665, 288.8125
1361.724, 19.12500
1362.783, 401.8438
1363.841, 973.7344
1364.900, 737.3125
1365.958, 109.4688
1367.016, 806.2969
1368.074, 344.1250
1369.132, 623.9531
1370.190, 299.8125
1371.247, 218.2031
1372.304, 910.8438
1373.362, 339.0938
1374.419, 655.8438
1375.476, 1135.656
1376.532, 611.5156
1377.589, 991.2969
1378.645, 413.7500
1379.702, 495.6250
1380.758, 256.1719
1381.814, 157.0938
1382.870, 720.7500
1383.925, 657.6562
1384.981, 541.5000
1386.036, 291.3125
1387.092, 459.2656
1388.147, 555.6719
1389.202, 351.2188
1390.256, 557.0156
1391.311, 194.0469
1392.365, 438.0469
1393.420, 973.0781
1394.474, 449.1406
1395.528, 1134.203
1396.582, 61.93750
1397.636, 749.0625
1398.689, 185.1875
1399.742, 693.3281
1400.796, 437.4688
1401.849, 827.6562
1402.902, 148.8281
1403.955, 806.7344
1405.007, 716.9844
1406.060, 349.2500
1407.112, 585.5312
1408.164, 1143.859
1409.216, 732.1875
1410.268, 203.5625
1411.320, 641.9375
1412.371, 198.3281
1413.423, 822.7656
1414.474, 672.2188
1415.525, 1145.703
1416.576, 971.0156
1417.627, 414.5781
1418.678, 719.1406
1419.728, 532.7656
1420.778, 964.4062
1421.829, 734.0625
1422.879, 887.7812
1423.928, 1244.547
1424.978, 977.3281
1426.028, 900.1406
1427.077, 808.0156
1428.126, 1080.938
1429.176, 642.8750
1430.225, 698.9062
1431.273, 955.9375
1432.322, 639.0625
1433.371, 709.2031
1434.419, 1395.438
1435.467, 748.7031
1436.515, 1357.688
1437.563, 1322.719
1438.611, 807.1562
1439.658, 1324.672
1440.706, 1244.766
1441.753, 812.9062
1442.800, 1983.547
1443.847, 867.7656
1444.894, 1548.016
1445.941, 1449.984
1446.987, 1121.328
1448.034, 560.7031
1449.080, 1119.516
1450.126, 1489.016
1451.172, 735.2812
1452.218, 1049.000
1453.263, 1013.203
1454.309, 957.2500
1455.354, 1067.250
1456.399, 804.8594
1457.444, 1016.656
1458.489, 846.4219
1459.534, 602.3906
1460.579, 858.3750
1461.623, 8.718750
1462.667, 386.9375
1463.711, 618.7656
1464.755, 695.6719
1465.799, 153.1094
1466.843, 410.5469
1467.886, 347.3125
1468.930, 271.1406
1469.973, 641.0938
1471.016, 188.8594
1472.059, 551.5781
1473.101, 589.1094
1474.144, 775.8281
1475.186, 639.7812
1476.229, 603.6875
1477.271, 890.3281
1478.313, 998.4844
1479.355, 825.9688
1480.396, 1022.844
1481.438, 560.2812
1482.479, 676.4844
1483.520, 1042.672
1484.561, 887.0781
1485.602, 262.9219
1486.643, 774.3906
1487.684, 531.8906
1488.724, 0.8750000
1489.765, 490.4688
1490.805, 73.87500
1491.845, 233.8438
1492.885, 200.5938
1493.924, 566.4062
1494.964, 267.2656
1496.003, 491.1875
1497.042, 39.84375
1498.082, 155.2188
1499.120, 50.14062
1500.159, 419.0938
1501.198, 520.1094
1502.236, 561.1562
1503.275, 378.2500
1504.313, 587.4062
1505.351, 485.5938
1506.389, 524.7656
1507.427, 630.1719
1508.464, 527.5156
1509.502, 441.9219
1510.539, 296.5938
1511.576, 690.2969
1512.613, 114.1094
1513.650, 291.9375
1514.687, 451.8438
1515.723, 44.79688
1516.759, 41.25000
1517.796, 266.7656
1518.832, 107.9375
1519.868, 509.2812
1520.903, 611.5312
1521.939, 845.1250
1522.975, 889.8125
1524.010, 910.0938
1525.045, 678.8438
1526.080, 839.0469
1527.115, 355.4219
1528.150, 269.9531
1529.184, 631.6562
1530.219, 597.5156
1531.253, 764.5000
1532.287, 201.6406
1533.321, 809.9531
1534.355, 972.2500
1535.388, 357.4219
1536.422, 1029.109
1537.455, 592.9688
1538.488, 938.6094
1539.522, 916.7344
1540.554, 243.9375
1541.587, 1148.594
1542.620, 680.3281
1543.652, 1268.281
1544.685, 565.4688
1545.717, 36.10938
1546.749, 251.5625
1547.781, 873.9844
1548.812, 1057.609
1549.844, 797.9688
1550.875, 999.6250
1551.906, 731.5938
1552.938, 885.8750
1553.968, 768.5000
1554.999, 925.4688
1556.030, 910.8750
1557.060, 1140.469
1558.091, 834.8125
1559.121, 795.1875
1560.151, 466.4844
1561.181, 346.6875
1562.211, 226.9531
1563.240, 370.0000
1564.270, 578.2812
1565.299, 1006.406
1566.328, 236.0000
1567.357, 920.7969
1568.386, 904.4062
1569.415, 205.2500
1570.443, 409.7031
1571.472, 699.3438
1572.500, 332.9219
1573.528, 910.7812
1574.556, 108.2344
1575.584, 451.6250
1576.611, 3.843750
1577.639, 304.8906
1578.666, 0.0000000E+00
##END=



