##NAMES=Microcline
##RRUFFID=R050193
##IDEAL CHEMISTRY=KAlSi_3_O_8_
##LOCALITY=Devil's Head, Douglas County, Colorado, USA
##OWNER=RRUFF
##SOURCE=Dave Bunk Minerals
##DESCRIPTION=White to colorless heterogeneous mixture of K and Na feldspar in a cluster of crystals. Crystal structure determined, presented below. This sample is known as an intermediate microcline in the literature.
##STATUS=The identification of this mineral has been confirmed by X-ray diffraction and chemical analysis
##URL=rruff.info/R050193
##MEASURED CHEMISTRY=(K_0.929_Na_0.071_)(Al_1.005_Si_2.994_Fe_0.001_)O_7.993_F_0.007_  ; Light Band :  (Na_0.973_K_0.007_Ca_0.020_)(Al_1.020_Si_2.980_)O_8_ ; Dark Band
##PIN_ID=L00937
##ORIENTATION=Laser parallel to (1 1 0). Fiducial mark perpendicular to laser is parallel to c [0 0 1]
135.1910, 0.0000000E+00
136.4230, 66.95312
137.6560, 45.78516
138.8880, 332.3359
140.1200, 989.8203
141.3520, 1741.629
142.5830, 2555.094
143.8150, 4287.098
145.0460, 5839.441
146.2770, 8079.633
147.5080, 10062.25
148.7390, 13141.37
149.9700, 15888.50
151.2000, 17552.09
152.4310, 18703.33
153.6610, 18665.34
154.8910, 16909.00
156.1210, 15136.38
157.3500, 13517.91
158.5800, 12434.26
159.8090, 10937.86
161.0380, 9168.328
162.2670, 8718.934
163.4960, 7661.191
164.7240, 7175.168
165.9530, 6350.715
167.1810, 5317.594
168.4090, 5719.508
169.6370, 6023.965
170.8650, 5847.371
172.0920, 6802.094
173.3200, 7360.500
174.5470, 8144.938
175.7740, 9543.137
177.0010, 9977.895
178.2280, 11063.71
179.4540, 10800.95
180.6810, 10452.66
181.9070, 10130.15
183.1330, 9617.133
184.3590, 9057.805
185.5850, 7797.047
186.8100, 7526.879
188.0350, 6756.445
189.2610, 5891.742
190.4860, 5414.328
191.7110, 4940.570
192.9350, 4615.035
194.1600, 4538.824
195.3840, 4286.461
196.6080, 4552.926
197.8320, 4765.688
199.0560, 4588.586
200.2800, 4643.625
201.5030, 4452.539
202.7270, 4215.137
203.9500, 3792.441
205.1730, 3797.465
206.3950, 3702.230
207.6180, 3364.758
208.8410, 3275.199
210.0630, 3000.953
211.2850, 2620.051
212.5070, 2152.531
213.7290, 1205.402
214.9500, 757.6445
216.1720, 475.2344
217.3930, 26.84766
218.6140, 6.628906
219.8350, 248.1211
221.0560, 552.3672
222.2770, 832.8164
223.4970, 288.4258
224.7170, 296.3242
225.9370, 211.9297
227.1570, 397.8555
228.3770, 349.1836
229.5970, 368.9883
230.8160, 401.1641
232.0350, 260.3672
233.2540, 227.6523
234.4730, 132.0312
235.6920, 2.605469
236.9110, 91.14062
238.1290, 231.1328
239.3470, 375.5039
240.5650, 389.5195
241.7830, 920.9023
243.0010, 1487.891
244.2180, 1863.047
245.4360, 2857.156
246.6530, 3425.945
247.8700, 4424.227
249.0870, 5350.188
250.3040, 6174.039
251.5200, 7070.168
252.7370, 7858.125
253.9530, 8556.406
255.1690, 9099.953
256.3850, 9553.738
257.6000, 10071.94
258.8160, 10613.04
260.0310, 11781.37
261.2460, 12992.85
262.4610, 13784.22
263.6760, 15154.20
264.8910, 16133.98
266.1050, 17092.43
267.3200, 17704.90
268.5340, 18306.39
269.7480, 18737.90
270.9620, 17923.44
272.1750, 17482.98
273.3890, 17280.55
274.6020, 17259.12
275.8150, 17908.73
277.0280, 18562.35
278.2410, 19244.00
279.4540, 20778.69
280.6660, 21776.76
281.8790, 22030.58
283.0910, 22192.35
284.3030, 21582.52
285.5140, 20907.28
286.7260, 19793.06
287.9380, 19341.19
289.1490, 17644.70
290.3600, 16595.62
291.5710, 15061.71
292.7820, 13004.02
293.9920, 11236.29
295.2030, 9021.496
296.4130, 7145.574
297.6230, 5957.500
298.8330, 4367.250
300.0430, 3437.809
301.2520, 3002.180
302.4620, 2203.328
303.6710, 1656.145
304.8800, 1508.547
306.0890, 1392.477
307.2980, 582.9297
308.5070, 683.9336
309.7150, 258.5195
310.9230, 570.7109
312.1310, 398.5469
313.3390, 306.0508
314.5470, 142.2266
315.7550, 408.0977
316.9620, 191.6797
318.1690, 362.0352
319.3760, 174.0430
320.5830, 666.8555
321.7900, 770.3984
322.9960, 1046.250
324.2030, 1621.781
325.4090, 1986.805
326.6150, 2557.898
327.8210, 3219.926
329.0270, 3034.656
330.2320, 3430.152
331.4380, 2588.934
332.6430, 2294.551
333.8480, 1872.090
335.0530, 1556.602
336.2580, 1431.086
337.4620, 674.5312
338.6670, 565.9375
339.8710, 40.30078
341.0750, 333.5898
342.2790, 11.82812
343.4820, 33.01953
344.6860, 44.97266
345.8890, 5.031250
347.0920, 161.8125
348.2960, 331.4062
349.4980, 40.80078
350.7010, 51.30078
351.9040, 679.0977
353.1060, 45.45703
354.3080, 569.7383
355.5100, 429.9766
356.7120, 986.1719
357.9140, 647.3203
359.1150, 1081.418
360.3170, 865.8359
361.5180, 1400.852
362.7190, 1558.293
363.9200, 1366.117
365.1200, 1615.887
366.3210, 1676.656
367.5210, 1533.895
368.7210, 1486.328
369.9210, 1752.293
371.1210, 1912.535
372.3210, 1770.086
373.5200, 1732.730
374.7200, 1168.105
375.9190, 1300.562
377.1180, 646.9062
378.3170, 368.3711
379.5150, 77.89062
380.7140, 119.0703
381.9120, 288.9102
383.1110, 185.9961
384.3090, 408.0352
385.5060, 318.4648
386.7040, 68.56250
387.9020, 172.9141
389.0990, 35.57812
390.2960, 25.03906
391.4930, 325.6875
392.6900, 539.5469
393.8860, 633.7734
395.0830, 778.0859
396.2790, 1496.391
397.4750, 1880.695
398.6710, 2565.008
399.8670, 2966.320
401.0630, 3496.711
402.2580, 4048.047
403.4540, 4617.406
404.6490, 4698.711
405.8440, 5454.906
407.0390, 6083.117
408.2330, 6172.375
409.4280, 6155.648
410.6220, 6159.945
411.8160, 5562.344
413.0100, 4615.898
414.2040, 4532.500
415.3980, 4003.117
416.5910, 3534.781
417.7850, 3346.523
418.9780, 2090.383
420.1710, 1892.273
421.3640, 790.1953
422.5560, 376.1484
423.7490, 172.1250
424.9410, 70.88281
426.1330, 118.9609
427.3250, 67.13281
428.5170, 119.6250
429.7090, 104.4141
430.9000, 186.8906
432.0910, 206.3984
433.2820, 184.8125
434.4730, 192.1484
435.6640, 405.3750
436.8550, 603.5234
438.0450, 926.6953
439.2360, 1567.547
440.4260, 1918.430
441.6160, 2448.234
442.8060, 3364.930
443.9950, 3851.562
445.1850, 4847.086
446.3740, 6224.539
447.5630, 7628.906
448.7520, 9159.195
449.9410, 10857.41
451.1300, 12382.65
452.3180, 14012.45
453.5060, 15145.15
454.6950, 15599.32
455.8830, 15604.20
457.0700, 15264.16
458.2580, 14426.67
459.4450, 13477.90
460.6330, 12466.96
461.8200, 11546.58
463.0070, 11076.73
464.1940, 10929.54
465.3800, 11187.55
466.5670, 12281.66
467.7530, 14084.70
468.9390, 15910.12
470.1250, 18830.16
471.3110, 22078.25
472.4970, 25508.69
473.6820, 29269.21
474.8680, 33126.28
476.0530, 35364.24
477.2380, 36296.60
478.4230, 35935.49
479.6070, 33598.38
480.7920, 30343.61
481.9760, 27175.37
483.1600, 23979.38
484.3440, 20144.77
485.5280, 17254.28
486.7120, 15302.05
487.8950, 13374.16
489.0780, 11976.86
490.2620, 11039.39
491.4450, 10385.92
492.6270, 10210.30
493.8100, 10423.62
494.9920, 11076.73
496.1750, 12087.94
497.3570, 13620.56
498.5390, 16201.59
499.7210, 19445.95
500.9020, 24492.88
502.0840, 29690.30
503.2650, 35736.12
504.4460, 43658.55
505.6270, 51404.02
506.8080, 59326.53
507.9890, 67227.16
509.1690, 74285.95
510.3500, 80061.02
511.5300, 84999.20
512.7100, 86217.55
513.8900, 84489.94
515.0690, 78002.49
516.2490, 68116.19
517.4280, 58023.00
518.6070, 46695.05
519.7860, 37675.14
520.9650, 29695.45
522.1440, 24259.69
523.3220, 19543.16
524.5010, 15997.86
525.6790, 13220.55
526.8570, 11268.95
528.0350, 9477.547
529.2130, 8215.656
530.3900, 7123.797
531.5670, 6221.539
532.7450, 5228.188
533.9220, 4495.352
535.0980, 4028.766
536.2750, 3731.227
537.4520, 3555.711
538.6280, 2910.305
539.8040, 2735.398
540.9800, 2784.086
542.1560, 2108.703
543.3320, 2051.430
544.5070, 2169.742
545.6830, 1538.031
546.8580, 1497.008
548.0330, 1474.125
549.2080, 1215.047
550.3830, 1256.430
551.5570, 1237.727
552.7310, 1200.695
553.9060, 1086.016
555.0800, 1105.055
556.2540, 688.5312
557.4270, 653.3594
558.6010, 679.4531
559.7740, 559.5469
560.9470, 604.4141
562.1210, 570.9062
563.2930, 599.3828
564.4660, 649.1094
565.6390, 664.4141
566.8110, 736.0312
567.9830, 785.5703
569.1550, 589.6562
570.3270, 734.1484
571.4990, 649.8359
572.6710, 1069.250
573.8420, 924.7969
575.0130, 1438.453
576.1840, 1338.883
577.3550, 1815.164
578.5260, 1367.477
579.6970, 1502.758
580.8670, 1717.000
582.0370, 1647.219
583.2070, 1842.414
584.3770, 1513.562
585.5470, 1604.695
586.7170, 1225.797
587.8860, 1195.852
589.0550, 1032.883
590.2240, 1005.039
591.3930, 920.6797
592.5620, 420.2656
593.7310, 841.3438
594.8990, 417.3906
596.0670, 472.4219
597.2350, 489.4453
598.4030, 393.4844
599.5710, 347.5781
600.7390, 631.6484
601.9060, 127.7734
603.0740, 104.9141
604.2410, 465.0312
605.4080, 627.1406
606.5740, 706.2188
607.7410, 70.28125
608.9080, 447.2891
610.0740, 291.2812
611.2400, 606.2344
612.4060, 426.1562
613.5720, 402.0469
614.7370, 505.8984
615.9030, 727.7344
617.0680, 432.5391
618.2330, 669.3203
619.3980, 763.0625
620.5630, 853.7734
621.7280, 991.3984
622.8920, 886.1797
624.0570, 1196.945
625.2210, 1224.766
626.3850, 1357.609
627.5490, 1264.477
628.7120, 1052.438
629.8760, 1314.414
631.0390, 1105.383
632.2020, 1427.469
633.3650, 1552.586
634.5280, 1278.742
635.6910, 1112.859
636.8530, 1178.977
638.0160, 1331.078
639.1780, 756.1406
640.3400, 1172.180
641.5020, 948.1953
642.6640, 1556.172
643.8250, 1333.109
644.9870, 1065.992
646.1480, 1531.844
647.3090, 1400.641
648.4700, 1759.406
649.6300, 1361.125
650.7910, 1369.789
651.9510, 1157.430
653.1120, 1356.039
654.2720, 974.5938
655.4320, 929.0781
656.5910, 1064.430
657.7510, 654.9375
658.9100, 1208.273
660.0690, 1203.547
661.2290, 1007.766
662.3880, 421.9453
663.5460, 727.0781
664.7050, 586.2188
665.8630, 699.3359
667.0220, 353.5000
668.1800, 318.6719
669.3380, 249.9062
670.4950, 361.1016
671.6530, 228.2344
672.8100, 246.5336
673.9680, 72.61719
675.1250, 278.6641
676.2820, 4.968750
677.4390, 170.6172
678.5950, 27.88281
679.7520, 150.4844
680.9080, 144.2344
682.0640, 144.8516
683.2200, 72.14844
684.3760, 245.3047
685.5320, 270.7188
686.6870, 223.3984
687.8420, 155.3281
688.9980, 320.4531
690.1530, 44.12500
691.3070, 295.3984
692.4620, 459.2188
693.6170, 103.4141
694.7710, 189.2188
695.9250, 82.25781
697.0790, 212.9062
698.2330, 279.8203
699.3870, 28.70312
700.5400, 10.05469
701.6940, 25.19531
702.8470, 15.15625
704.0000, 9.140625
705.1530, 287.0312
706.3050, 457.8203
707.4580, 437.3750
708.6100, 769.1406
709.7630, 466.4609
710.9150, 610.0391
712.0660, 1028.000
713.2180, 539.7812
714.3700, 939.2188
715.5210, 956.9922
716.6720, 933.2578
717.8240, 1246.703
718.9740, 1469.242
720.1250, 1302.867
721.2760, 1667.164
722.4260, 1647.406
723.5770, 1454.969
724.7270, 1779.969
725.8770, 1502.914
727.0260, 1373.281
728.1760, 1806.758
729.3250, 1434.703
730.4750, 2002.484
731.6240, 2302.391
732.7730, 2627.031
733.9220, 3167.961
735.0700, 3644.180
736.2190, 3866.938
737.3670, 4228.562
738.5150, 4510.203
739.6630, 5006.641
740.8110, 5437.922
741.9590, 5843.094
743.1060, 6460.094
744.2540, 6795.969
745.4010, 7032.508
746.5480, 7637.945
747.6950, 7550.266
748.8410, 7823.500
749.9880, 8122.750
751.1340, 7914.273
752.2800, 7970.211
753.4260, 7904.586
754.5720, 7935.703
755.7180, 7799.078
756.8640, 8138.766
758.0090, 8932.211
759.1540, 9145.336
760.2990, 9245.070
761.4440, 9968.578
762.5890, 10264.62
763.7340, 10411.83
764.8780, 9534.883
766.0220, 8538.438
767.1660, 7233.547
768.3100, 6586.023
769.4540, 5869.766
770.5980, 5225.625
771.7410, 4569.391
772.8840, 4097.055
774.0280, 4154.758
775.1700, 3880.102
776.3130, 3184.109
777.4560, 2853.156
778.5980, 3284.195
779.7410, 3210.789
780.8830, 3324.852
782.0250, 2980.242
783.1670, 2989.086
784.3080, 3420.742
785.4500, 3116.977
786.5910, 3201.852
787.7320, 3299.312
788.8730, 3413.086
790.0140, 3521.719
791.1550, 3939.297
792.2950, 4018.250
793.4360, 3712.867
794.5760, 4187.414
795.7160, 4356.828
796.8560, 4424.984
797.9960, 4808.008
799.1350, 4710.023
800.2750, 4609.352
801.4140, 5082.016
802.5530, 4777.859
803.6920, 5147.836
804.8310, 5711.102
805.9690, 6076.750
807.1080, 6769.930
808.2460, 7385.703
809.3840, 8524.008
810.5220, 9615.086
811.6600, 10340.55
812.7970, 10881.15
813.9350, 10687.91
815.0720, 9909.859
816.2090, 9424.070
817.3460, 8117.414
818.4830, 6772.789
819.6200, 5527.594
820.7560, 4589.906
821.8930, 3609.117
823.0290, 2946.586
824.1650, 2494.695
825.3010, 2038.914
826.4360, 2014.492
827.5720, 1694.016
828.7070, 1758.734
829.8420, 1215.961
830.9770, 1361.336
832.1120, 1208.141
833.2470, 1206.445
834.3820, 947.3672
835.5160, 298.9062
836.6500, 1008.016
837.7840, 759.1094
838.9180, 1216.078
840.0520, 651.4062
841.1860, 637.1875
842.3190, 640.3359
843.4520, 678.0859
844.5850, 140.6328
845.7180, 452.4375
846.8510, 370.8516
847.9840, 735.7422
849.1160, 757.4062
850.2490, 858.8281
851.3810, 715.3438
852.5130, 904.7578
853.6450, 512.0781
854.7760, 705.2812
855.9080, 426.3828
857.0390, 243.3672
858.1700, 475.2422
859.3010, 375.0000
860.4320, 488.6406
861.5630, 716.1797
862.6930, 593.6172
863.8240, 488.0469
864.9540, 409.8672
866.0840, 185.6719
867.2140, 868.3516
868.3440, 650.9453
869.4730, 737.4297
870.6030, 215.8203
871.7320, 76.90625
872.8610, 114.7969
873.9900, 390.0547
875.1190, 126.1875
876.2470, 102.6406
877.3760, 282.7031
878.5040, 197.9375
879.6320, 116.0625
880.7600, 51.07031
881.8880, 198.9453
883.0150, 109.4219
884.1430, 412.3750
885.2700, 126.9297
886.3970, 178.3672
887.5240, 264.6875
888.6510, 3.906250
889.7780, 290.9766
890.9040, 104.9375
892.0310, 103.7891
893.1570, 132.6016
894.2830, 35.10156
895.4090, 55.60938
896.5350, 142.0391
897.6600, 216.8984
898.7860, 0.9843750
899.9110, 298.7266
901.0360, 137.6328
902.1610, 42.79688
903.2860, 110.1172
904.4100, 497.3203
905.5350, 42.57031
906.6590, 430.3828
907.7830, 187.2422
908.9070, 144.9922
910.0310, 200.6406
911.1540, 43.17188
912.2780, 214.5234
913.4010, 34.07812
914.5240, 501.1094
915.6470, 353.1953
916.7700, 487.1875
917.8930, 107.1016
919.0150, 598.8984
920.1380, 7.390625
921.2600, 483.2109
922.3820, 551.7109
923.5040, 88.85156
924.6260, 9.421875
925.7470, 190.8125
926.8690, 308.9141
927.9900, 359.1094
929.1110, 342.3906
930.2320, 331.2969
931.3530, 373.7422
932.4730, 136.4531
933.5940, 346.1406
934.7140, 213.3281
935.8340, 364.7812
936.9540, 422.1484
938.0740, 6.429688
939.1930, 493.0312
940.3130, 445.8672
941.4320, 98.93750
942.5510, 29.66406
943.6700, 212.2891
944.7890, 8.914063
945.9080, 83.42969
947.0260, 238.8984
948.1450, 164.3906
949.2630, 288.8594
950.3810, 318.2500
951.4990, 591.5938
952.6170, 557.8750
953.7340, 155.1484
954.8520, 773.3516
955.9690, 941.5391
957.0860, 303.8906
958.2030, 604.2422
959.3200, 307.6172
960.4360, 684.9766
961.5530, 841.3906
962.6690, 747.7500
963.7850, 823.1406
964.9010, 575.6172
966.0170, 1329.086
967.1330, 972.4844
968.2480, 1671.883
969.3630, 988.2812
970.4790, 1851.430
971.5940, 1748.852
972.7080, 2615.898
973.8230, 3043.266
974.9380, 3377.852
976.0520, 3657.344
977.1660, 3885.820
978.2800, 3965.398
979.3940, 4564.625
980.5080, 3553.156
981.6220, 4037.289
982.7350, 3035.031
983.8480, 3207.836
984.9610, 3307.883
986.0740, 3477.453
987.1870, 3496.391
988.3000, 4000.000
989.4120, 3710.375
990.5250, 3842.516
991.6370, 4271.922
992.7490, 3994.312
993.8610, 3962.266
994.9720, 4317.641
996.0840, 4634.914
997.1950, 4025.664
998.3060, 4155.156
999.4170, 4375.039
1000.528, 4376.938
1001.639, 4444.344
1002.750, 4703.094
1003.860, 4304.188
1004.970, 3598.039
1006.080, 3585.266
1007.190, 3307.086
1008.300, 2664.555
1009.410, 2728.664
1010.519, 2979.258
1011.628, 1644.156
1012.738, 2582.672
1013.846, 2429.773
1014.955, 2104.070
1016.064, 2400.477
1017.172, 2101.242
1018.281, 2545.680
1019.389, 1756.680
1020.497, 1686.867
1021.605, 1307.391
1022.713, 1496.750
1023.820, 1944.312
1024.928, 1692.047
1026.035, 1883.742
1027.142, 1465.547
1028.249, 1391.523
1029.356, 1590.742
1030.462, 1905.047
1031.569, 2075.672
1032.675, 1821.000
1033.781, 1698.336
1034.887, 1281.023
1035.993, 2011.008
1037.098, 1092.477
1038.204, 1241.555
1039.309, 1547.336
1040.415, 937.0781
1041.520, 1502.789
1042.624, 1122.297
1043.729, 1075.234
1044.834, 1137.148
1045.938, 1074.891
1047.042, 942.4922
1048.146, 1086.406
1049.250, 1078.672
1050.354, 872.6641
1051.458, 1256.875
1052.561, 668.5391
1053.664, 841.0781
1054.767, 747.8125
1055.870, 936.3750
1056.973, 1281.930
1058.076, 216.6484
1059.178, 1121.633
1060.281, 385.5625
1061.383, 154.3750
1062.485, 589.5156
1063.587, 132.7812
1064.688, 325.3125
1065.790, 268.4453
1066.891, 126.4531
1067.993, 352.2422
1069.094, 386.2891
1070.195, 393.9688
1071.295, 175.0234
1072.396, 514.5859
1073.496, 520.5391
1074.597, 704.9219
1075.697, 823.2969
1076.797, 830.7266
1077.897, 1108.195
1078.996, 1186.086
1080.096, 1219.234
1081.195, 1428.922
1082.294, 1386.320
1083.393, 1093.117
1084.492, 1809.680
1085.591, 1574.320
1086.689, 1618.344
1087.788, 2139.203
1088.886, 2398.203
1089.984, 2766.617
1091.082, 3239.516
1092.180, 3558.117
1093.277, 3863.570
1094.375, 4233.961
1095.472, 5095.547
1096.569, 5335.852
1097.666, 5790.633
1098.763, 5789.148
1099.860, 5986.625
1100.956, 5336.070
1102.053, 5802.922
1103.149, 4758.336
1104.245, 4849.719
1105.341, 4373.391
1106.436, 4302.719
1107.532, 4508.172
1108.627, 3772.008
1109.723, 4321.266
1110.818, 3605.633
1111.913, 4227.867
1113.007, 4440.516
1114.102, 4284.227
1115.197, 4408.914
1116.291, 4493.430
1117.385, 4569.688
1118.479, 4271.273
1119.573, 5051.336
1120.666, 5449.383
1121.760, 5226.406
1122.853, 6165.711
1123.947, 5669.047
1125.040, 5595.336
1126.132, 4793.273
1127.225, 4818.055
1128.318, 5105.430
1129.410, 4488.312
1130.502, 4585.297
1131.595, 4426.328
1132.687, 3866.539
1133.778, 4015.531
1134.870, 3728.242
1135.961, 3919.281
1137.053, 3606.086
1138.144, 3776.047
1139.235, 4026.039
1140.326, 3869.555
1141.416, 3874.867
1142.507, 3028.383
1143.597, 3459.641
1144.688, 2969.641
1145.778, 2481.617
1146.868, 2879.906
1147.957, 2261.164
1149.047, 2432.273
1150.136, 1974.188
1151.226, 2197.078
1152.315, 1576.953
1153.404, 2147.812
1154.493, 2124.672
1155.581, 1610.508
1156.670, 1729.320
1157.758, 1579.117
1158.846, 1162.898
1159.934, 1382.695
1161.022, 868.4766
1162.110, 930.2891
1163.198, 566.1484
1164.285, 811.0078
1165.372, 362.8516
1166.459, 422.7266
1167.546, 673.5938
1168.633, 789.4375
1169.720, 838.2656
1170.806, 380.0938
1171.892, 811.9062
1172.979, 769.7031
1174.065, 297.4766
1175.150, 614.2422
1176.236, 389.9844
1177.322, 601.7188
1178.407, 682.4375
1179.492, 502.1406
1180.577, 64.82812
1181.662, 524.4766
1182.747, 249.1094
1183.832, 487.7188
1184.916, 385.3203
1186.000, 29.09375
1187.084, 524.4297
1188.168, 308.9688
1189.252, 90.75000
1190.336, 353.6875
1191.419, 91.88281
1192.503, 98.07812
1193.586, 278.1562
1194.669, 18.73438
1195.752, 621.9219
1196.835, 570.0234
1197.917, 23.52344
1199.000, 546.6406
1200.082, 359.7422
1201.164, 582.8125
1202.246, 654.6641
1203.328, 69.50000
1204.409, 576.5781
1205.491, 158.6484
1206.572, 171.3047
1207.653, 348.6250
1208.734, 5.523438
1209.815, 36.61719
1210.896, 65.81250
1211.976, 158.9141
1213.057, 333.6172
1214.137, 169.2969
1215.217, 125.9531
1216.297, 381.5625
1217.377, 23.82812
1218.456, 472.2812
1219.536, 496.9688
1220.615, 690.1875
1221.694, 555.3828
1222.773, 147.5625
1223.852, 156.7109
1224.931, 547.8281
1226.009, 164.9297
1227.088, 281.9844
1228.166, 350.0234
1229.244, 402.0391
1230.322, 621.0312
1231.400, 237.9922
1232.477, 737.9297
1233.555, 428.8516
1234.632, 8.726563
1235.709, 777.8359
1236.786, 304.6562
1237.863, 26.45312
1238.939, 426.2109
1240.016, 308.9453
1241.092, 685.8750
1242.168, 228.5625
1243.245, 454.7812
1244.320, 72.41406
1245.396, 102.1328
1246.472, 302.6719
1247.547, 216.8203
1248.622, 401.9453
1249.697, 507.0391
1250.772, 875.1094
1251.847, 242.8359
1252.922, 211.9688
1253.996, 68.25781
1255.071, 407.3672
1256.145, 116.9609
1257.219, 55.47656
1258.293, 79.00781
1259.366, 341.4766
1260.440, 501.5625
1261.513, 284.9688
1262.587, 423.3594
1263.660, 6.203125
1264.733, 376.0938
1265.805, 128.4219
1266.878, 1097.680
1267.951, 481.9062
1269.023, 199.1172
1270.095, 523.2969
1271.167, 140.4609
1272.239, 268.0859
1273.311, 773.7031
1274.382, 344.7812
1275.454, 242.8359
1276.525, 246.8750
1277.596, 275.6875
1278.667, 472.8750
1279.738, 768.8438
1280.808, 673.7891
1281.879, 1122.719
1282.949, 772.6250
1284.019, 1027.508
1285.089, 862.3594
1286.159, 1132.203
1287.229, 1373.016
1288.298, 1158.812
1289.368, 1443.602
1290.437, 1303.352
1291.506, 1488.086
1292.575, 1571.812
1293.644, 1137.508
1294.712, 1179.188
1295.781, 1422.844
1296.849, 1207.477
1297.917, 1108.102
1298.985, 943.7031
1300.053, 1045.281
1301.121, 938.0547
1302.188, 901.9922
1303.255, 879.7109
1304.323, 900.2188
1305.390, 849.9141
1306.457, 1025.180
1307.523, 1017.633
1308.590, 892.0625
1309.656, 1009.320
1310.723, 1164.734
1311.789, 934.7188
1312.855, 1040.305
1313.921, 541.4531
1314.986, 1011.258
1316.052, 645.5938
1317.117, 681.7422
1318.182, 534.5000
1319.248, 979.7969
1320.312, 1019.422
1321.377, 479.5781
1322.442, 1070.531
1323.506, 786.4062
1324.571, 1016.625
1325.635, 979.8750
1326.699, 727.7500
1327.762, 588.9688
1328.826, 233.1719
1329.890, 847.3750
1330.953, 352.5469
1332.016, 615.0781
1333.079, 1346.203
1334.142, 748.5469
1335.205, 258.5312
1336.268, 657.6250
1337.330, 955.5781
1338.392, 597.8906
1339.454, 940.3438
1340.516, 702.5781
1341.578, 201.5156
1342.640, 440.7500
1343.701, 551.7969
1344.763, 818.7656
1345.824, 708.6094
1346.885, 894.2656
1347.946, 861.1875
1349.007, 658.0781
1350.067, 781.4688
1351.128, 712.0000
1352.188, 703.0781
1353.248, 921.9062
1354.308, 751.0000
1355.368, 544.5625
1356.428, 970.3750
1357.487, 695.1875
1358.547, 821.9688
1359.606, 278.2500
1360.665, 495.9375
1361.724, 646.5938
1362.783, 61.90625
1363.841, 472.5625
1364.900, 532.0312
1365.958, 355.0938
1367.016, 339.7188
1368.074, 17.78125
1369.132, 1159.812
1370.190, 610.9688
1371.247, 184.0469
1372.304, 767.1250
1373.362, 68.67188
1374.419, 783.7812
1375.476, 327.8750
1376.532, 205.4375
1377.589, 702.0156
1378.645, 630.6094
1379.702, 685.8906
1380.758, 471.0938
1381.814, 336.3438
1382.870, 659.9375
1383.925, 131.6406
1384.981, 403.7500
1386.036, 7.328125
1387.092, 331.0781
1388.147, 452.4688
1389.202, 179.7812
1390.256, 1.671875
1391.311, 571.0156
1392.365, 180.4375
1393.420, 375.2344
1394.474, 126.7500
1395.528, 624.2969
1396.582, 331.2812
1397.636, 164.8281
1398.689, 129.5938
1399.742, 132.2188
1400.796, 316.5000
1401.849, 466.0938
1402.902, 50.54688
1403.955, 540.0000
1405.007, 815.6406
1406.060, 889.3438
1407.112, 155.5938
1408.164, 464.4219
1409.216, 355.4844
1410.268, 229.4688
1411.320, 685.1562
1412.371, 68.78125
1413.423, 515.2188
1414.474, 537.4844
1415.525, 753.8438
1416.576, 549.7344
1417.627, 475.6562
1418.678, 821.9844
1419.728, 935.5469
1420.778, 683.0312
1421.829, 911.9375
1422.879, 280.9688
1423.928, 405.2344
1424.978, 854.2344
1426.028, 623.0781
1427.077, 859.5312
1428.126, 917.9062
1429.176, 166.9219
1430.225, 823.6719
1431.273, 871.5625
1432.322, 294.4062
1433.371, 903.0625
1434.419, 412.0781
1435.467, 317.3281
1436.515, 514.2344
1437.563, 403.2969
1438.611, 778.0156
1439.658, 684.8906
1440.706, 550.0781
1441.753, 597.6562
1442.800, 477.0938
1443.847, 618.2031
1444.894, 453.0938
1445.941, 613.2969
1446.987, 847.3594
1448.034, 516.6250
1449.080, 784.1562
1450.126, 124.0469
1451.172, 243.6250
1452.218, 276.1562
1453.263, 805.3594
1454.309, 148.8750
1455.354, 240.5312
1456.399, 652.5625
1457.444, 617.7188
1458.489, 769.8438
1459.534, 368.9531
1460.579, 487.5938
1461.623, 463.0625
1462.667, 933.3594
1463.711, 1013.078
1464.755, 621.7969
1465.799, 232.6250
1466.843, 738.8594
1467.886, 396.3906
1468.930, 511.8438
1469.973, 154.2969
1471.016, 205.0625
1472.059, 249.0312
1473.101, 502.5156
1474.144, 461.0312
1475.186, 562.2188
1476.229, 528.8281
1477.271, 632.6250
1478.313, 724.0469
1479.355, 782.2188
1480.396, 687.9844
1481.438, 879.1094
1482.479, 462.7031
1483.520, 276.8750
1484.561, 233.1875
1485.602, 984.5312
1486.643, 1007.672
1487.684, 180.8281
1488.724, 898.0312
1489.765, 665.4531
1490.805, 715.0469
1491.845, 661.7656
1492.885, 638.9219
1493.924, 679.9219
1494.964, 328.8438
1496.003, 844.9219
1497.042, 652.4219
1498.082, 941.5781
1499.120, 353.2812
1500.159, 285.8906
1501.198, 356.6406
1502.236, 477.8438
1503.275, 196.3906
1504.313, 301.4531
1505.351, 274.2500
1506.389, 231.0000
1507.427, 258.1875
1508.464, 201.4219
1509.502, 93.42188
1510.539, 633.1562
1511.576, 164.9688
1512.613, 646.7656
1513.650, 824.1250
1514.687, 589.8438
1515.723, 574.1094
1516.759, 143.5000
1517.796, 349.3906
1518.832, 336.3906
1519.868, 684.0625
1520.903, 255.2188
1521.939, 720.4531
1522.975, 312.7656
1524.010, 814.2344
1525.045, 388.1094
1526.080, 392.2656
1527.115, 205.0000
1528.150, 29.12500
1529.184, 143.0000
1530.219, 373.0156
1531.253, 541.2031
1532.287, 688.7031
1533.321, 805.6406
1534.355, 465.8281
1535.388, 1117.125
1536.422, 202.5312
1537.455, 826.0781
1538.488, 802.7500
1539.522, 556.5469
1540.554, 180.5156
1541.587, 495.6094
1542.620, 862.8750
1543.652, 1161.297
1544.685, 865.9219
1545.717, 711.7188
1546.749, 804.7344
1547.781, 30.01562
1548.812, 78.48438
1549.844, 664.2500
1550.875, 188.2969
1551.906, 319.6562
1552.938, 723.3281
1553.968, 662.5781
1554.999, 469.8906
1556.030, 485.6094
1557.060, 449.6875
1558.091, 692.1562
1559.121, 64.95312
1560.151, 444.4062
1561.181, 278.2500
1562.211, 826.6250
1563.240, 413.5938
1564.270, 403.4844
1565.299, 545.3125
1566.328, 382.7969
1567.357, 591.2344
1568.386, 828.4688
1569.415, 305.2656
1570.443, 599.9688
1571.472, 273.2656
1572.500, 207.7812
1573.528, 1060.812
1574.556, 6.062500
1575.584, 926.3438
1576.611, 186.9375
1577.639, 660.3594
1578.666, 0.0000000E+00
##END=



