##NAMES=Olivenite
##RRUFFID=R040181
##IDEAL CHEMISTRY=Cu^2+^_2_As^5+^O_4_(OH)
##LOCALITY=Majuba Hill, Pershing County, Nevada, USA
##OWNER=RRUFF
##SOURCE=University of Arizona Mineral Museum
##DESCRIPTION=Greenish blue prismatic, untwinned. Structure for this sample reported in Li et al (2008).
##STATUS=The identification of this mineral has been confirmed by X-ray diffraction and chemical analysis
##URL=rruff.info/R040181
##MEASURED CHEMISTRY=(Cu_0.98_[box]_0.02_)_2_(As_0.90_P_0.10_O_4_)(OH)_0.92_
##PIN_ID=S00027
##ORIENTATION=Laser parallel to -c* (0 0 -1). Fiducial mark perpendicular to laser is parallel to a [1 0 0]
63.58900, 0.0000000E+00
64.83300, 109.8432
66.07600, 75.88635
67.32000, 209.0543
68.56300, 244.9247
69.80600, 368.9729
71.04900, 191.9911
72.29100, 146.9017
73.53400, 19.57855
74.77600, 72.57086
76.01800, 121.1664
77.26000, 8.788696
78.50200, 6.949341
79.74300, 99.90112
80.98500, 168.3656
82.22600, 450.0925
83.46700, 722.7615
84.70800, 999.0608
85.94900, 1375.699
87.18900, 1780.416
88.42900, 2114.995
89.67000, 2529.265
90.91000, 2841.073
92.14900, 2963.281
93.38900, 3023.759
94.62900, 3038.387
95.86800, 2964.056
97.10700, 2968.662
98.34600, 3060.112
99.58500, 3197.467
100.8230, 3439.205
102.0620, 3722.649
103.3000, 4126.517
104.5380, 4619.688
105.7760, 5030.069
107.0140, 5285.594
108.2510, 5481.198
109.4890, 5776.838
110.7260, 5952.496
111.9630, 6031.190
113.2000, 6046.946
114.4360, 6028.761
115.6730, 5949.621
116.9090, 5915.477
118.1450, 5690.291
119.3810, 5605.022
120.6170, 5466.636
121.8530, 5144.106
123.0880, 4915.397
124.3230, 4479.484
125.5590, 4207.344
126.7930, 4090.950
128.0280, 3846.283
129.2630, 3982.320
130.4970, 3919.044
131.7310, 3847.439
132.9650, 3811.485
134.1990, 3856.168
135.4330, 3673.473
136.6670, 3531.385
137.9000, 3611.766
139.1330, 3427.223
140.3660, 3584.748
141.5990, 3878.331
142.8320, 4203.989
144.0640, 4770.645
145.2960, 5267.430
146.5290, 6279.423
147.7610, 7331.650
148.9920, 8723.132
150.2240, 9962.879
151.4550, 11369.91
152.6870, 12803.23
153.9180, 14204.86
155.1490, 15277.91
156.3800, 16212.60
157.6100, 16787.13
158.8400, 16930.57
160.0710, 16441.93
161.3010, 15695.17
162.5310, 14805.25
163.7600, 13347.05
164.9900, 11938.43
166.2190, 10960.19
167.4480, 10224.19
168.6770, 9869.438
169.9060, 10099.92
171.1350, 10303.65
172.3630, 10466.63
173.5920, 10920.84
174.8200, 11073.30
176.0480, 11197.01
177.2760, 11152.95
178.5030, 10714.14
179.7310, 10148.57
180.9580, 9442.241
182.1850, 8617.155
183.4120, 8020.310
184.6390, 7333.702
185.8650, 6881.334
187.0920, 6337.204
188.3180, 5716.312
189.5440, 5237.654
190.7700, 4922.230
191.9960, 4425.041
193.2210, 4077.085
194.4470, 3954.363
195.6720, 3861.873
196.8970, 3897.613
198.1220, 4143.584
199.3460, 4424.787
200.5710, 4966.216
201.7950, 5545.871
203.0190, 6329.753
204.2430, 7274.858
205.4670, 8423.188
206.6910, 9724.605
207.9140, 11199.50
209.1370, 12835.49
210.3610, 14588.68
211.5840, 16497.19
212.8060, 18620.44
214.0290, 20702.43
215.2510, 22378.50
216.4740, 23697.67
217.6960, 24813.35
218.9180, 25642.94
220.1390, 26073.98
221.3610, 25548.33
222.5820, 24249.25
223.8030, 23226.59
225.0240, 21429.96
226.2450, 19269.91
227.4660, 17516.45
228.6870, 15646.49
229.9070, 14074.99
231.1270, 12585.95
232.3470, 11212.34
233.5670, 10344.15
234.7870, 9501.366
236.0060, 8361.970
237.2250, 7522.955
238.4440, 6944.305
239.6630, 6140.011
240.8820, 5346.060
242.1010, 4619.444
243.3190, 3994.152
244.5380, 3256.788
245.7560, 2919.619
246.9740, 2451.410
248.1910, 1998.054
249.4090, 1776.693
250.6260, 1658.395
251.8440, 1580.656
253.0610, 1489.298
254.2780, 1550.549
255.4940, 1508.401
256.7110, 1577.543
257.9270, 1570.590
259.1430, 1768.347
260.3600, 1949.960
261.5750, 2109.707
262.7910, 2263.168
264.0070, 2711.394
265.2220, 3125.807
266.4370, 3575.365
267.6520, 4330.489
268.8670, 5073.382
270.0820, 6106.465
271.2960, 7657.734
272.5100, 9318.181
273.7250, 11380.81
274.9390, 13910.61
276.1520, 16584.59
277.3660, 19469.73
278.5790, 22431.03
279.7930, 25439.51
281.0060, 28301.13
282.2190, 30403.92
283.4320, 32114.86
284.6440, 32604.96
285.8570, 32169.21
287.0690, 30761.60
288.2810, 28507.15
289.4930, 25630.85
290.7050, 22728.70
291.9160, 19675.70
293.1270, 17343.85
294.3390, 15331.15
295.5500, 13694.60
296.7610, 12502.19
297.9710, 11747.93
299.1820, 11484.82
300.3920, 11298.84
301.6020, 11421.01
302.8120, 11691.32
304.0220, 12123.76
305.2320, 12576.34
306.4410, 12995.04
307.6510, 13164.89
308.8600, 13359.85
310.0690, 13518.95
311.2780, 13381.19
312.4860, 13078.55
313.6950, 12498.04
314.9030, 12018.66
316.1110, 11166.43
317.3190, 10102.33
318.5270, 9033.381
319.7350, 8458.565
320.9420, 7415.883
322.1490, 6770.347
323.3570, 6282.949
324.5630, 5758.688
325.7700, 5444.560
326.9770, 5130.578
328.1830, 4905.700
329.3900, 4799.963
330.5960, 4680.352
331.8020, 4659.886
333.0070, 4583.680
334.2130, 4404.314
335.4180, 4461.205
336.6230, 4399.190
337.8290, 4239.284
339.0330, 4252.497
340.2380, 4357.834
341.4430, 4341.297
342.6470, 4347.861
343.8510, 4273.545
345.0550, 4297.331
346.2590, 4226.201
347.4630, 4155.151
348.6660, 4008.196
349.8700, 3838.341
351.0730, 3581.572
352.2760, 3236.880
353.4790, 2979.267
354.6810, 2644.726
355.8840, 2394.896
357.0860, 2270.980
358.2880, 1882.834
359.4900, 1761.838
360.6920, 1483.011
361.8940, 1416.324
363.0950, 1381.791
364.2960, 1233.415
365.4980, 1194.187
366.6990, 1080.123
367.8990, 978.2275
369.1000, 877.5049
370.3000, 826.9082
371.5010, 848.4336
372.7010, 639.0723
373.9010, 693.8201
375.1010, 556.6765
376.3000, 383.6350
377.5000, 499.6953
378.6990, 310.8528
379.8980, 405.1042
381.0970, 306.4463
382.2960, 299.8821
383.4940, 244.4038
384.6920, 175.0125
385.8910, 139.7031
387.0890, 86.48120
388.2870, 70.65942
389.4840, 164.7544
390.6820, 285.8403
391.8790, 313.9670
393.0770, 444.1492
394.2740, 436.4460
395.4700, 476.8564
396.6670, 475.4023
397.8640, 515.0874
399.0600, 425.9314
400.2560, 479.8972
401.4520, 450.0120
402.6480, 401.2649
403.8440, 483.6370
405.0390, 327.1672
406.2350, 294.7886
407.4300, 283.4900
408.6250, 115.2683
409.8200, 112.0564
411.0140, 26.14429
412.2090, 185.3828
413.4030, 151.6682
414.5970, 361.0000
415.7910, 538.3774
416.9850, 568.7991
418.1790, 742.2637
419.3720, 802.7700
420.5660, 743.3169
421.7590, 790.9036
422.9520, 836.5291
424.1440, 854.1924
425.3370, 788.8921
426.5300, 608.6274
427.7220, 624.3975
428.9140, 512.2012
430.1060, 525.0374
431.2980, 338.9053
432.4890, 424.8037
433.6810, 267.7319
434.8720, 312.6890
436.0630, 373.6736
437.2540, 317.6853
438.4450, 322.6123
439.6350, 345.7891
440.8260, 244.8699
442.0160, 366.9783
443.2060, 347.1084
444.3960, 328.2600
445.5860, 325.9324
446.7750, 324.2305
447.9650, 364.0469
449.1540, 470.2102
450.3430, 471.7476
451.5320, 519.6833
452.7210, 533.7812
453.9090, 480.7432
455.0980, 471.7053
456.2860, 550.8701
457.4740, 492.8840
458.6620, 555.8972
459.8500, 571.4058
461.0370, 653.9568
462.2250, 678.4985
463.4120, 705.0303
464.5990, 632.8315
465.7860, 702.6313
466.9720, 751.6929
468.1590, 801.7021
469.3450, 853.0566
470.5320, 925.4934
471.7180, 1180.709
472.9030, 1192.191
474.0890, 1350.917
475.2750, 1525.661
476.4600, 1627.688
477.6450, 1754.461
478.8300, 2058.359
480.0150, 2170.539
481.2000, 2503.914
482.3840, 2717.728
483.5690, 3130.696
484.7530, 3436.815
485.9370, 3955.341
487.1210, 4463.554
488.3040, 4900.064
489.4880, 5482.480
490.6710, 6158.815
491.8540, 6760.623
493.0370, 7280.835
494.2200, 7941.815
495.4030, 8494.093
496.5850, 9178.836
497.7680, 9660.568
498.9500, 9929.799
500.1320, 10094.37
501.3140, 10117.19
502.4950, 10128.45
503.6770, 9725.775
504.8580, 9444.014
506.0390, 9067.388
507.2200, 8691.762
508.4010, 8301.093
509.5820, 8104.930
510.7620, 7832.663
511.9420, 7761.677
513.1230, 7894.691
514.3030, 8039.550
515.4820, 8118.992
516.6620, 8457.123
517.8420, 8971.823
519.0210, 9167.184
520.2000, 9716.985
521.3790, 10144.59
522.5580, 10502.87
523.7360, 10752.88
524.9150, 10973.74
526.0930, 10993.89
527.2710, 11072.78
528.4490, 11017.07
529.6270, 10661.62
530.8050, 10109.75
531.9820, 9402.908
533.1590, 9045.434
534.3360, 8472.423
535.5130, 7798.476
536.6900, 7057.888
537.8670, 6428.807
539.0430, 6173.500
540.2200, 5671.878
541.3960, 5278.855
542.5720, 4958.625
543.7470, 4796.919
544.9230, 4487.464
546.0980, 4410.576
547.2740, 4222.568
548.4490, 4118.943
549.6240, 3879.858
550.7990, 3858.735
551.9730, 3803.527
553.1480, 3605.858
554.3220, 3530.567
555.4960, 3325.229
556.6700, 3233.925
557.8440, 2991.495
559.0170, 2808.016
560.1910, 2688.490
561.3640, 2515.916
562.5370, 2324.292
563.7100, 2199.620
564.8830, 1962.899
566.0550, 1717.127
567.2280, 1679.306
568.4000, 1500.435
569.5720, 1247.512
570.7440, 1111.539
571.9160, 953.5139
573.0870, 940.4373
574.2590, 846.3088
575.4300, 632.1279
576.6010, 655.8945
577.7720, 560.6079
578.9430, 494.2686
580.1140, 367.8755
581.2840, 328.4287
582.4540, 274.9282
583.6240, 217.3735
584.7940, 202.7649
585.9640, 140.1018
587.1340, 173.3779
588.3030, 135.5967
589.4720, 116.7539
590.6410, 33.84570
591.8100, 133.8499
592.9790, 45.79077
594.1480, 24.35156
595.3160, 50.38721
596.4840, 22.04370
597.6520, 8.394043
598.8200, 71.94287
599.9880, 16.36450
601.1560, 64.42578
602.3230, 48.35645
603.4900, 16.41895
604.6570, 84.59668
605.8240, 52.92505
606.9910, 57.38770
608.1580, 40.98633
609.3240, 94.71240
610.4900, 65.40576
611.6570, 93.55396
612.8230, 34.66821
613.9880, 118.9055
615.1540, 40.31006
616.3190, 2.160156
617.4850, 42.47290
618.6500, 78.76880
619.8150, 3.063232
620.9790, 54.99902
622.1440, 63.06616
623.3080, 98.54858
624.4730, 9.378174
625.6370, 78.07153
626.8010, 10.66187
627.9640, 80.64307
629.1280, 82.87793
630.2910, 0.9572750
631.4550, 25.89014
632.6180, 15.06763
633.7810, 94.93726
634.9440, 36.74146
636.1060, 105.4675
637.2690, 0.8691410
638.4310, 74.29883
639.5930, 17.14111
640.7550, 7.500244
641.9170, 80.23535
643.0780, 15.89893
644.2400, 20.04614
645.4010, 40.08887
646.5620, 26.23828
647.7230, 75.48584
648.8840, 53.85693
650.0450, 70.33862
651.2050, 3.061035
652.3650, 0.3820800
653.5250, 36.62427
654.6850, 51.80029
655.8450, 23.91382
657.0050, 74.95996
658.1640, 40.94873
659.3230, 68.87500
660.4830, 80.74463
661.6420, 109.5596
662.8000, 22.32227
663.9590, 129.0232
665.1170, 47.85010
666.2760, 139.2688
667.4340, 2.814941
668.5920, 35.29834
669.7500, 125.7256
670.9070, 127.1211
672.0650, 104.5020
673.2220, 81.89233
674.3790, 130.2986
675.5360, 71.75146
676.6930, 100.2480
677.8500, 145.8000
679.0060, 85.40942
680.1620, 82.08521
681.3190, 91.80811
682.4750, 59.51904
683.6300, 113.4299
684.7860, 44.31396
685.9420, 71.26050
687.0970, 86.23779
688.2520, 50.24023
689.4070, 50.26465
690.5620, 71.27759
691.7170, 148.2800
692.8710, 127.2480
694.0250, 126.1765
695.1800, 53.06567
696.3340, 74.91528
697.4870, 100.7256
698.6410, 200.4980
699.7950, 124.2327
700.9480, 99.92993
702.1010, 174.5901
703.2540, 110.2139
704.4070, 182.8013
705.5600, 195.3525
706.7120, 184.8687
707.8640, 187.3496
709.0170, 319.7957
710.1690, 357.2075
711.3210, 374.5854
712.4720, 473.9297
713.6240, 415.2415
714.7750, 522.5232
715.9260, 414.7727
717.0770, 527.9927
718.2280, 535.1875
719.3790, 532.3606
720.5290, 506.5120
721.6800, 594.6448
722.8300, 651.7739
723.9800, 589.8960
725.1300, 523.5193
726.2800, 577.5154
727.4290, 528.9873
728.5790, 603.1021
729.7280, 575.8452
730.8770, 554.1792
732.0260, 557.3223
733.1750, 496.6350
734.3230, 486.9141
735.4720, 464.9775
736.6200, 393.1836
737.7680, 542.3843
738.9160, 499.0845
740.0640, 359.7278
741.2110, 488.3740
742.3590, 426.0239
743.5060, 383.3955
744.6530, 394.7534
745.8000, 446.8337
746.9470, 389.9600
748.0930, 433.7256
749.2400, 448.3918
750.3860, 395.2690
751.5320, 379.8643
752.6780, 373.1978
753.8240, 405.5015
754.9690, 445.5049
756.1150, 325.7468
757.2600, 485.8555
758.4050, 516.6636
759.5500, 425.2573
760.6950, 462.3938
761.8400, 426.3567
762.9840, 356.1548
764.1280, 400.5259
765.2730, 404.1919
766.4170, 534.5388
767.5600, 559.9609
768.7040, 600.4431
769.8470, 655.4341
770.9910, 694.9990
772.1340, 700.7759
773.2770, 662.2363
774.4200, 762.2139
775.5620, 886.1865
776.7050, 819.6377
777.8470, 988.7268
778.9890, 990.5537
780.1310, 1047.912
781.2730, 1222.184
782.4150, 1201.519
783.5570, 1320.700
784.6980, 1455.856
785.8390, 1450.032
786.9800, 1707.677
788.1210, 1842.404
789.2620, 2056.822
790.4020, 2181.215
791.5430, 2360.740
792.6830, 2468.656
793.8230, 2721.057
794.9630, 2844.467
796.1020, 3044.386
797.2420, 3211.837
798.3810, 3264.465
799.5210, 3440.380
800.6600, 3414.232
801.7990, 3552.323
802.9370, 3754.793
804.0760, 3803.000
805.2140, 3807.761
806.3530, 4000.246
807.4910, 4057.514
808.6290, 4157.829
809.7660, 4370.086
810.9040, 4514.291
812.0420, 4690.690
813.1790, 4786.917
814.3160, 4985.319
815.4530, 5264.802
816.5900, 5278.221
817.7260, 5723.666
818.8630, 5941.188
819.9990, 6344.615
821.1350, 6649.232
822.2710, 7178.635
823.4070, 7654.223
824.5430, 8066.912
825.6780, 8969.484
826.8130, 9796.099
827.9490, 10816.84
829.0840, 12114.65
830.2180, 13555.48
831.3530, 15102.35
832.4880, 17361.16
833.6220, 19486.08
834.7560, 21843.03
835.8900, 25194.01
837.0240, 28261.03
838.1580, 31895.07
839.2910, 35577.15
840.4250, 39600.25
841.5580, 43964.38
842.6910, 48832.55
843.8240, 54305.74
844.9560, 61003.98
846.0890, 68640.23
847.2210, 78482.55
848.3540, 89630.87
849.4860, 102847.2
850.6180, 116532.2
851.7490, 130531.6
852.8810, 142580.4
854.0120, 151733.3
855.1440, 155341.6
856.2750, 153748.2
857.4060, 145912.2
858.5360, 132736.8
859.6670, 115858.3
860.7980, 98347.29
861.9280, 81686.59
863.0580, 67040.16
864.1880, 55505.98
865.3180, 46268.82
866.4470, 38671.75
867.5770, 32409.59
868.7060, 27714.00
869.8350, 24003.09
870.9640, 20843.21
872.0930, 19050.27
873.2220, 16396.15
874.3500, 14296.24
875.4790, 12912.63
876.6070, 11533.67
877.7350, 10603.09
878.8630, 9628.962
879.9900, 8796.664
881.1180, 8127.440
882.2450, 7502.406
883.3730, 7029.364
884.5000, 6451.381
885.6260, 5925.871
886.7530, 5619.024
887.8800, 5217.250
889.0060, 4857.053
890.1320, 4634.445
891.2580, 4326.372
892.3840, 4161.995
893.5100, 3902.579
894.6360, 3564.234
895.7610, 3426.975
896.8860, 3212.795
898.0120, 3047.757
899.1360, 2850.735
900.2610, 2448.802
901.3860, 2362.950
902.5100, 2270.150
903.6350, 1920.426
904.7590, 1873.766
905.8830, 1626.195
907.0070, 1575.684
908.1300, 1454.562
909.2540, 1360.188
910.3770, 1288.155
911.5000, 1210.976
912.6230, 1086.864
913.7460, 1118.822
914.8690, 942.8711
915.9910, 899.0056
917.1140, 1058.194
918.2360, 904.4624
919.3580, 873.8103
920.4800, 1002.229
921.6020, 868.7495
922.7230, 894.3618
923.8440, 863.0537
924.9660, 946.8125
926.0870, 872.6333
927.2080, 799.5037
928.3280, 852.8052
929.4490, 901.7761
930.5700, 689.7935
931.6900, 798.8623
932.8100, 794.9768
933.9300, 803.1416
935.0500, 767.3523
936.1690, 776.5068
937.2890, 727.9045
938.4080, 763.2437
939.5270, 792.6240
940.6460, 773.0571
941.7650, 808.5420
942.8840, 914.0764
944.0020, 927.6494
945.1200, 962.2671
946.2390, 985.9258
947.3570, 1024.623
948.4750, 1078.359
949.5920, 1190.138
950.7100, 1354.958
951.8270, 1430.819
952.9440, 1576.718
954.0610, 1732.658
955.1780, 1674.635
956.2950, 1817.651
957.4120, 1909.706
958.5280, 1866.797
959.6440, 1834.927
960.7600, 1842.094
961.8760, 1669.297
962.9920, 1518.537
964.1080, 1379.812
965.2230, 1236.122
966.3380, 1034.468
967.4540, 815.8481
968.5690, 716.2627
969.6830, 621.7112
970.7980, 570.1938
971.9120, 499.7729
973.0270, 422.3567
974.1410, 389.8450
975.2550, 291.4648
976.3690, 210.1204
977.4820, 177.8101
978.5960, 123.3311
979.7090, 105.2983
980.8230, 89.09375
981.9360, 44.92383
983.0490, 69.78589
984.1610, 26.32007
985.2740, 38.59937
986.3860, 19.44897
987.4980, 53.46997
988.6110, 65.47266
989.7220, 71.46118
990.8340, 82.43872
991.9460, 163.4075
993.0570, 140.3984
994.1690, 192.4033
995.2800, 55.44312
996.3910, 30.46875
997.5010, 45.52612
998.6120, 91.45093
999.7230, 42.57227
1000.833, 32.37720
1001.943, 15.30859
1003.053, 6.782471
1004.163, 17.89990
1005.273, 29.95703
1006.382, 51.79712
1007.492, 54.62769
1008.601, 17.55005
1009.710, 48.24780
1010.819, 56.03638
1011.927, 38.81958
1013.036, 75.40845
1014.144, 20.65894
1015.253, 60.06812
1016.361, 4.207031
1017.469, 148.5022
1018.576, 40.18164
1019.684, 22.14087
1020.791, 127.4834
1021.899, 40.15503
1023.006, 80.21143
1024.113, 10.40332
1025.220, 54.23193
1026.326, 81.16357
1027.433, 94.89233
1028.539, 86.27368
1029.645, 51.87842
1030.751, 24.39966
1031.857, 100.0471
1032.963, 175.2239
1034.068, 39.19482
1035.174, 19.99390
1036.279, 135.9900
1037.384, 60.19873
1038.489, 81.13306
1039.594, 108.1558
1040.698, 2.947998
1041.803, 92.66309
1042.907, 18.48291
1044.011, 107.8523
1045.115, 68.12256
1046.219, 103.2590
1047.323, 107.3362
1048.426, 89.11450
1049.529, 66.26367
1050.632, 66.03076
1051.735, 68.61035
1052.838, 58.11108
1053.941, 59.78101
1055.043, 44.70874
1056.146, 107.9829
1057.248, 47.74146
1058.350, 119.3140
1059.452, 114.6045
1060.554, 21.33447
1061.655, 119.7095
1062.757, 102.0254
1063.858, 80.14648
1064.959, 86.47607
1066.060, 149.1360
1067.161, 64.92188
1068.261, 164.6738
1069.362, 140.5432
1070.462, 57.20190
1071.562, 211.4248
1072.662, 187.4270
1073.762, 167.3318
1074.862, 157.3843
1075.961, 156.2258
1077.061, 127.1655
1078.160, 146.2388
1079.259, 175.0229
1080.358, 169.0029
1081.456, 192.4033
1082.555, 193.1018
1083.653, 180.2456
1084.751, 197.3455
1085.850, 185.3352
1086.947, 191.2319
1088.045, 180.0618
1089.143, 148.2158
1090.240, 184.6313
1091.338, 205.0085
1092.435, 210.0425
1093.532, 154.6191
1094.628, 177.2466
1095.725, 168.5847
1096.822, 158.5649
1097.918, 192.0859
1099.014, 145.2231
1100.110, 177.9705
1101.206, 178.8850
1102.302, 194.4387
1103.397, 178.4753
1104.493, 172.1165
1105.588, 197.7837
1106.683, 205.9668
1107.778, 186.8726
1108.873, 203.5535
1109.967, 126.0405
1111.062, 141.8052
1112.156, 93.54077
1113.250, 199.4114
1114.344, 165.8491
1115.438, 168.1421
1116.531, 140.8665
1117.625, 190.4570
1118.718, 231.4355
1119.811, 196.4685
1120.904, 214.1240
1121.997, 177.2974
1123.090, 190.3115
1124.183, 186.6372
1125.275, 187.9250
1126.367, 179.3269
1127.459, 172.2583
1128.551, 174.5715
1129.643, 157.5322
1130.735, 166.4670
1131.826, 167.4197
1132.917, 149.2151
1134.008, 182.7205
1135.099, 200.5415
1136.190, 203.0503
1137.281, 144.1636
1138.371, 162.6526
1139.462, 149.6426
1140.552, 137.2678
1141.642, 166.7703
1142.732, 115.5332
1143.821, 144.7271
1144.911, 143.2178
1146.000, 156.3220
1147.090, 135.7744
1148.179, 126.9683
1149.268, 149.7434
1150.356, 153.5632
1151.445, 109.0471
1152.533, 122.5432
1153.622, 102.5342
1154.710, 118.9856
1155.798, 10.94458
1156.886, 119.2480
1157.973, 20.61523
1159.061, 7.947021
1160.148, 59.23730
1161.235, 24.50195
1162.322, 32.01245
1163.409, 14.97876
1164.496, 14.84912
1165.583, 26.25244
1166.669, 61.63501
1167.755, 37.36523
1168.841, 35.68311
1169.927, 49.20093
1171.013, 39.94604
1172.099, 22.48462
1173.184, 119.7629
1174.269, 16.43701
1175.355, 30.88672
1176.440, 12.40234
1177.524, 75.97461
1178.609, 29.36230
1179.694, 78.66138
1180.778, 21.06787
1181.862, 1.858887
1182.946, 19.29761
1184.030, 50.58862
1185.114, 38.55298
1186.197, 26.41040
1187.281, 3.666748
1188.364, 19.20215
1189.447, 62.02710
1190.530, 45.07983
1191.613, 58.73706
1192.696, 61.91797
1193.778, 32.60815
1194.860, 62.25806
1195.943, 17.87549
1197.025, 44.44775
1198.107, 105.9827
1199.188, 92.48975
1200.270, 126.9678
1201.351, 69.41846
1202.432, 37.83643
1203.514, 12.21533
1204.594, 8.847900
1205.675, 97.82959
1206.756, 40.08301
1207.836, 75.29761
1208.917, 112.4800
1209.997, 85.63379
1211.077, 61.75684
1212.157, 48.84521
1213.236, 74.89600
1214.316, 77.91455
1215.395, 83.55859
1216.474, 91.42920
1217.553, 96.77954
1218.632, 94.67358
1219.711, 96.53711
1220.790, 97.48267
1221.868, 119.1738
1222.946, 105.9487
1224.024, 127.6943
1225.102, 116.4114
1226.180, 127.0996
1227.258, 148.7598
1228.335, 141.3926
1229.413, 163.9978
1230.490, 171.5759
1231.567, 143.1274
1232.644, 137.3821
1233.720, 176.1470
1234.797, 89.61621
1235.873, 90.05444
1236.950, 76.46167
1238.026, 100.8362
1239.102, 49.18115
1240.177, 86.48877
1241.253, 87.66235
1242.328, 76.46973
1243.404, 115.3608
1244.479, 138.2024
1245.554, 145.8564
1246.629, 92.92334
1247.703, 118.1638
1248.778, 112.0386
1249.852, 104.6052
1250.926, 140.7847
1252.001, 96.54443
1253.074, 131.9949
1254.148, 135.6265
1255.222, 153.8157
1256.295, 140.4744
1257.369, 136.8550
1258.442, 164.7563
1259.515, 175.1660
1260.587, 158.1135
1261.660, 177.1279
1262.733, 131.6382
1263.805, 142.7078
1264.877, 178.1653
1265.949, 162.5769
1267.021, 182.0505
1268.093, 188.1453
1269.164, 133.5022
1270.236, 184.4343
1271.307, 189.6794
1272.378, 148.0186
1273.449, 195.2791
1274.520, 160.0388
1275.591, 154.2148
1276.661, 170.5291
1277.731, 163.7461
1278.802, 193.3521
1279.872, 187.8613
1280.941, 179.2122
1282.011, 184.2173
1283.081, 176.5903
1284.150, 188.5571
1285.219, 175.7566
1286.288, 189.1306
1287.357, 206.7009
1288.426, 181.2378
1289.495, 202.4053
1290.563, 152.8804
1291.632, 161.8284
1292.700, 163.7695
1293.768, 201.1145
1294.836, 151.8149
1295.903, 153.5688
1296.971, 184.7661
1298.038, 178.4863
1299.106, 190.4399
1300.173, 156.3298
1301.240, 162.2544
1302.306, 151.2883
1303.373, 183.9424
1304.439, 186.3484
1305.506, 154.5378
1306.572, 118.8518
1307.638, 156.4348
1308.704, 131.5601
1309.769, 137.0679
1310.835, 108.2830
1311.900, 111.1882
1312.965, 109.4263
1314.031, 124.0930
1315.095, 120.2632
1316.160, 125.7444
1317.225, 122.1775
1318.289, 130.3936
1319.354, 136.9858
1320.418, 141.4182
1321.482, 134.4619
1322.546, 148.0591
1323.609, 116.8579
1324.673, 101.6023
1325.736, 99.49438
1326.799, 156.4170
1327.862, 159.2830
1328.925, 97.88965
1329.988, 151.7332
1331.051, 133.5249
1332.113, 135.5706
1333.175, 129.7253
1334.238, 128.3604
1335.300, 138.5059
1336.361, 130.6426
1337.423, 164.4009
1338.485, 146.8596
1339.546, 163.9617
1340.607, 167.3845
1341.668, 110.6218
1342.729, 159.4929
1343.790, 162.7676
1344.850, 119.2336
1345.911, 164.6885
1346.971, 127.6274
1348.031, 120.0122
1349.091, 134.5457
1350.151, 126.1511
1351.211, 154.0447
1352.270, 146.9954
1353.330, 122.1689
1354.389, 182.5171
1355.448, 103.9446
1356.507, 145.3303
1357.566, 159.7964
1358.624, 121.2549
1359.683, 158.5085
1360.741, 148.1943
1361.799, 189.3796
1362.857, 145.3201
1363.915, 172.2561
1364.973, 150.9980
1366.030, 140.0337
1367.087, 85.24463
1368.145, 118.1011
1369.202, 91.11621
1370.259, 135.8613
1371.315, 77.00781
1372.372, 111.2463
1373.428, 92.51025
1374.485, 110.4062
1375.541, 98.51807
1376.597, 111.6255
1377.653, 91.61182
1378.708, 99.50366
1379.764, 66.76123
1380.819, 99.92529
1381.874, 132.1479
1382.930, 122.3931
1383.984, 109.5767
1385.039, 140.7402
1386.094, 131.3965
1387.148, 125.3223
1388.203, 156.5605
1389.257, 151.8608
1390.311, 189.9797
1391.365, 182.5850
1392.418, 127.4963
1393.472, 178.7336
1394.525, 107.0186
1395.578, 107.5029
1396.631, 131.6096
1397.684, 147.8882
1398.737, 128.1646
1399.790, 86.33447
1400.842, 92.60767
1401.895, 98.29272
1402.947, 141.4744
1403.999, 114.6711
1405.051, 49.89038
1406.102, 145.1587
1407.154, 143.4263
1408.205, 218.6938
1409.256, 135.9612
1410.308, 87.22876
1411.358, 114.4968
1412.409, 80.77368
1413.460, 125.0496
1414.510, 142.3315
1415.561, 157.6311
1416.611, 132.9260
1417.661, 72.15698
1418.711, 73.43555
1419.760, 108.7507
1420.810, 110.0864
1421.859, 160.9368
1422.909, 182.2971
1423.958, 171.6802
1425.007, 126.1392
1426.055, 109.5532
1427.104, 189.9902
1428.153, 72.44946
1429.201, 247.9565
1430.249, 225.4746
1431.297, 234.9160
1432.345, 190.3730
1433.393, 233.8635
1434.440, 275.3601
1435.488, 234.8586
1436.535, 253.3745
1437.582, 199.9038
1438.629, 275.4399
1439.676, 303.9524
1440.723, 263.4668
1441.769, 300.0234
1442.815, 221.5583
1443.862, 259.7205
1444.908, 281.2537
1445.954, 228.7878
1446.999, 306.3206
1448.045, 255.8499
1449.090, 229.3838
1450.136, 251.9202
1451.181, 203.4077
1452.226, 225.8911
1453.271, 238.3625
1454.315, 223.8235
1455.360, 215.4966
1456.404, 175.7722
1457.448, 165.3186
1458.492, 132.8945
1459.536, 103.4839
1460.580, 194.0769
1461.624, 35.68335
1462.667, 170.3030
1463.711, 204.9304
1464.754, 100.5652
1465.797, 186.2068
1466.840, 137.8540
1467.882, 92.50635
1468.925, 167.1631
1469.967, 111.8228
1471.010, 145.4856
1472.052, 98.15283
1473.094, 131.8311
1474.135, 85.52441
1475.177, 160.2390
1476.218, 72.96851
1477.260, 81.71069
1478.301, 126.4631
1479.342, 157.2290
1480.383, 142.0078
1481.424, 137.8010
1482.464, 83.60498
1483.505, 102.4209
1484.545, 100.2476
1485.585, 146.0852
1486.625, 113.9353
1487.665, 87.79761
1488.705, 80.67041
1489.744, 22.55640
1490.783, 34.45532
1491.823, 20.36523
1492.862, 32.25781
1493.901, 6.865479
1494.939, 5.024658
1495.978, 7.187500
1497.016, 67.84644
1498.055, 29.77905
1499.093, 62.72632
1500.131, 84.68945
1501.169, 2.668213
1502.206, 8.641113
1503.244, 82.62720
1504.281, 69.62671
1505.319, 63.63867
1506.356, 4.662598
1507.393, 83.70020
1508.430, 122.7512
1509.466, 67.81494
1510.503, 22.89209
1511.539, 45.98315
1512.575, 65.08301
1513.611, 45.19263
1514.647, 95.31689
1515.683, 3.457031
1516.718, 89.61450
1517.754, 38.79126
1518.789, 72.98755
1519.824, 4.796631
1520.859, 58.43823
1521.894, 75.69238
1522.929, 69.96606
1523.963, 20.25928
1524.998, 108.5735
1526.032, 9.090820
1527.066, 40.26733
1528.100, 79.35205
1529.134, 52.05103
1530.167, 57.47681
1531.201, 50.92603
1532.234, 85.39819
1533.267, 90.89453
1534.300, 59.41504
1535.333, 34.96045
1536.366, 54.53101
1537.398, 33.19189
1538.431, 70.10498
1539.463, 30.74585
1540.495, 38.41699
1541.527, 40.86133
1542.559, 63.58862
1543.591, 33.18530
1544.622, 66.97583
1545.654, 15.19824
1546.685, 56.66528
1547.716, 75.56787
1548.747, 29.25635
1549.778, 75.23486
1550.808, 64.34619
1551.839, 187.4487
1552.869, 90.48877
1553.899, 113.3757
1554.929, 130.3269
1555.959, 52.42651
1556.989, 138.4785
1558.018, 85.47119
1559.048, 32.40283
1560.077, 84.22461
1561.106, 47.98853
1562.135, 65.54663
1563.164, 40.78149
1564.192, 42.33301
1565.221, 14.11450
1566.249, 18.91650
1567.277, 7.738037
1568.306, 53.19360
1569.333, 94.87012
1570.361, 49.23706
1571.389, 130.2275
1572.416, 54.35815
1573.444, 98.56274
1574.471, 82.75562
1575.498, 41.95728
1576.525, 60.28931
1577.551, 34.71265
1578.578, 70.64795
1579.604, 0.0000000E+00
##END=



