##NAMES=Painite
##RRUFFID=R060957
##IDEAL CHEMISTRY=CaZr^4+^Al_9_O_15_(BO_3_)
##LOCALITY=Ohngaing Village, Mogok, Burma
##OWNER=RRUFF
##SOURCE=Marcus Origlieri
##DESCRIPTION=Single crystal, reddish-brown to orangish prism section, several prism forms, small transparent areas.
##STATUS=The identification of this mineral has been confirmed by X-ray diffraction.
##URL=rruff.info/R060957
##PIN_ID=M01433
##ORIENTATION=Laser parallel to c* (0 0 1). Fiducial mark perpendicular to laser is parallel to a [1 0 0]
163.0300, 0.0000000E+00
164.2600, 2.193359
165.4900, 6.195313
166.7200, 120.0918
167.9500, 321.1328
169.1790, 643.9414
170.4080, 1148.666
171.6380, 1695.799
172.8670, 2468.824
174.0950, 3182.047
175.3240, 4093.982
176.5520, 5146.135
177.7810, 7353.635
179.0090, 10637.83
180.2370, 14705.78
181.4640, 19289.96
182.6920, 21600.63
183.9190, 17999.29
185.1460, 11762.53
186.3730, 7217.494
187.6000, 4580.531
188.8270, 2681.570
190.0530, 1666.455
191.2800, 887.8965
192.5060, 606.4688
193.7320, 313.6582
194.9580, 533.8613
196.1830, 217.4668
197.4090, 335.8535
198.6340, 212.2695
199.8590, 392.9199
201.0840, 553.0996
202.3090, 437.2344
203.5340, 683.0977
204.7580, 893.0000
205.9820, 932.2109
207.2060, 1467.586
208.4300, 1896.051
209.6540, 2235.918
210.8780, 2527.254
212.1010, 2807.281
213.3240, 3554.604
214.5470, 4193.199
215.7700, 5365.055
216.9930, 6710.164
218.2150, 8233.512
219.4380, 10001.09
220.6600, 10991.88
221.8820, 11470.84
223.1040, 10261.94
224.3260, 8682.152
225.5470, 6865.482
226.7680, 5259.936
227.9900, 4197.707
229.2110, 3049.754
230.4310, 2196.338
231.6520, 1893.980
232.8720, 1367.686
234.0930, 997.4629
235.3130, 774.3262
236.5330, 757.3105
237.7530, 388.5293
238.9720, 172.0098
240.1920, 212.7637
241.4110, 83.77930
242.6300, 113.9434
243.8490, 46.58008
245.0680, 135.4590
246.2860, 19.37109
247.5040, 98.12891
248.7230, 148.6191
249.9410, 344.3867
251.1590, 3.011719
252.3760, 278.4336
253.5940, 490.7285
254.8110, 129.8828
256.0280, 81.90625
257.2450, 221.8105
258.4620, 22.37305
259.6790, 421.6094
260.8950, 935.8848
262.1120, 600.2012
263.3280, 535.5625
264.5440, 646.9707
265.7600, 530.4316
266.9750, 677.9531
268.1910, 495.5293
269.4060, 472.1719
270.6210, 215.8809
271.8360, 249.6562
273.0510, 230.5039
274.2650, 148.4082
275.4800, 228.3223
276.6940, 435.0664
277.9080, 241.6074
279.1220, 366.9238
280.3360, 380.8867
281.5490, 310.4570
282.7630, 699.7422
283.9760, 834.8691
285.1890, 1130.127
286.4020, 1123.551
287.6150, 1232.143
288.8270, 1206.908
290.0400, 1037.840
291.2520, 893.3223
292.4640, 1048.781
293.6760, 1097.646
294.8870, 1168.273
296.0990, 950.5527
297.3100, 1260.684
298.5210, 1176.992
299.7320, 1523.471
300.9430, 1967.127
302.1540, 2210.951
303.3640, 2648.939
304.5750, 3299.096
305.7850, 4340.418
306.9950, 5185.906
308.2050, 5358.561
309.4140, 5438.428
310.6240, 5078.699
311.8330, 4580.701
313.0420, 3703.148
314.2510, 3171.867
315.4600, 2736.775
316.6680, 2126.818
317.8770, 1589.943
319.0850, 985.1289
320.2930, 598.3457
321.5010, 485.5566
322.7090, 265.7383
323.9160, 73.87891
325.1240, 15.02539
326.3310, 79.98242
327.5380, 87.99609
328.7450, 23.06641
329.9520, 84.21875
331.1580, 44.48828
332.3650, 14.02930
333.5710, 106.9824
334.7770, 225.6172
335.9830, 295.7207
337.1880, 352.7266
338.3940, 450.6504
339.5990, 729.5059
340.8040, 995.0195
342.0090, 1371.068
343.2140, 1818.799
344.4190, 2163.506
345.6230, 2764.197
346.8280, 3219.838
348.0320, 3896.361
349.2360, 4690.539
350.4400, 5158.320
351.6430, 5698.654
352.8470, 5977.506
354.0500, 5587.559
355.2530, 4800.332
356.4560, 4043.859
357.6590, 2611.504
358.8620, 2183.256
360.0640, 1699.119
361.2660, 1111.092
362.4680, 739.1738
363.6700, 811.3652
364.8720, 732.6621
366.0740, 785.0684
367.2750, 778.5801
368.4760, 874.7812
369.6770, 1023.932
370.8780, 1149.766
372.0790, 1301.711
373.2800, 1500.758
374.4800, 1822.910
375.6800, 2697.160
376.8800, 2831.506
378.0800, 3717.955
379.2800, 4429.506
380.4790, 4733.152
381.6790, 4990.271
382.8780, 5181.750
384.0770, 4805.031
385.2760, 4345.664
386.4750, 3861.754
387.6730, 3486.844
388.8720, 3565.070
390.0700, 4101.102
391.2680, 4867.664
392.4660, 5496.383
393.6630, 7034.328
394.8610, 8675.461
396.0580, 10845.91
397.2550, 13387.21
398.4520, 15255.66
399.6490, 15959.29
400.8460, 15051.40
402.0420, 12481.22
403.2390, 9534.781
404.4350, 7152.434
405.6310, 5011.289
406.8270, 3662.352
408.0220, 2630.605
409.2180, 2215.047
410.4130, 2147.645
411.6080, 1365.363
412.8030, 814.1875
413.9980, 651.1133
415.1920, 107.1406
416.3870, 23.72656
417.5810, 32.50391
418.7750, 225.1641
419.9690, 325.7539
421.1630, 453.2812
422.3570, 510.7695
423.5500, 408.2305
424.7430, 405.6367
425.9360, 251.9922
427.1290, 126.2656
428.3220, 309.5625
429.5150, 602.5039
430.7070, 1293.852
431.8990, 2018.730
433.0910, 3101.012
434.2830, 4276.406
435.4750, 5767.910
436.6670, 6886.445
437.8580, 6754.934
439.0490, 5656.410
440.2400, 4481.953
441.4310, 3459.609
442.6220, 2533.383
443.8130, 2235.266
445.0030, 2194.262
446.1930, 2207.371
447.3830, 2559.594
448.5730, 2811.930
449.7630, 2675.375
450.9520, 2349.934
452.1420, 2300.602
453.3310, 2450.367
454.5200, 2210.223
455.7090, 2854.168
456.8980, 3349.203
458.0860, 4316.320
459.2740, 5096.531
460.4630, 6826.824
461.6510, 8183.203
462.8380, 10452.66
464.0260, 12767.22
465.2140, 16317.86
466.4010, 19171.58
467.5880, 22042.40
468.7750, 22828.69
469.9620, 21093.95
471.1490, 18587.03
472.3350, 15517.32
473.5220, 13509.78
474.7080, 11625.13
475.8940, 10745.31
477.0800, 9639.848
478.2650, 8988.484
479.4510, 7984.215
480.6360, 6757.043
481.8210, 5691.969
483.0060, 4603.992
484.1910, 3436.117
485.3760, 2930.336
486.5600, 2330.660
487.7440, 2161.082
488.9290, 2283.605
490.1130, 1807.234
491.2960, 1950.961
492.4800, 1719.793
493.6630, 1663.730
494.8470, 1574.777
496.0300, 1356.938
497.2130, 1004.211
498.3960, 666.6016
499.5780, 393.1094
500.7610, 273.9375
501.9430, 304.4844
503.1250, 307.3438
504.3070, 353.3242
505.4890, 719.4219
506.6710, 700.6367
507.8520, 962.9688
509.0330, 1086.418
510.2140, 1148.980
511.3950, 1412.664
512.5760, 1528.465
513.7570, 1493.379
514.9370, 1526.414
516.1170, 1295.566
517.2980, 1694.832
518.4780, 1854.219
519.6570, 2058.719
520.8370, 2675.332
522.0160, 3186.066
523.1960, 3781.918
524.3750, 4490.883
525.5540, 5598.969
526.7320, 6776.180
527.9110, 7577.516
529.0890, 8421.992
530.2680, 9404.656
531.4460, 10215.47
532.6240, 11346.00
533.8010, 12479.19
534.9790, 14297.66
536.1560, 16095.05
537.3340, 18117.12
538.5110, 20354.63
539.6880, 20612.84
540.8650, 19932.49
542.0410, 17735.64
543.2180, 14942.83
544.3940, 12319.09
545.5700, 9279.711
546.7460, 6881.305
547.9220, 5432.805
549.0970, 4095.195
550.2730, 3475.312
551.4480, 3174.930
552.6230, 2534.309
553.7980, 1688.055
554.9730, 1354.898
556.1470, 1184.832
557.3210, 1082.859
558.4960, 910.6445
559.6700, 1016.859
560.8440, 1027.848
562.0170, 1054.133
563.1910, 1411.840
564.3640, 1971.195
565.5380, 2319.305
566.7110, 2794.660
567.8840, 3582.344
569.0560, 4693.012
570.2290, 5468.059
571.4010, 6605.195
572.5740, 6913.430
573.7460, 7898.750
574.9180, 7740.168
576.0890, 7463.676
577.2610, 6916.273
578.4320, 6525.961
579.6040, 6135.742
580.7750, 6106.613
581.9450, 6175.574
583.1160, 6498.629
584.2870, 7510.773
585.4570, 8356.008
586.6270, 9469.332
587.7980, 10598.75
588.9670, 11865.25
590.1370, 12631.84
591.3070, 13080.52
592.4760, 12778.29
593.6450, 11434.14
594.8140, 10001.09
595.9830, 8475.117
597.1520, 6703.234
598.3210, 5296.438
599.4890, 4288.727
600.6570, 3505.102
601.8250, 2766.562
602.9930, 2294.105
604.1610, 1773.734
605.3290, 1528.445
606.4960, 1326.156
607.6630, 1163.609
608.8300, 1280.094
609.9970, 1091.152
611.1640, 1286.320
612.3300, 1305.570
613.4970, 1790.914
614.6630, 2236.363
615.8290, 2656.895
616.9950, 3182.516
618.1610, 3816.215
619.3260, 4182.000
620.4920, 4360.863
621.6570, 4121.809
622.8220, 3866.832
623.9870, 3383.941
625.1520, 3132.129
626.3160, 2825.398
627.4810, 2157.746
628.6450, 1909.176
629.8090, 1491.684
630.9730, 1460.270
632.1370, 1258.938
633.3000, 1485.684
634.4640, 932.5059
635.6270, 1394.404
636.7900, 1279.383
637.9530, 1575.436
639.1160, 2006.566
640.2780, 2236.773
641.4410, 2613.066
642.6030, 3348.441
643.7650, 4076.898
644.9270, 4965.436
646.0890, 5611.051
647.2500, 6789.746
648.4120, 7324.512
649.5730, 8211.363
650.7340, 9049.293
651.8950, 9519.297
653.0560, 9320.387
654.2160, 8809.568
655.3770, 8564.881
656.5370, 7272.279
657.6970, 6405.775
658.8570, 5312.346
660.0170, 4285.018
661.1760, 3610.812
662.3360, 2682.676
663.4950, 2251.623
664.6540, 1754.641
665.8130, 1393.732
666.9720, 1045.934
668.1310, 780.2207
669.2890, 339.6328
670.4470, 107.1074
671.6050, 32.64648
672.7630, 216.7578
673.9210, 63.20117
675.0790, 375.5977
676.2360, 537.0762
677.3930, 505.7715
678.5510, 374.6367
679.7080, 667.6016
680.8640, 362.8496
682.0210, 463.2031
683.1770, 425.7109
684.3340, 341.3164
685.4900, 374.0234
686.6460, 403.8711
687.8020, 310.9980
688.9570, 321.9062
690.1130, 145.0879
691.2680, 42.28516
692.4230, 95.52344
693.5780, 178.3867
694.7330, 359.8066
695.8880, 788.2539
697.0420, 834.2559
698.1960, 888.3047
699.3510, 1367.393
700.5040, 1763.547
701.6580, 2005.662
702.8120, 2318.125
703.9650, 2756.586
705.1190, 2988.143
706.2720, 3579.789
707.4250, 4028.504
708.5780, 4772.271
709.7300, 5457.070
710.8830, 6626.906
712.0350, 7743.777
713.1870, 8831.684
714.3390, 10254.62
715.4910, 12104.59
716.6430, 13640.59
717.7940, 15385.62
718.9460, 16257.68
720.0970, 16477.77
721.2480, 16136.90
722.3990, 14827.05
723.5500, 13398.24
724.7000, 12124.45
725.8500, 10771.68
727.0010, 9051.949
728.1510, 7954.240
729.3010, 6760.555
730.4500, 6359.896
731.6000, 5550.262
732.7490, 4741.652
733.8980, 4643.066
735.0470, 4244.502
736.1960, 4009.963
737.3450, 4239.443
738.4940, 4112.945
739.6420, 4226.467
740.7900, 3858.008
741.9380, 3904.572
743.0860, 3931.156
744.2340, 4130.762
745.3810, 4037.068
746.5290, 3959.037
747.6760, 3960.707
748.8230, 4083.406
749.9700, 4117.168
751.1170, 4163.990
752.2630, 4178.877
753.4100, 4727.789
754.5560, 4783.744
755.7020, 4881.775
756.8480, 4875.830
757.9940, 5057.051
759.1390, 5238.102
760.2850, 5476.334
761.4300, 5530.641
762.5750, 5912.006
763.7200, 6081.385
764.8650, 6411.885
766.0100, 6555.275
767.1540, 7207.746
768.2980, 7612.232
769.4420, 8199.721
770.5860, 8488.406
771.7300, 8925.902
772.8740, 9465.402
774.0170, 9840.920
775.1610, 10495.43
776.3040, 11079.17
777.4470, 11872.67
778.5900, 12663.95
779.7320, 13727.84
780.8750, 14679.66
782.0170, 16262.08
783.1590, 17600.68
784.3010, 18861.62
785.4430, 20631.10
786.5850, 22275.73
787.7260, 23716.97
788.8680, 24824.73
790.0090, 25952.07
791.1500, 26807.12
792.2910, 27275.86
793.4310, 27218.62
794.5720, 26754.43
795.7120, 25845.06
796.8520, 25187.18
797.9920, 24255.45
799.1320, 23373.89
800.2720, 22223.21
801.4120, 21766.36
802.5510, 21087.86
803.6900, 20044.14
804.8290, 19411.68
805.9680, 18557.05
807.1070, 17684.08
808.2450, 16693.46
809.3840, 16088.59
810.5220, 15241.92
811.6600, 14667.59
812.7980, 13828.00
813.9360, 13365.34
815.0730, 12819.27
816.2110, 12093.95
817.3480, 11633.62
818.4850, 10807.02
819.6220, 9887.613
820.7590, 9005.523
821.8960, 8187.205
823.0320, 7404.207
824.1680, 6771.254
825.3040, 6001.012
826.4400, 5706.066
827.5760, 5298.051
828.7120, 4964.082
829.8470, 4928.404
830.9830, 4566.379
832.1180, 4504.080
833.2530, 3957.379
834.3880, 4222.316
835.5220, 3792.121
836.6570, 4155.721
837.7910, 4056.291
838.9250, 4098.840
840.0590, 4301.361
841.1930, 4571.854
842.3270, 4697.320
843.4600, 4772.756
844.5940, 4766.395
845.7270, 4772.488
846.8600, 4711.258
847.9930, 4645.199
849.1250, 4476.484
850.2580, 4342.734
851.3900, 4107.951
852.5230, 3990.137
853.6550, 3358.287
854.7870, 3244.404
855.9180, 2971.488
857.0500, 3240.535
858.1810, 2690.549
859.3130, 2626.527
860.4440, 2366.469
861.5750, 2004.373
862.7050, 1912.238
863.8360, 1852.068
864.9660, 1791.859
866.0970, 1377.611
867.2270, 1658.324
868.3570, 1276.998
869.4870, 1230.635
870.6160, 1157.229
871.7460, 983.7812
872.8750, 847.2930
874.0040, 808.6562
875.1330, 792.1934
876.2620, 737.9082
877.3910, 607.6348
878.5190, 589.4961
879.6470, 617.4434
880.7760, 495.4414
881.9040, 507.6074
883.0310, 313.3418
884.1590, 573.8281
885.2870, 485.7129
886.4140, 289.4082
887.5410, 489.2988
888.6680, 491.9199
889.7950, 429.3105
890.9220, 279.5117
892.0480, 259.5078
893.1750, 357.2520
894.3010, 208.6484
895.4270, 475.9355
896.5530, 443.7695
897.6790, 184.8535
898.8040, 269.1035
899.9300, 305.0625
901.0550, 308.0820
902.1800, 479.4531
903.3050, 256.2773
904.4300, 281.3926
905.5540, 197.1094
906.6790, 330.0996
907.8030, 263.0312
908.9270, 251.8984
910.0510, 321.7051
911.1750, 206.4531
912.2990, 300.1309
913.4220, 32.74805
914.5450, 97.27539
915.6690, 51.72656
916.7920, 137.0898
917.9140, 123.4609
919.0370, 101.0586
920.1600, 137.7344
921.2820, 64.79883
922.4040, 86.77930
923.5260, 119.6758
924.6480, 38.49414
925.7700, 15.77930
926.8910, 154.1758
928.0130, 26.23828
929.1340, 27.44531
930.2550, 70.74414
931.3760, 48.15430
932.4970, 130.1914
933.6170, 151.5898
934.7380, 12.29297
935.8580, 97.88867
936.9780, 77.40234
938.0980, 99.17383
939.2180, 8.085938
940.3370, 164.7656
941.4570, 201.1816
942.5760, 149.0527
943.6950, 65.84570
944.8140, 22.44727
945.9330, 77.80664
947.0520, 149.2910
948.1700, 126.1289
949.2890, 58.39453
950.4070, 93.93555
951.5250, 101.4609
952.6430, 66.05664
953.7600, 67.63086
954.8780, 214.2344
955.9950, 54.94922
957.1120, 28.28125
958.2290, 108.4863
959.3460, 11.32227
960.4630, 19.81055
961.5800, 52.07617
962.6960, 52.94141
963.8120, 73.63086
964.9280, 176.7441
966.0440, 208.5195
967.1600, 264.2129
968.2760, 347.8340
969.3910, 375.9180
970.5060, 481.7266
971.6210, 472.2617
972.7360, 711.5957
973.8510, 798.8613
974.9660, 988.0566
976.0800, 1427.182
977.1950, 1504.238
978.3090, 1763.223
979.4230, 2425.137
980.5370, 2988.980
981.6500, 3945.756
982.7640, 5062.457
983.8770, 6692.088
984.9900, 8614.652
986.1030, 11045.14
987.2160, 14054.56
988.3290, 16434.91
989.4420, 18261.19
990.5540, 18303.40
991.6660, 16758.54
992.7780, 13909.61
993.8900, 10958.62
995.0020, 8245.555
996.1140, 6128.426
997.2250, 4686.229
998.3360, 3574.961
999.4470, 3105.629
1000.558, 2174.230
1001.669, 1924.758
1002.780, 1445.217
1003.890, 1514.605
1005.001, 968.9258
1006.111, 887.1816
1007.221, 732.3691
1008.331, 560.5039
1009.440, 393.5762
1010.550, 381.5762
1011.659, 339.5039
1012.768, 309.3574
1013.877, 287.0352
1014.986, 248.8398
1016.095, 175.4668
1017.204, 106.0078
1018.312, 83.53711
1019.420, 81.24609
1020.528, 101.1172
1021.636, 84.83594
1022.744, 15.30078
1023.852, 156.5645
1024.959, 115.9707
1026.066, 87.57812
1027.173, 35.29297
1028.280, 162.1445
1029.387, 140.1992
1030.494, 14.55664
1031.600, 37.83008
1032.707, 82.32031
1033.813, 4.968750
1034.919, 224.2637
1036.025, 161.4219
1037.130, 476.5000
1038.236, 311.5137
1039.341, 652.2656
1040.446, 667.1465
1041.552, 544.9609
1042.656, 708.6953
1043.761, 685.3809
1044.866, 866.7637
1045.970, 1114.326
1047.074, 1088.053
1048.179, 1301.088
1049.282, 1131.141
1050.386, 1164.535
1051.490, 1271.668
1052.593, 1293.406
1053.697, 1239.543
1054.800, 1397.445
1055.903, 1484.686
1057.006, 1470.340
1058.108, 1397.344
1059.211, 1469.574
1060.313, 1385.258
1061.415, 1311.422
1062.517, 1350.686
1063.619, 1450.059
1064.721, 1534.879
1065.823, 1459.479
1066.924, 1494.861
1068.025, 1470.340
1069.126, 1428.756
1070.227, 1414.850
1071.328, 1379.088
1072.429, 1368.998
1073.529, 1286.006
1074.629, 1231.336
1075.729, 1222.146
1076.829, 1271.648
1077.929, 1573.395
1079.029, 1165.617
1080.128, 1324.309
1081.228, 1432.547
1082.327, 1218.852
1083.426, 1335.873
1084.525, 1445.625
1085.623, 1254.289
1086.722, 1342.797
1087.820, 1253.047
1088.919, 1276.234
1090.017, 1264.162
1091.115, 1282.871
1092.212, 1390.311
1093.310, 1385.773
1094.407, 1355.838
1095.505, 1326.127
1096.602, 1278.350
1097.699, 1247.627
1098.795, 1186.902
1099.892, 1169.404
1100.989, 1181.309
1102.085, 1147.354
1103.181, 1110.377
1104.277, 1060.365
1105.373, 1088.318
1106.469, 1159.232
1107.564, 995.1152
1108.660, 1316.965
1109.755, 1136.777
1110.850, 1262.557
1111.945, 1240.305
1113.040, 1151.018
1114.134, 1313.699
1115.229, 1258.920
1116.323, 1239.967
1117.417, 1310.553
1118.511, 1223.109
1119.605, 1262.637
1120.698, 1138.133
1121.792, 1178.598
1122.885, 1054.035
1123.978, 1137.520
1125.071, 1255.871
1126.164, 1040.225
1127.257, 1095.045
1128.349, 938.8027
1129.442, 1140.072
1130.534, 1100.693
1131.626, 900.9102
1132.718, 979.1016
1133.810, 928.2676
1134.901, 1135.408
1135.993, 943.5254
1137.084, 878.1211
1138.175, 995.2129
1139.266, 848.4180
1140.357, 858.5898
1141.448, 1018.318
1142.538, 859.9707
1143.628, 838.4219
1144.719, 966.7207
1145.809, 907.9023
1146.898, 915.8555
1147.988, 1085.178
1149.078, 757.6875
1150.167, 937.7363
1151.256, 907.9121
1152.345, 728.8242
1153.434, 836.6641
1154.523, 666.2266
1155.612, 751.6367
1156.700, 845.1875
1157.788, 665.9258
1158.877, 610.9453
1159.964, 751.0156
1161.052, 803.4668
1162.140, 653.6055
1163.227, 721.5176
1164.315, 458.6523
1165.402, 751.6641
1166.489, 661.2656
1167.576, 681.3477
1168.663, 773.7578
1169.749, 631.1426
1170.836, 794.8672
1171.922, 626.5879
1173.008, 551.3066
1174.094, 745.0254
1175.180, 605.7402
1176.265, 607.4668
1177.351, 306.1973
1178.436, 371.9414
1179.521, 613.6934
1180.606, 454.4551
1181.691, 552.2246
1182.776, 524.0059
1183.860, 497.6777
1184.944, 793.5957
1186.029, 421.4121
1187.113, 804.2520
1188.197, 648.1016
1189.280, 460.9668
1190.364, 225.8633
1191.447, 264.8320
1192.531, 232.8203
1193.614, 450.8477
1194.697, 452.8926
1195.779, 309.9746
1196.862, 606.1426
1197.945, 590.3203
1199.027, 153.5254
1200.109, 462.7461
1201.191, 297.9844
1202.273, 318.2773
1203.355, 115.5996
1204.436, 275.9980
1205.518, 245.4102
1206.599, 213.8359
1207.680, 556.2852
1208.761, 344.7715
1209.842, 342.3125
1210.922, 226.9258
1212.003, 19.55664
1213.083, 219.2383
1214.163, 264.9766
1215.243, 295.7344
1216.323, 127.5449
1217.402, 257.4121
1218.482, 218.3691
1219.561, 68.37305
1220.641, 233.4082
1221.720, 42.49219
1222.798, 220.6426
1223.877, 303.8086
1224.956, 30.02734
1226.034, 187.2734
1227.112, 262.5430
1228.191, 271.8340
1229.269, 88.14062
1230.346, 8.531250
1231.424, 14.18945
1232.501, 260.1680
1233.579, 128.5391
1234.656, 356.9453
1235.733, 153.3711
1236.810, 146.8105
1237.886, 103.2695
1238.963, 91.74414
1240.039, 56.11914
1241.116, 86.74609
1242.192, 7.275391
1243.268, 10.82227
1244.343, 35.38477
1245.419, 135.9668
1246.494, 189.5664
1247.570, 4.197266
1248.645, 250.8438
1249.720, 77.50977
1250.795, 101.1973
1251.869, 153.9004
1252.944, 6.376953
1254.018, 84.63281
1255.093, 240.1094
1256.167, 31.12500
1257.240, 29.34570
1258.314, 56.44922
1259.388, 64.73438
1260.461, 41.09180
1261.535, 40.93750
1262.608, 26.80859
1263.681, 131.7012
1264.753, 12.61523
1265.826, 68.44922
1266.899, 26.71484
1267.971, 140.3047
1269.043, 52.58203
1270.115, 131.9629
1271.187, 339.9629
1272.259, 239.9883
1273.330, 479.0352
1274.402, 181.1230
1275.473, 27.63086
1276.544, 146.7676
1277.615, 277.3887
1278.686, 187.3535
1279.756, 187.6289
1280.827, 182.9707
1281.897, 403.3887
1282.967, 568.8398
1284.037, 560.3457
1285.107, 429.9395
1286.177, 556.5664
1287.247, 590.4688
1288.316, 556.2227
1289.385, 726.0684
1290.454, 1032.000
1291.523, 887.9746
1292.592, 911.0078
1293.661, 1190.109
1294.729, 874.8535
1295.797, 866.6895
1296.866, 1121.898
1297.934, 1351.129
1299.001, 1442.383
1300.069, 1292.660
1301.137, 1548.959
1302.204, 1674.277
1303.271, 1604.617
1304.338, 1748.295
1305.405, 1876.912
1306.472, 1949.328
1307.539, 1847.764
1308.605, 2147.219
1309.671, 2807.695
1310.737, 2411.830
1311.803, 3185.348
1312.869, 3302.881
1313.935, 3919.094
1315.000, 4522.984
1316.066, 4964.594
1317.131, 5142.227
1318.196, 5127.887
1319.261, 4968.781
1320.326, 4416.488
1321.390, 3947.949
1322.455, 3670.705
1323.519, 3254.488
1324.583, 3108.531
1325.647, 2850.361
1326.711, 2553.217
1327.775, 2402.094
1328.838, 2096.998
1329.902, 1817.924
1330.965, 2030.877
1332.028, 1991.852
1333.091, 1638.852
1334.153, 1536.875
1335.216, 1401.428
1336.279, 1233.498
1337.341, 1131.590
1338.403, 835.7090
1339.465, 1016.850
1340.527, 789.0137
1341.588, 938.2012
1342.650, 606.4102
1343.711, 731.6445
1344.772, 538.8965
1345.834, 734.1758
1346.894, 749.4746
1347.955, 705.7969
1349.016, 602.1387
1350.076, 832.8125
1351.136, 615.1973
1352.197, 841.6074
1353.257, 807.0371
1354.316, 599.4512
1355.376, 683.8418
1356.436, 809.2520
1357.495, 859.6816
1358.554, 1059.033
1359.613, 888.3184
1360.672, 722.8301
1361.731, 920.9570
1362.789, 875.4668
1363.848, 714.9980
1364.906, 948.0469
1365.964, 1064.615
1367.022, 757.2031
1368.080, 683.2109
1369.138, 810.8379
1370.195, 789.4746
1371.253, 618.1309
1372.310, 518.0430
1373.367, 537.7090
1374.424, 453.6602
1375.480, 457.3496
1376.537, 773.1621
1377.593, 490.8535
1378.650, 638.5645
1379.706, 208.3164
1380.762, 293.9688
1381.818, 111.9844
1382.873, 215.0410
1383.929, 117.2832
1384.984, 61.57812
1386.039, 157.3516
1387.094, 18.17383
1388.149, 83.16016
1389.204, 174.0684
1390.259, 17.90234
1391.313, 71.75195
1392.367, 272.6465
1393.422, 109.7695
1394.476, 100.7559
1395.529, 61.49609
1396.583, 98.72266
1397.637, 151.3066
1398.690, 232.2070
1399.743, 20.12305
1400.796, 62.30078
1401.849, 3.820313
1402.902, 203.0586
1403.954, 29.78125
1405.007, 12.89062
1406.059, 266.2168
1407.111, 286.3711
1408.163, 226.2461
1409.215, 79.13086
1410.267, 315.0273
1411.318, 138.9219
1412.370, 253.8242
1413.421, 3.730469
1414.472, 174.6133
1415.523, 277.5059
1416.574, 302.3965
1417.624, 304.0605
1418.675, 119.2969
1419.725, 207.0938
1420.775, 5.208984
1421.825, 6.533203
1422.875, 132.1250
1423.925, 102.7617
1424.974, 210.3828
1426.024, 133.9863
1427.073, 189.5723
1428.122, 263.1641
1429.171, 37.68945
1430.220, 39.80469
1431.268, 17.61328
1432.317, 327.8477
1433.365, 131.2949
1434.413, 108.7305
1435.461, 226.9121
1436.509, 24.00391
1437.557, 179.7207
1438.605, 100.7383
1439.652, 22.83008
1440.699, 34.40039
1441.746, 62.05273
1442.793, 26.52344
1443.840, 193.0059
1444.887, 10.50781
1445.933, 56.98438
1446.980, 0.4980470
1448.026, 162.0352
1449.072, 117.9609
1450.118, 58.83008
1451.163, 127.7637
1452.209, 80.37891
1453.254, 116.0156
1454.300, 162.6738
1455.345, 109.3516
1456.390, 204.0488
1457.435, 105.7676
1458.479, 257.5098
1459.524, 217.8340
1460.568, 17.05469
1461.612, 249.8555
1462.656, 232.6816
1463.700, 333.4766
1464.744, 289.2871
1465.788, 309.1113
1466.831, 222.9492
1467.874, 601.8047
1468.918, 559.6738
1469.961, 598.5371
1471.003, 560.4141
1472.046, 537.3086
1473.089, 298.2324
1474.131, 413.1875
1475.173, 190.1699
1476.215, 304.1816
1477.257, 387.2012
1478.299, 332.2383
1479.341, 368.5391
1480.382, 236.5352
1481.424, 184.4316
1482.465, 162.3184
1483.506, 162.5801
1484.547, 276.9629
1485.587, 89.81445
1486.628, 43.32227
1487.668, 357.5586
1488.709, 176.1152
1489.749, 35.02539
1490.789, 417.9512
1491.828, 773.8926
1492.868, 41.65039
1493.908, 119.6094
1494.947, 361.5996
1495.986, 367.6191
1497.025, 65.31836
1498.064, 147.9707
1499.103, 0.9648440
1500.141, 228.7598
1501.180, 108.7891
1502.218, 161.7520
1503.256, 210.6758
1504.294, 124.0332
1505.332, 356.3379
1506.370, 80.17969
1507.407, 54.54883
1508.445, 259.1953
1509.482, 359.8223
1510.519, 146.4258
1511.556, 56.00781
1512.593, 99.31641
1513.629, 23.81250
1514.666, 218.2793
1515.702, 201.7051
1516.738, 147.0918
1517.774, 106.4316
1518.810, 21.27734
1519.846, 206.9570
1520.882, 195.1289
1521.917, 130.5840
1522.952, 380.1367
1523.987, 252.7246
1525.022, 18.99609
1526.057, 227.1328
1527.092, 212.4668
1528.126, 100.9766
1529.161, 219.8203
1530.195, 119.6914
1531.229, 97.67578
1532.263, 519.8301
1533.297, 226.5605
1534.330, 501.1543
1535.364, 273.4238
1536.397, 287.2637
1537.430, 369.0312
1538.463, 445.1602
1539.496, 360.3711
1540.529, 392.1191
1541.561, 419.6719
1542.594, 98.32812
1543.626, 418.4688
1544.658, 158.4414
1545.690, 335.5254
1546.722, 418.3613
1547.753, 202.4160
1548.785, 304.9805
1549.816, 189.8555
1550.847, 297.1133
1551.878, 143.5234
1552.909, 154.2246
1553.940, 361.6270
1554.971, 5.935547
1556.001, 204.6152
1557.031, 216.2324
1558.062, 166.9609
1559.092, 132.1074
1560.121, 147.2676
1561.151, 0.2246090
1562.181, 0.0000000E+00
##END=



