##NAMES=Pectolite
##RRUFFID=R050396
##IDEAL CHEMISTRY=NaCa_2_Si_3_O_8_(OH)
##LOCALITY=Jeffrey Quarry, Asbestos, Quebec, Canada
##OWNER=RRUFF
##SOURCE=Marcus Origlieri
##DESCRIPTION=Colorless to gray columnar blocky crystals
##STATUS=The identification of this mineral has been confirmed by X-ray diffraction and chemical analysis
##URL=rruff.info/R050396
##MEASURED CHEMISTRY=Na_1.00_Ca_2.00_Si_3.00_O_8_(OH)
##PIN_ID=M00143
##ORIENTATION=Laser parallel to -b* (0 -1 0). Fiducial mark perpendicular to laser is parallel to c [0 0 1]
127.5960, 0.0000000E+00
128.8330, 3.652344
130.0700, 32.53027
131.3060, 124.5225
132.5420, 145.2324
133.7780, 207.8828
135.0140, 313.4014
136.2500, 307.3037
137.4850, 451.7334
138.7200, 769.0693
139.9550, 666.8438
141.1900, 980.6836
142.4250, 816.3096
143.6600, 1039.491
144.8940, 1005.039
146.1280, 837.8027
147.3620, 814.6523
148.5960, 841.4707
149.8300, 741.1621
151.0630, 613.6406
152.2960, 546.8340
153.5300, 347.6816
154.7620, 366.1309
155.9950, 232.1445
157.2280, 271.6797
158.4600, 408.6953
159.6920, 156.1582
160.9250, 68.03516
162.1560, 65.31445
163.3880, 193.9688
164.6200, 225.9727
165.8510, 148.2910
167.0820, 192.8984
168.3130, 217.7695
169.5440, 186.8887
170.7750, 204.5723
172.0050, 148.8164
173.2350, 202.6055
174.4650, 140.5957
175.6950, 175.7793
176.9250, 227.1484
178.1550, 206.6934
179.3840, 223.4082
180.6130, 250.3027
181.8420, 246.4219
183.0710, 247.1875
184.3000, 291.2305
185.5280, 244.8340
186.7570, 183.5605
187.9850, 218.4062
189.2130, 207.3652
190.4400, 209.7031
191.6680, 119.6074
192.8960, 206.8828
194.1230, 241.3809
195.3500, 179.0898
196.5770, 271.8984
197.8030, 186.7852
199.0300, 49.74414
200.2560, 23.77539
201.4830, 235.8438
202.7090, 323.8594
203.9340, 191.8555
205.1600, 356.8555
206.3860, 265.9121
207.6110, 343.9863
208.8360, 245.0879
210.0610, 173.2227
211.2860, 154.4004
212.5100, 354.7480
213.7350, 168.1250
214.9590, 284.5605
216.1830, 159.0508
217.4070, 214.5781
218.6310, 133.1758
219.8540, 210.8340
221.0780, 152.5332
222.3010, 216.2832
223.5240, 274.0742
224.7470, 98.93555
225.9690, 303.8848
227.1920, 319.8887
228.4140, 177.9258
229.6360, 110.0000
230.8580, 49.10742
232.0800, 223.7090
233.3020, 116.1641
234.5230, 216.4531
235.7440, 242.5195
236.9650, 228.7969
238.1860, 305.1836
239.4070, 258.4805
240.6280, 323.1035
241.8480, 171.5410
243.0680, 283.0039
244.2880, 189.4902
245.5080, 31.00195
246.7280, 184.5332
247.9470, 50.08984
249.1660, 155.6660
250.3860, 169.2656
251.6040, 234.8828
252.8230, 84.52734
254.0420, 165.1934
255.2600, 110.8867
256.4790, 195.5957
257.6970, 343.3320
258.9150, 245.0371
260.1320, 175.2168
261.3500, 98.75977
262.5670, 170.5078
263.7840, 282.2402
265.0010, 6.060547
266.2180, 234.9043
267.4350, 170.7734
268.6510, 207.6348
269.8680, 246.5039
271.0840, 303.3809
272.3000, 281.3066
273.5160, 304.2520
274.7310, 304.8613
275.9470, 341.2930
277.1620, 428.4434
278.3770, 405.8047
279.5920, 221.1035
280.8070, 313.0156
282.0210, 253.1035
283.2360, 0.6523440
284.4500, 236.1504
285.6640, 86.70703
286.8780, 135.3730
288.0920, 226.1426
289.3050, 85.01172
290.5180, 36.97656
291.7320, 255.2871
292.9450, 262.4473
294.1570, 97.66797
295.3700, 80.87109
296.5830, 153.1914
297.7950, 19.57031
299.0070, 31.00977
300.2190, 132.8770
301.4310, 33.53516
302.6420, 183.2285
303.8540, 148.8750
305.0650, 165.5645
306.2760, 15.49219
307.4870, 220.4004
308.6980, 181.2051
309.9080, 194.3164
311.1190, 281.3945
312.3290, 128.3125
313.5390, 294.9570
314.7490, 388.9590
315.9580, 224.4570
317.1680, 303.5059
318.3770, 284.7266
319.5860, 310.9141
320.7950, 311.1543
322.0040, 274.9043
323.2130, 280.9727
324.4210, 191.1289
325.6290, 177.4297
326.8380, 123.6211
328.0460, 94.38477
329.2530, 114.0430
330.4610, 78.26953
331.6680, 50.50977
332.8760, 96.21289
334.0830, 22.52930
335.2890, 32.11523
336.4960, 12.60352
337.7030, 128.6934
338.9090, 2.003906
340.1150, 174.3223
341.3210, 132.3477
342.5270, 15.96484
343.7330, 143.2793
344.9380, 93.93945
346.1440, 194.2617
347.3490, 3.763672
348.5540, 7.628906
349.7590, 89.69531
350.9630, 210.0234
352.1680, 52.34961
353.3720, 53.72656
354.5760, 304.0566
355.7800, 226.6953
356.9840, 209.0254
358.1870, 198.3535
359.3910, 64.67969
360.5940, 109.0039
361.7970, 77.32812
363.0000, 74.64844
364.2030, 100.9668
365.4050, 63.66797
366.6080, 121.9805
367.8100, 69.28906
369.0120, 168.8418
370.2140, 242.1777
371.4150, 165.4707
372.6170, 145.7559
373.8180, 337.3750
375.0190, 199.6484
376.2200, 389.6699
377.4210, 308.0664
378.6220, 317.0566
379.8220, 414.5957
381.0230, 302.0293
382.2230, 280.2285
383.4230, 130.8789
384.6220, 24.96289
385.8220, 148.3066
387.0220, 271.8027
388.2210, 27.83789
389.4200, 21.03320
390.6190, 203.5957
391.8180, 41.47656
393.0160, 23.88867
394.2150, 55.16016
395.4130, 44.38867
396.6110, 26.83203
397.8090, 16.55078
399.0060, 43.84766
400.2040, 166.3125
401.4010, 3.501953
402.5980, 92.02344
403.7950, 127.9609
404.9920, 3.378906
406.1890, 67.34375
407.3860, 178.4023
408.5820, 205.5039
409.7780, 278.6934
410.9740, 303.4277
412.1700, 297.1621
413.3650, 320.3535
414.5610, 232.9316
415.7560, 200.0020
416.9510, 227.8555
418.1460, 58.99219
419.3410, 267.1582
420.5360, 131.1230
421.7300, 263.9473
422.9240, 4.998047
424.1180, 30.49414
425.3120, 136.1816
426.5060, 23.86133
427.7000, 52.27148
428.8930, 23.64062
430.0860, 123.7285
431.2790, 183.3340
432.4720, 75.59375
433.6650, 34.83789
434.8580, 10.59570
436.0500, 33.99805
437.2420, 39.62891
438.4340, 133.4824
439.6260, 184.6562
440.8180, 275.8262
442.0090, 103.7637
443.2010, 13.36719
444.3920, 19.58398
445.5830, 46.74609
446.7740, 167.6094
447.9640, 87.70312
449.1550, 28.51367
450.3450, 16.73438
451.5350, 296.5254
452.7250, 0.4140630
453.9150, 38.18164
455.1050, 203.4844
456.2940, 15.18750
457.4830, 92.79883
458.6720, 22.60156
459.8610, 99.41602
461.0500, 67.12695
462.2390, 84.41016
463.4270, 48.09180
464.6150, 121.5391
465.8040, 19.29688
466.9910, 174.8164
468.1790, 92.52344
469.3670, 247.6191
470.5540, 265.6738
471.7410, 136.0020
472.9280, 206.7090
474.1150, 149.3867
475.3020, 38.03906
476.4890, 355.6602
477.6750, 82.90625
478.8610, 243.5469
480.0470, 214.0078
481.2330, 319.3281
482.4190, 177.9883
483.6040, 156.4473
484.7900, 177.1738
485.9750, 217.6348
487.1600, 77.93750
488.3450, 210.2051
489.5290, 20.55664
490.7140, 32.62695
491.8980, 236.6699
493.0820, 283.7773
494.2660, 336.0020
495.4500, 164.0566
496.6340, 236.0801
497.8170, 106.0742
499.0010, 246.0332
500.1840, 225.9629
501.3670, 298.8574
502.5500, 341.5508
503.7320, 288.5508
504.9150, 339.3457
506.0970, 256.1055
507.2790, 104.8359
508.4610, 324.5332
509.6430, 213.1992
510.8250, 143.8320
512.0060, 196.4277
513.1870, 225.9902
514.3680, 251.5215
515.5490, 131.0176
516.7300, 347.4805
517.9110, 56.90820
519.0910, 185.2930
520.2710, 59.66602
521.4510, 150.9941
522.6310, 170.2832
523.8110, 251.5469
524.9910, 117.7734
526.1700, 56.96875
527.3490, 191.3574
528.5280, 16.52930
529.7070, 186.5098
530.8860, 71.68555
532.0650, 180.6465
533.2430, 231.2363
534.4210, 8.802734
535.5990, 294.3711
536.7770, 189.2949
537.9550, 67.19531
539.1320, 148.3066
540.3100, 35.91406
541.4870, 126.6621
542.6640, 191.1953
543.8410, 109.6816
545.0170, 348.3242
546.1940, 34.73438
547.3700, 224.1934
548.5470, 199.8184
549.7230, 187.0996
550.8980, 164.5547
552.0740, 256.7500
553.2500, 67.20703
554.4250, 2.839844
555.6000, 7.386719
556.7750, 183.2051
557.9500, 232.5508
559.1250, 163.4473
560.2990, 157.1562
561.4730, 78.50000
562.6480, 3.613281
563.8220, 49.28125
564.9950, 9.435547
566.1690, 322.3242
567.3430, 437.7246
568.5160, 109.0098
569.6890, 206.9531
570.8620, 163.4336
572.0350, 388.3711
573.2070, 119.1133
574.3800, 121.2285
575.5520, 357.8262
576.7240, 25.20703
577.8960, 256.7598
579.0680, 193.3652
580.2400, 103.9980
581.4110, 93.26367
582.5830, 35.68359
583.7540, 49.82422
584.9250, 5.445313
586.0950, 62.99023
587.2660, 142.1855
588.4370, 100.1055
589.6070, 164.4531
590.7770, 176.9297
591.9470, 71.45312
593.1170, 93.37695
594.2860, 192.0312
595.4560, 31.90039
596.6250, 157.6270
597.7940, 172.0879
598.9630, 121.1289
600.1320, 112.0586
601.3000, 131.4043
602.4690, 54.02930
603.6370, 172.7598
604.8050, 123.1758
605.9730, 231.3027
607.1410, 228.7012
608.3090, 88.48242
609.4760, 223.0781
610.6430, 228.7715
611.8100, 156.5605
612.9770, 330.1680
614.1440, 310.8652
615.3110, 341.0859
616.4770, 383.3574
617.6430, 63.25977
618.8090, 79.62891
619.9750, 11.59961
621.1410, 19.00586
622.3070, 49.61328
623.4720, 282.8457
624.6370, 150.0664
625.8020, 269.7969
626.9670, 369.2031
628.1320, 326.1465
629.2970, 368.3926
630.4610, 287.7559
631.6250, 411.2988
632.7890, 373.0547
633.9530, 268.1934
635.1170, 472.2676
636.2810, 377.7090
637.4440, 640.1406
638.6070, 581.1992
639.7700, 773.0488
640.9330, 404.8398
642.0960, 751.3633
643.2590, 643.8105
644.4210, 945.2344
645.5830, 1071.812
646.7450, 1248.811
647.9070, 1276.020
649.0690, 1513.984
650.2310, 1845.035
651.3920, 2082.615
652.5530, 1976.055
653.7140, 1711.045
654.8750, 1631.852
656.0360, 1194.990
657.1970, 1020.697
658.3570, 715.9863
659.5170, 740.9141
660.6770, 605.3066
661.8370, 505.5859
662.9970, 428.5488
664.1570, 350.8027
665.3160, 420.5156
666.4750, 265.3164
667.6340, 382.2207
668.7930, 410.4941
669.9520, 409.9570
671.1110, 419.9199
672.2690, 355.0527
673.4270, 304.6367
674.5850, 295.0020
675.7430, 286.7461
676.9010, 283.1836
678.0590, 246.0938
679.2160, 292.6914
680.3730, 403.7559
681.5300, 375.1191
682.6870, 436.4375
683.8440, 272.6445
685.0010, 465.3047
686.1570, 289.5957
687.3130, 245.6348
688.4690, 368.1914
689.6250, 267.6133
690.7810, 535.7422
691.9370, 248.2637
693.0920, 117.9473
694.2470, 272.7324
695.4020, 114.5586
696.5570, 217.3555
697.7120, 373.0449
698.8670, 120.8398
700.0210, 196.5273
701.1750, 224.1836
702.3290, 73.89258
703.4830, 67.39453
704.6370, 229.0879
705.7910, 97.40430
706.9440, 120.5879
708.0970, 316.3984
709.2510, 258.6191
710.4030, 140.0312
711.5560, 176.4258
712.7090, 76.99414
713.8610, 190.1250
715.0140, 169.0938
716.1660, 169.1582
717.3180, 148.1504
718.4690, 151.1133
719.6210, 213.4414
720.7730, 134.0781
721.9240, 204.7637
723.0750, 286.4355
724.2260, 389.0996
725.3770, 141.7656
726.5270, 125.4727
727.6780, 103.3438
728.8280, 11.99023
729.9780, 243.6934
731.1280, 170.2578
732.2780, 155.7871
733.4280, 61.70117
734.5770, 215.5879
735.7260, 291.4531
736.8760, 335.9160
738.0250, 205.4727
739.1730, 205.7988
740.3220, 92.69727
741.4700, 67.37109
742.6190, 21.34961
743.7670, 16.24219
744.9150, 140.4453
746.0630, 45.44336
747.2100, 47.50195
748.3580, 45.47852
749.5050, 239.7793
750.6520, 271.6113
751.7990, 239.0547
752.9460, 102.4902
754.0930, 225.5371
755.2390, 173.1328
756.3860, 201.8340
757.5320, 135.0859
758.6780, 255.6230
759.8240, 124.5391
760.9690, 94.87891
762.1150, 273.4199
763.2600, 146.3770
764.4060, 216.6094
765.5510, 234.8652
766.6950, 233.4902
767.8400, 277.6152
768.9850, 184.9199
770.1290, 84.53125
771.2730, 25.14062
772.4170, 26.91602
773.5610, 114.5762
774.7050, 116.0059
775.8480, 119.3789
776.9920, 232.0176
778.1350, 236.0547
779.2780, 288.2695
780.4210, 295.6953
781.5640, 289.2891
782.7060, 241.5488
783.8490, 129.3945
784.9910, 22.34961
786.1330, 116.3418
787.2750, 377.4258
788.4170, 125.4238
789.5580, 199.9688
790.7000, 67.45312
791.8410, 98.91602
792.9820, 167.1855
794.1230, 100.1406
795.2640, 246.8086
796.4040, 60.00391
797.5450, 202.4219
798.6850, 367.7363
799.8250, 16.59766
800.9650, 49.37891
802.1050, 41.24219
803.2450, 247.1816
804.3840, 146.1758
805.5230, 246.2090
806.6630, 219.4219
807.8020, 37.08008
808.9400, 223.9805
810.0790, 22.44922
811.2170, 229.1641
812.3560, 282.8105
813.4940, 168.6934
814.6320, 148.1797
815.7700, 301.8066
816.9070, 196.1113
818.0450, 308.9844
819.1820, 282.5703
820.3190, 151.5273
821.4560, 316.7930
822.5930, 263.1055
823.7300, 176.2539
824.8670, 252.1641
826.0030, 258.3281
827.1390, 290.9395
828.2750, 276.0059
829.4110, 249.3633
830.5470, 370.8438
831.6820, 205.5859
832.8180, 76.63281
833.9530, 138.0527
835.0880, 58.15625
836.2230, 272.7090
837.3580, 23.16016
838.4920, 368.0684
839.6270, 301.6367
840.7610, 136.1094
841.8950, 165.2500
843.0290, 8.787109
844.1630, 18.35938
845.2960, 326.7188
846.4300, 219.8379
847.5630, 399.4082
848.6960, 109.0938
849.8290, 14.69336
850.9620, 145.9238
852.0940, 126.4004
853.2270, 299.8379
854.3590, 258.1367
855.4910, 328.4004
856.6230, 223.8809
857.7550, 40.98047
858.8870, 317.3242
860.0180, 194.9688
861.1500, 107.6582
862.2810, 178.6133
863.4120, 357.8398
864.5430, 161.5391
865.6730, 150.8086
866.8040, 49.99414
867.9340, 372.8203
869.0640, 317.5449
870.1940, 131.8281
871.3240, 262.7383
872.4540, 122.9258
873.5830, 50.09961
874.7130, 308.8203
875.8420, 177.4980
876.9710, 338.6543
878.1000, 170.8887
879.2290, 35.51562
880.3570, 282.0449
881.4860, 191.2129
882.6140, 13.10742
883.7420, 160.5195
884.8700, 378.0840
885.9980, 100.4824
887.1250, 83.96289
888.2530, 324.2559
889.3800, 115.0703
890.5070, 37.97266
891.6340, 24.26172
892.7610, 182.5547
893.8880, 13.04297
895.0140, 156.9922
896.1400, 192.3516
897.2670, 113.4551
898.3930, 2.337891
899.5180, 31.45898
900.6440, 216.9570
901.7700, 116.4023
902.8950, 222.7910
904.0200, 157.5586
905.1450, 39.35352
906.2700, 366.2246
907.3950, 167.7070
908.5190, 81.77539
909.6440, 516.1660
910.7680, 312.0820
911.8920, 232.1602
913.0160, 3.320313
914.1400, 401.8438
915.2630, 143.8789
916.3870, 350.3730
917.5100, 50.34570
918.6330, 115.6504
919.7560, 75.85352
920.8790, 61.50977
922.0010, 255.0938
923.1240, 48.01758
924.2460, 6.974609
925.3680, 163.6855
926.4900, 155.8145
927.6120, 187.8398
928.7340, 250.8672
929.8550, 305.9551
930.9760, 169.1445
932.0980, 333.7090
933.2190, 99.93555
934.3390, 242.9414
935.4600, 149.6152
936.5810, 161.6816
937.7010, 131.5918
938.8210, 288.5957
939.9410, 85.67773
941.0610, 274.0098
942.1810, 154.6641
943.3010, 378.3926
944.4200, 171.9922
945.5390, 343.1230
946.6580, 368.6719
947.7770, 241.4062
948.8960, 420.6309
950.0150, 234.9160
951.1330, 108.0762
952.2510, 231.3105
953.3690, 289.5762
954.4870, 189.1016
955.6050, 295.0820
956.7230, 465.6816
957.8400, 468.0215
958.9580, 445.4883
960.0750, 362.7148
961.1920, 144.9375
962.3090, 399.8809
963.4250, 591.1074
964.5420, 385.1895
965.6580, 414.5547
966.7740, 517.3926
967.8900, 618.6660
969.0060, 836.3301
970.1220, 820.3379
971.2380, 821.4219
972.3530, 657.6934
973.4680, 723.8398
974.5830, 711.8730
975.6980, 416.1855
976.8130, 488.6035
977.9280, 484.1133
979.0420, 845.6387
980.1560, 575.6172
981.2710, 684.4609
982.3850, 549.7559
983.4980, 342.7578
984.6120, 584.5566
985.7260, 424.4512
986.8390, 396.4395
987.9520, 508.1250
989.0650, 597.6016
990.1780, 531.3203
991.2910, 595.5547
992.4030, 577.8789
993.5160, 501.4492
994.6280, 440.4766
995.7400, 520.9258
996.8520, 592.6250
997.9640, 522.9258
999.0750, 574.5547
1000.187, 571.4766
1001.298, 763.1719
1002.409, 566.3398
1003.520, 622.4648
1004.631, 598.8047
1005.741, 790.6523
1006.852, 466.8867
1007.962, 454.7266
1009.072, 324.6758
1010.182, 411.0312
1011.292, 240.3203
1012.402, 440.5859
1013.511, 390.1406
1014.621, 535.8203
1015.730, 414.0859
1016.839, 555.5977
1017.948, 557.6445
1019.056, 738.7148
1020.165, 868.4531
1021.273, 948.3047
1022.382, 732.8711
1023.490, 1145.727
1024.598, 864.9375
1025.706, 1018.383
1026.813, 825.2305
1027.921, 739.1133
1029.028, 532.7891
1030.135, 596.5781
1031.242, 542.2539
1032.349, 556.8789
1033.456, 480.6445
1034.562, 491.4336
1035.668, 483.6992
1036.775, 207.5391
1037.881, 454.0000
1038.987, 274.1250
1040.092, 171.1719
1041.198, 318.6016
1042.303, 71.51562
1043.408, 171.3555
1044.514, 124.1602
1045.618, 119.6133
1046.723, 193.5820
1047.828, 50.70703
1048.932, 150.2539
1050.037, 459.8828
1051.141, 116.2969
1052.245, 301.0781
1053.349, 219.6328
1054.452, 123.9023
1055.556, 237.9961
1056.659, 209.9141
1057.762, 106.4688
1058.865, 6.925781
1059.968, 173.2461
1061.071, 37.53516
1062.174, 136.2070
1063.276, 287.8164
1064.378, 126.5742
1065.480, 170.5508
1066.582, 94.35547
1067.684, 291.7070
1068.786, 368.3281
1069.887, 1.875000
1070.988, 216.1719
1072.090, 87.83984
1073.191, 7.121094
1074.291, 258.3867
1075.392, 436.3984
1076.493, 287.1914
1077.593, 97.63672
1078.693, 338.0469
1079.793, 325.6094
1080.893, 356.9414
1081.993, 196.2305
1083.092, 132.4844
1084.192, 293.7383
1085.291, 6.988281
1086.390, 282.1992
1087.489, 228.3906
1088.588, 373.5703
1089.686, 252.7031
1090.785, 111.8164
1091.883, 421.9023
1092.981, 353.9609
1094.079, 89.98828
1095.177, 283.9961
1096.275, 370.9805
1097.373, 336.9414
1098.470, 398.8906
1099.567, 273.8242
1100.664, 16.27344
1101.761, 313.6211
1102.858, 213.5039
1103.954, 204.0430
1105.051, 410.8906
1106.147, 258.7227
1107.243, 250.5664
1108.339, 229.3320
1109.435, 217.0898
1110.531, 379.9492
1111.626, 316.8438
1112.722, 153.7578
1113.817, 24.71875
1114.912, 402.7891
1116.007, 125.8828
1117.101, 72.58594
1118.196, 510.1055
1119.290, 291.8516
1120.385, 288.3125
1121.479, 395.9062
1122.573, 432.2891
1123.666, 290.2305
1124.760, 635.9844
1125.853, 402.9102
1126.947, 426.1797
1128.040, 402.0820
1129.133, 249.4297
1130.226, 444.8008
1131.318, 226.2305
1132.411, 339.5312
1133.503, 237.4531
1134.596, 390.9414
1135.688, 366.9961
1136.780, 210.6719
1137.871, 434.6133
1138.963, 190.0820
1140.054, 496.8516
1141.146, 402.7383
1142.237, 81.23828
1143.328, 184.4492
1144.419, 189.8828
1145.509, 267.6016
1146.600, 309.8438
1147.690, 412.0000
1148.780, 448.1602
1149.870, 64.67188
1150.960, 462.9766
1152.050, 108.4688
1153.139, 316.6758
1154.229, 211.8984
1155.318, 350.4609
1156.407, 441.0859
1157.496, 201.5742
1158.585, 309.9336
1159.674, 371.4062
1160.762, 466.6797
1161.850, 411.5742
1162.939, 497.9023
1164.027, 219.5000
1165.114, 421.2188
1166.202, 249.9375
1167.290, 426.5781
1168.377, 321.2422
1169.464, 536.9531
1170.551, 495.5391
1171.638, 608.0781
1172.725, 121.4688
1173.812, 31.52344
1174.898, 369.6523
1175.984, 337.1133
1177.071, 456.6680
1178.157, 461.2031
1179.242, 225.6055
1180.328, 142.7773
1181.414, 267.6445
1182.499, 107.2188
1183.584, 281.4180
1184.669, 345.6680
1185.754, 153.6953
1186.839, 229.8984
1187.924, 306.9219
1189.008, 153.6250
1190.092, 247.2383
1191.177, 3.015625
1192.260, 262.1602
1193.344, 106.3086
1194.428, 0.0000000E+00
##END=



