##NAMES=Pyrite
##RRUFFID=R050070
##IDEAL CHEMISTRY=Fe^2+^(S_2_)^2-^
##LOCALITY=Mina San Jose de Huanzala, Minero de Huallanca District, Department de Huanuco, Peru
##OWNER=RRUFF
##SOURCE=Rock Currier
##DESCRIPTION=Brass-yellow metallic cube
##STATUS=The identification of this mineral has been confirmed by X-ray diffraction and chemical analysis
##URL=rruff.info/R050070
##MEASURED CHEMISTRY=Fe_1.00_S_2.00_
##PIN_ID=L00302
##ORIENTATION=Laser parallel to c* (0 0 1). Fiducial mark perpendicular to laser is parallel to -a [-1 0 0]
236.434, 0.000
237.805, 162.510
239.175, 2.090
240.545, 463.219
241.916, 209.900
243.286, 475.945
244.655, 348.920
246.025, 32.799
247.394, 76.844
248.763, 194.102
250.132, 165.531
251.501, 99.928
252.869, 122.506
254.237, 143.588
255.605, 133.666
256.973, 166.244
258.340, 190.824
259.708, 216.244
261.075, 306.236
262.442, 343.869
263.808, 332.555
265.175, 329.008
266.541, 294.674
267.907, 242.453
269.273, 216.836
270.639, 168.600
272.004, 270.180
273.369, 235.539
274.734, 271.662
276.099, 378.576
277.463, 330.531
278.828, 228.084
280.192, 513.148
281.556, 553.449
282.919, 448.326
284.283, 487.432
285.646, 645.422
287.009, 470.729
288.372, 613.377
289.734, 450.010
291.097, 457.865
292.459, 469.203
293.821, 334.125
295.183, 345.654
296.544, 211.645
297.905, 261.035
299.266, 301.178
300.627, 341.916
301.988, 302.164
303.348, 302.133
304.709, 260.357
306.069, 262.906
307.428, 152.723
308.788, 189.914
310.147, 43.494
311.507, 66.488
312.865, 92.916
314.224, 79.795
315.583, 56.854
316.941, 16.854
318.299, 47.820
319.657, 1.314
321.015, 50.541
322.372, 35.232
323.729, 133.234
325.086, 90.225
326.443, 11.322
327.800, 35.781
329.156, 169.635
330.512, 134.014
331.868, 397.098
333.224, 268.326
334.579, 389.531
335.935, 371.377
337.290, 503.701
338.645, 530.699
339.999, 643.479
341.354, 856.002
342.708, 1054.971
344.062, 1386.219
345.416, 1604.230
346.769, 1778.629
348.123, 1898.055
349.476, 1946.168
350.829, 1925.736
352.182, 1830.801
353.534, 1834.562
354.887, 1631.639
356.239, 1382.232
357.591, 1157.074
358.942, 980.754
360.294, 882.564
361.645, 608.455
362.996, 614.904
364.347, 451.736
365.698, 388.191
367.048, 308.105
368.398, 305.879
369.748, 337.908
371.098, 434.602
372.448, 552.561
373.797, 594.014
375.146, 771.061
376.495, 1287.707
377.844, 1582.240
379.192, 2113.301
380.540, 2232.215
381.889, 2516.979
383.236, 2695.586
384.584, 2875.002
385.932, 3138.242
387.279, 3258.324
388.626, 3060.277
389.973, 2884.092
391.319, 2538.770
392.666, 2093.316
394.012, 1562.717
395.358, 1226.982
396.704, 781.105
398.049, 442.082
399.394, 482.396
400.740, 141.070
402.084, 176.094
403.429, 15.945
404.774, 119.326
406.118, 141.295
407.462, 3.178
408.806, 52.326
410.150, 124.816
411.493, 45.328
412.836, 24.064
414.179, 60.818
415.522, 5.143
416.865, 32.895
418.207, 88.789
419.549, 146.895
420.891, 25.047
422.233, 22.396
423.575, 39.393
424.916, 15.410
426.257, 20.820
427.598, 90.838
428.939, 112.256
430.279, 79.363
431.619, 276.477
432.959, 79.148
434.299, 197.770
435.639, 426.877
436.978, 182.041
438.318, 354.750
439.657, 375.768
440.996, 436.158
442.334, 316.664
443.673, 345.193
445.011, 371.014
446.349, 426.496
447.687, 479.197
449.024, 466.018
450.361, 508.152
451.699, 472.270
453.036, 258.219
454.372, 312.289
455.709, 293.199
457.045, 263.770
458.381, 306.049
459.717, 162.575
461.053, 239.829
462.388, 185.777
463.724, 215.775
465.059, 149.938
466.394, 183.697
467.728, 180.270
469.063, 210.341
470.397, 416.217
471.731, 295.679
473.065, 421.662
474.398, 444.871
475.732, 306.636
477.065, 452.726
478.398, 453.208
479.731, 396.429
481.063, 512.547
482.396, 408.925
483.728, 524.732
485.060, 495.066
486.391, 550.417
487.723, 477.179
489.054, 574.938
490.385, 489.348
491.716, 517.763
493.047, 550.193
494.377, 579.715
495.708, 532.235
497.038, 560.646
498.368, 520.070
499.697, 747.408
501.027, 622.352
502.356, 640.321
503.685, 762.869
505.014, 660.367
506.342, 652.628
507.671, 695.869
508.999, 674.643
510.327, 733.719
511.655, 676.893
512.982, 797.950
514.310, 875.680
515.637, 912.211
516.964, 785.105
518.291, 868.716
519.617, 867.901
520.944, 863.192
522.270, 974.707
523.596, 871.516
524.921, 980.278
526.247, 1006.224
527.572, 1067.371
528.897, 1043.062
530.222, 1046.938
531.547, 1134.505
532.871, 1175.822
534.196, 1143.146
535.520, 1208.795
536.844, 1102.826
538.167, 1146.756
539.491, 1256.969
540.814, 1229.270
542.137, 1219.765
543.460, 1203.602
544.783, 1200.231
546.105, 1252.821
547.427, 1164.186
548.749, 1229.352
550.071, 1311.554
551.393, 1237.080
552.714, 1251.994
554.035, 1207.644
555.356, 1234.237
556.677, 1260.518
557.998, 1285.847
559.318, 1350.378
560.638, 1335.282
561.958, 1393.180
563.278, 1284.009
564.597, 1353.868
565.917, 1198.813
567.236, 1254.659
568.555, 1329.334
569.874, 1277.304
571.192, 1507.525
572.511, 1399.829
573.829, 1467.138
575.147, 1446.633
576.464, 1374.549
577.782, 1320.099
579.099, 1104.199
580.416, 1048.902
581.733, 931.959
583.050, 868.272
584.366, 814.104
585.683, 768.639
586.999, 685.846
588.315, 536.573
589.630, 406.226
590.946, 363.355
592.261, 370.032
593.576, 341.157
594.891, 249.814
596.206, 311.349
597.520, 264.269
598.834, 194.212
600.148, 349.247
601.462, 264.757
602.776, 219.110
604.089, 250.555
605.402, 246.015
606.715, 292.440
608.028, 223.860
609.341, 269.037
610.653, 264.276
611.965, 192.297
613.277, 281.604
614.589, 321.570
615.901, 139.044
617.212, 363.632
618.523, 192.015
619.834, 246.171
621.145, 130.609
622.456, 267.750
623.766, 237.722
625.076, 233.949
626.386, 268.175
627.696, 218.920
629.006, 236.586
630.315, 172.787
631.624, 178.330
632.933, 193.718
634.242, 178.088
635.551, 163.749
636.859, 192.124
638.167, 136.163
639.475, 130.366
640.783, 97.991
642.090, 181.114
643.398, 182.568
644.705, 159.572
646.012, 22.244
647.318, 57.243
648.625, 67.815
649.931, 155.570
651.237, 59.254
652.543, 252.183
653.849, 189.706
655.155, 71.218
656.460, 78.520
657.765, 8.176
659.070, 25.503
660.375, 50.000
661.679, 61.897
662.984, 80.281
664.288, 45.585
665.592, 117.970
666.895, 4.170
668.199, 1.750
669.502, 24.795
670.805, 4.480
672.108, 32.171
673.411, 33.727
674.713, 95.062
676.016, 19.951
677.318, 21.246
678.620, 90.646
679.921, 43.185
681.223, 85.849
682.524, 63.194
683.825, 56.660
685.126, 99.443
686.427, 28.451
687.727, 147.179
689.028, 21.739
690.328, 9.224
691.628, 4.366
692.927, 45.039
694.227, 155.188
695.526, 43.330
696.825, 58.402
698.124, 2.585
699.423, 20.956
700.721, 31.867
702.020, 10.514
703.318, 72.181
704.616, 76.771
705.913, 45.984
707.211, 2.137
708.508, 63.643
709.805, 101.741
711.102, 113.523
712.399, 21.512
713.695, 63.619
714.992, 51.532
716.288, 37.159
717.584, 98.102
718.879, 20.113
720.175, 80.404
721.470, 85.043
722.765, 114.785
724.060, 90.036
725.355, 82.139
726.649, 128.673
727.944, 145.011
729.238, 114.116
730.532, 145.330
731.825, 65.147
733.119, 82.676
734.412, 142.336
735.705, 113.881
736.998, 146.009
738.291, 155.200
739.584, 59.341
740.876, 145.833
742.168, 153.431
743.460, 80.007
744.752, 159.813
746.043, 96.627
747.334, 84.065
748.626, 109.856
749.916, 95.553
751.207, 144.041
752.498, 131.877
753.788, 114.071
755.078, 119.578
756.368, 58.768
757.658, 121.760
758.947, 99.719
760.237, 119.945
761.526, 149.690
762.815, 107.357
764.104, 190.706
765.392, 96.223
766.680, 57.698
767.969, 68.856
769.257, 84.371
770.544, 117.037
771.832, 146.928
773.119, 105.745
774.406, 65.840
775.693, 103.149
776.980, 1.031
778.267, 64.350
779.553, 72.601
780.839, 41.830
782.125, 84.197
783.411, 68.352
784.697, 53.566
785.982, 29.504
787.267, 67.450
788.552, 9.448
789.837, 101.369
791.122, 30.219
792.406, 42.174
793.690, 101.883
794.974, 138.557
796.258, 94.087
797.542, 2.047
798.825, 157.810
800.108, 101.561
801.391, 168.727
802.674, 134.030
803.957, 69.369
805.239, 113.065
806.522, 49.351
807.804, 79.432
809.085, 96.243
810.367, 60.552
811.649, 31.882
812.930, 98.906
814.211, 101.618
815.492, 161.958
816.772, 97.183
818.053, 64.477
819.333, 66.618
820.613, 74.057
821.893, 15.013
823.173, 94.936
824.452, 10.965
825.732, 48.899
827.011, 82.941
828.290, 18.983
829.568, 33.725
830.847, 77.228
832.125, 4.179
833.403, 38.414
834.681, 92.188
835.959, 78.392
837.236, 60.108
838.514, 67.374
839.791, 8.565
841.068, 54.952
842.345, 57.391
843.621, 88.335
844.898, 33.226
846.174, 72.853
847.450, 54.070
848.726, 52.900
850.001, 35.104
851.277, 9.173
852.552, 22.172
853.827, 88.681
855.102, 135.367
856.376, 15.425
857.651, 21.478
858.925, 48.446
860.199, 62.482
861.473, 50.983
862.746, 3.005
864.020, 140.168
865.293, 29.604
866.566, 74.232
867.839, 141.250
869.112, 48.354
870.384, 164.144
871.656, 7.325
872.928, 24.813
874.200, 39.299
875.472, 58.439
876.744, 80.711
878.015, 3.113
879.286, 117.036
880.557, 37.389
881.828, 11.184
883.098, 189.119
884.369, 89.562
885.639, 63.674
886.909, 109.868
888.178, 52.320
889.448, 115.662
890.717, 9.855
891.987, 1.671
893.256, 93.804
894.524, 56.307
895.793, 92.849
897.061, 80.093
898.330, 31.683
899.598, 32.641
900.865, 4.042
902.133, 40.737
903.401, 15.890
904.668, 118.707
905.935, 224.267
907.202, 9.766
908.468, 175.305
909.735, 176.604
911.001, 64.181
912.267, 275.682
913.533, 74.282
914.799, 84.023
916.064, 119.603
917.330, 6.488
918.595, 50.055
919.860, 66.474
921.124, 92.979
922.389, 202.563
923.653, 77.300
924.918, 211.179
926.182, 192.899
927.445, 6.470
928.709, 91.214
929.972, 75.412
931.236, 90.027
932.499, 196.693
933.761, 21.245
935.024, 189.992
936.286, 132.689
937.549, 108.342
938.811, 192.911
940.073, 98.656
941.334, 242.177
942.596, 189.100
943.857, 134.741
945.118, 171.452
946.379, 163.430
947.640, 132.487
948.900, 164.469
950.161, 145.929
951.421, 70.010
952.681, 43.080
953.940, 118.182
955.200, 235.294
956.459, 104.287
957.719, 138.417
958.978, 52.363
960.236, 214.451
961.495, 226.606
962.753, 172.651
964.012, 36.595
965.270, 145.780
966.527, 125.985
967.785, 145.213
969.043, 116.449
970.300, 102.663
971.557, 102.905
972.814, 96.844
974.071, 135.240
975.327, 142.532
976.583, 134.622
977.840, 232.890
979.095, 104.215
980.351, 281.397
981.607, 264.157
982.862, 142.595
984.117, 327.771
985.372, 158.113
986.627, 154.515
987.882, 253.928
989.136, 131.370
990.390, 211.824
991.644, 199.899
992.898, 131.385
994.152, 327.464
995.405, 272.970
996.659, 190.487
997.912, 261.018
999.165, 261.572
1000.417, 376.160
1001.670, 262.751
1002.922, 322.370
1004.174, 355.304
1005.426, 225.006
1006.678, 275.830
1007.930, 306.842
1009.181, 260.705
1010.432, 277.748
1011.683, 232.533
1012.934, 206.317
1014.185, 244.145
1015.435, 286.951
1016.685, 262.905
1017.935, 231.839
1019.185, 322.713
1020.435, 410.605
1021.684, 257.690
1022.934, 317.637
1024.183, 210.191
1025.432, 176.160
1026.680, 342.140
1027.929, 282.438
1029.177, 279.388
1030.425, 294.602
1031.673, 231.639
1032.921, 386.504
1034.169, 217.670
1035.416, 253.788
1036.663, 338.935
1037.911, 239.422
1039.157, 357.586
1040.404, 394.766
1041.650, 283.779
1042.897, 448.039
1044.143, 338.561
1045.389, 216.772
1046.634, 346.032
1047.880, 388.056
1049.125, 377.295
1050.371, 299.824
1051.615, 274.257
1052.860, 349.800
1054.105, 205.310
1055.349, 419.613
1056.593, 378.925
1057.837, 349.435
1059.081, 341.768
1060.325, 384.109
1061.568, 335.672
1062.812, 343.027
1064.055, 276.472
1065.298, 405.985
1066.540, 294.364
1067.783, 378.060
1069.025, 408.438
1070.267, 325.866
1071.509, 564.283
1072.751, 389.677
1073.993, 148.128
1075.234, 385.528
1076.475, 342.933
1077.716, 308.767
1078.957, 244.177
1080.198, 338.593
1081.438, 393.012
1082.679, 395.434
1083.919, 214.137
1085.159, 316.858
1086.398, 242.290
1087.638, 301.932
1088.877, 283.371
1090.116, 245.157
1091.355, 279.761
1092.594, 285.207
1093.833, 265.891
1095.071, 246.570
1096.309, 232.510
1097.547, 195.431
1098.785, 222.882
1100.023, 270.469
1101.260, 343.617
1102.498, 172.073
1103.735, 241.580
1104.972, 360.035
1106.208, 213.489
1107.445, 357.219
1108.681, 326.674
1109.918, 189.127
1111.154, 277.580
1112.389, 295.033
1113.625, 275.971
1114.860, 173.689
1116.096, 82.140
1117.331, 213.719
1118.566, 181.487
1119.800, 225.681
1121.035, 277.488
1122.269, 220.127
1123.503, 199.566
1124.737, 259.074
1125.971, 197.569
1127.205, 327.077
1128.438, 182.518
1129.671, 82.041
1130.904, 178.721
1132.137, 120.150
1133.370, 111.946
1134.602, 207.861
1135.834, 30.272
1137.066, 229.877
1138.298, 20.276
1139.530, 53.334
1140.762, 135.135
1141.993, 148.480
1143.224, 214.395
1144.455, 14.828
1145.686, 517.127
1146.917, 155.521
1148.147, 56.493
1149.377, 81.102
1150.607, 164.224
1151.837, 85.604
1153.067, 24.562
1154.296, 29.870
1155.526, 6.291
1156.755, 9.246
1157.984, 70.221
1159.213, 39.274
1160.441, 49.826
1161.670, 28.558
1162.898, 66.221
1164.126, 112.800
1165.354, 36.244
1166.581, 180.931
1167.809, 89.182
1169.036, 22.737
1170.263, 86.360
1171.490, 18.186
1172.717, 210.604
1173.943, 83.127
1175.170, 5.567
1176.396, 155.307
1177.622, 42.135
1178.848, 140.229
1180.073, 266.151
1181.299, 87.583
1182.524, 174.882
1183.749, 215.776
1184.974, 29.866
1186.199, 238.270
1187.423, 277.671
1188.648, 133.677
1189.872, 98.828
1191.096, 40.379
1192.320, 139.596
1193.543, 110.146
1194.767, 4.046
1195.990, 137.187
1197.213, 66.663
1198.436, 79.467
1199.659, 69.731
1200.881, 21.308
1202.104, 174.753
1203.326, 151.765
1204.548, 93.240
1205.770, 239.657
1206.991, 164.122
1208.213, 90.757
1209.434, 197.941
1210.655, 124.589
1211.876, 110.338
1213.096, 145.136
1214.317, 72.008
1215.537, 221.522
1216.757, 54.924
1217.977, 145.508
1219.197, 279.922
1220.417, 141.501
1221.636, 157.874
1222.855, 297.228
1224.074, 55.560
1225.293, 244.869
1226.512, 176.157
1227.731, 270.433
1228.949, 226.771
1230.167, 97.121
1231.385, 94.336
1232.603, 171.518
1233.820, 117.206
1235.038, 234.345
1236.255, 86.463
1237.472, 131.564
1238.689, 261.653
1239.906, 115.727
1241.122, 274.786
1242.338, 259.827
1243.555, 129.855
1244.771, 260.869
1245.986, 145.868
1247.202, 41.852
1248.417, 200.816
1249.633, 167.767
1250.848, 207.699
1252.063, 244.097
1253.277, 117.518
1254.492, 241.402
1255.706, 238.271
1256.920, 195.122
1258.134, 261.956
1259.348, 72.773
1260.562, 125.565
1261.775, 277.335
1262.988, 160.087
1264.201, 184.821
1265.414, 184.513
1266.627, 107.138
1267.839, 147.741
1269.052, 202.301
1270.264, 179.826
1271.476, 183.309
1272.688, 180.358
1273.899, 196.183
1275.111, 176.539
1276.322, 140.831
1277.533, 200.095
1278.744, 112.333
1279.955, 83.518
1281.165, 293.636
1282.376, 43.692
1283.586, 257.689
1284.796, 69.652
1286.006, 107.586
1287.215, 315.489
1288.425, 71.772
1289.634, 169.575
1290.843, 212.351
1292.052, 45.091
1293.261, 13.213
1294.469, 124.432
1295.678, 94.955
1296.886, 179.857
1298.094, 69.376
1299.302, 17.167
1300.509, 79.251
1301.717, 14.367
1302.924, 66.616
1304.131, 25.969
1305.338, 13.263
1306.545, 88.544
1307.752, 101.704
1308.958, 21.077
1310.164, 150.096
1311.370, 22.848
1312.576, 20.249
1313.782, 115.307
1314.987, 69.848
1316.193, 75.119
1317.398, 139.813
1318.603, 111.714
1319.807, 128.644
1321.012, 78.168
1322.216, 26.034
1323.421, 200.528
1324.625, 59.758
1325.829, 52.106
1327.032, 141.431
1328.236, 28.010
1329.439, 183.499
1330.642, 104.646
1331.845, 41.093
1333.048, 191.507
1334.251, 152.892
1335.453, 80.180
1336.656, 128.188
1337.858, 77.489
1339.060, 57.689
1340.261, 132.629
1341.463, 40.192
1342.664, 245.678
1343.866, 94.567
1345.067, 50.383
1346.267, 120.908
1347.468, 127.920
1348.669, 27.904
1349.869, 70.668
1351.069, 66.588
1352.269, 258.478
1353.469, 82.128
1354.668, 184.966
1355.868, 154.696
1357.067, 138.336
1358.266, 115.091
1359.465, 271.512
1360.664, 180.216
1361.862, 221.852
1363.061, 257.855
1364.259, 144.491
1365.457, 287.054
1366.655, 231.650
1367.852, 251.229
1369.050, 232.362
1370.247, 189.907
1371.444, 183.440
1372.641, 334.932
1373.838, 133.408
1375.035, 180.597
1376.231, 287.757
1377.427, 77.211
1378.623, 273.470
1379.819, 335.969
1381.015, 287.817
1382.211, 353.897
1383.406, 205.184
1384.601, 207.241
1385.796, 347.597
1386.991, 188.721
1388.185, 336.865
1389.380, 262.682
1390.574, 205.755
1391.768, 329.267
1392.962, 276.973
1394.156, 287.754
1395.350, 340.230
1396.543, 274.894
1397.736, 199.595
1398.929, 353.308
1400.122, 218.685
1401.315, 361.981
1402.507, 224.101
1403.700, 302.338
1404.892, 372.668
1406.084, 207.609
1407.276, 284.659
1408.467, 335.704
1409.659, 282.633
1410.850, 225.975
1412.041, 309.340
1413.232, 182.664
1414.423, 342.396
1415.614, 218.211
1416.804, 174.021
1417.994, 291.990
1419.184, 219.941
1420.374, 286.238
1421.564, 297.798
1422.753, 238.632
1423.943, 126.066
1425.132, 255.565
1426.321, 173.290
1427.510, 174.478
1428.698, 243.918
1429.887, 191.368
1431.075, 311.518
1432.263, 247.845
1433.451, 230.667
1434.639, 250.738
1435.827, 127.798
1437.014, 190.604
1438.201, 251.967
1439.388, 20.151
1440.575, 162.062
1441.762, 349.121
1442.949, 138.310
1444.135, 282.109
1445.321, 127.194
1446.507, 181.235
1447.693, 180.211
1448.879, 326.720
1450.064, 197.562
1451.250, 327.376
1452.435, 103.091
1453.620, 253.682
1454.805, 245.157
1455.989, 231.499
1457.174, 260.707
1458.358, 238.781
1459.542, 189.716
1460.726, 189.499
1461.910, 37.134
1463.093, 193.628
1464.277, 369.998
1465.460, 135.260
1466.643, 180.664
1467.826, 260.082
1469.009, 111.513
1470.191, 318.040
1471.373, 270.792
1472.556, 167.539
1473.738, 319.617
1474.919, 122.944
1476.101, 124.248
1477.283, 162.689
1478.464, 63.245
1479.645, 179.916
1480.826, 247.781
1482.007, 10.750
1483.187, 199.675
1484.368, 86.058
1485.548, 129.400
1486.728, 171.745
1487.908, 20.058
1489.088, 194.353
1490.268, 219.646
1491.447, 171.960
1492.626, 277.023
1493.805, 241.453
1494.984, 16.969
1496.163, 211.573
1497.341, 189.257
1498.520, 52.992
1499.698, 113.757
1500.876, 170.527
1502.054, 0.007
1503.232, 162.096
1504.409, 11.721
1505.586, 97.566
1506.763, 260.981
1507.940, 114.571
1509.117, 258.323
1510.294, 193.252
1511.470, 47.395
1512.647, 215.254
1513.823, 156.705
1514.999, 94.354
1516.174, 201.222
1517.350, 52.177
1518.526, 1.594
1519.701, 148.621
1520.876, 0.000
##END=



