##NAMES=Pyrite
##RRUFFID=R050070
##IDEAL CHEMISTRY=Fe^2+^(S_2_)^2-^
##LOCALITY=Mina San Jose de Huanzala, Minero de Huallanca District, Department de Huanuco, Peru
##OWNER=RRUFF
##SOURCE=Rock Currier
##DESCRIPTION=Brass-yellow metallic cube
##STATUS=The identification of this mineral has been confirmed by X-ray diffraction and chemical analysis
##URL=rruff.info/R050070
##MEASURED CHEMISTRY=Fe_1.00_S_2.00_
##PIN_ID=L00728
##ORIENTATION=Laser parallel to c* (0 0 1). Fiducial mark perpendicular to laser is parallel to a [1 0 0]
127.8490, 0.0000000E+00
129.0810, 407.4502
130.3130, 760.8262
131.5450, 989.4756
132.7770, 293.9551
134.0080, 12.16455
135.2390, 13.64209
136.4710, 129.4336
137.7020, 775.0181
138.9320, 599.2817
140.1630, 1395.119
141.3930, 600.0850
142.6240, 321.5249
143.8540, 170.9180
145.0840, 501.8550
146.3140, 1129.612
147.5440, 1110.216
148.7730, 801.8633
150.0020, 400.0483
151.2320, 442.8770
152.4610, 291.9360
153.6900, 633.7007
154.9180, 936.1104
156.1470, 608.0942
157.3750, 289.9727
158.6040, 200.5972
159.8320, 382.3735
161.0600, 450.9561
162.2870, 644.6006
163.5150, 580.1460
164.7420, 270.5352
165.9700, 169.0791
167.1970, 131.7002
168.4240, 123.7866
169.6510, 260.7705
170.8770, 404.0820
172.1040, 222.2207
173.3300, 105.2852
174.5560, 140.6875
175.7820, 25.88965
177.0080, 165.7329
178.2340, 172.9497
179.4590, 78.28516
180.6850, 114.8838
181.9100, 132.3999
183.1350, 141.7231
184.3600, 226.8594
185.5850, 288.3115
186.8090, 339.0015
188.0340, 416.3896
189.2580, 444.6724
190.4820, 423.3213
191.7060, 427.8369
192.9300, 547.2134
194.1530, 603.1104
195.3770, 769.4438
196.6000, 820.4766
197.8230, 844.5317
199.0460, 912.4512
200.2690, 902.0186
201.4910, 1023.989
202.7140, 911.9458
203.9360, 793.0747
205.1580, 815.5469
206.3800, 456.3823
207.6020, 581.7344
208.8240, 556.1807
210.0450, 1193.604
211.2670, 510.6392
212.4880, 567.9541
213.7090, 120.0166
214.9300, 754.4834
216.1510, 574.5552
217.3710, 1257.027
218.5920, 26.70947
219.8120, 50.14844
221.0320, 1.031738
222.2520, 117.6382
223.4720, 634.6929
224.6910, 9.018555
225.9110, 55.18750
227.1300, 364.3164
228.3490, 42.59961
229.5680, 40.28223
230.7870, 25.86963
232.0050, 8.094238
233.2240, 4.611328
234.4420, 28.73975
235.6600, 29.43018
236.8780, 30.57715
238.0960, 62.06396
239.3140, 56.59473
240.5310, 50.17383
241.7490, 35.93262
242.9660, 23.37939
244.1830, 6.866699
245.4000, 14.10303
246.6160, 5.255371
247.8330, 31.26514
249.0490, 589.0801
250.2660, 294.7827
251.4820, 553.4072
252.6980, 1317.915
253.9130, 2440.285
255.1290, 3250.510
256.3440, 3625.575
257.5600, 2674.463
258.7750, 1055.207
259.9900, 361.8525
261.2040, 322.4160
262.4190, 203.9448
263.6330, 228.4531
264.8480, 198.9473
266.0620, 155.4258
267.2760, 124.8872
268.4900, 84.31934
269.7030, 197.7173
270.9170, 235.0791
272.1300, 337.4019
273.3430, 361.6973
274.5560, 260.6113
275.7690, 89.73486
276.9820, 10.01709
278.1940, 47.15723
279.4070, 56.98486
280.6190, 29.94922
281.8310, 95.52637
283.0430, 61.06006
284.2550, 135.8618
285.4660, 1.581543
286.6770, 45.70215
287.8890, 130.7310
289.1000, 74.48389
290.3110, 134.3936
291.5210, 152.6313
292.7320, 155.6328
293.9420, 174.3491
295.1530, 220.8081
296.3630, 198.0586
297.5730, 174.0430
298.7830, 128.3545
299.9920, 131.7607
301.2020, 238.8975
302.4110, 203.7788
303.6200, 206.8452
304.8290, 311.3701
306.0380, 167.4004
307.2470, 238.5503
308.4550, 254.8535
309.6630, 174.8071
310.8720, 216.6641
312.0800, 299.2383
313.2880, 221.1929
314.4950, 300.1338
315.7030, 287.4424
316.9100, 465.5967
318.1170, 593.8574
319.3240, 674.6606
320.5310, 570.7812
321.7380, 703.1313
322.9450, 741.4897
324.1510, 775.4536
325.3570, 941.6445
326.5630, 911.1968
327.7690, 1272.643
328.9750, 1740.523
330.1810, 2501.808
331.3860, 3662.336
332.5910, 5211.036
333.7960, 7936.037
335.0010, 11758.05
336.2060, 15774.97
337.4110, 21374.90
338.6150, 31515.42
339.8200, 43901.07
341.0240, 58281.94
342.2280, 76773.79
343.4320, 88471.55
344.6350, 86432.32
345.8390, 75265.03
347.0420, 50714.72
348.2450, 23218.34
349.4480, 11108.92
350.6510, 6921.442
351.8540, 4781.367
353.0560, 3434.558
354.2590, 2696.365
355.4610, 2023.628
356.6630, 1950.721
357.8650, 1687.922
359.0670, 1711.495
360.2680, 1871.707
361.4700, 2096.708
362.6710, 2347.860
363.8720, 2841.023
365.0730, 3305.629
366.2740, 4311.606
367.4740, 5885.166
368.6750, 7929.204
369.8750, 11323.66
371.0750, 16607.42
372.2750, 22742.45
373.4750, 30822.04
374.6740, 44808.61
375.8740, 65025.22
377.0730, 87762.97
378.2720, 118514.6
379.4710, 143111.1
380.6700, 144595.7
381.8690, 129776.2
383.0670, 93239.82
384.2660, 46274.79
385.4640, 22657.22
386.6620, 14064.58
387.8600, 8856.760
389.0570, 6471.837
390.2550, 4968.195
391.4520, 3893.277
392.6490, 3245.045
393.8460, 2627.231
395.0430, 2400.181
396.2400, 2160.285
397.4370, 1909.133
398.6330, 1508.002
399.8290, 1381.213
401.0250, 1193.615
402.2210, 1037.155
403.4170, 1049.273
404.6130, 804.0190
405.8080, 750.9653
407.0030, 766.4404
408.1980, 668.0474
409.3930, 800.5640
410.5880, 1081.920
411.7830, 1112.623
412.9770, 1064.951
414.1720, 1258.529
415.3660, 1236.273
416.5600, 965.4570
417.7530, 1108.753
418.9470, 686.5684
420.1410, 803.5923
421.3340, 765.4917
422.5270, 953.9336
423.7200, 969.4219
424.9130, 1183.633
426.1060, 1455.412
427.2980, 1757.872
428.4900, 2219.867
429.6830, 2499.529
430.8750, 2841.772
432.0670, 2579.649
433.2580, 2175.081
434.4500, 1549.918
435.6410, 991.8037
436.8320, 628.6763
438.0240, 505.6030
439.2140, 357.7007
440.4050, 299.6812
441.5960, 230.4170
442.7860, 157.1899
443.9760, 179.8364
445.1670, 138.9155
446.3560, 152.8330
447.5460, 103.7524
448.7360, 116.4722
449.9250, 169.8340
451.1150, 53.85596
452.3040, 114.9331
453.4930, 76.33350
454.6810, 57.53516
455.8700, 104.7456
457.0590, 58.62891
458.2470, 77.15771
459.4350, 2.965820
460.6230, 6.741699
461.8110, 0.4936520
462.9980, 28.73682
464.1860, 60.00732
465.3730, 5.755371
466.5600, 113.4990
467.7470, 92.24072
468.9340, 87.98682
470.1210, 22.73584
471.3080, 97.48730
472.4940, 108.2437
473.6800, 87.96240
474.8660, 231.7661
476.0520, 53.53125
477.2380, 314.2964
478.4230, 286.0630
479.6090, 128.8306
480.7940, 43.60059
481.9790, 128.3687
483.1640, 108.1362
484.3490, 124.9009
485.5330, 66.66406
486.7180, 159.4253
487.9020, 55.18555
489.0860, 143.9434
490.2700, 77.70117
491.4540, 99.45752
492.6370, 229.2139
493.8210, 0.9692380
495.0040, 122.7261
496.1870, 78.78662
497.3700, 32.05078
498.5530, 4.926270
499.7360, 5.800293
500.9180, 56.52734
502.1000, 54.26611
503.2830, 68.61670
504.4650, 82.54150
505.6460, 94.22510
506.8280, 91.33301
508.0100, 144.1729
509.1910, 145.9863
510.3720, 116.8545
511.5530, 148.6133
512.7340, 133.7261
513.9150, 138.0615
515.0950, 102.9907
516.2760, 37.92334
517.4560, 155.2031
518.6360, 81.18164
519.8160, 66.77148
520.9950, 132.7939
522.1750, 127.8467
523.3540, 156.9282
524.5340, 145.2866
525.7130, 112.4351
526.8920, 103.6191
528.0700, 132.8369
529.2490, 133.5410
530.4270, 176.2725
531.6060, 173.5649
532.7840, 153.8750
533.9620, 148.1201
535.1390, 95.54590
536.3170, 150.8916
537.4940, 123.2437
538.6720, 112.5981
539.8490, 44.95508
541.0260, 140.3149
542.2030, 94.67627
543.3790, 155.0410
544.5560, 171.4077
545.7320, 128.7769
546.9080, 168.0884
548.0840, 248.7056
549.2600, 128.2759
550.4360, 376.1143
551.6110, 300.8525
552.7860, 404.2446
553.9620, 689.9551
555.1370, 474.3828
556.3110, 508.8159
557.4860, 321.2554
558.6610, 381.6987
559.8350, 342.1465
561.0090, 399.5991
562.1830, 289.0605
563.3570, 380.5352
564.5310, 246.0210
565.7040, 302.5181
566.8780, 356.0273
568.0510, 324.5469
569.2240, 300.0771
570.3970, 293.6162
571.5700, 329.9644
572.7420, 316.0991
573.9150, 367.3120
575.0870, 362.8979
576.2590, 229.4941
577.4310, 311.0996
578.6030, 145.7139
579.7740, 305.3374
580.9460, 271.9688
582.1170, 124.6094
583.2880, 234.2593
584.4590, 104.9189
585.6300, 140.5889
586.8010, 157.2671
587.9710, 41.95459
589.1410, 30.59766
590.3110, 83.30176
591.4810, 85.01465
592.6510, 135.4146
593.8210, 125.0679
594.9900, 131.4692
596.1600, 96.67773
597.3290, 117.4331
598.4980, 99.01953
599.6670, 67.94580
600.8350, 32.32910
602.0040, 93.74219
603.1720, 203.1230
604.3400, 199.9224
605.5080, 168.5977
606.6760, 98.05957
607.8440, 114.8906
609.0120, 58.72900
610.1790, 138.5811
611.3460, 163.2051
612.5130, 90.09033
613.6800, 147.9907
614.8470, 130.8716
616.0130, 120.6978
617.1800, 155.7612
618.3460, 89.76562
619.5120, 124.7744
620.6780, 58.79395
621.8440, 140.7549
623.0090, 193.8394
624.1750, 97.94775
625.3400, 117.0654
626.5050, 51.19678
627.6700, 116.3330
628.8350, 89.47412
629.9990, 12.64062
631.1640, 163.8115
632.3280, 102.3433
633.4920, 116.1777
634.6560, 153.1587
635.8200, 10.64648
636.9840, 71.79297
638.1470, 44.92725
639.3100, 142.9854
640.4730, 39.95215
641.6360, 64.08301
642.7990, 10.60400
643.9620, 6.411621
645.1240, 5.493164
646.2870, 59.97412
647.4490, 6.219727
648.6110, 25.41650
649.7730, 28.61963
650.9340, 4.827148
652.0960, 45.03662
653.2570, 22.75049
654.4180, 12.60303
655.5790, 120.6592
656.7400, 20.13086
657.9010, 87.06982
659.0620, 60.72656
660.2220, 46.44824
661.3820, 77.62598
662.5420, 118.8066
663.7020, 17.01123
664.8620, 34.16162
666.0210, 69.33740
667.1810, 191.5146
668.3400, 65.69336
669.4990, 28.12549
670.6580, 189.0396
671.8170, 177.2056
672.9750, 70.37305
674.1340, 72.54102
675.2920, 66.71045
676.4500, 133.8804
677.6080, 94.05176
678.7660, 130.2236
679.9230, 240.3965
681.0810, 206.5703
682.2380, 139.7446
683.3950, 122.9194
684.5520, 65.09521
685.7090, 42.72852
686.8660, 47.57764
688.0220, 63.45557
689.1780, 83.57227
690.3340, 31.48877
691.4900, 47.31396
692.6460, 34.67480
693.8020, 101.6636
694.9570, 39.94482
696.1130, 64.64209
697.2680, 76.63086
698.4230, 27.61963
699.5780, 65.60840
700.7320, 50.01074
701.8870, 75.58594
703.0410, 41.57324
704.1950, 58.56104
705.3490, 35.54834
706.5030, 46.63379
707.6570, 52.21338
708.8110, 86.50586
709.9640, 91.49023
711.1170, 142.4731
712.2700, 213.4561
713.4230, 232.1318
714.5760, 241.4175
715.7280, 314.3970
716.8810, 251.3750
718.0330, 300.3521
719.1850, 133.3276
720.3370, 246.3018
721.4890, 159.2744
722.6400, 162.2456
723.7920, 162.2153
724.9430, 190.1826
726.0940, 189.1494
727.2450, 202.1138
728.3960, 227.3218
729.5460, 275.0366
730.6970, 255.9951
731.8470, 234.9531
732.9970, 203.9082
734.1470, 254.8745
735.2970, 250.8389
736.4460, 220.8008
737.5960, 166.7612
738.7450, 177.7314
739.8940, 170.2246
741.0430, 313.6709
742.1920, 210.6392
743.3410, 225.6187
744.4890, 270.5869
745.6370, 148.4502
746.7850, 302.7588
747.9330, 244.4800
749.0810, 356.3853
750.2290, 273.3291
751.3760, 305.5103
752.5240, 297.7349
753.6710, 321.9575
754.8180, 275.3311
755.9650, 344.0796
757.1110, 234.0752
758.2580, 384.2988
759.4040, 491.2378
760.5510, 550.5020
761.6970, 423.1709
762.8420, 531.5112
763.9880, 545.2271
765.1340, 552.9873
766.2790, 695.0967
767.4240, 593.7764
768.5690, 740.2695
769.7140, 724.8447
770.8590, 694.8682
772.0030, 716.0059
773.1480, 750.5547
774.2920, 683.7222
775.4360, 672.5601
776.5800, 505.3760
777.7240, 556.9810
778.8670, 559.6226
780.0110, 515.8184
781.1540, 286.0522
782.2970, 302.1079
783.4400, 146.5732
784.5830, 323.1714
785.7250, 453.9663
786.8680, 538.9712
788.0100, 438.1201
789.1520, 477.4976
790.2940, 501.2446
791.4360, 787.5601
792.5780, 680.1675
793.7190, 662.0034
794.8600, 670.3887
796.0010, 544.0977
797.1420, 577.2114
798.2830, 568.9053
799.4240, 623.5918
800.5640, 700.2710
801.7050, 700.6943
802.8450, 725.3228
803.9850, 692.0156
805.1250, 703.6646
806.2640, 593.5566
807.4040, 668.1230
808.5430, 695.6118
809.6820, 676.7134
810.8210, 472.5117
811.9600, 507.5732
813.0990, 446.7388
814.2370, 381.9971
815.3760, 450.7163
816.5140, 317.8379
817.6520, 284.4062
818.7900, 178.9668
819.9270, 171.9336
821.0650, 145.0488
822.2020, 144.6060
823.3390, 137.2017
824.4760, 141.4893
825.6130, 144.7402
826.7500, 246.8916
827.8870, 240.0596
829.0230, 236.2822
830.1590, 330.7744
831.2950, 338.2612
832.4310, 478.7412
833.5670, 444.2148
834.7030, 348.6826
835.8380, 427.1436
836.9730, 522.5996
838.1080, 450.5757
839.2430, 454.4404
840.3780, 377.9316
841.5130, 358.3628
842.6470, 281.7881
843.7810, 301.2075
844.9150, 271.6709
846.0490, 243.9390
847.1830, 257.4302
848.3170, 235.8257
849.4500, 227.2144
850.5830, 291.5977
851.7160, 283.9751
852.8490, 373.3462
853.9820, 321.7114
855.1150, 274.0708
856.2470, 341.4238
857.3800, 311.7715
858.5120, 330.8711
859.6440, 410.4487
860.7760, 342.7783
861.9070, 393.1025
863.0390, 361.4204
864.1700, 412.7329
865.3010, 443.0396
866.4320, 437.3408
867.5630, 435.6357
868.6940, 483.9258
869.8240, 400.2100
870.9540, 284.9399
872.0850, 360.3779
873.2150, 386.8271
874.3450, 366.8931
875.4740, 161.6846
876.6040, 195.7114
877.7330, 133.8770
878.8620, 68.10303
879.9910, 135.8203
881.1200, 42.46484
882.2490, 23.08984
883.3770, 8.685547
884.5060, 27.74121
885.6340, 12.61719
886.7620, 16.60010
887.8900, 33.46729
889.0180, 97.40234
890.1450, 20.43018
891.2730, 74.48535
892.4000, 38.40332
893.5270, 0.7143550
894.6540, 92.84863
895.7810, 72.04736
896.9070, 52.29980
898.0340, 4.404297
899.1600, 15.90479
900.2860, 88.76318
901.4120, 1.426270
902.5380, 39.92529
903.6630, 80.68848
904.7890, 3.296875
905.9140, 24.89258
907.0390, 194.4824
908.1640, 68.06787
909.2890, 43.64844
910.4130, 100.2280
911.5380, 40.80322
912.6620, 91.25000
913.7860, 54.96045
914.9100, 103.5327
916.0340, 121.1006
917.1580, 90.75488
918.2810, 38.69092
919.4040, 119.1196
920.5280, 153.1948
921.6510, 1.953125
922.7730, 89.95801
923.8960, 82.08545
925.0180, 70.26123
926.1410, 191.9487
927.2630, 67.62354
928.3850, 188.7334
929.5070, 201.2363
930.6280, 108.2002
931.7500, 216.6465
932.8710, 276.0928
933.9920, 289.1543
935.1130, 116.9150
936.2340, 183.9473
937.3550, 155.0918
938.4760, 122.3008
939.5960, 224.8081
940.7160, 255.3081
941.8360, 200.8052
942.9560, 309.3076
944.0760, 252.8076
945.1950, 293.3184
946.3150, 269.8247
947.4340, 192.3389
948.5530, 229.8506
949.6720, 255.3594
950.7900, 278.8711
951.9090, 325.3984
953.0270, 224.9238
954.1460, 238.4507
955.2640, 261.9746
956.3820, 283.4971
957.4990, 319.0151
958.6170, 341.5483
959.7340, 355.0923
960.8520, 371.6592
961.9690, 295.2505
963.0860, 430.8496
964.2020, 321.4609
965.3190, 281.0742
966.4350, 347.6846
967.5520, 250.2935
968.6680, 415.9009
969.7840, 397.5068
970.8990, 287.1108
972.0150, 352.7139
973.1310, 346.3149
974.2460, 309.9146
975.3610, 444.5127
976.4760, 410.3760
977.5910, 464.7056
978.7050, 446.3008
979.8200, 452.8994
980.9340, 463.4990
982.0480, 441.0986
983.1620, 453.6812
984.2760, 489.2954
985.3900, 470.8945
986.5030, 526.4927
987.6160, 568.0903
988.7300, 655.6865
989.8430, 505.2827
990.9550, 538.8799
992.0680, 569.4775
993.1810, 472.0962
994.2930, 639.7139
995.4050, 581.3315
996.5170, 534.9478
997.6290, 536.5791
998.7410, 544.2109
999.8520, 487.8730
1000.964, 601.3340
1002.075, 665.7759
1003.186, 683.8364
1004.297, 516.5996
1005.407, 588.6318
1006.518, 564.7793
1007.628, 536.9897
1008.738, 642.7061
1009.848, 502.4243
1010.958, 606.0234
1012.068, 612.2700
1013.178, 663.0640
1014.287, 617.3818
1015.396, 597.6064
1016.505, 677.8960
1017.614, 684.1929
1018.723, 611.9209
1019.831, 592.6084
1020.940, 610.0566
1022.048, 574.4575
1023.156, 574.7852
1024.264, 548.9868
1025.372, 548.0107
1026.479, 512.5923
1027.587, 463.1436
1028.694, 479.9429
1029.801, 524.0674
1030.908, 546.4521
1032.015, 511.2891
1033.121, 529.1187
1034.228, 485.8550
1035.334, 409.7061
1036.440, 442.8813
1037.546, 556.3315
1038.652, 620.0566
1039.758, 637.9473
1040.863, 470.7129
1041.968, 542.7549
1043.074, 518.8506
1044.178, 491.0767
1045.283, 577.0684
1046.388, 639.8501
1047.492, 575.6299
1048.597, 536.4204
1049.701, 431.2144
1050.805, 640.6396
1051.909, 591.3828
1053.012, 575.1929
1054.116, 573.0088
1055.219, 561.3384
1056.322, 556.1636
1057.425, 644.9985
1058.528, 664.8384
1059.631, 681.6826
1060.733, 650.8555
1061.836, 633.7095
1062.938, 691.5918
1064.040, 760.6074
1065.142, 700.4761
1066.243, 791.3652
1067.345, 688.2427
1068.446, 702.1245
1069.547, 681.0112
1070.648, 666.9028
1071.749, 732.7983
1072.850, 633.6992
1073.951, 726.6040
1075.051, 692.7158
1076.151, 630.4282
1077.251, 657.1294
1078.351, 686.0522
1079.451, 631.0571
1080.550, 640.9893
1081.650, 634.3457
1082.749, 702.9756
1083.848, 633.0986
1084.947, 647.0723
1086.046, 649.7500
1087.144, 623.8486
1088.243, 620.0000
1089.341, 614.6343
1090.439, 601.6035
1091.537, 602.6602
1092.635, 555.0303
1093.732, 662.8262
1094.830, 721.2886
1095.927, 733.4194
1097.024, 560.6074
1098.121, 626.6787
1099.218, 596.8633
1100.314, 563.1226
1101.411, 548.7690
1102.507, 567.7769
1103.603, 543.2739
1104.699, 616.8018
1105.795, 454.8188
1106.890, 542.8398
1107.986, 536.8643
1109.081, 425.9482
1110.176, 456.0830
1111.271, 468.1924
1112.366, 465.6831
1113.461, 507.7236
1114.555, 488.7676
1115.649, 429.3208
1116.744, 528.4663
1117.838, 405.5190
1118.931, 455.6943
1120.025, 387.7534
1121.119, 379.8159
1122.212, 493.4478
1123.305, 418.6021
1124.398, 436.7729
1125.491, 513.8564
1126.584, 387.9341
1127.676, 446.0142
1128.768, 350.6455
1129.861, 364.8145
1130.953, 378.5557
1132.044, 401.0972
1133.136, 298.1909
1134.228, 278.2856
1135.319, 376.3833
1136.410, 394.4829
1137.501, 283.5854
1138.592, 168.6890
1139.683, 301.4116
1140.773, 332.5254
1141.864, 395.6357
1142.954, 346.8740
1144.044, 123.3843
1145.134, 238.6470
1146.224, 305.2012
1147.313, 324.9766
1148.402, 159.4053
1149.492, 238.2192
1150.581, 216.0796
1151.670, 189.9941
1152.758, 259.9912
1153.847, 266.9204
1154.935, 306.2012
1156.024, 255.2578
1157.112, 356.8804
1158.200, 186.1602
1159.287, 172.3525
1160.375, 118.6694
1161.462, 230.0117
1162.550, 195.3770
1163.637, 228.7476
1164.724, 235.1289
1165.810, 120.3711
1166.897, 216.8149
1167.983, 264.2729
1169.070, 265.3384
1170.156, 81.12207
1171.242, 136.1821
1172.327, 95.36230
1173.413, 94.50244
1174.499, 121.9155
1175.584, 198.3281
1176.669, 122.7417
1177.754, 152.1558
1178.839, 92.57080
1179.923, 54.98584
1181.008, 57.67529
1182.092, 161.3716
1183.176, 121.0283
1184.260, 53.39355
1185.344, 174.8369
1186.428, 24.28369
1187.511, 132.8389
1188.595, 123.2852
1189.678, 21.73096
1190.761, 46.82373
1191.843, 133.6313
1192.926, 1.055176
1194.009, 5.521973
1195.091, 119.0830
1196.173, 3.503418
1197.255, 22.92285
1198.337, 103.4629
1199.419, 24.88086
1200.500, 23.29932
1201.582, 22.71631
1202.663, 68.13281
1203.744, 146.5488
1204.825, 31.02734
1205.905, 33.58691
1206.986, 50.00000
1208.066, 99.38818
1209.146, 38.22559
1210.226, 67.14111
1211.306, 108.6177
1212.386, 22.01807
1213.466, 70.66455
1214.545, 11.78760
1215.624, 14.89844
1216.703, 82.40869
1217.782, 59.61572
1218.861, 59.01855
1219.939, 29.32129
1221.018, 1.622559
1222.096, 25.07812
1223.174, 5.792480
1224.252, 66.48926
1225.330, 12.76904
1226.407, 6.952637
1227.485, 55.31982
1228.562, 35.58984
1229.639, 40.85938
1230.716, 69.10596
1231.793, 84.39697
1232.869, 80.12012
1233.946, 72.83740
1235.022, 65.83447
1236.098, 51.01611
1237.174, 37.69336
1238.250, 15.94775
1239.325, 5.199219
1240.401, 15.55127
1241.476, 5.314453
1242.551, 70.91553
1243.626, 76.14355
1244.701, 5.629883
1245.776, 10.64844
1246.850, 131.8638
1247.924, 6.076660
1248.999, 56.28711
1250.073, 61.49463
1251.146, 5.286621
1252.220, 16.06152
1253.293, 77.09521
1254.367, 35.55029
1255.440, 99.17676
1256.513, 116.4229
1257.586, 51.63135
1258.658, 19.55322
1259.731, 5.154297
1260.803, 33.62207
1261.875, 71.20215
1262.947, 66.46338
1264.019, 79.06689
1265.091, 81.62158
1266.162, 82.68701
1267.234, 92.75000
1268.305, 19.18799
1269.376, 42.85645
1270.447, 53.99756
1271.517, 14.92188
1272.588, 138.9790
1273.658, 7.028320
1274.729, 7.4707001E-02
1275.799, 34.11230
1276.868, 54.14746
1277.938, 73.27002
1279.008, 42.61426
1280.077, 109.4761
1281.146, 129.9541
1282.215, 34.86914
1283.284, 39.55615
1284.353, 18.08740
1285.421, 7.322754
1286.490, 100.7563
1287.558, 37.16992
1288.626, 68.75635
1289.694, 77.32861
1290.762, 131.0322
1291.829, 97.96045
1292.897, 83.84326
1293.964, 110.7925
1295.031, 121.7427
1296.098, 65.54395
1297.165, 99.40088
1298.231, 164.2534
1299.298, 70.10205
1300.364, 218.9463
1301.430, 18.78516
1302.496, 207.6201
1303.562, 182.5752
1304.627, 242.2710
1305.693, 192.0894
1306.758, 152.8965
1307.823, 66.70020
1308.888, 8.498047
1309.953, 9.691895
1311.018, 77.07666
1312.082, 26.85693
1313.146, 59.63232
1314.210, 77.40234
1315.274, 5.832520
1316.338, 125.9214
1317.402, 168.6704
1318.465, 174.4141
1319.529, 51.83008
1320.592, 81.56348
1321.655, 105.2686
1322.718, 16.83984
1323.780, 118.5596
1324.843, 111.2588
1325.905, 31.96875
1326.967, 80.67432
1328.029, 92.37500
1329.091, 86.07129
1330.153, 72.76318
1331.214, 72.45020
1332.275, 47.13232
1333.337, 27.81006
1334.398, 108.4829
1335.458, 164.3682
1336.519, 79.03125
1337.580, 106.6133
1338.640, 33.26709
1339.700, 70.91504
1340.760, 97.45117
1341.820, 22.92139
1342.880, 101.5317
1343.939, 185.7773
1344.999, 143.4048
1346.058, 105.0288
1347.117, 162.6489
1348.176, 164.2656
1349.235, 152.9033
1350.293, 181.6997
1351.351, 126.9116
1352.410, 176.5142
1353.468, 182.0703
1354.526, 124.2720
1355.583, 96.86523
1356.641, 58.45508
1357.698, 151.0376
1358.756, 79.61670
1359.813, 79.26318
1360.869, 166.8354
1361.926, 147.4062
1362.983, 165.9741
1364.039, 98.53857
1365.095, 182.1016
1366.152, 165.3047
1367.207, 146.0151
1368.263, 181.5391
1369.319, 113.6392
1370.374, 80.19141
1371.430, 78.74121
1372.485, 44.78320
1373.540, 429.2344
1374.594, 251.3115
1375.649, 270.2075
1376.703, 155.7798
1377.758, 57.32080
1378.812, 24.29492
1379.866, 150.7466
1380.920, 78.18555
1381.973, 122.7134
1383.027, 251.6348
1384.080, 83.24268
1385.133, 125.2251
1386.186, 148.6719
1387.239, 10.54492
1388.291, 180.6147
1389.344, 158.3120
1390.396, 69.97266
1391.448, 97.49463
1392.500, 135.0161
1393.552, 89.53955
1394.604, 153.3364
1395.655, 141.2461
1396.707, 93.91064
1397.758, 94.89062
1398.809, 154.2959
1399.860, 148.0278
1400.910, 168.9639
1401.961, 246.4727
1403.011, 190.9604
1404.061, 223.4917
1405.111, 235.3022
1406.161, 234.1880
1407.211, 172.9751
1408.260, 249.5117
1409.310, 170.3198
1410.359, 124.8232
1411.408, 190.2031
1412.457, 184.7056
1413.506, 158.0513
1414.554, 136.4731
1415.603, 122.8984
1416.651, 9.827637
1417.699, 192.4019
1418.747, 199.5923
1419.794, 35.69580
1420.842, 162.6504
1421.889, 49.58398
1422.937, 107.9497
1423.984, 104.4224
1425.031, 96.88623
1426.077, 156.1836
1427.124, 82.62988
1428.170, 130.0688
1429.217, 194.2104
1430.263, 157.3604
1431.309, 181.6250
1432.354, 169.8252
1433.400, 110.2056
1434.445, 230.5557
1435.491, 159.9424
1436.536, 212.1182
1437.581, 219.3535
1438.625, 181.7153
1439.670, 173.0693
1440.714, 180.3413
1441.759, 141.5059
1442.803, 124.8628
1443.847, 146.0151
1444.890, 137.5190
1445.934, 166.7134
1446.978, 167.1226
1448.021, 127.5254
1449.064, 141.9219
1450.107, 85.32715
1451.150, 235.7280
1452.192, 84.12891
1453.235, 210.5234
1454.277, 204.9116
1455.319, 113.2930
1456.361, 203.0771
1457.403, 154.6992
1458.445, 244.4111
1459.486, 96.34229
1460.528, 197.3105
1461.569, 249.3564
1462.610, 255.0171
1463.651, 75.13623
1464.691, 134.8066
1465.732, 98.60547
1466.772, 58.49561
1467.812, 151.6260
1468.852, 0.9267580
1469.892, 90.39697
1470.932, 84.36230
1471.971, 122.8999
1473.011, 64.94873
1474.050, 36.78027
1475.089, 12.77100
1476.128, 2.217773
1477.166, 99.73633
1478.205, 135.2524
1479.243, 88.80908
1480.282, 155.3750
1481.320, 112.2134
1482.357, 93.48096
1483.395, 101.0879
1484.433, 49.56445
1485.470, 118.4863
1486.507, 225.9292
1487.544, 284.3643
1488.581, 296.4263
1489.618, 123.2100
1490.655, 189.2993
1491.691, 159.5122
1492.727, 125.8086
1493.763, 225.6187
1494.799, 79.44629
1495.835, 177.1719
1496.871, 177.5630
1497.906, 83.98535
1498.941, 74.25439
1499.976, 97.68066
1501.011, 69.55371
1502.046, 134.4463
1503.081, 127.3594
1504.115, 139.2959
1505.149, 171.2573
1506.183, 143.2505
1507.217, 13.24805
1508.251, 64.22266
1509.285, 282.2686
1510.318, 129.3413
1511.352, 118.2827
1512.385, 158.2471
1513.418, 45.34082
1514.450, 55.34082
1515.483, 157.1357
1516.516, 209.6694
1517.548, 216.1387
1518.580, 37.34766
1519.612, 97.86230
1520.644, 62.52441
1521.675, 23.30127
1522.707, 117.6079
1523.738, 34.05371
1524.769, 181.4365
1525.800, 150.9932
1526.831, 124.5957
1527.862, 213.2896
1528.892, 208.8887
1529.923, 194.6357
1530.953, 225.0459
1531.983, 214.8022
1533.013, 125.1987
1534.042, 116.5088
1535.072, 151.3862
1536.101, 56.08643
1537.131, 199.2183
1538.160, 124.8628
1539.188, 1.394043
1540.217, 98.82324
1541.246, 115.3853
1542.274, 195.3906
1543.302, 29.38330
1544.330, 31.18896
1545.358, 0.5698240
1546.386, 0.0000000E+00
##END=



