##NAMES=Pyrope
##RRUFFID=R050446
##IDEAL CHEMISTRY=Mg_3_Al_2_(SiO_4_)_3_
##LOCALITY=Sunset Crater, Arizona, USA
##OWNER=RRUFF
##SOURCE=Marcus Origlieri
##DESCRIPTION=Red fragment
##STATUS=The identification of this mineral has been confirmed by X-ray diffraction and chemical analysis
##URL=rruff.info/R050446
##MEASURED CHEMISTRY=(Mg_1.93_Fe^2+^_0.65_Ca_0.42_)_Î£=3_Al_2.00_(Si_1.00_O_4_)_3_
##PIN_ID=L01215
##ORIENTATION=Laser parallel to a* (1 0 0). Fiducial mark perpendicular to laser is parallel to c [0 0 1]
62.89900, 0.0000000E+00
64.14700, 9.413694
65.39500, 25.22397
66.64300, 20.86773
67.89000, 46.94015
69.13800, 54.42708
70.38500, 70.53379
71.63200, 65.90524
72.87900, 66.74728
74.12500, 74.11276
75.37200, 103.9356
76.61800, 92.78821
77.86400, 55.76337
79.10900, 59.28495
80.35500, 34.33792
81.60000, 13.90647
82.84600, 3.026886
84.09100, 11.48397
85.33500, 19.48969
86.58000, 31.06941
87.82400, 24.24652
89.06900, 10.04208
90.31300, 7.525238
91.55600, 43.43883
92.80000, 47.68448
94.04300, 72.25064
95.28700, 81.12799
96.53000, 135.3087
97.77300, 174.7853
99.01500, 248.5501
100.2580, 296.5954
101.5000, 337.9075
102.7420, 462.4688
103.9840, 491.2628
105.2260, 570.2741
106.4670, 671.4872
107.7080, 739.8893
108.9490, 714.4730
110.1900, 764.2322
111.4310, 762.1614
112.6720, 809.2565
113.9120, 959.8492
115.1520, 938.7495
116.3920, 989.4706
117.6320, 1001.222
118.8710, 989.0947
120.1110, 1044.117
121.3500, 1008.289
122.5890, 1089.612
123.8270, 1076.088
125.0660, 1059.718
126.3040, 985.5063
127.5430, 1037.452
128.7810, 1045.554
130.0180, 1068.809
131.2560, 1051.212
132.4940, 1059.762
133.7310, 1029.456
134.9680, 1051.290
136.2050, 1032.262
137.4410, 1054.351
138.6780, 1100.501
139.9140, 1111.705
141.1500, 1077.959
142.3860, 1068.259
143.6220, 1047.596
144.8570, 980.9686
146.0920, 1044.380
147.3280, 1006.819
148.5620, 1022.271
149.7970, 970.7310
151.0320, 963.2379
152.2660, 864.8083
153.5000, 940.4434
154.7340, 937.1451
155.9680, 932.9152
157.2020, 837.7543
158.4350, 841.6642
159.6680, 770.6451
160.9010, 768.6984
162.1340, 709.8243
163.3670, 674.0235
164.5990, 638.2963
165.8310, 613.9905
167.0630, 611.3620
168.2950, 595.5610
169.5270, 622.1321
170.7580, 641.7780
171.9900, 646.4986
173.2210, 638.2976
174.4510, 734.1882
175.6820, 753.1696
176.9130, 731.2300
178.1430, 768.3958
179.3730, 885.6790
180.6030, 919.0901
181.8330, 966.6208
183.0620, 1015.280
184.2920, 1158.041
185.5210, 1242.911
186.7500, 1272.929
187.9790, 1294.114
189.2070, 1341.407
190.4360, 1273.789
191.6640, 1224.264
192.8920, 1238.802
194.1200, 1151.405
195.3480, 1172.070
196.5750, 1126.795
197.8020, 1062.582
199.0290, 1047.429
200.2560, 1076.337
201.4830, 1065.306
202.7090, 1086.334
203.9360, 1038.422
205.1620, 1006.569
206.3880, 1046.776
207.6140, 1002.042
208.8390, 1023.367
210.0650, 1065.750
211.2900, 1086.361
212.5150, 1043.949
213.7400, 1057.502
214.9640, 1018.009
216.1890, 1058.485
217.4130, 948.8965
218.6370, 954.2690
219.8610, 1014.640
221.0850, 991.9377
222.3080, 883.0513
223.5310, 933.1643
224.7540, 908.3743
225.9770, 824.4308
227.2000, 876.8031
228.4230, 928.0845
229.6450, 914.1523
230.8670, 854.7673
232.0890, 868.2761
233.3110, 847.6941
234.5320, 846.1887
235.7540, 824.6758
236.9750, 861.5706
238.1960, 887.7561
239.4170, 889.0171
240.6380, 842.3525
241.8580, 913.7607
243.0780, 911.2400
244.2990, 903.7898
245.5180, 939.4080
246.7380, 927.0942
247.9580, 886.8468
249.1770, 929.6644
250.3960, 886.5465
251.6150, 947.4919
252.8340, 900.4995
254.0530, 933.5691
255.2710, 906.6996
256.4890, 924.8899
257.7070, 901.1398
258.9250, 942.4482
260.1430, 915.8151
261.3600, 891.2393
262.5770, 859.7205
263.7950, 878.2582
265.0110, 871.8516
266.2280, 823.5000
267.4450, 846.2034
268.6610, 828.3153
269.8770, 822.7712
271.0930, 823.6353
272.3090, 821.5519
273.5250, 816.5203
274.7400, 853.5403
275.9550, 817.6108
277.1700, 881.7314
278.3850, 839.9019
279.6000, 824.1215
280.8140, 858.3899
282.0290, 807.1509
283.2430, 798.5156
284.4570, 817.0869
285.6700, 860.6909
286.8840, 828.1985
288.0970, 847.8728
289.3100, 819.7307
290.5230, 894.3503
291.7360, 847.8972
292.9490, 855.7053
294.1610, 819.9532
295.3740, 878.3958
296.5860, 910.2491
297.7970, 906.0647
299.0090, 946.7615
300.2210, 876.7861
301.4320, 952.5719
302.6430, 940.8579
303.8540, 892.5640
305.0650, 1026.627
306.2750, 1009.106
307.4860, 1045.168
308.6960, 1100.631
309.9060, 1160.743
311.1160, 1142.219
312.3260, 1173.078
313.5350, 1233.080
314.7440, 1287.790
315.9530, 1322.314
317.1620, 1331.734
318.3710, 1335.420
319.5800, 1353.146
320.7880, 1409.235
321.9960, 1457.043
323.2040, 1559.940
324.4120, 1547.828
325.6200, 1725.757
326.8270, 1671.724
328.0340, 1773.729
329.2410, 1935.772
330.4480, 2074.853
331.6550, 2259.971
332.8610, 2359.125
334.0680, 2495.316
335.2740, 2608.542
336.4800, 2945.803
337.6860, 3177.099
338.8910, 3473.429
340.0970, 3756.429
341.3020, 4030.240
342.5070, 4309.627
343.7120, 4637.095
344.9170, 4910.594
346.1210, 5280.129
347.3250, 5593.696
348.5290, 6050.296
349.7330, 6539.928
350.9370, 7181.593
352.1410, 7767.291
353.3440, 8645.020
354.5470, 9400.780
355.7500, 10335.57
356.9530, 11198.41
358.1560, 12113.28
359.3580, 12850.19
360.5610, 13536.15
361.7630, 13748.14
362.9650, 13745.18
364.1660, 13252.26
365.3680, 12601.38
366.5690, 11597.54
367.7710, 10850.75
368.9720, 9732.002
370.1720, 8848.291
371.3730, 8071.625
372.5740, 7158.000
373.7740, 6583.417
374.9740, 6136.878
376.1740, 5741.385
377.3740, 5283.937
378.5730, 4774.533
379.7730, 4429.179
380.9720, 3990.867
382.1710, 3748.595
383.3700, 3354.362
384.5680, 3182.166
385.7670, 2817.007
386.9650, 2627.886
388.1630, 2458.801
389.3610, 2231.752
390.5590, 2057.740
391.7560, 1851.331
392.9540, 1648.822
394.1510, 1481.915
395.3480, 1319.043
396.5450, 1218.207
397.7420, 1092.407
398.9380, 949.6405
400.1340, 943.9082
401.3300, 879.2097
402.5260, 744.5453
403.7220, 625.9155
404.9180, 549.3213
406.1130, 515.7646
407.3080, 469.2437
408.5030, 411.7562
409.6980, 364.3019
410.8930, 367.8843
412.0870, 347.5071
413.2820, 313.1866
414.4760, 231.9128
415.6700, 215.6740
416.8630, 144.4740
418.0570, 142.3051
419.2500, 79.16675
420.4440, 118.0704
421.6370, 118.0190
422.8290, 47.02124
424.0220, 70.10229
425.2150, 16.77649
426.4070, 11.40710
427.5990, 59.36438
428.7910, 5.114502
429.9830, 20.18579
431.1740, 3.467896
432.3660, 8.069702
433.5570, 27.64429
434.7480, 70.18091
435.9390, 28.70935
437.1300, 60.21704
438.3200, 62.71863
439.5110, 48.21191
440.7010, 45.69519
441.8910, 63.15186
443.0810, 68.59778
444.2700, 40.03162
445.4600, 26.45581
446.6490, 34.84827
447.8380, 41.17041
449.0270, 48.60095
450.2160, 80.95764
451.4040, 107.3091
452.5930, 118.6771
453.7810, 64.06018
454.9690, 27.43628
456.1570, 50.79614
457.3440, 3.842651
458.5320, 37.49878
459.7190, 33.83691
460.9060, 14.82825
462.0930, 21.51355
463.2800, 1.219971
464.4660, 38.94141
465.6530, 10.68164
466.8390, 19.43848
468.0250, 28.21436
469.2110, 50.00854
470.3970, 105.8215
471.5820, 111.6643
472.7680, 129.7788
473.9530, 144.9971
475.1380, 121.3362
476.3230, 148.2710
477.5070, 101.2224
478.6920, 87.20203
479.8760, 121.2012
481.0600, 153.2308
482.2440, 135.2776
483.4280, 248.3448
484.6110, 276.4265
485.7950, 292.5255
486.9780, 265.6423
488.1610, 253.7729
489.3440, 313.9180
490.5260, 264.0762
491.7090, 295.2474
492.8910, 288.4313
494.0730, 347.6277
495.2550, 302.8362
496.4370, 334.0566
497.6190, 271.2891
498.8000, 270.5330
499.9810, 375.7878
501.1620, 380.0540
502.3430, 399.3306
503.5240, 519.6174
504.7050, 633.9146
505.8850, 648.2214
507.0650, 655.5376
508.2450, 789.8632
509.4250, 857.1976
510.6050, 770.5405
511.7840, 820.8918
512.9630, 804.2509
514.1430, 832.6177
515.3220, 792.9921
516.5000, 811.4824
517.6790, 818.7615
518.8570, 838.1564
520.0360, 864.5573
521.2140, 906.3008
522.3920, 893.3761
523.5690, 962.7935
524.7470, 979.2158
525.9240, 1028.643
527.1010, 1067.074
528.2780, 1097.510
529.4550, 1127.949
530.6320, 1160.392
531.8080, 1147.838
532.9850, 1197.846
534.1610, 1204.739
535.3370, 1263.194
536.5130, 1288.650
537.6880, 1305.190
538.8640, 1468.125
540.0390, 1514.587
541.2140, 1587.100
542.3890, 1855.582
543.5640, 1881.240
544.7380, 2151.039
545.9130, 2389.207
547.0870, 2632.708
548.2610, 2949.918
549.4350, 3381.780
550.6090, 3804.556
551.7820, 4344.208
552.9550, 5007.700
554.1290, 5490.126
555.3020, 6562.241
556.4740, 7358.750
557.6470, 8235.109
558.8200, 8918.826
559.9920, 9544.554
561.1640, 9511.871
562.3360, 9315.901
563.5080, 8673.090
564.6790, 7645.384
565.8510, 6540.420
567.0220, 5480.694
568.1930, 4425.046
569.3640, 3693.458
570.5350, 3029.681
571.7050, 2513.455
572.8760, 2084.095
574.0460, 1721.177
575.2160, 1567.608
576.3860, 1286.942
577.5550, 1205.470
578.7250, 1004.151
579.8940, 908.3710
581.0630, 826.5925
582.2320, 740.6467
583.4010, 705.7227
584.5700, 669.5129
585.7380, 560.5651
586.9070, 624.3025
588.0750, 604.0332
589.2430, 490.5466
590.4110, 517.8992
591.5780, 520.2148
592.7460, 520.6631
593.9130, 456.1404
595.0800, 472.2372
596.2470, 484.8687
597.4140, 410.6661
598.5800, 412.1213
599.7470, 447.5400
600.9130, 434.9291
602.0790, 393.1337
603.2450, 370.6062
604.4100, 302.3867
605.5760, 370.4299
606.7410, 330.3696
607.9070, 416.5054
609.0720, 396.7615
610.2360, 436.7639
611.4010, 345.3425
612.5660, 469.5594
613.7300, 366.2234
614.8940, 441.2402
616.0580, 407.0684
617.2220, 455.9534
618.3860, 420.5101
619.5490, 410.9834
620.7120, 370.1472
621.8750, 394.1902
623.0380, 303.0524
624.2010, 431.7917
625.3640, 295.9917
626.5260, 366.3743
627.6880, 309.0581
628.8510, 379.8341
630.0120, 446.4802
631.1740, 387.1071
632.3360, 433.7148
633.4970, 552.3035
634.6580, 594.8726
635.8200, 591.4224
636.9800, 672.9524
638.1410, 700.4629
639.3020, 819.9534
640.4620, 911.4242
641.6220, 916.8748
642.7820, 1009.306
643.9420, 1024.716
645.1020, 994.1064
646.2610, 914.4763
647.4210, 841.8259
648.5800, 784.1550
649.7390, 716.4636
650.8980, 728.7515
652.0570, 625.0188
653.2150, 614.2654
654.3730, 559.4908
655.5320, 524.6957
656.6900, 489.8794
657.8470, 517.0424
659.0050, 440.1840
660.1620, 445.3044
661.3200, 371.4039
662.4770, 377.4822
663.6340, 403.5392
664.7910, 351.5747
665.9470, 321.5890
667.1040, 304.3809
668.2600, 235.5533
669.4160, 248.5034
670.5720, 183.4319
671.7280, 164.3389
672.8840, 193.2244
674.0390, 145.0883
675.1940, 195.9304
676.3490, 82.75098
677.5040, 57.54895
678.6590, 124.3203
679.8140, 85.07007
680.9680, 88.79724
682.1220, 72.50208
683.2760, 63.18335
684.4300, 44.83911
685.5840, 33.46631
686.7380, 42.06177
687.8910, 57.62781
689.0440, 62.16821
690.1970, 27.68372
691.3500, 9.165894
692.5030, 54.39282
693.6560, 18.02515
694.8080, 29.28784
695.9600, 9.568848
697.1120, 60.81030
698.2640, 59.02747
699.4160, 7.780029
700.5670, 19.63525
701.7190, 54.54431
702.8700, 152.5250
704.0210, 5.628662
705.1720, 112.7777
706.3230, 28.02527
707.4730, 16.32910
708.6240, 61.67273
709.7740, 37.08826
710.9240, 69.56348
712.0740, 19.88574
713.2230, 49.69336
714.3730, 0.6676030
715.5220, 10.00330
716.6720, 20.31177
717.8210, 3.603394
718.9690, 15.87195
720.1180, 47.87915
721.2670, 14.68188
722.4150, 31.51538
723.5630, 24.61340
724.7110, 51.27380
725.8590, 5.784546
727.0070, 41.82019
728.1540, 33.15552
729.3020, 42.16980
730.4490, 3.220459
731.5960, 30.28052
732.7430, 30.36145
733.8890, 13.47363
735.0360, 31.38525
736.1820, 11.23584
737.3280, 23.06567
738.4740, 35.88477
739.6200, 28.25537
740.7660, 9.485596
741.9120, 34.25586
743.0570, 40.01123
744.2020, 52.29614
745.3470, 20.47412
746.4920, 27.18042
747.6370, 10.86987
748.7810, 36.45898
749.9250, 31.82764
751.0700, 8.233154
752.2140, 14.33740
753.3580, 29.10815
754.5010, 25.41260
755.6450, 43.08105
756.7880, 10.61426
757.9310, 55.16919
759.0740, 1.768799
760.2170, 20.96948
761.3600, 76.97241
762.5020, 10.68262
763.6450, 16.35620
764.7870, 33.94946
765.9290, 0.2421880
767.0710, 37.52124
768.2120, 65.78833
769.3540, 42.04321
770.4950, 84.28662
771.6370, 16.51880
772.7780, 10.73926
773.9180, 14.94873
775.0590, 9.147461
776.2000, 49.33521
777.3400, 54.51245
778.4800, 86.67944
779.6200, 89.17847
780.7600, 76.98315
781.9000, 66.12036
783.0390, 79.24829
784.1790, 17.36646
785.3180, 58.47559
786.4570, 41.57617
787.5960, 102.6675
788.7350, 98.13770
789.8730, 97.25439
791.0120, 102.8921
792.1500, 80.95068
793.2880, 63.00195
794.4260, 49.04541
795.5630, 84.08154
796.7010, 83.11084
797.8380, 85.13330
798.9760, 164.1489
800.1130, 92.15796
801.2500, 204.1609
802.3860, 178.1582
803.5230, 155.1492
804.6590, 205.1348
805.7960, 265.1147
806.9320, 171.0898
808.0680, 201.0601
809.2030, 229.0254
810.3390, 297.9861
811.4740, 309.4763
812.6100, 315.8945
813.7450, 354.7625
814.8800, 384.2317
816.0140, 402.1729
817.1490, 410.0610
818.2830, 466.9778
819.4180, 599.7158
820.5520, 537.3118
821.6860, 621.5366
822.8200, 722.4258
823.9530, 703.6023
825.0870, 836.1265
826.2200, 892.7332
827.3530, 881.4614
828.4860, 957.9077
829.6190, 929.2979
830.7510, 984.5557
831.8840, 993.4185
833.0160, 952.4324
834.1480, 1020.088
835.2800, 992.7300
836.4120, 1095.786
837.5440, 1012.128
838.6750, 1053.324
839.8070, 1051.411
840.9380, 1035.758
842.0690, 1198.428
843.2000, 1153.461
844.3300, 1262.273
845.4610, 1392.292
846.5910, 1508.902
847.7220, 1549.523
848.8520, 1687.567
849.9810, 1813.546
851.1110, 1910.744
852.2410, 2213.539
853.3700, 2341.787
854.4990, 2541.356
855.6280, 2793.561
856.7570, 3012.039
857.8860, 3195.667
859.0150, 3245.309
860.1430, 3323.988
861.2710, 3283.542
862.3990, 3307.745
863.5270, 3333.869
864.6550, 3143.795
865.7830, 3048.232
866.9100, 2975.184
868.0370, 2728.507
869.1640, 2613.889
870.2910, 2552.397
871.4180, 2354.649
872.5450, 2274.590
873.6710, 2238.798
874.7980, 2207.198
875.9240, 2112.563
877.0500, 2186.682
878.1760, 2242.173
879.3010, 2237.722
880.4270, 2433.326
881.5520, 2385.784
882.6770, 2526.325
883.8020, 2655.721
884.9270, 2833.756
886.0520, 2911.162
887.1760, 3085.133
888.3010, 3178.755
889.4250, 3560.570
890.5490, 3601.332
891.6730, 4016.422
892.7970, 4307.597
893.9200, 4622.082
895.0440, 4942.686
896.1670, 5452.473
897.2900, 5886.387
898.4130, 6445.841
899.5360, 7075.113
900.6580, 7943.094
901.7810, 8762.982
902.9030, 9903.005
904.0250, 11380.04
905.1470, 13172.10
906.2690, 15255.18
907.3910, 17783.28
908.5120, 20806.40
909.6330, 24045.53
910.7540, 28174.69
911.8750, 32747.86
912.9960, 36871.05
914.1170, 42165.29
915.2380, 46686.51
916.3580, 51000.77
917.4780, 53825.05
918.5980, 55238.34
919.7180, 54527.66
920.8380, 52651.00
921.9570, 48649.36
923.0770, 43697.74
924.1960, 38661.14
925.3150, 33414.56
926.4340, 28676.00
927.5530, 24617.47
928.6710, 20957.95
929.7900, 18082.46
930.9080, 15543.98
932.0260, 13687.53
933.1440, 11702.11
934.2620, 10356.70
935.3800, 9197.312
936.4970, 7973.949
937.6140, 7150.607
938.7320, 6292.287
939.8490, 5621.991
940.9660, 5056.713
942.0820, 4627.460
943.1990, 4179.230
944.3150, 3731.021
945.4310, 3315.834
946.5470, 3044.670
947.6630, 2802.528
948.7790, 2632.410
949.8950, 2392.315
951.0100, 2217.245
952.1250, 2110.197
953.2400, 1945.172
954.3550, 1868.199
955.4700, 1824.223
956.5850, 1584.272
957.6990, 1537.350
958.8140, 1556.455
959.9280, 1493.584
961.0420, 1366.738
962.1560, 1277.921
963.2690, 1336.136
964.3830, 1163.401
965.4960, 1207.705
966.6090, 1179.249
967.7230, 1129.037
968.8350, 1166.021
969.9480, 1075.148
971.0610, 1064.598
972.1730, 994.4331
973.2850, 1044.911
974.3980, 931.0386
975.5100, 913.1741
976.6210, 942.8823
977.7330, 922.6313
978.8440, 882.6667
979.9560, 826.5015
981.0670, 844.3777
982.1780, 877.1665
983.2890, 951.1208
984.3990, 895.6548
985.5100, 945.6765
986.6200, 792.7346
987.7310, 849.1318
988.8410, 796.8313
989.9510, 788.1790
991.0600, 784.8945
992.1700, 716.9106
993.2790, 720.6753
994.3890, 606.4231
995.4980, 586.8630
996.6070, 632.8979
997.7160, 553.4006
998.8240, 505.8054
999.9330, 573.2715
1001.041, 500.8438
1002.149, 369.3408
1003.257, 442.9243
1004.365, 439.9956
1005.473, 405.9893
1006.580, 494.0447
1007.688, 367.8948
1008.795, 473.8770
1009.902, 403.7666
1011.009, 467.6221
1012.116, 527.3169
1013.222, 581.0291
1014.329, 603.9661
1015.435, 714.7139
1016.541, 760.5159
1017.647, 693.7461
1018.753, 875.6626
1019.859, 807.2417
1020.964, 952.8523
1022.070, 1008.748
1023.175, 959.2690
1024.280, 1054.189
1025.385, 1143.356
1026.490, 1137.322
1027.594, 1183.690
1028.699, 1115.445
1029.803, 1200.575
1030.907, 1193.664
1032.011, 1217.729
1033.115, 1150.336
1034.219, 1257.436
1035.322, 1208.882
1036.426, 1258.010
1037.529, 1286.151
1038.632, 1265.307
1039.735, 1331.475
1040.837, 1332.657
1041.940, 1401.853
1043.042, 1385.062
1044.145, 1430.283
1045.247, 1495.517
1046.349, 1553.764
1047.451, 1575.608
1048.552, 1583.296
1049.654, 1606.580
1050.755, 1591.876
1051.856, 1583.185
1052.957, 1537.511
1054.058, 1522.837
1055.159, 1419.181
1056.259, 1333.536
1057.360, 1275.901
1058.460, 1105.279
1059.560, 1025.667
1060.660, 877.0662
1061.760, 754.4761
1062.860, 575.8960
1063.959, 614.3269
1065.058, 537.7676
1066.158, 413.2190
1067.257, 417.6799
1068.355, 350.1506
1069.454, 286.6313
1070.553, 290.1228
1071.651, 263.6238
1072.749, 233.1338
1073.847, 196.6526
1074.945, 196.1807
1076.043, 147.7173
1077.141, 150.2622
1078.238, 131.8157
1079.336, 61.37744
1080.433, 149.9470
1081.530, 75.52466
1082.627, 109.1099
1083.723, 103.7024
1084.820, 45.30273
1085.916, 1.089844
1087.013, 115.5239
1088.109, 72.14502
1089.205, 35.77295
1090.301, 53.40771
1091.396, 11.05127
1092.492, 23.70142
1093.587, 31.35913
1094.682, 8.083740
1095.777, 40.69849
1096.872, 5.377197
1097.967, 37.93799
1099.061, 0.7407230
1100.156, 3.424805
1101.250, 45.88599
1102.344, 22.79077
1103.438, 55.52832
1104.532, 27.86499
1105.626, 17.20801
1106.719, 37.55371
1107.813, 42.08911
1108.906, 38.73462
1109.999, 30.61694
1111.092, 26.02222
1112.184, 17.66382
1113.277, 20.68286
1114.370, 4.962402
1115.462, 12.39136
1116.554, 38.74976
1117.646, 59.87891
1118.738, 42.48438
1119.829, 10.84668
1120.921, 87.20532
1122.012, 26.60742
1123.104, 47.02466
1124.195, 57.46826
1125.286, 55.94458
1126.376, 65.45312
1127.467, 57.74854
1128.557, 48.10986
1129.648, 45.19165
1130.738, 11.83228
1131.828, 12.48511
1132.918, 18.84839
1134.008, 9.432617
1135.097, 33.49316
1136.186, 31.19116
1137.276, 2.085205
1138.365, 58.64673
1139.454, 5.580566
1140.543, 73.19995
1141.631, 10.97144
1142.720, 31.13647
1143.808, 63.29810
1144.896, 12.45581
1145.984, 46.60693
1147.072, 18.24658
1148.160, 24.12329
1149.248, 18.02686
1150.335, 27.52393
1151.422, 5.087402
1152.509, 1.116943
1153.596, 8.919434
1154.683, 28.63989
1155.770, 20.13110
1156.857, 43.11987
1157.943, 52.10278
1159.029, 26.08008
1160.115, 4.049316
1161.201, 31.00171
1162.287, 37.94775
1163.373, 17.11304
1164.458, 59.79712
1165.543, 23.70044
1166.629, 103.5925
1167.714, 100.4785
1168.799, 92.35718
1169.883, 88.22876
1170.968, 62.09326
1172.052, 54.39893
1173.137, 57.62500
1174.221, 44.64331
1175.305, 83.47778
1176.389, 126.3049
1177.472, 170.1243
1178.556, 136.9353
1179.639, 171.7385
1180.722, 186.5334
1181.805, 130.3203
1182.888, 164.0989
1183.971, 162.2422
1185.054, 199.6309
1186.136, 187.3838
1187.219, 203.1279
1188.301, 206.8633
1189.383, 184.5901
1190.465, 213.3079
1191.547, 184.0166
1192.628, 255.7166
1193.710, 201.4087
1194.791, 192.0918
1195.872, 287.7651
1196.953, 172.4290
1198.034, 226.2507
1199.115, 411.7627
1200.195, 206.7273
1201.276, 226.3555
1202.356, 151.9736
1203.436, 185.5820
1204.516, 140.1802
1205.596, 152.0356
1206.675, 222.3464
1207.755, 191.9143
1208.834, 209.4719
1209.913, 247.0190
1210.992, 191.5554
1212.071, 258.0818
1213.150, 160.5974
1214.229, 124.1028
1215.307, 207.5969
1216.386, 237.0530
1217.464, 210.8645
1218.542, 226.1868
1219.620, 182.6748
1220.697, 188.6436
1221.775, 202.1194
1222.852, 212.9382
1223.930, 201.9524
1225.007, 218.3887
1226.084, 214.0771
1227.161, 220.6572
1228.237, 234.0901
1229.314, 206.6909
1230.390, 124.2168
1231.466, 187.8752
1232.543, 248.1882
1233.619, 253.2356
1234.694, 127.5842
1235.770, 212.3459
1236.845, 158.1221
1237.921, 170.4688
1238.996, 139.8416
1240.071, 174.0625
1241.146, 170.4575
1242.221, 130.9292
1243.295, 109.2910
1244.370, 146.5938
1245.444, 89.31787
1246.518, 126.6460
1247.592, 150.5605
1248.666, 147.6387
1249.740, 155.6472
1250.814, 145.0535
1251.887, 146.6218
1252.960, 106.9451
1254.034, 123.5112
1255.107, 98.10693
1256.179, 177.0403
1257.252, 91.39404
1258.325, 134.2908
1259.397, 109.3098
1260.469, 164.2942
1261.542, 139.2444
1262.614, 109.2371
1263.685, 123.1660
1264.757, 115.8120
1265.829, 147.3586
1266.900, 144.9534
1267.971, 141.6653
1269.042, 191.3000
1270.113, 170.2307
1271.184, 191.0430
1272.255, 253.0945
1273.325, 135.9902
1274.396, 217.7290
1275.466, 150.6060
1276.536, 229.4370
1277.606, 176.8491
1278.676, 228.5955
1279.745, 216.6975
1280.815, 157.7795
1281.884, 252.7117
1282.953, 148.9321
1284.022, 188.8914
1285.091, 205.4819
1286.160, 205.2722
1287.229, 205.0544
1288.297, 206.7664
1289.366, 175.4910
1290.434, 95.35303
1291.502, 190.1023
1292.570, 151.3264
1293.637, 75.05981
1294.705, 173.4529
1295.773, 149.1707
1296.840, 118.9141
1297.907, 142.6162
1298.974, 98.31055
1300.041, 175.1248
1301.108, 131.8037
1302.174, 118.4751
1303.241, 170.1389
1304.307, 141.8711
1305.373, 125.5200
1306.439, 177.1611
1307.505, 165.7949
1308.571, 222.4211
1309.636, 215.0400
1310.702, 224.2007
1311.767, 111.3052
1312.832, 209.9023
1313.897, 167.4932
1314.962, 117.0771
1316.027, 152.6545
1317.091, 126.2334
1318.156, 91.80420
1319.220, 96.41284
1320.284, 71.96338
1321.348, 67.86572
1322.412, 94.40527
1323.475, 78.93823
1324.539, 116.4646
1325.602, 39.40161
1326.666, 80.91479
1327.729, 12.59937
1328.792, 80.09741
1329.855, 82.58594
1330.917, 48.06836
1331.980, 90.54517
1333.042, 84.99146
1334.104, 87.08105
1335.167, 93.94214
1336.229, 95.39648
1337.290, 56.84546
1338.352, 54.28833
1339.414, 78.72290
1340.475, 68.20557
1341.536, 84.69287
1342.597, 66.17212
1343.658, 58.57153
1344.719, 31.97339
1345.780, 25.42676
1346.840, 26.81104
1347.901, 3.389404
1348.961, 34.55859
1350.021, 6.005859
1351.081, 1.349609
1352.141, 11.67871
1353.200, 21.96509
1354.260, 12.58081
1355.319, 8.487549
1356.379, 8.745361
1357.438, 12.99658
1358.497, 33.24194
1359.555, 56.48999
1360.614, 22.73340
1361.673, 67.98047
1362.731, 114.2278
1363.789, 57.47070
1364.847, 21.75952
1365.905, 16.99805
1366.963, 7.230957
1368.021, 11.46411
1369.078, 28.30786
1370.136, 35.90479
1371.193, 17.11621
1372.250, 21.32251
1373.307, 11.47363
1374.364, 21.31934
1375.420, 77.08081
1376.477, 32.90649
1377.533, 1.744141
1378.589, 47.43359
1379.646, 32.61401
1380.702, 48.80249
1381.757, 96.00269
1382.813, 41.21436
1383.869, 96.43970
1384.924, 65.67700
1385.979, 43.92456
1387.034, 45.18188
1388.089, 26.43945
1389.144, 79.69531
1390.199, 76.94653
1391.253, 5.191162
1392.308, 113.4404
1393.362, 15.69653
1394.416, 62.95068
1395.470, 28.21948
1396.524, 0.4858400
1397.577, 20.77002
1398.631, 8.920654
1399.684, 47.32568
1400.738, 24.59570
1401.791, 43.86255
1402.844, 42.12476
1403.897, 57.39185
1404.949, 55.49854
1406.002, 61.94800
1407.054, 61.23926
1408.107, 10.53223
1409.159, 32.82715
1410.211, 7.122803
1411.263, 35.41528
1412.314, 53.70679
1413.366, 64.99561
1414.417, 26.28247
1415.468, 25.56812
1416.520, 7.856934
1417.571, 87.14307
1418.621, 37.42798
1419.672, 91.72192
1420.723, 62.01465
1421.773, 44.30737
1422.824, 30.59888
1423.874, 53.88867
1424.924, 63.18823
1425.974, 9.476563
1427.023, 51.81616
1428.073, 104.1030
1429.122, 65.38916
1430.172, 20.67627
1431.221, 39.96338
1432.270, 48.25098
1433.319, 57.53955
1434.367, 102.8291
1435.416, 55.12036
1436.465, 27.41309
1437.513, 126.7080
1438.561, 84.00537
1439.609, 72.53247
1440.657, 49.83569
1441.705, 45.29199
1442.752, 37.64795
1443.800, 37.96167
1444.847, 27.54834
1445.894, 56.67798
1446.942, 4.990479
1447.988, 84.86377
1449.035, 45.25610
1450.082, 119.5732
1451.128, 6.092529
1452.175, 73.17407
1453.221, 4.861328
1454.267, 125.6975
1455.313, 133.1655
1456.359, 79.63110
1457.405, 114.0952
1458.450, 44.55786
1459.496, 79.01929
1460.541, 105.4790
1461.586, 54.93799
1462.631, 114.3953
1463.676, 100.6880
1464.720, 81.48389
1465.765, 28.44434
1466.809, 32.87427
1467.854, 64.04590
1468.898, 15.86255
1469.942, 41.02661
1470.986, 26.35400
1472.029, 50.78833
1473.073, 78.11694
1474.116, 106.1194
1475.160, 16.65454
1476.203, 182.8887
1477.246, 58.78711
1478.289, 95.58228
1479.332, 101.2180
1480.374, 41.45166
1481.417, 66.72852
1482.459, 106.0059
1483.501, 59.28223
1484.543, 61.48560
1485.585, 79.75928
1486.627, 101.7837
1487.669, 117.9199
1488.710, 55.79590
1489.752, 17.74854
1490.793, 59.92017
1491.834, 44.17188
1492.875, 50.42212
1493.916, 57.66968
1494.956, 73.69482
1495.997, 76.68701
1497.037, 122.9204
1498.077, 194.9895
1499.118, 116.9919
1500.158, 93.20312
1501.197, 90.41797
1502.237, 144.5747
1503.277, 113.5730
1504.316, 121.7712
1505.355, 55.83813
1506.395, 73.02563
1507.434, 119.2083
1508.473, 100.3000
1509.511, 118.4707
1510.550, 120.6318
1511.588, 122.7690
1512.627, 112.8042
1513.665, 135.2625
1514.703, 166.3667
1515.741, 166.6506
1516.779, 160.3704
1517.816, 148.7041
1518.854, 135.4111
1519.891, 106.5298
1520.928, 99.55176
1521.966, 100.5571
1523.003, 87.44092
1524.039, 133.3750
1525.076, 147.1428
1526.113, 116.9897
1527.149, 99.96753
1528.185, 108.9927
1529.221, 81.88550
1530.257, 103.1741
1531.293, 120.4609
1532.329, 86.74658
1533.365, 158.0330
1534.400, 83.32812
1535.435, 99.51050
1536.471, 125.8152
1537.506, 154.1228
1538.541, 64.43994
1539.575, 98.76538
1540.610, 47.09644
1541.644, 150.4348
1542.679, 42.78247
1543.713, 85.13721
1544.747, 95.50122
1545.781, 63.87427
1546.815, 96.27368
1547.849, 50.71484
1548.882, 32.20459
1549.916, 105.7207
1550.949, 23.26855
1551.982, 67.85938
1553.015, 118.5046
1554.048, 189.2061
1555.081, 97.95386
1556.113, 45.73584
1557.146, 55.55664
1558.178, 54.42603
1559.210, 99.34399
1560.242, 51.31689
1561.274, 59.35181
1562.306, 128.4580
1563.338, 0.6457520
1564.369, 122.8333
1565.400, 12.73193
1566.432, 39.16260
1567.463, 81.69702
1568.494, 36.34619
1569.525, 73.12671
1570.555, 148.0552
1571.586, 3.469727
1572.616, 43.52002
1573.647, 74.83960
1574.677, 61.76074
1575.707, 45.59961
1576.737, 6.8604000E-02
1577.766, 45.82666
1578.796, 0.0000000E+00
##END=



