##NAMES=Quartz
##RRUFFID=R060604
##IDEAL CHEMISTRY=SiO_2_
##LOCALITY=Piedras Parada, Veracruz, Mexico
##OWNER=RRUFF
##SOURCE=Michael Scott
##DESCRIPTION=Purple hexagonal prisms, variety amethyst
##STATUS=The identification of this mineral has been confirmed by X-ray diffraction and chemical analysis
##URL=rruff.info/R060604
##MEASURED CHEMISTRY=Si_1.00_O_2_
115.4470, 0.0000000E+00
116.6820, 83.83984
117.9170, 100.1152
119.1520, 11.61523
120.3870, 287.2188
121.6220, 796.4707
122.8560, 1117.535
124.0900, 2194.154
125.3240, 3836.203
126.5580, 5364.191
127.7920, 6557.463
129.0260, 7494.457
130.2590, 7602.707
131.4920, 6622.812
132.7250, 5339.400
133.9580, 3976.154
135.1910, 2362.799
136.4230, 1539.100
137.6560, 1033.857
138.8880, 968.8203
140.1200, 909.4883
141.3520, 970.5020
142.5830, 1210.768
143.8150, 1055.189
145.0460, 1144.625
146.2770, 1003.934
147.5080, 820.9941
148.7390, 688.7207
149.9700, 499.0391
151.2000, 255.8770
152.4310, 233.1699
153.6610, 142.8477
154.8910, 31.86914
156.1210, 75.18945
157.3500, 94.83398
158.5800, 85.76562
159.8090, 49.91797
161.0380, 114.6934
162.2670, 16.48242
163.4960, 172.4668
164.7240, 24.62695
165.9530, 152.5762
167.1810, 214.8594
168.4090, 14.64648
169.6370, 324.7656
170.8650, 346.2734
172.0920, 386.8320
173.3200, 417.2441
174.5470, 437.5020
175.7740, 390.6094
177.0010, 627.5781
178.2280, 691.4141
179.4540, 751.1406
180.6810, 1065.910
181.9070, 1093.729
183.1330, 1200.438
184.3590, 1252.039
185.5850, 1527.535
186.8100, 1808.918
188.0350, 1958.197
189.2610, 2413.346
190.4860, 2440.338
191.7110, 3197.201
192.9350, 3356.980
194.1600, 4015.695
195.3840, 4719.359
196.6080, 5028.992
197.8320, 5866.602
199.0560, 6042.895
200.2800, 6983.428
201.5030, 7429.953
202.7270, 8218.469
203.9500, 8711.980
205.1730, 9190.949
206.3950, 9222.324
207.6180, 9228.832
208.8410, 9188.535
210.0630, 9107.873
211.2850, 8729.854
212.5070, 8411.078
213.7290, 7840.771
214.9500, 7316.076
216.1720, 6327.648
217.3930, 6068.174
218.6140, 5436.873
219.8350, 4736.359
221.0560, 4473.818
222.2770, 3824.393
223.4970, 3691.646
224.7170, 3137.904
225.9370, 2950.479
227.1570, 2566.633
228.3770, 2402.424
229.5970, 2210.609
230.8160, 2012.990
232.0350, 1963.211
233.2540, 1817.451
234.4730, 1507.707
235.6920, 1515.977
236.9110, 1367.256
238.1290, 1439.537
239.3470, 1142.822
240.5650, 1150.104
241.7830, 1101.752
243.0010, 973.0176
244.2180, 918.6191
245.4360, 898.0020
246.6530, 916.9766
247.8700, 691.0488
249.0870, 717.5098
250.3040, 837.1348
251.5200, 615.1719
252.7370, 830.5898
253.9530, 578.5996
255.1690, 553.6035
256.3850, 720.5938
257.6000, 567.5723
258.8160, 569.5371
260.0310, 610.4883
261.2460, 530.4336
262.4610, 663.2285
263.6760, 804.2441
264.8910, 802.8496
266.1050, 847.8809
267.3200, 564.4824
268.5340, 671.4531
269.7480, 327.7012
270.9620, 348.1914
272.1750, 265.8926
273.3890, 99.77930
274.6020, 157.8164
275.8150, 150.9883
277.0280, 283.2773
278.2410, 32.67578
279.4540, 162.2148
280.6660, 207.7871
281.8790, 9.570313
283.0910, 237.1348
284.3030, 45.89453
285.5140, 114.6445
286.7260, 110.4453
287.9380, 217.2852
289.1490, 256.1641
290.3600, 137.0723
291.5710, 160.7070
292.7820, 29.96484
293.9920, 82.93945
295.2030, 23.92773
296.4130, 72.92578
297.6230, 6.6405997E-02
298.8330, 61.04688
300.0430, 188.0430
301.2520, 14.90820
302.4620, 55.85547
303.6710, 24.80273
304.8800, 43.25586
306.0890, 117.3359
307.2980, 54.56836
308.5070, 155.8477
309.7150, 44.04297
310.9230, 65.27930
312.1310, 160.5625
313.3390, 61.08008
314.5470, 16.69727
315.7550, 63.71875
316.9620, 19.81055
318.1690, 41.69531
319.3760, 47.74609
320.5830, 138.1582
321.7900, 145.4531
322.9960, 179.8633
324.2030, 50.84180
325.4090, 37.59766
326.6150, 80.36914
327.8210, 88.79688
329.0270, 57.93945
330.2320, 320.0625
331.4380, 77.16016
332.6430, 107.7656
333.8480, 165.7578
335.0530, 246.1680
336.2580, 120.0723
337.4620, 201.9609
338.6670, 48.83008
339.8710, 248.6738
341.0750, 142.4961
342.2790, 185.2969
343.4820, 106.0762
344.6860, 99.82227
345.8890, 171.5488
347.0920, 149.2539
348.2960, 344.9375
349.4980, 401.6035
350.7010, 523.2461
351.9040, 981.8652
353.1060, 1602.408
354.3080, 2210.842
355.5100, 2587.246
356.7120, 2276.541
357.9140, 1953.707
359.1150, 1440.783
360.3170, 976.7676
361.5180, 578.6836
362.7190, 264.5410
363.9200, 343.3828
365.1200, 183.1348
366.3210, 109.8047
367.5210, 155.4121
368.7210, 184.0039
369.9210, 26.52344
371.1210, 99.93555
372.3210, 6.666016
373.5200, 78.69336
374.7200, 56.03320
375.9190, 49.35156
377.1180, 152.6523
378.3170, 168.9395
379.5150, 115.2168
380.7140, 277.4785
381.9120, 137.7305
383.1110, 111.9707
384.3090, 213.1934
385.5060, 313.4062
386.7040, 119.6094
387.9020, 185.8008
389.0990, 405.9609
390.2960, 611.0742
391.4930, 1055.160
392.6900, 1544.242
393.8860, 1935.309
395.0830, 1760.371
396.2790, 2055.426
397.4750, 1895.465
398.6710, 1532.494
399.8670, 1171.510
401.0630, 557.5156
402.2580, 567.5098
403.4540, 417.4922
404.6490, 275.4668
405.8440, 266.4277
407.0390, 97.39844
408.2330, 377.3555
409.4280, 298.3047
410.6220, 348.2520
411.8160, 158.1875
413.0100, 182.1152
414.2040, 441.0273
415.3980, 204.9277
416.5910, 356.1445
417.7850, 317.0117
418.9780, 168.8672
420.1710, 239.7051
421.3640, 249.7949
422.5560, 161.8086
423.7490, 262.6094
424.9410, 306.3711
426.1330, 373.5625
427.3250, 452.7500
428.5170, 522.9902
429.7090, 565.6738
430.9000, 401.3359
432.0910, 362.9805
433.2820, 438.6074
434.4730, 361.9121
435.6640, 425.8652
436.8550, 414.0762
438.0450, 538.6191
439.2360, 675.5957
440.4260, 793.0977
441.6160, 631.9531
442.8060, 830.3887
443.9950, 1083.697
445.1850, 1129.203
446.3740, 1668.637
447.5630, 1695.217
448.7520, 2063.043
449.9410, 2439.412
451.1300, 2989.500
452.3180, 3276.174
453.5060, 4141.758
454.6950, 5034.908
455.8830, 5888.980
457.0700, 7801.164
458.2580, 10103.84
459.4450, 13590.70
460.6330, 18165.38
461.8200, 24240.43
463.0070, 30416.05
464.1940, 35742.21
465.3800, 38177.97
466.5670, 38227.46
467.7530, 35148.84
468.9390, 30090.95
470.1250, 24410.11
471.3110, 19162.70
472.4970, 14885.62
473.6820, 11596.64
474.8680, 9124.602
476.0530, 7301.754
477.2380, 6052.914
478.4230, 5153.871
479.6070, 4475.623
480.7920, 3927.553
481.9760, 3476.553
483.1600, 3172.453
484.3440, 2715.398
485.5280, 2578.340
486.7120, 2360.293
487.8950, 2174.400
489.0780, 2074.352
490.2620, 1704.291
491.4450, 1630.471
492.6270, 1547.432
493.8100, 1584.381
494.9920, 1375.312
496.1750, 1182.188
497.3570, 1266.119
498.5390, 1172.035
499.7210, 1054.938
500.9020, 1165.828
502.0840, 1189.705
503.2650, 964.5684
504.4460, 798.4199
505.6270, 941.2578
506.8080, 725.0820
507.9890, 771.8965
509.1690, 792.3809
510.3500, 756.1719
511.5300, 765.8125
512.7100, 754.4707
513.8900, 698.6484
515.0690, 705.2500
516.2490, 631.9531
517.4280, 537.7891
518.6070, 509.0801
519.7860, 511.2949
520.9650, 447.0020
522.1440, 528.3301
523.3220, 617.0059
524.5010, 529.6191
525.6790, 572.8848
526.8570, 689.8242
528.0350, 316.3281
529.2130, 522.1309
530.3900, 193.7461
531.5670, 478.4199
532.7450, 470.9453
533.9220, 421.7910
535.0980, 398.3711
536.2750, 364.4199
537.4520, 453.2070
538.6280, 251.7598
539.8040, 360.2988
540.9800, 272.8301
542.1560, 338.3496
543.3320, 329.9375
544.5070, 349.5703
545.6830, 261.0645
546.8580, 253.8379
548.0330, 387.3125
549.2080, 165.6621
550.3830, 97.11328
551.5570, 323.5547
552.7310, 256.9863
553.9060, 193.3926
555.0800, 233.8047
556.2540, 199.2070
557.4270, 10.59961
558.6010, 255.9785
559.7740, 201.3477
560.9470, 284.7051
562.1210, 17.05664
563.2930, 27.39453
564.4660, 73.89062
565.6390, 179.2051
566.8110, 256.5117
567.9830, 301.8164
569.1550, 166.1094
570.3270, 256.3926
571.4990, 150.9453
572.6710, 114.2129
573.8420, 95.08789
575.0130, 80.98633
576.1840, 147.7871
577.3550, 121.0176
578.5260, 250.5703
579.6970, 287.7852
580.8670, 280.4922
582.0370, 49.91211
583.2070, 44.25977
584.3770, 204.4434
585.5470, 40.67383
586.7170, 178.8965
587.8860, 265.1113
589.0550, 95.63867
590.2240, 69.13867
591.3930, 293.0918
592.5620, 226.9805
593.7310, 77.25195
594.8990, 140.0703
596.0670, 208.3711
597.2350, 150.7812
598.4030, 232.4746
599.5710, 336.1699
600.7390, 255.1270
601.9060, 195.4785
603.0740, 79.84180
604.2410, 119.2012
605.4080, 27.20117
606.5740, 9.888672
607.7410, 14.25000
608.9080, 120.2480
610.0740, 55.08594
611.2400, 2.408203
612.4060, 26.90820
613.5720, 158.4160
614.7370, 55.73047
615.9030, 29.03711
617.0680, 212.8516
618.2330, 140.2754
619.3980, 32.03320
620.5630, 220.0391
621.7280, 18.71484
622.8920, 208.1680
624.0570, 210.2031
625.2210, 145.6523
626.3850, 341.9629
627.5490, 62.61523
628.7120, 231.8828
629.8760, 508.7793
631.0390, 85.15234
632.2020, 192.1016
633.3650, 372.4219
634.5280, 161.3164
635.6910, 7.087891
636.8530, 217.2910
638.0160, 252.4824
639.1780, 243.6641
640.3400, 219.8340
641.5020, 242.0410
642.6640, 179.1875
643.8250, 251.3320
644.9870, 183.4688
646.1480, 176.5879
647.3090, 282.0840
648.4700, 327.1777
649.6300, 189.2617
650.7910, 268.3320
651.9510, 189.3906
653.1120, 159.6582
654.2720, 148.7109
655.4320, 107.5469
656.5910, 117.8516
657.7510, 81.01953
658.9100, 134.0664
660.0690, 153.0957
661.2290, 162.1152
662.3880, 164.1250
663.5460, 217.1230
664.7050, 136.1074
665.8630, 88.08203
667.0220, 15.03906
668.1800, 43.98047
669.3380, 197.0000
670.4950, 143.9180
671.6530, 12.35352
672.8100, 2.7344000E-02
673.9680, 248.8438
675.1250, 19.30859
676.2820, 108.6562
677.4390, 270.4922
678.5950, 165.2754
679.7520, 275.4629
680.9080, 375.2207
682.0640, 146.9629
683.2200, 134.2832
684.3760, 312.9961
685.5320, 96.70117
686.6870, 313.3887
687.8420, 186.0645
688.9980, 209.7305
690.1530, 408.3848
691.3070, 582.0547
692.4620, 601.7148
693.6170, 564.7012
694.7710, 806.3359
695.9250, 653.9844
697.0790, 687.2852
698.2330, 698.0156
699.3870, 799.8711
700.5400, 541.6406
701.6940, 500.0352
702.8470, 121.3887
704.0000, 483.9238
705.1530, 466.4648
706.3050, 262.9902
707.4580, 267.5039
708.6100, 343.0039
709.7630, 109.7949
710.9150, 464.4004
712.0660, 46.88086
713.2180, 335.5703
714.3700, 127.5000
715.5210, 329.9297
716.6720, 99.88477
717.8240, 465.2871
718.9740, 63.67383
720.1250, 123.9590
721.2760, 248.2930
722.4260, 196.4355
723.5770, 285.7441
724.7270, 315.8398
725.8770, 236.1172
727.0260, 104.3809
728.1760, 289.6250
729.3250, 173.6953
730.4750, 41.92969
731.6240, 232.1445
732.7730, 57.30078
733.9220, 379.4844
735.0700, 163.6484
736.2190, 103.7969
737.3670, 84.92969
738.5150, 51.03906
739.6630, 237.1328
740.8110, 202.2070
741.9590, 301.2188
743.1060, 7.261719
744.2540, 38.78906
745.4010, 156.2891
746.5480, 254.9297
747.6950, 222.5625
748.8410, 142.3516
749.9880, 140.7617
751.1340, 241.3633
752.2800, 186.2617
753.4260, 195.9805
754.5720, 64.58203
755.7180, 170.6680
756.8640, 104.5156
758.0090, 33.75000
759.1540, 99.55469
760.2990, 152.2617
761.4440, 193.9727
762.5890, 25.34375
763.7340, 166.5352
764.8780, 96.30859
766.0220, 15.94922
767.1660, 47.36719
768.3100, 136.0391
769.4540, 17.95703
770.5980, 162.7539
771.7410, 41.98828
772.8840, 79.25391
774.0280, 185.9570
775.1700, 181.0781
776.3130, 312.4570
777.4560, 212.8555
778.5980, 170.9219
779.7410, 243.3828
780.8830, 288.4180
782.0250, 180.4336
783.1670, 209.4297
784.3080, 88.41406
785.4500, 350.3711
786.5910, 308.3164
787.7320, 268.2422
788.8730, 238.1523
790.0140, 132.0391
791.1550, 370.9141
792.2950, 146.7539
793.4360, 441.3945
794.5760, 416.0625
795.7160, 621.5547
796.8560, 392.2539
797.9960, 500.0078
799.1350, 372.0508
800.2750, 438.7812
801.4140, 352.5000
802.5530, 369.1055
803.6920, 438.4922
804.8310, 244.6406
805.9690, 155.9141
807.1080, 215.6328
808.2460, 54.62109
809.3840, 30.27734
810.5220, 174.6992
811.6600, 395.3008
812.7970, 138.3516
813.9350, 165.6367
815.0720, 326.1289
816.2090, 74.60938
817.3460, 267.0625
818.4830, 268.5000
819.6200, 42.84766
820.7560, 210.1172
821.8930, 342.9570
823.0290, 263.0273
824.1650, 251.3750
825.3010, 453.7070
826.4360, 241.0234
827.5720, 424.0508
828.7070, 372.4805
829.8420, 96.74219
830.9770, 337.2227
832.1120, 288.1172
833.2470, 354.3516
834.3820, 157.8008
835.5160, 124.2109
836.6500, 140.9844
837.7840, 162.5664
838.9180, 208.6992
840.0520, 219.6016
841.1860, 327.8555
842.3190, 321.9414
843.4520, 254.0273
844.5850, 451.0781
845.7180, 117.8711
846.8510, 158.6523
847.9840, 238.6406
849.1160, 130.2539
850.2490, 68.21094
851.3810, 210.9375
852.5130, 58.20703
853.6450, 296.7695
854.7760, 186.6523
855.9080, 270.0117
857.0390, 423.5195
858.1700, 424.6953
859.3010, 430.5195
860.4320, 627.3281
861.5630, 230.1289
862.6930, 429.9023
863.8240, 247.3438
864.9540, 308.0391
866.0840, 384.7656
867.2140, 553.8281
868.3440, 342.5312
869.4730, 266.6836
870.6030, 215.3555
871.7320, 185.9414
872.8610, 255.0781
873.9900, 342.5273
875.1190, 343.5273
876.2470, 445.1562
877.3760, 249.8516
878.5040, 309.5469
879.6320, 360.8125
880.7600, 27.91406
881.8880, 375.6406
883.0150, 297.3477
884.1430, 328.9805
885.2700, 245.3164
886.3970, 140.6367
887.5240, 276.1016
888.6510, 309.5469
889.7780, 354.2266
890.9040, 128.1641
892.0310, 207.5273
893.1570, 129.5938
894.2830, 470.2500
895.4090, 117.2734
896.5350, 487.5000
897.6600, 388.1172
898.7860, 111.2969
899.9110, 61.58984
901.0360, 43.51172
902.1610, 399.7930
903.2860, 104.4258
904.4100, 296.5547
905.5350, 29.07812
906.6590, 212.2070
907.7830, 15.73438
908.9070, 169.3594
910.0310, 349.5273
911.1540, 64.67578
912.2780, 55.80859
913.4010, 276.9297
914.5240, 24.99609
915.6470, 191.0820
916.7700, 230.1445
917.8930, 329.1953
919.0150, 259.2383
920.1380, 371.8828
921.2600, 161.8984
922.3820, 156.9102
923.5040, 141.9102
924.6260, 306.9414
925.7470, 329.7578
926.8690, 215.7656
927.9900, 136.6211
929.1110, 243.6133
930.2320, 246.5898
931.3530, 267.5625
932.4730, 125.5234
933.5940, 50.46875
934.7140, 308.4062
935.8340, 197.3320
936.9540, 365.2500
938.0740, 155.1523
939.1930, 32.05078
940.3130, 75.94141
941.4320, 7.269531
942.5510, 8.820313
943.6700, 118.9141
944.7890, 88.02734
945.9080, 100.8594
947.0260, 221.6914
948.1450, 174.3711
949.2630, 231.1562
950.3810, 297.9766
951.4990, 208.3672
952.6170, 281.1680
953.7340, 170.9570
954.8520, 271.1484
955.9690, 3.921875
957.0860, 226.6797
958.2030, 293.4375
959.3200, 120.1797
960.4360, 121.9180
961.5530, 115.3555
962.6690, 71.29688
963.7850, 253.9961
964.9010, 49.28906
966.0170, 99.08203
967.1330, 97.48438
968.2480, 42.03516
969.3630, 47.47266
970.4790, 90.75781
971.5940, 200.5703
972.7080, 283.0039
973.8230, 266.0352
974.9380, 67.01562
976.0520, 252.5117
977.1660, 96.00000
978.2800, 136.4805
979.3940, 85.05078
980.5080, 89.08203
981.6220, 140.3789
982.7350, 37.78125
983.8480, 290.9492
984.9610, 113.8477
986.0740, 12.37109
987.1870, 323.2109
988.3000, 249.5742
989.4120, 201.9297
990.5250, 123.7148
991.6370, 96.39844
992.7490, 143.8594
993.8610, 334.1055
994.9720, 89.35156
996.0840, 114.5898
997.1950, 142.8203
998.3060, 75.95312
999.4170, 225.2266
1000.528, 201.4023
1001.639, 155.5664
1002.750, 87.73438
1003.860, 108.8906
1004.970, 105.2656
1006.080, 71.19922
1007.190, 110.3398
1008.300, 84.90234
1009.410, 72.61719
1010.519, 49.75000
1011.628, 46.87891
1012.738, 14.00391
1013.846, 9.101563
1014.955, 1.843750
1016.064, 24.43359
1017.172, 45.54297
1018.281, 84.64453
1019.389, 149.7422
1020.497, 382.6758
1021.605, 116.7695
1022.713, 70.14453
1023.820, 104.8984
1024.928, 405.7539
1026.035, 174.8203
1027.142, 104.6719
1028.249, 181.7383
1029.356, 210.5391
1030.462, 258.6016
1031.569, 278.7461
1032.675, 274.2617
1033.781, 276.4961
1034.887, 236.2578
1035.993, 184.4961
1037.098, 146.5352
1038.204, 342.8125
1039.309, 256.6367
1040.415, 466.9219
1041.520, 520.6680
1042.624, 489.1523
1043.729, 643.2969
1044.834, 491.3477
1045.938, 520.3594
1047.042, 621.6758
1048.146, 397.5859
1049.250, 744.9023
1050.354, 371.2109
1051.458, 220.5234
1052.561, 442.8281
1053.664, 464.1328
1054.767, 242.4336
1055.870, 269.7383
1056.973, 439.6445
1058.076, 110.9375
1059.178, 155.2344
1060.281, 338.5234
1061.383, 252.8125
1062.485, 274.0977
1063.587, 392.5273
1064.688, 302.8125
1065.790, 543.1172
1066.891, 538.1328
1067.993, 201.4336
1069.094, 453.7344
1070.195, 178.3242
1071.295, 588.6211
1072.396, 330.5977
1073.496, 451.7617
1074.597, 177.0859
1075.697, 272.1211
1076.797, 292.4688
1077.897, 215.7109
1078.996, 546.0078
1080.096, 223.3633
1081.195, 586.7148
1082.294, 407.0664
1083.393, 349.4141
1084.492, 595.7578
1085.591, 575.1016
1086.689, 1021.445
1087.788, 801.7891
1088.886, 628.6797
1089.984, 203.0234
1091.082, 120.3555
1092.180, 346.6914
1093.277, 490.0273
1094.375, 236.6289
1095.472, 35.81250
1096.569, 304.1406
1097.666, 290.2773
1098.763, 155.9336
1099.860, 88.23438
1100.956, 163.3047
1102.053, 169.3984
1103.149, 66.32812
1104.245, 191.9648
1105.341, 68.26172
1106.436, 79.56250
1107.532, 309.7070
1108.627, 312.0000
1109.723, 79.26953
1110.818, 353.5586
1111.913, 258.0938
1113.007, 165.3438
1114.102, 214.6406
1115.197, 194.6836
1116.291, 202.9766
1117.385, 3.273438
1118.479, 197.2188
1119.573, 182.5156
1120.666, 231.1367
1121.760, 508.1094
1122.853, 432.3477
1123.947, 239.3125
1125.040, 408.6133
1126.132, 238.9141
1127.225, 232.2070
1128.318, 348.6562
1129.410, 176.9570
1130.502, 357.3008
1131.595, 126.6094
1132.687, 225.9141
1133.778, 372.2227
1134.870, 496.5352
1135.961, 370.8398
1137.053, 258.1523
1138.144, 230.4180
1139.235, 456.7461
1140.326, 349.0820
1141.416, 198.3789
1142.507, 474.5859
1143.597, 469.7812
1144.688, 469.1406
1145.778, 158.1914
1146.868, 527.1992
1147.957, 99.88281
1149.047, 291.1016
1150.136, 374.6602
1151.226, 619.0117
1152.315, 362.3711
1153.404, 592.7852
1154.493, 819.8984
1155.581, 700.6055
1156.670, 999.9688
1157.758, 1206.336
1158.846, 1432.910
1159.934, 1870.367
1161.022, 1832.734
1162.110, 1474.035
1163.198, 1846.723
1164.285, 1504.531
1165.372, 1199.941
1166.459, 1018.875
1167.546, 792.2578
1168.633, 555.6367
1169.720, 438.0156
1170.806, 485.3984
1171.892, 321.0742
1172.979, 590.4570
1174.065, 241.7773
1175.150, 448.4258
1176.236, 99.80859
1177.322, 298.1875
1178.407, 91.57422
1179.492, 230.9648
1180.577, 132.3594
1181.662, 372.7500
1182.747, 384.1406
1183.832, 353.5352
1184.916, 95.92578
1186.000, 310.3125
1187.084, 177.2969
1188.168, 201.0000
1189.252, 230.2891
1190.336, 253.5859
1191.419, 489.8789
1192.503, 443.1953
1193.586, 11.48438
1194.669, 87.77344
1195.752, 161.7109
1196.835, 432.9961
1197.917, 111.2812
1199.000, 311.5625
1200.082, 1.156250
1201.164, 625.1211
1202.246, 176.4141
1203.328, 352.0352
1204.409, 44.41406
1205.491, 17.18750
1206.572, 478.3047
1207.653, 189.6758
1208.734, 364.0703
1209.815, 543.3281
1210.896, 315.5898
1211.976, 363.8438
1213.057, 300.0977
1214.137, 314.3477
1215.217, 120.6016
1216.297, 387.8516
1217.377, 442.0938
1218.456, 447.3359
1219.536, 291.5820
1220.615, 483.8281
1221.694, 334.0703
1222.773, 203.3086
1223.852, 320.5469
1224.931, 162.0117
1226.009, 102.0195
1227.088, 62.28125
1228.166, 291.5469
1229.244, 326.8320
1230.322, 442.1172
1231.400, 462.4023
1232.477, 471.6875
1233.555, 526.5039
1234.632, 596.7852
1235.709, 708.0625
1236.786, 244.3398
1237.863, 484.6133
1238.939, 130.8828
1240.016, 424.1562
1241.092, 300.4258
1242.168, 365.7188
1243.245, 248.0117
1244.320, 217.6406
1245.396, 120.5898
1246.472, 188.8711
1247.547, 310.0156
1248.622, 450.2969
1249.697, 564.5820
1250.772, 284.8672
1251.847, 461.1523
1252.922, 408.4688
1253.996, 536.8125
1255.071, 92.15234
1256.145, 578.4922
1257.219, 42.82812
1258.293, 350.1602
1259.366, 603.4922
1260.440, 323.8477
1261.513, 457.1953
1262.587, 288.8828
1263.660, 431.2305
1264.733, 479.5703
1265.805, 170.9180
1266.878, 355.2578
1267.951, 251.2188
1269.023, 670.5664
1270.095, 456.0273
1271.167, 342.3750
1272.239, 199.7188
1273.311, 308.0586
1274.382, 277.4102
1275.454, 225.7578
1276.525, 45.89062
1277.596, 400.4297
1278.667, 40.03125
1279.738, 493.3398
1280.808, 112.6523
1281.879, 76.96094
1282.949, 261.2617
1284.019, 105.0156
1285.089, 293.2344
1286.159, 424.4844
1287.229, 43.73047
1288.298, 72.97266
1289.368, 195.2148
1290.437, 49.54688
1291.506, 19.65234
1292.575, 73.15625
1293.644, 86.98438
1294.712, 74.87500
1295.781, 383.2148
1296.849, 249.3086
1297.917, 186.3945
1298.985, 237.4805
1300.053, 26.56250
1301.121, 296.6406
1302.188, 64.25000
1303.255, 34.76562
1304.323, 360.7852
1305.390, 328.7930
1306.457, 223.8047
1307.523, 218.9531
1308.590, 303.9609
1309.656, 254.9648
1310.723, 367.9648
1311.789, 450.9688
1312.855, 270.9688
1313.921, 305.9336
1314.986, 403.8984
1316.052, 161.2578
1317.117, 426.1719
1318.182, 225.0820
1319.248, 500.9688
1320.312, 85.83984
1321.377, 343.7148
1322.442, 367.4375
1323.506, 94.69141
1324.571, 341.1484
1325.635, 400.9844
1326.699, 176.8125
1327.762, 153.6445
1328.826, 127.1836
1329.890, 147.9922
1330.953, 11.78906
1332.016, 70.56641
1333.079, 66.26172
1334.142, 56.11719
1335.205, 6.363281
1336.268, 63.37891
1337.330, 738.1172
1338.392, 497.8516
1339.454, 310.5898
1340.516, 595.3203
1341.578, 240.0547
1342.640, 240.8867
1343.701, 655.6094
1344.763, 230.3320
1345.824, 441.0547
1346.885, 330.7734
1347.946, 284.4805
1349.007, 273.1914
1350.067, 448.8711
1351.128, 156.5469
1352.188, 177.2266
1353.248, 410.8984
1354.308, 436.5664
1355.368, 322.1875
1356.428, 370.8477
1357.487, 132.5000
1358.547, 682.1484
1359.606, 569.7930
1360.665, 528.4336
1361.724, 346.0859
1362.783, 529.7422
1363.841, 641.3867
1364.900, 211.0312
1365.958, 107.6758
1367.016, 371.6016
1368.074, 214.2383
1369.132, 422.1562
1370.190, 210.7891
1371.247, 653.4141
1372.304, 303.0430
1373.362, 400.6719
1374.419, 397.3008
1375.476, 268.9219
1376.532, 469.5469
1377.589, 414.5664
1378.645, 543.1914
1379.702, 616.9766
1380.758, 571.8906
1381.814, 686.0664
1382.870, 543.6875
1383.925, 394.3125
1384.981, 417.8945
1386.036, 493.5234
1387.092, 436.1406
1388.147, 440.7617
1389.202, 24.47266
1390.256, 337.0977
1391.311, 503.7266
1392.365, 325.7383
1393.420, 739.3672
1394.474, 41.90234
1395.528, 432.7383
1396.582, 83.36328
1397.636, 249.9883
1398.689, 309.6172
1399.742, 205.2422
1400.796, 655.5391
1401.849, 279.1758
1402.902, 215.8164
1403.955, 405.8594
1405.007, 41.45703
1406.060, 671.8555
1407.112, 331.4609
1408.164, 261.0742
1409.216, 428.6328
1410.268, 23.25781
1411.320, 363.5234
1412.371, 314.0469
1413.423, 108.5664
1414.474, 363.8828
1415.525, 355.2500
1416.576, 425.7031
1417.627, 485.7109
1418.678, 488.3320
1419.728, 484.3203
1420.778, 435.2227
1421.829, 388.9570
1422.879, 292.7891
1423.928, 277.3945
1424.978, 243.9492
1426.028, 238.1055
1427.077, 424.0195
1428.126, 87.18359
1429.176, 442.1445
1430.225, 722.6758
1431.273, 367.4609
1432.322, 694.2422
1433.371, 61.02344
1434.419, 548.7969
1435.467, 206.5625
1436.515, 410.4219
1437.563, 193.2773
1438.611, 452.0977
1439.658, 556.6914
1440.706, 492.4766
1441.753, 459.2578
1442.800, 684.8047
1443.847, 333.9648
1444.894, 569.6680
1445.941, 310.8633
1446.987, 527.4727
1448.034, 566.0781
1449.080, 570.6836
1450.126, 479.2773
1451.172, 765.8672
1452.218, 529.4570
1453.263, 590.0430
1454.309, 282.6211
1455.354, 449.1914
1456.399, 397.7617
1457.444, 257.3242
1458.489, 139.8867
1459.534, 411.4414
1460.579, 313.9922
1461.623, 411.5391
1462.667, 261.0703
1463.711, 391.6094
1464.755, 470.1367
1465.799, 478.6562
1466.843, 174.1406
1467.886, 58.62109
1468.930, 508.0938
1469.973, 264.5586
1471.016, 488.0195
1472.059, 469.9531
1473.101, 159.3867
1474.144, 599.8086
1475.186, 260.4570
1476.229, 350.5664
1477.271, 143.8281
1478.313, 330.0586
1479.355, 105.2969
1480.396, 189.0625
1481.438, 327.2930
1482.479, 374.8047
1483.520, 402.1055
1484.561, 247.3984
1485.602, 523.6836
1486.643, 359.0234
1487.684, 678.4492
1488.724, 205.9336
1489.765, 262.4023
1490.805, 120.8750
1491.845, 15.32422
1492.885, 173.9062
1493.924, 18.18359
1494.964, 119.7383
1496.003, 102.2773
1497.042, 244.8672
1498.082, 271.5117
1499.120, 218.3711
1500.159, 178.3516
1501.198, 287.3555
1502.236, 35.62891
1503.275, 132.4023
1504.313, 296.4375
1505.351, 103.4922
1506.389, 420.5547
1507.427, 348.6406
1508.464, 324.1992
1509.502, 72.84375
1510.539, 258.9766
1511.576, 245.8242
1512.613, 253.9961
1513.650, 81.20703
1514.687, 123.0742
1515.723, 338.9961
1516.759, 25.51172
1517.796, 149.1016
1518.832, 38.21875
1519.868, 106.5352
1520.903, 556.3633
1521.939, 318.2695
1522.975, 574.0859
1524.010, 347.9492
1525.045, 9.960938
1526.080, 539.2227
1527.115, 399.4961
1528.150, 281.1836
1529.184, 335.1250
1530.219, 282.1289
1531.253, 230.1875
1532.287, 312.7070
1533.321, 203.8750
1534.355, 274.5586
1535.388, 438.1836
1536.422, 552.8633
1537.455, 206.4102
1538.488, 432.8984
1539.522, 373.4648
1540.554, 147.2422
1541.587, 262.3945
1542.620, 226.9141
1543.652, 361.6172
1544.685, 405.3555
1545.717, 8.152344
1546.749, 72.73438
1547.781, 66.66797
1548.812, 81.94531
1549.844, 376.0078
1550.875, 28.41016
1551.906, 5.4687999E-02
1552.938, 0.0000000E+00
##END=



