##NAMES=Rhodochrosite
##RRUFFID=R040133
##IDEAL CHEMISTRY=Mn^2+^CO_3_
##LOCALITY=Imuris, Sonora, Mexico
##OWNER=RRUFF
##SOURCE=University of Arizona Mineral Museum
##DESCRIPTION=Pink cleavage fragment
##STATUS=The identification of this mineral has been confirmed by X-ray diffraction and chemical analysis
##URL=rruff.info/R040133
##MEASURED CHEMISTRY=(Mn_0.92_Mg_0.02_Ca_0.01_)C_1.02_O_3_
##PIN_ID=L00279
##ORIENTATION=Laser parallel to a* (1 0 0). Fiducial mark perpendicular to laser is parallel to c [0 0 1]
50.765, 0.000
52.166, 2.648
53.566, 22.856
54.966, 52.057
56.365, 32.591
57.765, 100.748
59.164, 80.058
60.563, 85.829
61.962, 127.502
63.360, 93.981
64.758, 87.798
66.157, 50.606
67.554, 24.197
68.952, 24.504
70.349, 18.120
71.747, 3.715
73.144, 27.578
74.540, 47.155
75.937, 102.645
77.333, 134.449
78.729, 136.365
80.125, 160.983
81.521, 167.110
82.916, 145.381
84.311, 173.394
85.706, 160.146
87.101, 160.371
88.496, 122.246
89.890, 138.108
91.284, 145.264
92.678, 166.008
94.071, 141.113
95.465, 117.612
96.858, 89.374
98.251, 83.370
99.644, 91.132
101.036, 67.380
102.428, 69.051
103.820, 60.603
105.212, 105.334
106.604, 72.036
107.995, 85.408
109.387, 78.581
110.777, 57.052
112.168, 53.129
113.559, 55.849
114.949, 77.476
116.339, 95.012
117.729, 65.461
119.119, 60.825
120.508, 37.107
121.897, 22.310
123.286, 38.436
124.675, 12.250
126.063, 3.088
127.452, 10.889
128.840, 3.821
130.228, 12.876
131.615, 3.934
133.003, 4.423
134.390, 9.024
135.777, 6.278
137.164, 2.186
138.550, 35.096
139.937, 32.436
141.323, 12.797
142.709, 29.331
144.094, 17.895
145.480, 25.227
146.865, 30.897
148.250, 26.104
149.635, 36.404
151.019, 22.430
152.403, 24.310
153.788, 5.001
155.171, 26.676
156.555, 25.220
157.939, 29.388
159.322, 33.013
160.705, 23.321
162.088, 29.262
163.470, 28.184
164.853, 23.086
166.235, 33.966
167.617, 47.826
168.998, 79.664
170.380, 93.475
171.761, 129.254
173.142, 156.986
174.523, 184.670
175.904, 297.310
177.284, 386.901
178.664, 594.458
180.044, 887.982
181.424, 1256.473
182.803, 1705.934
184.183, 2120.365
185.562, 2174.764
186.940, 1825.131
188.319, 1307.470
189.698, 829.781
191.076, 574.065
192.454, 330.323
193.831, 266.561
195.209, 177.784
196.586, 107.994
197.963, 97.209
199.340, 52.456
200.717, 47.725
202.093, 45.881
203.470, 16.131
204.846, 14.286
206.221, 13.424
207.597, 21.718
208.972, 14.178
210.347, 5.975
211.722, 1.106
213.097, 0.175
214.472, 13.659
215.846, 17.637
217.220, 7.731
218.594, 21.782
219.967, 1.111
221.341, 14.065
222.714, 11.222
224.087, 8.516
225.460, 2.858
226.832, 7.781
228.204, 0.292
229.577, 15.735
230.948, 10.890
232.320, 7.479
233.692, 18.680
235.063, 22.772
236.434, 3.899
237.805, 4.721
239.175, 32.682
240.545, 47.564
241.916, 25.370
243.286, 64.096
244.655, 53.819
246.025, 40.471
247.394, 63.041
248.763, 65.532
250.132, 72.937
251.501, 71.278
252.869, 85.557
254.237, 84.729
255.605, 96.828
256.973, 75.857
258.340, 104.809
259.708, 88.677
261.075, 107.492
262.442, 138.133
263.808, 111.663
265.175, 152.191
266.541, 157.566
267.907, 210.926
269.273, 224.213
270.639, 242.543
272.004, 288.826
273.369, 324.010
274.734, 416.226
276.099, 539.264
277.463, 678.295
278.828, 862.335
280.192, 1109.410
281.556, 1498.495
282.919, 2021.498
284.283, 2663.490
285.646, 3579.272
287.009, 4500.892
288.372, 5505.706
289.734, 5856.199
291.097, 5922.136
292.459, 5300.550
293.821, 4382.828
295.183, 3454.043
296.544, 2615.831
297.905, 1992.449
299.266, 1485.513
300.627, 1185.682
301.988, 950.976
303.348, 744.323
304.709, 632.592
306.069, 537.463
307.428, 495.619
308.788, 442.545
310.147, 379.530
311.507, 349.661
312.865, 326.717
314.224, 280.822
315.583, 258.860
316.941, 236.881
318.299, 236.400
319.657, 202.340
321.015, 200.335
322.372, 175.334
323.729, 166.355
325.086, 195.292
326.443, 177.303
327.800, 161.257
329.156, 133.129
330.512, 152.153
331.868, 142.248
333.224, 132.509
334.579, 116.827
335.935, 131.282
337.290, 113.917
338.645, 112.451
339.999, 104.006
341.354, 97.970
342.708, 97.616
344.062, 88.683
345.416, 95.191
346.769, 88.682
348.123, 85.166
349.476, 111.643
350.829, 107.140
352.182, 72.722
353.534, 101.242
354.887, 89.723
356.239, 104.214
357.591, 90.653
358.942, 92.085
360.294, 71.364
361.645, 70.592
362.996, 78.704
364.347, 90.738
365.698, 79.734
367.048, 93.472
368.398, 79.181
369.748, 77.888
371.098, 89.674
372.448, 75.397
373.797, 66.029
375.146, 65.447
376.495, 82.786
377.844, 70.329
379.192, 91.585
380.540, 63.659
381.889, 62.668
383.236, 64.860
384.584, 43.668
385.932, 58.215
387.279, 51.913
388.626, 38.950
389.973, 49.406
391.319, 48.612
392.666, 48.216
394.012, 30.699
395.358, 54.086
396.704, 63.613
398.049, 32.154
399.394, 45.534
400.740, 36.862
402.084, 43.496
403.429, 43.168
404.774, 43.720
406.118, 27.436
407.462, 28.183
408.806, 30.769
410.150, 34.443
411.493, 41.130
412.836, 41.823
414.179, 41.498
415.522, 48.224
416.865, 44.936
418.207, 39.689
419.549, 40.346
420.891, 39.125
422.233, 39.819
423.575, 41.491
424.916, 46.551
426.257, 41.322
427.598, 41.234
428.939, 31.103
430.279, 27.965
431.619, 66.820
432.959, 18.675
434.299, 45.517
435.639, 22.390
436.978, 37.553
438.318, 30.378
439.657, 26.241
440.996, 35.199
442.334, 46.008
443.673, 31.835
445.011, 25.633
446.349, 34.425
447.687, 37.616
449.024, 22.401
450.361, 28.521
451.699, 16.573
453.036, 19.349
454.372, 15.141
455.709, 26.018
457.045, 14.795
458.381, 22.572
459.717, 37.355
461.053, 36.172
462.388, 33.958
463.724, 13.781
465.059, 18.012
466.394, 19.467
467.728, 20.263
469.063, 27.051
470.397, 41.938
471.731, 18.712
473.065, 19.484
474.398, 34.255
475.732, 6.024
477.065, 14.803
478.398, 19.572
479.731, 57.343
481.063, 17.112
482.396, 26.908
483.728, 30.675
485.060, 20.475
486.391, 19.240
487.723, 29.872
489.054, 32.636
490.385, 24.427
491.716, 46.202
493.047, 52.962
494.377, 31.746
495.708, 45.761
497.038, 10.296
498.368, 37.050
499.697, 24.812
501.027, 2.633
502.356, 38.457
503.685, 26.190
505.014, 27.885
506.342, 44.622
507.671, 39.315
508.999, 46.097
510.327, 22.822
511.655, 0.544
512.982, 13.167
514.310, 20.931
515.637, 16.634
516.964, 27.356
518.291, 35.058
519.617, 41.767
520.944, 27.388
522.270, 8.006
523.596, 20.659
524.921, 39.383
526.247, 21.079
527.572, 21.832
528.897, 19.495
530.222, 24.183
531.547, 16.887
532.871, 5.541
534.196, 16.164
535.520, 24.789
536.844, 6.495
538.167, 16.160
539.491, 6.114
540.814, 22.545
542.137, 14.216
543.460, 8.098
544.783, 22.510
546.105, 29.191
547.427, 24.860
548.749, 38.486
550.071, 19.161
551.393, 2.838
552.714, 16.517
554.035, 20.134
555.356, 17.854
556.677, 21.616
557.998, 1.750
559.318, 6.944
560.638, 6.606
561.958, 25.299
563.278, 4.992
564.597, 19.689
565.917, 0.679
567.236, 19.958
568.555, 22.607
569.874, 14.274
571.192, 26.972
572.511, 30.674
573.829, 29.377
575.147, 29.111
576.464, 40.833
577.782, 31.534
579.099, 14.241
580.416, 21.944
581.733, 19.651
583.050, 0.632
584.366, 22.106
585.683, 6.824
586.999, 22.542
588.315, 26.219
589.630, 25.887
590.946, 13.654
592.261, 35.285
593.576, 6.029
594.891, 8.323
596.206, 23.386
597.520, 4.067
598.834, 3.268
600.148, 24.442
601.462, 8.190
602.776, 28.880
604.089, 15.546
605.402, 9.751
606.715, 23.963
608.028, 27.373
609.341, 6.687
610.653, 30.008
611.965, 2.333
613.277, 13.308
614.589, 17.966
615.901, 17.576
617.212, 11.226
618.523, 2.929
619.834, 10.628
621.145, 2.350
622.456, 8.340
623.766, 2.031
625.076, 7.628
626.386, 9.272
627.696, 2.058
629.006, 26.057
630.315, 25.692
631.624, 17.331
632.933, 26.041
634.242, 9.625
635.551, 17.959
636.859, 12.601
638.167, 16.316
639.475, 6.035
640.783, 28.716
642.090, 4.408
643.398, 25.057
644.705, 17.282
646.012, 35.400
647.318, 5.109
648.625, 8.769
649.931, 19.472
651.237, 6.754
652.543, 14.767
653.849, 4.878
655.155, 13.481
656.460, 10.273
657.765, 0.061
659.070, 0.478
660.375, 31.248
661.679, 31.150
662.984, 8.837
664.288, 13.531
665.592, 0.781
666.895, 18.905
668.199, 30.564
669.502, 19.423
670.805, 1.100
672.108, 9.752
673.411, 13.517
674.713, 29.212
676.016, 32.052
677.318, 25.729
678.620, 33.415
679.921, 25.260
681.223, 9.914
682.524, 5.587
683.825, 2.809
685.126, 21.906
686.427, 7.577
687.727, 25.255
689.028, 36.894
690.328, 17.545
691.628, 16.181
692.927, 42.471
694.227, 32.073
695.526, 23.713
696.825, 33.151
698.124, 41.811
699.423, 27.438
700.721, 34.193
702.020, 32.849
703.318, 40.891
704.616, 59.989
705.913, 69.939
707.211, 85.586
708.508, 112.164
709.805, 145.876
711.102, 206.523
712.399, 261.176
713.695, 423.820
714.992, 687.353
716.288, 1296.945
717.584, 2202.535
718.879, 3009.174
720.175, 2895.756
721.470, 1989.391
722.765, 1145.939
724.060, 692.573
725.355, 415.205
726.649, 314.823
727.944, 210.453
729.238, 157.214
730.532, 96.840
731.825, 86.465
733.119, 86.088
734.412, 57.710
735.705, 57.321
736.998, 49.939
738.291, 41.557
739.584, 44.588
740.876, 52.730
742.168, 44.305
743.460, 42.915
744.752, 34.944
746.043, 46.552
747.334, 35.151
748.626, 25.756
749.916, 50.321
751.207, 25.598
752.498, 19.299
753.788, 33.853
755.078, 14.305
756.368, 18.899
757.658, 25.468
758.947, 25.059
760.237, 23.068
761.526, 19.497
762.815, 12.420
764.104, 8.665
765.392, 2.973
766.680, 5.742
767.969, 6.046
769.257, 12.782
770.544, 13.359
771.832, 11.935
773.119, 17.502
774.406, 18.034
775.693, 6.597
776.980, 2.409
778.267, 16.250
779.553, 9.076
780.839, 13.617
782.125, 29.164
783.411, 2.391
784.697, 31.162
785.982, 18.714
787.267, 12.265
788.552, 20.814
789.837, 7.649
791.122, 18.891
792.406, 19.429
793.690, 3.966
794.974, 12.474
796.258, 24.007
797.542, 15.506
798.825, 10.036
800.108, 16.257
801.391, 9.785
802.674, 21.281
803.957, 12.791
805.239, 5.687
806.522, 1.195
807.804, 2.801
809.085, 26.788
810.367, 3.488
811.649, 17.979
812.930, 10.406
814.211, 5.817
815.492, 0.536
816.772, 11.029
818.053, 11.505
819.333, 14.995
820.613, 14.380
821.893, 21.867
823.173, 0.647
824.452, 4.835
825.732, 19.266
827.011, 30.267
828.290, 8.188
829.568, 1.646
830.847, 28.101
832.125, 9.554
833.403, 0.005
834.681, 15.453
835.959, 22.881
837.236, 10.289
838.514, 13.684
839.791, 6.126
841.068, 8.539
842.345, 16.978
843.621, 13.583
844.898, 10.844
846.174, 6.729
847.450, 8.691
848.726, 9.109
850.001, 6.527
851.277, 13.944
852.552, 34.359
853.827, 3.226
855.102, 41.185
856.376, 13.406
857.651, 10.006
858.925, 1.615
860.199, 13.773
861.473, 15.159
862.746, 2.544
864.020, 23.927
865.293, 5.309
866.566, 25.690
867.839, 17.070
869.112, 30.449
870.384, 29.828
871.656, 25.205
872.928, 21.582
874.200, 20.764
875.472, 15.588
876.744, 20.706
878.015, 7.079
879.286, 11.451
880.557, 6.822
881.828, 0.192
883.098, 17.560
884.369, 6.927
885.639, 10.293
886.909, 25.658
888.178, 17.022
889.448, 10.386
890.717, 4.748
891.987, 20.110
893.256, 2.471
894.524, 9.831
895.793, 5.191
897.061, 5.451
898.330, 15.904
899.598, 7.257
900.865, 4.622
902.133, 5.740
903.401, 2.314
904.668, 0.333
905.935, 20.018
907.202, 29.368
908.468, 24.710
909.735, 26.060
911.001, 21.411
912.267, 23.761
913.533, 12.111
914.799, 15.462
916.064, 7.799
917.330, 6.975
918.595, 2.599
919.860, 8.719
921.124, 5.039
922.389, 11.388
923.653, 14.062
924.918, 18.082
926.182, 11.435
927.445, 8.788
928.709, 7.891
929.972, 1.924
931.236, 6.577
932.499, 23.743
933.761, 10.082
935.024, 18.428
936.286, 13.381
937.549, 20.727
938.811, 22.793
940.073, 17.409
941.334, 25.755
942.596, 33.389
943.857, 28.735
945.118, 46.080
946.379, 11.341
947.640, 15.681
948.900, 9.026
950.161, 19.372
951.421, 11.297
952.681, 18.047
953.940, 17.377
955.200, 30.722
956.459, 2.066
957.719, 21.828
958.978, 7.853
960.236, 33.785
961.495, 5.868
962.753, 16.380
964.012, 16.725
965.270, 10.060
966.527, 6.629
967.785, 18.487
969.043, 7.824
970.300, 1.165
971.557, 41.512
972.814, 13.861
974.071, 12.210
975.327, 22.267
976.583, 27.560
977.840, 19.911
979.095, 12.133
980.351, 14.469
981.607, 9.660
982.862, 11.015
984.117, 23.363
985.372, 11.475
986.627, 3.832
987.882, 18.191
989.136, 26.547
990.390, 45.908
991.644, 23.248
992.898, 43.602
994.152, 45.966
995.405, 34.271
996.659, 60.638
997.912, 56.381
999.165, 62.746
1000.417, 83.114
1001.670, 71.472
1002.922, 69.852
1004.174, 99.233
1005.426, 111.213
1006.678, 129.597
1007.930, 137.589
1009.181, 132.535
1010.432, 138.625
1011.683, 141.013
1012.934, 124.407
1014.185, 158.725
1015.435, 180.121
1016.685, 184.509
1017.935, 179.911
1019.185, 183.319
1020.435, 182.729
1021.684, 209.139
1022.934, 199.551
1024.183, 210.964
1025.432, 224.379
1026.680, 207.795
1027.929, 233.212
1029.177, 208.631
1030.425, 193.050
1031.673, 205.472
1032.921, 213.761
1034.169, 189.188
1035.416, 205.617
1036.663, 242.047
1037.911, 212.478
1039.157, 233.911
1040.404, 237.347
1041.650, 273.782
1042.897, 273.222
1044.143, 254.643
1045.389, 331.087
1046.634, 325.534
1047.880, 334.562
1049.125, 388.015
1050.371, 380.483
1051.615, 427.938
1052.860, 468.400
1054.105, 480.855
1055.349, 513.221
1056.593, 527.689
1057.837, 523.159
1059.081, 641.630
1060.325, 628.382
1061.568, 749.857
1062.812, 833.334
1064.055, 968.813
1065.298, 1023.849
1066.540, 1137.778
1067.783, 1115.262
1069.025, 1119.562
1070.267, 1108.050
1071.509, 1271.540
1072.751, 1420.032
1073.993, 1577.525
1075.234, 1904.021
1076.475, 2248.517
1077.716, 2780.015
1078.957, 3592.046
1080.198, 4881.440
1081.438, 7630.573
1082.679, 12664.087
1083.919, 24274.129
1085.159, 46083.641
1086.398, 60343.160
1087.638, 55922.668
1088.877, 34912.203
1090.116, 19321.732
1091.355, 11951.260
1092.594, 7345.793
1093.833, 4738.328
1095.071, 3231.862
1096.309, 2314.423
1097.547, 1729.962
1098.785, 1382.502
1100.023, 1094.044
1101.260, 952.026
1102.498, 764.570
1103.735, 660.116
1104.972, 592.663
1106.208, 499.215
1107.445, 446.981
1108.681, 391.323
1109.918, 355.882
1111.154, 324.264
1112.389, 288.826
1113.625, 264.752
1114.860, 244.973
1116.096, 227.335
1117.331, 217.904
1118.566, 220.475
1119.800, 215.273
1121.035, 208.927
1122.269, 207.215
1123.503, 215.078
1124.737, 196.656
1125.971, 173.237
1127.205, 162.051
1128.438, 132.417
1129.671, 135.010
1130.904, 135.100
1132.137, 110.696
1133.370, 116.294
1134.602, 121.894
1135.834, 122.534
1137.066, 93.149
1138.298, 112.991
1139.530, 93.605
1140.762, 98.211
1141.993, 71.818
1143.224, 106.426
1144.455, 93.437
1145.686, 100.051
1146.917, 75.069
1148.147, 62.691
1149.377, 52.313
1150.607, 42.311
1151.837, 55.933
1153.067, 42.556
1154.296, 73.236
1155.526, 71.862
1156.755, 58.570
1157.984, 51.206
1159.213, 57.843
1160.441, 50.504
1161.670, 27.143
1162.898, 63.783
1164.126, 45.301
1165.354, 26.955
1166.581, 49.610
1167.809, 40.300
1169.036, 32.956
1170.263, 23.599
1171.490, 25.241
1172.717, 24.912
1173.943, 24.618
1175.170, 38.262
1176.396, 32.906
1177.622, 49.551
1178.848, 47.196
1180.073, 36.885
1181.299, 18.178
1182.524, 43.912
1183.749, 28.598
1184.974, 4.337
1186.199, 31.009
1187.423, 24.774
1188.648, 22.477
1189.872, 28.537
1191.096, 24.575
1192.320, 40.222
1193.543, 14.152
1194.767, 8.799
1195.990, 30.062
1197.213, 1.245
1198.436, 24.403
1199.659, 32.229
1200.881, 28.914
1202.104, 31.006
1203.326, 6.654
1204.548, 35.314
1205.770, 28.961
1206.991, 8.209
1208.213, 22.518
1209.434, 8.256
1210.655, 14.020
1211.876, 14.838
1213.096, 17.586
1214.317, 13.228
1215.537, 39.927
1216.757, 31.284
1217.977, 37.249
1219.197, 31.973
1220.417, 28.627
1221.636, 30.355
1222.855, 25.640
1224.074, 24.666
1225.293, 24.338
1226.512, 10.646
1227.731, 16.560
1228.949, 14.460
1230.167, 10.767
1231.385, 26.869
1232.603, 13.544
1233.820, 33.832
1235.038, 10.465
1236.255, 5.157
1237.472, 25.030
1238.689, 23.689
1239.906, 12.407
1241.122, 32.038
1242.338, 1.682
1243.555, 8.314
1244.771, 40.946
1245.986, 21.578
1247.202, 21.210
1248.417, 16.844
1249.633, 9.479
1250.848, 38.113
1252.063, 8.747
1253.277, 13.402
1254.492, 37.035
1255.706, 27.668
1256.920, 6.300
1258.134, 19.931
1259.348, 29.562
1260.562, 5.192
1261.775, 8.821
1262.988, 28.450
1264.201, 16.077
1265.414, 3.298
1266.627, 0.675
1267.839, 19.940
1269.052, 16.554
1270.264, 23.167
1271.476, 22.780
1272.688, 18.386
1273.899, 11.987
1275.111, 16.581
1276.322, 6.826
1277.533, 36.764
1278.744, 32.353
1279.955, 14.941
1281.165, 5.528
1282.376, 12.110
1283.586, 2.310
1284.796, 13.267
1286.006, 18.841
1287.215, 17.410
1288.425, 20.975
1289.634, 4.465
1290.843, 39.092
1292.052, 4.361
1293.261, 16.180
1294.469, 16.719
1295.678, 19.745
1296.886, 21.781
1298.094, 25.304
1299.302, 4.825
1300.509, 20.344
1301.717, 1.861
1302.924, 22.374
1304.131, 18.886
1305.338, 13.612
1306.545, 28.880
1307.752, 29.369
1308.958, 11.148
1310.164, 16.325
1311.370, 13.205
1312.576, 8.259
1313.782, 16.719
1314.987, 83.178
1316.193, 352.633
1317.398, 5.086
1318.603, 14.536
1319.807, 352.982
1321.012, 117.429
1322.216, 20.870
1323.421, 31.307
1324.625, 10.742
1325.829, 6.827
1327.032, 3.626
1328.236, 12.048
1329.439, 3.478
1330.642, 15.893
1331.845, 2.305
1333.048, 8.761
1334.251, 2.815
1335.453, 2.415
1336.656, 29.980
1337.858, 0.627
1339.060, 26.761
1340.261, 5.848
1341.463, 12.532
1342.664, 30.895
1343.866, 14.731
1345.067, 14.636
1346.267, 2.982
1347.468, 25.382
1348.669, 20.740
1349.869, 27.094
1351.069, 1.447
1352.269, 5.947
1353.469, 4.865
1354.668, 3.209
1355.868, 1.550
1357.067, 4.279
1358.266, 24.306
1359.465, 10.710
1360.664, 18.140
1361.862, 22.679
1363.061, 7.051
1364.259, 22.376
1365.457, 6.699
1366.655, 22.021
1367.852, 21.342
1369.050, 17.662
1370.247, 6.023
1371.444, 0.278
1372.641, 0.560
1373.838, 3.835
1375.035, 26.576
1376.231, 15.836
1377.427, 5.907
1378.623, 36.339
1379.819, 11.790
1381.015, 0.817
1382.211, 19.365
1383.406, 7.989
1384.601, 51.428
1385.796, 23.968
1386.991, 39.507
1388.185, 66.043
1389.380, 38.574
1390.574, 31.106
1391.768, 44.616
1392.962, 56.116
1394.156, 50.629
1395.350, 40.898
1396.543, 23.324
1397.736, 47.836
1398.929, 62.346
1400.122, 52.846
1401.315, 73.776
1402.507, 72.273
1403.700, 65.706
1404.892, 117.900
1406.084, 130.386
1407.276, 214.383
1408.467, 266.366
1409.659, 345.829
1410.850, 432.555
1412.041, 628.932
1413.232, 919.277
1414.423, 1258.717
1415.614, 1517.806
1416.804, 1534.055
1417.994, 1432.075
1419.184, 1086.378
1420.374, 845.764
1421.564, 685.022
1422.753, 524.401
1423.943, 422.777
1425.132, 361.150
1426.321, 291.322
1427.510, 251.503
1428.698, 210.591
1429.887, 167.712
1431.075, 192.602
1432.263, 150.960
1433.451, 145.194
1434.639, 155.546
1435.827, 152.094
1437.014, 136.330
1438.201, 138.141
1439.388, 129.026
1440.575, 131.782
1441.762, 138.909
1442.949, 130.063
1444.135, 99.107
1445.321, 115.129
1446.507, 113.234
1447.693, 113.656
1448.879, 75.070
1450.064, 105.140
1451.250, 74.991
1452.435, 43.501
1453.620, 79.360
1454.805, 90.406
1455.989, 64.460
1457.174, 75.495
1458.358, 38.511
1459.542, 48.510
1460.726, 41.441
1461.910, 44.400
1463.093, 18.349
1464.277, 41.279
1465.460, 37.193
1466.643, 52.098
1467.826, 24.017
1469.009, 11.915
1470.191, 40.832
1471.373, 15.771
1472.556, 28.691
1473.738, 21.589
1474.919, 6.489
1476.101, 13.375
1477.283, 32.280
1478.464, 36.195
1479.645, 28.153
1480.826, 23.110
1482.007, 16.074
1483.187, 67.032
1484.368, 24.982
1485.548, 43.950
1486.728, 26.961
1487.908, 13.018
1489.088, 16.091
1490.268, 31.165
1491.447, 18.240
1492.626, 25.324
1493.805, 19.401
1494.984, 24.506
1496.163, 32.481
1497.341, 30.554
1498.520, 0.700
1499.698, 18.463
1500.876, 2.425
1502.054, 0.271
1503.232, 2.990
1504.409, 8.257
1505.586, 20.385
1506.763, 22.991
1507.940, 32.938
1509.117, 29.280
1510.294, 35.672
1511.470, 23.076
1512.647, 34.069
1513.823, 20.121
1514.999, 26.569
1516.174, 28.672
1517.350, 25.270
1518.526, 21.215
1519.701, 43.476
1520.876, 0.091
1522.051, 0.000
##END=



