##NAMES=Rhodochrosite
##RRUFFID=R040133
##IDEAL CHEMISTRY=Mn^2+^CO_3_
##LOCALITY=Imuris, Sonora, Mexico
##OWNER=RRUFF
##SOURCE=University of Arizona Mineral Museum
##DESCRIPTION=Pink cleavage fragment
##STATUS=The identification of this mineral has been confirmed by X-ray diffraction and chemical analysis
##URL=rruff.info/R040133
##MEASURED CHEMISTRY=(Mn_0.92_Mg_0.02_Ca_0.01_)C_1.02_O_3_
##PIN_ID=L00122
##ORIENTATION=Laser parallel to c* (0 0 1). Fiducial mark perpendicular to laser is parallel to a [1 0 0]
50.765, 0.000
52.166, 70.578
53.566, 98.967
54.966, 114.598
56.365, 76.668
57.765, 73.295
59.164, 55.309
60.563, 75.019
61.962, 112.275
63.360, 159.874
64.758, 182.952
66.157, 168.393
67.554, 109.523
68.952, 170.477
70.349, 104.075
71.747, 126.883
73.144, 120.439
74.540, 182.435
75.937, 220.887
77.333, 229.647
78.729, 224.613
80.125, 222.787
81.521, 184.747
82.916, 205.088
84.311, 199.161
85.706, 150.427
87.101, 159.464
88.496, 160.130
89.890, 154.639
91.284, 134.765
92.678, 172.058
94.071, 126.715
95.465, 129.373
96.858, 87.146
98.251, 100.334
99.644, 93.101
101.036, 94.813
102.428, 61.370
103.820, 95.702
105.212, 80.106
106.604, 102.757
107.995, 128.105
109.387, 91.794
110.777, 46.219
112.168, 93.028
113.559, 96.058
114.949, 105.395
116.339, 108.561
117.729, 91.560
119.119, 47.406
120.508, 27.110
121.897, 5.670
123.286, 13.244
124.675, 2.566
126.063, 11.916
127.452, 29.158
128.840, 20.755
130.228, 38.981
131.615, 17.197
133.003, 1.103
134.390, 12.815
135.777, 4.220
137.164, 27.574
138.550, 31.724
139.937, 46.950
141.323, 29.035
142.709, 25.623
144.094, 2.879
145.480, 14.648
146.865, 10.131
148.250, 5.549
149.635, 11.812
151.019, 20.896
152.403, 20.718
153.788, 27.206
155.171, 17.168
156.555, 39.598
157.939, 20.723
159.322, 35.394
160.705, 47.782
162.088, 31.053
163.470, 42.550
164.853, 54.810
166.235, 68.013
167.617, 70.162
168.998, 104.246
170.380, 126.146
171.761, 138.150
173.142, 197.938
174.523, 255.602
175.904, 308.167
177.284, 431.639
178.664, 698.041
180.044, 957.375
181.424, 1571.630
182.803, 2187.815
184.183, 2999.005
185.562, 3236.357
186.940, 2487.602
188.319, 1800.946
189.698, 1063.305
191.076, 700.204
192.454, 409.295
193.831, 312.295
195.209, 214.420
196.586, 174.418
197.963, 133.305
199.340, 107.289
200.717, 71.143
202.093, 41.842
203.470, 41.617
204.846, 17.349
206.221, 17.062
207.597, 12.762
208.972, 0.382
210.347, 9.159
211.722, 28.679
213.097, 29.269
214.472, 17.846
215.846, 7.587
217.220, 18.227
218.594, 24.813
219.967, 6.567
221.341, 17.520
222.714, 8.554
224.087, 3.696
225.460, 36.991
226.832, 16.421
228.204, 33.654
229.577, 21.763
230.948, 34.655
232.320, 34.380
233.692, 52.896
235.063, 53.223
236.434, 54.376
237.805, 64.281
239.175, 83.033
240.545, 90.557
241.916, 90.874
243.286, 97.995
244.655, 86.938
246.025, 99.697
247.394, 100.291
248.763, 88.725
250.132, 129.032
251.501, 111.140
252.869, 135.994
254.237, 97.643
255.605, 139.940
256.973, 120.862
258.340, 129.751
259.708, 124.183
261.075, 142.528
262.442, 162.524
263.808, 134.430
265.175, 167.184
266.541, 183.743
267.907, 181.997
269.273, 196.335
270.639, 188.408
272.004, 191.648
273.369, 233.933
274.734, 255.930
276.099, 308.500
277.463, 328.400
278.828, 404.300
280.192, 467.298
281.556, 593.262
282.919, 776.125
284.283, 1003.526
285.646, 1280.646
287.009, 1516.329
288.372, 1893.863
289.734, 1930.128
291.097, 2001.644
292.459, 1785.115
293.821, 1458.089
295.183, 1203.817
296.544, 897.723
297.905, 738.514
299.266, 564.271
300.627, 463.497
301.988, 413.698
303.348, 360.974
304.709, 317.487
306.069, 272.675
307.428, 253.774
308.788, 229.122
310.147, 219.913
311.507, 218.517
312.865, 200.104
314.224, 201.745
315.583, 181.738
316.941, 165.656
318.299, 164.587
319.657, 151.405
321.015, 179.475
322.372, 143.248
323.729, 148.271
325.086, 149.394
326.443, 120.293
327.800, 172.324
329.156, 171.506
330.512, 165.832
331.868, 123.095
333.224, 144.587
334.579, 148.280
335.935, 116.890
337.290, 135.812
338.645, 133.884
339.999, 133.132
341.354, 144.363
342.708, 134.579
344.062, 129.780
345.416, 116.966
346.769, 132.146
348.123, 131.332
349.476, 144.514
350.829, 141.811
352.182, 124.845
353.534, 133.992
354.887, 132.074
356.239, 125.141
357.591, 123.195
358.942, 126.992
360.294, 130.564
361.645, 109.955
362.996, 124.250
364.347, 120.365
365.698, 134.212
367.048, 132.073
368.398, 120.688
369.748, 124.285
371.098, 118.860
372.448, 125.140
373.797, 109.927
375.146, 106.401
376.495, 116.849
377.844, 107.023
379.192, 116.883
380.540, 91.009
381.889, 101.704
383.236, 114.527
384.584, 93.576
385.932, 77.201
387.279, 75.122
388.626, 93.622
389.973, 95.885
391.319, 79.266
392.666, 84.510
394.012, 77.826
395.358, 83.107
396.704, 83.526
398.049, 77.897
399.394, 86.245
400.740, 71.660
402.084, 74.114
403.429, 73.570
404.774, 71.000
406.118, 67.433
407.462, 69.829
408.806, 66.218
410.150, 67.587
411.493, 62.935
412.836, 67.378
414.179, 74.725
415.522, 63.157
416.865, 66.435
418.207, 60.922
419.549, 51.241
420.891, 70.581
422.233, 61.916
423.575, 57.287
424.916, 63.732
426.257, 47.049
427.598, 65.495
428.939, 44.003
430.279, 67.549
431.619, 76.159
432.959, 60.687
434.299, 63.336
435.639, 63.313
436.978, 55.136
438.318, 64.916
439.657, 62.767
440.996, 50.531
442.334, 54.285
443.673, 41.409
445.011, 54.183
446.349, 53.918
447.687, 44.691
449.024, 52.412
450.361, 32.418
451.699, 64.158
453.036, 47.107
454.372, 42.839
455.709, 55.658
457.045, 48.404
458.381, 52.630
459.717, 55.381
461.053, 32.191
462.388, 72.949
463.724, 51.716
465.059, 38.473
466.394, 47.226
467.728, 47.978
469.063, 46.045
470.397, 50.820
471.731, 56.580
473.065, 41.852
474.398, 25.608
475.732, 21.398
477.065, 34.359
478.398, 57.089
479.731, 31.725
481.063, 51.321
482.396, 52.033
483.728, 40.600
485.060, 52.687
486.391, 53.494
487.723, 51.983
489.054, 38.694
490.385, 27.591
491.716, 43.317
493.047, 59.193
494.377, 16.812
495.708, 44.480
497.038, 25.978
498.368, 51.624
499.697, 53.211
501.027, 51.779
502.356, 44.393
503.685, 44.348
505.014, 43.521
506.342, 38.022
507.671, 32.607
508.999, 29.169
510.327, 15.786
511.655, 54.402
512.982, 24.937
514.310, 40.602
515.637, 47.175
516.964, 38.749
518.291, 23.293
519.617, 44.836
520.944, 37.408
522.270, 27.887
523.596, 27.473
524.921, 42.468
526.247, 27.061
527.572, 27.650
528.897, 36.199
530.222, 21.784
531.547, 42.339
532.871, 5.934
534.196, 39.476
535.520, 38.044
536.844, 38.666
538.167, 19.266
539.491, 30.974
540.814, 20.537
542.137, 14.167
543.460, 43.864
544.783, 11.494
546.105, 3.070
547.427, 19.649
548.749, 29.315
550.071, 23.998
551.393, 35.619
552.714, 32.271
554.035, 20.901
555.356, 16.562
556.677, 25.231
557.998, 30.883
559.318, 16.578
560.638, 32.219
561.958, 24.877
563.278, 22.540
564.597, 20.200
565.917, 9.851
567.236, 33.519
568.555, 25.181
569.874, 4.855
571.192, 21.516
572.511, 40.202
573.829, 25.927
575.147, 9.609
576.464, 0.686
577.782, 15.002
579.099, 18.656
580.416, 7.398
581.733, 32.111
583.050, 16.811
584.366, 18.544
585.683, 32.215
586.999, 12.969
588.315, 0.640
589.630, 0.564
590.946, 8.253
592.261, 3.989
593.576, 9.216
594.891, 0.559
596.206, 24.304
597.520, 1.905
598.834, 15.881
600.148, 13.620
601.462, 11.619
602.776, 1.088
604.089, 8.852
605.402, 0.378
606.715, 15.378
608.028, 8.851
609.341, 5.200
610.653, 6.970
611.965, 16.126
613.277, 2.131
614.589, 22.670
615.901, 13.554
617.212, 8.242
618.523, 0.927
619.834, 10.796
621.145, 5.657
622.456, 7.467
623.766, 9.221
625.076, 15.087
626.386, 9.111
627.696, 3.332
629.006, 17.643
630.315, 13.511
631.624, 14.285
632.933, 1.001
634.242, 7.285
635.551, 2.275
636.859, 22.573
638.167, 5.327
639.475, 12.238
640.783, 9.083
642.090, 17.116
643.398, 9.827
644.705, 13.668
646.012, 15.510
647.318, 4.689
648.625, 0.065
649.931, 9.099
651.237, 3.740
652.543, 0.082
653.849, 19.753
655.155, 0.756
656.460, 3.087
657.765, 15.930
659.070, 15.783
660.375, 15.827
661.679, 7.155
662.984, 13.107
664.288, 2.218
665.592, 8.313
666.895, 9.258
668.199, 4.495
669.502, 7.165
670.805, 1.035
672.108, 4.816
673.411, 0.667
674.713, 2.518
676.016, 8.421
677.318, 4.633
678.620, 8.979
679.921, 0.906
681.223, 9.260
682.524, 16.603
683.825, 20.473
685.126, 12.452
686.427, 4.305
687.727, 9.138
689.028, 7.402
690.328, 23.160
691.628, 4.134
692.927, 27.512
694.227, 20.366
695.526, 1.191
696.825, 20.045
698.124, 32.018
699.423, 34.826
700.721, 54.547
702.020, 50.348
703.318, 52.224
704.616, 65.691
705.913, 60.612
707.211, 95.514
708.508, 89.369
709.805, 126.224
711.102, 180.076
712.399, 239.912
713.695, 377.767
714.992, 589.870
716.288, 1225.710
717.584, 2284.564
718.879, 3209.780
720.175, 3413.739
721.470, 2247.592
722.765, 1187.530
724.060, 700.763
725.355, 402.648
726.649, 308.450
727.944, 206.302
729.238, 143.232
730.532, 120.082
731.825, 74.286
733.119, 54.138
734.412, 40.277
735.705, 69.857
736.998, 28.676
738.291, 30.545
739.584, 34.435
740.876, 21.281
742.168, 34.183
743.460, 43.027
744.752, 5.821
746.043, 21.731
747.334, 33.652
748.626, 12.363
749.916, 21.915
751.207, 24.709
752.498, 24.548
753.788, 35.307
755.078, 20.294
756.368, 13.130
757.658, 12.586
758.947, 27.387
760.237, 10.217
761.526, 6.002
762.815, 20.833
764.104, 2.618
765.392, 9.192
766.680, 2.206
767.969, 25.615
769.257, 19.690
770.544, 12.510
771.832, 8.852
773.119, 6.403
774.406, 9.121
775.693, 7.937
776.980, 9.742
778.267, 20.555
779.553, 4.367
780.839, 22.177
782.125, 7.329
783.411, 4.545
784.697, 10.252
785.982, 6.536
787.267, 13.331
788.552, 7.097
789.837, 0.376
791.122, 8.317
792.406, 9.105
793.690, 3.885
794.974, 12.681
796.258, 24.465
797.542, 2.553
798.825, 9.334
800.108, 22.118
801.391, 24.896
802.674, 14.489
803.957, 6.231
805.239, 13.749
806.522, 4.487
807.804, 11.241
809.085, 8.991
810.367, 7.763
811.649, 8.507
812.930, 6.265
814.211, 1.022
815.492, 5.225
816.772, 2.523
818.053, 0.969
819.333, 1.015
820.613, 1.729
821.893, 1.849
823.173, 1.572
824.452, 10.302
825.732, 8.938
827.011, 8.182
828.290, 9.345
829.568, 3.052
830.847, 2.224
832.125, 4.516
833.403, 3.198
834.681, 13.867
835.959, 6.112
837.236, 4.821
838.514, 1.529
839.791, 14.234
841.068, 5.924
842.345, 3.373
843.621, 8.323
844.898, 2.020
846.174, 5.301
847.450, 17.388
848.726, 8.075
850.001, 8.706
851.277, 1.391
852.552, 10.074
853.827, 11.244
855.102, 10.429
856.376, 2.101
857.651, 7.228
858.925, 3.436
860.199, 4.098
861.473, 19.758
862.746, 13.417
864.020, 27.075
865.293, 22.732
866.566, 21.388
867.839, 0.957
869.112, 26.694
870.384, 13.344
871.656, 3.006
872.928, 1.638
874.200, 8.281
875.472, 1.217
876.744, 3.437
878.015, 4.198
879.286, 6.832
880.557, 18.465
881.828, 2.097
883.098, 11.727
884.369, 3.644
885.639, 1.981
886.909, 4.605
888.178, 11.227
889.448, 7.848
890.717, 4.469
891.987, 3.088
893.256, 29.706
894.524, 2.323
895.793, 9.939
897.061, 24.554
898.330, 0.146
899.598, 0.758
900.865, 10.369
902.133, 9.980
903.401, 22.592
904.668, 9.203
905.935, 5.813
907.202, 0.578
908.468, 16.030
909.735, 17.636
911.001, 5.244
912.267, 31.851
913.533, 9.456
914.799, 8.039
916.064, 22.644
917.330, 9.888
918.595, 15.489
919.860, 18.755
921.124, 4.639
922.389, 23.962
923.653, 13.563
924.918, 10.839
926.182, 10.738
927.445, 4.327
928.709, 6.911
929.972, 18.503
931.236, 24.097
932.499, 21.621
933.761, 16.215
935.024, 32.161
936.286, 16.262
937.549, 15.856
938.811, 15.437
940.073, 26.033
941.334, 27.617
942.596, 5.960
943.857, 16.552
945.118, 11.147
946.379, 0.671
947.640, 11.267
948.900, 11.863
950.161, 8.360
951.421, 0.959
952.681, 21.558
953.940, 28.156
955.200, 25.755
956.459, 2.657
957.719, 33.943
958.978, 5.084
960.236, 24.686
961.495, 2.440
962.753, 10.161
964.012, 5.763
965.270, 30.356
966.527, 11.791
967.785, 28.880
969.043, 24.378
970.300, 6.708
971.557, 35.036
972.814, 9.497
974.071, 21.962
975.327, 23.409
976.583, 29.013
977.840, 15.618
979.095, 5.224
980.351, 19.830
981.607, 21.339
982.862, 35.589
984.117, 19.707
985.372, 31.224
986.627, 36.836
987.882, 14.439
989.136, 19.016
990.390, 26.490
991.644, 26.106
992.898, 19.709
994.152, 49.915
995.405, 26.534
996.659, 68.035
997.912, 58.132
999.165, 66.755
1000.417, 57.378
1001.670, 68.370
1002.922, 87.488
1004.174, 89.114
1005.426, 98.875
1006.678, 108.502
1007.930, 102.023
1009.181, 133.024
1010.432, 121.589
1011.683, 126.174
1012.934, 134.807
1014.185, 132.441
1015.435, 131.076
1016.685, 160.714
1017.935, 152.357
1019.185, 182.752
1020.435, 198.397
1021.684, 201.043
1022.934, 207.328
1024.183, 176.872
1025.432, 192.523
1026.680, 203.056
1027.929, 189.328
1029.177, 215.949
1030.425, 217.603
1031.673, 198.260
1032.921, 197.840
1034.169, 194.500
1035.416, 223.784
1036.663, 223.372
1037.911, 203.016
1039.157, 249.685
1040.404, 227.354
1041.650, 234.003
1042.897, 262.632
1044.143, 239.306
1045.389, 278.926
1046.634, 299.602
1047.880, 335.280
1049.125, 378.831
1050.371, 366.564
1051.615, 382.247
1052.860, 422.936
1054.105, 430.626
1055.349, 485.318
1056.593, 510.010
1057.837, 514.555
1059.081, 547.252
1060.325, 556.950
1061.568, 688.645
1062.812, 748.346
1064.055, 846.048
1065.298, 922.033
1066.540, 1052.459
1067.783, 1020.170
1069.025, 1066.884
1070.267, 1032.601
1071.509, 1159.983
1072.751, 1314.702
1073.993, 1418.424
1075.234, 1817.457
1076.475, 1980.183
1077.716, 2554.910
1078.957, 3421.639
1080.198, 4225.370
1081.438, 6827.103
1082.679, 10706.860
1083.919, 20166.598
1085.159, 41996.344
1086.398, 54946.094
1087.638, 54635.840
1088.877, 35965.598
1090.116, 17905.344
1091.355, 11005.099
1092.594, 6580.856
1093.833, 4135.616
1095.071, 2989.376
1096.309, 1969.129
1097.547, 1601.894
1098.785, 1269.659
1100.023, 992.437
1101.260, 879.202
1102.498, 706.973
1103.735, 600.751
1104.972, 589.530
1106.208, 492.210
1107.445, 461.522
1108.681, 395.307
1109.918, 353.094
1111.154, 350.826
1112.389, 296.619
1113.625, 296.414
1114.860, 247.210
1116.096, 225.420
1117.331, 239.221
1118.566, 215.026
1119.800, 187.832
1121.035, 218.787
1122.269, 209.214
1123.503, 238.133
1124.737, 195.949
1125.971, 159.766
1127.205, 189.585
1128.438, 149.405
1129.671, 152.565
1130.904, 111.389
1132.137, 137.577
1133.370, 126.406
1134.602, 120.238
1135.834, 119.071
1137.066, 101.905
1138.298, 116.741
1139.530, 103.579
1140.762, 85.435
1141.993, 84.276
1143.224, 86.459
1144.455, 70.312
1145.686, 71.159
1146.917, 73.259
1148.147, 68.119
1149.377, 46.971
1150.607, 27.845
1151.837, 37.700
1153.067, 41.557
1154.296, 48.422
1155.526, 39.284
1156.755, 39.244
1157.984, 32.027
1159.213, 28.150
1160.441, 32.021
1161.670, 27.893
1162.898, 40.766
1164.126, 34.263
1165.354, 42.838
1166.581, 24.735
1167.809, 27.649
1169.036, 54.543
1170.263, 47.742
1171.490, 37.631
1172.717, 38.514
1173.943, 41.042
1175.170, 36.261
1176.396, 38.734
1177.622, 28.123
1178.848, 42.056
1180.073, 27.137
1181.299, 33.173
1182.524, 39.373
1183.749, 10.268
1184.974, 31.356
1186.199, 20.324
1187.423, 20.221
1188.648, 23.147
1189.872, 21.088
1191.096, 19.087
1192.320, 30.987
1193.543, 7.897
1194.767, 8.799
1195.990, 14.701
1197.213, 7.039
1198.436, 6.875
1199.659, 14.674
1200.881, 23.612
1202.104, 37.553
1203.326, 40.501
1204.548, 21.475
1205.770, 43.383
1206.991, 11.321
1208.213, 25.240
1209.434, 25.190
1210.655, 17.166
1211.876, 13.132
1213.096, 19.196
1214.317, 7.519
1215.537, 14.568
1216.757, 15.573
1217.977, 16.484
1219.197, 30.434
1220.417, 26.451
1221.636, 38.259
1222.855, 23.605
1224.074, 17.520
1225.293, 7.435
1226.512, 1.561
1227.731, 0.268
1228.949, 1.817
1230.167, 9.143
1231.385, 21.019
1232.603, 20.934
1233.820, 23.873
1235.038, 22.513
1236.255, 16.929
1237.472, 17.875
1238.689, 9.790
1239.906, 14.716
1241.122, 19.683
1242.338, 5.601
1243.555, 17.519
1244.771, 12.435
1245.986, 0.585
1247.202, 12.372
1248.417, 22.322
1249.633, 12.277
1250.848, 1.193
1252.063, 1.110
1253.277, 9.973
1254.492, 17.966
1255.706, 6.879
1256.920, 20.792
1258.134, 6.704
1259.348, 11.627
1260.562, 11.540
1261.775, 7.546
1262.988, 7.364
1264.201, 10.273
1265.414, 7.182
1266.627, 2.909
1267.839, 10.000
1269.052, 2.090
1270.264, 15.819
1271.476, 22.727
1272.688, 12.633
1273.899, 10.533
1275.111, 5.566
1276.322, 19.331
1277.533, 5.772
1278.744, 24.123
1279.955, 32.017
1281.165, 21.909
1282.376, 11.798
1283.586, 26.686
1284.796, 12.573
1286.006, 3.459
1287.215, 18.344
1288.425, 4.771
1289.634, 6.110
1290.843, 26.984
1292.052, 3.144
1293.261, 6.727
1294.469, 11.597
1295.678, 4.465
1296.886, 27.331
1298.094, 15.192
1299.302, 9.052
1300.509, 16.910
1301.717, 7.764
1302.924, 16.618
1304.131, 2.530
1305.338, 13.320
1306.545, 11.161
1307.752, 14.999
1308.958, 8.164
1310.164, 9.332
1311.370, 6.496
1312.576, 3.322
1313.782, 8.329
1314.987, 3.042
1316.193, 10.767
1317.398, 13.575
1318.603, 10.380
1319.807, 22.184
1321.012, 19.986
1322.216, 2.786
1323.421, 3.623
1324.625, 0.569
1325.829, 0.224
1327.032, 2.313
1328.236, 15.822
1329.439, 0.394
1330.642, 2.388
1331.845, 17.167
1333.048, 7.943
1334.251, 4.804
1335.453, 1.576
1336.656, 20.346
1337.858, 13.113
1339.060, 22.878
1340.261, 18.689
1341.463, 2.551
1342.664, 13.061
1343.866, 11.159
1345.067, 7.590
1346.267, 7.337
1347.468, 6.488
1348.669, 4.231
1349.869, 18.973
1351.069, 9.751
1352.269, 14.487
1353.469, 7.222
1354.668, 4.737
1355.868, 5.686
1357.067, 1.429
1358.266, 2.846
1359.465, 1.888
1360.664, 3.499
1361.862, 20.321
1363.061, 9.070
1364.259, 31.775
1365.457, 23.466
1366.655, 2.846
1367.852, 23.837
1369.050, 43.515
1370.247, 18.188
1371.444, 18.883
1372.641, 28.542
1373.838, 8.267
1375.035, 11.082
1376.231, 41.579
1377.427, 1.287
1378.623, 25.719
1379.819, 7.619
1381.015, 12.518
1382.211, 25.416
1383.406, 18.312
1384.601, 9.198
1385.796, 29.091
1386.991, 42.974
1388.185, 21.286
1389.380, 8.161
1390.574, 12.036
1391.768, 13.908
1392.962, 11.678
1394.156, 27.188
1395.350, 21.887
1396.543, 26.628
1397.736, 16.486
1398.929, 21.948
1400.122, 27.374
1401.315, 37.220
1402.507, 20.064
1403.700, 35.907
1404.892, 51.728
1406.084, 63.137
1407.276, 39.658
1408.467, 66.476
1409.659, 60.279
1410.850, 111.101
1412.041, 168.912
1413.232, 182.400
1414.423, 231.218
1415.614, 288.193
1416.804, 346.014
1417.994, 353.737
1419.184, 239.073
1420.374, 198.844
1421.564, 159.628
1422.753, 121.272
1423.943, 117.560
1425.132, 104.877
1426.321, 109.246
1427.510, 86.963
1428.698, 94.501
1429.887, 93.239
1431.075, 92.989
1432.263, 92.150
1433.451, 82.380
1434.639, 86.969
1435.827, 72.567
1437.014, 83.207
1438.201, 77.725
1439.388, 64.059
1440.575, 101.774
1441.762, 78.279
1442.949, 82.881
1444.135, 101.751
1445.321, 105.405
1446.507, 105.052
1447.693, 84.613
1448.879, 70.362
1450.064, 91.579
1451.250, 50.000
1452.435, 62.568
1453.620, 52.034
1454.805, 59.599
1455.989, 45.931
1457.174, 59.084
1458.358, 29.576
1459.542, 39.003
1460.726, 39.478
1461.910, 46.921
1463.093, 23.368
1464.277, 32.812
1465.460, 8.241
1466.643, 14.652
1467.826, 37.051
1469.009, 12.462
1470.191, 24.872
1471.373, 47.268
1472.556, 34.655
1473.738, 38.045
1474.919, 19.425
1476.101, 1.787
1477.283, 41.164
1478.464, 19.547
1479.645, 28.916
1480.826, 18.293
1482.007, 5.673
1483.187, 35.061
1484.368, 42.431
1485.548, 10.856
1486.728, 44.281
1487.908, 26.697
1489.088, 4.844
1490.268, 24.658
1491.447, 18.162
1492.626, 7.669
1493.805, 31.904
1494.984, 19.294
1496.163, 32.803
1497.341, 31.323
1498.520, 13.298
1499.698, 30.813
1500.876, 14.342
1502.054, 21.519
1503.232, 24.854
1504.409, 9.387
1505.586, 13.044
1506.763, 32.846
1507.940, 23.975
1509.117, 17.020
1510.294, 25.781
1511.470, 16.399
1512.647, 7.352
1513.823, 20.077
1514.999, 0.127
1516.174, 27.624
1517.350, 10.201
1518.526, 0.017
1519.701, 0.000
##END=



