##NAMES=Rhodonite
##RRUFFID=R060549
##IDEAL CHEMISTRY=CaMn^2+^_3_Mn^2+^Si_5_O_15_
##LOCALITY=unknown
##OWNER=RRUFF
##SOURCE=Gemological Institute of America
##DESCRIPTION=Pink cleavage fragment
##STATUS=The identification of this mineral has been confirmed by X-ray diffraction and chemical analysis
##URL=rruff.info/R060549
##MEASURED CHEMISTRY=(Mn_0.76_Ca_0.12_Fe_0.07_Mg_0.06_)Si_0.99_O_3_
##PIN_ID=L01873
##ORIENTATION=Laser parallel to c* (0 0 1). Fiducial mark perpendicular to laser is parallel to a [1 0 0]
82.03000, 0.0000000E+00
83.27000, 2.705811
84.51000, 124.2175
85.74900, 241.7905
86.98900, 274.5637
88.22800, 419.3218
89.46700, 677.7031
90.70600, 916.9487
91.94400, 1144.973
93.18300, 1199.380
94.42100, 1112.932
95.65900, 919.1465
96.89700, 747.9370
98.13500, 603.3149
99.37300, 250.3765
100.6100, 272.6228
101.8480, 90.69873
103.0850, 72.50684
104.3220, 75.90771
105.5590, 241.8633
106.7950, 589.2979
108.0320, 1317.164
109.2680, 1760.858
110.5040, 2311.736
111.7400, 2531.021
112.9760, 3062.520
114.2120, 3397.211
115.4470, 3556.073
116.6820, 3355.090
117.9170, 3325.247
119.1520, 2994.534
120.3870, 2670.020
121.6220, 2636.661
122.8560, 2499.384
124.0900, 2468.184
125.3240, 2372.056
126.5580, 2255.997
127.7920, 2135.005
129.0260, 2199.077
130.2590, 2360.212
131.4920, 2505.429
132.7250, 2813.685
133.9580, 3060.121
135.1910, 3030.072
136.4230, 3211.638
137.6560, 3275.318
138.8880, 2992.781
140.1200, 2868.927
141.3520, 2599.173
142.5830, 2146.414
143.8150, 1646.655
145.0460, 1268.897
146.2770, 920.1423
147.5080, 755.3904
148.7390, 525.6440
149.9700, 277.9072
151.2000, 90.18066
152.4310, 141.4656
153.6610, 115.7627
154.8910, 112.0725
156.1210, 123.3816
157.3500, 259.9834
158.5800, 249.7886
159.8090, 301.9819
161.0380, 455.1809
162.2670, 451.3882
163.4960, 460.6079
164.7240, 580.8442
165.9530, 669.1006
167.1810, 639.3481
168.4090, 644.6206
169.6370, 586.9194
170.8650, 529.9968
172.0920, 480.5977
173.3200, 367.9771
174.5470, 245.3840
175.7740, 140.8179
177.0010, 120.2783
178.2280, 103.7656
179.4540, 56.27954
180.6810, 1.819336
181.9070, 80.38525
183.1330, 79.97583
184.3590, 32.58887
185.5850, 1.776855
186.8100, 11.46484
188.0350, 32.47095
189.2610, 22.99731
190.4860, 59.98169
191.7110, 33.32861
192.9350, 35.46069
194.1600, 25.00073
195.3840, 52.28638
196.6080, 56.44287
197.8320, 1.628906
199.0560, 88.84424
200.2800, 63.08984
201.5030, 146.3647
202.7270, 120.6689
203.9500, 186.0024
205.1730, 134.3650
206.3950, 106.7551
207.6180, 183.1729
208.8410, 238.6084
210.0630, 354.0396
211.2850, 465.4490
212.5070, 556.8716
213.7290, 503.3879
214.9500, 553.9570
216.1720, 519.5566
217.3930, 496.1748
218.6140, 516.8118
219.8350, 425.4668
221.0560, 389.1404
222.2770, 309.8313
223.4970, 267.5400
224.7170, 122.2666
225.9370, 144.0098
227.1570, 63.76978
228.3770, 34.54639
229.5970, 23.89429
230.8160, 44.28516
232.0350, 2.123535
233.2540, 34.83789
234.4730, 43.35303
235.6920, 104.6582
236.9110, 140.0679
238.1290, 249.5725
239.3470, 306.1638
240.5650, 395.7175
241.7830, 473.3540
243.0010, 643.0664
244.2180, 752.8472
245.4360, 848.6982
246.6530, 953.6140
247.8700, 1084.593
249.0870, 1149.738
250.3040, 1217.657
251.5200, 1235.780
252.7370, 1262.941
253.9530, 1180.137
255.1690, 1220.365
256.3850, 1069.624
257.6000, 1045.905
258.8160, 978.2075
260.0310, 1066.531
261.2460, 986.8738
262.4610, 1008.236
263.6760, 982.6155
264.8910, 927.0132
266.1050, 869.4272
267.3200, 866.8569
268.5340, 836.3022
269.7480, 659.7622
270.9620, 641.2363
272.1750, 582.7246
273.3890, 470.2266
274.6020, 471.7419
275.8150, 491.2708
277.0280, 412.8120
278.2410, 387.3652
279.4540, 381.9307
280.6660, 310.5066
281.8790, 303.0762
283.0910, 217.6099
284.3030, 297.1028
285.5140, 203.5837
286.7260, 193.0669
287.9380, 117.5581
289.1490, 68.90186
290.3600, 0.4370120
291.5710, 17.92554
292.7820, 40.41309
293.9920, 53.90479
295.2030, 91.40356
296.4130, 55.91870
297.6230, 135.4417
298.8330, 134.9927
300.0430, 81.57031
301.2520, 65.16064
302.4620, 55.75903
303.6710, 26.63428
304.8800, 10.97461
306.0890, 31.44141
307.2980, 8.875000
308.5070, 102.3430
309.7150, 75.83765
310.9230, 149.3604
312.1310, 274.9043
313.3390, 309.4702
314.5470, 520.0559
315.7550, 657.6619
316.9620, 873.2856
318.1690, 955.9226
319.3760, 1217.575
320.5830, 1533.243
321.7900, 1768.926
322.9960, 2124.631
324.2030, 2460.346
325.4090, 2762.072
326.6150, 3068.802
327.8210, 3201.544
329.0270, 3455.295
330.2320, 3716.052
331.4380, 3740.772
332.6430, 4150.291
333.8480, 4200.010
335.0530, 4194.907
336.2580, 4209.766
337.4620, 4198.539
338.6670, 3979.967
339.8710, 3821.941
341.0750, 3547.017
342.2790, 3316.014
343.4820, 3023.744
344.6860, 2977.546
345.8890, 2753.930
347.0920, 2648.613
348.2960, 2503.187
349.4980, 2418.766
350.7010, 2341.351
351.9040, 2223.942
353.1060, 2084.539
354.3080, 1966.140
355.5100, 1716.747
356.7120, 1565.358
357.9140, 1525.976
359.1150, 1400.598
360.3170, 1394.225
361.5180, 1281.856
362.7190, 1347.491
363.9200, 1295.130
365.1200, 1249.774
366.3210, 1217.422
367.5210, 1166.073
368.7210, 1040.728
369.9210, 956.3870
371.1210, 852.0496
372.3210, 746.5105
373.5200, 619.3850
374.7200, 555.0649
375.9190, 473.7546
377.1180, 406.2834
378.3170, 391.1311
379.5150, 371.8428
380.7140, 366.5603
381.9120, 367.2991
383.1110, 397.5862
384.3090, 411.7415
385.5060, 489.5422
386.7040, 585.5266
387.9020, 654.6821
389.0990, 708.5906
390.2960, 817.4338
391.4930, 971.0281
392.6900, 829.6807
393.8860, 940.1030
395.0830, 804.3669
396.2790, 855.1960
397.4750, 877.0627
398.6710, 873.8320
399.8670, 833.6018
401.0630, 966.3721
402.2580, 1075.143
403.4540, 1222.914
404.6490, 1430.684
405.8440, 1638.454
407.0390, 1799.225
408.2330, 2110.995
409.4280, 2366.764
410.6220, 2742.534
411.8160, 3003.302
413.0100, 3334.069
414.2040, 3856.836
415.3980, 4266.602
416.5910, 4812.366
417.7850, 5483.129
418.9780, 5959.892
420.1710, 6451.651
421.3640, 6590.411
422.5560, 6470.168
423.7490, 6005.924
424.9410, 5549.678
426.1330, 4959.430
427.3250, 4133.180
428.5170, 3537.928
429.7090, 3031.674
430.9000, 2556.419
432.0910, 2292.162
433.2820, 2045.903
434.4730, 1923.172
435.6640, 1750.574
436.8550, 1831.787
438.0450, 1657.256
439.2360, 1543.576
440.4260, 1462.916
441.6160, 1286.580
442.8060, 1130.437
443.9950, 945.6619
445.1850, 841.0007
446.3740, 681.8970
447.5630, 600.0996
448.7520, 598.8523
449.9410, 485.7759
451.1300, 576.8738
452.3180, 452.9294
453.5060, 497.3330
454.6950, 448.1411
455.8830, 457.0498
457.0700, 516.6221
458.2580, 417.1106
459.4450, 430.2795
460.6330, 412.3745
461.8200, 310.0566
463.0070, 352.4155
464.1940, 300.0703
465.3800, 303.4707
466.5670, 292.8818
467.7530, 237.6865
468.9390, 263.2051
470.1250, 270.1841
471.3110, 231.3538
472.4970, 289.1553
473.6820, 264.9553
474.8680, 300.7876
476.0530, 234.3896
477.2380, 183.9895
478.4230, 198.5869
479.6070, 190.1909
480.7920, 92.79712
481.9760, 44.40649
483.1600, 46.98340
484.3440, 45.40723
485.5280, 62.35522
486.7120, 17.62451
487.8950, 18.89087
489.0780, 32.56982
490.2620, 97.02612
491.4450, 137.4761
492.6270, 219.1404
493.8100, 388.3823
494.9920, 390.8242
496.1750, 476.2588
497.3570, 590.6865
498.5390, 580.1069
499.7210, 631.5303
500.9020, 624.9448
502.0840, 744.3567
503.2650, 867.7659
504.4460, 926.1799
505.6270, 1325.586
506.8080, 1446.984
507.9890, 1788.374
509.1690, 1986.763
510.3500, 2069.150
511.5300, 2124.536
512.7100, 2040.918
513.8900, 1783.294
515.0690, 1570.669
516.2490, 1328.035
517.4280, 1022.403
518.6070, 832.7686
519.7860, 612.1260
520.9650, 447.4827
522.1440, 408.8374
523.3220, 250.1821
524.5010, 204.5200
525.6790, 110.8552
526.8570, 76.19043
528.0350, 42.52051
529.2130, 27.85425
530.3900, 17.82422
531.5670, 16.52490
532.7450, 28.25049
533.9220, 13.00952
535.0980, 15.21191
536.2750, 25.43848
537.4520, 85.64893
538.6280, 77.84668
539.8040, 112.0317
540.9800, 208.2183
542.1560, 330.4053
543.3320, 330.5801
544.5070, 392.7576
545.6830, 302.9236
546.8580, 338.0769
548.0330, 235.2197
549.2080, 387.3560
550.3830, 340.4866
551.5570, 306.6106
552.7310, 410.7285
553.9060, 412.8401
555.0800, 484.9385
556.2540, 613.0305
557.4270, 624.1104
558.6010, 648.1768
559.7740, 660.2395
560.9470, 592.2886
562.1210, 554.3230
563.2930, 452.3486
564.4660, 464.3608
565.6390, 438.3589
566.8110, 527.3423
567.9830, 540.3123
569.1550, 535.2700
570.3270, 600.2134
571.4990, 617.1421
572.6710, 668.0557
573.8420, 688.9546
575.0130, 605.8381
576.1840, 570.7095
577.3550, 517.5728
578.5260, 454.4314
579.6970, 439.2896
580.8670, 273.1565
582.0370, 126.0229
583.2070, 83.90845
584.3770, 61.81152
585.5470, 47.71704
586.7170, 44.61963
587.8860, 4.516113
589.0550, 52.61743
590.2240, 6.806152
591.3930, 75.03101
592.5620, 40.32788
593.7310, 45.67920
594.8990, 20.08789
596.0670, 21.54102
597.2350, 16.03979
598.4030, 14.58057
599.5710, 9.382813
600.7390, 10.21362
601.9060, 1.438477
603.0740, 3.873779
604.2410, 0.8471680
605.4080, 28.60327
606.5740, 40.59033
607.7410, 20.75977
608.9080, 33.90137
610.0740, 77.01782
611.2400, 57.11401
612.4060, 106.1875
613.5720, 105.2888
614.7370, 96.32397
615.9030, 154.3394
617.0680, 207.3369
618.2330, 234.4194
619.3980, 250.6331
620.5630, 265.5771
621.7280, 244.5835
622.8920, 356.5417
624.0570, 300.8413
625.2210, 360.2578
626.3850, 384.7500
627.5490, 400.4504
628.7120, 508.5874
629.8760, 555.2153
631.0390, 602.1411
632.2020, 666.1204
633.3650, 713.0811
634.5280, 760.8101
635.6910, 817.6060
636.8530, 923.4893
638.0160, 982.3582
639.1780, 1141.422
640.3400, 1244.075
641.5020, 1419.753
642.6640, 1508.555
643.8250, 1780.240
644.9870, 1985.950
646.1480, 2115.617
647.3090, 2439.319
648.4700, 2769.632
649.6300, 3178.510
650.7910, 3623.021
651.9510, 4372.346
653.1120, 4992.493
654.2720, 6180.713
655.4320, 7365.194
656.5910, 8860.187
657.7510, 10727.25
658.9100, 12857.67
660.0690, 14606.11
661.2290, 16546.21
662.3880, 18448.63
663.5460, 19977.51
664.7050, 21833.53
665.8630, 23429.07
667.0220, 25422.50
668.1800, 26987.33
669.3380, 27610.45
670.4950, 28025.47
671.6530, 26928.70
672.8100, 24614.70
673.9680, 21888.98
675.1250, 19129.72
676.2820, 16619.24
677.4390, 14446.24
678.5950, 12385.14
679.7520, 10893.20
680.9080, 9604.910
682.0640, 8351.870
683.2200, 7156.200
684.3760, 6118.177
685.5320, 5275.028
686.6870, 4541.297
687.8420, 3855.365
688.9980, 3419.716
690.1530, 2921.725
691.3070, 2532.953
692.4620, 2293.139
693.6170, 2043.837
694.7710, 1926.042
695.9250, 1652.794
697.0790, 1565.511
698.2330, 1440.263
699.3870, 1340.853
700.5400, 1197.421
701.6940, 1088.904
702.8470, 1026.576
704.0000, 1024.079
705.1530, 1039.560
706.3050, 954.0930
707.4580, 917.0632
708.6100, 912.4790
709.7630, 931.8733
710.9150, 904.5000
712.0660, 908.5613
713.2180, 887.9270
714.3700, 884.2354
715.5210, 885.5225
716.6720, 852.7883
717.8240, 797.0330
718.9740, 814.2563
720.1250, 768.4583
721.2760, 689.6082
722.4260, 665.5571
723.5770, 620.3193
724.7270, 581.8989
725.8770, 530.4094
727.0260, 504.9988
728.1760, 487.9849
729.3250, 432.8069
730.4750, 457.3093
731.6240, 393.9534
732.7730, 448.2266
733.9220, 467.0723
735.0700, 458.7944
736.2190, 387.8301
737.3670, 395.9263
738.5150, 422.3188
739.6630, 393.7617
740.8110, 432.5947
741.9590, 381.7278
743.1060, 344.5422
744.2540, 310.5872
745.4010, 313.5986
746.5480, 255.1926
747.6950, 201.0498
748.8410, 126.4233
749.9880, 179.5835
751.1340, 94.08789
752.2800, 140.5708
753.4260, 120.9985
754.5720, 112.6343
755.7180, 76.25464
756.8640, 45.85742
758.0090, 114.4429
759.1540, 78.01245
760.2990, 74.56543
761.4440, 12.10254
762.5890, 98.63110
763.7340, 52.15991
764.8780, 64.69238
766.0220, 56.21021
767.1660, 9.720215
768.3100, 53.20728
769.4540, 28.32178
770.5980, 37.10645
771.7410, 83.51782
772.8840, 61.91479
774.0280, 36.29688
775.1700, 34.66333
776.3130, 17.98633
777.4560, 73.32837
778.5980, 2.629395
779.7410, 9.3750000E-02
780.8830, 30.84180
782.0250, 36.36938
783.1670, 40.56616
784.3080, 26.74902
785.4500, 12.08252
786.5910, 5.943604
787.7320, 16.83057
788.8730, 1.251465
790.0140, 3.312256
791.1550, 14.64648
792.2950, 36.36572
793.4360, 28.63403
794.5760, 14.66919
795.7160, 30.26831
796.8560, 21.19360
797.9960, 17.89307
799.1350, 13.99243
800.2750, 0.1337890
801.4140, 19.27759
802.5530, 28.44873
803.6920, 12.65088
804.8310, 54.87524
805.9690, 0.8571780
807.1080, 26.42310
808.2460, 13.72168
809.3840, 7.031738
810.5220, 29.34570
811.6600, 81.67969
812.7970, 57.93433
813.9350, 12.54248
815.0720, 19.14185
816.2090, 48.26709
817.3460, 43.71143
818.4830, 8.811279
819.6200, 55.67432
820.7560, 0.8022460
821.8930, 31.26978
823.0290, 8.269775
824.1650, 23.82129
825.3010, 29.39185
826.4360, 24.98413
827.5720, 29.59473
828.7070, 30.00854
829.8420, 5.123535
830.9770, 32.53296
832.1120, 3.209717
833.2470, 2.893066
834.3820, 44.58301
835.5160, 4.702148
836.6500, 23.98291
837.7840, 25.74097
838.9180, 6.477783
840.0520, 21.77881
841.1860, 9.031982
842.3190, 3.718262
843.4520, 19.47314
844.5850, 43.76318
845.7180, 27.99634
846.8510, 40.22729
847.9840, 47.45532
849.1160, 66.68066
850.2490, 47.90430
851.3810, 55.12598
852.5130, 76.34595
853.6450, 55.56421
854.7760, 42.78125
855.9080, 104.9971
857.0390, 99.21167
858.1700, 149.4258
859.3010, 97.64038
860.4320, 180.8562
861.5630, 210.0742
862.6930, 293.2947
863.8240, 294.5225
864.9540, 402.7727
866.0840, 414.0334
867.2140, 484.3230
868.3440, 655.6328
869.4730, 686.9644
870.6030, 936.3162
871.7320, 1107.684
872.8610, 1287.067
873.9900, 1540.464
875.1190, 1767.874
876.2470, 2023.293
877.3760, 2207.724
878.5040, 2425.166
879.6320, 2468.619
880.7600, 2501.092
881.8880, 2423.571
883.0150, 2282.058
884.1430, 2042.554
885.2700, 1823.054
886.3970, 1624.560
887.5240, 1441.024
888.6510, 1285.734
889.7780, 1135.061
890.9040, 1018.587
892.0310, 908.5044
893.1570, 831.2976
894.2830, 755.8376
895.4090, 700.3027
896.5350, 688.7634
897.6600, 638.3677
898.7860, 606.5852
899.9110, 567.3281
901.0360, 541.7903
902.1610, 537.2275
903.2860, 512.8691
904.4100, 512.4543
905.5350, 493.6987
906.6590, 491.0884
907.7830, 514.6990
908.9070, 468.2336
910.0310, 555.6694
911.1540, 493.1179
912.2780, 548.3604
913.4010, 551.0044
914.5240, 520.6321
915.6470, 603.1316
916.7700, 586.7383
917.8930, 530.3159
919.0150, 612.9297
920.1380, 584.4993
921.2600, 586.4517
922.3820, 582.8308
923.5040, 598.5776
924.6260, 625.5012
925.7470, 628.5942
926.8690, 712.6069
927.9900, 801.3594
929.1110, 853.5908
930.2320, 979.7549
931.3530, 1122.553
932.4730, 1309.332
933.5940, 1479.458
934.7140, 1765.263
935.8340, 2124.604
936.9540, 2415.804
938.0740, 2728.479
939.1930, 2851.208
940.3130, 2883.337
941.4320, 2802.015
942.5510, 2616.032
943.6700, 2420.900
944.7890, 2183.251
945.9080, 1966.254
947.0260, 1716.027
948.1450, 1639.184
949.2630, 1432.299
950.3810, 1439.037
951.4990, 1455.319
952.6170, 1486.243
953.7340, 1444.471
954.8520, 1598.028
955.9690, 1737.118
957.0860, 1917.944
958.2030, 2228.677
959.3200, 2423.985
960.4360, 2810.337
961.5530, 3332.495
962.6690, 3724.435
963.7850, 4489.423
964.9010, 5353.893
966.0170, 6360.850
967.1330, 7700.256
968.2480, 9190.708
969.3630, 10791.12
970.4790, 12660.69
971.5940, 14641.28
972.7080, 16371.96
973.8230, 17926.45
974.9380, 19115.11
976.0520, 19382.78
977.1660, 18924.41
978.2800, 18196.59
979.3940, 16972.32
980.5080, 15626.07
981.6220, 14944.84
982.7350, 14167.63
983.8480, 13884.43
984.9610, 13955.26
986.0740, 13999.11
987.1870, 14370.98
988.3000, 14548.87
989.4120, 14886.77
990.5250, 15294.70
991.6370, 15650.64
992.7490, 16195.61
993.8610, 17018.59
994.9720, 17888.60
996.0840, 19101.63
997.1950, 20009.68
998.3060, 21151.74
999.4170, 22040.83
1000.528, 22569.94
1001.639, 22232.06
1002.750, 21826.20
1003.860, 20995.54
1004.970, 19799.72
1006.080, 18582.92
1007.190, 17204.15
1008.300, 15871.39
1009.410, 14657.73
1010.519, 12973.01
1011.628, 11385.30
1012.738, 10265.62
1013.846, 8817.957
1014.955, 7672.305
1016.064, 6863.675
1017.172, 6014.062
1018.281, 5229.466
1019.389, 4837.889
1020.497, 4521.333
1021.605, 4142.792
1022.713, 3944.271
1023.820, 3724.774
1024.928, 3675.295
1026.035, 3473.834
1027.142, 3399.429
1028.249, 3408.002
1029.356, 3257.593
1030.462, 3138.201
1031.569, 3102.832
1032.675, 3223.479
1033.781, 3245.692
1034.887, 3334.995
1035.993, 3473.528
1037.098, 3547.250
1038.204, 3651.990
1039.309, 3780.760
1040.415, 3900.659
1041.520, 4003.763
1042.624, 3991.587
1043.729, 4051.412
1044.834, 3950.269
1045.938, 3878.260
1047.042, 3802.613
1048.146, 3618.852
1049.250, 3440.795
1050.354, 3244.086
1051.458, 2955.867
1052.561, 2621.909
1053.664, 2536.530
1054.767, 2083.908
1055.870, 1902.241
1056.973, 1645.333
1058.076, 1520.516
1059.178, 1311.969
1060.281, 1137.228
1061.383, 997.3965
1062.485, 1005.123
1063.587, 918.1758
1064.688, 839.4065
1065.790, 846.9897
1066.891, 730.2842
1067.993, 696.0115
1069.094, 649.7498
1070.195, 577.8354
1071.295, 549.0603
1072.396, 535.4214
1073.496, 480.8748
1074.597, 426.2810
1075.697, 404.7236
1076.797, 350.5596
1077.897, 376.0212
1078.996, 306.5044
1080.096, 307.7310
1081.195, 317.5647
1082.294, 274.1062
1083.393, 263.0208
1084.492, 231.6741
1085.591, 228.6445
1086.689, 174.8264
1087.788, 201.4639
1088.886, 160.1750
1089.984, 140.4988
1091.082, 166.2617
1092.180, 164.1951
1093.277, 103.5354
1094.375, 203.7764
1095.472, 157.6770
1096.569, 177.5425
1097.666, 74.30347
1098.763, 159.1885
1099.860, 96.46558
1100.956, 155.2603
1102.053, 98.56152
1103.149, 46.38232
1104.245, 53.78174
1105.341, 138.8845
1106.436, 141.3484
1107.532, 136.5029
1108.627, 104.6826
1109.723, 111.5991
1110.818, 139.6934
1111.913, 95.71313
1113.007, 179.7109
1114.102, 157.9133
1115.197, 75.92407
1116.291, 69.58569
1117.385, 169.9851
1118.479, 110.3828
1119.573, 160.3079
1120.666, 94.54883
1121.760, 73.50195
1122.853, 130.4421
1123.947, 107.5740
1125.040, 113.1765
1126.132, 151.1472
1127.225, 100.1545
1128.318, 89.14136
1129.410, 71.10596
1130.502, 105.4990
1131.595, 53.74731
1132.687, 86.72241
1133.778, 30.20410
1134.870, 45.81470
1135.961, 26.88599
1137.053, 61.86133
1138.144, 36.83862
1139.235, 63.60107
1140.326, 6.417480
1141.416, 53.69580
1142.507, 36.75781
1143.597, 0.9250490
1144.688, 67.06958
1145.778, 86.05811
1146.868, 60.13672
1147.957, 57.82812
1149.047, 33.81958
1150.136, 10.20752
1151.226, 30.61816
1152.315, 30.61133
1153.404, 93.00439
1154.493, 65.84766
1155.581, 8.879883
1156.670, 43.87256
1157.758, 2.135254
1158.846, 25.85547
1159.934, 62.90210
1161.022, 30.89111
1162.110, 43.98413
1163.198, 55.06299
1164.285, 60.22266
1165.372, 42.21484
1166.459, 65.67505
1167.546, 60.19092
1168.633, 85.16919
1169.720, 16.16284
1170.806, 4.840332
1171.892, 10.87085
1172.979, 15.52563
1174.065, 42.51416
1175.150, 30.42432
1176.236, 3.608887
1177.322, 79.67871
1178.407, 28.79102
1179.492, 17.08008
1180.577, 27.47485
1181.662, 17.62451
1182.747, 0.2138670
1183.832, 12.95337
1184.916, 7.131348
1186.000, 39.31812
1187.084, 3.469482
1188.168, 0.2521970
1189.252, 4.972168
1190.336, 34.20605
1191.419, 52.53564
1192.503, 39.72876
1193.586, 28.02173
1194.669, 15.66260
1195.752, 66.65942
1196.835, 7.974365
1197.917, 19.39868
1199.000, 41.69507
1200.082, 0.1203610
1201.164, 40.55688
1202.246, 25.97412
1203.328, 8.497803
1204.409, 63.01343
1205.491, 22.52148
1206.572, 29.97778
1207.653, 87.49316
1208.734, 49.95605
1209.815, 1.588867
1210.896, 5.850098
1211.976, 63.27710
1213.057, 42.30444
1214.137, 19.07568
1215.217, 9.553467
1216.297, 3.795410
1217.377, 49.12915
1218.456, 27.45361
1219.536, 44.17041
1220.615, 23.10815
1221.694, 20.62158
1222.773, 26.38110
1223.852, 8.173584
1224.931, 17.98999
1226.009, 24.16431
1227.088, 64.30713
1228.166, 27.43970
1229.244, 37.43921
1230.322, 73.64087
1231.400, 13.71069
1232.477, 68.76465
1233.555, 21.19238
1234.632, 22.81714
1235.709, 12.81299
1236.786, 22.79199
1237.863, 22.75659
1238.939, 52.70679
1240.016, 28.64502
1241.092, 35.56982
1242.168, 41.48169
1243.245, 26.66333
1244.320, 43.26587
1245.396, 14.13818
1246.472, 21.99170
1247.547, 22.82935
1248.622, 90.65356
1249.697, 30.46631
1250.772, 70.26416
1251.847, 98.04980
1252.922, 7.822998
1253.996, 58.57324
1255.071, 1.310791
1256.145, 67.03320
1257.219, 73.73364
1258.293, 85.42139
1259.366, 31.09692
1260.440, 38.75635
1261.513, 109.4006
1262.587, 5.032715
1263.660, 97.63818
1264.733, 22.08569
1265.805, 99.65991
1266.878, 102.2212
1267.951, 21.77002
1269.023, 100.3027
1270.095, 56.74365
1271.167, 70.24927
1272.239, 51.76514
1273.311, 55.23315
1274.382, 141.7063
1275.454, 45.15674
1276.525, 34.59180
1277.596, 131.0090
1278.667, 40.41333
1279.738, 39.83154
1280.808, 113.2412
1281.879, 41.59912
1282.949, 2.940918
1284.019, 87.27344
1285.089, 156.5720
1286.159, 166.8574
1287.229, 129.0913
1288.298, 85.35010
1289.368, 103.5947
1290.437, 74.72363
1291.506, 78.48560
1292.575, 63.30054
1293.644, 99.55444
1294.712, 98.72876
1295.781, 131.8894
1296.849, 193.0361
1297.917, 99.18530
1298.985, 98.30420
1300.053, 127.2979
1301.121, 46.08960
1302.188, 121.1631
1303.255, 144.2375
1304.323, 96.28320
1305.390, 129.2102
1306.457, 191.7751
1307.523, 102.4629
1308.590, 34.45361
1309.656, 109.1111
1310.723, 118.2852
1311.789, 186.1985
1312.855, 183.8394
1313.921, 126.1292
1314.986, 173.8315
1316.052, 150.7283
1317.117, 145.5408
1318.182, 194.0894
1319.248, 140.8408
1320.312, 123.6853
1321.377, 130.9844
1322.442, 132.9658
1323.506, 119.1309
1324.571, 125.2241
1325.635, 120.9753
1326.699, 65.29492
1327.762, 118.1646
1328.826, 137.5781
1329.890, 189.4224
1330.953, 139.1372
1332.016, 128.8667
1333.079, 188.5581
1334.142, 84.22241
1335.205, 186.5005
1336.268, 289.1572
1337.330, 194.6284
1338.392, 150.7278
1339.454, 99.04590
1340.516, 132.8635
1341.578, 127.0459
1342.640, 232.4102
1343.701, 163.6199
1344.763, 177.6182
1345.824, 137.1765
1346.885, 65.84229
1347.946, 229.7534
1349.007, 165.7288
1350.067, 173.0005
1351.128, 154.8721
1352.188, 168.9006
1353.248, 147.2241
1354.308, 90.58936
1355.368, 124.0579
1356.428, 109.4092
1357.487, 118.3679
1358.547, 187.8083
1359.606, 102.7510
1360.665, 183.1731
1361.724, 86.01514
1362.783, 105.1570
1363.841, 141.9370
1364.900, 140.0247
1365.958, 111.0850
1367.016, 114.4075
1368.074, 177.5530
1369.132, 131.7708
1370.190, 136.0078
1371.247, 147.0386
1372.304, 74.26880
1373.362, 91.92017
1374.419, 104.8416
1375.476, 89.32642
1376.532, 72.76660
1377.589, 93.74292
1378.645, 125.0044
1379.702, 108.2764
1380.758, 91.35913
1381.814, 135.5378
1382.870, 56.19507
1383.925, 195.9316
1384.981, 149.1416
1386.036, 150.4607
1387.092, 146.3228
1388.147, 94.33813
1389.202, 126.5513
1390.256, 79.24902
1391.311, 52.48560
1392.365, 69.00049
1393.420, 145.1882
1394.474, 94.48267
1395.528, 90.65332
1396.582, 86.82202
1397.636, 58.90649
1398.689, 49.98730
1399.742, 140.9585
1400.796, 53.07983
1401.849, 91.24512
1402.902, 102.1392
1403.955, 58.74634
1405.007, 86.85278
1406.060, 46.55762
1407.112, 44.35767
1408.164, 76.54077
1409.216, 116.4714
1410.268, 46.70117
1411.320, 90.73730
1412.371, 108.8398
1413.423, 71.90576
1414.474, 67.01123
1415.525, 64.99951
1416.576, 75.06299
1417.627, 36.99097
1418.678, 67.27612
1419.728, 33.96240
1420.778, 88.04224
1421.829, 96.03052
1422.879, 69.02759
1423.928, 45.01807
1424.978, 78.98389
1426.028, 54.92456
1427.077, 101.8828
1428.126, 51.40088
1429.176, 77.34521
1430.225, 55.29346
1431.273, 103.2021
1432.322, 94.12988
1433.371, 117.0706
1434.419, 91.01001
1435.467, 67.43555
1436.515, 64.20898
1437.563, 79.13184
1438.611, 79.04614
1439.658, 108.9561
1440.706, 31.92993
1441.753, 67.86133
1442.800, 82.76318
1443.847, 144.8176
1444.894, 114.7104
1445.941, 84.55249
1446.987, 132.4172
1448.034, 75.23926
1449.080, 88.11572
1450.126, 111.8862
1451.172, 107.6482
1452.218, 133.5044
1453.263, 103.1006
1454.309, 119.6375
1455.354, 100.6431
1456.399, 61.64722
1457.444, 20.63721
1458.489, 73.63599
1459.534, 156.6250
1460.579, 61.60840
1461.623, 66.61060
1462.667, 137.6177
1463.711, 53.54956
1464.755, 89.55664
1465.799, 50.58545
1466.843, 115.6421
1467.886, 77.70068
1468.930, 92.76807
1469.973, 73.84692
1471.016, 55.93262
1472.059, 16.97021
1473.101, 30.12842
1474.144, 6.776123
1475.186, 52.31543
1476.229, 58.40527
1477.271, 26.49878
1478.313, 69.58618
1479.355, 57.89673
1480.396, 113.7561
1481.438, 73.83813
1482.479, 61.93384
1483.520, 77.02612
1484.561, 85.11890
1485.602, 71.66846
1486.643, 80.14673
1487.684, 77.07593
1488.724, 77.52026
1489.765, 72.59058
1490.805, 73.00000
1491.845, 64.91968
1492.885, 50.84937
1493.924, 38.90649
1494.964, 39.00220
1496.003, 44.13989
1497.042, 35.27734
1498.082, 17.41602
1499.120, 14.93335
1500.159, 8.491943
1501.198, 7.650879
1502.236, 46.77026
1503.275, 72.91968
1504.313, 61.07910
1505.351, 36.24365
1506.389, 57.41309
1507.427, 77.59180
1508.464, 6.232422
1509.502, 65.94946
1510.539, 16.03394
1511.576, 22.22534
1512.613, 19.42310
1513.650, 36.63037
1514.687, 71.84717
1515.723, 28.07690
1516.759, 26.32324
1517.796, 56.58008
1518.832, 12.65991
1519.868, 9.071045
1520.903, 101.2051
1521.939, 26.49048
1522.975, 46.78369
1524.010, 44.08325
1525.045, 11.38892
1526.080, 28.49121
1527.115, 21.77393
1528.150, 41.88330
1529.184, 38.12183
1530.219, 59.36426
1531.253, 10.61035
1532.287, 14.86084
1533.321, 0.1149900
1534.355, 57.37378
1535.388, 44.63794
1536.422, 29.90796
1537.455, 52.18384
1538.488, 27.16895
1539.522, 74.04224
1540.554, 30.78516
1541.587, 70.99097
1542.620, 4.174561
1543.652, 101.4348
1544.685, 17.23926
1545.717, 54.82031
1546.749, 130.8928
1547.781, 82.60156
1548.812, 57.17822
1549.844, 49.81421
1550.875, 53.73340
1551.906, 75.64233
1552.938, 113.0608
1553.968, 159.9314
1554.999, 221.1106
1556.030, 94.98438
1557.060, 76.58911
1558.091, 87.91821
1559.121, 17.13550
1560.151, 8.536377
1561.181, 80.51904
1562.211, 111.2805
1563.240, 82.53003
1564.270, 17.82617
1565.299, 29.19678
1566.328, 38.53345
1567.357, 8.913086
1568.386, 86.33325
1569.415, 36.92334
1570.443, 17.84961
1571.472, 46.10010
1572.500, 9.186523
1573.528, 24.14673
1574.556, 37.31030
1575.584, 0.1159670
1576.611, 71.07129
1577.639, 0.0000000E+00
##END=



