##NAMES=Rhodonite
##RRUFFID=R060549
##IDEAL CHEMISTRY=CaMn^2+^_3_Mn^2+^Si_5_O_15_
##LOCALITY=unknown
##OWNER=RRUFF
##SOURCE=Gemological Institute of America
##DESCRIPTION=Pink cleavage fragment
##STATUS=The identification of this mineral has been confirmed by X-ray diffraction and chemical analysis
##URL=rruff.info/R060549
##MEASURED CHEMISTRY=(Mn_0.76_Ca_0.12_Fe_0.07_Mg_0.06_)Si_0.99_O_3_
##PIN_ID=L01642
##ORIENTATION=Laser parallel to (1 1 0). Fiducial mark perpendicular to laser is parallel to c [0 0 1]
153.3770, 0.0000000E+00
154.6030, 11.51270
155.8300, 1.668457
157.0570, 201.8921
158.2830, 146.7363
159.5090, 396.9756
160.7350, 383.2559
161.9610, 490.0552
163.1870, 676.0537
164.4130, 671.8335
165.6380, 689.3750
166.8630, 767.8008
168.0880, 833.5151
169.3130, 768.7852
170.5380, 707.7930
171.7630, 665.6655
172.9870, 597.3037
174.2120, 539.4971
175.4360, 582.7119
176.6600, 637.1328
177.8840, 743.0088
179.1080, 755.3032
180.3310, 688.9849
181.5550, 634.0259
182.7780, 537.4023
184.0010, 354.0933
185.2240, 276.0786
186.4470, 213.3418
187.6700, 158.8687
188.8920, 83.64453
190.1150, 44.65625
191.3370, 25.89307
192.5590, 60.65234
193.7810, 7.006348
195.0020, 91.14600
196.2240, 78.12012
197.4450, 18.07227
198.6670, 88.42090
199.8880, 217.9170
201.1090, 85.55078
202.3300, 107.3193
203.5500, 97.21777
204.7710, 155.2422
205.9910, 219.3867
207.2110, 257.6455
208.4310, 222.0142
209.6510, 362.4888
210.8710, 353.0649
212.0910, 511.7393
213.3100, 527.5098
214.5290, 507.3789
215.7480, 576.3477
216.9670, 636.4131
218.1860, 515.5713
219.4050, 378.8188
220.6230, 405.1519
221.8420, 328.5674
223.0600, 272.0620
224.2780, 376.6318
225.4960, 397.2764
226.7130, 488.0083
227.9310, 543.8286
229.1480, 515.7393
230.3660, 485.7441
231.5830, 656.8013
232.8000, 627.8867
234.0160, 856.9990
235.2330, 901.1401
236.4490, 1086.317
237.6660, 1105.524
238.8820, 1249.755
240.0980, 1325.011
241.3140, 1433.293
242.5300, 1515.602
243.7450, 1647.940
244.9600, 1651.309
246.1760, 1846.686
247.3910, 1881.063
248.6060, 2087.473
249.8200, 2252.987
251.0350, 2300.573
252.2500, 2479.205
253.4640, 2535.865
254.6780, 2733.556
255.8920, 2907.275
257.1060, 3052.023
258.3190, 3336.802
259.5330, 3698.608
260.7460, 3878.443
261.9600, 4192.307
263.1730, 4528.199
264.3850, 4373.119
265.5980, 4520.067
266.8110, 4420.041
268.0230, 4008.043
269.2360, 3675.070
270.4480, 3444.131
271.6600, 2951.238
272.8710, 2739.442
274.0830, 2469.759
275.2950, 2232.151
276.5060, 2053.633
277.7170, 1929.141
278.9280, 1695.667
280.1390, 1649.209
281.3500, 1531.770
282.5600, 1355.933
283.7710, 1072.939
284.9810, 1059.548
286.1910, 972.1719
287.4010, 863.8115
288.6110, 895.4663
289.8200, 737.1362
291.0300, 634.8203
292.2390, 794.5186
293.4480, 627.2310
294.6570, 658.9570
295.8660, 785.6958
297.0750, 659.4478
298.2830, 808.3271
299.4920, 706.5430
300.7000, 709.5820
301.9080, 787.9873
303.1160, 729.5156
304.3240, 739.4785
305.5310, 776.9727
306.7390, 836.2842
307.9460, 719.4438
309.1530, 800.4644
310.3600, 800.5327
311.5670, 849.6089
312.7740, 866.7129
313.9800, 894.8467
315.1870, 967.0371
316.3930, 1091.260
317.5990, 1329.518
318.8050, 1454.293
320.0110, 1716.399
321.2160, 1929.451
322.4220, 2284.549
323.6270, 2503.692
324.8320, 2780.879
326.0370, 2938.107
327.2420, 3045.376
328.4460, 3195.681
329.6510, 3223.023
330.8550, 3167.401
332.0590, 3399.812
333.2630, 3422.256
334.4670, 3491.730
335.6710, 3624.235
336.8740, 3571.770
338.0780, 3473.458
339.2810, 3241.048
340.4840, 3090.717
341.6870, 2734.054
342.8900, 2560.753
344.0920, 2443.442
345.2950, 2311.364
346.4970, 2170.170
347.6990, 2025.277
348.9010, 1911.922
350.1030, 1731.719
351.3050, 1594.535
352.5060, 1492.370
353.7080, 1421.224
354.9090, 1310.096
356.1100, 1159.984
357.3110, 1246.891
358.5110, 1087.813
359.7120, 966.7529
360.9120, 1117.708
362.1130, 1003.677
363.3130, 1166.662
364.5130, 1000.660
365.7120, 1221.672
366.9120, 1136.699
368.1120, 1157.737
369.3110, 1206.789
370.5100, 1275.853
371.7090, 1219.929
372.9080, 1071.016
374.1070, 988.1143
375.3050, 1001.224
376.5040, 742.3438
377.7020, 749.4731
378.9000, 692.6133
380.0980, 545.7627
381.2950, 548.9229
382.4930, 542.0923
383.6910, 517.3608
384.8880, 556.5493
386.0850, 532.6997
387.2820, 572.7490
388.4790, 525.5898
389.6750, 565.1914
390.8720, 496.4253
392.0680, 483.6313
393.2640, 487.6211
394.4600, 315.0474
395.6560, 276.8833
396.8520, 141.9336
398.0480, 278.8774
399.2430, 296.1577
400.4380, 216.4443
401.6330, 102.7358
402.8280, 262.1406
404.0230, 243.4434
405.2180, 407.7510
406.4120, 320.0625
407.6060, 495.3799
408.8000, 534.7026
409.9940, 581.0293
411.1880, 641.3604
412.3820, 602.6968
413.5750, 687.0371
414.7690, 779.3823
415.9620, 945.7305
417.1550, 842.0830
418.3480, 1140.438
419.5410, 1244.796
420.7330, 1196.156
421.9260, 1176.518
423.1180, 1185.883
424.3100, 1036.250
425.5020, 846.6182
426.6940, 833.9883
427.8850, 546.3599
429.0770, 341.7329
430.2680, 366.1084
431.4590, 241.4849
432.6500, 251.8623
433.8410, 213.5244
435.0320, 125.6211
436.2220, 160.0020
437.4130, 104.3838
438.6030, 76.76660
439.7930, 10.15039
440.9830, 27.46533
442.1730, 28.09180
443.3620, 55.72168
444.5520, 41.79102
445.7410, 57.61768
446.9300, 7.543945
448.1190, 51.59863
449.3080, 47.29590
450.4960, 5.058105
451.6850, 55.37207
452.8730, 0.6611330
454.0610, 24.57471
455.2490, 66.11816
456.4370, 174.4326
457.6250, 38.54297
458.8130, 107.8442
460.0000, 34.70264
461.1870, 8.972168
462.3740, 150.3413
463.5610, 127.1484
464.7480, 273.4536
465.9340, 166.7827
467.1210, 351.0913
468.3070, 363.4014
469.4930, 408.7124
470.6790, 417.0244
471.8650, 578.3369
473.0510, 601.6509
474.2360, 563.9644
475.4210, 455.2783
476.6070, 248.5923
477.7920, 276.9062
478.9770, 142.2197
480.1610, 182.5327
481.3460, 128.8579
482.5300, 32.81738
483.7140, 1.502930
484.8980, 122.1660
486.0820, 91.09375
487.2660, 44.64844
488.4500, 7.578613
489.6330, 28.19824
490.8160, 14.00146
492.0000, 56.21826
493.1830, 24.44141
494.3650, 201.6646
495.5480, 232.8857
496.7300, 326.1045
497.9130, 361.3228
499.0950, 357.5425
500.2770, 279.7593
501.4590, 371.9736
502.6410, 450.1841
503.8220, 714.3901
505.0030, 832.5918
506.1850, 973.7905
507.3660, 1191.985
508.5470, 1441.182
509.7270, 1452.374
510.9080, 1506.581
512.0880, 1497.783
513.2690, 1368.979
514.4490, 1140.172
515.6290, 965.3887
516.8090, 873.6001
517.9880, 562.8066
519.1680, 594.0127
520.3470, 390.2134
521.5260, 313.4097
522.7050, 192.6011
523.8840, 192.7861
525.0630, 27.96582
526.2410, 181.1396
527.4200, 2.307617
528.5980, 4.472656
529.7760, 9.623535
530.9540, 67.23828
532.1320, 13.15381
533.3090, 60.09375
534.4870, 56.26807
535.6640, 0.8823240
536.8410, 37.16797
538.0180, 40.25684
539.1950, 6.376953
540.3710, 58.48047
541.5480, 81.32959
542.7240, 112.2031
543.9000, 38.06982
545.0760, 142.9277
546.2520, 82.77734
547.4280, 132.6484
548.6040, 136.5127
549.7790, 163.4106
550.9540, 155.3115
552.1290, 203.2188
553.3040, 235.1182
554.4790, 327.0190
555.6530, 375.9155
556.8280, 462.8037
558.0020, 416.7134
559.1760, 400.6143
560.3500, 496.5352
561.5240, 381.4482
562.6980, 328.3574
563.8710, 354.2568
565.0440, 354.1758
566.2170, 321.0938
567.3900, 431.0015
568.5630, 503.9004
569.7360, 414.7959
570.9090, 573.6914
572.0810, 625.5762
573.2530, 593.4590
574.4250, 738.3413
575.5970, 565.2134
576.7690, 536.0850
577.9400, 403.9453
579.1120, 384.7959
580.2830, 240.6406
581.4540, 241.4746
582.6250, 176.1846
583.7960, 126.4736
584.9660, 135.9053
586.1370, 56.76123
587.3070, 9.641113
588.4770, 32.82910
589.6470, 105.2339
590.8170, 24.47070
591.9870, 49.01074
593.1560, 103.6670
594.3260, 18.71338
595.4950, 40.89746
596.6640, 80.49463
597.8330, 68.91943
599.0010, 137.6045
600.1700, 25.11768
601.3380, 82.61426
602.5070, 84.52295
603.6750, 27.99609
604.8430, 101.4526
606.0100, 84.00537
607.1780, 107.3306
608.3450, 124.7520
609.5130, 117.1616
610.6800, 154.5591
611.8470, 214.9448
613.0140, 207.3179
614.1800, 168.6792
615.3470, 286.1089
616.5130, 241.4463
617.6790, 178.9087
618.8450, 374.2207
620.0110, 181.6748
621.1770, 461.9614
622.3420, 400.3267
623.5080, 427.2153
624.6730, 546.3892
625.8380, 461.5918
627.0030, 587.8145
628.1680, 509.8145
629.3320, 598.9404
630.4970, 622.9126
631.6610, 682.5776
632.8250, 709.5498
633.9890, 808.7832
635.1530, 915.0278
636.3160, 1027.964
637.4800, 1172.577
638.6430, 1316.833
639.8060, 1425.097
640.9690, 1631.264
642.1320, 1651.330
643.2950, 1914.372
644.4570, 2157.401
645.6200, 2475.554
646.7820, 2619.790
647.9440, 3027.884
649.1060, 3563.089
650.2670, 3962.328
651.4290, 4590.274
652.5900, 5491.208
653.7520, 6539.235
654.9130, 7944.134
656.0740, 9440.022
657.2340, 11430.99
658.3950, 13623.88
659.5550, 16008.73
660.7160, 18464.89
661.8760, 20935.90
663.0360, 23078.77
664.1960, 25239.64
665.3550, 27617.67
666.5150, 30696.48
667.6740, 33254.40
668.8330, 35106.54
669.9920, 35893.72
671.1510, 35036.12
672.3100, 32761.04
673.4680, 29547.91
674.6270, 25642.74
675.7850, 22172.69
676.9430, 19289.94
678.1010, 16731.78
679.2590, 14704.80
680.4160, 12941.38
681.5740, 11321.44
682.7310, 9740.161
683.8880, 8445.606
685.0450, 7159.131
686.2020, 6326.477
687.3580, 5236.238
688.5150, 4424.497
689.6710, 4048.334
690.8270, 3593.162
691.9830, 3041.859
693.1390, 2847.154
694.2950, 2618.434
695.4500, 2388.055
696.6050, 2145.338
697.7610, 2000.691
698.9160, 2003.023
700.0710, 1746.356
701.2250, 1547.715
702.3800, 1523.069
703.5340, 1626.881
704.6880, 1540.922
705.8420, 1615.181
706.9960, 1523.529
708.1500, 1605.067
709.3040, 1688.110
710.4570, 1671.396
711.6100, 1867.004
712.7640, 1794.243
713.9160, 1726.357
715.0690, 1858.417
716.2220, 1773.496
717.3740, 1625.557
718.5270, 1803.579
719.6790, 1681.604
720.8310, 1662.613
721.9830, 1527.751
723.1340, 1449.735
724.2860, 1252.714
725.4370, 1144.338
726.5880, 1056.489
727.7390, 911.8179
728.8900, 816.7642
730.0410, 802.7515
731.1910, 880.5317
732.3420, 738.4395
733.4920, 652.7090
734.6420, 748.3350
735.7920, 622.1748
736.9420, 680.2070
738.0910, 611.0322
739.2410, 704.2871
740.3900, 604.0596
741.5390, 584.8271
742.6880, 509.0859
743.8370, 482.8350
744.9860, 447.5449
746.1340, 433.2612
747.2820, 428.9619
748.4310, 403.9414
749.5790, 144.3164
750.7260, 330.9707
751.8740, 234.6084
753.0220, 102.2314
754.1690, 251.8369
755.3160, 87.42773
756.4630, 168.0020
757.6100, 82.56152
758.7570, 144.1035
759.9030, 96.62988
761.0500, 116.1416
762.1960, 74.64941
763.3420, 137.1406
764.4880, 150.6533
765.6340, 159.1504
766.7790, 155.6475
767.9250, 113.1299
769.0700, 42.39062
770.2150, 3.3202998E-02
771.3600, 20.42578
772.5050, 76.79688
773.6490, 98.15234
774.7940, 30.49219
775.9380, 9.814453
777.0820, 66.10938
778.2260, 85.39062
779.3700, 105.8125
780.5140, 108.0322
781.6570, 145.1484
782.8010, 73.37207
783.9440, 49.58301
785.0870, 7.778320
786.2300, 48.94824
787.3720, 43.89551
788.5150, 121.2100
789.6570, 161.3008
790.8000, 74.38086
791.9420, 88.55371
793.0840, 138.4385
794.2250, 76.41797
795.3670, 5.383789
796.5080, 116.3281
797.6500, 27.25977
798.7910, 47.17578
799.9320, 78.07910
801.0720, 72.96777
802.2130, 21.84570
803.3530, 79.70898
804.4940, 31.43945
805.6340, 28.37695
806.7740, 65.18457
807.9140, 67.98340
809.0530, 29.79395
810.1930, 45.16309
811.3320, 1.417969
812.4710, 9.235352
813.6100, 34.04297
814.7490, 17.14551
815.8880, 57.65332
817.0270, 84.44824
818.1650, 105.7646
819.3030, 39.94629
820.4410, 73.64648
821.5790, 102.3379
822.7170, 96.98242
823.8540, 12.62988
824.9920, 144.7695
826.1290, 27.26270
827.2660, 43.78613
828.4030, 8.650391
829.5400, 20.92480
830.6760, 5.526367
831.8130, 10.85352
832.9490, 102.7764
834.0850, 71.52441
835.2210, 105.1836
836.3570, 59.04102
837.4930, 11.74316
838.6280, 43.45410
839.7640, 100.3574
840.8990, 25.23340
842.0340, 49.86621
843.1690, 22.95703
844.3030, 19.95898
845.4380, 28.89551
846.5720, 21.14355
847.7060, 23.82617
848.8400, 34.81641
849.9740, 85.16699
851.1080, 33.85645
852.2420, 44.09473
853.3750, 138.0400
854.5080, 20.01953
855.6410, 43.90430
856.7740, 47.82227
857.9070, 2.734375
859.0400, 115.6406
860.1720, 55.54102
861.3040, 65.43555
862.4360, 165.3271
863.5680, 94.21680
864.7000, 148.1191
865.8320, 307.0166
866.9630, 246.9219
868.0950, 296.8252
869.2260, 346.7236
870.3570, 380.6279
871.4880, 432.5322
872.6180, 687.4307
873.7490, 599.3506
874.8790, 785.2676
876.0090, 1022.184
877.1390, 1086.096
878.2690, 1222.005
879.3990, 1224.920
880.5280, 1192.832
881.6580, 1327.740
882.7870, 1130.646
883.9160, 1235.551
885.0450, 1046.451
886.1740, 926.3506
887.3020, 841.2480
888.4310, 760.1416
889.5590, 596.9541
890.6870, 699.8457
891.8150, 777.5986
892.9430, 486.4873
894.0700, 310.2207
895.1980, 373.1055
896.3250, 456.8994
897.4520, 459.7764
898.5790, 474.4883
899.7060, 310.3760
900.8330, 421.2646
901.9590, 532.1514
903.0850, 389.0391
904.2120, 549.9199
905.3380, 392.3145
906.4630, 345.3896
907.5890, 408.4863
908.7150, 559.2695
909.8400, 542.1436
910.9650, 624.5967
912.0900, 751.3975
913.2150, 658.1875
914.3400, 749.0635
915.4640, 766.0303
916.5890, 748.0078
917.7130, 654.9883
918.8370, 613.8418
919.9610, 577.6006
921.0850, 639.5039
922.2080, 635.2852
923.3320, 650.0244
924.4550, 619.0508
925.5780, 658.0820
926.7010, 656.0156
927.8240, 712.0693
928.9460, 775.1230
930.0690, 746.0879
931.1910, 776.1152
932.3130, 789.1953
933.4350, 874.0830
934.5570, 1214.861
935.6790, 1129.897
936.8000, 1378.920
937.9220, 1615.694
939.0430, 1609.788
940.1640, 1775.812
941.2850, 1758.742
942.4050, 1695.839
943.5260, 1596.976
944.6460, 1482.961
945.7660, 1332.021
946.8860, 1352.354
948.0060, 1296.131
949.1260, 1161.188
950.2460, 1257.446
951.3650, 1289.622
952.4840, 1558.903
953.6030, 1586.693
954.7220, 1645.830
955.8410, 1821.117
956.9590, 1941.429
958.0780, 2169.908
959.1960, 2505.965
960.3140, 2854.517
961.4320, 3286.487
962.5500, 3858.459
963.6680, 4668.555
964.7850, 5384.046
965.9020, 6515.543
967.0190, 7870.694
968.1360, 9552.208
969.2530, 11291.65
970.3700, 13023.10
971.4860, 15359.54
972.6030, 17510.96
973.7190, 19303.37
974.8350, 20417.31
975.9510, 20982.04
977.0660, 20389.53
978.1820, 19253.94
979.2970, 17719.14
980.4130, 16048.84
981.5280, 15044.29
982.6420, 13982.40
983.7570, 13460.88
984.8720, 12911.47
985.9860, 13144.12
987.1000, 13111.74
988.2140, 13269.36
989.3280, 13573.03
990.4420, 13899.68
991.5560, 14248.34
992.6690, 14839.87
993.7820, 15589.57
994.8950, 16353.27
996.0080, 17593.99
997.1210, 18167.71
998.2340, 19142.46
999.3460, 19948.22
1000.458, 20064.99
1001.571, 19679.78
1002.683, 19028.57
1003.794, 17662.38
1004.906, 16251.20
1006.017, 14645.03
1007.129, 13152.87
1008.240, 11751.72
1009.351, 10255.61
1010.462, 9292.519
1011.572, 7891.443
1012.683, 6883.529
1013.793, 5907.477
1014.904, 5242.436
1016.014, 4647.408
1017.123, 3981.390
1018.233, 3885.383
1019.343, 3382.387
1020.452, 3385.400
1021.561, 3226.424
1022.670, 2962.460
1023.779, 2846.506
1024.888, 2749.563
1025.997, 2666.635
1027.105, 2624.715
1028.213, 2695.808
1029.321, 2637.553
1030.429, 2436.029
1031.537, 2551.462
1032.645, 2550.623
1033.752, 2340.794
1034.859, 2517.979
1035.966, 2587.307
1037.073, 2613.518
1038.180, 2618.745
1039.287, 2807.997
1040.393, 2794.735
1041.500, 2907.227
1042.606, 2828.526
1043.712, 2990.938
1044.818, 2972.321
1045.923, 2948.297
1047.029, 2813.659
1048.134, 2768.322
1049.239, 2677.713
1050.344, 2559.161
1051.449, 2511.320
1052.554, 2373.903
1053.658, 2069.539
1054.763, 1760.270
1055.867, 1643.083
1056.971, 1308.119
1058.075, 1063.826
1059.179, 1079.636
1060.282, 1175.405
1061.385, 841.1621
1062.489, 617.7305
1063.592, 849.2793
1064.695, 584.5010
1065.797, 599.8672
1066.900, 628.9629
1068.002, 583.5459
1069.105, 458.1357
1070.207, 482.3701
1071.309, 444.2666
1072.411, 393.5059
1073.512, 368.0664
1074.614, 351.7021
1075.715, 465.7588
1076.816, 275.5508
1077.917, 347.2246
1079.018, 259.5244
1080.118, 206.4033
1081.219, 220.1602
1082.319, 265.9326
1083.419, 208.1963
1084.519, 231.7969
1085.619, 97.64941
1086.719, 241.4961
1087.818, 213.4785
1088.918, 264.3838
1090.017, 105.1348
1091.116, 138.9170
1092.215, 93.12695
1093.314, 163.7549
1094.412, 90.87793
1095.510, 57.77930
1096.609, 144.8994
1097.707, 82.09961
1098.805, 102.9844
1099.902, 101.4316
1101.000, 98.35156
1102.097, 160.2715
1103.195, 97.82422
1104.292, 97.77832
1105.389, 84.05859
1106.485, 163.0205
1107.582, 97.47070
1108.678, 180.5078
1109.775, 77.78223
1110.871, 109.0156
1111.967, 225.0225
1113.062, 62.16309
1114.158, 84.33203
1115.254, 129.3545
1116.349, 103.4414
1117.444, 105.4727
1118.539, 135.7607
1119.634, 142.7988
1120.728, 135.0049
1121.823, 134.5850
1122.917, 68.18848
1124.011, 114.8154
1125.105, 96.15234
1126.199, 105.2139
1127.293, 19.57324
1128.386, 130.0840
1129.480, 75.48535
1130.573, 4.416992
1131.666, 236.8340
1132.759, 56.85059
1133.851, 46.09668
1134.944, 63.10645
1136.036, 196.1133
1137.129, 132.1191
1138.221, 48.44043
1139.313, 97.42871
1140.404, 53.39648
1141.496, 179.2871
1142.587, 36.27734
1143.678, 36.44434
1144.770, 141.8730
1145.860, 77.18164
1146.951, 233.6670
1148.042, 37.61230
1149.132, 77.55176
1150.223, 136.5088
1151.313, 55.43652
1152.403, 28.35547
1153.492, 194.4717
1154.582, 67.37891
1155.671, 52.57520
1156.761, 126.7705
1157.850, 98.65332
1158.939, 99.74512
1160.028, 195.1523
1161.116, 59.32715
1162.205, 29.84961
1163.293, 83.13770
1164.381, 131.9629
1165.469, 54.89355
1166.557, 18.97168
1167.645, 214.4111
1168.732, 51.65332
1169.820, 65.45801
1170.907, 60.37891
1171.994, 103.3115
1173.081, 73.22168
1174.167, 99.62402
1175.254, 53.10840
1176.340, 42.98145
1177.426, 149.8828
1178.512, 2.429688
1179.598, 107.1357
1180.684, 62.79492
1181.770, 25.54590
1182.855, 37.94629
1183.940, 47.57227
1185.025, 11.04590
1186.110, 2.020508
1187.195, 19.49219
1188.280, 31.25684
1189.364, 30.37305
1190.448, 22.96484
1191.532, 36.28516
1192.616, 84.59961
1193.700, 138.8916
1194.784, 48.82812
1195.867, 18.59570
1196.950, 2.605469
1198.034, 138.7861
1199.117, 161.0801
1200.199, 29.74609
1201.282, 39.59473
1202.364, 28.48730
1203.447, 80.56543
1204.529, 231.6094
1205.611, 55.39160
1206.693, 73.55566
1207.774, 104.4873
1208.856, 41.59961
1209.937, 61.26562
1211.018, 93.22852
1212.099, 91.87012
1213.180, 10.95703
1214.261, 123.6289
1215.341, 106.4062
1216.422, 2.167969
1217.502, 63.90234
1218.582, 83.61816
1219.662, 197.3164
1220.742, 126.9971
1221.821, 29.82227
1222.900, 11.46484
1223.980, 61.08203
1225.059, 119.6797
1226.138, 69.25879
1227.216, 53.81836
1228.295, 184.3555
1229.373, 111.1240
1230.452, 163.3057
1231.530, 203.7148
1232.608, 24.19531
1233.685, 162.7852
1234.763, 62.13281
1235.840, 168.6426
1236.918, 27.04395
1237.995, 132.2207
1239.072, 76.46484
1240.149, 87.68652
1241.225, 154.8877
1242.302, 115.0684
1243.378, 109.2295
1244.454, 218.3691
1245.530, 134.4883
1246.606, 168.5869
1247.681, 89.66602
1248.757, 178.7217
1249.832, 110.7578
1250.907, 171.7715
1251.982, 127.7637
1253.057, 39.73535
1254.132, 82.82422
1255.206, 22.74707
1256.281, 77.63965
1257.355, 53.50781
1258.429, 68.35156
1259.503, 5.169922
1260.576, 66.01660
1261.650, 164.7734
1262.723, 105.5098
1263.797, 223.1514
1264.870, 271.0186
1265.942, 332.6133
1267.015, 88.25977
1268.088, 30.24219
1269.160, 25.16602
1270.232, 23.75195
1271.304, 165.8496
1272.376, 96.30762
1273.448, 82.58984
1274.520, 83.99805
1275.591, 58.38184
1276.662, 169.7373
1277.733, 195.0723
1278.804, 164.3838
1279.875, 231.6729
1280.946, 210.9385
1282.016, 123.1826
1283.086, 211.4023
1284.156, 101.5986
1285.226, 100.7705
1286.296, 221.9160
1287.366, 123.0391
1288.435, 64.13770
1289.505, 100.3652
1290.574, 21.41602
1291.643, 31.28516
1292.711, 193.2881
1293.780, 33.21973
1294.849, 111.1201
1295.917, 58.33301
1296.985, 78.17871
1298.053, 173.2002
1299.121, 88.53418
1300.189, 99.06055
1301.256, 39.66602
1302.323, 0.6201170
1303.391, 135.9570
1304.458, 19.55176
1305.524, 91.84961
1306.591, 190.9453
1307.658, 2.402344
1308.724, 138.9258
1309.790, 136.5928
1310.856, 197.3184
1311.922, 205.6055
1312.988, 122.8281
1314.053, 222.9463
1315.119, 282.9697
1316.184, 164.7744
1317.249, 201.3965
1318.314, 268.4932
1319.379, 183.5332
1320.443, 162.8418
1321.508, 175.0840
1322.572, 186.3340
1323.636, 178.1104
1324.700, 239.3076
1325.764, 193.9717
1326.827, 134.4873
1327.891, 160.1084
1328.954, 369.6270
1330.017, 207.4365
1331.080, 233.8486
1332.143, 238.9814
1333.205, 166.0254
1334.268, 212.5879
1335.330, 154.5000
1336.392, 225.4648
1337.454, 180.7891
1338.516, 124.5273
1339.578, 250.3740
1340.639, 132.1924
1341.701, 22.98340
1342.762, 158.8564
1343.823, 213.6611
1344.883, 227.5830
1345.944, 223.1650
1347.005, 285.8057
1348.065, 214.5889
1349.125, 112.3555
1350.185, 158.6807
1351.245, 339.6143
1352.305, 155.0498
1353.364, 390.7070
1354.424, 588.1318
1355.483, 369.4717
1356.542, 291.1328
1357.601, 215.2002
1358.659, 175.8086
1359.718, 120.4023
1360.776, 88.37695
1361.834, 161.9307
1362.893, 97.14648
1363.950, 249.0557
1365.008, 268.1006
1366.066, 302.5479
1367.123, 200.7441
1368.180, 174.9678
1369.237, 299.4082
1370.294, 152.7070
1371.351, 211.9629
1372.408, 280.3564
1373.464, 250.6787
1374.520, 323.0400
1375.576, 155.1367
1376.632, 150.4590
1377.688, 186.5840
1378.744, 257.8633
1379.799, 162.0225
1380.854, 100.6797
1381.910, 212.5859
1382.965, 308.8213
1384.019, 288.7188
1385.074, 167.4990
1386.128, 197.2754
1387.183, 115.4912
1388.237, 285.3047
1389.291, 184.3994
1390.345, 243.2500
1391.398, 104.2998
1392.452, 9.396484
1393.505, 203.3330
1394.558, 47.93555
1395.611, 130.8525
1396.664, 155.7705
1397.717, 219.2246
1398.769, 196.0762
1399.822, 200.6221
1400.874, 161.1006
1401.926, 188.6445
1402.978, 255.9160
1404.029, 177.7080
1405.081, 164.4844
1406.132, 247.2236
1407.183, 198.9736
1408.234, 165.7090
1409.285, 259.2266
1410.336, 285.9170
1411.387, 287.7539
1412.437, 375.6523
1413.487, 265.2979
1414.537, 175.7148
1415.587, 73.79395
1416.637, 69.37207
1417.686, 132.6992
1418.736, 94.12305
1419.785, 105.6865
1420.834, 144.1191
1421.883, 9.619141
1422.932, 121.2588
1423.980, 51.78027
1425.029, 11.22266
1426.077, 46.86719
1427.125, 84.00586
1428.173, 149.6309
1429.221, 200.6143
1430.269, 290.9717
1431.316, 27.13086
1432.363, 8.303711
1433.410, 39.22559
1434.457, 139.0674
1435.504, 39.38574
1436.551, 101.6865
1437.597, 220.1279
1438.644, 113.5635
1439.690, 120.8311
1440.736, 239.2793
1441.781, 100.7266
1442.827, 12.88574
1443.873, 68.56836
1444.918, 187.0371
1445.963, 30.51562
1447.008, 186.9961
1448.053, 137.4980
1449.098, 254.8379
1450.142, 169.1768
1451.186, 88.49316
1452.231, 27.22266
1453.275, 237.9258
1454.319, 93.78418
1455.362, 107.9980
1456.406, 37.20312
1457.449, 290.6162
1458.492, 116.4316
1459.535, 128.1436
1460.578, 153.8662
1461.621, 302.7266
1462.663, 135.4932
1463.706, 109.2480
1464.748, 190.8066
1465.790, 82.52734
1466.832, 4.233398
1467.874, 191.9248
1468.915, 295.6396
1469.957, 31.27441
1470.998, 248.7432
1472.039, 115.2295
1473.080, 164.9395
1474.121, 119.6348
1475.161, 206.3154
1476.202, 74.98047
1477.242, 114.6318
1478.282, 167.2686
1479.322, 211.8906
1480.362, 227.3203
1481.401, 68.92773
1482.441, 204.5322
1483.480, 187.0547
1484.519, 286.6641
1485.558, 134.1201
1486.597, 200.4570
1487.636, 167.5361
1488.674, 12.83105
1489.712, 138.8145
1490.751, 371.4619
1491.788, 246.1123
1492.826, 134.7578
1493.864, 220.4004
1494.901, 181.0420
1495.939, 276.6846
1496.976, 247.4199
1498.013, 100.4785
1499.050, 195.1143
1500.086, 200.8447
1501.123, 148.2373
1502.159, 177.1289
1503.195, 244.3545
1504.231, 86.09180
1505.267, 146.3398
1506.303, 186.7803
1507.338, 41.13867
1508.374, 45.87891
1509.409, 34.62891
1510.444, 69.38770
1511.479, 245.1992
1512.514, 31.44043
1513.548, 295.1309
1514.583, 166.8291
1515.617, 335.8926
1516.651, 11.44531
1517.685, 186.8193
1518.718, 215.1123
1519.752, 92.38770
1520.785, 97.65820
1521.819, 9.088867
1522.852, 107.0986
1523.885, 38.98145
1524.917, 35.51074
1525.950, 12.16602
1526.982, 30.28711
1528.015, 39.38281
1529.047, 79.45312
1530.079, 233.4551
1531.110, 182.4736
1532.142, 116.4658
1533.173, 253.4629
1534.205, 216.5195
1535.236, 206.3594
1536.267, 241.1533
1537.298, 93.90332
1538.328, 199.6055
1539.359, 71.26172
1540.389, 172.9609
1541.419, 218.6543
1542.449, 322.3916
1543.479, 212.7393
1544.508, 197.0840
1545.538, 100.4268
1546.567, 170.0752
1547.596, 28.55957
1548.625, 273.9150
1549.654, 84.26855
1550.683, 22.49512
1551.711, 158.8242
1552.740, 107.8047
1553.768, 22.14746
1554.796, 205.5098
1555.824, 252.8965
1556.851, 99.52148
1557.879, 102.2207
1558.906, 121.0156
1559.933, 92.92578
1560.960, 58.97754
1561.987, 75.23438
1563.014, 40.71289
1564.041, 54.36719
1565.067, 100.4033
1566.093, 25.26367
1567.119, 256.4092
1568.145, 183.4766
1569.171, 67.02051
1570.196, 241.1504
1571.222, 245.9980
1572.247, 131.7871
1573.272, 138.3252
1574.297, 69.05762
1575.322, 87.82812
1576.346, 126.9316
1577.371, 0.0000000E+00
##END=



