##NAMES=Rhodonite
##RRUFFID=R060549
##IDEAL CHEMISTRY=CaMn^2+^_3_Mn^2+^Si_5_O_15_
##LOCALITY=unknown
##OWNER=RRUFF
##SOURCE=Gemological Institute of America
##DESCRIPTION=Pink cleavage fragment
##STATUS=The identification of this mineral has been confirmed by X-ray diffraction and chemical analysis
##URL=rruff.info/R060549
##MEASURED CHEMISTRY=(Mn_0.76_Ca_0.12_Fe_0.07_Mg_0.06_)Si_0.99_O_3_
##PIN_ID=L01637
##ORIENTATION=Laser parallel to a* (1 0 0). Fiducial mark perpendicular to laser is parallel to b [0 1 0]
146.0120, 0.0000000E+00
147.2400, 5.736328
148.4680, 6.489258
149.6950, 4.726074
150.9220, 243.2383
152.1500, 277.4565
153.3770, 452.2002
154.6030, 586.5234
155.8300, 776.8516
157.0570, 1031.529
158.2830, 1206.559
159.5090, 1433.001
160.7350, 1543.919
161.9610, 1693.484
163.1870, 1835.363
164.4130, 1855.737
165.6380, 1845.263
166.8630, 1788.141
168.0880, 1647.519
169.3130, 1562.741
170.5380, 1469.118
171.7630, 1401.610
172.9870, 1100.029
174.2120, 1150.439
175.4360, 944.1396
176.6600, 876.1211
177.8840, 787.3726
179.1080, 846.8838
180.3310, 783.6465
181.5550, 744.6509
182.7780, 681.8877
184.0010, 532.3438
185.2240, 386.0049
186.4470, 306.8604
187.6700, 252.9004
188.8920, 138.1147
190.1150, 67.49512
191.3370, 70.03174
192.5590, 1.716797
193.7810, 27.45703
195.0020, 70.49561
196.2240, 57.40723
197.4450, 87.20020
198.6670, 72.39307
199.8880, 0.5576170
201.1090, 11.89941
202.3300, 12.25000
203.5500, 69.50293
204.7710, 17.35791
205.9910, 108.3188
207.2110, 178.3926
208.4310, 262.5850
209.6510, 373.9014
210.8710, 462.3394
212.0910, 587.8936
213.3100, 792.5586
214.5290, 752.2949
215.7480, 699.2026
216.9670, 733.1738
218.1860, 603.2393
219.4050, 627.3804
220.6230, 560.5630
221.8420, 574.7935
223.0600, 540.0776
224.2780, 491.4160
225.4960, 503.8086
226.7130, 462.2539
227.9310, 503.9941
229.1480, 498.2915
230.3660, 598.8813
231.5830, 625.5161
232.8000, 678.1860
234.0160, 885.8872
235.2330, 842.6211
236.4490, 1053.390
237.6660, 1171.192
238.8820, 1340.029
240.0980, 1453.903
241.3140, 1512.813
242.5300, 1510.769
243.7450, 1714.741
244.9600, 1881.684
246.1760, 2128.612
247.3910, 2287.593
248.6060, 2355.610
249.8200, 2502.667
251.0350, 2551.765
252.2500, 2797.902
253.4640, 3083.078
254.6780, 3205.292
255.8920, 3412.547
257.1060, 3696.851
258.3190, 4046.191
259.5330, 4452.570
260.7460, 4584.993
261.9600, 4888.511
263.1730, 5075.082
264.3850, 5248.804
265.5980, 5141.682
266.8110, 4779.673
268.0230, 4496.793
269.2360, 4066.104
270.4480, 3686.614
271.6600, 2995.252
272.8710, 2691.939
274.0830, 2522.654
275.2950, 2077.382
276.5060, 1992.123
277.7170, 1657.877
278.9280, 1538.643
280.1390, 1297.423
281.3500, 1216.214
282.5600, 1027.017
283.7710, 860.8315
284.9810, 836.6577
286.1910, 643.4951
287.4010, 568.3433
288.6110, 641.2021
289.8200, 699.0713
291.0300, 643.9502
292.2390, 713.4863
293.4480, 905.2705
294.6570, 926.1963
295.8660, 1154.156
297.0750, 1193.295
298.2830, 1244.503
299.4920, 1336.757
300.7000, 1551.045
301.9080, 1622.361
303.1160, 1614.705
304.3240, 1604.063
305.5310, 1648.408
306.7390, 1597.741
307.9460, 1646.071
309.1530, 1543.404
310.3600, 1416.746
311.5670, 1350.099
312.7740, 1362.469
313.9800, 1291.855
315.1870, 1369.244
316.3930, 1302.491
317.5990, 1440.557
318.8050, 1650.556
320.0110, 1675.562
321.2160, 1934.610
322.4220, 2050.701
323.6270, 2191.831
324.8320, 2382.000
326.0370, 2449.206
327.2420, 2546.447
328.4460, 2660.725
329.6510, 2678.036
330.8550, 2986.380
332.0590, 2867.756
333.2630, 3051.163
334.4670, 3233.601
335.6710, 3213.068
336.8740, 3241.563
338.0780, 3132.213
339.2810, 3054.482
340.4840, 2900.326
341.6870, 2797.594
342.8900, 2650.867
344.0920, 2423.514
345.2950, 2336.764
346.4970, 2189.319
347.6990, 1988.535
348.9010, 2009.325
350.1030, 1849.093
351.3050, 1718.884
352.5060, 1634.695
353.7080, 1521.459
354.9090, 1447.379
356.1100, 1355.250
357.3110, 1247.140
358.5110, 1166.048
359.7120, 1201.973
360.9120, 1071.917
362.1130, 1175.876
363.3130, 1242.852
364.5130, 1134.991
365.7120, 1141.662
366.9120, 1024.685
368.1120, 1056.744
369.3110, 1038.798
370.5100, 994.8657
371.7090, 1010.949
372.9080, 902.3438
374.1070, 814.0645
375.3050, 675.7031
376.5040, 644.5332
377.7020, 637.6201
378.9000, 620.3696
380.0980, 675.8037
381.2950, 687.7881
382.4930, 700.9756
383.6910, 790.5801
384.8880, 819.3696
386.0850, 937.3926
387.2820, 921.1475
388.4790, 945.4111
389.6750, 1035.281
390.8720, 1111.049
392.0680, 998.4141
393.2640, 945.2378
394.4600, 846.6597
395.6560, 618.0146
396.8520, 573.9365
398.0480, 408.1836
399.2430, 421.5107
400.4380, 311.8442
401.6330, 255.1836
402.8280, 179.5293
404.0230, 222.8794
405.2180, 148.2358
406.4120, 247.5967
407.6060, 238.9619
408.8000, 322.3311
409.9940, 368.7031
411.1880, 389.0781
412.3820, 359.4551
413.5750, 281.8330
414.7690, 324.2104
415.9620, 317.5879
417.1550, 398.9639
418.3480, 361.3394
419.5410, 398.7134
420.7330, 290.0859
421.9260, 324.4570
423.1180, 212.8271
424.3100, 298.1948
425.5020, 123.5610
426.6940, 177.9248
427.8850, 233.2866
429.0770, 135.6475
430.2680, 174.0054
431.4590, 249.3604
432.6500, 292.7134
433.8410, 225.0635
435.0320, 462.4111
436.2220, 319.7622
437.4130, 460.1167
438.6030, 409.4727
439.7930, 447.8306
440.9830, 328.1895
442.1730, 345.5479
443.3620, 268.9072
444.5520, 114.2661
445.7410, 184.6245
446.9300, 232.9824
448.1190, 304.3394
449.3080, 227.6953
450.4960, 234.0498
451.6850, 310.4048
452.8730, 419.7573
454.0610, 308.2842
455.2490, 426.7749
456.4370, 382.1836
457.6250, 294.9360
458.8130, 438.7017
460.0000, 457.3970
461.1870, 415.7402
462.3740, 332.0835
463.5610, 267.4614
464.7480, 277.9927
465.9340, 390.3340
467.1210, 414.6743
468.3070, 358.0747
469.4930, 410.4111
470.6790, 418.7456
471.8650, 395.0801
473.0510, 349.4097
474.2360, 392.7358
475.4210, 298.0596
476.6070, 180.3794
477.7920, 197.6958
478.9770, 149.0093
480.1610, 24.68115
481.3460, 1.610352
482.5300, 45.09766
483.7140, 14.81885
484.8980, 31.45850
486.0820, 8.247559
487.2660, 38.95068
488.4500, 2.683105
489.6330, 37.58154
490.8160, 59.84473
492.0000, 90.12305
493.1830, 191.3965
494.3650, 253.6641
495.5480, 243.9287
496.7300, 312.1909
497.9130, 294.4570
499.0950, 184.7192
500.2770, 279.9785
501.4590, 223.6973
502.6410, 93.50439
503.8220, 178.7607
505.0030, 156.0098
506.1850, 54.28662
507.3660, 4.552734
508.5470, 92.81738
509.7270, 89.07324
510.9080, 200.3193
512.0880, 129.5664
513.2690, 155.8042
514.4490, 37.06152
515.6290, 14.32373
516.8090, 52.42871
517.9880, 12.79736
519.1680, 6.006836
520.3470, 20.19580
521.5260, 109.6050
522.7050, 54.48730
523.8840, 119.4214
525.0630, 38.55615
526.2410, 64.48047
527.4200, 51.56396
528.5980, 30.70117
529.7760, 101.8613
530.9540, 63.10254
532.1320, 172.4048
533.3090, 69.82568
534.4870, 156.3022
535.6640, 37.89014
536.8410, 4.524902
538.0180, 32.80859
539.1950, 17.87598
540.3710, 129.4038
541.5480, 242.6719
542.7240, 361.9502
543.9000, 271.2339
545.0760, 320.5044
546.2520, 294.7666
547.4280, 264.0381
548.6040, 323.3032
549.7790, 304.5581
550.9540, 275.8032
552.1290, 320.0347
553.3040, 438.2520
554.4790, 589.4556
555.6530, 659.6460
556.8280, 753.8213
558.0020, 854.9829
559.1760, 865.1299
560.3500, 828.7368
561.5240, 704.3999
562.6980, 642.5269
563.8710, 572.6387
565.0440, 446.7378
566.2170, 642.8213
567.3900, 615.8906
568.5630, 747.9443
569.7360, 697.9932
570.9090, 846.0269
572.0810, 825.0459
573.2530, 929.0498
574.4250, 860.0386
575.5970, 845.1997
576.7690, 638.9692
577.9400, 685.9121
579.1120, 537.8379
580.2830, 332.7490
581.4540, 306.6436
582.6250, 299.5229
583.7960, 234.3862
584.9660, 214.2339
586.1370, 198.9399
587.3070, 162.8799
588.4770, 191.6782
589.6470, 178.4609
590.8170, 209.1475
591.9870, 172.3364
593.1560, 199.7085
594.3260, 117.4243
595.4950, 126.1221
596.6640, 145.8018
597.8330, 79.46338
599.0010, 78.10449
600.1700, 86.72559
601.3380, 180.3257
602.5070, 226.9092
603.6750, 154.4751
604.8430, 118.0234
606.0100, 179.5527
607.1780, 261.0645
608.3450, 149.5586
609.5130, 202.0347
610.6800, 204.4927
611.8470, 164.9331
613.0140, 293.3560
614.1800, 347.7612
615.3470, 292.1479
616.5130, 427.5166
617.6790, 384.8672
618.8450, 393.2002
620.0110, 404.6606
621.1770, 553.3032
622.3420, 539.3477
623.5080, 674.6069
624.6730, 740.7139
625.8380, 865.8301
627.0030, 886.2446
628.1680, 907.7588
629.3320, 933.6401
630.4970, 896.1245
631.6610, 915.2129
632.8250, 931.1958
633.9890, 1003.789
635.1530, 1011.693
636.3160, 1056.419
637.4800, 1180.730
638.6430, 1245.406
639.8060, 1431.379
640.9690, 1540.176
642.1320, 1795.557
643.2950, 2012.498
644.4570, 2303.503
645.6200, 2348.594
646.7820, 2734.377
647.9440, 3100.833
649.1060, 3449.675
650.2670, 4010.475
651.4290, 4384.229
652.5900, 5166.188
653.7520, 5994.514
654.9130, 7133.873
656.0740, 8416.112
657.2340, 10177.14
658.3950, 11968.13
659.5550, 14025.96
660.7160, 15888.02
661.8760, 18199.54
663.0360, 20520.54
664.1960, 23253.21
665.3550, 26267.43
666.5150, 29191.48
667.6740, 31858.25
668.8330, 34241.88
669.9920, 34900.33
671.1510, 34022.34
672.3100, 32072.33
673.4680, 28940.70
674.6270, 25651.57
675.7850, 22181.34
676.9430, 19391.66
678.1010, 17296.40
679.2590, 15329.71
680.4160, 13602.03
681.5740, 12019.62
682.7310, 10311.98
683.8880, 9133.312
685.0450, 7708.370
686.2020, 6605.665
687.3580, 5580.300
688.5150, 4862.048
689.6710, 4214.881
690.8270, 3700.052
691.9830, 3281.193
693.1390, 2925.317
694.2950, 2615.930
695.4500, 2369.514
696.6050, 2210.585
697.7610, 1992.640
698.9160, 1954.637
700.0710, 1966.658
701.2250, 1638.622
702.3800, 1656.608
703.5340, 1660.620
704.6880, 1772.572
705.8420, 1656.506
706.9960, 1687.423
708.1500, 1811.409
709.3040, 1838.291
710.4570, 1925.157
711.6100, 1990.006
712.7640, 2058.837
713.9160, 2074.651
715.0690, 2081.449
716.2220, 2095.815
717.3740, 2062.994
718.5270, 2078.741
719.6790, 2043.473
720.8310, 2025.187
721.9830, 1787.885
723.1340, 1653.566
724.2860, 1618.231
725.4370, 1374.880
726.5880, 1389.513
727.7390, 1180.129
728.8900, 1201.730
730.0410, 1122.314
731.1910, 1051.882
732.3420, 957.4351
733.4920, 1017.798
734.6420, 971.1787
735.7920, 961.6240
736.9420, 1025.710
738.0910, 1010.766
739.2410, 1018.756
740.3900, 1066.319
741.5390, 986.7490
742.6880, 979.1284
743.8370, 908.3389
744.9860, 701.7241
746.1340, 650.0952
747.2820, 563.3892
748.4310, 371.7310
749.5790, 409.0586
750.7260, 284.3696
751.8740, 303.6685
753.0220, 261.9541
754.1690, 190.2251
755.3160, 141.4824
756.4630, 180.7261
757.6100, 65.95605
758.7570, 132.1714
759.9030, 82.38086
761.0500, 98.57910
762.1960, 113.7773
763.3420, 89.96973
764.4880, 104.1499
765.6340, 74.32129
766.7790, 5.492188
767.9250, 23.64111
769.0700, 55.22559
770.2150, 66.85059
771.3600, 30.91406
772.5050, 10.96289
773.6490, 13.99121
774.7940, 14.00000
775.9380, 12.97607
777.0820, 5.933594
778.2260, 8.130859
779.3700, 18.22363
780.5140, 111.6499
781.6570, 56.51221
782.8010, 111.6367
783.9440, 62.13281
785.0870, 34.10742
786.2300, 96.61572
787.3720, 92.32959
788.5150, 14.96631
789.6570, 23.70947
790.8000, 89.62598
791.9420, 48.02783
793.0840, 30.52734
794.2250, 95.92383
795.3670, 71.57617
796.5080, 30.07129
797.6500, 84.43750
798.7910, 15.99609
799.9320, 6.456543
801.0720, 38.92627
802.2130, 36.42725
803.3530, 41.07764
804.4940, 33.40625
805.6340, 67.09521
806.7740, 72.37061
807.9140, 6.865234
809.0530, 26.37598
810.1930, 28.06641
811.3320, 52.49316
812.4710, 4.904785
813.6100, 39.70410
814.7490, 31.31641
815.8880, 13.07324
817.0270, 36.53418
818.1650, 83.86328
819.3030, 65.31250
820.4410, 8.196777
821.5790, 14.29932
822.7170, 82.80957
823.8540, 25.36914
824.9920, 10.94727
826.1290, 13.53662
827.2660, 12.86328
828.4030, 47.25830
829.5400, 66.64941
830.6760, 30.03711
831.8130, 124.4214
832.9490, 39.80273
834.0850, 112.1807
835.2210, 40.44482
836.3570, 17.90869
837.4930, 57.74121
838.6280, 6.579102
839.7640, 1.103516
840.8990, 86.21094
842.0340, 70.52344
843.1690, 16.83350
844.3030, 47.85889
845.4380, 9.427734
846.5720, 116.7124
847.7060, 120.9961
848.8400, 157.2778
849.9740, 10.55957
851.1080, 67.83936
852.2420, 64.11865
853.3750, 153.3970
854.5080, 106.6753
855.6410, 99.95264
856.7740, 252.2305
857.9070, 203.5078
859.0400, 132.7847
860.1720, 423.0620
861.3040, 365.3398
862.4360, 249.6182
863.5680, 235.8970
864.7000, 198.1768
865.8320, 314.4575
866.9630, 155.7388
868.0950, 252.0220
869.2260, 191.3057
870.3570, 240.5928
871.4880, 235.8813
872.6180, 176.1724
873.7490, 223.4668
874.8790, 329.7651
876.0090, 223.0674
877.1390, 291.3726
878.2690, 362.6802
879.3990, 328.9976
880.5280, 248.3184
881.6580, 361.6416
882.7870, 294.9683
883.9160, 350.2983
885.0450, 188.6313
886.1740, 244.9683
887.3020, 285.3091
888.4310, 362.6528
889.5590, 277.0010
890.6870, 228.3525
891.8150, 217.7095
892.9430, 243.0693
894.0700, 298.2881
895.1980, 297.6572
896.3250, 381.9629
897.4520, 369.3413
898.5790, 386.7246
899.7060, 460.0898
900.8330, 513.4839
901.9590, 606.8066
903.0850, 410.9673
904.2120, 475.9370
905.3380, 586.3760
906.4630, 645.7397
907.5890, 810.9253
908.7150, 907.5654
909.8400, 875.3779
910.9650, 1027.592
912.0900, 896.4297
913.2150, 1000.960
914.3400, 992.6533
915.4640, 1086.752
916.5890, 902.3037
917.7130, 952.7793
918.8370, 862.1807
919.9610, 884.7397
921.0850, 809.1138
922.2080, 690.7617
923.3320, 675.4185
924.4550, 635.1460
925.5780, 720.6724
926.7010, 630.8403
927.8240, 676.6704
928.9460, 596.3008
930.0690, 722.2524
931.1910, 800.0625
932.3130, 796.7979
933.4350, 955.6650
934.5570, 1065.404
935.6790, 1187.073
936.8000, 1347.974
937.9220, 1553.882
939.0430, 1644.780
940.1640, 1728.732
941.2850, 1873.108
942.4050, 1618.139
943.5260, 1399.036
944.6460, 1418.034
945.7660, 1212.064
946.8860, 1114.143
948.0060, 1187.719
949.1260, 1109.820
950.2460, 1094.928
951.3650, 1051.141
952.4840, 1071.280
953.6030, 1102.168
954.7220, 1303.270
955.8410, 1317.396
956.9590, 1478.798
958.0780, 1811.956
959.1960, 1870.771
960.3140, 2147.469
961.4320, 2605.091
962.5500, 3000.371
963.6680, 3562.677
964.7850, 4245.995
965.9020, 4962.328
967.0190, 5995.677
968.1360, 7182.038
969.2530, 8718.413
970.3700, 10000.84
971.4860, 11610.24
972.6030, 13201.70
973.7190, 14603.13
974.8350, 15530.52
975.9510, 15869.98
977.0660, 15585.45
978.1820, 15084.94
979.2970, 14006.35
980.4130, 13226.86
981.5280, 12552.39
982.6420, 11984.93
983.7570, 11841.48
984.8720, 11463.05
985.9860, 11770.64
987.1000, 12112.23
988.2140, 12487.84
989.3280, 12849.47
990.4420, 13249.11
991.5560, 13654.76
992.6690, 14557.43
993.7820, 15335.12
994.8950, 16290.81
996.0080, 17454.52
997.1210, 19014.25
998.2340, 20107.99
999.3460, 21298.75
1000.458, 21681.53
1001.571, 21420.31
1002.683, 20743.11
1003.794, 19446.93
1004.906, 17528.76
1006.017, 15780.61
1007.129, 13939.47
1008.240, 12246.34
1009.351, 10659.23
1010.462, 9239.251
1011.572, 8093.166
1012.683, 7125.359
1013.793, 6097.305
1014.904, 5411.265
1016.014, 4799.238
1017.123, 4202.229
1018.233, 3966.230
1019.343, 3768.246
1020.452, 3486.277
1021.561, 3343.322
1022.670, 3317.382
1023.779, 3070.454
1024.888, 3119.541
1025.997, 2981.643
1027.105, 2778.758
1028.213, 2701.891
1029.321, 2484.037
1030.429, 2540.197
1031.537, 2240.371
1032.645, 2190.561
1033.752, 2008.784
1034.859, 1924.594
1035.966, 1792.824
1037.073, 1816.551
1038.180, 1560.816
1039.287, 1604.503
1040.393, 1514.818
1041.500, 1556.147
1042.606, 1460.849
1043.712, 1500.213
1044.818, 1437.599
1045.923, 1622.932
1047.029, 1768.235
1048.134, 1875.758
1049.239, 1836.879
1050.344, 1988.366
1051.449, 2066.756
1052.554, 1731.065
1053.658, 1569.854
1054.763, 1645.135
1055.867, 1391.722
1056.971, 1332.292
1058.075, 1156.548
1059.179, 1067.922
1060.282, 1079.233
1061.385, 774.5518
1062.489, 783.4453
1063.592, 749.1924
1064.695, 691.3486
1065.797, 685.8623
1066.900, 627.8271
1068.002, 611.0352
1069.105, 564.4443
1070.207, 557.2734
1071.309, 500.6641
1072.411, 481.6904
1073.512, 434.5771
1074.614, 380.5605
1075.715, 438.7295
1076.816, 338.7002
1077.917, 405.7422
1079.018, 388.7363
1080.118, 512.7539
1081.219, 399.7344
1082.319, 446.6924
1083.419, 408.4316
1084.519, 385.4082
1085.619, 307.7930
1086.719, 283.8057
1087.818, 353.8408
1088.918, 404.2861
1090.017, 298.3369
1091.116, 259.4180
1092.215, 185.5117
1093.314, 193.1797
1094.412, 250.2900
1095.510, 123.4053
1096.609, 207.6084
1097.707, 254.7969
1098.805, 165.4072
1099.902, 120.5410
1101.000, 198.6807
1102.097, 189.8232
1103.195, 141.9805
1104.292, 160.1406
1105.389, 148.5029
1106.485, 148.1270
1107.582, 158.6904
1108.678, 186.8809
1109.775, 197.0762
1110.871, 264.2744
1111.967, 310.4863
1113.062, 227.7021
1114.158, 273.9209
1115.254, 93.14160
1116.349, 54.36719
1117.444, 134.5938
1118.539, 214.8223
1119.634, 159.0557
1120.728, 216.6670
1121.823, 155.5293
1122.917, 212.7695
1124.011, 235.0127
1125.105, 207.2578
1126.199, 221.5049
1127.293, 152.7539
1128.386, 113.0049
1129.480, 107.2568
1130.573, 143.5117
1131.666, 98.76953
1132.759, 197.0264
1133.851, 68.28613
1134.944, 40.54590
1136.036, 166.8066
1137.129, 47.06934
1138.221, 67.33301
1139.313, 235.5967
1140.404, 35.86133
1141.496, 6.873047
1142.587, 49.39062
1143.678, 36.34375
1144.770, 55.90918
1145.860, 16.16211
1146.951, 101.4150
1148.042, 194.6689
1149.132, 105.9209
1150.223, 32.17285
1151.313, 69.42480
1152.403, 61.67676
1153.492, 128.9277
1154.582, 66.17773
1155.671, 4.427734
1156.761, 32.67578
1157.850, 40.00391
1158.939, 25.43555
1160.028, 35.71973
1161.116, 35.29102
1162.205, 15.53418
1163.293, 32.89941
1164.381, 1.139648
1165.469, 12.77246
1166.557, 22.60645
1167.645, 74.16602
1168.732, 12.02051
1169.820, 39.58203
1170.907, 19.36328
1171.994, 32.52051
1173.081, 21.32617
1174.167, 51.81152
1175.254, 1.946289
1176.340, 164.0762
1177.426, 142.2012
1178.512, 0.6757810
1179.598, 85.56055
1180.684, 58.50293
1181.770, 81.43945
1182.855, 23.43262
1183.940, 45.44629
1185.025, 20.49414
1186.110, 43.43848
1187.195, 39.63379
1188.280, 49.73730
1189.364, 66.87695
1190.448, 1.063477
1191.532, 0.2626950
1192.616, 88.47266
1193.700, 76.25781
1194.784, 91.01758
1195.867, 48.35254
1196.950, 22.72754
1198.034, 10.12793
1199.117, 76.54785
1200.199, 54.97754
1201.282, 27.50098
1202.364, 21.00977
1203.447, 34.45410
1204.529, 18.91309
1205.611, 12.36328
1206.693, 27.13086
1207.774, 18.23926
1208.856, 28.66504
1209.937, 26.08301
1211.018, 37.49512
1212.099, 142.9990
1213.180, 4.397461
1214.261, 69.77930
1215.341, 68.84570
1216.422, 60.47656
1217.502, 76.79102
1218.582, 14.09766
1219.662, 154.3936
1220.742, 79.68164
1221.821, 122.9629
1222.900, 37.76465
1223.980, 119.4697
1225.059, 91.69629
1226.138, 34.91602
1227.216, 40.12598
1228.295, 15.32812
1229.373, 68.51660
1230.452, 118.6982
1231.530, 135.2627
1232.608, 144.4160
1233.685, 180.1963
1234.763, 159.3447
1235.840, 115.5234
1236.918, 192.6572
1237.995, 130.7822
1239.072, 140.8994
1240.149, 253.0078
1241.225, 144.1094
1242.302, 206.2070
1243.378, 211.2959
1244.454, 205.3770
1245.530, 173.4521
1246.606, 246.5215
1247.681, 99.58496
1248.757, 288.6377
1249.832, 81.68262
1250.907, 181.7314
1251.982, 150.7783
1253.057, 158.8105
1254.132, 249.8359
1255.206, 343.8506
1256.281, 128.8574
1257.355, 134.8564
1258.429, 107.8682
1259.503, 182.8711
1260.576, 10.86621
1261.650, 229.8438
1262.723, 190.8105
1263.797, 175.7705
1264.870, 337.7217
1265.942, 487.6631
1267.015, 197.5967
1268.088, 290.5234
1269.160, 360.4414
1270.232, 347.3516
1271.304, 369.1133
1272.376, 289.0303
1273.448, 303.6562
1274.520, 289.5332
1275.591, 217.4004
1276.662, 213.2588
1277.733, 229.1123
1278.804, 185.9541
1279.875, 151.7871
1280.946, 212.6123
1282.016, 148.4297
1283.086, 171.2383
1284.156, 152.0391
1285.226, 337.8311
1286.296, 59.89160
1287.366, 25.66699
1288.435, 209.4287
1289.505, 196.2373
1290.574, 278.9814
1291.643, 50.71680
1292.711, 260.4424
1293.780, 86.13770
1294.849, 194.2520
1295.917, 403.0811
1296.985, 288.2959
1298.053, 250.9775
1299.121, 211.2656
1300.189, 244.9307
1301.256, 145.5850
1302.323, 239.8770
1303.391, 169.5156
1304.458, 205.0654
1305.524, 134.6875
1306.591, 210.3008
1307.658, 399.6250
1308.724, 360.6064
1309.790, 303.2031
1310.856, 234.3643
1311.922, 351.1230
1312.988, 237.4580
1314.053, 295.3203
1315.119, 451.8789
1316.184, 250.4590
1317.249, 369.3662
1318.314, 264.1602
1319.379, 369.0488
1320.443, 330.9521
1321.508, 238.2822
1322.572, 421.7930
1323.636, 361.8965
1324.700, 318.6465
1325.764, 115.9746
1326.827, 156.0654
1327.891, 318.9580
1328.954, 313.4297
1330.017, 97.34473
1331.080, 159.6426
1332.143, 58.08105
1333.205, 146.4502
1334.268, 132.6367
1335.330, 117.0244
1336.392, 187.3467
1337.454, 53.72656
1338.516, 120.0898
1339.578, 0.4931640
1340.639, 109.9248
1341.701, 97.57910
1342.762, 103.0146
1343.823, 106.0254
1344.883, 119.4473
1345.944, 128.8652
1347.005, 82.87891
1348.065, 115.8018
1349.125, 109.7041
1350.185, 147.1133
1351.245, 152.9521
1352.305, 174.3574
1353.364, 108.7588
1354.424, 70.07910
1355.483, 76.41406
1356.542, 142.3320
1357.601, 168.7256
1358.659, 148.1191
1359.718, 189.5107
1360.776, 102.8994
1361.834, 126.2871
1362.893, 5.672852
1363.950, 94.05664
1365.008, 61.43945
1366.066, 195.8203
1367.123, 312.2002
1368.180, 80.66211
1369.237, 215.0459
1370.294, 225.5625
1371.351, 90.10742
1372.408, 41.58984
1373.464, 71.02637
1374.520, 169.3965
1375.576, 195.7646
1376.632, 208.1318
1377.688, 131.5527
1378.744, 17.91895
1379.799, 165.3555
1380.854, 71.72070
1381.910, 142.0859
1382.965, 283.5361
1384.019, 22.90137
1385.074, 182.3506
1386.128, 124.7158
1387.183, 174.0811
1388.237, 175.4453
1389.291, 110.9961
1390.345, 229.3779
1391.398, 147.7471
1392.452, 333.1152
1393.505, 244.4854
1394.558, 80.29980
1395.611, 204.6729
1396.664, 124.2803
1397.717, 91.66699
1398.769, 132.0449
1399.822, 105.4248
1400.874, 76.81250
1401.926, 41.20215
1402.978, 149.5938
1404.029, 23.98828
1405.081, 66.38477
1406.132, 164.7832
1407.183, 33.18555
1408.234, 70.62305
1409.285, 53.03125
1410.336, 141.4424
1411.387, 172.8555
1412.437, 7.741211
1413.487, 93.80957
1414.537, 237.6514
1415.587, 12.04297
1416.637, 118.3955
1417.686, 86.74805
1418.736, 123.9805
1419.785, 44.33594
1420.834, 110.6152
1421.883, 1.101563
1422.932, 66.17578
1423.980, 96.47363
1425.029, 30.76367
1426.077, 173.0576
1427.125, 135.3496
1428.173, 241.6396
1429.221, 140.9326
1430.269, 148.2246
1431.316, 139.5137
1432.363, 146.5654
1433.410, 157.0742
1434.457, 232.3428
1435.504, 266.6445
1436.551, 333.9932
1437.597, 327.2930
1438.644, 372.9502
1439.690, 407.9219
1440.736, 424.2510
1441.781, 503.5781
1442.827, 526.9668
1443.873, 551.5840
1444.918, 577.1426
1445.963, 590.9639
1447.008, 586.2148
1448.053, 611.4775
1449.098, 604.7129
1450.142, 687.2266
1451.186, 736.4521
1452.231, 759.8730
1453.275, 801.7314
1454.319, 800.5059
1455.362, 841.4121
1456.406, 754.0605
1457.449, 762.7139
1458.492, 663.3721
1459.535, 742.0332
1460.578, 659.5918
1461.621, 650.2666
1462.663, 555.9932
1463.706, 633.7266
1464.748, 483.4668
1465.790, 453.2275
1466.832, 504.0107
1467.874, 338.7998
1468.915, 496.5996
1469.957, 235.4072
1470.998, 330.2207
1472.039, 308.9971
1473.080, 356.8223
1474.121, 355.0645
1475.161, 323.5000
1476.202, 336.3105
1477.242, 266.1377
1478.282, 264.9707
1479.322, 274.7715
1480.362, 361.5879
1481.401, 246.4092
1482.441, 200.2109
1483.480, 319.9922
1484.519, 415.7910
1485.558, 147.5967
1486.597, 229.4102
1487.636, 112.2266
1488.674, 312.0479
1489.712, 165.8770
1490.751, 121.7148
1491.788, 174.5557
1492.826, 29.41113
1493.864, 11.72656
1494.901, 17.14551
1495.939, 13.60742
1496.976, 25.40527
1498.013, 11.69141
1499.050, 69.22266
1500.086, 108.1494
1501.123, 134.8818
1502.159, 42.16406
1503.195, 221.8057
1504.231, 39.79199
1505.267, 139.7949
1506.303, 66.81543
1507.338, 38.83984
1508.374, 63.86621
1509.409, 72.08789
1510.444, 155.9756
1511.479, 184.0586
1512.514, 86.15820
1513.548, 24.28223
1514.583, 61.42871
1515.617, 152.5967
1516.651, 104.7969
1517.685, 144.0186
1518.718, 8.254883
1519.752, 107.5098
1520.785, 24.78125
1521.819, 69.06934
1522.852, 178.3711
1523.885, 233.6885
1524.917, 103.0215
1525.950, 314.3701
1526.982, 155.7344
1528.015, 227.1172
1529.047, 129.5156
1530.079, 230.9355
1531.110, 145.3770
1532.142, 74.84082
1533.173, 144.3291
1534.205, 166.8428
1535.236, 223.3818
1536.267, 311.7285
1537.298, 41.30273
1538.328, 108.1787
1539.359, 144.6377
1540.389, 150.1221
1541.419, 201.1074
1542.449, 166.3291
1543.479, 217.2520
1544.508, 212.0205
1545.538, 119.3936
1546.567, 258.1904
1547.596, 141.6904
1548.625, 157.2686
1549.654, 195.5518
1550.683, 147.6777
1551.711, 238.7451
1552.740, 196.6963
1553.768, 168.5098
1554.796, 177.1641
1555.824, 255.4453
1556.851, 87.68457
1557.879, 241.4736
1558.906, 18.45215
1559.933, 52.92383
1560.960, 107.0684
1561.987, 139.1699
1563.014, 178.2354
1564.041, 115.4004
1565.067, 72.57617
1566.093, 60.75391
1567.119, 198.0010
1568.145, 212.4902
1569.171, 145.0459
1570.196, 164.2588
1571.222, 73.48828
1572.247, 142.1152
1573.272, 0.1328130
1574.297, 118.2324
1575.322, 0.8310550
1576.346, 76.77246
1577.371, 0.0000000E+00
##END=



