##NAMES=Shortite
##RRUFFID=R040184
##IDEAL CHEMISTRY=Na_2_Ca_2_(CO_3_)_3_
##LOCALITY=Green River, Wyoming, USA
##OWNER=RRUFF
##SOURCE=University of Arizona Mineral Museum
##DESCRIPTION=Colorless single crystal fragments
##STATUS=The identification of this mineral has been confirmed by X-ray diffraction and chemical analysis
##URL=rruff.info/R040184
##MEASURED CHEMISTRY=(Na_1.47_Ca_0.27_[box]_0.26_)_Î£=2_Ca_2.00_(CO_3_)_3_
##PIN_ID=L00388
##ORIENTATION=Laser parallel to -c* (0 0 -1). Fiducial mark perpendicular to laser is parallel to a [1 0 0]
114.726, 0.000
116.123, 0.212
117.519, 135.950
118.915, 65.018
120.311, 107.742
121.706, 10.269
123.102, 121.247
124.497, 23.774
125.892, 34.940
127.286, 112.468
128.681, 89.150
130.075, 264.820
131.469, 159.345
132.862, 426.615
134.256, 566.539
135.649, 752.045
137.042, 1018.072
138.435, 1110.567
139.827, 1158.493
141.219, 754.809
142.611, 696.481
144.003, 452.479
145.394, 371.770
146.786, 403.326
148.177, 375.126
149.567, 635.152
150.958, 693.383
152.348, 972.809
153.738, 1054.424
155.128, 1191.218
156.517, 1063.181
157.907, 823.296
159.296, 767.547
160.685, 421.953
162.073, 470.503
163.462, 429.229
164.850, 401.057
166.237, 467.979
167.625, 479.999
169.012, 655.167
170.400, 651.397
171.786, 760.701
173.173, 615.064
174.559, 484.481
175.946, 414.961
177.332, 267.490
178.717, 296.065
180.103, 136.716
181.488, 238.424
182.873, 186.167
184.258, 252.944
185.642, 234.754
187.026, 112.601
188.410, 339.572
189.794, 245.665
191.178, 369.807
192.561, 355.993
193.944, 472.304
195.327, 722.619
196.709, 736.021
198.092, 1125.418
199.474, 1148.777
200.856, 1518.128
202.237, 1652.474
203.618, 1526.806
205.000, 1518.134
206.380, 1106.408
207.761, 945.797
209.142, 532.214
210.522, 498.915
211.902, 375.325
213.281, 235.995
214.661, 182.444
216.040, 113.860
217.419, 228.807
218.798, 107.228
220.176, 64.320
221.554, 192.205
222.932, 46.607
224.310, 183.037
225.688, 6.492
227.065, 191.401
228.442, 156.906
229.819, 82.428
231.196, 236.954
232.572, 102.489
233.948, 362.034
235.324, 226.958
236.700, 369.510
238.075, 338.065
239.450, 315.625
240.825, 302.189
242.200, 193.754
243.574, 399.717
244.948, 286.271
246.322, 313.532
247.696, 314.087
249.070, 296.645
250.443, 504.204
251.816, 441.763
253.189, 687.323
254.561, 709.890
255.933, 914.485
257.306, 1292.055
258.677, 1552.180
260.049, 2273.151
261.420, 2805.901
262.791, 3505.686
264.162, 3869.702
265.533, 3818.188
266.903, 3480.736
268.274, 2619.754
269.643, 2004.226
271.013, 1393.034
272.383, 979.468
273.752, 741.878
275.121, 592.283
276.490, 516.393
277.858, 270.870
279.226, 363.401
280.595, 269.767
281.962, 255.040
283.330, 231.557
284.697, 110.143
286.064, 263.163
287.431, 82.703
288.798, 169.567
290.164, 133.501
291.530, 40.498
292.896, 160.785
294.262, 36.897
295.627, 140.296
296.993, 34.507
298.358, 151.722
299.722, 98.571
301.087, 26.865
302.451, 123.486
303.815, 39.167
305.179, 222.198
306.543, 53.748
307.906, 84.160
309.269, 156.633
310.632, 7.920
311.995, 107.541
313.357, 0.983
314.719, 54.507
316.081, 49.213
317.443, 13.273
318.804, 142.398
320.166, 10.929
321.527, 156.470
322.887, 26.034
324.248, 15.410
325.608, 141.576
326.968, 40.859
328.328, 198.704
329.688, 28.382
331.047, 102.951
332.406, 71.522
333.765, 50.097
335.124, 129.764
336.482, 9.976
337.840, 198.603
339.198, 88.121
340.556, 87.699
341.913, 232.222
343.271, 83.801
344.628, 188.380
345.984, 25.046
347.341, 106.623
348.697, 108.261
350.053, 58.835
351.409, 154.408
352.765, 6.712
354.120, 163.852
355.475, 155.717
356.830, 161.292
358.185, 119.863
359.539, 73.586
360.894, 166.148
362.248, 10.032
363.601, 133.585
364.955, 104.134
366.308, 36.678
367.661, 125.216
369.014, 19.159
370.367, 126.357
371.719, 63.903
373.071, 80.431
374.423, 91.942
375.775, 7.953
377.126, 175.542
378.478, 46.385
379.828, 92.868
381.179, 55.342
382.530, 55.983
383.880, 110.442
385.230, 57.035
386.580, 148.470
387.929, 25.897
389.279, 109.820
390.628, 109.233
391.977, 31.521
393.325, 199.920
394.674, 20.448
396.022, 73.955
397.370, 155.331
398.718, 1.018
400.065, 174.338
401.413, 55.116
402.760, 97.738
404.106, 6.054
405.453, 62.710
406.799, 204.001
408.146, 37.467
409.491, 160.792
410.837, 40.957
412.182, 52.385
413.528, 82.605
414.873, 30.850
416.217, 131.055
417.562, 11.749
418.906, 170.070
420.250, 58.243
421.594, 68.575
422.938, 237.709
424.281, 83.167
425.624, 232.275
426.967, 51.327
428.310, 76.587
429.652, 170.623
430.994, 80.642
432.336, 273.725
433.678, 59.301
435.020, 188.558
436.361, 35.496
437.702, 76.425
439.043, 288.525
440.383, 29.416
441.724, 256.423
443.064, 66.318
444.404, 68.208
445.743, 174.336
447.083, 19.784
448.422, 105.356
449.761, 92.210
451.100, 117.094
452.438, 98.933
453.777, 22.766
455.115, 222.373
456.453, 79.813
457.790, 194.069
459.128, 103.779
460.465, 12.512
461.802, 222.481
463.139, 32.803
464.475, 197.026
465.811, 87.379
467.147, 45.038
468.483, 276.146
469.819, 76.803
471.154, 272.449
472.489, 113.930
473.824, 200.554
475.159, 181.686
476.493, 42.290
477.827, 278.970
479.161, 56.223
480.495, 241.790
481.829, 186.626
483.162, 90.172
484.495, 216.792
485.828, 21.887
487.161, 337.393
488.493, 107.574
489.825, 69.059
491.157, 308.530
492.489, 27.011
493.820, 220.411
495.151, 77.129
496.482, 13.526
497.813, 207.921
499.144, 25.713
500.474, 305.624
501.804, 7.154
503.134, 148.457
504.464, 203.012
505.793, 82.290
507.123, 311.559
508.451, 5.232
509.780, 285.465
511.109, 211.888
512.437, 33.095
513.765, 253.030
515.093, 42.133
516.421, 269.310
517.748, 202.046
519.075, 75.197
520.402, 250.333
521.729, 36.693
523.055, 330.798
524.382, 138.169
525.708, 175.250
527.034, 277.316
528.359, 94.792
529.685, 211.736
531.010, 118.280
532.335, 312.306
533.659, 194.323
534.984, 26.324
536.308, 215.743
537.632, 40.714
538.956, 237.667
540.279, 239.606
541.603, 83.531
542.926, 294.439
544.249, 89.333
545.571, 326.210
546.894, 166.074
548.216, 32.242
549.538, 309.072
550.860, 16.888
552.181, 354.680
553.503, 96.458
554.824, 100.199
556.145, 283.946
557.465, 6.680
558.786, 184.911
560.106, 83.603
561.426, 28.399
562.746, 220.056
564.065, 44.507
565.385, 379.131
566.704, 11.259
568.023, 240.717
569.341, 213.343
570.660, 97.890
571.978, 248.487
573.296, 118.070
574.614, 128.983
575.931, 295.537
577.248, 18.769
578.565, 206.493
579.882, 2.997
581.199, 163.768
582.515, 195.233
583.831, 34.934
585.147, 266.367
586.463, 70.766
587.779, 271.585
589.094, 168.973
590.409, 106.498
591.724, 396.858
593.038, 2.575
594.353, 252.363
595.667, 274.557
596.981, 18.150
598.295, 334.112
599.608, 91.200
600.922, 347.983
602.235, 256.189
603.547, 68.528
604.860, 303.735
606.172, 56.602
607.485, 313.854
608.797, 117.015
610.108, 173.229
611.420, 305.490
612.731, 26.630
614.042, 302.825
615.353, 90.648
616.664, 207.697
617.974, 315.738
619.284, 62.178
620.594, 410.782
621.904, 84.478
623.213, 183.456
624.523, 321.748
625.832, 9.459
627.141, 353.443
628.449, 132.316
629.758, 178.217
631.066, 233.356
632.374, 14.228
633.681, 355.499
634.989, 105.135
636.296, 334.956
637.603, 234.969
638.910, 59.776
640.217, 414.128
641.523, 106.886
642.829, 195.646
644.135, 336.208
645.441, 60.938
646.747, 310.314
648.052, 131.908
649.357, 343.600
650.662, 299.666
651.967, 52.328
653.271, 473.271
654.575, 50.252
655.879, 203.864
657.183, 251.995
658.486, 76.580
659.790, 374.406
661.093, 61.960
662.396, 277.502
663.698, 259.434
665.001, 26.946
666.303, 354.391
667.605, 78.251
668.907, 267.736
670.209, 215.473
671.510, 48.069
672.811, 332.054
674.112, 9.631
675.413, 316.008
676.713, 226.606
678.013, 72.953
679.313, 425.959
680.613, 63.972
681.913, 355.271
683.212, 221.580
684.511, 28.874
685.810, 362.060
687.109, 72.677
688.407, 329.517
689.706, 292.662
691.004, 285.860
692.302, 727.446
693.599, 819.334
694.897, 1365.139
696.194, 1111.298
697.491, 571.511
698.788, 711.467
700.084, 150.582
701.380, 386.529
702.677, 233.619
703.972, 57.790
705.268, 548.350
706.564, 219.408
707.859, 627.557
709.154, 990.573
710.449, 1236.688
711.743, 1452.554
713.037, 708.822
714.332, 863.498
715.626, 1069.445
716.919, 665.420
718.213, 630.824
719.506, 301.745
720.799, 268.303
722.092, 412.197
723.384, 85.644
724.677, 493.519
725.969, 119.380
727.261, 303.261
728.553, 365.106
729.844, 48.252
731.136, 433.065
732.427, 114.863
733.718, 96.016
735.008, 399.788
736.299, 74.930
737.589, 420.671
738.879, 80.398
740.169, 278.812
741.458, 327.535
742.748, 45.240
744.037, 498.932
745.326, 108.608
746.614, 290.446
747.903, 336.094
749.191, 32.835
750.479, 456.471
751.767, 156.093
753.055, 265.955
754.342, 411.551
755.629, 55.996
756.916, 342.730
758.203, 108.246
759.490, 158.338
760.776, 353.826
762.062, 1.023
763.348, 364.555
764.634, 129.962
765.919, 115.642
767.204, 601.059
768.489, 53.678
769.774, 309.515
771.059, 224.786
772.343, 170.466
773.627, 315.841
774.911, 9.045
776.195, 296.493
777.479, 161.679
778.762, 67.004
780.045, 412.549
781.328, 63.617
782.611, 271.873
783.893, 317.100
785.175, 82.314
786.457, 487.514
787.739, 42.157
789.021, 407.457
790.302, 262.525
791.583, 57.670
792.864, 435.824
794.145, 10.659
795.425, 195.759
796.706, 310.759
797.986, 85.833
799.266, 440.901
800.545, 5.671
801.825, 240.700
803.104, 285.718
804.383, 50.723
805.662, 355.782
806.940, 50.463
808.219, 135.437
809.497, 310.181
810.775, 24.865
812.053, 320.067
813.330, 94.782
814.608, 219.692
815.885, 225.901
817.162, 9.200
818.438, 495.671
819.715, 282.647
820.991, 57.503
822.267, 434.264
823.543, 40.910
824.818, 343.875
826.094, 175.144
827.369, 99.905
828.644, 454.375
829.919, 49.111
831.193, 313.855
832.468, 248.638
833.742, 3.360
835.016, 457.788
836.289, 207.625
837.563, 172.309
838.836, 316.980
840.109, 48.359
841.382, 480.752
842.654, 0.714
843.927, 205.296
845.199, 340.058
846.471, 4.620
847.743, 369.184
849.014, 217.254
850.286, 131.798
851.557, 316.332
852.828, 150.856
854.099, 465.370
855.369, 260.883
856.639, 125.374
857.909, 519.538
859.179, 144.252
860.449, 448.715
861.718, 293.174
862.988, 87.623
864.257, 422.059
865.525, 76.654
866.794, 281.068
868.062, 335.479
869.331, 89.879
870.599, 394.268
871.866, 198.649
873.134, 163.021
874.401, 557.383
875.668, 238.266
876.935, 485.703
878.202, 239.921
879.468, 114.020
880.735, 538.216
882.001, 62.403
883.267, 416.173
884.532, 220.341
885.798, 274.371
887.063, 598.316
888.328, 12.489
889.593, 356.362
890.857, 380.517
892.122, 134.395
893.386, 598.531
894.650, 92.662
895.913, 236.369
897.177, 500.480
898.440, 84.451
899.703, 538.561
900.966, 202.663
902.229, 246.296
903.491, 480.386
904.754, 34.471
906.016, 508.552
907.278, 212.623
908.539, 92.140
909.801, 446.196
911.062, 69.898
912.323, 284.103
913.584, 368.095
914.844, 121.006
916.105, 524.983
917.365, 78.885
918.625, 172.718
919.885, 396.671
921.144, 30.250
922.404, 504.196
923.663, 68.134
924.922, 212.062
926.180, 505.982
927.439, 88.299
928.697, 492.205
929.955, 336.104
931.213, 79.673
932.471, 663.555
933.728, 72.461
934.985, 506.330
936.242, 350.192
937.499, 153.797
938.756, 557.645
940.012, 101.069
941.269, 194.904
942.525, 508.737
943.780, 47.792
945.036, 486.000
946.291, 299.225
947.546, 253.003
948.801, 616.779
950.056, 130.306
951.311, 434.067
952.565, 307.172
953.819, 190.925
955.073, 554.672
956.327, 118.021
957.580, 421.752
958.834, 375.090
960.087, 108.777
961.339, 562.882
962.592, 234.125
963.845, 237.831
965.097, 521.353
966.349, 24.953
967.601, 521.133
968.852, 323.312
970.104, 43.022
971.355, 571.011
972.606, 35.720
973.857, 367.893
975.107, 307.922
976.358, 31.521
977.608, 545.127
978.858, 58.547
980.108, 192.141
981.357, 370.099
982.607, 63.694
983.856, 317.464
985.105, 400.479
986.353, 85.939
987.602, 548.247
988.850, 31.771
990.098, 255.288
991.346, 194.849
992.594, 91.611
993.841, 480.943
995.089, 84.446
996.336, 247.953
997.583, 545.432
998.829, 61.073
1000.076, 632.384
1001.322, 336.584
1002.568, 280.038
1003.814, 613.573
1005.060, 12.987
1006.305, 410.453
1007.550, 324.566
1008.795, 77.996
1010.040, 571.405
1011.285, 165.532
1012.529, 258.972
1013.773, 602.153
1015.017, 95.578
1016.261, 638.720
1017.505, 302.897
1018.748, 296.319
1019.991, 839.501
1021.234, 153.349
1022.477, 506.759
1023.719, 570.160
1024.962, 213.556
1026.204, 751.134
1027.446, 136.646
1028.688, 340.026
1029.929, 613.276
1031.170, 187.240
1032.411, 570.264
1033.652, 374.289
1034.893, 197.652
1036.134, 661.013
1037.374, 192.063
1038.614, 544.855
1039.854, 488.240
1041.094, 191.857
1042.333, 815.186
1043.572, 329.319
1044.811, 392.892
1046.050, 786.286
1047.289, 143.739
1048.527, 786.869
1049.766, 570.553
1051.004, 424.435
1052.241, 927.822
1053.479, 282.157
1054.717, 495.092
1055.954, 838.474
1057.191, 392.856
1058.428, 736.045
1059.664, 689.437
1060.901, 688.478
1062.137, 1351.850
1063.373, 875.820
1064.609, 1599.149
1065.844, 2332.543
1067.080, 3776.194
1068.315, 10449.571
1069.550, 17972.938
1070.785, 17625.979
1072.019, 10019.332
1073.254, 3842.734
1074.488, 2456.086
1075.722, 1769.429
1076.955, 1103.269
1078.189, 1616.604
1079.422, 1099.927
1080.656, 1503.113
1081.889, 1856.420
1083.121, 1629.646
1084.354, 3032.976
1085.586, 5126.291
1086.818, 15189.903
1088.050, 41443.203
1089.282, 45196.367
1090.514, 24980.697
1091.745, 8973.969
1092.976, 3484.715
1094.207, 2417.964
1095.438, 1311.205
1096.668, 895.716
1097.899, 1248.932
1099.129, 342.131
1100.359, 916.230
1101.588, 829.484
1102.818, 192.730
1104.047, 1025.967
1105.276, 289.135
1106.505, 633.064
1107.734, 746.267
1108.962, 79.361
1110.191, 513.893
1111.419, 227.070
1112.647, 170.234
1113.874, 633.903
1115.102, 44.483
1116.329, 399.146
1117.556, 632.646
1118.783, 83.248
1120.010, 678.139
1121.236, 319.124
1122.463, 282.217
1123.689, 825.316
1124.914, 187.996
1126.140, 431.438
1127.366, 774.202
1128.591, 82.753
1129.816, 763.555
1131.041, 146.240
1132.266, 159.197
1133.490, 853.516
1134.714, 31.301
1135.938, 594.829
1137.162, 587.547
1138.386, 180.425
1139.609, 846.392
1140.833, 283.898
1142.056, 186.755
1143.279, 847.572
1144.501, 79.604
1145.724, 673.532
1146.946, 492.852
1148.168, 5.586
1149.390, 840.891
1150.612, 183.587
1151.833, 406.266
1153.054, 761.751
1154.275, 24.392
1155.496, 747.599
1156.717, 500.974
1157.937, 43.553
1159.158, 702.990
1160.378, 275.526
1161.598, 338.042
1162.817, 715.049
1164.037, 47.526
1165.256, 669.978
1166.475, 523.986
1167.694, 126.400
1168.913, 849.805
1170.131, 242.233
1171.349, 364.581
1172.567, 748.714
1173.785, 28.915
1175.003, 753.414
1176.220, 348.031
1177.438, 100.312
1178.655, 852.867
1179.872, 86.564
1181.088, 468.771
1182.305, 651.828
1183.521, 115.925
1184.737, 636.144
1185.953, 279.040
1187.169, 201.061
1188.384, 713.054
1189.599, 95.788
1190.814, 177.727
1192.029, 520.230
1193.244, 47.884
1194.459, 583.938
1195.673, 213.863
1196.887, 165.631
1198.101, 837.365
1199.314, 64.093
1200.528, 305.766
1201.741, 947.411
1202.954, 49.955
1204.167, 701.536
1205.380, 636.796
1206.592, 178.321
1207.805, 849.832
1209.017, 171.385
1210.229, 332.834
1211.440, 854.570
1212.652, 186.835
1213.863, 808.192
1215.074, 530.465
1216.285, 281.763
1217.496, 893.031
1218.707, 239.433
1219.917, 630.637
1221.127, 861.812
1222.337, 154.514
1223.547, 765.621
1224.756, 336.726
1225.966, 299.102
1227.175, 1030.117
1228.384, 295.231
1229.592, 476.992
1230.801, 877.919
1232.009, 260.320
1233.217, 751.185
1234.425, 742.011
1235.633, 84.018
1236.841, 1084.794
1238.048, 215.554
1239.255, 376.391
1240.462, 917.115
1241.669, 57.821
1242.876, 708.500
1244.082, 619.159
1245.288, 156.262
1246.494, 956.868
1247.700, 357.455
1248.906, 510.134
1250.111, 1000.666
1251.316, 191.175
1252.521, 931.760
1253.726, 632.223
1254.931, 73.711
1256.135, 1074.105
1257.339, 424.473
1258.543, 266.613
1259.747, 1056.910
1260.951, 264.785
1262.154, 295.691
1263.357, 835.879
1264.560, 45.645
1265.763, 766.012
1266.966, 396.104
1268.168, 387.117
1269.371, 1127.115
1270.573, 297.090
1271.775, 547.396
1272.976, 777.281
1274.178, 2.375
1275.379, 922.189
1276.580, 421.789
1277.781, 91.396
1278.982, 1201.105
1280.182, 240.141
1281.383, 329.801
1282.583, 779.365
1283.783, 8.857
1284.982, 769.467
1286.182, 458.883
1287.381, 71.803
1288.580, 897.910
1289.779, 302.428
1290.978, 371.602
1292.177, 861.086
1293.375, 19.373
1294.573, 709.223
1295.771, 638.088
1296.969, 2.998
1298.166, 825.883
1299.364, 253.908
1300.561, 152.664
1301.758, 1121.387
1302.955, 50.643
1304.151, 457.934
1305.348, 826.463
1306.544, 15.037
1307.740, 593.400
1308.936, 711.055
1310.132, 79.424
1311.327, 838.426
1312.522, 156.133
1313.717, 384.213
1314.912, 812.688
1316.107, 60.688
1317.301, 518.627
1318.496, 724.277
1319.690, 32.008
1320.884, 829.676
1322.077, 326.709
1323.271, 94.273
1324.464, 822.131
1325.657, 189.596
1326.850, 377.008
1328.043, 806.676
1329.235, 116.008
1330.428, 801.219
1331.620, 498.139
1332.812, 114.750
1334.004, 922.391
1335.195, 248.967
1336.387, 395.869
1337.578, 948.766
1338.769, 74.428
1339.960, 752.014
1341.150, 608.203
1342.341, 25.166
1343.531, 1010.457
1344.721, 436.957
1345.911, 163.410
1347.100, 948.799
1348.290, 4.850
1349.479, 451.445
1350.668, 757.211
1351.857, 106.596
1353.046, 838.951
1354.234, 305.400
1355.422, 171.432
1356.610, 996.887
1357.798, 153.111
1358.986, 398.998
1360.174, 1054.725
1361.361, 29.451
1362.548, 845.994
1363.735, 732.057
1364.922, 67.777
1366.108, 1212.754
1367.295, 368.785
1368.481, 94.412
1369.667, 929.918
1370.853, 13.305
1372.038, 182.111
1373.224, 827.615
1374.409, 74.723
1375.594, 759.520
1376.779, 652.605
1377.963, 110.355
1379.148, 888.596
1380.332, 587.314
1381.516, 354.666
1382.700, 972.352
1383.884, 410.789
1385.067, 549.172
1386.251, 1146.748
1387.434, 206.424
1388.617, 911.812
1389.799, 699.381
1390.982, 36.520
1392.164, 1252.535
1393.346, 400.479
1394.528, 358.371
1395.710, 1375.793
1396.892, 89.748
1398.073, 657.520
1399.254, 1083.617
1400.435, 129.746
1401.616, 1014.139
1402.797, 631.678
1403.977, 209.061
1405.157, 1135.902
1406.338, 489.982
1407.517, 317.268
1408.697, 1339.561
1409.877, 144.631
1411.056, 842.650
1412.235, 1239.629
1413.414, 270.248
1414.593, 1514.932
1415.771, 1370.305
1416.949, 1276.945
1418.128, 3001.078
1419.306, 1764.428
1420.483, 1520.590
1421.661, 1675.006
1422.838, 590.090
1424.016, 980.346
1425.193, 1256.688
1426.369, 86.410
1427.546, 1201.574
1428.723, 854.816
1429.899, 220.738
1431.075, 1248.490
1432.251, 402.752
1433.426, 232.314
1434.602, 1427.965
1435.777, 96.293
1436.952, 559.588
1438.127, 1013.236
1439.302, 298.512
1440.477, 1114.346
1441.651, 736.549
1442.825, 331.529
1443.999, 1423.984
1445.173, 359.326
1446.347, 621.078
1447.520, 1395.727
1448.693, 337.838
1449.866, 712.047
1451.039, 1366.312
1452.212, 120.428
1453.384, 1158.307
1454.557, 906.746
1455.729, 139.688
1456.901, 1192.205
1458.072, 591.381
1459.244, 315.221
1460.415, 1446.883
1461.586, 286.781
1462.757, 797.596
1463.928, 1056.387
1465.099, 2.414
1466.269, 1147.631
1467.439, 858.494
1468.609, 209.170
1469.779, 1519.625
1470.949, 410.035
1472.118, 576.896
1473.288, 1357.441
1474.457, 3.461
1475.625, 835.799
1476.794, 1153.262
1477.963, 143.660
1479.131, 873.883
1480.299, 1024.072
1481.467, 184.178
1482.635, 1234.230
1483.803, 644.039
1484.970, 350.600
1486.137, 1351.094
1487.304, 279.434
1488.471, 510.281
1489.638, 1421.682
1490.804, 173.186
1491.970, 779.234
1493.136, 1240.629
1494.302, 52.090
1495.468, 1073.826
1496.634, 879.965
1497.799, 71.146
1498.964, 1093.242
1500.129, 325.561
1501.294, 288.301
1502.458, 1321.568
1503.623, 75.250
1504.787, 559.508
1505.951, 1229.762
1507.115, 75.162
1508.279, 777.018
1509.442, 1003.883
1510.605, 5.229
1511.768, 1342.512
1512.931, 829.189
1514.094, 1.283
1515.257, 1338.822
1516.419, 0.000
##END=



