##NAMES=Sodalite
##RRUFFID=R060354
##IDEAL CHEMISTRY=Na_4_Si_3_Al_3_O_12_Cl
##LOCALITY=Koksha Valley, Badakshan Province, Afghanistan
##OWNER=RRUFF
##SOURCE=Herb Obodda
##DESCRIPTION=Pale purple transparent fragment
##STATUS=The identification of this mineral has been confirmed by X-ray diffraction and chemical analysis
##URL=rruff.info/R060354
##MEASURED CHEMISTRY=(Na_0.99_K_0.01_)_8_Al_6.00_Si_6.00_O_24_Cl_2.00_
##PIN_ID=L01562
##ORIENTATION=Laser parallel to a* (1 0 0). Fiducial mark perpendicular to laser is parallel to -c [0 0 -1]
61.44800, 42003.00
62.69200, 41947.00
63.93500, 42157.00
65.17800, 42442.00
66.42100, 42967.00
67.66400, 42816.00
68.90700, 42844.00
70.15000, 43001.00
71.39200, 43037.00
72.63400, 43089.00
73.87600, 43474.00
75.11800, 43604.00
76.36000, 43393.00
77.60100, 43552.00
78.84200, 43346.81
80.08400, 43848.16
81.32500, 44173.86
82.56500, 44333.32
83.80600, 43829.10
85.04600, 44181.92
86.28700, 44191.32
87.52700, 44186.55
88.76700, 44272.00
90.00600, 44337.00
91.24600, 44895.00
92.48500, 44872.00
93.72500, 45058.00
94.96400, 45066.00
96.20300, 44847.00
97.44100, 45249.00
98.68000, 45195.00
99.91800, 45138.00
101.1560, 45232.00
102.3940, 45396.00
103.6320, 45482.00
104.8700, 45627.00
106.1070, 46247.00
107.3450, 46192.00
108.5820, 46224.00
109.8190, 46301.00
111.0550, 46417.00
112.2920, 46386.00
113.5290, 46455.00
114.7650, 46426.00
116.0010, 46467.00
117.2370, 46310.00
118.4730, 46341.00
119.7080, 48040.00
120.9440, 50817.00
122.1790, 51420.00
123.4140, 49031.00
124.6490, 47300.00
125.8830, 47502.00
127.1180, 46722.00
128.3520, 46836.00
129.5870, 46894.00
130.8210, 47122.00
132.0540, 47359.00
133.2880, 47233.00
134.5220, 47318.00
135.7550, 47367.00
136.9880, 47543.00
138.2210, 47629.00
139.4540, 47846.00
140.6860, 47819.00
141.9190, 47819.00
143.1510, 47962.00
144.3830, 47959.00
145.6150, 48769.00
146.8470, 48613.00
148.0790, 48597.00
149.3100, 48877.00
150.5410, 48906.00
151.7720, 48857.00
153.0030, 48830.00
154.2340, 49418.00
155.4640, 49711.00
156.6950, 49873.00
157.9250, 50261.00
159.1550, 50972.00
160.3850, 51672.00
161.6150, 52628.00
162.8440, 53469.00
164.0730, 54750.00
165.3030, 55216.00
166.5320, 55276.00
167.7600, 54862.00
168.9890, 53752.00
170.2180, 52947.00
171.4460, 52717.00
172.6740, 52241.00
173.9020, 51921.00
175.1300, 51813.00
176.3570, 51691.00
177.5850, 51717.00
178.8120, 51424.00
180.0390, 51443.00
181.2660, 51008.00
182.4930, 51267.00
183.7190, 51540.00
184.9460, 51314.00
186.1720, 51101.00
187.3980, 51411.00
188.6240, 51348.00
189.8500, 51336.00
191.0750, 51033.00
192.3010, 51385.00
193.5260, 51219.00
194.7510, 51500.00
195.9760, 51623.00
197.2000, 51549.00
198.4250, 51896.00
199.6490, 51962.00
200.8730, 51720.00
202.0970, 52184.00
203.3210, 51929.00
204.5450, 52239.00
205.7680, 52328.00
206.9920, 52351.00
208.2150, 52291.00
209.4380, 52269.00
210.6610, 52787.00
211.8830, 52456.00
213.1060, 52951.00
214.3280, 53274.00
215.5500, 53205.00
216.7720, 53422.00
217.9940, 53350.00
219.2150, 53006.00
220.4370, 53198.00
221.6580, 53548.00
222.8790, 53514.00
224.1000, 53936.00
225.3210, 54050.00
226.5410, 54511.00
227.7620, 54352.00
228.9820, 54579.00
230.2020, 54493.00
231.4220, 54838.00
232.6410, 54982.00
233.8610, 55294.00
235.0800, 55191.00
236.2990, 55341.00
237.5180, 55479.00
238.7370, 55499.00
239.9560, 55732.00
241.1750, 55899.00
242.3930, 56216.00
243.6110, 56517.00
244.8290, 56525.00
246.0470, 57312.00
247.2640, 57471.00
248.4820, 57765.00
249.6990, 58313.00
250.9160, 58568.00
252.1330, 59810.00
253.3500, 59918.00
254.5670, 60733.00
255.7830, 61368.00
256.9990, 62186.00
258.2160, 62992.00
259.4310, 63661.00
260.6470, 64864.00
261.8630, 65243.00
263.0780, 65789.00
264.2930, 65629.00
265.5090, 65026.00
266.7230, 65134.00
267.9380, 64338.00
269.1530, 63951.00
270.3670, 63083.00
271.5810, 62227.00
272.7950, 61991.00
274.0090, 60971.00
275.2230, 60619.00
276.4370, 60301.00
277.6500, 60081.00
278.8630, 59840.00
280.0760, 59776.00
281.2890, 59627.00
282.5020, 59735.00
283.7140, 59873.00
284.9270, 59592.00
286.1390, 59776.00
287.3510, 59710.00
288.5630, 60100.00
289.7740, 60155.00
290.9860, 60843.00
292.1970, 60652.00
293.4080, 61441.00
294.6190, 61371.00
295.8300, 61797.00
297.0410, 61313.00
298.2510, 60953.00
299.4610, 60517.00
300.6710, 60302.00
301.8810, 60110.00
303.0910, 59669.00
304.3010, 59798.00
305.5100, 59612.00
306.7200, 59897.00
307.9290, 59624.00
309.1380, 59493.00
310.3460, 59405.00
311.5550, 59849.00
312.7630, 59768.00
313.9720, 59808.00
315.1800, 60048.00
316.3880, 60077.00
317.5950, 59703.00
318.8030, 60360.00
320.0100, 60184.00
321.2180, 60135.00
322.4250, 60435.00
323.6320, 60337.00
324.8380, 60605.00
326.0450, 60518.00
327.2510, 60370.00
328.4570, 60426.00
329.6640, 61207.00
330.8690, 61046.00
332.0750, 60937.00
333.2810, 61365.00
334.4860, 60705.00
335.6910, 60983.00
336.8960, 61096.00
338.1010, 61361.00
339.3060, 61175.00
340.5100, 61582.00
341.7150, 61608.00
342.9190, 61513.00
344.1230, 61500.00
345.3270, 62005.00
346.5300, 61805.00
347.7340, 61709.00
348.9370, 62180.00
350.1400, 62050.00
351.3430, 62343.00
352.5460, 61922.00
353.7490, 62162.00
354.9510, 62545.00
356.1540, 62849.00
357.3560, 62493.00
358.5580, 63242.00
359.7600, 62996.00
360.9610, 62866.00
362.1630, 63058.00
363.3640, 63067.00
364.5650, 63069.00
365.7660, 63310.00
366.9670, 63672.00
368.1680, 63411.00
369.3680, 63801.00
370.5680, 63777.00
371.7680, 64045.00
372.9680, 63979.00
374.1680, 64035.00
375.3680, 63923.00
376.5670, 64213.00
377.7660, 63847.00
378.9660, 64406.00
380.1640, 64398.00
381.3630, 64144.00
382.5620, 64420.00
383.7600, 64673.00
384.9590, 64206.00
386.1570, 65132.00
387.3550, 64885.00
388.5520, 64753.00
389.7500, 65041.00
390.9470, 65015.00
392.1450, 65222.00
393.3420, 65067.00
394.5390, 65511.00
395.7350, 65605.00
396.9320, 65500.00
398.1280, 65487.00
399.3250, 65691.00
400.5210, 65871.00
401.7160, 65707.00
402.9120, 66329.00
404.1080, 66480.00
405.3030, 66458.00
406.4980, 67066.00
407.6930, 67199.00
408.8880, 67478.00
410.0830, 67736.00
411.2780, 67548.00
412.4720, 67534.00
413.6660, 67621.00
414.8600, 67521.00
416.0540, 67509.00
417.2480, 67403.00
418.4410, 67794.00
419.6350, 67787.00
420.8280, 68157.00
422.0210, 67743.00
423.2140, 67899.00
424.4070, 68357.00
425.5990, 67932.00
426.7920, 68504.00
427.9840, 68582.00
429.1760, 68600.00
430.3680, 68749.00
431.5590, 68907.00
432.7510, 69170.00
433.9420, 68984.00
435.1330, 69427.00
436.3240, 69906.00
437.5150, 70087.00
438.7060, 70300.00
439.8960, 70341.00
441.0870, 70928.00
442.2770, 71199.00
443.4670, 71666.00
444.6570, 72190.00
445.8470, 72554.00
447.0360, 73047.00
448.2250, 74018.00
449.4150, 75053.00
450.6040, 76501.00
451.7920, 77736.00
452.9810, 79476.00
454.1700, 82036.00
455.3580, 85488.00
456.5460, 89507.00
457.7340, 94568.00
458.9220, 100978.0
460.1100, 108977.0
461.2970, 116432.0
462.4850, 121795.0
463.6720, 124249.0
464.8590, 122173.0
466.0460, 116987.0
467.2320, 110157.0
468.4190, 103344.0
469.6050, 96778.00
470.7910, 91661.00
471.9770, 88130.00
473.1630, 84574.00
474.3490, 82882.00
475.5340, 80976.00
476.7200, 79439.00
477.9050, 78605.00
479.0900, 77429.00
480.2750, 76836.00
481.4590, 75996.00
482.6440, 75819.00
483.8280, 75685.00
485.0120, 75155.00
486.1960, 75011.00
487.3800, 74841.00
488.5640, 74584.00
489.7470, 74841.00
490.9310, 74596.00
492.1140, 74438.00
493.2970, 74802.00
494.4800, 74823.00
495.6620, 74962.00
496.8450, 75395.00
498.0270, 74910.00
499.2090, 75007.00
500.3910, 74835.00
501.5730, 74679.00
502.7550, 74522.00
503.9360, 74214.00
505.1170, 73922.00
506.2990, 74105.00
507.4800, 73685.00
508.6600, 74407.00
509.8410, 74304.00
511.0220, 74239.00
512.2020, 73944.00
513.3820, 74289.00
514.5620, 74328.00
515.7420, 74199.00
516.9220, 74405.00
518.1010, 74283.00
519.2800, 74643.00
520.4600, 74532.00
521.6390, 74911.00
522.8170, 74793.00
523.9960, 74855.00
525.1750, 74606.00
526.3530, 74912.00
527.5310, 74961.00
528.7090, 75023.00
529.8870, 74885.00
531.0650, 74725.00
532.2420, 75166.00
533.4190, 75298.00
534.5970, 75249.00
535.7740, 75417.00
536.9500, 75064.00
538.1270, 75202.00
539.3040, 75591.00
540.4800, 75790.00
541.6560, 75073.00
542.8320, 75865.00
544.0080, 75516.00
545.1840, 75793.00
546.3590, 76063.00
547.5340, 75839.00
548.7100, 75932.00
549.8850, 76061.00
551.0600, 76004.00
552.2340, 76447.00
553.4090, 76245.00
554.5830, 76247.00
555.7570, 75965.00
556.9310, 76148.00
558.1050, 76460.00
559.2790, 76184.00
560.4520, 76640.00
561.6260, 76676.00
562.7990, 76786.00
563.9720, 76459.00
565.1450, 76681.00
566.3170, 76825.00
567.4900, 76942.00
568.6620, 76829.00
569.8350, 76858.00
571.0070, 77075.00
572.1780, 77111.00
573.3500, 77286.00
574.5220, 77260.00
575.6930, 77221.00
576.8640, 77552.00
578.0350, 77812.00
579.2060, 77515.00
580.3770, 77831.00
581.5470, 77608.00
582.7180, 77712.00
583.8880, 77819.00
585.0580, 78083.00
586.2280, 77992.00
587.3980, 78006.00
588.5670, 78376.00
589.7370, 78550.00
590.9060, 78540.00
592.0750, 78414.00
593.2440, 79038.00
594.4130, 79179.00
595.5810, 78909.00
596.7500, 78906.00
597.9180, 78670.00
599.0860, 78874.00
600.2540, 78767.00
601.4220, 79369.00
602.5890, 79122.00
603.7570, 79486.00
604.9240, 79551.00
606.0910, 79428.00
607.2580, 80117.00
608.4250, 79777.00
609.5910, 79476.00
610.7580, 79539.00
611.9240, 79874.00
613.0900, 79691.00
614.2560, 79847.00
615.4220, 79956.00
616.5870, 79689.00
617.7530, 80137.00
618.9180, 79916.00
620.0830, 80376.00
621.2480, 79951.00
622.4130, 80278.00
623.5770, 80390.00
624.7420, 80295.00
625.9060, 80348.00
627.0700, 80740.00
628.2340, 80335.00
629.3980, 80571.00
630.5620, 80905.00
631.7250, 80480.00
632.8880, 80988.00
634.0510, 80988.00
635.2140, 81181.00
636.3770, 81418.00
637.5400, 81256.00
638.7020, 81299.00
639.8650, 81319.00
641.0270, 81471.00
642.1890, 81212.00
643.3510, 81605.00
644.5120, 81513.00
645.6740, 81756.00
646.8350, 81407.00
647.9960, 81420.00
649.1570, 81935.00
650.3180, 81573.00
651.4790, 81391.00
652.6390, 81828.00
653.8000, 81963.00
654.9600, 81713.00
656.1200, 81800.00
657.2800, 82164.00
658.4390, 81996.00
659.5990, 81920.00
660.7580, 82297.00
661.9170, 82236.00
663.0770, 82243.00
664.2350, 82432.00
665.3940, 82502.00
666.5530, 82387.00
667.7110, 82211.00
668.8690, 82853.00
670.0270, 82517.00
671.1850, 83180.00
672.3430, 83051.00
673.5000, 82917.00
674.6580, 82881.00
675.8150, 82887.00
676.9720, 83200.00
678.1290, 83337.00
679.2860, 83046.00
680.4420, 83201.00
681.5990, 83080.00
682.7550, 83624.00
683.9110, 83446.00
685.0670, 83742.00
686.2230, 83756.00
687.3790, 83405.00
688.5340, 83824.00
689.6890, 83557.00
690.8440, 83935.00
691.9990, 84296.00
693.1540, 84017.00
694.3090, 84298.00
695.4630, 83915.00
696.6170, 84326.00
697.7720, 84547.00
698.9260, 84343.00
700.0790, 84304.00
701.2330, 84334.00
702.3870, 84512.00
703.5400, 84275.12
704.6930, 84726.54
705.8460, 85002.38
706.9990, 85112.07
708.1510, 84557.95
709.3040, 84860.99
710.4560, 84820.50
711.6090, 84765.96
712.7610, 85189.59
713.9120, 84731.98
715.0640, 85148.03
716.2160, 85215.34
717.3670, 85442.23
718.5180, 85323.48
719.6690, 85311.50
720.8200, 85645.24
721.9710, 85787.55
723.1210, 85628.98
724.2720, 85866.01
725.4220, 85396.27
726.5720, 85546.69
727.7220, 85964.67
728.8720, 85823.48
730.0210, 86066.74
731.1710, 86163.61
732.3200, 85594.95
733.4690, 86183.62
734.6180, 86271.79
735.7670, 86161.00
736.9150, 86596.00
738.0640, 86255.00
739.2120, 86497.00
740.3600, 86939.00
741.5080, 86686.00
742.6560, 86945.00
743.8040, 87098.00
744.9510, 87370.00
746.0980, 87018.00
747.2450, 87222.00
748.3920, 87077.00
749.5390, 87111.00
750.6860, 87471.00
751.8320, 87133.00
752.9790, 87647.00
754.1250, 87760.00
755.2710, 87915.00
756.4170, 87806.00
757.5620, 87597.00
758.7080, 87846.00
759.8530, 88178.00
760.9990, 87738.00
762.1440, 87880.00
763.2880, 87988.00
764.4330, 88186.00
765.5780, 88462.00
766.7220, 88659.00
767.8660, 87449.00
769.0100, 87919.00
770.1540, 88226.00
771.2980, 87891.00
772.4420, 88611.00
773.5850, 88306.00
774.7280, 88151.00
775.8710, 88437.00
777.0140, 88491.00
778.1570, 88484.00
779.3000, 88578.00
780.4420, 88482.00
781.5840, 88672.00
782.7270, 88821.00
783.8690, 88364.24
785.0100, 88829.09
786.1520, 89118.41
787.2940, 89241.59
788.4350, 88700.95
789.5760, 89017.43
790.7170, 88990.41
791.8580, 88949.30
792.9980, 89386.36
794.1390, 88942.26
795.2790, 89371.73
796.4200, 89452.52
797.5600, 89692.86
798.6990, 89587.52
799.8390, 89589.00
800.9790, 89936.20
802.1180, 90091.91
803.2570, 89946.80
804.3960, 90197.23
805.5350, 89740.94
806.6740, 89904.80
807.8130, 90336.23
808.9510, 90208.45
810.0890, 90465.13
811.2270, 90575.39
812.3650, 90020.16
813.5030, 90622.27
814.6410, 90798.00
815.7780, 90945.00
816.9150, 90813.00
818.0530, 90719.00
819.1900, 90685.00
820.3260, 90531.00
821.4630, 90735.00
822.5990, 90869.00
823.7360, 90744.00
824.8720, 91294.00
826.0080, 90817.00
827.1440, 91297.00
828.2790, 91254.00
829.4150, 91042.00
830.5500, 91432.00
831.6860, 91536.00
832.8210, 91284.00
833.9560, 91386.00
835.0900, 91640.00
836.2250, 91707.00
837.3590, 91603.00
838.4930, 91830.00
839.6280, 91373.00
840.7610, 91815.00
841.8950, 91867.00
843.0290, 91771.00
844.1620, 91655.00
845.2950, 91716.00
846.4290, 91712.00
847.5620, 92144.00
848.6940, 92200.00
849.8270, 92181.00
850.9590, 92087.00
852.0920, 91883.00
853.2240, 92044.00
854.3560, 92571.00
855.4880, 92283.00
856.6190, 92678.00
857.7510, 92244.00
858.8820, 92314.00
860.0130, 92405.00
861.1450, 92772.00
862.2750, 92925.00
863.4060, 92361.00
864.5370, 93167.00
865.6670, 92503.00
866.7970, 93008.00
867.9270, 92827.00
869.0570, 92840.00
870.1870, 93214.00
871.3170, 92748.00
872.4460, 93304.00
873.5750, 93113.00
874.7040, 93134.00
875.8330, 93369.00
876.9620, 93182.00
878.0910, 93101.00
879.2190, 93093.00
880.3480, 93354.00
881.4760, 93220.00
882.6040, 93037.00
883.7320, 93898.00
884.8590, 93637.00
885.9870, 93813.00
887.1140, 93057.33
888.2410, 93493.80
889.3680, 93754.69
890.4950, 93849.43
891.6220, 93280.41
892.7490, 93568.51
893.8750, 93513.08
895.0010, 93443.56
896.1270, 93852.27
897.2530, 93379.76
898.3790, 93780.88
899.5050, 93833.25
900.6300, 94045.21
901.7550, 93911.55
902.8800, 93884.65
904.0050, 94203.46
905.1300, 94077.00
906.2550, 94539.00
907.3790, 94281.00
908.5040, 94240.00
909.6280, 94557.00
910.7520, 94693.00
911.8760, 94335.00
912.9990, 94593.00
914.1230, 94647.00
915.2460, 94821.00
916.3690, 94877.00
917.4930, 94758.00
918.6150, 94873.00
919.7380, 94669.00
920.8610, 95050.00
921.9830, 94767.00
923.1050, 95285.00
924.2280, 95035.00
925.3490, 94803.00
926.4710, 94954.00
927.5930, 95324.00
928.7140, 95419.00
929.8360, 95217.00
930.9570, 95672.00
932.0780, 95602.00
933.1990, 95552.00
934.3190, 95120.00
935.4400, 95677.00
936.5600, 96017.00
937.6800, 95638.00
938.8000, 95959.00
939.9200, 95380.00
941.0400, 96337.00
942.1600, 95798.00
943.2790, 96010.00
944.3980, 95510.00
945.5170, 96065.00
946.6360, 95893.00
947.7550, 95759.00
948.8740, 96432.00
949.9920, 95616.00
951.1100, 96125.00
952.2280, 96052.00
953.3460, 96210.00
954.4640, 95756.00
955.5820, 96111.00
956.6990, 96268.00
957.8170, 96668.00
958.9340, 96739.00
960.0510, 96846.00
961.1680, 97172.00
962.2850, 97168.00
963.4010, 97325.00
964.5170, 97617.00
965.6340, 97861.00
966.7500, 97955.00
967.8660, 98215.00
968.9810, 98137.00
970.0970, 98198.00
971.2130, 98312.00
972.3280, 98507.00
973.4430, 98603.00
974.5580, 98500.00
975.6730, 98511.00
976.7870, 98881.00
977.9020, 99984.00
979.0160, 100214.0
980.1300, 101223.0
981.2440, 102509.0
982.3580, 104306.0
983.4720, 107283.0
984.5860, 109816.0
985.6990, 112064.0
986.8120, 112611.0
987.9250, 112039.0
989.0380, 109706.0
990.1510, 106330.0
991.2630, 104416.0
992.3760, 102952.0
993.4880, 101865.0
994.6000, 101018.0
995.7120, 100106.0
996.8240, 99809.00
997.9360, 99310.00
999.0470, 99078.00
1000.159, 99330.00
1001.270, 99286.00
1002.381, 98788.00
1003.492, 98869.00
1004.602, 98743.00
1005.713, 98521.00
1006.823, 98731.00
1007.934, 98413.00
1009.044, 98957.00
1010.154, 99074.00
1011.263, 98459.00
1012.373, 98841.00
1013.482, 98754.00
1014.592, 98947.00
1015.701, 98367.00
1016.810, 98445.00
1017.919, 98369.00
1019.027, 98189.00
1020.136, 98470.00
1021.244, 98345.00
1022.352, 97805.00
1023.460, 98120.00
1024.568, 98273.00
1025.676, 97967.00
1026.784, 98099.00
1027.891, 97980.00
1028.998, 98092.00
1030.105, 97785.00
1031.212, 98064.00
1032.319, 97393.27
1033.426, 97847.98
1034.532, 98127.05
1035.638, 98239.98
1036.745, 97689.20
1037.851, 97995.48
1038.956, 97958.22
1040.062, 97906.92
1041.168, 98333.84
1042.273, 97879.49
1043.378, 98298.78
1044.483, 98369.33
1045.588, 98599.48
1046.693, 98885.00
1047.798, 99354.00
1048.902, 99189.00
1050.006, 99357.00
1051.110, 99278.00
1052.214, 99889.00
1053.318, 100077.0
1054.422, 100050.0
1055.525, 100013.0
1056.629, 100865.0
1057.732, 100763.0
1058.835, 101220.0
1059.938, 100715.0
1061.040, 100441.0
1062.143, 100944.0
1063.245, 100842.0
1064.348, 100292.0
1065.450, 100450.0
1066.552, 100085.0
1067.653, 99706.00
1068.755, 99526.00
1069.856, 99801.00
1070.958, 99570.00
1072.059, 99065.00
1073.160, 99180.00
1074.261, 98868.00
1075.361, 99104.00
1076.462, 99028.00
1077.562, 98975.00
1078.662, 99180.00
1079.762, 99215.00
1080.862, 99155.00
1081.962, 99444.00
1083.062, 99295.00
1084.161, 99410.00
1085.260, 99491.00
1086.359, 99664.00
1087.458, 99073.00
1088.557, 99554.00
1089.656, 99228.00
1090.754, 99549.00
1091.853, 99657.00
1092.951, 99277.00
1094.049, 99442.00
1095.147, 99383.00
1096.244, 99545.00
1097.342, 99467.00
1098.439, 99695.00
1099.537, 99976.00
1100.634, 99264.00
1101.731, 99933.00
1102.827, 99588.00
1103.924, 99493.00
1105.021, 99405.00
1106.117, 99901.00
1107.213, 99674.00
1108.309, 99828.00
1109.405, 99884.00
1110.501, 99694.00
1111.596, 99879.00
1112.691, 99989.00
1113.787, 99698.00
1114.882, 100026.0
1115.977, 99952.00
1117.071, 100347.0
1118.166, 99990.00
1119.260, 100018.0
1120.355, 99832.00
1121.449, 100212.0
1122.543, 99956.00
1123.637, 100135.0
1124.730, 100401.0
1125.824, 100105.0
1126.917, 100701.0
1128.010, 100402.0
1129.103, 100252.0
1130.196, 100491.0
1131.289, 100088.0
1132.382, 99379.00
1133.474, 100161.0
1134.566, 100116.0
1135.659, 99902.00
1136.750, 99846.00
1137.842, 100101.0
1138.934, 99995.00
1140.025, 99683.00
1141.117, 100208.0
1142.208, 99910.00
1143.299, 100019.0
1144.390, 100364.0
1145.481, 99919.00
1146.571, 100342.0
1147.662, 100467.0
1148.752, 100030.0
1149.842, 100380.0
1150.932, 100715.0
1152.022, 100457.0
1153.111, 100279.0
1154.201, 100671.0
1155.290, 99919.00
1156.379, 100241.0
1157.468, 100596.0
1158.557, 100254.0
1159.646, 100792.0
1160.734, 100383.0
1161.823, 100456.0
1162.911, 100372.0
1163.999, 100359.0
1165.087, 100273.0
1166.175, 100254.0
1167.262, 100512.0
1168.350, 100250.0
1169.437, 100649.0
1170.524, 100534.0
1171.611, 100312.0
1172.698, 100598.0
1173.785, 100455.0
1174.872, 100322.0
1175.958, 100275.0
1177.044, 100591.0
1178.130, 100781.0
1179.216, 100170.0
1180.302, 100713.0
1181.388, 100070.0
1182.473, 100732.0
1183.558, 99906.00
1184.644, 100350.0
1185.729, 99843.00
1186.813, 100479.0
1187.898, 100433.0
1188.983, 100618.0
1190.067, 100286.0
1191.151, 100166.0
1192.235, 100321.0
1193.319, 100426.0
1194.403, 100807.0
1195.487, 100594.0
1196.570, 100570.0
1197.653, 100736.0
1198.737, 100512.0
1199.820, 100312.0
1200.902, 100367.0
1201.985, 100630.0
1203.068, 100624.0
1204.150, 100727.0
1205.232, 100439.0
1206.314, 100460.0
1207.396, 100539.0
1208.478, 100590.0
1209.560, 100639.0
1210.641, 100650.0
1211.722, 100884.0
1212.804, 100958.0
1213.885, 100876.0
1214.965, 100629.0
1216.046, 100752.0
1217.127, 100839.0
1218.207, 100477.0
1219.287, 100556.0
1220.367, 100710.0
1221.447, 100470.0
1222.527, 101075.0
1223.607, 100315.0
1224.686, 100685.0
1225.765, 100698.0
1226.845, 100170.0
1227.924, 101361.0
1229.002, 101090.0
1230.081, 100901.0
1231.160, 100461.0
1232.238, 100946.0
1233.316, 100602.0
1234.394, 101340.0
1235.472, 101054.0
1236.550, 100738.0
1237.628, 100732.0
1238.705, 101337.0
1239.783, 101001.0
1240.860, 100776.0
1241.937, 100790.0
1243.014, 100773.0
1244.090, 100388.0
1245.167, 100858.0
1246.243, 101018.0
1247.319, 101007.0
1248.396, 100585.0
1249.471, 100922.0
1250.547, 100520.0
1251.623, 101078.0
1252.698, 100494.0
1253.774, 101052.0
1254.849, 100778.0
1255.924, 100791.0
1256.999, 100847.0
1258.074, 100681.0
1259.148, 100792.0
1260.222, 100941.0
1261.297, 100642.0
1262.371, 100468.0
1263.445, 101089.0
1264.519, 100939.0
1265.592, 100543.0
1266.666, 100274.0
1267.739, 100998.0
1268.812, 100388.0
1269.885, 100807.0
1270.958, 100837.0
1272.031, 100709.0
1273.104, 100735.0
1274.176, 100851.0
1275.248, 100967.0
1276.320, 100639.0
1277.392, 100637.0
1278.464, 100728.0
1279.536, 100281.0
1280.607, 100768.0
1281.679, 100499.0
1282.750, 100976.0
1283.821, 100675.0
1284.892, 100799.0
1285.963, 101326.0
1287.033, 100250.0
1288.104, 100592.0
1289.174, 100613.0
1290.244, 100886.0
1291.314, 100819.0
1292.384, 100355.0
1293.454, 100998.0
1294.523, 100883.0
1295.592, 100035.0
1296.662, 101238.0
1297.731, 100636.0
1298.800, 100733.0
1299.868, 100686.0
1300.937, 100109.0
1302.006, 100499.2
1303.074, 100713.9
1304.142, 100762.4
1305.210, 100147.2
1306.278, 100389.1
1307.346, 100287.5
1308.413, 100171.8
1309.481, 100534.3
1310.548, 100015.6
1311.615, 100370.6
1312.682, 100376.8
1313.749, 100542.6
1314.815, 100362.8
1315.882, 100289.8
1316.948, 100881.0
1318.014, 100202.0
1319.080, 100904.0
1320.146, 100586.0
1321.212, 100359.0
1322.278, 100413.0
1323.343, 100261.0
1324.408, 100591.0
1325.473, 100428.0
1326.538, 100150.0
1327.603, 101050.0
1328.668, 100162.0
1329.732, 100548.0
1330.797, 100628.0
1331.861, 99950.00
1332.925, 100591.0
1333.989, 100480.0
1335.053, 100322.0
1336.116, 100444.0
1337.180, 100150.0
1338.243, 100459.0
1339.306, 100225.0
1340.369, 100109.0
1341.432, 100551.0
1342.495, 100194.0
1343.557, 100038.0
1344.620, 100092.0
1345.682, 100434.0
1346.744, 100277.0
1347.806, 100257.0
1348.868, 100317.0
1349.930, 100235.0
1350.991, 100380.0
1352.052, 100063.0
1353.114, 100257.0
1354.175, 100054.0
1355.235, 100139.0
1356.296, 100363.0
1357.357, 100299.0
1358.417, 100118.0
1359.478, 100298.0
1360.538, 99403.00
1361.598, 100127.0
1362.657, 100072.0
1363.717, 100212.0
1364.777, 100359.0
1365.836, 100249.0
1366.895, 100465.0
1367.954, 100251.0
1369.013, 100165.0
1370.072, 100149.0
1371.131, 100117.0
1372.189, 100516.0
1373.247, 99947.00
1374.306, 100259.0
1375.364, 100379.0
1376.422, 100025.0
1377.479, 100214.0
1378.537, 99895.00
1379.594, 100572.0
1380.651, 99616.00
1381.709, 100085.0
1382.766, 100104.0
1383.822, 99962.00
1384.879, 100218.0
1385.936, 99520.00
1386.992, 99954.00
1388.048, 100664.0
1389.104, 99648.00
1390.160, 100327.0
1391.216, 99918.00
1392.272, 99828.00
1393.327, 99769.00
1394.382, 99614.00
1395.437, 100144.0
1396.492, 99722.00
1397.547, 99736.00
1398.602, 100135.0
1399.657, 99805.00
1400.711, 99745.00
1401.765, 99859.00
1402.819, 99378.00
1403.873, 99654.00
1404.927, 99792.00
1405.981, 100004.0
1407.034, 99492.00
1408.088, 99616.00
1409.141, 99903.00
1410.194, 99735.00
1411.247, 99880.00
1412.300, 99415.00
1413.352, 99804.00
1414.405, 99490.00
1415.457, 99545.00
1416.509, 99828.00
1417.561, 99800.00
1418.613, 99507.00
1419.665, 99411.00
1420.716, 99436.00
1421.768, 99415.00
1422.819, 99672.00
1423.870, 99693.00
1424.921, 99112.00
1425.972, 99093.00
1427.022, 99496.00
1428.073, 99376.00
1429.123, 99001.00
1430.173, 99386.00
1431.224, 99541.00
1432.273, 99061.00
1433.323, 99593.00
1434.373, 99372.00
1435.422, 99620.00
1436.472, 99101.00
1437.521, 99698.00
1438.570, 99164.00
1439.619, 99508.00
1440.667, 99601.00
1441.716, 99340.00
1442.764, 99216.00
1443.813, 98851.00
1444.861, 99336.00
1445.909, 98793.00
1446.956, 98981.00
1448.004, 98791.00
1449.052, 98931.00
1450.099, 99204.00
1451.146, 98946.00
1452.193, 98874.00
1453.240, 98919.00
1454.287, 98999.00
1455.334, 98615.00
1456.380, 98937.00
1457.426, 99079.00
1458.473, 98804.00
1459.519, 99268.00
1460.565, 99311.00
1461.610, 98974.00
1462.656, 98801.00
1463.701, 98790.00
1464.747, 98355.00
1465.792, 98792.00
1466.837, 98823.00
1467.881, 98404.00
1468.926, 98897.00
1469.971, 98300.00
1471.015, 98511.00
1472.059, 98231.00
1473.103, 98464.00
1474.147, 98739.00
1475.191, 98388.00
1476.235, 98250.00
1477.278, 98131.00
1478.322, 98310.00
1479.365, 98829.00
1480.408, 98047.00
1481.451, 97835.00
1482.493, 97768.00
1483.536, 98216.00
1484.578, 98253.00
1485.621, 97950.00
1486.663, 98109.00
1487.705, 97939.00
1488.747, 97743.00
1489.788, 98649.00
1490.830, 97999.00
1491.871, 97829.00
1492.913, 98025.00
1493.954, 97881.00
1494.995, 98569.00
1496.036, 98096.00
1497.076, 97942.00
1498.117, 97757.00
1499.157, 97922.00
1500.197, 97748.00
1501.237, 97557.00
1502.277, 97704.00
1503.317, 97329.00
1504.357, 98100.00
1505.396, 97489.00
1506.436, 97535.00
1507.475, 97613.00
1508.514, 97542.00
1509.553, 97514.00
1510.591, 97423.00
1511.630, 97856.00
1512.668, 97462.00
1513.707, 97717.00
1514.745, 96930.00
1515.783, 97216.00
1516.821, 97181.00
1517.858, 96948.00
1518.896, 96992.00
1519.933, 97169.00
1520.971, 96907.00
1522.008, 97147.00
1523.045, 97107.00
1524.081, 97797.00
1525.118, 97211.00
1526.155, 97508.00
1527.191, 97002.00
1528.227, 96897.00
1529.263, 97037.00
1530.299, 96827.00
1531.335, 97334.00
1532.371, 97239.00
1533.406, 96735.00
1534.441, 97232.00
1535.477, 97027.00
1536.512, 97039.00
1537.547, 96945.00
1538.581, 97114.00
1539.616, 96838.00
1540.650, 96864.00
1541.685, 96906.00
1542.719, 96999.00
1543.753, 96846.00
1544.787, 96829.00
1545.820, 96644.00
1546.854, 96145.00
1547.887, 97073.00
1548.921, 96624.00
1549.954, 96837.00
1550.987, 96484.00
1552.019, 96504.00
1553.052, 96486.00
1554.085, 96594.00
1555.117, 96499.00
1556.149, 96709.00
1557.181, 96537.00
1558.213, 96471.00
1559.245, 96038.00
1560.277, 96506.00
1561.308, 96668.00
1562.340, 96356.00
1563.371, 96546.00
1564.402, 96398.00
1565.433, 96364.00
1566.463, 96338.00
1567.494, 96250.00
1568.524, 96443.00
1569.555, 96411.00
1570.585, 96463.00
1571.615, 96114.00
1572.645, 95465.00
1573.675, 96461.00
1574.704, 96036.00
1575.734, 95880.00
1576.763, 96145.00
1577.792, 96213.00
1578.821, 95809.00
##END=



