##NAMES=Sodalite
##RRUFFID=R060435
##IDEAL CHEMISTRY=Na_4_Si_3_Al_3_O_12_Cl
##LOCALITY=Koksha Valley, Badakshan Province, Afghanistan
##OWNER=RRUFF
##SOURCE=Herb Obodda
##DESCRIPTION=Pale purple fragment
##STATUS=The identification of this mineral has been confirmed by X-ray diffraction and chemical analysis
##URL=rruff.info/R060435
##MEASURED CHEMISTRY=(Na_0.99_K_0.01_)_8_Al_6.00_Si_6.00_O_24_Cl_2_
##PIN_ID=L00857
##ORIENTATION=Laser parallel to a* (1 0 0). Fiducial mark perpendicular to laser is parallel to b [0 1 0]
69.76100, 0.0000000E+00
71.00100, 18.21875
72.24000, 50.59375
73.47900, 1496.750
74.71800, 1835.812
75.95700, 1978.031
77.19600, 800.5625
78.43500, 1552.375
79.67300, 1313.562
80.91200, 980.6250
82.15000, 1873.688
83.38800, 1514.000
84.62600, 1008.562
85.86300, 1298.969
87.10100, 1632.375
88.33800, 1756.125
89.57500, 1592.875
90.81200, 1765.406
92.04900, 2058.781
93.28600, 1283.062
94.52300, 2025.594
95.75900, 3007.656
96.99500, 2207.719
98.23100, 3591.312
99.46700, 2105.906
100.7030, 1658.125
101.9390, 1911.594
103.1740, 2655.031
104.4090, 2987.094
105.6440, 3402.656
106.8790, 3346.438
108.1140, 3672.156
109.3490, 3467.500
110.5830, 3740.188
111.8180, 4756.125
113.0520, 3904.125
114.2860, 3803.125
115.5200, 2114.000
116.7530, 2050.594
117.9870, 1991.938
119.2200, 1384.812
120.4530, 1360.094
121.6860, 837.7188
122.9190, 1615.531
124.1520, 1690.531
125.3850, 1030.500
126.6170, 950.4375
127.8490, 1977.312
129.0810, 1901.000
130.3130, 2846.438
131.5450, 2878.594
132.7770, 2389.469
134.0080, 3007.969
135.2390, 3111.000
136.4710, 2640.781
137.7020, 3730.312
138.9320, 2738.500
140.1630, 3965.594
141.3930, 3635.531
142.6240, 3737.781
143.8540, 5231.906
145.0840, 4512.781
146.3140, 5422.125
147.5440, 5708.031
148.7730, 4993.469
150.0020, 5800.562
151.2320, 6652.125
152.4610, 6276.625
153.6900, 6316.844
154.9180, 7642.594
156.1470, 7737.031
157.3750, 8833.438
158.6040, 9129.250
159.8320, 11858.84
161.0600, 11794.62
162.2870, 14100.97
163.5150, 16346.59
164.7420, 17220.16
165.9700, 18412.31
167.1970, 17254.03
168.4240, 16901.34
169.6510, 13995.25
170.8770, 11341.72
172.1040, 11319.81
173.3300, 9394.531
174.5560, 8341.875
175.7820, 8315.812
177.0080, 6940.344
178.2340, 6271.562
179.4590, 5024.406
180.6850, 5759.844
181.9100, 4552.938
183.1350, 3859.688
184.3600, 3933.000
185.5850, 3045.031
186.8090, 3496.656
188.0340, 3815.875
189.2580, 2322.781
190.4820, 2139.312
191.7060, 2900.500
192.9300, 2927.312
194.1530, 2597.781
195.3770, 2815.906
196.6000, 2338.656
197.8230, 3006.000
199.0460, 3467.000
200.2690, 3207.625
201.4910, 4061.938
202.7140, 2989.969
203.9360, 3740.531
205.1580, 3421.531
206.3800, 3262.969
207.6020, 4297.375
208.8240, 2509.344
210.0450, 3027.562
211.2670, 3458.875
212.4880, 2267.750
213.7090, 3834.750
214.9300, 3573.375
216.1510, 2328.625
217.3710, 3092.906
218.5920, 2842.938
219.8120, 2979.094
221.0320, 4172.625
222.2520, 2982.688
223.4720, 3977.281
224.6910, 3515.750
225.9110, 4833.281
227.1300, 4942.719
228.3490, 4345.188
229.5680, 4771.531
230.7870, 5001.281
232.0050, 5492.625
233.2240, 5154.062
234.4420, 5058.688
235.6600, 5468.781
236.8780, 4228.750
238.0960, 4770.219
239.3140, 4136.312
240.5310, 5824.531
241.7490, 5235.031
242.9660, 6149.844
244.1830, 6650.812
245.4000, 7850.312
246.6160, 7826.562
247.8330, 8201.000
249.0490, 9573.438
250.2660, 11301.41
251.4820, 11991.81
252.6980, 13265.34
253.9130, 15584.88
255.1290, 17256.53
256.3440, 17927.19
257.5600, 20858.69
258.7750, 22867.41
259.9900, 23999.03
261.2040, 25282.62
262.4190, 26322.22
263.6330, 26021.78
264.8480, 26618.94
266.0620, 26137.69
267.2760, 23843.09
268.4900, 20943.00
269.7030, 20273.53
270.9170, 18249.66
272.1300, 16505.34
273.3430, 13548.56
274.5560, 12941.38
275.7690, 12143.69
276.9820, 9313.562
278.1940, 8913.000
279.4070, 8436.000
280.6190, 8510.500
281.8310, 8008.531
283.0430, 7878.094
284.2550, 7128.188
285.4660, 6437.750
286.6770, 6352.875
287.8890, 7231.469
289.1000, 6423.500
290.3110, 6560.094
291.5210, 8244.156
292.7320, 7627.688
293.9420, 8481.750
295.1530, 9045.344
296.3630, 8514.438
297.5730, 7032.000
298.7830, 6605.062
299.9920, 5018.594
301.2020, 4533.656
302.4110, 3673.219
303.6200, 2988.219
304.8290, 2763.750
306.0380, 2047.750
307.2470, 1927.250
308.4550, 1126.219
309.6630, 512.6875
310.8720, 766.5938
312.0800, 417.5312
313.2880, 1147.875
314.4950, 722.2500
315.7030, 1167.031
316.9100, 1712.344
318.1170, 783.1562
319.3240, 1153.406
320.5310, 1170.156
321.7380, 412.3750
322.9450, 49.03125
324.1510, 1583.219
325.3570, 737.8750
326.5630, 569.0000
327.7690, 1480.625
328.9750, 745.6875
330.1810, 1252.250
331.3860, 1011.281
332.5910, 333.1562
333.7960, 909.7812
335.0010, 50.18750
336.2060, 69.93750
337.4110, 1427.438
338.6150, 85.21875
339.8200, 24.56250
341.0240, 2033.312
342.2280, 312.4062
343.4320, 122.2812
344.6350, 208.5938
345.8390, 405.0312
347.0420, 94.09375
348.2450, 234.4375
349.4480, 100.5625
350.6510, 86.25000
351.8540, 18.53125
353.0560, 15.18750
354.2590, 61.28125
355.4610, 62.31250
356.6630, 127.7188
357.8650, 308.6250
359.0670, 372.9688
360.2680, 1322.844
361.4700, 494.1875
362.6710, 22.71875
363.8720, 834.0000
365.0730, 315.5938
366.2740, 425.6562
367.4740, 144.3125
368.6750, 114.4062
369.8750, 11.06250
371.0750, 170.9375
372.2750, 54.37500
373.4750, 196.2500
374.6740, 518.6250
375.8740, 922.6875
377.0730, 161.5000
378.2720, 256.8125
379.4710, 1231.562
380.6700, 722.6250
381.8690, 1168.500
383.0670, 217.3750
384.2660, 196.1250
385.4640, 123.8750
386.6620, 28.50000
387.8600, 673.3750
389.0570, 443.9375
390.2550, 257.1250
391.4520, 530.1250
392.6490, 49.00000
393.8460, 117.4375
395.0430, 1408.562
396.2400, 918.3750
397.4370, 1015.062
398.6330, 321.3750
399.8290, 356.6875
401.0250, 384.6250
402.2210, 100.5000
403.4170, 1181.125
404.6130, 2201.562
405.8080, 2674.625
407.0030, 2289.312
408.1980, 3089.812
409.3930, 3140.312
410.5880, 5060.750
411.7830, 3495.188
412.9770, 4027.250
414.1720, 3879.938
415.3660, 3112.250
416.5600, 3337.125
417.7530, 3442.875
418.9470, 2841.188
420.1410, 2778.000
421.3340, 2264.562
422.5270, 3314.750
423.7200, 2414.562
424.9130, 2876.062
426.1060, 2532.062
427.2980, 2707.875
428.4900, 3288.250
429.6830, 2976.438
430.8750, 2667.938
432.0670, 3065.250
433.2580, 3717.312
434.4500, 4226.875
435.6410, 3725.188
436.8320, 3641.125
438.0240, 4611.812
439.2140, 5059.062
440.4050, 5666.562
441.5960, 6771.625
442.7860, 7255.875
443.9760, 9091.562
445.1670, 10300.38
446.3560, 11841.75
447.5460, 14681.94
448.7360, 15766.88
449.9250, 19393.38
451.1150, 24141.69
452.3040, 28499.56
453.4930, 35921.12
454.6810, 44091.38
455.8700, 52853.25
457.0590, 65804.94
458.2470, 79688.19
459.4350, 94811.19
460.6230, 112608.8
461.8110, 126271.2
462.9980, 137110.2
464.1860, 140204.0
465.3730, 133672.4
466.5600, 120195.5
467.7470, 103945.4
468.9340, 85921.81
470.1210, 70345.00
471.3080, 58345.94
472.4940, 46302.50
473.6800, 39733.81
474.8660, 32240.81
476.0520, 26569.94
477.2380, 23579.31
478.4230, 20513.44
479.6090, 19012.50
480.7940, 16415.06
481.9790, 14998.31
483.1640, 13752.56
484.3490, 11533.25
485.5330, 10739.56
486.7180, 9203.625
487.9020, 9209.938
489.0860, 9727.500
490.2700, 8808.812
491.4540, 8898.500
492.6370, 8454.062
493.8210, 8402.812
495.0040, 9284.375
496.1870, 7333.562
497.3700, 8245.812
498.5530, 8453.750
499.7360, 7189.000
500.9180, 6679.938
502.1000, 5775.562
503.2830, 5552.000
504.4650, 5239.188
505.6460, 4027.875
506.8280, 4435.625
508.0100, 3082.000
509.1910, 2967.500
510.3720, 3824.750
511.5530, 3937.125
512.7340, 2948.188
513.9150, 3785.938
515.0950, 3086.125
516.2760, 3441.812
517.4560, 2837.438
518.6360, 2388.812
519.8160, 2702.625
520.9950, 2165.000
522.1750, 2456.875
523.3540, 2669.750
524.5340, 1523.625
525.7130, 954.3125
526.8920, 1416.312
528.0700, 2351.812
529.2490, 2471.875
530.4270, 1866.438
531.6060, 2171.188
532.7840, 1478.875
533.9620, 1365.938
535.1390, 1181.562
536.3170, 1975.250
537.4940, 1954.125
538.6720, 2079.438
539.8490, 1234.125
541.0260, 2063.375
542.2030, 2667.125
543.3790, 2310.438
544.5560, 1177.125
545.7320, 2918.938
546.9080, 794.9375
548.0840, 1592.750
549.2600, 1435.312
550.4360, 1163.812
551.6110, 944.8750
552.7860, 1072.938
553.9620, 1047.438
555.1370, 1852.125
556.3110, 2126.688
557.4860, 775.0625
558.6610, 1143.312
559.8350, 375.3750
561.0090, 1251.188
562.1830, 875.9375
563.3570, 1228.438
564.5310, 247.7500
565.7040, 421.9375
566.8780, 997.9375
568.0510, 1421.812
569.2240, 578.5000
570.3970, 1822.000
571.5700, 483.3750
572.7420, 1320.500
573.9150, 721.5000
575.0870, 2309.312
576.2590, 243.0000
577.4310, 1475.562
578.6030, 791.9375
579.7740, 1731.125
580.9460, 1795.875
582.1170, 1018.625
583.2880, 884.3750
584.4590, 2105.188
585.6300, 727.3750
586.8010, 1110.062
587.9710, 4635.812
589.1410, 2724.875
590.3110, 3142.625
591.4810, 1859.125
592.6510, 3846.562
593.8210, 1471.812
594.9900, 2528.812
596.1600, 2685.688
597.3290, 2652.438
598.4980, 2380.938
599.6670, 2467.312
600.8350, 2374.500
602.0040, 3387.562
603.1720, 2173.438
604.3400, 2995.125
605.5080, 3285.688
606.6760, 2131.125
607.8440, 3573.312
609.0120, 3927.438
610.1790, 1841.312
611.3460, 2960.125
612.5130, 1268.750
613.6800, 1712.188
614.8470, 1542.500
616.0130, 930.6250
617.1800, 1739.688
618.3460, 2807.625
619.5120, 2755.375
620.6780, 2970.000
621.8440, 1742.500
623.0090, 1435.812
624.1750, 4033.062
625.3400, 2470.125
626.5050, 2740.062
627.6700, 2940.875
628.8350, 2548.625
629.9990, 2634.688
631.1640, 2625.312
632.3280, 2411.000
633.4920, 2571.250
634.6560, 2738.438
635.8200, 2527.438
636.9840, 2212.312
638.1470, 2846.062
639.3100, 2107.750
640.4730, 2584.250
641.6360, 2683.625
642.7990, 2962.812
643.9620, 2807.125
645.1240, 2495.938
646.2870, 2272.750
647.4490, 2110.500
648.6110, 1763.188
649.7730, 2341.812
650.9340, 2641.375
652.0960, 1837.875
653.2570, 2203.250
654.4180, 1226.562
655.5790, 1965.312
656.7400, 1123.812
657.9010, 1073.875
659.0620, 2142.438
660.2220, 1731.562
661.3820, 2854.500
662.5420, 2814.375
663.7020, 2485.312
664.8620, 2193.000
666.0210, 2460.812
667.1810, 3046.312
668.3400, 2721.000
669.4990, 2948.312
670.6580, 2965.938
671.8170, 2729.875
672.9750, 2760.000
674.1340, 2652.312
675.2920, 2024.500
676.4500, 2565.500
677.6080, 1867.625
678.7660, 1804.500
679.9230, 2720.750
681.0810, 1590.812
682.2380, 2017.688
683.3950, 2398.438
684.5520, 33.06250
685.7090, 2360.312
686.8660, 2370.375
688.0220, 202.7500
689.1780, 754.6250
690.3340, 773.7500
691.4900, 2233.625
692.6460, 1153.375
693.8020, 2184.875
694.9570, 2723.250
696.1130, 1704.500
697.2680, 2103.500
698.4230, 2284.312
699.5780, 2603.000
700.7320, 2870.500
701.8870, 3995.875
703.0410, 2579.125
704.1950, 3520.062
705.3490, 4431.938
706.5030, 2705.688
707.6570, 4052.250
708.8110, 4073.562
709.9640, 3242.812
711.1170, 3419.875
712.2700, 2999.812
713.4230, 3340.500
714.5760, 2659.062
715.7280, 2206.438
716.8810, 2485.750
718.0330, 1871.875
719.1850, 503.8750
720.3370, 840.5000
721.4890, 234.6250
722.6400, 660.2500
723.7920, 611.6875
724.9430, 484.2500
726.0940, 428.8750
727.2450, 1414.250
728.3960, 1556.375
729.5460, 2581.375
730.6970, 2954.250
731.8470, 3668.875
732.9970, 2879.438
734.1470, 2964.812
735.2970, 3052.125
736.4460, 2946.875
737.5960, 4584.250
738.7450, 3161.062
739.8940, 3358.750
741.0430, 3228.375
742.1920, 5986.688
743.3410, 5450.000
744.4890, 6199.188
745.6370, 6116.188
746.7850, 6680.000
747.9330, 5161.688
749.0810, 5855.312
750.2290, 6588.812
751.3760, 5371.062
752.5240, 6488.250
753.6710, 7073.375
754.8180, 6761.250
755.9650, 6356.062
757.1110, 5637.750
758.2580, 5803.312
759.4040, 5735.875
760.5510, 5442.312
761.6970, 5717.688
762.8420, 6672.875
763.9880, 5297.938
765.1340, 6596.875
766.2790, 6715.000
767.4240, 5354.000
768.5690, 5565.750
769.7140, 4467.500
770.8590, 5511.125
772.0030, 4822.750
773.1480, 4917.188
774.2920, 5955.562
775.4360, 5273.812
776.5800, 3240.062
777.7240, 4323.250
778.8670, 4601.312
780.0110, 4092.250
781.1540, 5396.000
782.2970, 2846.750
783.4400, 4445.375
784.5830, 3809.875
785.7250, 3453.250
786.8680, 4912.625
788.0100, 4472.812
789.1520, 4298.938
790.2940, 3751.812
791.4360, 2392.688
792.5780, 960.4375
793.7190, 269.0000
794.8600, 233.6875
796.0010, 921.9375
797.1420, 1356.812
798.2830, 2200.000
799.4240, 2086.500
800.5640, 2203.312
801.7050, 2253.562
802.8450, 1822.188
803.9850, 52.06250
805.1250, 554.6250
806.2640, 1262.188
807.4040, 2042.500
808.5430, 2158.812
809.6820, 2695.188
810.8210, 2898.312
811.9600, 3404.500
813.0990, 3579.625
814.2370, 4223.688
815.3760, 4571.688
816.5140, 5063.625
817.6520, 4933.438
818.7900, 5113.250
819.9270, 6271.000
821.0650, 5154.688
822.2020, 3442.625
823.3390, 4971.125
824.4760, 4370.562
825.6130, 5285.000
826.7500, 4708.375
827.8870, 4375.938
829.0230, 4068.125
830.1590, 3960.062
831.2950, 3950.938
832.4310, 4213.938
833.5670, 4741.938
834.7030, 5407.938
835.8380, 4393.875
836.9730, 6349.750
838.1080, 4648.562
839.2430, 6572.250
840.3780, 5378.062
841.5130, 6301.750
842.6470, 4184.438
843.7810, 6088.000
844.9150, 6278.625
846.0490, 5610.125
847.1830, 4529.625
848.3170, 5898.125
849.4500, 6471.562
850.5830, 5983.938
851.7160, 6451.312
852.8490, 6470.688
853.9820, 6584.062
855.1150, 6743.312
856.2470, 6613.938
857.3800, 6440.000
858.5120, 6201.562
859.6440, 5859.500
860.7760, 5413.000
861.9070, 5067.812
863.0390, 5862.438
864.1700, 5300.500
865.3010, 5667.750
866.4320, 5306.125
867.5630, 4910.375
868.6940, 6304.812
869.8240, 4799.125
870.9540, 6444.500
872.0850, 5138.875
873.2150, 4815.312
874.3450, 4802.750
875.4740, 4944.188
876.6040, 6027.688
877.7330, 5272.250
878.8620, 5246.812
879.9910, 4557.375
881.1200, 5423.000
882.2490, 5602.688
883.3770, 4719.375
884.5060, 5153.188
885.6340, 3880.938
886.7620, 4791.812
887.8900, 5759.688
889.0180, 5485.625
890.1450, 4606.625
891.2730, 4718.688
892.4000, 3220.750
893.5270, 4008.875
894.6540, 3907.562
895.7810, 2757.812
896.9070, 3216.125
898.0340, 3952.438
899.1600, 3422.875
900.2860, 4272.375
901.4120, 3402.875
902.5380, 3686.500
903.6630, 3932.188
904.7890, 4291.000
905.9140, 5430.875
907.0390, 5062.938
908.1640, 5364.000
909.2890, 4862.062
910.4130, 5448.625
911.5380, 4491.250
912.6620, 4498.188
913.7860, 3656.625
914.9100, 5446.062
916.0340, 5133.688
917.1580, 5643.438
918.2810, 4477.188
919.4040, 4486.125
920.5280, 5807.062
921.6510, 4259.125
922.7730, 4564.375
923.8960, 5017.625
925.0180, 3973.062
926.1410, 4238.500
927.2630, 4575.062
928.3850, 6259.312
929.5070, 3693.750
930.6280, 5035.875
931.7500, 4286.625
932.8710, 4397.812
933.9920, 3673.312
935.1130, 3798.188
936.2340, 4788.875
937.3550, 4308.250
938.4760, 2476.438
939.5960, 4570.188
940.7160, 2579.750
941.8360, 3656.875
942.9560, 3252.750
944.0760, 2571.062
945.1950, 2287.562
946.3150, 2310.000
947.4340, 3287.625
948.5530, 3227.500
949.6720, 4231.438
950.7900, 2136.688
951.9090, 2628.062
953.0270, 2605.125
954.1460, 3125.875
955.2640, 3857.875
956.3820, 3457.062
957.4990, 4556.500
958.6170, 4430.812
959.7340, 3727.688
960.8520, 3542.000
961.9690, 4044.500
963.0860, 5965.188
964.2020, 5352.125
965.3190, 6681.250
966.4350, 5887.625
967.5520, 7444.188
968.6680, 7106.000
969.7840, 7511.062
970.8990, 8085.250
972.0150, 7580.750
973.1310, 8729.312
974.2460, 7853.188
975.3610, 9114.312
976.4760, 9513.688
977.5910, 10422.19
978.7050, 12051.94
979.8200, 15075.94
980.9340, 17435.12
982.0480, 21879.62
983.1620, 25587.31
984.2760, 33004.25
985.3900, 38467.31
986.5030, 43111.69
987.6160, 41506.31
988.7300, 40175.19
989.8430, 32431.25
990.9550, 25171.62
992.0680, 19197.62
993.1810, 15281.00
994.2930, 12946.00
995.4050, 9859.438
996.5170, 8615.188
997.6290, 8299.375
998.7410, 6152.688
999.8520, 5093.250
1000.964, 6845.125
1002.075, 5913.250
1003.186, 4918.625
1004.297, 5420.312
1005.407, 4973.188
1006.518, 3897.375
1007.628, 4083.688
1008.738, 4995.375
1009.848, 4982.375
1010.958, 4127.562
1012.068, 4896.000
1013.178, 4637.688
1014.287, 3375.625
1015.396, 3826.875
1016.505, 1491.375
1017.614, 3123.125
1018.723, 1361.125
1019.831, 1529.500
1020.940, 1814.125
1022.048, 1206.000
1023.156, 1277.125
1024.264, 547.4375
1025.372, 747.1250
1026.479, 557.0000
1027.587, 1063.750
1028.694, 1014.375
1029.801, 178.8125
1030.908, 1551.500
1032.015, 1074.438
1033.121, 446.7500
1034.228, 1385.688
1035.334, 677.6250
1036.440, 1602.312
1037.546, 32.18750
1038.652, 1716.125
1039.758, 780.5000
1040.863, 463.9375
1041.968, 1033.625
1043.074, 67.31250
1044.178, 309.1250
1045.283, 581.6875
1046.388, 1042.188
1047.492, 1621.000
1048.597, 588.1875
1049.701, 115.6250
1050.805, 2420.312
1051.909, 2265.188
1053.012, 3034.438
1054.116, 4622.938
1055.219, 5547.750
1056.322, 4721.875
1057.425, 6971.250
1058.528, 5130.938
1059.631, 7318.938
1060.733, 5560.188
1061.836, 6620.062
1062.938, 6175.875
1064.040, 6311.312
1065.142, 5875.562
1066.243, 3844.438
1067.345, 3482.250
1068.446, 2713.062
1069.547, 1610.312
1070.648, 1049.812
1071.749, 1414.500
1072.850, 100.3125
1073.951, 332.7500
1075.051, 1258.625
1076.151, 80.18750
1077.251, 1034.750
1078.351, 411.6250
1079.451, 125.2500
1080.550, 1323.125
1081.650, 179.4375
1082.749, 1293.000
1083.848, 2160.812
1084.947, 431.0625
1086.046, 1579.125
1087.144, 1200.625
1088.243, 1179.438
1089.341, 505.5000
1090.439, 432.1250
1091.537, 1381.312
1092.635, 1841.188
1093.732, 2327.188
1094.830, 1163.562
1095.927, 984.1250
1097.024, 2871.000
1098.121, 1085.125
1099.218, 1653.562
1100.314, 1423.188
1101.411, 1649.125
1102.507, 2108.438
1103.603, 2500.938
1104.699, 2290.688
1105.795, 2736.312
1106.890, 2932.812
1107.986, 2822.562
1109.081, 3336.375
1110.176, 2702.500
1111.271, 2447.875
1112.366, 2783.562
1113.461, 1618.438
1114.555, 2886.562
1115.649, 1795.062
1116.744, 2208.812
1117.838, 2566.750
1118.931, 1951.000
1120.025, 2447.500
1121.119, 2163.250
1122.212, 1805.312
1123.305, 2260.250
1124.398, 1860.812
1125.491, 1776.750
1126.584, 1843.625
1127.676, 1404.875
1128.768, 2298.375
1129.861, 2247.125
1130.953, 2897.188
1132.044, 2125.500
1133.136, 2108.062
1134.228, 1096.562
1135.319, 1831.562
1136.410, 909.8750
1137.501, 391.3750
1138.592, 1610.188
1139.683, 979.0000
1140.773, 558.1875
1141.864, 2209.625
1142.954, 1173.312
1144.044, 2619.188
1145.134, 857.3750
1146.224, 2317.812
1147.313, 2228.375
1148.402, 605.2500
1149.492, 1571.312
1150.581, 847.8125
1151.670, 3550.375
1152.758, 1368.062
1153.847, 1960.062
1154.935, 2799.250
1156.024, 572.7500
1157.112, 1108.375
1158.200, 274.3750
1159.287, 2624.062
1160.375, 2103.375
1161.462, 410.1875
1162.550, 1364.875
1163.637, 84.81250
1164.724, 2280.062
1165.810, 1849.500
1166.897, 744.1250
1167.983, 1915.938
1169.070, 511.0625
1170.156, 1895.938
1171.242, 1244.125
1172.327, 1699.625
1173.413, 713.3125
1174.499, 1558.875
1175.584, 1310.562
1176.669, 15.31250
1177.754, 1873.875
1178.839, 92.50000
1179.923, 801.4375
1181.008, 1731.500
1182.092, 400.3125
1183.176, 1829.062
1184.260, 1313.562
1185.344, 1133.312
1186.428, 413.1875
1187.511, 593.3125
1188.595, 1656.625
1189.678, 287.1250
1190.761, 976.8125
1191.843, 327.3750
1192.926, 418.4375
1194.009, 1137.688
1195.091, 86.93750
1196.173, 682.2500
1197.255, 865.8125
1198.337, 835.5000
1199.419, 671.6875
1200.500, 171.1250
1201.582, 2313.062
1202.663, 868.8750
1203.744, 1000.438
1204.825, 1286.500
1205.905, 525.7500
1206.986, 3218.812
1208.066, 1556.062
1209.146, 683.6875
1210.226, 667.4375
1211.306, 449.3125
1212.386, 2212.312
1213.466, 1750.375
1214.545, 2672.688
1215.624, 1049.562
1216.703, 2198.062
1217.782, 2761.625
1218.861, 849.3750
1219.939, 2849.250
1221.018, 1925.562
1222.096, 1939.625
1223.174, 2477.062
1224.252, 1532.562
1225.330, 2409.125
1226.407, 2771.875
1227.485, 3183.625
1228.562, 1383.625
1229.639, 1578.625
1230.716, 3126.812
1231.793, 2018.000
1232.869, 2832.312
1233.946, 1680.688
1235.022, 1989.125
1236.098, 3900.750
1237.174, 2236.375
1238.250, 2385.000
1239.325, 1570.812
1240.401, 2606.688
1241.476, 1442.688
1242.551, 2304.625
1243.626, 258.6875
1244.701, 1699.812
1245.776, 869.0000
1246.850, 800.3125
1247.924, 475.6250
1248.999, 1721.938
1250.073, 1708.375
1251.146, 1928.812
1252.220, 166.6250
1253.293, 637.9375
1254.367, 2594.500
1255.440, 664.1250
1256.513, 2149.750
1257.586, 1039.375
1258.658, 376.1875
1259.731, 983.9375
1260.803, 92.75000
1261.875, 2500.562
1262.947, 215.5625
1264.019, 2372.312
1265.091, 2337.188
1266.162, 170.0625
1267.234, 2112.000
1268.305, 22.06250
1269.376, 2015.938
1270.447, 2735.000
1271.517, 519.0000
1272.588, 2170.062
1273.658, 1234.062
1274.729, 1924.125
1275.799, 2337.188
1276.868, 2575.312
1277.938, 3429.375
1279.008, 304.5625
1280.077, 1734.438
1281.146, 1215.438
1282.215, 2836.312
1283.284, 3449.188
1284.353, 933.1250
1285.421, 3442.000
1286.490, 248.1250
1287.558, 3084.625
1288.626, 1651.500
1289.694, 36.31250
1290.762, 2905.125
1291.829, 835.9375
1292.897, 2227.750
1293.964, 2728.500
1295.031, 1446.438
1296.098, 2195.312
1297.165, 1829.250
1298.231, 2358.250
1299.298, 1937.000
1300.364, 2201.812
1301.430, 1728.500
1302.496, 1934.062
1303.562, 1934.500
1304.627, 2259.625
1305.693, 1761.062
1306.758, 1905.688
1307.823, 1169.188
1308.888, 2381.688
1309.953, 1990.312
1311.018, 2441.875
1312.082, 1194.250
1313.146, 1797.312
1314.210, 1089.875
1315.274, 2232.062
1316.338, 3414.250
1317.402, 3473.250
1318.465, 2028.188
1319.529, 2768.062
1320.592, 1097.500
1321.655, 539.5625
1322.718, 1628.812
1323.780, 618.1875
1324.843, 2599.375
1325.905, 483.5625
1326.967, 2384.625
1328.029, 937.1250
1329.091, 677.0625
1330.153, 292.8750
1331.214, 1161.688
1332.275, 726.8750
1333.337, 1371.625
1334.398, 791.9375
1335.458, 1479.000
1336.519, 724.0000
1337.580, 2918.812
1338.640, 338.6250
1339.700, 1952.688
1340.760, 2583.875
1341.820, 2140.750
1342.880, 3288.375
1343.939, 2616.938
1344.999, 2503.250
1346.058, 2832.375
1347.117, 1139.875
1348.176, 2617.562
1349.235, 2510.062
1350.293, 1975.812
1351.351, 3598.875
1352.410, 1549.688
1353.468, 3182.375
1354.526, 2576.750
1355.583, 1661.875
1356.641, 2262.875
1357.698, 1635.500
1358.756, 2041.938
1359.813, 1462.188
1360.869, 2674.188
1361.926, 2100.875
1362.983, 2687.438
1364.039, 2326.688
1365.095, 1179.750
1366.152, 2355.500
1367.207, 2329.125
1368.263, 1949.438
1369.319, 3638.500
1370.374, 2767.375
1371.430, 2204.000
1372.485, 3057.312
1373.540, 3040.438
1374.594, 2625.312
1375.649, 2551.875
1376.703, 2623.188
1377.758, 2419.312
1378.812, 3020.125
1379.866, 3777.938
1380.920, 3284.312
1381.973, 4652.375
1383.027, 3999.125
1384.080, 2404.625
1385.133, 4184.875
1386.186, 2712.875
1387.239, 2948.875
1388.291, 2797.375
1389.344, 3032.500
1390.396, 4587.188
1391.448, 3076.750
1392.500, 4595.125
1393.552, 3138.125
1394.604, 2648.812
1395.655, 4828.750
1396.707, 1242.938
1397.758, 4308.875
1398.809, 2232.438
1399.860, 1998.875
1400.910, 4359.938
1401.961, 2724.625
1403.011, 4898.375
1404.061, 3235.938
1405.111, 3088.312
1406.161, 4250.188
1407.211, 2618.000
1408.260, 3996.438
1409.310, 3981.688
1410.359, 3875.625
1411.408, 5209.312
1412.457, 2855.688
1413.506, 3972.688
1414.554, 2393.500
1415.603, 4013.125
1416.651, 3395.125
1417.699, 3453.250
1418.747, 5003.938
1419.794, 3580.438
1420.842, 4386.688
1421.889, 3793.688
1422.937, 2829.375
1423.984, 4546.625
1425.031, 3130.688
1426.077, 3343.062
1427.124, 3299.562
1428.170, 3106.375
1429.217, 3787.938
1430.263, 2977.188
1431.309, 3723.250
1432.354, 4347.000
1433.400, 803.5625
1434.445, 4890.938
1435.491, 2660.125
1436.536, 3275.000
1437.581, 4054.688
1438.625, 3444.125
1439.670, 3871.375
1440.714, 1461.375
1441.759, 3205.250
1442.803, 4212.000
1443.847, 2744.625
1444.890, 4327.062
1445.934, 1716.875
1446.978, 1414.562
1448.021, 3398.875
1449.064, 1724.625
1450.107, 3050.500
1451.150, 4060.375
1452.192, 3687.688
1453.235, 3539.750
1454.277, 845.6875
1455.319, 4075.312
1456.361, 1449.000
1457.403, 2306.688
1458.445, 2703.438
1459.486, 1855.250
1460.528, 3355.438
1461.569, 1837.062
1462.610, 2652.562
1463.651, 3261.000
1464.691, 1525.125
1465.732, 3241.125
1466.772, 2388.625
1467.812, 1183.125
1468.852, 2495.438
1469.892, 795.6875
1470.932, 1924.812
1471.971, 175.2500
1473.011, 1571.625
1474.050, 2810.312
1475.089, 1101.125
1476.128, 3503.375
1477.166, 755.6875
1478.205, 1149.812
1479.243, 3083.812
1480.282, 305.6250
1481.320, 1000.438
1482.357, 1464.938
1483.395, 1127.250
1484.433, 2914.438
1485.470, 1997.500
1486.507, 1882.188
1487.544, 568.6875
1488.581, 65.87500
1489.618, 1910.688
1490.655, 319.2500
1491.691, 1428.625
1492.727, 1995.750
1493.763, 2838.750
1494.799, 2972.500
1495.835, 1299.000
1496.871, 2457.312
1497.906, 1142.438
1498.941, 1018.250
1499.976, 1339.812
1501.011, 766.0000
1502.046, 162.9375
1503.081, 1636.500
1504.115, 758.6875
1505.149, 1192.562
1506.183, 556.0625
1507.217, 690.3125
1508.251, 532.5000
1509.285, 850.3750
1510.318, 319.8125
1511.352, 98.75000
1512.385, 254.1875
1513.418, 1286.062
1514.450, 145.1875
1515.483, 2573.000
1516.516, 926.4375
1517.548, 1147.312
1518.580, 796.3125
1519.612, 378.1875
1520.644, 1979.812
1521.675, 584.0000
1522.707, 771.4375
1523.738, 1991.188
1524.769, 1474.062
1525.800, 2582.625
1526.831, 88.62500
1527.862, 1836.438
1528.892, 1814.438
1529.923, 146.6250
1530.953, 3115.812
1531.983, 1202.250
1533.013, 2841.812
1534.042, 2456.562
1535.072, 1210.438
1536.101, 3380.438
1537.131, 2007.688
1538.160, 1813.125
1539.188, 2873.750
1540.217, 320.6250
1541.246, 3268.625
1542.274, 1143.000
1543.302, 2315.625
1544.330, 3516.625
1545.358, 381.8750
1546.386, 3153.750
1547.413, 1680.938
1548.441, 816.5625
1549.468, 1956.000
1550.495, 219.1875
1551.522, 3699.500
1552.549, 1173.375
1553.575, 923.3750
1554.602, 3063.125
1555.628, 956.6875
1556.654, 939.8750
1557.680, 900.8125
1558.706, 315.4375
1559.731, 2581.000
1560.757, 1411.375
1561.782, 1454.562
1562.807, 2807.625
1563.832, 2152.500
1564.857, 2696.188
1565.881, 971.1250
1566.906, 2051.562
1567.930, 1973.812
1568.954, 1532.938
1569.978, 4072.562
1571.002, 1547.250
1572.025, 1021.438
1573.049, 2389.750
1574.072, 1327.312
1575.095, 2620.438
1576.118, 5.250000
1577.141, 1926.812
1578.164, 0.0000000E+00
##END=



