##NAMES=Sodalite
##RRUFFID=R060355
##IDEAL CHEMISTRY=Na_4_Si_3_Al_3_O_12_Cl
##LOCALITY=Mont Saint-Hilaire, Quebec, Canada
##OWNER=RRUFF
##SOURCE=Herb Obodda
##DESCRIPTION=Clear colorless fragment
##STATUS=The identification of this mineral has been confirmed by X-ray diffraction and chemical analysis
##URL=rruff.info/R060355
##MEASURED CHEMISTRY=(Na_0.98_[box]_0.02_)_8_Al_6.00_(Si_0.99_Al_0.01_)_6_O_24_Cl_1.82_
##PIN_ID=L00616
##ORIENTATION=Laser parallel to a* (1 0 0). Fiducial mark perpendicular to laser is parallel to -c [0 0 -1]
125.3850, 0.0000000E+00
126.6170, 52.85156
127.8490, 45.67188
129.0810, 193.2168
130.3130, 356.1172
131.5450, 388.4961
132.7770, 181.7852
134.0080, 250.4160
135.2390, 33.09766
136.4710, 350.5312
137.7020, 306.1211
138.9320, 815.9199
140.1630, 866.8633
141.3930, 545.5195
142.6240, 702.9453
143.8540, 673.3613
145.0840, 854.1113
146.3140, 859.8809
147.5440, 930.2832
148.7730, 856.4297
150.0020, 617.6562
151.2320, 480.4512
152.4610, 530.1465
153.6900, 432.3086
154.9180, 558.4473
156.1470, 1056.539
157.3750, 1502.729
158.6040, 2333.137
159.8320, 3195.473
161.0600, 4037.893
162.2870, 5817.676
163.5150, 6834.625
164.7420, 7080.529
165.9700, 7109.393
167.1970, 6622.840
168.4240, 5547.066
169.6510, 4520.107
170.8770, 3682.629
172.1040, 2762.463
173.3300, 2275.797
174.5560, 1741.596
175.7820, 1482.902
177.0080, 1145.520
178.2340, 827.4219
179.4590, 707.9219
180.6850, 556.6328
181.9100, 366.5215
183.1350, 176.0781
184.3600, 103.0195
185.5850, 54.16016
186.8090, 6.037109
188.0340, 35.15234
189.2580, 51.67188
190.4820, 15.49609
191.7060, 91.71484
192.9300, 65.18164
194.1530, 9.109375
195.3770, 40.74219
196.6000, 161.5859
197.8230, 136.2363
199.0460, 265.3574
200.2690, 246.3477
201.4910, 569.1797
202.7140, 119.8281
203.9360, 440.2559
205.1580, 324.4609
206.3800, 153.4785
207.6020, 113.3027
208.8240, 240.9258
210.0450, 365.3438
211.2670, 472.5527
212.4880, 480.5488
213.7090, 488.3340
214.9300, 404.8906
216.1510, 430.3340
217.3710, 284.1855
218.5920, 508.6523
219.8120, 201.1582
221.0320, 409.7227
222.2520, 573.5938
223.4720, 775.2520
224.6910, 881.6445
225.9110, 1007.961
227.1300, 1089.172
228.3490, 1303.449
229.5680, 1429.363
230.7870, 1524.502
232.0050, 1685.254
233.2240, 1744.824
234.4420, 1829.174
235.6600, 1976.652
236.8780, 1874.121
238.0960, 2018.561
239.3140, 2312.109
240.5310, 2498.195
241.7490, 2861.188
242.9660, 2705.996
244.1830, 3367.031
245.4000, 3364.098
246.6160, 3677.871
247.8330, 4099.613
249.0490, 5034.656
250.2660, 5461.605
251.4820, 6528.572
252.6980, 7906.133
253.9130, 8720.504
255.1290, 10552.74
256.3440, 11916.35
257.5600, 12974.80
258.7750, 14078.06
259.9900, 15216.38
261.2040, 16352.46
262.4190, 17034.38
263.6330, 16826.13
264.8480, 16642.35
266.0620, 15574.43
267.2760, 14456.37
268.4900, 12889.16
269.7030, 11402.83
270.9170, 10280.38
272.1300, 8865.754
273.3430, 8022.492
274.5560, 6852.508
275.7690, 6191.262
276.9820, 5372.188
278.1940, 4894.939
279.4070, 4539.271
280.6190, 4010.648
281.8310, 3764.215
283.0430, 3370.172
284.2550, 3204.916
285.4660, 2970.445
286.6770, 2827.764
287.8890, 2888.242
289.1000, 2939.684
290.3110, 3213.258
291.5210, 3499.578
292.7320, 3907.654
293.9420, 4215.492
295.1530, 4636.105
296.3630, 4650.496
297.5730, 4038.680
298.7830, 3568.664
299.9920, 2702.430
301.2020, 2116.916
302.4110, 1787.064
303.6200, 1447.826
304.8290, 1235.137
306.0380, 1167.049
307.2470, 888.6523
308.4550, 918.0469
309.6630, 911.2598
310.8720, 758.2754
312.0800, 689.0840
313.2880, 771.6875
314.4950, 535.1152
315.7030, 288.3770
316.9100, 537.4551
318.1170, 431.3555
319.3240, 580.0645
320.5310, 517.6230
321.7380, 505.0469
322.9450, 373.3223
324.1510, 551.4551
325.3570, 348.4375
326.5630, 286.0664
327.7690, 131.7246
328.9750, 301.3047
330.1810, 308.0918
331.3860, 220.5547
332.5910, 286.7871
333.7960, 80.04297
335.0010, 183.2070
336.2060, 136.4102
337.4110, 77.40625
338.6150, 204.1836
339.8200, 3.923828
341.0240, 37.23828
342.2280, 613.9414
343.4320, 892.7305
344.6350, 722.2129
345.8390, 148.4473
347.0420, 58.84180
348.2450, 62.76562
349.4480, 76.75391
350.6510, 168.0293
351.8540, 205.3594
353.0560, 151.6641
354.2590, 20.50781
355.4610, 163.3613
356.6630, 124.9980
357.8650, 363.2148
359.0670, 42.29297
360.2680, 124.8320
361.4700, 105.6914
362.6710, 1.064453
363.8720, 154.2988
365.0730, 137.0820
366.2740, 42.38672
367.4740, 203.3984
368.6750, 173.8398
369.8750, 89.49023
371.0750, 145.3633
372.2750, 225.5000
373.4750, 116.8906
374.6740, 123.5195
375.8740, 234.3867
377.0730, 45.57031
378.2720, 102.0234
379.4710, 176.5820
380.6700, 199.6211
381.8690, 90.67188
383.0670, 414.5391
384.2660, 125.1562
385.4640, 123.6094
386.6620, 246.8281
387.8600, 548.8789
389.0570, 545.7461
390.2550, 638.8555
391.4520, 644.0664
392.6490, 690.4023
393.8460, 523.4922
395.0430, 587.3438
396.2400, 535.9531
397.4370, 998.4336
398.6330, 772.8320
399.8290, 1201.164
401.0250, 1287.484
402.2210, 1624.754
403.4170, 1823.988
404.6130, 2245.168
405.8080, 2845.312
407.0030, 3295.449
408.1980, 4181.859
409.3930, 4396.781
410.5880, 4048.816
411.7830, 3644.363
412.9770, 2694.805
414.1720, 2267.980
415.3660, 1809.812
416.5600, 1613.043
417.7530, 1492.398
418.9470, 1483.586
420.1410, 1498.938
421.3340, 1492.395
422.5270, 1719.727
423.7200, 1827.246
424.9130, 1835.531
426.1060, 2030.934
427.2980, 1905.535
428.4900, 1840.395
429.6830, 2191.219
430.8750, 2598.426
432.0670, 2661.484
433.2580, 2768.633
434.4500, 2840.875
435.6410, 3118.762
436.8320, 3489.832
438.0240, 3695.066
439.2140, 3950.594
440.4050, 4321.227
441.5960, 4617.625
442.7860, 5152.984
443.9760, 5722.562
445.1670, 6582.258
446.3560, 7400.422
447.5460, 8446.047
448.7360, 9987.312
449.9250, 11838.32
451.1150, 13956.98
452.3040, 16766.31
453.4930, 20817.29
454.6810, 25682.68
455.8700, 31748.79
457.0590, 39588.94
458.2470, 50309.95
459.4350, 62730.57
460.6230, 75698.30
461.8110, 87383.56
462.9980, 92564.22
464.1860, 91590.45
465.3730, 83529.48
466.5600, 71622.83
467.7470, 59065.80
468.9340, 48167.77
470.1210, 38720.12
471.3080, 31765.98
472.4940, 25830.20
473.6800, 21633.36
474.8660, 18099.66
476.0520, 15742.42
477.2380, 13531.06
478.4230, 12006.77
479.6090, 10500.98
480.7940, 9258.453
481.9790, 8300.652
483.1640, 7700.242
484.3490, 6950.250
485.5330, 6353.824
486.7180, 6178.449
487.9020, 5707.238
489.0860, 5528.496
490.2700, 5403.289
491.4540, 5347.691
492.6370, 5559.531
493.8210, 5751.820
495.0040, 5959.398
496.1870, 6194.328
497.3700, 5935.812
498.5530, 5769.320
499.7360, 5250.676
500.9180, 4722.652
502.1000, 4213.750
503.2830, 3751.844
504.4650, 3104.848
505.6460, 2963.418
506.8280, 2590.336
508.0100, 2466.004
509.1910, 2319.836
510.3720, 2343.230
511.5530, 2177.512
512.7340, 2284.898
513.9150, 2408.793
515.0950, 2198.988
516.2760, 2193.484
517.4560, 2132.875
518.6360, 2176.043
519.8160, 2021.453
520.9950, 1963.535
522.1750, 1935.844
523.3540, 2014.090
524.5340, 2089.102
525.7130, 1791.527
526.8920, 1676.227
528.0700, 1657.566
529.2490, 1481.102
530.4270, 1563.340
531.6060, 1459.809
532.7840, 1440.441
533.9620, 1278.566
535.1390, 1469.535
536.3170, 1273.641
537.4940, 1094.480
538.6720, 1269.445
539.8490, 1089.113
541.0260, 1277.207
542.2030, 1241.625
543.3790, 1422.906
544.5560, 1394.176
545.7320, 1312.812
546.9080, 1271.184
548.0840, 1362.828
549.2600, 1137.773
550.4360, 1004.348
551.6110, 1276.801
552.7860, 1114.555
553.9620, 1122.496
555.1370, 928.8984
556.3110, 1232.758
557.4860, 1103.277
558.6610, 1039.668
559.8350, 1048.500
561.0090, 972.1953
562.1830, 916.0742
563.3570, 910.0117
564.5310, 829.6680
565.7040, 848.9336
566.8780, 792.4883
568.0510, 706.9062
569.2240, 850.1953
570.3970, 822.3477
571.5700, 694.3672
572.7420, 693.2578
573.9150, 638.0117
575.0870, 818.6211
576.2590, 868.1055
577.4310, 1028.465
578.6030, 953.7969
579.7740, 848.8086
580.9460, 789.7891
582.1170, 808.6406
583.2880, 783.3633
584.4590, 697.9609
585.6300, 1113.418
586.8010, 966.7656
587.9710, 1059.984
589.1410, 876.0859
590.3110, 1124.059
591.4810, 890.9180
592.6510, 1383.660
593.8210, 1007.289
594.9900, 1196.809
596.1600, 921.2188
597.3290, 1277.520
598.4980, 1580.711
599.6670, 1251.809
600.8350, 1384.805
602.0040, 1168.707
603.1720, 1373.508
604.3400, 1555.207
605.5080, 1449.805
606.6760, 1760.309
607.8440, 1875.711
609.0120, 1803.023
610.1790, 1676.242
611.3460, 1838.367
612.5130, 1559.418
613.6800, 1266.379
614.8470, 1846.254
616.0130, 1824.047
617.1800, 1880.746
618.3460, 2457.367
619.5120, 1868.898
620.6780, 2069.348
621.8440, 2121.746
623.0090, 1972.062
624.1750, 2274.301
625.3400, 2274.648
626.5050, 2106.188
627.6700, 2163.184
628.8350, 1411.461
629.9990, 1563.512
631.1640, 1478.219
632.3280, 1441.398
633.4920, 1571.656
634.6560, 1525.172
635.8200, 1166.801
636.9840, 1138.234
638.1470, 1245.598
639.3100, 1399.949
640.4730, 1373.219
641.6360, 1529.398
642.7990, 1545.496
643.9620, 1343.512
645.1240, 1388.484
646.2870, 1181.379
647.4490, 1156.191
648.6110, 1213.918
649.7730, 1305.582
650.9340, 1359.230
652.0960, 920.2773
653.2570, 1251.598
654.4180, 795.8281
655.5790, 662.2930
656.7400, 568.6797
657.9010, 374.6562
659.0620, 263.7930
660.2220, 203.4258
661.3820, 49.49609
662.5420, 73.15625
663.7020, 85.41016
664.8620, 85.85938
666.0210, 62.23828
667.1810, 89.01562
668.3400, 222.1680
669.4990, 0.8281250
670.6580, 160.9570
671.8170, 118.9727
672.9750, 56.18750
674.1340, 4.324219
675.2920, 66.93359
676.4500, 75.84375
677.6080, 82.90625
678.7660, 240.1562
679.9230, 279.7305
681.0810, 369.5742
682.2380, 158.7383
683.3950, 177.9180
684.5520, 103.4180
685.7090, 166.3281
686.8660, 252.5898
688.0220, 148.0664
689.1780, 1.105469
690.3340, 129.1602
691.4900, 232.0078
692.6460, 134.2266
693.8020, 55.16016
694.9570, 102.1406
696.1130, 138.2617
697.2680, 232.7070
698.4230, 156.7617
699.5780, 455.7266
700.7320, 397.2500
701.8870, 721.4258
703.0410, 1035.469
704.1950, 849.0781
705.3490, 1357.668
706.5030, 1612.934
707.6570, 2208.742
708.8110, 2571.059
709.9640, 2952.230
711.1170, 3350.656
712.2700, 3666.043
713.4230, 3929.113
714.5760, 4175.852
715.7280, 4502.703
716.8810, 4424.141
718.0330, 4445.180
719.1850, 4190.688
720.3370, 3991.863
721.4890, 3748.031
722.6400, 3622.016
723.7920, 3282.555
724.9430, 3135.746
726.0940, 2977.242
727.2450, 2615.047
728.3960, 2321.996
729.5460, 2364.906
730.6970, 1985.754
731.8470, 2189.828
732.9970, 2611.004
734.1470, 2471.887
735.2970, 2435.539
736.4460, 2034.270
737.5960, 2172.914
738.7450, 1817.477
739.8940, 1838.953
741.0430, 2049.246
742.1920, 1592.555
743.3410, 1823.785
744.4890, 1451.930
745.6370, 1638.992
746.7850, 1559.547
747.9330, 1534.059
749.0810, 1531.879
750.2290, 1272.645
751.3760, 1552.348
752.5240, 1441.535
753.6710, 1069.672
754.8180, 1056.992
755.9650, 1378.789
757.1110, 1267.582
758.2580, 1093.508
759.4040, 1098.922
760.5510, 1095.520
761.6970, 1019.301
762.8420, 849.6250
763.9880, 777.4023
765.1340, 1033.465
766.2790, 787.9492
767.4240, 819.0078
768.5690, 638.6445
769.7140, 741.3398
770.8590, 707.6367
772.0030, 913.7227
773.1480, 827.2227
774.2920, 1134.289
775.4360, 1109.203
776.5800, 1308.277
777.7240, 2175.613
778.8670, 2231.324
780.0110, 2990.953
781.1540, 2663.508
782.2970, 2534.980
783.4400, 2513.375
784.5830, 1820.695
785.7250, 1408.934
786.8680, 1176.094
788.0100, 1081.176
789.1520, 713.1836
790.2940, 631.2070
791.4360, 642.0469
792.5780, 336.3906
793.7190, 339.0859
794.8600, 683.3008
796.0010, 342.8516
797.1420, 464.6250
798.2830, 327.0625
799.4240, 482.2617
800.5640, 400.7695
801.7050, 321.6133
802.8450, 205.4023
803.9850, 308.5508
805.1250, 63.12500
806.2640, 161.4336
807.4040, 74.28906
808.5430, 218.0547
809.6820, 441.9766
810.8210, 382.9609
811.9600, 450.7734
813.0990, 472.3984
814.2370, 802.1875
815.3760, 827.4219
816.5140, 781.3867
817.6520, 948.7266
818.7900, 602.9648
819.9270, 532.0430
821.0650, 530.7969
822.2020, 323.7695
823.3390, 330.2578
824.4760, 288.5156
825.6130, 278.3945
826.7500, 337.5391
827.8870, 425.6758
829.0230, 434.8711
830.1590, 617.7070
831.2950, 535.4297
832.4310, 796.5859
833.5670, 840.9258
834.7030, 949.7305
835.8380, 1056.215
836.9730, 1077.930
838.1080, 1447.441
839.2430, 1794.352
840.3780, 1977.613
841.5130, 2160.113
842.6470, 2065.434
843.7810, 1581.789
844.9150, 1685.086
846.0490, 1537.379
847.1830, 1327.645
848.3170, 1425.883
849.4500, 1367.090
850.5830, 1642.273
851.7160, 1281.453
852.8490, 1783.613
853.9820, 1449.758
855.1150, 1557.941
856.2470, 2004.137
857.3800, 2079.391
858.5120, 1967.629
859.6440, 1881.844
860.7760, 1655.031
861.9070, 1625.191
863.0390, 1515.328
864.1700, 1341.434
865.3010, 1508.504
866.4320, 1195.539
867.5630, 1483.531
868.6940, 1386.480
869.8240, 1404.395
870.9540, 1347.270
872.0850, 1295.492
873.2150, 1184.543
874.3450, 1143.699
875.4740, 873.4570
876.6040, 668.2266
877.7330, 443.9961
878.8620, 888.7578
879.9910, 643.4883
881.1200, 643.1836
882.2490, 246.8477
883.3770, 236.4727
884.5060, 431.0547
885.6340, 61.39062
886.7620, 127.0977
887.8900, 1.531250
889.0180, 221.9141
890.1450, 158.2500
891.2730, 262.5391
892.4000, 241.7852
893.5270, 189.9844
894.6540, 293.1367
895.7810, 228.2461
896.9070, 164.3203
898.0340, 14.33984
899.1600, 124.1445
900.2860, 35.62109
901.4120, 152.4883
902.5380, 233.9414
903.6630, 314.4961
904.7890, 278.1367
905.9140, 352.4688
907.0390, 144.4961
908.1640, 24.14062
909.2890, 64.12891
910.4130, 110.1250
911.5380, 97.39453
912.6620, 223.0078
913.7860, 515.3711
914.9100, 516.6953
916.0340, 635.9805
917.1580, 603.2266
918.2810, 659.4414
919.4040, 731.6172
920.5280, 721.4102
921.6510, 755.1797
922.7730, 760.9141
923.8960, 687.9375
925.0180, 711.5000
926.1410, 518.6953
927.2630, 691.9180
928.3850, 732.8438
929.5070, 515.7656
930.6280, 288.1133
931.7500, 652.0273
932.8710, 561.4453
933.9920, 136.2812
935.1130, 151.7578
936.2340, 379.9492
937.3550, 244.8672
938.4760, 85.30078
939.5960, 262.1992
940.7160, 152.9297
941.8360, 136.2656
942.9560, 215.7578
944.0760, 735.3203
945.1950, 19.13672
946.3150, 236.1523
947.4340, 101.4219
948.5530, 67.71484
949.6720, 95.05078
950.7900, 22.85938
951.9090, 28.43359
953.0270, 293.4883
954.1460, 22.44922
955.2640, 155.6484
956.3820, 18.76953
957.4990, 138.9727
958.6170, 387.0469
959.7340, 496.9609
960.8520, 692.4297
961.9690, 599.7930
963.0860, 955.1094
964.2020, 1156.469
965.3190, 1150.652
966.4350, 1689.961
967.5520, 1607.254
968.6680, 1890.184
969.7840, 1694.637
970.8990, 1982.969
972.0150, 1892.570
973.1310, 2565.043
974.2460, 2785.000
975.3610, 2724.258
976.4760, 3582.293
977.5910, 4242.742
978.7050, 5532.859
979.8200, 6894.723
980.9340, 8671.797
982.0480, 11722.16
983.1620, 14965.29
984.2760, 19363.31
985.3900, 23425.04
986.5030, 26067.07
987.6160, 25610.77
988.7300, 23254.22
989.8430, 19286.01
990.9550, 15461.03
992.0680, 12867.26
993.1810, 11091.78
994.2930, 10249.24
995.4050, 10233.28
996.5170, 10719.93
997.6290, 11296.75
998.7410, 12228.07
999.8520, 14888.96
1000.964, 17627.81
1002.075, 19805.60
1003.186, 19146.64
1004.297, 15562.47
1005.407, 11550.68
1006.518, 7929.688
1007.628, 6211.727
1008.738, 4955.594
1009.848, 4537.148
1010.958, 3972.973
1012.068, 3600.129
1013.178, 3025.215
1014.287, 2611.520
1015.396, 2153.160
1016.505, 1514.008
1017.614, 1297.891
1018.723, 1499.141
1019.831, 1438.918
1020.940, 1085.750
1022.048, 1042.977
1023.156, 1020.109
1024.264, 1400.938
1025.372, 1432.145
1026.479, 1726.219
1027.587, 1532.031
1028.694, 2001.227
1029.801, 2050.094
1030.908, 2481.648
1032.015, 2481.578
1033.121, 2217.867
1034.228, 2266.078
1035.334, 1858.125
1036.440, 1979.234
1037.546, 1648.625
1038.652, 1521.492
1039.758, 1546.594
1040.863, 1535.648
1041.968, 1286.133
1043.074, 1360.922
1044.178, 1459.672
1045.283, 1152.195
1046.388, 1466.312
1047.492, 1636.938
1048.597, 2134.500
1049.701, 2261.008
1050.805, 2520.461
1051.909, 2973.867
1053.012, 3309.211
1054.116, 3659.508
1055.219, 4705.742
1056.322, 4744.930
1057.425, 5021.062
1058.528, 5615.141
1059.631, 5119.172
1060.733, 4857.141
1061.836, 3867.062
1062.938, 3663.945
1064.040, 3278.539
1065.142, 3019.312
1066.243, 2515.047
1067.345, 2374.875
1068.446, 1989.164
1069.547, 1360.297
1070.648, 1365.430
1071.749, 1376.852
1072.850, 1112.969
1073.951, 1279.828
1075.051, 646.4141
1076.151, 868.3203
1077.251, 643.0391
1078.351, 700.5938
1079.451, 459.8281
1080.550, 1026.789
1081.650, 695.8906
1082.749, 593.9688
1083.848, 827.6797
1084.947, 379.7031
1086.046, 598.4219
1087.144, 540.4375
1088.243, 322.4531
1089.341, 194.8281
1090.439, 96.63281
1091.537, 255.8594
1092.635, 173.5938
1093.732, 107.5156
1094.830, 306.3984
1095.927, 54.75781
1097.024, 425.9531
1098.121, 130.4219
1099.218, 154.0391
1100.314, 315.5781
1101.411, 5.468750
1102.507, 130.5391
1103.603, 183.5391
1104.699, 197.8125
1105.795, 142.3125
1106.890, 83.99219
1107.986, 36.18750
1109.081, 58.27344
1110.176, 122.0000
1111.271, 48.82031
1112.366, 110.9688
1113.461, 271.6641
1114.555, 77.33594
1115.649, 331.9219
1116.744, 50.57812
1117.838, 69.79688
1118.931, 51.90625
1120.025, 176.2422
1121.119, 118.7969
1122.212, 267.0078
1123.305, 0.4609380
1124.398, 120.0078
1125.491, 360.3594
1126.584, 38.64844
1127.676, 21.83594
1128.768, 239.9297
1129.861, 344.0156
1130.953, 671.9609
1132.044, 733.8516
1133.136, 711.6797
1134.228, 599.4531
1135.319, 637.1484
1136.410, 294.7891
1137.501, 90.35938
1138.592, 69.85938
1139.683, 21.28125
1140.773, 136.3828
1141.864, 78.09375
1142.954, 36.89062
1144.044, 231.2656
1145.134, 166.3359
1146.224, 311.3516
1147.313, 110.3438
1148.402, 319.2734
1149.492, 364.1406
1150.581, 457.0391
1151.670, 1034.891
1152.758, 844.7031
1153.847, 668.5078
1154.935, 1202.305
1156.024, 1275.094
1157.112, 1640.844
1158.200, 1129.531
1159.287, 807.1641
1160.375, 763.7578
1161.462, 1126.289
1162.550, 647.7656
1163.637, 806.1953
1164.724, 577.5781
1165.810, 484.9062
1166.897, 298.1719
1167.983, 539.3672
1169.070, 137.5078
1170.156, 382.5703
1171.242, 735.5781
1172.327, 748.5078
1173.413, 920.4062
1174.499, 1202.250
1175.584, 1156.055
1176.669, 1191.812
1177.754, 1280.508
1178.839, 1673.156
1179.923, 1583.750
1181.008, 1591.289
1182.092, 1203.773
1183.176, 1599.203
1184.260, 1444.570
1185.344, 1686.883
1186.428, 1748.141
1187.511, 2145.344
1188.595, 2259.484
1189.678, 2334.578
1190.761, 2039.609
1191.843, 2125.594
1192.926, 1702.523
1194.009, 1883.391
1195.091, 1749.195
1196.173, 1412.953
1197.255, 1163.656
1198.337, 1109.305
1199.419, 1173.898
1200.500, 1214.445
1201.582, 1495.938
1202.663, 1117.375
1203.744, 1259.766
1204.825, 1485.117
1205.905, 834.4219
1206.986, 543.6797
1208.066, 816.8281
1209.146, 305.9844
1210.226, 964.2500
1211.306, 988.2969
1212.386, 1016.312
1213.466, 1070.039
1214.545, 1006.961
1215.624, 1201.680
1216.703, 1128.266
1217.782, 1259.555
1218.861, 1240.781
1219.939, 1310.609
1221.018, 1286.891
1222.096, 1314.578
1223.174, 1541.352
1224.252, 1355.203
1225.330, 1690.125
1226.407, 2141.141
1227.485, 2722.852
1228.562, 2309.383
1229.639, 2139.969
1230.716, 2531.805
1231.793, 2620.109
1232.869, 2012.953
1233.946, 2178.172
1235.022, 1443.727
1236.098, 1752.922
1237.174, 1795.500
1238.250, 1508.273
1239.325, 2230.938
1240.401, 1332.438
1241.476, 1005.422
1242.551, 1144.867
1243.626, 1043.297
1244.701, 871.4531
1245.776, 969.7031
1246.850, 867.7422
1247.924, 969.1797
1248.999, 849.4844
1250.073, 620.8906
1251.146, 585.2422
1252.220, 546.7344
1253.293, 439.9453
1254.367, 848.4531
1255.440, 481.5156
1256.513, 783.2891
1257.586, 1126.320
1258.658, 433.6719
1259.731, 1137.133
1260.803, 1378.234
1261.875, 1140.328
1262.947, 1639.234
1264.019, 1725.961
1265.091, 2281.805
1266.162, 2005.188
1267.234, 2056.289
1268.305, 2312.062
1269.376, 2550.352
1270.447, 2508.727
1271.517, 2857.922
1272.588, 2594.461
1273.658, 2451.219
1274.729, 2993.820
1275.799, 3357.930
1276.868, 3215.852
1277.938, 3619.180
1279.008, 4147.117
1280.077, 4736.719
1281.146, 5380.469
1282.215, 5256.555
1283.284, 6197.461
1284.353, 6621.547
1285.421, 7798.438
1286.490, 8069.133
1287.558, 7721.766
1288.626, 7879.914
1289.694, 7684.852
1290.762, 7876.453
1291.829, 7210.164
1292.897, 7482.977
1293.964, 7347.148
1295.031, 6668.906
1296.098, 6387.859
1297.165, 5984.797
1298.231, 5773.008
1299.298, 5718.227
1300.364, 4644.562
1301.430, 4783.859
1302.496, 4159.117
1303.562, 3855.359
1304.627, 3813.555
1305.693, 3517.719
1306.758, 3834.836
1307.823, 3760.930
1308.888, 4002.992
1309.953, 3680.016
1311.018, 3651.992
1312.082, 3567.938
1313.146, 3446.336
1314.210, 3438.703
1315.274, 3151.531
1316.338, 3277.305
1317.402, 2753.047
1318.465, 2216.750
1319.529, 2259.398
1320.592, 1629.008
1321.655, 1893.562
1322.718, 1737.078
1323.780, 934.5469
1324.843, 1409.969
1325.905, 1525.336
1326.967, 1259.664
1328.029, 1347.922
1329.091, 1236.117
1330.153, 1817.250
1331.214, 1283.375
1332.275, 1107.469
1333.337, 1312.562
1334.398, 909.6406
1335.458, 1287.297
1336.519, 765.3516
1337.580, 836.9922
1338.640, 830.0234
1339.700, 1003.047
1340.760, 982.0469
1341.820, 1102.039
1342.880, 725.0234
1343.939, 955.9844
1344.999, 1067.930
1346.058, 1359.844
1347.117, 1277.758
1348.176, 1254.648
1349.235, 1005.547
1350.293, 1030.508
1351.351, 866.4688
1352.410, 827.4766
1353.468, 672.4609
1354.526, 464.4766
1355.583, 462.4688
1356.641, 195.5078
1357.698, 6.523438
1358.756, 437.6328
1359.813, 563.7422
1360.869, 150.8516
1361.926, 974.0078
1362.983, 279.1953
1364.039, 338.2500
1365.095, 325.1641
1366.152, 471.0547
1367.207, 655.8359
1368.263, 259.4453
1369.319, 554.4141
1370.374, 149.1328
1371.430, 622.1797
1372.485, 557.4609
1373.540, 580.0938
1374.594, 315.3438
1375.649, 321.8594
1376.703, 636.4219
1377.758, 253.6953
1378.812, 382.0000
1379.866, 528.3672
1380.920, 311.6953
1381.973, 559.0469
1383.027, 473.3750
1384.080, 247.5156
1385.133, 956.5938
1386.186, 425.2656
1387.239, 1117.680
1388.291, 775.6172
1389.344, 393.1641
1390.396, 603.3984
1391.448, 600.3203
1392.500, 127.8594
1393.552, 257.0312
1394.604, 0.7421880
1395.655, 454.3047
1396.707, 428.6562
1397.758, 159.4922
1398.809, 234.5781
1399.860, 453.1094
1400.910, 182.6484
1401.961, 188.7188
1403.011, 303.6328
1404.061, 175.5859
1405.111, 335.8750
1406.161, 270.0234
1407.211, 193.5156
1408.260, 102.2344
1409.310, 114.9609
1410.359, 133.4297
1411.408, 384.8984
1412.457, 186.2344
1413.506, 885.3750
1414.554, 547.4766
1415.603, 350.7969
1416.651, 1009.305
1417.699, 401.2656
1418.747, 621.2812
1419.794, 724.7031
1420.842, 1377.484
1421.889, 1411.188
1422.937, 1297.133
1423.984, 1888.953
1425.031, 1714.695
1426.077, 1635.047
1427.124, 2186.352
1428.170, 2384.602
1429.217, 2679.188
1430.263, 3047.117
1431.309, 3403.898
1432.354, 3811.547
1433.400, 4305.734
1434.445, 4757.664
1435.491, 5339.688
1436.536, 5992.094
1437.581, 6473.750
1438.625, 6965.914
1439.670, 7217.398
1440.714, 7793.688
1441.759, 7879.758
1442.803, 8176.203
1443.847, 7801.773
1444.890, 7342.305
1445.934, 6400.250
1446.978, 6804.922
1448.021, 6197.320
1449.064, 6191.500
1450.107, 6081.242
1451.150, 6068.977
1452.192, 6080.977
1453.235, 5832.008
1454.277, 5605.188
1455.319, 5779.547
1456.361, 5166.852
1457.403, 4927.148
1458.445, 5323.461
1459.486, 4830.773
1460.528, 4429.094
1461.569, 4458.414
1462.610, 4404.734
1463.651, 4255.062
1464.691, 3990.789
1465.732, 3822.719
1466.772, 3262.047
1467.812, 3027.945
1468.852, 2627.133
1469.892, 2477.078
1470.932, 2557.367
1471.971, 1981.242
1473.011, 2142.164
1474.050, 2268.891
1475.089, 2095.438
1476.128, 2072.414
1477.166, 2019.203
1478.205, 1789.531
1479.243, 1906.906
1480.282, 1833.609
1481.320, 1881.672
1482.357, 1666.641
1483.395, 1776.742
1484.433, 1735.695
1485.470, 1550.508
1486.507, 1924.766
1487.544, 1400.930
1488.581, 1359.133
1489.618, 942.4297
1490.655, 1143.328
1491.691, 737.7812
1492.727, 1337.969
1493.763, 601.9609
1494.799, 845.5547
1495.835, 787.0234
1496.871, 897.2188
1497.906, 568.4688
1498.941, 738.4922
1499.976, 706.7188
1501.011, 522.4531
1502.046, 677.0078
1503.081, 966.4844
1504.115, 720.8906
1505.149, 943.2266
1506.183, 799.5156
1507.217, 795.7500
1508.251, 475.9141
1509.285, 488.0703
1510.318, 568.2109
1511.352, 228.3594
1512.385, 168.5156
1513.418, 598.7031
1514.450, 666.9375
1515.483, 499.2344
1516.516, 207.6562
1517.548, 176.7422
1518.580, 42.78125
1519.612, 986.1172
1520.644, 1238.266
1521.675, 401.1953
1522.707, 722.8984
1523.738, 489.3750
1524.769, 522.6797
1525.800, 182.8125
1526.831, 97.25781
1527.862, 242.5625
1528.892, 480.2578
1529.923, 170.2656
1530.953, 453.9766
1531.983, 123.9219
1533.013, 290.5859
1534.042, 400.5547
1535.072, 424.7656
1536.101, 421.8359
1537.131, 288.6641
1538.160, 725.4844
1539.188, 417.2344
1540.217, 45.68750
1541.246, 499.2812
1542.274, 744.2891
1543.302, 388.3672
1544.330, 235.7422
1545.358, 547.1797
1546.386, 713.3906
1547.413, 1156.594
1548.441, 622.0156
1549.468, 836.9297
1550.495, 812.1328
1551.522, 779.3438
1552.549, 573.2422
1553.575, 588.3594
1554.602, 438.2031
1555.628, 484.5547
1556.654, 410.7422
1557.680, 263.6328
1558.706, 227.0391
1559.731, 407.9922
1560.757, 294.8828
1561.782, 319.1016
1562.807, 521.4609
1563.832, 517.5000
1564.857, 571.9609
1565.881, 69.39844
1566.906, 418.6172
1567.930, 86.26562
1568.954, 401.8359
1569.978, 613.8828
1571.002, 351.4062
1572.025, 14.39062
1573.049, 604.7656
1574.072, 126.3203
1575.095, 237.1250
1576.118, 289.3750
1577.141, 204.8672
1578.164, 0.0000000E+00
##END=



