##NAMES=Sphalerite
##RRUFFID=R050237
##IDEAL CHEMISTRY=Zn^2+^S^2-^
##LOCALITY=Picos de Europa, Spain
##OWNER=RRUFF
##SOURCE=Marcus Origlieri
##DESCRIPTION=Green single crystal
##STATUS=The identification of this mineral has been confirmed by X-ray diffraction and chemical analysis
##URL=rruff.info/R050237
##MEASURED CHEMISTRY=Zn_1.00_S_1.00_
##PIN_ID=L00430
##ORIENTATION=Laser parallel to a* (1 0 0). Fiducial mark perpendicular to laser is parallel to b [0 1 0]
96.161, 0.000
97.554, 224.067
98.947, 11.974
100.340, 310.326
101.732, 480.383
103.124, 284.968
104.516, 836.801
105.908, 212.202
107.300, 290.830
108.691, 1.502
110.082, 124.942
111.473, 68.491
112.864, 18.018
114.254, 401.892
115.644, 968.549
117.034, 1648.857
118.424, 2078.633
119.813, 1714.284
121.203, 1682.322
122.592, 1449.351
123.981, 1477.323
125.369, 1573.199
126.758, 1757.594
128.146, 2056.072
129.534, 2509.486
130.922, 3398.699
132.309, 3759.587
133.696, 4756.039
135.083, 5520.969
136.470, 7126.621
137.857, 8422.284
139.243, 10245.779
140.630, 10670.900
142.016, 10960.595
143.401, 11219.831
144.787, 11608.587
146.172, 11670.841
147.557, 11984.584
148.942, 12164.819
150.327, 12480.597
151.711, 12604.983
153.096, 12997.021
154.480, 13406.719
155.863, 13501.063
157.247, 13828.030
158.630, 14200.595
160.013, 14330.724
161.396, 14900.388
162.779, 15419.558
164.161, 16009.201
165.544, 16399.307
166.926, 17158.848
168.308, 17860.803
169.689, 18726.166
171.070, 19718.936
172.452, 21105.092
173.833, 22407.717
175.213, 23872.586
176.594, 25206.510
177.974, 25011.010
179.354, 24587.445
180.734, 22692.736
182.114, 20499.053
183.493, 18980.412
184.872, 18024.838
186.251, 16931.307
187.630, 16212.816
189.008, 15557.480
190.387, 15436.313
191.765, 15301.331
193.143, 14932.537
194.520, 14639.941
195.898, 14240.545
197.275, 13857.354
198.652, 13791.378
200.029, 13835.724
201.405, 13876.899
202.782, 14153.048
204.158, 14449.206
205.534, 15420.338
206.909, 16970.346
208.285, 18081.068
209.660, 20250.398
211.035, 23014.145
212.410, 25659.191
213.784, 29318.572
215.159, 32114.129
216.533, 33340.840
217.907, 33349.652
219.281, 31378.562
220.654, 28300.537
222.027, 25004.561
223.400, 22388.621
224.773, 19967.699
226.146, 18257.809
227.518, 16681.941
228.891, 15696.096
230.263, 14890.275
231.634, 14928.483
233.006, 15191.714
234.377, 15094.972
235.748, 14831.282
237.119, 13559.672
238.490, 11376.187
239.860, 8745.858
241.231, 6086.687
242.601, 4120.712
243.970, 2810.876
245.340, 1933.133
246.709, 1233.434
248.079, 641.775
249.448, 417.140
250.816, 11.512
252.185, 238.122
253.553, 376.769
254.921, 433.439
256.289, 487.137
257.657, 437.965
259.024, 393.063
260.391, 179.431
261.758, 254.489
263.125, 477.090
264.492, 1219.176
265.858, 1934.631
267.224, 3197.535
268.590, 4959.271
269.956, 6422.393
271.321, 8436.091
272.687, 9362.310
274.052, 9130.109
275.416, 7825.590
276.781, 6818.832
278.146, 5662.764
279.510, 4469.048
280.874, 3709.659
282.237, 3045.576
283.601, 2631.778
284.964, 2194.244
286.327, 1996.956
287.690, 2148.901
289.053, 2255.066
290.416, 2455.438
291.778, 3044.004
293.140, 3483.756
294.502, 4614.682
295.863, 5422.774
297.225, 6782.023
298.586, 7303.424
299.947, 7291.727
301.308, 6587.183
302.668, 5357.830
304.029, 4368.156
305.389, 3709.697
306.749, 3237.249
308.108, 2732.062
309.468, 2273.521
310.827, 1957.215
312.186, 1563.280
313.545, 1497.317
314.903, 874.858
316.262, 517.915
317.620, 81.743
318.978, 51.258
320.336, 346.242
321.693, 847.424
323.051, 1519.578
324.408, 2545.602
325.765, 3398.896
327.121, 4415.441
328.478, 5061.307
329.834, 6142.201
331.190, 7271.646
332.546, 8014.324
333.902, 8107.259
335.257, 8311.763
336.612, 8533.539
337.967, 9597.155
339.322, 10963.228
340.677, 13012.525
342.031, 16377.533
343.385, 20128.260
344.739, 25637.021
346.093, 32652.875
347.446, 43410.551
348.799, 52638.973
350.153, 49567.383
351.505, 36733.809
352.858, 24969.242
354.210, 18132.674
355.563, 14713.118
356.915, 12636.557
358.267, 12417.999
359.618, 11688.442
360.969, 11348.883
362.321, 11711.318
363.672, 12377.752
365.022, 12828.170
366.373, 13374.579
367.723, 13662.965
369.073, 14017.674
370.423, 14470.894
371.773, 15214.779
373.122, 15667.975
374.471, 15935.295
375.821, 16239.881
377.169, 15765.403
378.518, 15779.820
379.866, 15289.885
381.215, 15227.867
382.563, 15235.675
383.910, 15315.620
385.258, 15518.092
386.605, 15837.164
387.952, 16169.908
389.299, 16549.881
390.646, 16848.148
391.992, 17516.975
393.339, 17883.525
394.685, 18586.811
396.031, 18855.184
397.376, 19890.178
398.722, 18973.396
400.067, 18240.400
401.412, 16797.885
402.757, 15417.264
404.101, 14743.077
405.446, 13476.562
406.790, 12747.951
408.134, 12211.925
409.478, 11814.703
410.821, 11706.413
412.165, 11752.053
413.508, 11712.570
414.851, 12706.753
416.193, 13876.623
417.536, 14900.966
418.878, 15671.729
420.220, 16387.645
421.562, 16290.433
422.904, 15528.949
424.245, 15616.002
425.586, 15602.033
426.927, 15309.035
428.268, 15078.012
429.609, 14339.956
430.949, 13272.870
432.289, 12439.751
433.629, 11554.597
434.969, 10360.407
436.309, 9794.179
437.648, 9367.935
438.987, 9370.655
440.326, 9423.331
441.665, 9652.956
443.003, 9899.525
444.342, 10321.043
445.680, 10575.500
447.018, 10928.900
448.355, 10980.244
449.693, 10924.527
451.030, 10684.750
452.367, 9824.904
453.704, 8291.998
455.041, 5724.023
456.377, 3422.985
457.713, 1883.882
459.049, 896.707
460.385, 447.465
461.721, 136.142
463.056, 17.283
464.391, 326.869
465.726, 262.782
467.061, 338.989
468.395, 387.523
469.730, 410.399
471.064, 283.654
472.398, 469.208
473.731, 260.171
475.065, 400.434
476.398, 215.075
477.731, 257.003
479.064, 186.234
480.397, 207.736
481.729, 113.519
483.062, 79.550
484.394, 38.239
485.725, 0.858
487.057, 1.701
488.389, 21.438
489.720, 11.169
491.051, 178.526
492.382, 120.306
493.712, 156.949
495.043, 263.479
496.373, 240.895
497.703, 258.199
499.032, 308.387
500.362, 389.476
501.691, 410.454
503.020, 474.325
504.349, 474.093
505.678, 694.752
507.007, 742.316
508.335, 868.797
509.663, 1048.184
510.991, 1291.481
512.319, 1361.695
513.646, 1548.811
514.973, 1651.841
516.300, 1866.773
517.627, 2078.608
518.954, 2027.351
520.280, 1949.994
521.607, 1806.547
522.933, 1602.716
524.259, 1356.332
525.584, 1104.579
526.910, 996.729
528.235, 776.775
529.560, 651.720
530.885, 486.554
532.209, 407.271
533.534, 275.888
534.858, 253.384
536.182, 143.744
537.506, 77.957
538.829, 88.000
540.152, 89.880
541.476, 94.607
542.799, 62.168
544.121, 11.562
545.444, 35.999
546.766, 127.772
548.088, 95.624
549.410, 174.312
550.732, 283.853
552.053, 302.261
553.375, 326.536
554.696, 310.680
556.017, 349.689
557.337, 448.570
558.658, 485.326
559.978, 597.962
561.298, 608.479
562.618, 729.880
563.938, 793.167
565.257, 801.341
566.576, 885.402
567.895, 917.355
569.214, 1062.201
570.533, 1072.941
571.851, 1181.573
573.170, 1242.101
574.488, 1326.546
575.805, 1472.930
577.123, 1450.504
578.440, 1679.806
579.758, 1728.315
581.075, 1895.685
582.391, 2024.129
583.708, 2129.511
585.024, 2263.080
586.341, 2379.091
587.657, 2535.479
588.972, 2617.574
590.288, 2851.503
591.603, 3106.692
592.918, 3228.827
594.233, 3505.817
595.548, 3816.653
596.863, 4288.501
598.177, 4497.619
599.491, 5034.031
600.805, 5615.361
602.119, 6041.910
603.432, 6848.834
604.746, 7693.424
606.059, 8479.499
607.372, 9008.020
608.685, 9403.098
609.997, 9947.886
611.309, 10028.780
612.621, 10451.844
613.933, 10706.034
615.245, 11305.217
616.557, 11281.310
617.868, 10640.604
619.179, 9062.028
620.490, 7266.189
621.801, 5620.323
623.111, 4707.519
624.421, 3903.576
625.731, 3792.223
627.041, 3616.629
628.351, 3806.723
629.660, 4048.585
630.970, 4362.529
632.279, 5238.229
633.588, 7115.209
634.896, 8075.545
636.205, 8186.166
637.513, 9065.751
638.821, 9220.511
640.129, 9053.660
641.437, 8516.854
642.744, 7880.504
644.051, 6451.375
645.358, 5202.236
646.665, 3826.295
647.972, 2946.994
649.278, 2753.803
650.584, 2671.732
651.890, 2952.627
653.196, 3469.160
654.502, 4027.465
655.807, 4818.232
657.113, 5506.438
658.418, 6592.822
659.722, 7812.008
661.027, 9341.618
662.331, 11209.729
663.636, 13606.986
664.940, 16549.439
666.244, 19394.096
667.547, 22939.205
668.851, 24879.182
670.154, 25379.320
671.457, 23314.980
672.760, 20196.186
674.062, 17915.154
675.365, 15775.415
676.667, 14631.311
677.969, 13858.913
679.271, 13066.746
680.572, 12530.170
681.874, 12168.726
683.175, 11880.815
684.476, 11691.940
685.777, 11135.443
687.077, 11502.496
688.378, 10687.579
689.678, 10478.650
690.978, 10134.881
692.278, 9549.946
693.577, 8719.994
694.877, 8514.325
696.176, 7349.031
697.475, 6580.418
698.774, 5373.971
700.072, 4425.123
701.371, 3579.680
702.669, 2855.654
703.967, 2379.544
705.265, 2170.307
706.562, 1969.750
707.860, 1656.420
709.157, 1566.858
710.454, 1487.629
711.751, 1528.759
713.047, 1350.224
714.344, 1145.585
715.640, 1125.229
716.936, 1040.986
718.232, 978.020
719.527, 1045.068
720.823, 794.328
722.118, 801.450
723.413, 868.116
724.708, 676.991
726.002, 642.886
727.297, 643.438
728.591, 598.919
729.885, 527.324
731.179, 544.390
732.472, 359.668
733.766, 419.941
735.059, 349.914
736.352, 367.640
737.645, 325.152
738.937, 311.902
740.230, 293.397
741.522, 288.198
742.814, 224.610
744.106, 265.980
745.397, 276.369
746.689, 185.338
747.980, 169.512
749.271, 174.375
750.562, 182.290
751.853, 149.913
753.143, 55.825
754.433, 195.303
755.723, 184.714
757.013, 103.058
758.303, 223.331
759.592, 33.612
760.881, 126.749
762.170, 0.817
763.459, 66.812
764.748, 106.738
766.036, 50.597
767.325, 1.613
768.613, 10.895
769.901, 14.250
771.188, 123.319
772.476, 23.177
773.763, 40.256
775.050, 66.585
776.337, 21.933
777.624, 78.225
778.910, 52.577
780.196, 55.024
781.482, 88.586
782.768, 40.891
784.054, 63.548
785.339, 23.961
786.625, 20.281
787.910, 10.438
789.195, 30.244
790.479, 6.088
791.764, 20.018
793.048, 11.895
794.332, 27.589
795.616, 2.009
796.900, 37.053
798.183, 0.937
799.467, 10.163
800.750, 18.718
802.033, 18.405
803.316, 34.554
804.598, 42.241
805.880, 66.998
807.163, 11.306
808.445, 36.666
809.726, 18.915
811.008, 65.546
812.289, 43.916
813.570, 87.333
814.851, 24.099
816.132, 118.025
817.413, 20.696
818.693, 62.479
819.973, 11.660
821.253, 34.256
822.533, 53.238
823.813, 71.700
825.092, 50.409
826.371, 14.405
827.650, 49.169
828.929, 27.115
830.208, 24.535
831.486, 73.136
832.764, 23.312
834.042, 73.180
835.320, 21.626
836.598, 11.977
837.875, 82.365
839.152, 10.336
840.429, 85.910
841.706, 128.118
842.983, 94.711
844.259, 28.619
845.536, 115.428
846.812, 12.141
848.088, 30.444
849.363, 22.571
850.639, 57.610
851.914, 29.313
853.189, 37.776
854.464, 38.887
855.739, 8.989
857.013, 76.866
858.288, 12.268
859.562, 6.415
860.836, 14.414
862.110, 103.230
863.383, 55.022
864.656, 155.816
865.930, 133.586
867.203, 73.333
868.475, 23.049
869.748, 89.735
871.020, 15.392
872.292, 114.012
873.564, 108.601
874.836, 131.156
876.108, 66.682
877.379, 30.172
878.650, 8.623
879.922, 73.038
881.192, 73.439
882.463, 74.805
883.733, 139.135
885.004, 71.435
886.274, 55.464
887.544, 110.691
888.813, 152.632
890.083, 186.632
891.352, 112.436
892.621, 156.160
893.890, 65.789
895.159, 141.373
896.427, 133.669
897.695, 112.120
898.964, 195.592
900.232, 128.679
901.499, 185.680
902.767, 155.685
904.034, 256.703
905.301, 121.571
906.568, 281.029
907.835, 220.055
909.102, 334.022
910.368, 225.631
911.634, 186.728
912.900, 305.017
914.166, 263.683
915.432, 339.764
916.697, 315.146
917.962, 210.683
919.227, 337.968
920.492, 235.951
921.757, 242.666
923.021, 328.249
924.285, 354.787
925.550, 266.981
926.813, 377.146
928.077, 244.408
929.341, 363.474
930.604, 256.762
931.867, 278.929
933.130, 275.454
934.393, 282.910
935.655, 397.985
936.918, 200.002
938.180, 391.052
939.442, 318.235
940.703, 264.115
941.965, 324.060
943.226, 317.883
944.488, 135.984
945.749, 306.369
947.009, 387.087
948.270, 226.985
949.530, 160.202
950.791, 243.838
952.051, 357.146
953.311, 216.178
954.570, 234.111
955.830, 270.292
957.089, 248.057
958.348, 269.898
959.607, 317.567
960.866, 277.896
962.124, 277.667
963.383, 267.065
964.641, 289.193
965.899, 228.977
967.156, 243.605
968.414, 193.745
969.671, 230.437
970.928, 180.237
972.185, 171.739
973.442, 220.278
974.699, 409.413
975.955, 250.346
977.211, 340.486
978.468, 221.043
979.723, 375.807
980.979, 262.923
982.234, 306.443
983.490, 423.108
984.745, 241.622
986.000, 313.457
987.254, 412.284
988.509, 368.183
989.763, 415.257
991.017, 351.449
992.271, 348.515
993.525, 449.859
994.779, 523.803
996.032, 484.256
997.285, 527.600
998.538, 461.741
999.791, 480.647
1001.044, 550.258
1002.296, 483.103
1003.548, 512.828
1004.800, 529.723
1006.052, 492.076
1007.304, 506.039
1008.555, 495.838
1009.807, 466.479
1011.058, 544.856
1012.309, 493.823
1013.559, 500.853
1014.810, 575.106
1016.060, 554.188
1017.310, 475.562
1018.560, 513.948
1019.810, 457.006
1021.060, 539.652
1022.309, 525.110
1023.558, 495.071
1024.807, 581.045
1026.056, 533.125
1027.305, 482.904
1028.553, 456.225
1029.801, 461.405
1031.049, 648.288
1032.297, 545.766
1033.545, 620.348
1034.793, 746.507
1036.040, 602.721
1037.287, 646.137
1038.534, 598.764
1039.781, 667.841
1041.027, 656.821
1042.274, 567.432
1043.520, 581.981
1044.766, 529.122
1046.012, 602.662
1047.257, 504.397
1048.503, 537.396
1049.748, 634.371
1050.993, 366.563
1052.238, 615.298
1053.483, 548.842
1054.727, 541.723
1055.971, 413.033
1057.216, 551.241
1058.459, 489.630
1059.703, 450.903
1060.947, 424.441
1062.190, 400.192
1063.433, 475.840
1064.676, 520.142
1065.919, 474.012
1067.162, 471.136
1068.404, 470.139
1069.646, 499.919
1070.888, 446.284
1072.130, 457.250
1073.372, 436.534
1074.613, 488.709
1075.855, 510.775
1077.096, 502.707
1078.337, 488.560
1079.578, 487.365
1080.818, 410.508
1082.059, 373.603
1083.299, 340.527
1084.539, 417.363
1085.779, 262.175
1087.018, 352.424
1088.258, 245.291
1089.497, 381.138
1090.736, 239.166
1091.975, 224.857
1093.213, 217.168
1094.452, 245.055
1095.690, 280.246
1096.928, 120.332
1098.166, 186.859
1099.404, 259.613
1100.642, 271.933
1101.879, 109.351
1103.116, 215.197
1104.353, 224.348
1105.590, 182.499
1106.827, 263.933
1108.063, 234.272
1109.299, 88.715
1110.536, 153.480
1111.771, 231.078
1113.007, 77.818
1114.243, 206.226
1115.478, 227.048
1116.713, 105.487
1117.948, 160.622
1119.183, 107.917
1120.418, 174.975
1121.652, 211.105
1122.886, 220.033
1124.120, 120.671
1125.354, 160.994
1126.588, 145.290
1127.821, 127.211
1129.055, 186.665
1130.288, 157.243
1131.521, 167.496
1132.753, 123.707
1133.986, 119.384
1135.218, 66.281
1136.450, 135.352
1137.682, 60.334
1138.914, 72.188
1140.146, 58.967
1141.377, 30.862
1142.609, 25.235
1143.840, 23.008
1145.071, 26.224
1146.301, 43.390
1147.532, 25.792
1148.762, 57.994
1149.992, 62.649
1151.222, 58.202
1152.452, 44.466
1153.682, 36.687
1154.911, 33.979
1156.140, 13.849
1157.369, 13.641
1158.598, 5.091
1159.827, 59.136
1161.055, 30.255
1162.284, 108.530
1163.512, 65.364
1164.740, 4.351
1165.967, 144.778
1167.195, 8.223
1168.422, 97.038
1169.650, 68.333
1170.877, 41.860
1172.103, 38.348
1173.330, 31.134
1174.557, 39.447
1175.783, 108.316
1177.009, 72.591
1178.235, 75.485
1179.461, 106.332
1180.686, 77.354
1181.912, 5.629
1183.137, 152.485
1184.362, 94.247
1185.587, 93.927
1186.811, 10.130
1188.036, 77.666
1189.260, 90.645
1190.484, 146.400
1191.708, 73.801
1192.932, 203.071
1194.155, 67.057
1195.378, 216.429
1196.602, 36.986
1197.825, 176.028
1199.047, 99.806
1200.270, 119.835
1201.492, 86.412
1202.715, 131.805
1203.937, 18.678
1205.159, 187.960
1206.380, 219.024
1207.602, 150.644
1208.823, 74.941
1210.044, 112.598
1211.265, 188.881
1212.486, 287.802
1213.707, 220.920
1214.927, 145.672
1216.147, 149.933
1217.367, 146.096
1218.587, 235.581
1219.807, 153.990
1221.027, 173.607
1222.246, 193.896
1223.465, 174.816
1224.684, 81.766
1225.903, 194.742
1227.121, 150.313
1228.340, 155.653
1229.558, 192.787
1230.776, 211.770
1231.994, 210.542
1233.212, 102.484
1234.429, 188.464
1235.646, 187.672
1236.864, 137.284
1238.081, 211.184
1239.297, 61.695
1240.514, 106.152
1241.730, 316.558
1242.947, 91.127
1244.163, 217.637
1245.378, 140.864
1246.594, 255.084
1247.810, 224.202
1249.025, 113.919
1250.240, 274.099
1251.455, 52.032
1252.670, 192.978
1253.885, 210.782
1255.099, 179.828
1256.313, 96.117
1257.527, 18.146
1258.741, 14.661
1259.955, 160.583
1261.168, 67.008
1262.382, 136.449
1263.595, 200.642
1264.808, 46.225
1266.021, 10.775
1267.233, 70.186
1268.446, 91.298
1269.658, 155.241
1270.870, 91.891
1272.082, 118.476
1273.294, 126.900
1274.505, 184.152
1275.716, 6.398
1276.928, 88.803
1278.139, 89.318
1279.349, 208.354
1280.560, 145.128
1281.770, 93.604
1282.981, 105.281
1284.191, 170.560
1285.401, 89.814
1286.610, 93.948
1287.820, 42.315
1289.029, 94.603
1290.239, 52.326
1291.448, 48.623
1292.656, 4.752
1293.865, 41.217
1295.073, 87.739
1296.282, 119.206
1297.490, 129.428
1298.698, 153.235
1299.906, 126.002
1301.113, 143.076
1302.320, 120.471
1303.528, 47.800
1304.735, 42.544
1305.942, 62.022
1307.148, 16.724
1308.355, 18.972
1309.561, 6.610
1310.767, 8.832
1311.973, 7.299
1313.179, 3.602
1314.384, 13.896
1315.590, 112.394
1316.795, 50.498
1318.000, 57.484
1319.205, 17.633
1320.410, 42.181
1321.614, 105.209
1322.819, 29.983
1324.023, 172.661
1325.227, 110.443
1326.431, 62.037
1327.634, 121.517
1328.838, 66.715
1330.041, 136.697
1331.244, 11.044
1332.447, 82.017
1333.650, 10.854
1334.852, 10.247
1336.055, 20.512
1337.257, 23.402
1338.459, 198.768
1339.661, 91.504
1340.862, 265.804
1342.064, 139.395
1343.265, 29.406
1344.466, 53.966
1345.667, 199.647
1346.868, 42.062
1348.068, 98.606
1349.269, 223.605
1350.469, 59.728
1351.669, 113.965
1352.869, 175.315
1354.069, 79.296
1355.268, 147.380
1356.468, 38.732
1357.667, 203.445
1358.866, 184.960
1360.065, 93.981
1361.263, 104.864
1362.462, 251.789
1363.660, 289.048
1364.858, 189.927
1366.056, 282.849
1367.254, 139.811
1368.451, 300.483
1369.649, 63.698
1370.846, 123.296
1372.043, 162.613
1373.240, 195.882
1374.436, 216.264
1375.633, 267.877
1376.829, 211.843
1378.025, 180.845
1379.221, 113.486
1380.417, 247.675
1381.613, 162.284
1382.808, 498.175
1384.003, 304.326
1385.199, 520.973
1386.393, 190.589
1387.588, 125.516
1388.783, 359.616
1389.977, 224.985
1391.171, 258.141
1392.365, 267.572
1393.559, 187.234
1394.753, 246.260
1395.946, 206.164
1397.140, 288.395
1398.333, 156.707
1399.526, 218.797
1400.719, 161.002
1401.911, 202.402
1403.104, 203.686
1404.296, 264.029
1405.488, 199.004
1406.680, 146.791
1407.872, 92.604
1409.063, 162.494
1410.255, 316.215
1411.446, 193.051
1412.637, 475.301
1413.828, 176.248
1415.018, 208.393
1416.209, 294.416
1417.399, 360.240
1418.589, 180.248
1419.779, 330.055
1420.969, 94.529
1422.159, 147.596
1423.348, 176.105
1424.537, 275.646
1425.726, 211.861
1426.915, 169.484
1428.104, 217.596
1429.293, 203.314
1430.481, 54.148
1431.669, 39.080
1432.857, 308.639
1434.045, 193.623
1435.233, 93.309
1436.420, 286.416
1437.608, 232.135
1438.795, 275.473
1439.982, 224.268
1441.169, 325.689
1442.355, 219.641
1443.542, 228.727
1444.728, 306.676
1445.914, 207.607
1447.100, 451.775
1448.286, 214.373
1449.472, 278.748
1450.657, 170.656
1451.842, 358.924
1453.027, 285.455
1454.212, 350.824
1455.397, 419.787
1456.581, 326.787
1457.766, 355.225
1458.950, 405.457
1460.134, 289.834
1461.318, 400.350
1462.501, 437.875
1463.685, 272.670
1464.868, 612.787
1466.051, 632.783
1467.234, 717.348
1468.417, 249.914
1469.600, 10.113
1470.782, 160.965
1471.965, 270.924
1473.147, 77.885
1474.329, 299.877
1475.510, 276.061
1476.692, 176.729
1477.873, 149.018
1479.055, 211.268
1480.236, 116.475
1481.416, 321.674
1482.597, 222.834
1483.778, 264.980
1484.958, 178.117
1486.138, 272.252
1487.318, 141.408
1488.498, 278.631
1489.678, 122.959
1490.857, 29.447
1492.037, 145.057
1493.216, 251.039
1494.395, 160.814
1495.574, 143.754
1496.752, 256.883
1497.931, 173.127
1499.109, 253.490
1500.287, 15.008
1501.465, 45.721
1502.643, 22.336
1503.820, 51.041
1504.998, 117.539
1506.175, 89.473
1507.352, 227.807
1508.529, 147.207
1509.706, 49.119
1510.882, 50.717
1512.059, 41.756
1513.235, 11.387
1514.411, 96.596
1515.587, 0.000
##END=



