##NAMES=Talc
##RRUFFID=R050087
##IDEAL CHEMISTRY=Mg_3_Si_4_O_10_(OH)_2_
##LOCALITY=St. Lawrence County, New York, USA
##OWNER=RRUFF
##SOURCE=University of Arizona Mineral Museum
##DESCRIPTION=An aggregate of colorless foliated coarse single crystals
##STATUS=The identification of this mineral has been confirmed by X-ray diffraction and chemical analysis
##URL=rruff.info/R050087
##MEASURED CHEMISTRY=(Mg_.998_Fe_.002_)_3_(Si_.997_Al_.003_)_4_O_10_(OH_.966_F_.034_)_2_
##PIN_ID=M00178
##ORIENTATION=Laser parallel to (1 1 0). Fiducial mark perpendicular to laser is parallel to c [0 0 1]
99.64900, 0.0000000E+00
100.8830, 113.4014
102.1160, 605.0117
103.3490, 1151.068
104.5820, 1501.044
105.8150, 2010.828
107.0470, 2321.996
108.2800, 2636.496
109.5120, 2525.213
110.7440, 2202.693
111.9760, 2002.067
113.2080, 1971.911
114.4400, 1732.627
115.6710, 1620.576
116.9030, 1347.079
118.1340, 1143.606
119.3650, 1073.834
120.5960, 609.0977
121.8270, 275.1035
123.0580, 213.7852
124.2880, 11.08594
125.5190, 61.05176
126.7490, 154.6680
127.9790, 19.79004
129.2090, 18.54199
130.4390, 41.29590
131.6680, 50.32422
132.8980, 23.65625
134.1270, 3.655273
135.3560, 15.63477
136.5850, 32.69922
137.8140, 1.669922
139.0430, 72.72754
140.2710, 7.418945
141.5000, 167.8359
142.7280, 192.4805
143.9560, 152.3359
145.1840, 127.3867
146.4120, 39.62500
147.6390, 131.0371
148.8670, 320.6182
150.0940, 246.3604
151.3210, 39.25781
152.5490, 320.3037
153.7750, 50.62598
155.0020, 172.1104
156.2290, 205.7148
157.4550, 59.44043
158.6810, 78.28125
159.9080, 207.2354
161.1340, 133.2979
162.3590, 42.53125
163.5850, 252.7461
164.8110, 115.1289
166.0360, 197.6152
167.2610, 140.2021
168.4860, 175.8857
169.7110, 203.6621
170.9360, 217.5312
172.1610, 239.4893
173.3850, 218.5176
174.6100, 216.5713
175.8340, 284.8594
177.0580, 301.0186
178.2820, 358.2520
179.5050, 353.0078
180.7290, 641.3242
181.9520, 832.7129
183.1760, 1285.184
184.3990, 2404.711
185.6220, 3572.310
186.8450, 4925.900
188.0670, 4562.476
189.2900, 4790.098
190.5120, 6262.767
191.7340, 8187.461
192.9560, 9926.205
194.1780, 11024.99
195.4000, 10846.90
196.6220, 11483.72
197.8430, 8794.658
199.0640, 6075.643
200.2860, 3567.676
201.5070, 1995.755
202.7270, 1374.881
203.9480, 914.0557
205.1690, 655.2617
206.3890, 434.6445
207.6090, 345.6562
208.8290, 327.9238
210.0490, 397.2363
211.2690, 224.5938
212.4890, 487.0000
213.7080, 259.4473
214.9280, 384.9375
216.1470, 394.4727
217.3660, 134.0508
218.5850, 343.6699
219.8030, 334.3320
221.0220, 165.0352
222.2400, 436.7773
223.4590, 407.5996
224.6770, 357.4922
225.8950, 441.4473
227.1120, 306.4492
228.3300, 242.5000
229.5480, 261.5859
230.7650, 186.3340
231.9820, 280.8711
233.1990, 206.0684
234.4160, 253.3008
235.6330, 251.5840
236.8490, 152.8574
238.0660, 248.1816
239.2820, 236.5352
240.4980, 242.9180
241.7140, 274.3340
242.9300, 150.7852
244.1460, 96.26562
245.3610, 160.8633
246.5770, 175.2285
247.7920, 127.3887
249.0070, 184.9062
250.2220, 4.386719
251.4370, 3.578125
252.6510, 231.2988
253.8660, 59.18359
255.0800, 147.1836
256.2940, 135.0801
257.5080, 18.00586
258.7220, 89.92383
259.9360, 120.3086
261.1490, 337.7188
262.3630, 136.7285
263.5760, 183.9238
264.7890, 178.5234
266.0020, 344.4043
267.2150, 194.1348
268.4270, 185.9297
269.6400, 21.79297
270.8520, 7.810547
272.0640, 118.0938
273.2760, 210.3145
274.4880, 103.1367
275.7000, 99.27148
276.9120, 156.4707
278.1230, 274.7168
279.3340, 354.0059
280.5450, 524.0625
281.7560, 607.7148
282.9670, 713.1270
284.1780, 681.4805
285.3880, 785.9727
286.5980, 807.5000
287.8090, 1110.061
289.0190, 1401.658
290.2290, 1498.291
291.4380, 1568.955
292.6480, 1486.650
293.8570, 1238.385
295.0670, 862.1445
296.2760, 609.9336
297.4850, 306.7520
298.6930, 52.59961
299.9020, 42.16992
301.1110, 151.3730
302.3190, 129.3008
303.5270, 167.2539
304.7350, 279.2285
305.9430, 400.2285
307.1510, 147.2480
308.3580, 243.2090
309.5660, 133.2949
310.7730, 112.4023
311.9800, 93.46484
313.1870, 160.6758
314.3940, 71.16211
315.6010, 160.0078
316.8070, 85.19922
318.0130, 114.4121
319.2200, 27.64062
320.4260, 99.89062
321.6310, 149.1582
322.8370, 231.4414
324.0430, 227.7441
325.2480, 134.0586
326.4540, 416.3926
327.6590, 318.7539
328.8640, 340.1426
330.0680, 513.5449
331.2730, 469.9668
332.4780, 586.4004
333.6820, 626.8535
334.8860, 573.3223
336.0900, 471.8066
337.2940, 471.3086
338.4980, 398.8223
339.7010, 481.3555
340.9050, 581.9004
342.1080, 522.4629
343.3110, 523.0391
344.5140, 479.7578
345.7170, 752.2617
346.9200, 812.8789
348.1220, 760.4453
349.3240, 1263.088
350.5270, 1321.004
351.7290, 1531.654
352.9310, 2042.568
354.1320, 2477.230
355.3340, 2972.906
356.5350, 3522.588
357.7370, 3649.285
358.9380, 4221.992
360.1390, 4898.711
361.3400, 5073.941
362.5400, 5599.682
363.7410, 5304.432
364.9410, 5270.191
366.1410, 4112.957
367.3410, 3476.736
368.5410, 2626.525
369.7410, 1855.320
370.9400, 1261.125
372.1400, 1042.939
373.3390, 969.7598
374.5380, 871.5898
375.7370, 723.4258
376.9360, 635.2695
378.1350, 765.1230
379.3330, 549.9785
380.5310, 639.8438
381.7300, 446.9492
382.9280, 601.8281
384.1260, 448.7109
385.3230, 360.6016
386.5210, 364.4961
387.7180, 345.4355
388.9160, 2.589844
390.1130, 181.3203
391.3100, 103.0098
392.5060, 259.9492
393.7030, 201.8965
394.9000, 281.8027
396.0960, 20.72461
397.2920, 49.61133
398.4880, 27.38477
399.6840, 51.51953
400.8800, 55.50391
402.0750, 54.78906
403.2710, 29.27734
404.4660, 57.28516
405.6610, 11.69922
406.8560, 73.59180
408.0510, 63.31055
409.2450, 46.68945
410.4400, 88.29883
411.6340, 196.2949
412.8280, 43.07422
414.0220, 99.91602
415.2160, 4.054688
416.4100, 80.95312
417.6030, 152.0469
418.7970, 278.4180
419.9900, 117.2129
421.1830, 299.0098
422.3760, 388.0371
423.5690, 524.0684
424.7610, 594.1074
425.9540, 586.2148
427.1460, 825.2656
428.3380, 851.3164
429.5300, 1045.373
430.7220, 1439.430
431.9140, 1570.840
433.1050, 1600.918
434.2970, 1786.625
435.4880, 1731.693
436.6790, 1107.639
437.8700, 854.7090
439.0610, 783.7812
440.2510, 334.8555
441.4420, 356.9297
442.6320, 308.2578
443.8220, 272.0391
445.0120, 195.2188
446.2020, 197.1816
447.3910, 333.3809
448.5810, 213.4648
449.7700, 402.6777
450.9600, 478.7617
452.1490, 507.8379
453.3370, 385.2129
454.5260, 498.4062
455.7150, 500.4688
456.9030, 470.7676
458.0910, 91.80469
459.2800, 348.0586
460.4670, 223.4766
461.6550, 474.5859
462.8430, 365.0781
464.0300, 277.1602
465.2180, 456.2383
466.4050, 602.3242
467.5920, 390.4082
468.7790, 600.9043
469.9650, 640.3066
471.1520, 401.9082
472.3380, 205.4043
473.5250, 287.5391
474.7110, 231.6172
475.8970, 21.00391
477.0820, 132.0801
478.2680, 32.41797
479.4540, 33.52539
480.6390, 143.6270
481.8240, 285.0645
483.0090, 194.1602
484.1940, 185.3164
485.3780, 84.40234
486.5630, 22.51172
487.7470, 34.45312
488.9320, 131.7949
490.1160, 50.17969
491.3000, 164.8047
492.4830, 11.83789
493.6670, 73.81836
494.8500, 22.20508
496.0340, 27.74414
497.2170, 188.6875
498.4000, 38.62500
499.5820, 128.5586
500.7650, 244.4863
501.9480, 143.4082
503.1300, 7.673828
504.3120, 224.2227
505.4940, 265.1152
506.6760, 469.9980
507.8580, 440.9766
509.0390, 231.7500
510.2210, 325.6152
511.4020, 268.4766
512.5830, 137.3281
513.7640, 286.1738
514.9450, 83.01758
516.1250, 33.85156
517.3060, 152.6777
518.4860, 96.49805
519.6660, 89.59961
520.8460, 204.1172
522.0260, 63.91797
523.2060, 1.710938
524.3850, 66.48438
525.5650, 232.2480
526.7440, 106.0078
527.9230, 123.7578
529.1020, 39.50977
530.2810, 57.75000
531.4590, 160.8711
532.6380, 52.44531
533.8160, 188.1875
534.9940, 238.8164
536.1720, 122.4355
537.3500, 132.0469
538.5270, 149.3477
539.7050, 54.15430
540.8820, 38.47070
542.0590, 128.9844
543.2360, 51.42773
544.4130, 142.8652
545.5900, 160.2949
546.7660, 164.7148
547.9430, 148.6094
549.1190, 141.3711
550.2950, 130.1855
551.4710, 218.9355
552.6470, 140.3125
553.8220, 6.316406
554.9980, 70.03320
556.1730, 256.1055
557.3480, 104.4805
558.5230, 110.6543
559.6980, 18.01758
560.8730, 42.63281
562.0470, 74.32617
563.2220, 101.9258
564.3960, 227.1699
565.5700, 176.4043
566.7440, 52.63086
567.9170, 117.8477
569.0910, 84.05859
570.2640, 207.2617
571.4380, 123.4551
572.6110, 22.63867
573.7840, 69.81055
574.9570, 11.06445
576.1290, 122.1211
577.3020, 5.255859
578.4740, 83.37891
579.6460, 93.49219
580.8180, 134.5938
581.9900, 298.8203
583.1620, 32.90430
584.3330, 10.90234
585.5040, 59.95703
586.6760, 166.0039
587.8470, 271.0410
589.0180, 112.0664
590.1880, 56.08398
591.3590, 96.08789
592.5290, 43.91797
593.7000, 34.14648
594.8700, 2.080078
596.0400, 97.99219
597.2090, 42.90625
598.3790, 163.8086
599.5490, 52.71289
600.7180, 32.60547
601.8870, 87.48438
603.0560, 28.77148
604.2250, 131.6250
605.3940, 199.6191
606.5620, 271.5312
607.7300, 378.3496
608.8990, 31.16211
610.0670, 16.04102
611.2350, 3.251953
612.4020, 31.61523
613.5700, 94.06250
614.7370, 107.8125
615.9050, 44.31445
617.0720, 144.1152
618.2390, 62.18555
619.4060, 155.3652
620.5720, 261.0762
621.7390, 49.95703
622.9050, 153.6406
624.0710, 105.3398
625.2370, 131.1895
626.4030, 242.8398
627.5690, 200.3535
628.7340, 66.07812
629.9000, 288.7402
631.0650, 288.8457
632.2300, 104.4434
633.3950, 178.2930
634.5600, 369.9043
635.7240, 372.2148
636.8890, 449.7852
638.0530, 496.3027
639.2170, 500.7168
640.3810, 495.4180
641.5450, 494.9375
642.7080, 420.4453
643.8720, 362.4414
645.0350, 388.5332
646.1980, 459.3926
647.3610, 491.8496
648.5240, 473.2949
649.6870, 653.7285
650.8490, 656.1523
652.0120, 553.5664
653.1740, 764.9648
654.3360, 823.3535
655.4980, 917.7266
656.6600, 1113.092
657.8210, 1187.441
658.9830, 1414.852
660.1440, 1587.189
661.3050, 1935.545
662.4660, 2223.887
663.6270, 2659.980
664.7870, 3081.295
665.9480, 3779.602
667.1080, 4777.098
668.2680, 5910.781
669.4280, 6810.012
670.5880, 8360.193
671.7480, 9707.438
672.9070, 11169.07
674.0670, 12330.31
675.2260, 13487.56
676.3850, 13826.12
677.5440, 13680.35
678.7030, 12829.66
679.8610, 11754.83
681.0200, 9792.098
682.1780, 7892.281
683.3360, 6195.410
684.4940, 5101.568
685.6520, 4032.717
686.8090, 3147.061
687.9670, 2790.184
689.1240, 2242.314
690.2810, 1908.432
691.4380, 1555.549
692.5950, 1249.654
693.7520, 1133.209
694.9080, 1117.293
696.0650, 1154.568
697.2210, 815.6543
698.3770, 733.7441
699.5330, 685.4590
700.6880, 652.7480
701.8440, 784.5469
702.9990, 684.2695
704.1550, 546.2949
705.3100, 136.3066
706.4650, 518.3594
707.6190, 207.2520
708.7740, 228.3535
709.9290, 367.4648
711.0830, 339.7441
712.2370, 406.5566
713.3910, 387.4648
714.5450, 287.7363
715.6980, 212.6387
716.8520, 187.6074
718.0050, 287.4824
719.1580, 206.7246
720.3110, 100.0645
721.4640, 169.9004
722.6170, 3.527344
723.7700, 269.5801
724.9220, 149.4062
726.0740, 175.6445
727.2260, 177.5215
728.3780, 223.2715
729.5300, 305.8789
730.6810, 235.6055
731.8330, 103.3262
732.9840, 388.7363
734.1350, 155.3145
735.2860, 131.9883
736.4370, 234.5117
737.5880, 266.4941
738.7380, 410.5059
739.8880, 354.3320
741.0390, 15.05078
742.1890, 294.1230
743.3380, 97.69531
744.4880, 25.54297
745.6380, 331.9824
746.7870, 374.1133
747.9360, 235.3594
749.0850, 267.6406
750.2340, 113.5898
751.3830, 34.08594
752.5310, 286.1445
753.6800, 6.107422
754.8280, 129.1094
755.9760, 122.5156
757.1240, 41.12695
758.2720, 155.7520
759.4190, 103.4609
760.5670, 150.3672
761.7140, 140.7090
762.8610, 102.3340
764.0080, 247.0234
765.1550, 154.6230
766.3020, 166.8066
767.4480, 138.8516
768.5950, 46.11719
769.7410, 232.2871
770.8870, 11.23828
772.0330, 149.5352
773.1780, 216.6484
774.3240, 243.2402
775.4690, 400.5176
776.6140, 255.5996
777.7590, 399.6680
778.9040, 368.8984
780.0490, 549.4570
781.1940, 391.4824
782.3380, 466.5039
783.4820, 695.5078
784.6260, 619.6133
785.7700, 596.7520
786.9140, 711.5000
788.0580, 705.7422
789.2010, 830.8730
790.3450, 814.0840
791.4880, 754.9863
792.6310, 755.2344
793.7730, 751.5449
794.9160, 656.4062
796.0590, 690.4004
797.2010, 658.2305
798.3430, 714.0469
799.4850, 289.8477
800.6270, 351.6328
801.7690, 225.7285
802.9100, 353.2070
804.0520, 120.0371
805.1930, 5.234375
806.3340, 180.5059
807.4750, 226.2734
808.6160, 251.5820
809.7560, 134.7324
810.8970, 280.4160
812.0370, 273.2598
813.1770, 102.2559
814.3170, 257.8887
815.4570, 226.5078
816.5960, 311.1562
817.7360, 217.7891
818.8750, 395.5859
820.0140, 188.4004
821.1530, 454.0020
822.2920, 282.6016
823.4310, 131.2285
824.5690, 236.0684
825.7070, 222.6289
826.8460, 310.1738
827.9840, 298.7012
829.1220, 253.9512
830.2590, 4.708984
831.3970, 236.6582
832.5340, 155.4746
833.6710, 193.2520
834.8080, 330.6016
835.9450, 225.9375
837.0820, 295.2891
838.2190, 62.65430
839.3550, 43.02539
840.4910, 410.3965
841.6270, 293.7520
842.7630, 156.0898
843.8990, 24.41016
845.0350, 153.7441
846.1700, 149.2188
847.3060, 105.5234
848.4410, 132.1309
849.5760, 299.4590
850.7100, 277.7578
851.8450, 448.0234
852.9800, 22.27539
854.1140, 197.5000
855.2480, 95.71289
856.3820, 68.90430
857.5160, 244.9453
858.6500, 357.0996
859.7830, 228.3125
860.9170, 154.4355
862.0500, 76.54102
863.1830, 160.6270
864.3160, 355.6934
865.4480, 317.7441
866.5810, 269.7793
867.7130, 479.7969
868.8460, 217.6992
869.9780, 202.7012
871.1100, 307.6914
872.2410, 169.6660
873.3730, 108.6250
874.5050, 63.79102
875.6360, 64.70703
876.7670, 179.6055
877.8980, 227.0684
879.0290, 273.9316
880.1590, 139.6270
881.2900, 210.3789
882.4200, 54.19531
883.5500, 148.9863
884.6800, 71.24219
885.8100, 276.4766
886.9400, 119.0781
888.0690, 19.93359
889.1990, 60.71484
890.3280, 20.72656
891.4570, 257.1016
892.5860, 18.67969
893.7140, 93.39453
894.8430, 71.19531
895.9710, 330.5312
897.1000, 152.0391
898.2280, 65.50000
899.3560, 61.78125
900.4830, 80.22656
901.6110, 196.6562
902.7380, 9.929688
903.8660, 155.4023
904.9930, 435.4883
906.1200, 46.12891
907.2460, 42.69531
908.3730, 235.9844
909.5000, 62.27734
910.6260, 134.5508
911.7520, 358.8047
912.8780, 221.0391
914.0040, 135.2617
915.1290, 57.46484
916.2550, 292.6445
917.3800, 255.8164
918.5050, 550.9648
919.6300, 149.0977
920.7550, 138.2148
921.8800, 29.31250
923.0040, 60.38672
924.1290, 254.4453
925.2530, 107.4805
926.3770, 245.5000
927.5010, 90.50781
928.6250, 72.48828
929.7480, 247.4570
930.8720, 136.5938
931.9950, 433.2500
933.1180, 199.0820
934.2410, 256.0703
935.3640, 200.8672
936.4860, 99.64844
937.6090, 34.41406
938.7310, 155.1523
939.8530, 330.6758
940.9750, 164.9805
942.0970, 153.6680
943.2180, 43.34766
944.3400, 29.90625
945.4610, 196.5859
946.5820, 104.8242
947.7030, 89.87891
948.8240, 200.0469
949.9450, 198.5117
951.0650, 278.9648
952.1860, 493.4062
953.3060, 130.8281
954.4260, 123.5430
955.5460, 333.9336
956.6650, 166.4258
957.7850, 155.7773
958.9040, 110.5117
960.0230, 193.8320
961.1420, 204.1367
962.2610, 275.4258
963.3800, 32.69922
964.4990, 109.0156
965.6170, 59.00781
966.7350, 73.20312
967.8530, 78.53125
968.9710, 198.7031
970.0890, 251.9336
971.2070, 323.1914
972.3240, 406.9844
973.4410, 375.2656
974.5580, 185.3828
975.6750, 327.5039
976.7920, 181.5664
977.9090, 177.4922
979.0250, 220.0391
980.1410, 145.9375
981.2580, 292.5547
982.3740, 110.7891
983.4890, 173.5312
984.6050, 181.1914
985.7200, 393.1211
986.8360, 520.0352
987.9510, 477.9766
989.0660, 315.8555
990.1810, 271.3438
991.2950, 264.6953
992.4100, 251.5547
993.5240, 391.3828
994.6390, 358.8477
995.7530, 286.8789
996.8660, 408.2109
997.9800, 302.8711
999.0940, 341.6328
1000.207, 306.3750
1001.320, 373.1016
1002.433, 213.8125
1003.546, 532.5078
1004.659, 490.1875
1005.772, 356.8516
1006.884, 321.5430
1007.996, 119.8398
1009.108, 408.9023
1010.220, 480.9609
1011.332, 425.5039
1012.444, 634.0781
1013.555, 666.6328
1014.666, 772.9766
1015.777, 726.5078
1016.888, 723.0781
1017.999, 844.8555
1019.110, 641.2266
1020.220, 716.7031
1021.331, 735.8789
1022.441, 683.4805
1023.551, 283.3711
1024.661, 596.8867
1025.770, 298.3086
1026.880, 386.1680
1027.989, 97.31641
1029.098, 425.2812
1030.207, 579.6758
1031.316, 416.9570
1032.425, 228.8555
1033.533, 323.7227
1034.642, 234.6602
1035.750, 478.9961
1036.858, 540.2266
1037.966, 126.7539
1039.073, 526.9531
1040.181, 498.8594
1041.288, 336.4883
1042.396, 452.7461
1043.503, 444.5039
1044.610, 726.5586
1045.716, 800.7734
1046.823, 991.9805
1047.929, 1211.996
1049.036, 1508.652
1050.142, 1486.820
1051.248, 1553.551
1052.353, 1566.113
1053.459, 1428.117
1054.564, 1141.070
1055.670, 1024.383
1056.775, 1015.977
1057.880, 643.0508
1058.985, 632.8242
1060.089, 552.8789
1061.194, 297.5586
1062.298, 460.1523
1063.402, 185.1680
1064.506, 286.0195
1065.610, 393.0117
1066.713, 86.99609
1067.817, 491.9648
1068.920, 356.9219
1070.023, 196.5469
1071.126, 156.7695
1072.229, 327.6133
1073.332, 339.5234
1074.435, 346.3945
1075.537, 225.2148
1076.639, 108.4883
1077.741, 99.46875
1078.843, 230.7617
1079.945, 61.44141
1081.046, 286.9453
1082.148, 365.7812
1083.249, 349.6445
1084.350, 336.5039
1085.451, 292.3516
1086.551, 30.02344
1087.652, 225.6602
1088.752, 74.48047
1089.853, 288.2773
1090.953, 66.97266
1092.053, 337.5117
1093.152, 206.2539
1094.252, 440.9883
1095.351, 233.7148
1096.451, 80.69141
1097.550, 144.1406
1098.649, 389.3750
1099.748, 47.33594
1100.846, 104.0117
1101.945, 75.70312
1103.043, 92.61328
1104.141, 37.85547
1105.239, 235.5820
1106.337, 65.84375
1107.434, 78.67578
1108.532, 220.1914
1109.629, 185.6953
1110.726, 114.8008
1111.823, 8.789063
1112.920, 243.4609
1114.017, 38.14062
1115.113, 198.9102
1116.210, 24.77734
1117.306, 371.5234
1118.402, 336.9531
1119.498, 190.2578
1120.593, 328.5664
1121.689, 241.8711
1122.784, 197.1680
1123.879, 402.9961
1124.974, 113.2812
1126.069, 283.5664
1127.164, 217.8438
1128.259, 438.1172
1129.353, 266.3828
1130.447, 144.6445
1131.541, 140.9023
1132.635, 213.1562
1133.729, 107.3984
1134.822, 248.6445
1135.916, 149.8789
1137.009, 212.1172
1138.102, 34.34375
1139.195, 110.5625
1140.288, 256.5508
1141.380, 146.7656
1142.473, 95.98438
1143.565, 207.1953
1144.657, 158.4023
1145.749, 257.6055
1146.841, 478.8047
1147.932, 29.99609
1149.024, 315.1914
1150.115, 161.3828
1151.206, 553.5938
1152.297, 251.8047
1153.388, 223.0156
1154.479, 291.2344
1155.569, 366.4531
1156.659, 372.6758
1157.750, 87.89453
1158.839, 102.8711
1159.929, 74.03906
1161.019, 165.2031
1162.108, 273.3672
1163.198, 295.3438
1164.287, 261.1992
1165.376, 290.8633
1166.465, 67.02734
1167.553, 76.18750
1168.642, 93.64453
1169.730, 39.66406
1170.818, 254.4180
1171.906, 96.51562
1172.994, 151.6172
1174.082, 272.7188
1175.170, 225.8203
1176.257, 224.9141
1177.344, 255.0117
1178.431, 174.1094
1179.518, 326.2070
1180.605, 145.3047
1181.691, 112.3984
1182.778, 305.4961
1183.864, 172.5898
1184.950, 138.6836
1186.036, 106.7773
1187.122, 277.8711
1188.207, 200.9727
1189.292, 226.8789
1190.378, 462.1680
1191.463, 210.2734
1192.548, 277.3750
1193.632, 311.4766
1194.717, 40.58203
1195.801, 290.7305
1196.886, 274.8828
1197.970, 181.8555
1199.054, 289.0039
1200.137, 219.1562
1201.221, 371.3086
1202.305, 266.4648
1203.388, 307.6250
1204.471, 152.7852
1205.554, 408.9453
1206.637, 100.1133
1207.719, 274.2266
1208.802, 398.3398
1209.884, 147.5352
1210.966, 268.5586
1212.048, 51.82812
1213.130, 127.4648
1214.212, 97.73438
1215.293, 190.0078
1216.374, 196.2812
1217.456, 213.9023
1218.536, 227.9727
1219.617, 262.4219
1220.698, 235.7070
1221.778, 279.1719
1222.859, 348.1250
1223.939, 190.7500
1225.019, 338.0469
1226.099, 452.3477
1227.178, 319.5781
1228.258, 425.4414
1229.337, 256.2031
1230.417, 401.2227
1231.496, 335.5430
1232.574, 266.8125
1233.653, 53.52734
1234.732, 161.2109
1235.810, 351.5625
1236.888, 479.5195
1237.966, 315.8398
1239.044, 134.2070
1240.122, 171.5781
1241.199, 15.46484
1242.277, 192.1367
1243.354, 96.51953
1244.431, 263.3203
1245.508, 164.7188
1246.585, 176.4102
1247.661, 3.183594
1248.738, 22.22266
1249.814, 315.6445
1250.890, 143.0664
1251.966, 97.50000
1253.042, 99.06250
1254.117, 106.3438
1255.193, 277.7539
1256.268, 68.17188
1257.343, 201.5977
1258.418, 339.0312
1259.493, 181.4727
1260.567, 108.9219
1261.642, 154.6367
1262.716, 56.83594
1263.790, 211.3047
1264.864, 149.7812
1265.938, 274.2656
1267.011, 371.7539
1268.085, 159.1367
1269.158, 244.6406
1270.231, 217.2266
1271.304, 94.76953
1272.377, 257.3008
1273.450, 177.8398
1274.522, 264.3867
1275.594, 86.94531
1276.666, 383.5078
1277.738, 206.9844
1278.810, 125.5664
1279.882, 236.1562
1280.953, 108.7539
1282.025, 233.3555
1283.096, 118.9727
1284.167, 186.5938
1285.238, 166.2266
1286.308, 145.8633
1287.379, 310.5117
1288.449, 348.0938
1289.519, 264.7578
1290.589, 267.7422
1291.659, 401.4297
1292.729, 272.1211
1293.798, 344.8242
1294.868, 147.5312
1295.937, 340.2539
1297.006, 102.9805
1298.075, 5.402344
1299.143, 298.2461
1300.212, 382.0039
1301.280, 163.7734
1302.348, 167.5508
1303.416, 196.3477
1304.484, 413.1484
1305.552, 225.9648
1306.620, 488.7969
1307.687, 519.6406
1308.754, 317.4883
1309.821, 264.3555
1310.888, 300.2344
1311.955, 240.1250
1313.021, 494.0234
1314.088, 306.9414
1315.154, 126.8633
1316.220, 413.8008
1317.286, 140.7461
1318.352, 16.70703
1319.417, 216.6875
1320.483, 347.6758
1321.548, 503.6836
1322.613, 256.6875
1323.678, 453.7109
1324.743, 233.7383
1325.807, 227.7773
1326.872, 215.8281
1327.936, 265.8867
1329.000, 52.96484
1330.064, 76.05078
1331.128, 131.1406
1332.191, 96.21094
1333.255, 410.2852
1334.318, 237.3711
1335.381, 318.0703
1336.444, 16.16406
1337.507, 272.2773
1338.569, 21.39453
1339.632, 182.7031
1340.694, 177.1562
1341.756, 117.9609
1342.818, 340.0898
1343.880, 333.2227
1344.941, 224.3672
1346.003, 27.47266
1347.064, 374.6953
1348.125, 310.8672
1349.186, 28.94141
1350.247, 356.4336
1351.308, 230.6641
1352.368, 209.9062
1353.428, 382.1562
1354.489, 278.4219
1355.549, 312.6992
1356.608, 84.99219
1357.668, 8.292969
1358.727, 76.62500
1359.787, 145.8203
1360.846, 18.82422
1361.905, 70.57422
1362.964, 361.0000
1364.022, 213.4336
1365.081, 165.9102
1366.139, 550.3945
1367.197, 391.8945
1368.255, 237.4023
1369.313, 42.37500
1370.371, 318.9531
1371.428, 272.5469
1372.486, 397.1680
1373.543, 128.8047
1374.600, 113.4648
1375.657, 126.0273
1376.713, 298.7109
1377.770, 223.4102
1378.826, 247.1211
1379.882, 305.3438
1380.938, 150.0508
1381.994, 329.8047
1383.050, 144.5703
1384.106, 78.35156
1385.161, 196.1445
1386.216, 193.9570
1387.271, 345.7812
1388.326, 213.6133
1389.381, 173.4648
1390.435, 419.3242
1391.490, 116.2070
1392.544, 90.08984
1393.598, 136.9805
1394.652, 189.8086
1395.705, 68.65234
1396.759, 4.492188
1397.812, 80.38281
1398.866, 437.2656
1399.919, 191.1641
1400.972, 285.0781
1402.024, 170.0078
1403.077, 253.9492
1404.129, 162.9062
1405.181, 43.82812
1406.233, 286.7695
1407.285, 108.7227
1408.337, 36.68750
1409.389, 30.66797
1410.440, 120.6641
1411.491, 29.67578
1412.542, 34.69922
1413.593, 163.7891
1414.644, 86.84375
1415.695, 88.94531
1416.745, 13.94141
1417.795, 114.1836
1418.845, 61.32031
1419.895, 199.4727
1420.945, 175.6484
1421.995, 274.8359
1423.044, 324.1914
1424.093, 267.4141
1425.142, 157.6797
1426.191, 144.9883
1427.240, 97.30859
1428.289, 391.6523
1429.337, 91.02344
1430.385, 329.4180
1431.433, 214.8320
1432.481, 127.3438
1433.529, 75.81641
1434.577, 267.3203
1435.624, 359.8477
1436.672, 350.4062
1437.719, 445.9961
1438.766, 460.4375
1439.812, 162.3008
1440.859, 437.8711
1441.905, 280.4609
1442.952, 110.1289
1443.998, 380.8242
1445.044, 329.3672
1446.090, 516.3672
1447.135, 348.7578
1448.181, 175.5078
1449.226, 77.87891
1450.271, 77.28125
1451.316, 304.6992
1452.361, 393.1406
1453.405, 20.60547
1454.450, 359.0898
1455.494, 231.5938
1456.538, 454.1094
1457.582, 224.5312
1458.626, 193.9453
1459.670, 444.3711
1460.713, 48.99219
1461.757, 176.5938
1462.800, 449.0820
1463.843, 181.5859
1464.886, 161.8867
1465.928, 296.6680
1466.971, 206.2188
1468.013, 201.2031
1469.055, 250.7773
1470.097, 432.3672
1471.139, 315.9844
1472.181, 133.6211
1473.222, 515.2852
1474.263, 518.9648
1475.305, 7.332031
1476.346, 141.3945
1477.386, 173.1641
1478.427, 234.9766
1479.468, 69.81250
1480.508, 131.6641
1481.548, 544.5430
1482.588, 16.44531
1483.628, 414.3555
1484.668, 85.69922
1485.707, 205.1367
1486.747, 216.1250
1487.786, 476.1328
1488.825, 229.1641
1489.864, 384.2188
1490.902, 356.3008
1491.941, 323.4102
1492.979, 432.5430
1494.017, 214.6992
1495.055, 402.3711
1496.093, 402.5703
1497.131, 51.79297
1498.168, 357.0391
1499.206, 516.3086
1500.243, 241.6016
1501.280, 332.9180
1502.317, 123.2500
1503.354, 32.57812
1504.390, 348.9219
1505.426, 121.2852
1506.463, 283.6641
1507.499, 145.0586
1508.535, 341.4688
1509.570, 423.8711
1510.606, 132.3008
1511.641, 796.7734
1512.676, 390.2734
1513.711, 175.8086
1514.746, 404.3672
1515.781, 129.1406
1516.816, 287.3750
1517.850, 704.1992
1518.884, 485.1016
1519.918, 243.6445
1520.952, 375.2266
1521.986, 371.8477
1523.019, 222.5000
1524.053, 219.7852
1525.086, 355.4961
1526.119, 269.2383
1527.152, 203.0117
1528.185, 309.8164
1529.217, 309.5625
1530.250, 446.1562
1531.282, 460.7695
1532.314, 457.3945
1533.346, 100.0352
1534.377, 460.7070
1535.409, 387.3828
1536.440, 528.0703
1537.472, 41.76172
1538.503, 363.4648
1539.534, 102.1680
1540.564, 116.8750
1541.595, 491.5781
1542.625, 337.2812
1543.656, 302.9766
1544.686, 310.7227
1545.716, 198.8867
1546.745, 37.47266
1547.775, 187.1094
1548.804, 234.8242
1549.834, 181.5977
1550.863, 332.7188
1551.892, 201.2500
1552.920, 120.9414
1553.949, 272.8242
1554.977, 379.5938
1556.006, 29.07031
1557.034, 293.5742
1558.062, 331.5859
1559.089, 554.0273
1560.117, 302.2734
1561.144, 447.4766
1562.172, 379.2031
1563.199, 573.4805
1564.226, 672.4414
1565.252, 280.0977
1566.279, 138.9141
1567.305, 139.9180
1568.332, 10.51953
1569.358, 0.8164060
1570.384, 345.9648
1571.409, 0.0000000E+00
##END=



