##NAMES=Tremolite
##RRUFFID=R050173
##IDEAL CHEMISTRY=[box]Ca_2_Mg_5_Si_8_O_22_(OH)_2_
##LOCALITY=Fort Dauphin, Madagascar
##OWNER=RRUFF
##SOURCE=Marcus Origlieri
##DESCRIPTION=Mass of colorless acicular crystals
##STATUS=The identification of this mineral has been confirmed by X-ray diffraction and chemical analysis
##URL=rruff.info/R050173
##MEASURED CHEMISTRY=[box]Ca_2.00_Mg_5.00_Si_8.00_O_22_(OH)_2_
##PIN_ID=L00398
##ORIENTATION=Laser parallel to (1 0 1). Fiducial mark perpendicular to laser is parallel to b [0 1 0]
102.326, 0.000
103.720, 16.471
105.114, 1.973
106.508, 338.945
107.901, 213.606
109.294, 249.640
110.687, 635.060
112.079, 1404.161
113.472, 1945.081
114.864, 2066.353
116.256, 2411.957
117.647, 2587.588
119.039, 2909.321
120.430, 2748.012
121.821, 2127.951
123.211, 1757.411
124.602, 1510.242
125.992, 1216.308
127.382, 782.322
128.772, 516.911
130.162, 427.481
131.551, 345.806
132.940, 182.010
134.329, 46.199
135.718, 97.645
137.106, 42.686
138.494, 211.559
139.882, 228.774
141.270, 154.494
142.657, 349.224
144.045, 172.410
145.432, 253.753
146.819, 59.106
148.205, 44.613
149.592, 124.906
150.978, 141.219
152.364, 356.838
153.749, 719.049
155.135, 1365.567
156.520, 2670.593
157.905, 3878.253
159.290, 4825.273
160.674, 4951.239
162.059, 4366.188
163.443, 3370.145
164.826, 2213.146
166.210, 1475.245
167.593, 786.476
168.977, 816.873
170.360, 1186.467
171.742, 2186.412
173.125, 4190.760
174.507, 7568.008
175.889, 11184.590
177.271, 12930.543
178.652, 12595.887
180.034, 9384.651
181.415, 5080.557
182.796, 2356.197
184.176, 1009.715
185.557, 436.431
186.937, 364.937
188.317, 329.636
189.697, 468.113
191.076, 411.761
192.456, 452.915
193.835, 376.178
195.213, 433.823
196.592, 266.954
197.970, 223.631
199.349, 280.960
200.726, 261.635
202.104, 351.375
203.482, 396.245
204.859, 414.629
206.236, 596.081
207.613, 708.250
208.989, 812.488
210.366, 1220.525
211.742, 1674.242
213.118, 2192.640
214.493, 2947.460
215.869, 4288.533
217.244, 6771.608
218.619, 10914.636
219.994, 16509.357
221.368, 20884.146
222.742, 22177.002
224.117, 19689.785
225.490, 14902.493
226.864, 11355.097
228.237, 10537.513
229.611, 11649.697
230.984, 12911.648
232.356, 13133.351
233.729, 11424.758
235.101, 8465.896
236.473, 5516.804
237.845, 3287.520
239.216, 1908.078
240.588, 1128.508
241.959, 898.813
243.330, 928.996
244.701, 1289.062
246.071, 2199.023
247.441, 3358.889
248.811, 4298.653
250.181, 4498.320
251.551, 3947.918
252.920, 2737.430
254.289, 1926.840
255.658, 1176.139
257.027, 785.349
258.395, 504.468
259.763, 563.498
261.131, 2182.432
262.499, 931.259
263.867, 1239.941
265.234, 1108.507
266.601, 147.260
267.968, 115.484
269.334, 238.629
270.701, 382.271
272.067, 246.468
273.433, 291.244
274.799, 206.621
276.164, 222.614
277.530, 99.248
278.895, 33.547
280.260, 186.198
281.624, 139.731
282.989, 282.421
284.353, 304.575
285.717, 336.173
287.080, 667.635
288.444, 698.377
289.807, 728.763
291.170, 668.101
292.533, 377.274
293.896, 155.910
295.258, 212.871
296.620, 228.811
297.982, 433.705
299.344, 746.931
300.705, 1002.312
302.067, 1284.853
303.428, 1278.818
304.789, 902.619
306.149, 985.594
307.510, 789.426
308.870, 612.015
310.230, 575.483
311.589, 676.703
312.949, 522.853
314.308, 404.024
315.667, 355.339
317.026, 237.079
318.385, 120.268
319.743, 173.396
321.101, 285.812
322.459, 208.762
323.817, 340.617
325.174, 372.557
326.532, 404.039
327.889, 715.992
329.246, 1207.665
330.602, 1319.441
331.958, 1600.583
333.315, 1401.686
334.671, 1083.330
336.026, 964.879
337.382, 916.226
338.737, 1097.319
340.092, 1658.371
341.447, 2299.007
342.802, 2699.648
344.156, 3139.109
345.510, 3478.866
346.864, 4107.699
348.218, 5106.424
349.571, 5812.526
350.925, 6446.674
352.278, 6128.988
353.630, 5201.604
354.983, 4122.944
356.336, 3224.598
357.688, 2925.161
359.040, 2716.354
360.391, 2884.943
361.743, 2992.493
363.094, 3781.155
364.445, 4939.316
365.796, 7118.969
367.147, 9489.145
368.497, 11029.503
369.847, 10531.388
371.197, 9013.829
372.547, 6886.604
373.897, 5390.957
375.246, 4415.428
376.595, 3679.770
377.944, 3003.993
379.293, 2418.118
380.641, 1962.175
381.989, 1766.490
383.337, 1730.858
384.685, 1775.320
386.032, 2230.473
387.380, 2921.849
388.727, 4120.374
390.074, 5055.208
391.421, 7379.688
392.767, 9054.744
394.113, 9449.270
395.459, 8313.654
396.805, 6040.975
398.151, 3855.494
399.496, 2621.166
400.841, 1985.324
402.186, 1539.428
403.531, 1383.328
404.875, 1286.156
406.219, 1479.429
407.564, 1444.562
408.907, 1748.444
410.251, 2442.193
411.594, 3227.560
412.937, 4281.292
414.280, 5084.932
415.623, 5108.440
416.966, 5021.859
418.308, 4065.135
419.650, 3216.699
420.992, 2236.762
422.334, 1697.163
423.675, 1350.052
425.016, 1051.340
426.357, 1043.803
427.698, 835.645
429.038, 891.142
430.379, 973.334
431.719, 1368.042
433.059, 1913.650
434.399, 2457.307
435.738, 2607.901
437.077, 2224.178
438.416, 1688.975
439.755, 802.183
441.094, 592.187
442.432, 259.131
443.770, 323.255
445.108, 219.479
446.446, 226.096
447.783, 154.377
449.121, 232.863
450.458, 212.905
451.795, 312.032
453.131, 250.247
454.468, 306.387
455.804, 550.284
457.140, 714.452
458.476, 948.936
459.811, 1274.725
461.146, 1692.080
462.482, 1810.357
463.816, 1779.523
465.151, 1518.526
466.486, 1186.174
467.820, 974.098
469.154, 601.135
470.488, 407.405
471.821, 363.448
473.155, 279.857
474.488, 295.599
475.821, 140.500
477.154, 294.935
478.486, 208.139
479.818, 239.266
481.150, 351.436
482.482, 175.039
483.814, 387.670
485.145, 321.627
486.477, 385.805
487.808, 230.193
489.138, 256.759
490.469, 193.785
491.799, 201.464
493.129, 199.074
494.459, 116.614
495.789, 103.704
497.119, 110.238
498.448, 136.503
499.777, 113.479
501.106, 180.677
502.434, 147.826
503.763, 394.906
505.091, 281.942
506.419, 618.919
507.747, 805.851
509.074, 1162.729
510.402, 1649.594
511.729, 1936.429
513.056, 2213.234
514.383, 2380.010
515.709, 2506.771
517.035, 2393.518
518.361, 2310.240
519.687, 2196.976
521.013, 2073.711
522.338, 1990.457
523.663, 2137.188
524.988, 2423.906
526.313, 3160.639
527.638, 3457.350
528.962, 3434.040
530.286, 3360.720
531.610, 2617.379
532.934, 2044.005
534.257, 1310.603
535.581, 987.164
536.904, 623.695
538.227, 520.190
539.549, 456.646
540.872, 303.063
542.194, 269.440
543.516, 225.774
544.838, 42.066
546.159, 98.308
547.480, 24.503
548.802, 60.647
550.123, 126.741
551.443, 7.210
552.764, 78.792
554.084, 94.745
555.404, 89.350
556.724, 26.482
558.044, 47.734
559.363, 77.992
560.682, 73.670
562.001, 0.694
563.320, 4.892
564.639, 19.563
565.957, 44.066
567.275, 41.376
568.593, 56.771
569.911, 57.879
571.228, 27.410
572.546, 32.651
573.863, 47.874
575.180, 53.051
576.496, 38.188
577.813, 43.293
579.129, 88.358
580.445, 73.396
581.761, 98.400
583.076, 203.361
584.392, 168.285
585.707, 223.170
587.022, 107.717
588.337, 82.512
589.651, 2.613
590.966, 7.667
592.280, 47.387
593.594, 72.518
594.907, 12.263
596.221, 33.021
597.534, 31.626
598.847, 133.759
600.160, 61.248
601.473, 22.339
602.785, 66.212
604.097, 9.651
605.409, 56.884
606.721, 76.260
608.033, 50.140
609.344, 16.797
610.655, 57.207
611.966, 110.674
613.277, 15.073
614.588, 99.662
615.898, 65.292
617.208, 221.365
618.518, 207.124
619.828, 273.189
621.137, 218.678
622.446, 253.795
623.755, 399.589
625.064, 364.499
626.373, 341.466
627.681, 476.955
628.990, 409.562
630.298, 531.338
631.605, 530.373
632.913, 684.479
634.220, 686.088
635.527, 779.904
636.834, 786.043
638.141, 970.160
639.448, 1164.431
640.754, 1331.350
642.060, 1546.125
643.366, 1843.073
644.672, 2128.142
645.977, 2615.206
647.283, 3339.646
648.588, 3787.042
649.892, 4831.264
651.197, 5625.168
652.502, 6168.758
653.806, 6333.513
655.110, 5866.930
656.414, 5873.943
657.717, 5417.604
659.021, 5755.886
660.324, 6149.790
661.627, 6777.820
662.930, 8312.798
664.232, 10040.590
665.534, 12745.905
666.837, 17228.248
668.138, 22954.350
669.440, 32089.504
670.742, 41854.082
672.043, 50161.785
673.344, 51768.941
674.645, 48123.484
675.946, 38817.031
677.246, 29315.266
678.546, 21834.066
679.846, 15898.865
681.146, 12313.469
682.446, 9855.847
683.745, 8320.692
685.045, 7355.337
686.344, 7014.234
687.642, 6770.934
688.941, 7095.580
690.239, 6532.331
691.538, 6128.021
692.836, 4934.277
694.133, 4219.166
695.431, 3583.672
696.728, 2908.193
698.025, 2412.307
699.322, 2236.361
700.619, 1820.178
701.916, 1643.130
703.212, 1476.344
704.508, 1368.858
705.804, 1311.763
707.100, 1274.888
708.395, 1127.968
709.690, 1170.949
710.985, 973.526
712.280, 1123.494
713.575, 925.801
714.869, 887.725
716.164, 800.432
717.458, 643.548
718.751, 535.787
720.045, 618.360
721.338, 630.169
722.632, 561.828
723.925, 664.479
725.217, 643.276
726.510, 517.817
727.802, 690.002
729.095, 638.525
730.386, 670.815
731.678, 584.012
732.970, 809.398
734.261, 891.429
735.552, 1024.014
736.843, 1556.566
738.134, 1898.503
739.424, 2181.161
740.715, 2313.453
742.005, 1955.755
743.295, 1657.660
744.584, 1369.605
745.874, 1280.973
747.163, 1411.934
748.452, 1643.197
749.741, 1774.540
751.030, 1645.347
752.318, 1406.472
753.607, 1136.776
754.895, 949.355
756.182, 827.588
757.470, 518.563
758.758, 439.698
760.045, 300.575
761.332, 339.944
762.619, 241.059
763.905, 350.603
765.192, 211.045
766.478, 342.008
767.764, 143.173
769.050, 323.574
770.335, 144.637
771.621, 35.521
772.906, 107.021
774.191, 28.424
775.475, 159.927
776.760, 241.304
778.044, 72.729
779.329, 304.111
780.613, 4.541
781.896, 153.249
783.180, 127.915
784.463, 39.041
785.746, 220.129
787.029, 161.182
788.312, 202.200
789.594, 103.188
790.877, 124.138
792.159, 115.052
793.441, 195.930
794.722, 33.229
796.004, 117.549
797.285, 21.712
798.566, 48.966
799.847, 30.400
801.128, 70.171
802.408, 39.298
803.689, 61.168
804.969, 131.595
806.249, 121.985
807.528, 2.340
808.808, 152.648
810.087, 37.079
811.366, 93.133
812.645, 56.689
813.923, 63.562
815.202, 36.370
816.480, 13.626
817.758, 26.423
819.036, 33.619
820.314, 106.542
821.591, 3.273
822.868, 52.950
824.145, 182.632
825.422, 27.773
826.699, 18.194
827.975, 171.558
829.251, 129.004
830.527, 39.682
831.803, 50.420
833.079, 78.763
834.354, 117.953
835.629, 112.904
836.904, 46.158
838.179, 85.146
839.454, 55.694
840.728, 16.820
842.002, 62.027
843.276, 19.141
844.550, 0.389
845.824, 11.491
847.097, 17.157
848.370, 55.768
849.643, 44.339
850.916, 56.105
852.188, 31.373
853.461, 39.833
854.733, 58.255
856.005, 46.646
857.277, 135.002
858.548, 73.328
859.820, 81.619
861.091, 9.871
862.362, 58.090
863.633, 166.273
864.903, 64.436
866.173, 152.580
867.444, 10.691
868.713, 98.791
869.983, 16.861
871.253, 114.891
872.522, 42.889
873.791, 130.855
875.060, 18.791
876.329, 46.699
877.597, 94.576
878.866, 82.418
880.134, 130.240
881.402, 91.969
882.670, 115.738
883.937, 3.414
885.204, 38.953
886.472, 158.621
887.739, 66.168
889.005, 53.686
890.272, 221.170
891.538, 148.625
892.804, 196.047
894.070, 243.438
895.336, 218.127
896.601, 178.127
897.867, 215.424
899.132, 312.693
900.397, 289.938
901.662, 367.156
902.926, 604.350
904.190, 481.521
905.455, 508.668
906.718, 335.791
907.982, 532.885
909.246, 399.965
910.509, 347.014
911.772, 624.037
913.035, 621.031
914.298, 698.008
915.560, 744.816
916.823, 861.744
918.085, 838.389
919.347, 1205.270
920.608, 1601.570
921.870, 1728.398
923.131, 2184.648
924.392, 3030.414
925.653, 3936.445
926.914, 5332.119
928.175, 6198.307
929.435, 6994.805
930.695, 6770.559
931.955, 5947.141
933.215, 4511.604
934.474, 3547.492
935.734, 2853.346
936.993, 2268.797
938.252, 2054.975
939.511, 2010.871
940.769, 2206.910
942.027, 2352.504
943.286, 2808.154
944.544, 3363.730
945.801, 3909.613
947.059, 3992.086
948.316, 3137.576
949.573, 2710.592
950.830, 2075.729
952.087, 1628.189
953.344, 1073.352
954.600, 995.801
955.856, 880.865
957.112, 836.197
958.368, 741.572
959.623, 585.574
960.879, 471.299
962.134, 574.074
963.389, 309.732
964.644, 241.209
965.898, 446.756
967.153, 408.494
968.407, 352.945
969.661, 235.695
970.915, 280.266
972.168, 247.748
973.422, 391.410
974.675, 256.223
975.928, 382.049
977.181, 254.941
978.433, 199.133
979.686, 345.365
980.938, 372.061
982.190, 255.080
983.442, 316.785
984.693, 242.807
985.945, 251.666
987.196, 239.654
988.447, 308.002
989.698, 204.107
990.949, 365.066
992.199, 476.061
993.449, 251.867
994.699, 365.053
995.949, 210.543
997.199, 394.025
998.448, 339.676
999.697, 595.643
1000.947, 481.229
1002.195, 646.756
1003.444, 651.656
1004.693, 837.070
1005.941, 722.330
1007.189, 757.646
1008.437, 862.893
1009.684, 1217.986
1010.932, 1252.338
1012.179, 1577.164
1013.426, 1721.830
1014.673, 2139.740
1015.920, 2624.889
1017.166, 3630.352
1018.413, 4159.031
1019.659, 4564.434
1020.905, 4818.615
1022.151, 5183.676
1023.396, 6558.246
1024.641, 8183.510
1025.887, 10368.230
1027.132, 12803.199
1028.376, 13308.520
1029.621, 12023.641
1030.865, 9379.402
1032.109, 7018.131
1033.353, 4962.865
1034.597, 3806.936
1035.841, 3078.836
1037.084, 2644.035
1038.327, 2199.979
1039.570, 2004.164
1040.813, 1859.816
1042.056, 1884.895
1043.298, 1749.449
1044.540, 1924.518
1045.782, 2099.467
1047.024, 2321.986
1048.266, 2528.918
1049.507, 3143.479
1050.748, 3708.834
1051.990, 4474.289
1053.230, 6030.160
1054.471, 8575.387
1055.711, 11719.867
1056.952, 16054.828
1058.192, 20790.191
1059.432, 22054.318
1060.671, 19759.387
1061.911, 15213.684
1063.150, 11378.262
1064.389, 8573.572
1065.628, 7107.613
1066.867, 6292.973
1068.105, 6257.984
1069.344, 5672.262
1070.582, 5196.896
1071.820, 4270.881
1073.058, 3265.143
1074.295, 2599.604
1075.532, 2253.713
1076.770, 2117.686
1078.007, 1671.598
1079.243, 1534.945
1080.480, 1779.037
1081.716, 1982.623
1082.953, 2826.785
1084.189, 4210.619
1085.424, 5244.271
1086.660, 4778.242
1087.895, 3592.031
1089.131, 2536.428
1090.366, 1670.225
1091.601, 1484.223
1092.835, 1156.822
1094.070, 920.789
1095.304, 753.270
1096.538, 566.672
1097.772, 540.564
1099.005, 653.699
1100.239, 517.156
1101.472, 539.451
1102.705, 244.096
1103.938, 457.754
1105.171, 421.947
1106.404, 355.605
1107.636, 479.170
1108.868, 292.389
1110.100, 156.049
1111.332, 239.086
1112.563, 191.182
1113.795, 224.471
1115.026, 386.051
1116.257, 346.314
1117.488, 260.078
1118.718, 472.367
1119.949, 485.217
1121.179, 707.877
1122.409, 349.020
1123.639, 231.398
1124.868, 173.855
1126.098, 5.000
1127.327, 107.414
1128.556, 218.785
1129.785, 9.070
1131.014, 132.432
1132.242, 43.363
1133.470, 74.939
1134.699, 127.119
1135.927, 71.209
1137.154, 11.121
1138.382, 211.984
1139.609, 144.299
1140.836, 47.172
1142.063, 159.621
1143.290, 29.818
1144.517, 182.934
1145.743, 5.463
1146.969, 4.414
1148.195, 57.244
1149.421, 78.967
1150.647, 201.045
1151.872, 81.902
1153.097, 133.084
1154.322, 105.953
1155.547, 206.135
1156.772, 178.436
1157.996, 358.322
1159.221, 87.979
1160.445, 247.934
1161.669, 52.449
1162.892, 128.297
1164.116, 140.941
1165.339, 78.330
1166.562, 92.064
1167.785, 270.971
1169.008, 183.871
1170.231, 224.191
1171.453, 166.730
1172.675, 166.547
1173.897, 150.748
1175.119, 110.920
1176.341, 140.002
1177.562, 27.881
1178.783, 186.266
1180.004, 245.295
1181.225, 185.842
1182.446, 154.191
1183.666, 184.553
1184.887, 4.900
1186.107, 312.172
1187.327, 138.658
1188.546, 196.521
1189.766, 387.625
1190.985, 305.902
1192.204, 324.590
1193.423, 451.604
1194.642, 237.482
1195.861, 462.369
1197.079, 274.209
1198.297, 259.695
1199.515, 161.328
1200.733, 306.910
1201.951, 489.660
1203.168, 365.021
1204.385, 258.357
1205.602, 543.416
1206.819, 308.326
1208.036, 482.363
1209.253, 430.449
1210.469, 244.385
1211.685, 538.793
1212.901, 213.676
1214.117, 289.037
1215.332, 452.102
1216.548, 375.391
1217.763, 517.764
1218.978, 439.650
1220.193, 384.812
1221.407, 457.100
1222.622, 480.348
1223.836, 482.238
1225.050, 604.594
1226.264, 418.246
1227.477, 535.084
1228.691, 386.785
1229.904, 474.006
1231.117, 505.857
1232.330, 417.494
1233.543, 448.746
1234.755, 289.621
1235.968, 420.906
1237.180, 363.865
1238.392, 683.521
1239.604, 343.387
1240.815, 682.920
1242.027, 452.984
1243.238, 324.082
1244.449, 492.857
1245.660, 403.656
1246.871, 402.725
1248.081, 361.348
1249.291, 315.594
1250.501, 196.385
1251.711, 284.096
1252.921, 293.416
1254.131, 360.967
1255.340, 238.193
1256.549, 376.576
1257.758, 582.438
1258.967, 248.453
1260.175, 676.426
1261.384, 493.127
1262.592, 609.674
1263.800, 426.500
1265.008, 313.156
1266.216, 330.086
1267.423, 695.742
1268.630, 372.355
1269.838, 349.629
1271.044, 634.088
1272.251, 257.510
1273.458, 551.521
1274.664, 355.627
1275.870, 488.809
1277.076, 614.896
1278.282, 396.971
1279.488, 288.299
1280.693, 360.592
1281.898, 221.135
1283.103, 463.619
1284.308, 84.764
1285.513, 311.779
1286.717, 152.559
1287.922, 482.723
1289.126, 101.699
1290.330, 221.705
1291.534, 290.906
1292.737, 189.764
1293.940, 169.570
1295.144, 128.219
1296.347, 248.398
1297.549, 196.279
1298.752, 64.629
1299.955, 312.164
1301.157, 81.096
1302.359, 328.436
1303.561, 356.611
1304.762, 263.160
1305.964, 310.117
1307.165, 144.000
1308.366, 40.248
1309.567, 126.035
1310.768, 137.473
1311.969, 312.586
1313.169, 19.170
1314.369, 114.277
1315.569, 140.330
1316.769, 134.395
1317.969, 11.418
1319.168, 92.422
1320.368, 161.742
1321.567, 309.166
1322.766, 211.775
1323.965, 134.809
1325.163, 47.840
1326.361, 173.057
1327.560, 124.822
1328.758, 37.514
1329.955, 278.008
1331.153, 70.094
1332.351, 150.742
1333.548, 148.453
1334.745, 152.768
1335.942, 126.594
1337.139, 173.795
1338.335, 314.477
1339.531, 514.023
1340.728, 15.727
1341.923, 76.539
1343.119, 17.725
1344.315, 230.404
1345.510, 41.078
1346.706, 217.920
1347.901, 616.174
1349.095, 213.748
1350.290, 212.277
1351.485, 329.598
1352.679, 142.578
1353.873, 274.697
1355.067, 192.689
1356.261, 129.898
1357.454, 85.516
1358.648, 321.219
1359.841, 82.611
1361.034, 402.941
1362.227, 479.215
1363.420, 54.623
1364.612, 299.576
1365.804, 144.627
1366.996, 309.561
1368.188, 204.301
1369.380, 79.270
1370.572, 6.750
1371.763, 217.484
1372.954, 19.117
1374.145, 154.410
1375.336, 157.875
1376.527, 180.793
1377.717, 203.676
1378.907, 135.752
1380.098, 38.266
1381.287, 320.463
1382.477, 234.070
1383.667, 278.154
1384.856, 180.869
1386.045, 83.764
1387.234, 365.770
1388.423, 86.273
1389.612, 236.824
1390.800, 302.498
1391.988, 708.705
1393.176, 239.828
1394.364, 581.445
1395.552, 81.082
1396.740, 391.709
1397.927, 340.576
1399.114, 99.912
1400.301, 539.021
1401.488, 418.762
1402.675, 116.184
1403.861, 372.639
1405.047, 327.439
1406.233, 192.406
1407.419, 277.105
1408.605, 212.035
1409.791, 435.217
1410.976, 178.070
1412.161, 78.621
1413.346, 350.217
1414.531, 364.668
1415.715, 308.207
1416.900, 345.758
1418.084, 265.246
1419.268, 62.762
1420.452, 474.105
1421.636, 106.191
1422.819, 393.699
1424.003, 154.309
1425.186, 179.184
1426.369, 569.645
1427.552, 34.805
1428.734, 358.730
1429.917, 534.668
1431.099, 412.195
1432.281, 452.160
1433.463, 345.078
1434.645, 362.082
1435.826, 136.078
1437.008, 384.219
1438.189, 110.160
1439.370, 422.891
1440.551, 305.160
1441.731, 617.395
1442.912, 95.473
1444.092, 396.840
1445.272, 309.340
1446.452, 532.617
1447.632, 412.754
1448.811, 423.848
1449.991, 273.312
1451.170, 333.652
1452.349, 478.031
1453.528, 429.906
1454.706, 89.863
1455.885, 287.391
1457.063, 192.953
1458.241, 214.785
1459.419, 296.285
1460.597, 280.496
1461.775, 553.992
1462.952, 463.570
1464.129, 416.125
1465.306, 1019.285
1466.483, 821.500
1467.660, 36.176
1468.836, 501.062
1470.012, 103.168
1471.189, 593.957
1472.365, 769.328
1473.540, 226.590
1474.716, 381.410
1475.891, 705.898
1477.067, 469.473
1478.242, 433.680
1479.416, 566.680
1480.591, 437.430
1481.766, 307.953
1482.940, 581.676
1484.114, 252.559
1485.288, 316.227
1486.462, 181.016
1487.635, 288.316
1488.809, 316.383
1489.982, 538.617
1491.155, 438.848
1492.328, 361.781
1493.501, 384.535
1494.673, 297.141
1495.846, 53.961
1497.018, 165.992
1498.190, 328.367
1499.362, 461.352
1500.533, 114.965
1501.705, 238.555
1502.876, 17.598
1504.047, 336.422
1505.218, 360.520
1506.389, 194.605
1507.560, 219.105
1508.730, 493.934
1509.900, 791.219
1511.070, 396.754
1512.240, 152.742
1513.410, 184.531
1514.579, 190.855
1515.749, 47.656
1516.918, 206.625
1518.087, 48.820
1519.255, 135.301
1520.424, 218.125
1521.592, 442.074
1522.761, 0.000
##END=



