##NAMES=Tremolite
##RRUFFID=R040045
##IDEAL CHEMISTRY=[box]Ca_2_Mg_5_Si_8_O_22_(OH)_2_
##LOCALITY=Gouverneur, New York, USA
##OWNER=RRUFF
##SOURCE=University of Arizona Mineral Museum
##DESCRIPTION=Group of colorless acicular single crystals
##STATUS=The identification of this mineral has been confirmed by X-ray diffraction and chemical analysis
##URL=rruff.info/R040045
##MEASURED CHEMISTRY=Ca_2.01_(Mg_0.99_Fe_0.01_)_5_(Si_0.99_Fe_0.01_)_8_O_22_(OH)_2_
##PIN_ID=M00230
##ORIENTATION=Laser parallel to b* (0 1 0). Fiducial mark perpendicular to laser is parallel to -c [0 0 -1]
133.003, 0.000
134.390, 0.170
135.777, 61.092
137.164, 203.949
138.550, 9.461
139.937, 10.963
141.323, 21.764
142.709, 237.057
144.094, 14.469
145.480, 243.633
146.865, 164.271
148.250, 96.172
149.635, 209.160
151.019, 263.275
152.403, 358.379
153.788, 524.211
155.171, 570.699
156.555, 1397.781
157.939, 2015.408
159.322, 2413.525
160.705, 2292.094
162.088, 1921.078
163.470, 1280.439
164.853, 710.154
166.235, 770.191
167.617, 350.529
168.998, 605.408
170.380, 656.385
171.761, 1067.633
173.142, 1519.129
174.523, 2460.867
175.904, 3842.822
177.284, 4174.980
178.664, 4327.344
180.044, 3869.891
181.424, 2652.596
182.803, 1645.453
184.183, 978.453
185.562, 781.596
186.940, 444.869
188.319, 428.271
189.698, 181.795
191.076, 35.430
192.454, 319.172
193.831, 53.014
195.209, 286.955
196.586, 70.992
197.963, 195.119
199.340, 239.338
200.717, 173.648
202.093, 138.055
203.470, 57.447
204.846, 198.559
206.221, 47.553
207.597, 202.633
208.972, 467.789
210.347, 483.008
211.722, 348.293
213.097, 553.635
214.472, 1129.035
215.846, 1244.537
217.220, 2070.006
218.594, 2765.510
219.967, 3861.055
221.341, 4996.604
222.714, 5312.420
224.087, 4948.463
225.460, 4124.090
226.832, 2909.730
228.204, 1895.393
229.577, 1571.072
230.948, 1056.771
232.320, 1092.492
233.692, 858.244
235.063, 594.191
236.434, 560.162
237.805, 536.154
239.175, 222.168
240.545, 298.201
241.916, 354.254
243.286, 70.332
244.655, 426.430
246.025, 332.549
247.394, 418.686
248.763, 694.842
250.132, 661.014
251.501, 527.197
252.869, 553.400
254.237, 529.615
255.605, 385.871
256.973, 322.146
258.340, 348.475
259.708, 344.832
261.075, 321.207
262.442, 387.596
263.808, 484.086
265.175, 320.697
266.541, 357.404
267.907, 284.184
269.273, 240.986
270.639, 107.863
272.004, 54.764
273.369, 181.699
274.734, 41.326
276.099, 115.723
277.463, 87.078
278.828, 230.189
280.192, 11.459
281.556, 111.898
282.919, 133.551
284.283, 190.627
285.646, 245.846
287.009, 224.779
288.372, 321.840
289.734, 359.012
291.097, 367.131
292.459, 213.230
293.821, 270.273
295.183, 287.420
296.544, 118.131
297.905, 393.398
299.266, 537.945
300.627, 403.088
301.988, 361.318
303.348, 546.723
304.709, 294.219
306.069, 470.736
307.428, 366.484
308.788, 352.355
310.147, 11.725
311.507, 304.688
312.865, 18.848
314.224, 107.281
315.583, 236.457
316.941, 282.699
318.299, 98.990
319.657, 25.334
321.015, 371.719
322.372, 28.295
323.729, 74.764
325.086, 341.268
326.443, 277.809
327.800, 394.383
329.156, 400.988
330.512, 677.625
331.868, 754.910
333.224, 701.586
334.579, 850.572
335.935, 447.740
337.290, 754.486
338.645, 501.500
339.999, 818.561
341.354, 695.414
342.708, 792.244
344.062, 959.094
345.416, 965.957
346.769, 832.859
348.123, 959.758
349.476, 866.781
350.829, 853.705
352.182, 720.979
353.534, 703.857
354.887, 754.943
356.239, 611.916
357.591, 558.900
358.942, 465.895
360.294, 460.510
361.645, 479.914
362.996, 536.938
364.347, 943.967
365.698, 1111.006
367.048, 1647.115
368.398, 1834.162
369.748, 2051.193
371.098, 1928.230
372.448, 1485.270
373.797, 1022.311
375.146, 750.885
376.495, 867.934
377.844, 615.326
379.192, 522.381
380.540, 502.072
381.889, 479.930
383.236, 407.773
384.584, 434.830
385.932, 431.975
387.279, 879.033
388.626, 1086.092
389.973, 1493.865
391.319, 1561.908
392.666, 2632.740
394.012, 2650.207
395.358, 2392.770
396.704, 2009.961
398.049, 1547.855
399.394, 1245.588
400.740, 897.803
402.084, 601.459
403.429, 458.652
404.774, 341.977
406.118, 263.682
407.462, 277.697
408.806, 315.955
410.150, 343.148
411.493, 425.455
412.836, 752.703
414.179, 620.678
415.522, 764.527
416.865, 911.705
418.207, 524.361
419.549, 621.527
420.891, 155.521
422.233, 242.807
423.575, 150.195
424.916, 12.229
426.257, 214.963
427.598, 237.855
428.939, 70.600
430.279, 146.477
431.619, 214.383
432.959, 332.521
434.299, 218.580
435.639, 455.666
436.978, 262.049
438.318, 280.193
439.657, 475.391
440.996, 232.422
442.334, 69.254
443.673, 146.111
445.011, 262.932
446.349, 99.744
447.687, 316.539
449.024, 83.322
450.361, 300.092
451.699, 176.846
453.036, 303.582
454.372, 90.732
455.709, 52.557
457.045, 234.121
458.381, 341.502
459.717, 108.174
461.053, 214.838
462.388, 38.498
463.724, 228.125
465.059, 25.258
466.394, 1.332
467.728, 327.900
469.063, 134.459
470.397, 381.008
471.731, 47.402
473.065, 53.922
474.398, 230.166
475.732, 33.344
477.065, 213.127
478.398, 159.582
479.731, 206.025
481.063, 312.453
482.396, 128.869
483.728, 251.139
485.060, 230.041
486.391, 348.234
487.723, 244.662
489.054, 331.074
490.385, 307.496
491.716, 33.898
493.047, 280.322
494.377, 173.270
495.708, 83.012
497.038, 319.277
498.368, 135.520
499.697, 131.750
501.027, 187.953
502.356, 284.137
503.685, 230.324
505.014, 236.496
506.342, 202.645
507.671, 238.770
508.999, 184.871
510.327, 280.953
511.655, 137.008
512.982, 403.043
514.310, 209.055
515.637, 385.043
516.964, 381.008
518.291, 276.953
519.617, 472.875
520.944, 478.773
522.270, 447.812
523.596, 260.508
524.921, 416.340
526.247, 272.148
527.572, 307.945
528.897, 413.711
530.222, 569.461
531.547, 295.180
532.871, 630.875
534.196, 16.543
535.520, 382.176
536.844, 177.777
538.167, 413.352
539.491, 1.098
540.814, 74.406
542.137, 79.875
543.460, 365.312
544.783, 251.949
546.105, 286.004
547.427, 342.883
548.749, 109.199
550.071, 65.277
551.393, 170.809
552.714, 204.305
554.035, 37.855
555.356, 277.148
556.677, 118.508
557.998, 287.648
559.318, 82.465
560.638, 100.863
561.958, 335.605
563.278, 38.016
564.597, 197.715
565.917, 143.918
567.236, 99.445
568.555, 384.645
569.874, 20.348
571.192, 324.789
572.511, 149.281
573.829, 43.828
575.147, 430.711
576.464, 183.625
577.782, 430.422
579.099, 45.422
580.416, 341.934
581.733, 315.816
583.050, 269.660
584.366, 437.352
585.683, 501.223
586.999, 320.348
588.315, 549.887
589.630, 153.559
590.946, 377.191
592.261, 330.785
593.576, 344.344
594.891, 527.871
596.206, 111.363
597.520, 325.121
598.834, 348.547
600.148, 412.422
601.462, 435.660
602.776, 506.355
604.089, 484.000
605.402, 647.230
606.715, 550.875
608.028, 604.645
609.341, 398.191
610.653, 601.789
611.965, 274.855
613.277, 529.258
614.589, 508.570
615.901, 201.527
617.212, 842.941
618.523, 705.746
619.834, 659.648
621.145, 969.531
622.456, 762.941
623.766, 1134.098
625.076, 1145.957
626.386, 1099.195
627.696, 1062.711
629.006, 875.285
630.315, 887.898
631.624, 700.543
632.933, 453.004
634.242, 887.758
635.551, 420.145
636.859, 1003.445
638.167, 896.637
639.475, 938.910
640.783, 828.426
642.090, 1030.621
643.398, 1334.816
644.705, 1027.562
646.012, 1419.637
647.318, 1659.352
648.625, 1721.348
649.931, 1852.633
651.237, 2084.848
652.543, 2034.438
653.849, 2288.078
655.155, 1999.867
656.460, 2273.008
657.765, 1684.441
659.070, 2426.062
660.375, 1884.281
661.679, 2375.863
662.984, 2907.398
664.288, 3208.875
665.592, 4100.973
666.895, 5312.668
668.199, 6914.047
669.502, 9405.105
670.805, 12057.047
672.108, 14538.352
673.411, 16380.742
674.713, 14772.016
676.016, 13193.316
677.318, 10085.262
678.620, 8036.625
679.921, 6059.191
681.223, 4340.469
682.524, 3521.781
683.825, 2504.152
685.126, 2185.336
686.427, 1846.512
687.727, 1517.645
689.028, 1818.766
690.328, 1219.848
691.628, 1489.363
692.927, 1130.363
694.227, 730.984
695.526, 991.902
696.825, 570.953
698.124, 650.984
699.423, 700.984
700.721, 181.738
702.020, 742.348
703.318, 413.012
704.616, 223.629
705.913, 273.543
707.211, 56.859
708.508, 619.867
709.805, 49.910
711.102, 694.816
712.399, 74.965
713.695, 154.477
714.992, 464.520
716.288, 146.430
717.584, 762.523
718.879, 112.414
720.175, 176.129
721.470, 115.371
722.765, 204.332
724.060, 272.961
725.355, 312.602
726.649, 257.074
727.944, 406.578
729.238, 45.305
730.532, 358.090
731.825, 127.504
733.119, 471.512
734.412, 380.840
735.705, 156.711
736.998, 512.348
738.291, 451.254
739.584, 20.078
740.876, 388.910
742.168, 427.859
743.460, 506.676
744.752, 535.629
746.043, 538.059
747.334, 713.090
748.626, 611.805
749.916, 620.988
751.207, 869.738
752.498, 337.297
753.788, 715.805
755.078, 294.367
756.368, 452.949
757.658, 751.492
758.947, 79.996
760.237, 448.438
761.526, 306.844
762.815, 245.203
764.104, 313.516
765.392, 291.891
766.680, 500.117
767.969, 107.871
769.257, 665.996
770.544, 564.105
771.832, 78.574
773.119, 529.371
774.406, 157.277
775.693, 395.133
776.980, 252.957
778.267, 250.734
779.553, 398.477
780.839, 266.188
782.125, 183.844
783.411, 691.457
784.697, 289.027
785.982, 276.551
787.267, 434.031
788.552, 28.527
789.837, 628.840
791.122, 176.160
792.406, 193.438
793.690, 490.668
794.974, 222.141
796.258, 664.863
797.542, 51.828
798.825, 248.734
800.108, 475.598
801.391, 67.570
802.674, 719.152
803.957, 104.152
805.239, 322.422
806.522, 508.965
807.804, 35.523
809.085, 572.039
810.367, 78.520
811.649, 444.938
812.930, 761.480
814.211, 52.156
815.492, 774.145
816.772, 630.418
818.053, 566.898
819.333, 233.199
820.613, 289.383
821.893, 766.250
823.173, 455.570
824.452, 251.641
825.732, 667.895
827.011, 154.973
828.290, 781.449
829.568, 653.230
830.847, 249.145
832.125, 859.855
833.403, 175.699
834.681, 811.504
835.959, 433.211
837.236, 188.949
838.514, 534.867
839.791, 669.570
841.068, 535.215
842.345, 1047.520
843.621, 573.105
844.898, 1210.059
846.174, 456.133
847.450, 891.633
848.726, 837.109
850.001, 252.551
851.277, 1317.977
852.552, 643.371
853.827, 1098.738
855.102, 1042.977
856.376, 750.125
857.651, 1475.215
858.925, 1401.551
860.199, 1145.996
861.473, 1462.547
862.746, 1017.785
864.020, 1640.234
865.293, 1075.441
866.566, 641.262
867.839, 1575.168
869.112, 820.352
870.384, 1111.902
871.656, 767.047
872.928, 770.504
874.200, 804.535
875.472, 1138.035
876.744, 632.152
878.015, 796.543
879.286, 901.078
880.557, 595.406
881.828, 580.340
883.098, 592.812
884.369, 556.035
885.639, 371.141
886.909, 696.227
888.178, 581.152
889.448, 632.797
890.717, 1097.867
891.987, 482.797
893.256, 822.754
894.524, 587.441
895.793, 632.047
897.061, 986.281
898.330, 250.426
899.598, 834.543
900.865, 998.531
902.133, 262.414
903.401, 1496.238
904.668, 640.031
905.935, 723.484
907.202, 1087.219
908.468, 420.402
909.735, 1203.875
911.001, 617.316
912.267, 868.973
913.533, 1122.336
914.799, 745.215
916.064, 687.797
917.330, 320.621
918.595, 743.309
919.860, 1086.445
921.124, 968.051
922.389, 711.082
923.653, 1404.059
924.918, 858.473
926.182, 1801.328
927.445, 1693.070
928.709, 2245.773
929.972, 2367.840
931.236, 1999.863
932.499, 2492.484
933.761, 2414.520
935.024, 1486.184
936.286, 1928.766
937.549, 750.844
938.811, 1072.852
940.073, 1425.395
941.334, 842.617
942.596, 1085.148
943.857, 696.746
945.118, 868.438
946.379, 1461.035
947.640, 676.238
948.900, 1768.934
950.161, 559.660
951.421, 721.883
952.681, 1134.852
953.940, 390.277
955.200, 734.539
956.459, 518.113
957.719, 291.293
958.978, 814.852
960.236, 427.762
961.495, 691.242
962.753, 389.590
964.012, 194.629
965.270, 238.977
966.527, 243.539
967.785, 397.742
969.043, 171.297
970.300, 205.895
971.557, 249.488
972.814, 72.262
974.071, 175.035
975.327, 388.922
976.583, 127.238
977.840, 36.527
979.095, 100.246
980.351, 217.012
981.607, 696.633
982.862, 519.750
984.117, 313.820
985.372, 297.242
986.627, 59.277
987.882, 284.203
989.136, 157.758
990.390, 108.641
991.644, 615.016
992.898, 71.332
994.152, 442.305
995.405, 15.930
996.659, 79.543
997.912, 562.980
999.165, 266.566
1000.417, 890.273
1001.670, 1493.980
1002.922, 617.699
1004.174, 670.652
1005.426, 164.336
1006.678, 7.355
1007.930, 751.031
1009.181, 155.293
1010.432, 268.391
1011.683, 342.105
1012.934, 275.840
1014.185, 839.426
1015.435, 283.211
1016.685, 367.031
1017.935, 1171.000
1019.185, 565.016
1020.435, 1069.082
1021.684, 1023.199
1022.934, 797.375
1024.183, 1991.605
1025.432, 1225.938
1026.680, 1500.367
1027.929, 2204.867
1029.177, 1479.707
1030.425, 2404.648
1031.673, 1649.715
1032.921, 1504.965
1034.169, 1210.348
1035.416, 805.805
1036.663, 891.098
1037.911, 1046.730
1039.157, 461.898
1040.404, 1527.434
1041.650, 522.125
1042.897, 694.203
1044.143, 1205.488
1045.389, 292.926
1046.634, 1293.031
1047.880, 1110.926
1049.125, 762.535
1050.371, 1701.406
1051.615, 1405.312
1052.860, 1691.070
1054.105, 2291.805
1055.349, 2322.398
1056.593, 4322.844
1057.837, 3987.336
1059.081, 6030.785
1060.325, 7089.605
1061.568, 6018.148
1062.812, 5976.398
1064.055, 3974.312
1065.298, 3451.852
1066.540, 2628.977
1067.783, 1965.645
1069.025, 1991.785
1070.267, 2257.324
1071.509, 1062.184
1072.751, 1826.273
1073.993, 829.516
1075.234, 902.406
1076.475, 1285.949
1077.716, 501.930
1078.957, 1019.793
1080.198, 908.766
1081.438, 288.234
1082.679, 1057.543
1083.919, 528.055
1085.159, 509.711
1086.398, 1091.711
1087.638, 494.203
1088.877, 587.391
1090.116, 421.578
1091.355, 287.195
1092.594, 399.219
1093.833, 314.203
1095.071, 425.531
1096.309, 479.082
1097.547, 235.164
1098.785, 684.422
1100.023, 157.684
1101.260, 185.785
1102.498, 529.945
1103.735, 17.875
1104.972, 785.184
1106.208, 1116.559
1107.445, 0.000
##END=



