##NAMES=Tremolite
##RRUFFID=R050173
##IDEAL CHEMISTRY=[box]Ca_2_Mg_5_Si_8_O_22_(OH)_2_
##LOCALITY=Fort Dauphin, Madagascar
##OWNER=RRUFF
##SOURCE=Marcus Origlieri
##DESCRIPTION=Mass of colorless acicular crystals
##STATUS=The identification of this mineral has been confirmed by X-ray diffraction and chemical analysis
##URL=rruff.info/R050173
##MEASURED CHEMISTRY=[box]Ca_2.00_Mg_5.00_Si_8.00_O_22_(OH)_2_
##PIN_ID=L00129
##ORIENTATION=Laser parallel to -b* (0 -1 0). Fiducial mark perpendicular to laser is parallel to -c [0 0 -1]
96.748, 0.000
98.143, 3.448
99.538, 62.214
100.932, 12.017
102.326, 101.409
103.720, 60.480
105.114, 113.938
106.508, 160.715
107.901, 100.051
109.294, 261.852
110.687, 645.968
112.079, 921.649
113.472, 1418.553
114.864, 2036.363
116.256, 2804.944
117.647, 3884.144
119.039, 5394.139
120.430, 6575.608
121.821, 6992.041
123.211, 6666.906
124.602, 5770.717
125.992, 4534.859
127.382, 3249.121
128.772, 2223.322
130.162, 1357.328
131.551, 851.042
132.940, 574.830
134.329, 241.168
135.718, 173.973
137.106, 276.833
138.494, 237.140
139.882, 141.483
141.270, 108.554
142.657, 187.559
144.045, 134.302
145.432, 126.683
146.819, 24.901
148.205, 163.958
149.592, 131.658
150.978, 309.432
152.364, 758.714
153.749, 1736.395
155.135, 3443.186
156.520, 5168.908
157.905, 5903.626
159.290, 6157.403
160.674, 4810.295
162.059, 2702.354
163.443, 1383.622
164.826, 749.139
166.210, 860.939
167.593, 1427.247
168.977, 1140.428
170.360, 1876.414
171.742, 3726.908
173.125, 6772.887
174.507, 10178.354
175.889, 12270.655
177.271, 13199.477
178.652, 10940.082
180.034, 7062.500
181.415, 3634.252
182.796, 1899.771
184.176, 1228.759
185.557, 1093.281
186.937, 1047.117
188.317, 1181.577
189.697, 1274.202
191.076, 1416.321
192.456, 1510.178
193.835, 1547.731
195.213, 1751.373
196.592, 1832.289
197.970, 2101.926
199.349, 2216.641
200.726, 2271.381
202.104, 2438.268
203.482, 2509.691
204.859, 2516.563
206.236, 2536.845
207.613, 2765.079
208.989, 2711.527
210.366, 2964.119
211.742, 3093.609
213.118, 3328.154
214.493, 4071.815
215.869, 5535.452
217.244, 8279.065
218.619, 11532.661
219.994, 14946.224
221.368, 16129.755
222.742, 14833.244
224.117, 11416.663
225.490, 7369.991
226.864, 4733.214
228.237, 3366.335
229.611, 2919.350
230.984, 2642.262
232.356, 2295.070
233.729, 1795.774
235.101, 1186.373
236.473, 797.868
237.845, 480.269
239.216, 311.584
240.588, 245.814
241.959, 121.964
243.330, 370.028
244.701, 463.016
246.071, 814.929
247.441, 1177.796
248.811, 1211.619
250.181, 1196.367
251.551, 911.996
252.920, 567.469
254.289, 361.838
255.658, 147.128
257.027, 79.344
258.395, 175.473
259.763, 203.447
261.131, 378.252
262.499, 320.549
263.867, 202.286
265.234, 115.220
266.601, 68.255
267.968, 123.321
269.334, 237.242
270.701, 270.303
272.067, 288.512
273.433, 205.888
274.799, 215.423
276.164, 236.128
277.530, 122.017
278.895, 144.702
280.260, 67.564
281.624, 103.765
282.989, 93.350
284.353, 310.728
285.717, 608.986
287.080, 781.110
288.444, 903.108
289.807, 817.992
291.170, 567.754
292.533, 303.388
293.896, 149.887
295.258, 321.240
296.620, 404.459
297.982, 763.547
299.344, 1224.507
300.705, 1339.342
302.067, 1379.052
303.428, 1118.636
304.789, 884.086
306.149, 647.383
307.510, 479.504
308.870, 404.443
310.230, 277.089
311.589, 216.549
312.949, 172.594
314.308, 162.600
315.667, 170.654
317.026, 232.539
318.385, 204.260
319.743, 265.819
321.101, 396.224
322.459, 295.483
323.817, 448.598
325.174, 501.577
326.532, 802.424
327.889, 1169.149
329.246, 1530.848
330.602, 1752.503
331.958, 1719.267
333.315, 1422.712
334.671, 1199.654
336.026, 1176.391
337.382, 1218.379
338.737, 1743.726
340.092, 2260.285
341.447, 2549.526
342.802, 2601.665
344.156, 2493.367
345.510, 2007.035
346.864, 2001.190
348.218, 2040.488
349.571, 2180.380
350.925, 2365.482
352.278, 2279.229
353.630, 1938.755
354.983, 1567.151
356.336, 1220.479
357.688, 1156.750
359.040, 1139.932
360.391, 1259.998
361.743, 1404.989
363.094, 2199.924
364.445, 3067.804
365.796, 4425.619
367.147, 5143.351
368.497, 5340.973
369.847, 4558.474
371.197, 3595.862
372.547, 2743.144
373.897, 2201.515
375.246, 1824.339
376.595, 1558.392
377.944, 1226.256
379.293, 1204.409
380.641, 1226.427
381.989, 1200.345
383.337, 1313.467
384.685, 1409.021
386.032, 1865.925
387.380, 2589.488
388.727, 3937.140
390.074, 5495.803
391.421, 7333.487
392.767, 8011.179
394.113, 7331.924
395.459, 5659.848
396.805, 3860.740
398.151, 2638.090
399.496, 1767.635
400.841, 1402.520
402.186, 1092.102
403.531, 933.798
404.875, 907.857
406.219, 893.900
407.564, 1010.938
408.907, 1204.511
410.251, 1562.577
411.594, 1948.263
412.937, 2340.053
414.280, 2587.332
415.623, 2423.156
416.966, 2238.688
418.308, 1832.154
419.650, 1477.317
420.992, 1065.827
422.334, 1023.656
423.675, 787.389
425.016, 683.611
426.357, 620.983
427.698, 622.816
429.038, 605.419
430.379, 775.534
431.719, 880.156
433.059, 1097.082
434.399, 1261.704
435.738, 1124.354
437.077, 945.442
438.416, 806.152
439.755, 530.676
441.094, 513.425
442.432, 418.615
443.770, 562.901
445.108, 611.920
446.446, 688.571
447.783, 850.764
449.121, 920.647
450.458, 1085.816
451.795, 1435.654
453.131, 1721.613
454.468, 2446.561
455.804, 3245.050
457.140, 4666.004
458.476, 6367.494
459.811, 8650.646
461.146, 10233.890
462.482, 10527.379
463.816, 9830.695
465.151, 7873.730
466.486, 6116.520
467.820, 4368.245
469.154, 3339.230
470.488, 2609.619
471.821, 2018.775
473.155, 1677.096
474.488, 1400.615
475.821, 1093.881
477.154, 1028.259
478.486, 791.569
479.818, 878.397
481.150, 918.010
482.482, 808.802
483.814, 859.673
485.145, 744.790
486.477, 713.125
487.808, 577.662
489.138, 437.750
490.469, 417.785
491.799, 357.768
493.129, 389.698
494.459, 223.574
495.789, 241.396
497.119, 154.160
498.448, 280.865
499.777, 196.551
501.106, 222.180
502.434, 204.757
503.763, 275.280
505.091, 239.753
506.419, 274.175
507.747, 355.551
509.074, 332.891
510.402, 481.189
511.729, 525.449
513.056, 617.684
514.383, 772.884
515.709, 821.056
517.035, 644.211
518.361, 703.331
519.687, 849.434
521.013, 598.503
522.338, 532.546
523.663, 546.557
524.988, 707.533
526.313, 768.501
527.638, 778.438
528.962, 658.344
530.286, 702.218
531.610, 524.060
532.934, 315.874
534.257, 186.657
535.581, 115.433
536.904, 145.126
538.227, 60.809
539.549, 77.458
540.872, 86.066
542.194, 21.651
543.516, 142.193
544.838, 42.699
546.159, 109.178
547.480, 72.617
548.802, 30.982
550.123, 34.369
551.443, 17.698
552.764, 84.016
554.084, 13.798
555.404, 89.623
556.724, 39.480
558.044, 47.453
559.363, 2.440
560.682, 5.461
562.001, 40.512
563.320, 51.402
564.639, 28.322
565.957, 13.214
567.275, 71.076
568.593, 5.097
569.911, 51.691
571.228, 12.686
572.546, 22.722
573.863, 14.123
575.180, 45.468
576.496, 11.148
577.813, 122.754
579.129, 115.355
580.445, 141.856
581.761, 114.519
583.076, 94.930
584.392, 182.899
585.707, 109.613
587.022, 138.349
588.337, 115.108
589.651, 167.699
590.966, 48.382
592.280, 58.148
593.594, 68.003
594.907, 31.929
596.221, 23.923
597.534, 80.993
598.847, 138.746
600.160, 43.440
601.473, 27.949
602.785, 54.156
604.097, 53.340
605.409, 100.505
606.721, 86.648
608.033, 23.182
609.344, 93.897
610.655, 33.486
611.966, 79.516
613.277, 102.879
614.588, 72.891
615.898, 91.341
617.208, 86.558
618.518, 202.298
619.828, 127.254
621.137, 151.361
622.446, 268.279
623.755, 236.576
625.064, 244.418
626.373, 340.988
627.681, 390.450
628.990, 324.883
630.298, 444.676
631.605, 408.951
632.913, 519.672
634.220, 610.570
635.527, 620.586
636.834, 680.901
638.141, 881.016
639.448, 890.927
640.754, 1131.048
642.060, 1290.880
643.366, 1470.752
644.672, 1680.540
645.977, 2160.781
647.283, 2710.836
648.588, 3240.727
649.892, 4050.581
651.197, 4390.072
652.502, 4799.291
653.806, 4658.338
655.110, 4577.359
656.414, 4414.020
657.717, 4463.188
659.021, 4812.469
660.324, 5491.685
661.627, 6311.158
662.930, 7700.443
664.232, 9819.885
665.534, 12791.606
666.837, 17771.221
668.138, 23791.041
669.440, 32792.969
670.742, 40522.922
672.043, 44064.637
673.344, 41668.199
674.645, 35428.066
675.946, 26831.416
677.246, 19741.154
678.546, 14582.614
679.846, 10442.339
681.146, 8211.931
682.446, 6407.430
683.745, 5227.514
685.045, 4357.258
686.344, 3986.787
687.642, 3406.396
688.941, 3386.606
690.239, 2836.362
691.538, 2716.591
692.836, 2385.062
694.133, 2085.134
695.431, 1794.512
696.728, 1592.976
698.025, 1474.521
699.322, 1252.389
700.619, 1060.977
701.916, 1041.858
703.212, 870.116
704.508, 858.312
705.804, 775.190
707.100, 726.942
708.395, 704.515
709.690, 749.399
710.985, 596.841
712.280, 581.385
713.575, 469.212
714.869, 435.719
716.164, 433.089
717.458, 420.754
718.751, 367.178
720.045, 400.933
721.338, 360.909
722.632, 394.903
723.925, 372.985
725.217, 280.595
726.510, 401.899
727.802, 329.561
729.095, 335.968
730.386, 434.971
731.678, 301.311
732.970, 419.791
734.261, 377.883
735.552, 466.079
736.843, 504.231
738.134, 592.447
739.424, 610.634
740.715, 729.311
742.005, 527.045
743.295, 596.828
744.584, 735.029
745.874, 742.991
747.163, 930.443
748.452, 1057.933
749.741, 1175.470
751.030, 1072.820
752.318, 1060.126
753.607, 887.656
754.895, 565.556
756.182, 521.594
757.470, 358.113
758.758, 225.479
760.045, 182.826
761.332, 240.354
762.619, 167.812
763.905, 184.388
765.192, 51.844
766.478, 189.028
767.764, 96.389
769.050, 223.829
770.335, 71.130
771.621, 68.487
772.906, 45.807
774.191, 173.589
775.475, 131.043
776.760, 170.880
778.044, 74.873
779.329, 214.023
780.613, 98.287
781.896, 80.679
783.180, 26.860
784.463, 15.627
785.746, 61.847
787.029, 50.705
788.312, 2.418
789.594, 124.048
790.877, 51.385
792.159, 98.697
793.441, 145.984
794.722, 93.250
796.004, 160.490
797.285, 147.709
798.566, 164.905
799.847, 52.080
801.128, 69.228
802.408, 86.352
803.689, 33.452
804.969, 150.528
806.249, 47.582
807.528, 104.614
808.808, 21.627
810.087, 111.383
811.366, 25.523
812.645, 22.408
813.923, 19.271
815.202, 26.109
816.480, 32.925
817.758, 29.721
819.036, 23.170
820.314, 43.560
821.591, 70.265
822.868, 23.055
824.145, 23.581
825.422, 19.806
826.699, 53.234
827.975, 33.471
829.251, 50.025
830.527, 56.524
831.803, 17.010
833.079, 49.381
834.354, 75.751
835.629, 87.625
836.904, 8.650
838.179, 24.900
839.454, 71.127
840.728, 47.331
842.002, 3.531
843.276, 9.703
844.550, 11.260
845.824, 61.967
847.097, 11.938
848.370, 5.873
849.643, 20.163
850.916, 43.819
852.188, 102.150
853.461, 48.104
854.733, 35.964
856.005, 89.924
857.277, 65.794
858.548, 121.646
859.820, 52.517
861.091, 153.271
862.362, 49.044
863.633, 94.812
864.903, 60.564
866.173, 106.314
867.444, 62.048
868.713, 157.771
869.983, 73.491
871.253, 139.198
872.522, 55.104
873.791, 50.543
875.060, 46.177
876.329, 61.793
877.597, 77.396
878.866, 47.017
880.134, 98.535
881.402, 4.073
882.670, 29.594
883.937, 105.099
885.204, 0.598
886.472, 96.073
887.739, 61.536
889.005, 96.985
890.272, 52.418
891.538, 37.833
892.804, 13.231
894.070, 198.609
895.336, 16.023
896.601, 49.315
897.867, 244.636
899.132, 249.943
900.397, 155.238
901.662, 150.522
902.926, 205.796
904.190, 301.062
905.455, 326.314
906.718, 121.554
907.982, 366.778
909.246, 361.997
910.509, 297.210
911.772, 462.412
913.035, 347.601
914.298, 562.776
915.560, 547.890
916.823, 723.045
918.085, 697.654
919.347, 1032.787
920.608, 1387.559
921.870, 1532.664
923.131, 2087.305
924.392, 2731.922
925.653, 3656.432
926.914, 4781.463
928.175, 5266.302
929.435, 5431.294
930.695, 4995.871
931.955, 4180.864
933.215, 3219.098
934.474, 2438.407
935.734, 1862.721
936.993, 1475.656
938.252, 1540.091
939.511, 1291.062
940.769, 1464.846
942.027, 1449.498
943.286, 1763.834
944.544, 1998.354
945.801, 1813.061
947.059, 1807.530
948.316, 1292.271
949.573, 1166.945
950.830, 1081.679
952.087, 605.928
953.344, 460.233
954.600, 484.601
955.856, 418.733
957.112, 366.404
958.368, 417.512
959.623, 281.904
960.879, 245.973
962.134, 183.025
963.389, 277.188
964.644, 131.314
965.898, 315.286
967.153, 229.340
968.407, 173.944
969.661, 47.921
970.915, 179.934
972.168, 173.941
973.422, 298.050
974.675, 150.022
975.928, 174.451
977.181, 196.938
978.433, 80.568
979.686, 184.849
980.938, 95.622
982.190, 110.334
983.442, 173.491
984.693, 147.966
985.945, 53.277
987.196, 131.435
988.447, 275.682
989.698, 140.225
990.949, 254.482
992.199, 323.208
993.449, 127.094
994.699, 191.174
995.949, 164.381
997.199, 158.561
998.448, 171.402
999.697, 334.493
1000.947, 238.565
1002.195, 369.480
1003.444, 353.571
1004.693, 357.311
1005.941, 438.322
1007.189, 342.219
1008.437, 386.003
1009.684, 550.012
1010.932, 320.043
1012.179, 694.164
1013.426, 657.839
1014.673, 791.692
1015.920, 825.390
1017.166, 944.322
1018.413, 1123.586
1019.659, 1289.981
1020.905, 1594.316
1022.151, 1928.718
1023.396, 2449.167
1024.641, 3203.758
1025.887, 3987.859
1027.132, 4562.492
1028.376, 4317.023
1029.621, 3639.624
1030.865, 2754.473
1032.109, 2218.351
1033.353, 1602.347
1034.597, 1337.062
1035.841, 1140.564
1037.084, 1125.402
1038.327, 1180.694
1039.570, 1034.633
1040.813, 1129.254
1042.056, 1343.339
1043.298, 1367.479
1044.540, 1502.567
1045.782, 1696.070
1047.024, 1800.168
1048.266, 2275.035
1049.507, 2849.600
1050.748, 3824.604
1051.990, 4589.699
1053.230, 6565.224
1054.471, 9449.625
1055.711, 12944.107
1056.952, 17188.648
1058.192, 19653.346
1059.432, 19198.174
1060.671, 15612.822
1061.911, 11417.454
1063.150, 8272.073
1064.389, 6347.053
1065.628, 5061.262
1066.867, 4476.293
1068.105, 4300.645
1069.344, 3554.727
1070.582, 3089.021
1071.820, 2393.467
1073.058, 2038.066
1074.295, 1662.191
1075.532, 1296.764
1076.770, 1220.985
1078.007, 1155.484
1079.243, 909.298
1080.480, 1073.267
1081.716, 1227.176
1082.953, 1390.849
1084.189, 1291.717
1085.424, 1232.706
1086.660, 1053.723
1087.895, 817.263
1089.131, 741.681
1090.366, 435.545
1091.601, 569.980
1092.835, 303.817
1094.070, 368.142
1095.304, 261.697
1096.538, 176.120
1097.772, 300.234
1099.005, 164.333
1100.239, 218.208
1101.472, 212.028
1102.705, 226.380
1103.938, 210.342
1105.171, 214.710
1106.404, 193.687
1107.636, 172.687
1108.868, 156.437
1110.100, 130.333
1111.332, 134.165
1112.563, 137.648
1113.795, 181.455
1115.026, 154.449
1116.257, 28.524
1117.488, 201.748
1118.718, 475.125
1119.949, 458.627
1121.179, 342.659
1122.409, 215.843
1123.639, 49.318
1124.868, 92.781
1126.098, 74.305
1127.327, 89.207
1128.556, 92.211
1129.785, 5.619
1131.014, 11.053
1132.242, 52.137
1133.470, 24.647
1134.699, 168.734
1135.927, 2.874
1137.154, 6.025
1138.382, 118.954
1139.609, 94.520
1140.836, 38.188
1142.063, 52.483
1143.290, 15.039
1144.517, 128.586
1145.743, 91.745
1146.969, 110.210
1148.195, 107.913
1149.421, 131.450
1150.647, 185.016
1151.872, 237.956
1153.097, 251.805
1154.322, 284.927
1155.547, 397.668
1156.772, 361.414
1157.996, 634.208
1159.221, 487.412
1160.445, 500.150
1161.669, 455.697
1162.892, 314.912
1164.116, 227.936
1165.339, 81.976
1166.562, 43.427
1167.785, 88.865
1169.008, 146.283
1170.231, 98.456
1171.453, 13.115
1172.675, 126.924
1173.897, 25.747
1175.119, 71.972
1176.341, 34.657
1177.562, 19.360
1178.783, 82.264
1180.004, 156.962
1181.225, 59.744
1182.446, 147.437
1183.666, 29.974
1184.887, 16.158
1186.107, 245.070
1187.327, 38.435
1188.546, 150.397
1189.766, 140.403
1190.985, 61.389
1192.204, 12.592
1193.423, 204.077
1194.642, 125.167
1195.861, 197.974
1197.079, 89.909
1198.297, 60.991
1199.515, 8.535
1200.733, 238.753
1201.951, 223.872
1203.168, 174.255
1204.385, 165.046
1205.602, 139.661
1206.819, 181.699
1208.036, 181.611
1209.253, 182.802
1210.469, 92.499
1211.685, 272.423
1212.901, 73.226
1214.117, 232.935
1215.332, 292.454
1216.548, 247.130
1217.763, 206.188
1218.978, 164.833
1220.193, 273.402
1221.407, 161.901
1222.622, 241.374
1223.836, 170.482
1225.050, 329.527
1226.264, 288.385
1227.477, 297.382
1228.691, 356.113
1229.904, 165.986
1231.117, 116.203
1232.330, 347.422
1233.543, 426.031
1234.755, 174.666
1235.968, 303.770
1237.180, 162.234
1238.392, 300.592
1239.604, 179.055
1240.815, 356.697
1242.027, 145.068
1243.238, 213.225
1244.449, 211.010
1245.660, 259.316
1246.871, 267.238
1248.081, 134.811
1249.291, 223.381
1250.501, 121.045
1251.711, 267.777
1252.921, 235.324
1254.131, 152.398
1255.340, 210.078
1256.549, 227.678
1257.758, 303.967
1258.967, 220.850
1260.175, 438.053
1261.384, 144.297
1262.592, 341.283
1263.800, 217.984
1265.008, 264.977
1266.216, 131.338
1267.423, 327.227
1268.630, 255.299
1269.838, 251.662
1271.044, 377.594
1272.251, 180.227
1273.458, 335.889
1274.664, 211.418
1275.870, 236.607
1277.076, 271.785
1278.282, 257.113
1279.488, 141.457
1280.693, 76.387
1281.898, 251.121
1283.103, 295.400
1284.308, 10.225
1285.513, 323.734
1286.717, 47.752
1287.922, 341.486
1289.126, 114.969
1290.330, 178.719
1291.534, 252.162
1292.737, 125.584
1293.940, 98.896
1295.144, 92.172
1296.347, 185.600
1297.549, 58.973
1298.752, 132.693
1299.955, 205.875
1301.157, 59.422
1302.359, 172.420
1303.561, 105.299
1304.762, 168.098
1305.964, 300.812
1307.165, 173.443
1308.366, 105.984
1309.567, 28.420
1310.768, 10.107
1311.969, 200.006
1313.169, 38.494
1314.369, 203.104
1315.569, 4.402
1316.769, 25.230
1317.969, 63.584
1319.168, 22.986
1320.368, 37.678
1321.567, 11.646
1322.766, 56.982
1323.965, 2.656
1325.163, 57.896
1326.361, 52.082
1327.560, 68.150
1328.758, 7.768
1329.955, 246.660
1331.153, 16.934
1332.351, 96.219
1333.548, 254.148
1334.745, 245.184
1335.942, 115.924
1337.139, 122.455
1338.335, 171.605
1339.531, 20.320
1340.728, 59.230
1341.923, 137.584
1343.119, 64.283
1344.315, 293.326
1345.510, 28.057
1346.706, 220.367
1347.901, 128.486
1349.095, 23.533
1350.290, 24.213
1351.485, 262.146
1352.679, 59.859
1353.873, 277.479
1355.067, 204.691
1356.261, 72.492
1357.454, 219.355
1358.648, 246.795
1359.841, 123.392
1361.034, 267.047
1362.227, 345.877
1363.420, 363.364
1364.612, 135.785
1365.804, 224.663
1366.996, 215.967
1368.188, 212.416
1369.380, 239.451
1370.572, 187.658
1371.763, 232.961
1372.954, 59.867
1374.145, 35.900
1375.336, 4.453
1376.527, 191.078
1377.717, 167.797
1378.907, 93.576
1380.098, 169.836
1381.287, 175.459
1382.477, 141.301
1383.667, 306.512
1384.856, 132.285
1386.045, 147.041
1387.234, 212.004
1388.423, 112.307
1389.612, 152.172
1390.800, 221.625
1391.988, 71.613
1393.176, 170.836
1394.364, 460.643
1395.552, 170.742
1396.740, 270.055
1397.927, 129.201
1399.114, 118.084
1400.301, 387.008
1401.488, 226.047
1402.675, 164.920
1403.861, 363.469
1405.047, 101.352
1406.233, 238.490
1407.419, 152.771
1408.605, 279.504
1409.791, 376.967
1410.976, 44.264
1412.161, 130.127
1413.346, 226.121
1414.531, 271.186
1415.715, 246.479
1416.900, 262.016
1418.084, 238.615
1419.268, 173.846
1420.452, 204.760
1421.636, 233.717
1422.819, 445.973
1424.003, 199.918
1425.186, 277.314
1426.369, 417.795
1427.552, 13.053
1428.734, 271.613
1429.917, 442.910
1431.099, 383.311
1432.281, 440.156
1433.463, 318.146
1434.645, 398.441
1435.826, 299.453
1437.008, 462.523
1438.189, 248.299
1439.370, 273.457
1440.551, 143.369
1441.731, 424.334
1442.912, 134.908
1444.092, 547.311
1445.272, 511.459
1446.452, 415.943
1447.632, 328.525
1448.811, 500.137
1449.991, 281.615
1451.170, 471.037
1452.349, 464.443
1453.528, 414.770
1454.706, 253.723
1455.885, 343.305
1457.063, 383.670
1458.241, 412.299
1459.419, 641.668
1460.597, 439.246
1461.775, 599.572
1462.952, 318.562
1464.129, 474.791
1465.306, 474.512
1466.483, 503.146
1467.660, 309.016
1468.836, 515.996
1470.012, 190.436
1471.189, 615.539
1472.365, 462.266
1473.540, 388.441
1474.716, 392.953
1475.891, 361.928
1477.067, 375.684
1478.242, 401.949
1479.416, 449.277
1480.591, 457.441
1481.766, 500.443
1482.940, 444.775
1484.114, 483.477
1485.288, 340.873
1486.462, 148.006
1487.635, 456.641
1488.809, 295.016
1489.982, 263.225
1491.155, 371.539
1492.328, 69.771
1493.501, 407.883
1494.673, 365.961
1495.846, 73.945
1497.018, 301.938
1498.190, 209.906
1499.362, 208.029
1500.533, 286.385
1501.705, 294.949
1502.876, 298.445
1504.047, 433.270
1505.218, 272.930
1506.389, 242.682
1507.560, 192.654
1508.730, 262.820
1509.900, 233.209
1511.070, 212.861
1512.240, 273.168
1513.410, 314.480
1514.579, 166.293
1515.749, 31.342
1516.918, 351.568
1518.087, 145.107
1519.255, 299.398
1520.424, 244.824
1521.592, 191.514
1522.761, 65.084
1523.929, 73.986
1525.097, 17.322
1526.264, 73.844
1527.432, 0.000
##END=



