##NAMES=Triplite
##RRUFFID=R050226
##IDEAL CHEMISTRY=Mn^2+^_2_(PO_4_)F
##LOCALITY=Fremont County, Colorado, USA
##OWNER=RRUFF
##SOURCE=Marcus Origlieri
##DESCRIPTION=Reddish brown massive
##STATUS=The identification of this mineral has been confirmed by X-ray diffraction and chemical analysis
##URL=rruff.info/R050226
##MEASURED CHEMISTRY=(Mn^2+^_1.20_Mg_0.49_Fe^2+^_0.27_Ca_0.04_)_Σ=2_(P_1.00_O_4_)(F_0.95_(OH)_0.05_)_Σ=1_
##PIN_ID=L00496
##ORIENTATION=Laser parallel to a* (1 0 0). Fiducial mark perpendicular to laser is parallel to b [0 1 0]
131.3490, 0.0000000E+00
132.5770, 239.3477
133.8050, 549.2188
135.0330, 494.5117
136.2600, 22.23438
137.4880, 157.5430
138.7150, 1251.820
139.9420, 1790.289
141.1690, 1442.621
142.3960, 1928.168
143.6230, 154.0938
144.8490, 93.81250
146.0760, 490.3398
147.3020, 1889.219
148.5280, 1195.426
149.7540, 1656.523
150.9800, 576.8008
152.2050, 945.5586
153.4310, 1779.352
154.6560, 2470.734
155.8810, 2387.793
157.1060, 3259.242
158.3310, 2197.473
159.5560, 1718.699
160.7800, 1535.941
162.0050, 1900.152
163.2290, 1441.000
164.4530, 1456.152
165.6770, 1903.289
166.9010, 1506.824
168.1250, 1605.734
169.3480, 1653.853
170.5720, 1416.207
171.7950, 1589.922
173.0180, 1598.957
174.2410, 1402.457
175.4640, 1627.914
176.6860, 1315.242
177.9090, 1013.312
179.1310, 894.1250
180.3530, 834.5703
181.5750, 764.2031
182.7970, 534.4375
184.0190, 514.9336
185.2400, 125.4648
186.4620, 120.7070
187.6830, 102.9492
188.9040, 1020.102
190.1250, 675.0625
191.3460, 989.6602
192.5660, 1163.641
193.7870, 1248.441
195.0070, 1894.266
196.2270, 1623.238
197.4470, 1327.195
198.6670, 2031.750
199.8870, 2021.426
201.1060, 2600.312
202.3260, 1854.109
203.5450, 1948.309
204.7640, 2710.145
205.9830, 1526.312
207.2020, 1041.980
208.4200, 677.4961
209.6390, 511.5898
210.8570, 957.9609
212.0750, 742.3594
213.2940, 1023.281
214.5110, 898.7969
215.7290, 497.8320
216.9470, 987.3594
218.1640, 36.63672
219.3810, 654.4648
220.5990, 1226.902
221.8150, 882.0195
223.0320, 45.64062
224.2490, 239.5117
225.4650, 336.2109
226.6820, 601.3281
227.8980, 491.2048
229.1140, 862.2969
230.3300, 355.6641
231.5460, 380.1680
232.7610, 488.7461
233.9770, 589.2461
235.1920, 628.3086
236.4070, 384.4961
237.6220, 598.6328
238.8370, 433.1133
240.0520, 101.9414
241.2660, 291.8047
242.4810, 116.3867
243.6950, 340.3750
244.9090, 964.4805
246.1230, 855.1953
247.3370, 225.1719
248.5500, 1158.645
249.7640, 603.6523
250.9770, 1206.375
252.1900, 682.3242
253.4030, 454.5977
254.6160, 1040.648
255.8290, 748.8867
257.0410, 399.5703
258.2530, 782.3633
259.4660, 601.4023
260.6780, 971.0156
261.8900, 1107.852
263.1010, 1077.461
264.3130, 1268.836
265.5250, 1257.367
266.7360, 1179.812
267.9470, 1465.047
269.1580, 1121.801
270.3690, 1518.500
271.5800, 1866.844
272.7900, 1296.797
274.0010, 1306.125
275.2110, 1214.941
276.4210, 1015.242
277.6310, 1205.750
278.8410, 1148.852
280.0500, 1841.398
281.2600, 1405.164
282.4690, 1557.855
283.6780, 2072.172
284.8870, 1945.133
286.0960, 2079.223
287.3050, 2173.516
288.5130, 1991.105
289.7220, 2144.438
290.9300, 2048.844
292.1380, 1950.547
293.3460, 2426.766
294.5540, 2487.172
295.7610, 2741.746
296.9690, 2829.168
298.1760, 2697.164
299.3830, 2822.395
300.5900, 2694.902
301.7970, 2912.258
303.0040, 2556.824
304.2100, 2795.371
305.4170, 2910.805
306.6230, 2254.430
307.8290, 2076.297
309.0350, 2080.484
310.2410, 1880.973
311.4460, 1898.562
312.6520, 1965.023
313.8570, 1897.766
315.0620, 1998.516
316.2670, 1989.008
317.4720, 1407.043
318.6770, 1682.770
319.8810, 1611.785
321.0860, 1090.891
322.2900, 1347.453
323.4940, 1690.691
324.6980, 1557.680
325.9020, 1484.805
327.1050, 1061.871
328.3090, 1084.020
329.5120, 922.6445
330.7150, 894.4727
331.9180, 815.6211
333.1210, 890.5078
334.3240, 988.3672
335.5260, 999.0586
336.7290, 812.4375
337.9310, 716.7930
339.1330, 445.8320
340.3350, 974.1367
341.5370, 1165.141
342.7380, 906.2500
343.9400, 259.7734
345.1410, 605.7383
346.3420, 566.1758
347.5430, 708.1094
348.7440, 359.5430
349.9450, 124.4609
351.1450, 45.41797
352.3460, 26.78906
353.5460, 49.60156
354.7460, 160.9258
355.9460, 25.52344
357.1460, 232.5391
358.3450, 184.9258
359.5450, 127.3555
360.7440, 31.98047
361.9430, 128.9922
363.1420, 111.1406
364.3410, 247.8633
365.5400, 48.35156
366.7380, 55.23438
367.9370, 43.21875
369.1350, 427.6992
370.3330, 5.980469
371.5310, 303.1914
372.7280, 491.2070
373.9260, 418.8047
375.1230, 268.0195
376.3210, 400.4531
377.5180, 297.1172
378.7150, 632.8789
379.9120, 200.7070
381.1080, 311.2344
382.3050, 156.2969
383.5010, 519.2617
384.6970, 233.7695
385.8930, 262.5664
387.0890, 254.1172
388.2850, 218.2461
389.4810, 285.5391
390.6760, 110.7812
391.8710, 377.3945
393.0660, 70.97656
394.2610, 129.2969
395.4560, 248.5664
396.6510, 4.875000
397.8450, 19.13281
399.0400, 126.9180
400.2340, 100.3164
401.4280, 320.7500
402.6220, 695.6641
403.8150, 295.2148
405.0090, 653.5508
406.2020, 497.5000
407.3960, 898.7188
408.5890, 1272.242
409.7820, 660.5078
410.9740, 807.1875
412.1670, 1226.000
413.3600, 1505.012
414.5520, 1701.785
415.7440, 2108.914
416.9360, 2993.559
418.1280, 3339.152
419.3200, 3759.352
420.5110, 3245.191
421.7020, 4245.836
422.8940, 3971.871
424.0850, 3833.449
425.2760, 4804.859
426.4660, 4841.586
427.6570, 4561.141
428.8470, 4429.859
430.0380, 4567.820
431.2280, 4444.879
432.4180, 3950.871
433.6080, 3604.234
434.7970, 3041.992
435.9870, 2872.066
437.1760, 2610.852
438.3650, 2165.613
439.5540, 2005.207
440.7430, 1965.598
441.9320, 1598.691
443.1210, 1182.527
444.3090, 1152.102
445.4970, 1189.430
446.6850, 1242.512
447.8730, 1157.348
449.0610, 822.9492
450.2490, 877.3125
451.4360, 692.7109
452.6240, 713.2227
453.8110, 776.0938
454.9980, 832.1406
456.1850, 890.2695
457.3710, 958.9336
458.5580, 855.8438
459.7440, 734.5312
460.9310, 771.2852
462.1170, 913.6562
463.3030, 654.2461
464.4880, 1116.492
465.6740, 881.6680
466.8590, 942.1367
468.0450, 1204.914
469.2300, 1503.254
470.4150, 1226.703
471.6000, 1308.129
472.7840, 988.7734
473.9690, 1348.227
475.1530, 1243.281
476.3370, 1777.594
477.5210, 2180.211
478.7050, 1505.781
479.8890, 1426.477
481.0730, 1192.465
482.2560, 1812.098
483.4390, 1817.203
484.6220, 1933.020
485.8050, 1676.676
486.9880, 1898.484
488.1710, 2087.289
489.3530, 2136.723
490.5360, 2166.254
491.7180, 2293.785
492.9000, 2477.867
494.0820, 2420.371
495.2630, 2311.008
496.4450, 2509.180
497.6260, 2357.836
498.8080, 2399.797
499.9890, 2271.719
501.1700, 2358.434
502.3500, 2376.695
503.5310, 2332.715
504.7110, 2023.867
505.8920, 2055.406
507.0720, 1937.121
508.2520, 1825.820
509.4320, 1918.055
510.6110, 1641.770
511.7910, 1219.273
512.9700, 1506.684
514.1490, 1326.020
515.3280, 1307.867
516.5070, 1319.590
517.6860, 1525.145
518.8650, 1599.758
520.0430, 1394.238
521.2210, 1230.305
522.3990, 1361.488
523.5770, 1413.805
524.7550, 1407.789
525.9330, 1105.898
527.1100, 1175.594
528.2870, 1102.387
529.4650, 1024.430
530.6420, 1146.227
531.8180, 901.1484
532.9950, 1027.484
534.1720, 993.9336
535.3480, 1050.711
536.5240, 965.7500
537.7000, 925.5078
538.8760, 1290.688
540.0520, 1183.344
541.2270, 1161.078
542.4030, 1553.867
543.5780, 1338.793
544.7530, 2044.461
545.9280, 2133.230
547.1030, 1921.457
548.2780, 2503.887
549.4520, 2328.113
550.6260, 2135.059
551.8010, 2569.441
552.9750, 2889.559
554.1480, 3074.266
555.3220, 3921.215
556.4960, 4222.242
557.6690, 4290.344
558.8420, 4506.633
560.0150, 4419.066
561.1880, 4731.629
562.3610, 4638.141
563.5340, 4974.055
564.7060, 5237.656
565.8780, 5432.984
567.0500, 5355.043
568.2220, 5630.453
569.3940, 5764.566
570.5660, 6047.891
571.7370, 6148.793
572.9090, 6185.426
574.0800, 6338.359
575.2510, 6423.012
576.4220, 6473.016
577.5920, 6398.941
578.7630, 6422.324
579.9330, 6256.488
581.1040, 6162.504
582.2740, 6041.770
583.4440, 5833.246
584.6130, 5751.871
585.7830, 5580.957
586.9520, 5603.188
588.1220, 5450.988
589.2910, 5755.551
590.4600, 5987.906
591.6290, 6151.984
592.7970, 6042.582
593.9660, 6286.691
595.1340, 6743.754
596.3020, 7284.359
597.4700, 7368.109
598.6380, 7732.363
599.8060, 8037.156
600.9730, 8211.336
602.1410, 8634.738
603.3080, 9014.301
604.4750, 9383.020
605.6420, 9481.504
606.8090, 9494.867
607.9750, 9601.086
609.1420, 9247.469
610.3080, 9340.016
611.4740, 9284.711
612.6400, 9424.555
613.8060, 9396.582
614.9720, 9261.766
616.1370, 9319.109
617.3020, 8964.617
618.4680, 9038.266
619.6330, 8902.074
620.7970, 9184.031
621.9620, 9306.145
623.1270, 9290.410
624.2910, 9452.820
625.4550, 9365.371
626.6190, 9541.062
627.7830, 9676.922
628.9470, 9571.930
630.1110, 9827.086
631.2740, 9832.391
632.4370, 9831.852
633.6000, 9861.207
634.7630, 10174.13
635.9260, 10414.89
637.0890, 10587.50
638.2510, 10486.62
639.4140, 10739.27
640.5760, 10850.48
641.7380, 10957.54
642.9000, 11260.50
644.0610, 11201.45
645.2230, 11502.40
646.3840, 11639.25
647.5460, 11816.59
648.7070, 12067.06
649.8670, 12184.09
651.0280, 12313.95
652.1890, 12530.08
653.3490, 12431.71
654.5090, 12629.97
655.6700, 12564.16
656.8300, 12757.07
657.9890, 12735.00
659.1490, 12878.58
660.3080, 13223.50
661.4680, 13081.65
662.6270, 13359.75
663.7860, 13556.45
664.9450, 13387.50
666.1030, 13855.41
667.2620, 13850.39
668.4200, 14291.08
669.5790, 14242.68
670.7370, 14167.43
671.8940, 14630.28
673.0520, 15180.72
674.2100, 15537.78
675.3670, 16029.70
676.5240, 16349.84
677.6810, 16937.28
678.8380, 17201.07
679.9950, 17891.90
681.1520, 18192.23
682.3080, 18715.06
683.4650, 18809.02
684.6210, 19373.79
685.7770, 19730.00
686.9320, 20260.46
688.0880, 20157.55
689.2440, 21021.61
690.3990, 20801.15
691.5540, 21299.09
692.7090, 21313.41
693.8640, 21811.96
695.0190, 21031.72
696.1730, 20822.88
697.3280, 20709.76
698.4820, 20614.90
699.6360, 19839.85
700.7900, 19682.94
701.9440, 19156.05
703.0970, 18688.87
704.2510, 18131.46
705.4040, 17532.48
706.5570, 16944.59
707.7100, 16450.57
708.8630, 15955.85
710.0150, 15405.82
711.1680, 14538.34
712.3200, 14152.34
713.4720, 13854.00
714.6240, 12810.87
715.7760, 12481.26
716.9280, 12168.35
718.0790, 11349.87
719.2310, 10848.80
720.3820, 10119.02
721.5330, 9546.434
722.6840, 9043.133
723.8350, 8657.832
724.9850, 8278.199
726.1360, 7433.434
727.2860, 7338.527
728.4360, 6704.309
729.5860, 6427.527
730.7360, 6074.059
731.8850, 5883.906
733.0350, 5369.051
734.1840, 4995.578
735.3330, 4724.574
736.4820, 4195.473
737.6310, 4077.801
738.7800, 3891.043
739.9280, 3430.137
741.0760, 3321.160
742.2250, 3069.477
743.3730, 2809.562
744.5200, 2747.598
745.6680, 2324.051
746.8160, 2272.273
747.9630, 2065.719
749.1100, 1921.078
750.2570, 1633.004
751.4040, 1395.516
752.5510, 1349.141
753.6980, 1283.336
754.8440, 1061.898
755.9900, 937.3750
757.1360, 935.7852
758.2820, 855.1406
759.4280, 720.2891
760.5740, 747.9453
761.7190, 434.7109
762.8640, 364.3945
764.0100, 588.4023
765.1550, 520.2070
766.2990, 278.8906
767.4440, 588.2070
768.5890, 483.2305
769.7330, 119.8789
770.8770, 397.7109
772.0210, 202.6680
773.1650, 285.1016
774.3090, 17.25391
775.4520, 377.2695
776.5960, 263.1641
777.7390, 338.7812
778.8820, 63.97656
780.0250, 133.2422
781.1670, 35.00391
782.3100, 7.589844
783.4520, 165.0078
784.5950, 158.3984
785.7370, 229.9336
786.8790, 108.4492
788.0210, 203.3555
789.1620, 229.6914
790.3040, 17.58594
791.4450, 88.17188
792.5860, 52.28516
793.7270, 10.46094
794.8680, 165.5625
796.0090, 42.57812
797.1490, 109.1133
798.2890, 116.9805
799.4300, 190.4844
800.5700, 121.4258
801.7090, 96.22266
802.8490, 213.3281
803.9890, 251.4102
805.1280, 165.3984
806.2670, 242.2148
807.4060, 27.69141
808.5450, 68.52734
809.6840, 219.4766
810.8230, 139.8555
811.9610, 218.4922
813.0990, 205.6367
814.2370, 173.6719
815.3750, 135.7500
816.5130, 166.7422
817.6510, 90.38281
818.7880, 245.8594
819.9250, 257.4766
821.0630, 334.6953
822.1990, 269.3203
823.3360, 247.7617
824.4730, 368.4883
825.6090, 410.1445
826.7460, 327.6875
827.8820, 57.35938
829.0180, 208.0391
830.1540, 182.2539
831.2890, 642.2812
832.4250, 334.1367
833.5600, 297.0117
834.6960, 150.6523
835.8310, 76.93359
836.9660, 71.94531
838.1000, 340.7148
839.2350, 256.7266
840.3690, 314.6406
841.5030, 378.7617
842.6380, 246.2852
843.7710, 477.2656
844.9050, 348.7852
846.0390, 364.4297
847.1720, 314.7617
848.3060, 391.4023
849.4390, 237.3594
850.5720, 156.0508
851.7040, 143.5625
852.8370, 404.9141
853.9700, 313.5898
855.1020, 364.2461
856.2340, 421.1680
857.3660, 281.5586
858.4980, 505.4844
859.6300, 294.7812
860.7610, 461.4453
861.8920, 201.2500
863.0240, 116.4492
864.1550, 18.99219
865.2850, 112.8594
866.4160, 3.687500
867.5470, 149.5977
868.6770, 41.12500
869.8070, 55.31641
870.9370, 70.84375
872.0670, 38.10156
873.1970, 25.06641
874.3270, 37.80859
875.4560, 55.79688
876.5850, 83.17578
877.7140, 107.9805
878.8430, 109.2493
879.9720, 112.9239
881.1010, 118.8438
882.2290, 88.09766
883.3570, 110.2266
884.4860, 83.93298
885.6140, 132.0725
886.7410, 76.22266
887.8690, 212.3828
888.9960, 206.7070
890.1240, 195.0312
891.2510, 380.1094
892.3780, 201.8633
893.5050, 383.3398
894.6320, 420.8984
895.7580, 523.9531
896.8840, 484.3906
898.0110, 488.6406
899.1370, 635.0859
900.2620, 702.3867
901.3880, 645.5625
902.5140, 751.5117
903.6390, 566.0000
904.7640, 635.8203
905.8890, 815.6719
907.0140, 764.9258
908.1390, 872.4141
909.2640, 919.3711
910.3880, 691.8555
911.5120, 941.1484
912.6360, 983.9922
913.7600, 814.8867
914.8840, 1031.609
916.0080, 1121.324
917.1310, 936.2109
918.2550, 1104.453
919.3780, 1131.691
920.5010, 1152.887
921.6230, 1370.910
922.7460, 1225.332
923.8690, 1439.977
924.9910, 1510.691
926.1130, 1645.645
927.2350, 1638.629
928.3570, 1554.492
929.4790, 1664.262
930.6000, 1762.777
931.7220, 1987.047
932.8430, 1990.719
933.9640, 2348.305
935.0850, 2633.660
936.2050, 2849.820
937.3260, 2792.324
938.4460, 3088.078
939.5660, 3242.203
940.6870, 3390.129
941.8060, 3734.793
942.9260, 3715.398
944.0460, 4055.914
945.1650, 4297.934
946.2840, 4562.758
947.4040, 4971.680
948.5220, 5270.328
949.6410, 5739.609
950.7600, 6120.543
951.8780, 6920.375
952.9970, 7160.648
954.1150, 8366.344
955.2330, 8934.875
956.3500, 9405.492
957.4680, 10206.62
958.5860, 10678.43
959.7030, 11485.52
960.8200, 12862.55
961.9370, 13926.06
963.0540, 14625.09
964.1710, 16269.69
965.2870, 17580.97
966.4030, 19444.94
967.5200, 22492.48
968.6360, 24489.24
969.7510, 27356.63
970.8670, 31129.15
971.9830, 35324.44
973.0980, 39550.35
974.2130, 45820.07
975.3280, 52581.64
976.4430, 60149.68
977.5580, 69291.58
978.6730, 79014.49
979.7870, 88600.01
980.9010, 98686.08
982.0150, 107095.8
983.1290, 114476.3
984.2430, 117522.0
985.3560, 118586.5
986.4700, 116131.3
987.5830, 109336.3
988.6960, 100609.6
989.8090, 88893.43
990.9220, 76959.29
992.0350, 65350.55
993.1470, 54811.42
994.2590, 45038.19
995.3720, 37157.16
996.4830, 31225.16
997.5950, 26152.20
998.7070, 22784.45
999.8180, 19433.14
1000.930, 17387.41
1002.041, 15732.26
1003.152, 14526.69
1004.263, 13376.77
1005.373, 12483.11
1006.484, 11652.11
1007.594, 10970.16
1008.704, 10470.19
1009.815, 10081.96
1010.924, 9890.852
1012.034, 9654.609
1013.144, 9571.871
1014.253, 9316.613
1015.362, 9228.359
1016.471, 8914.621
1017.580, 9102.473
1018.689, 9048.059
1019.797, 9192.543
1020.906, 9078.000
1022.014, 8828.898
1023.122, 8839.188
1024.230, 8770.988
1025.338, 8684.754
1026.445, 8768.469
1027.553, 9049.102
1028.660, 8839.824
1029.767, 9048.918
1030.874, 8697.781
1031.981, 8696.590
1033.088, 8846.957
1034.194, 8998.539
1035.300, 9078.832
1036.406, 9029.211
1037.512, 8710.500
1038.618, 8746.051
1039.724, 8713.844
1040.829, 8414.672
1041.935, 8462.273
1043.040, 8389.695
1044.145, 8294.543
1045.250, 8392.008
1046.354, 8126.496
1047.459, 8220.199
1048.563, 8283.145
1049.667, 8092.770
1050.771, 8160.371
1051.875, 8137.668
1052.979, 8106.230
1054.082, 7964.840
1055.186, 7935.492
1056.289, 7924.867
1057.392, 7905.438
1058.495, 7695.680
1059.598, 7718.918
1060.700, 7696.832
1061.803, 7633.148
1062.905, 7328.277
1064.007, 7398.129
1065.109, 7353.371
1066.210, 7329.648
1067.312, 7541.402
1068.413, 7405.375
1069.515, 7956.867
1070.616, 7752.629
1071.717, 7886.641
1072.817, 7958.426
1073.918, 7970.730
1075.019, 7783.711
1076.119, 7824.633
1077.219, 7756.234
1078.319, 7671.059
1079.419, 7717.523
1080.518, 7493.523
1081.618, 7502.109
1082.717, 7410.133
1083.816, 7137.973
1084.915, 7154.258
1086.014, 7107.047
1087.113, 7002.254
1088.211, 6693.637
1089.309, 6613.898
1090.408, 6421.188
1091.506, 6210.484
1092.603, 6120.125
1093.701, 5776.660
1094.799, 5656.297
1095.896, 5432.746
1096.993, 5230.695
1098.090, 4917.449
1099.187, 4636.949
1100.284, 4425.891
1101.380, 4144.004
1102.477, 3685.512
1103.573, 4191.758
1104.669, 3544.156
1105.765, 3430.051
1106.860, 3519.547
1107.956, 3126.156
1109.051, 3319.492
1110.147, 3282.484
1111.242, 3159.852
1112.336, 3461.176
1113.431, 3061.441
1114.526, 3230.836
1115.620, 3207.738
1116.714, 3063.406
1117.809, 3282.445
1118.902, 3435.977
1119.996, 3525.445
1121.090, 3553.391
1122.183, 3379.992
1123.277, 3432.621
1124.370, 3373.914
1125.463, 3296.473
1126.555, 3338.613
1127.648, 3118.387
1128.740, 3128.824
1129.833, 3026.391
1130.925, 2953.984
1132.017, 2769.664
1133.109, 2692.219
1134.200, 2535.617
1135.292, 2343.812
1136.383, 2255.348
1137.474, 1888.215
1138.565, 2185.328
1139.656, 2021.246
1140.747, 1895.234
1141.837, 1585.277
1142.927, 1602.383
1144.018, 1299.539
1145.108, 1535.734
1146.197, 1038.977
1147.287, 916.2695
1148.377, 1061.672
1149.466, 837.1289
1150.555, 695.6250
1151.644, 767.1602
1152.733, 811.7578
1153.822, 657.0664
1154.910, 340.0312
1155.999, 383.1250
1157.087, 379.5625
1158.175, 189.5547
1159.263, 240.3945
1160.350, 194.7500
1161.438, 145.1836
1162.525, 229.9961
1163.613, 67.28125
1164.700, 150.0273
1165.787, 182.9922
1166.873, 261.0547
1167.960, 21.14453
1169.046, 373.2695
1170.133, 42.41797
1171.219, 152.4023
1172.305, 75.74609
1173.390, 387.0820
1174.476, 125.6914
1175.561, 35.91797
1176.647, 124.9375
1177.732, 78.98047
1178.817, 78.05469
1179.901, 309.1523
1180.986, 18.72266
1182.070, 234.5820
1183.155, 53.47656
1184.239, 83.55469
1185.323, 18.66406
1186.407, 355.2070
1187.490, 38.77734
1188.574, 24.78125
1189.657, 404.8125
1190.740, 267.8711
1191.823, 256.9531
1192.906, 112.9219
1193.988, 144.8701
1195.071, 219.3008
1196.153, 250.4492
1197.235, 215.3672
1198.317, 359.7266
1199.399, 28.14844
1200.481, 73.01562
1201.562, 189.1133
1202.644, 207.2656
1203.725, 252.4453
1204.806, 307.6445
1205.887, 42.87500
1206.967, 105.1289
1208.048, 80.41406
1209.128, 185.2812
1210.208, 157.9609
1211.289, 98.23047
1212.368, 184.4766
1213.448, 45.75781
1214.528, 159.0742
1215.607, 174.4492
1216.686, 62.12891
1217.765, 560.2812
1218.844, 41.21094
1219.923, 126.3281
1221.001, 644.8945
1222.080, 28.48828
1223.158, 152.8906
1224.236, 1.320313
1225.314, 160.7305
1226.392, 127.8008
1227.469, 90.35938
1228.547, 282.0586
1229.624, 55.59375
1230.701, 201.9023
1231.778, 183.5664
1232.855, 211.8906
1233.931, 31.62891
1235.008, 272.1406
1236.084, 42.23047
1237.160, 239.6250
1238.236, 142.9414
1239.312, 123.4727
1240.387, 288.9258
1241.463, 0.4023440
1242.538, 241.8906
1243.613, 134.4023
1244.688, 32.06641
1245.763, 440.4648
1246.837, 58.98047
1247.912, 394.5508
1248.986, 112.1094
1250.060, 434.6875
1251.134, 226.2812
1252.208, 67.89453
1253.282, 115.5273
1254.355, 54.17188
1255.428, 204.3398
1256.501, 572.6523
1257.574, 785.9531
1258.647, 852.5625
1259.720, 333.0977
1260.792, 570.4102
1261.865, 504.5000
1262.937, 426.0938
1264.009, 769.9609
1265.081, 335.7656
1266.152, 672.9141
1267.224, 702.1953
1268.295, 872.3750
1269.366, 737.3828
1270.437, 696.6797
1271.508, 961.2422
1272.579, 1056.773
1273.649, 886.6562
1274.720, 1065.844
1275.790, 620.9922
1276.860, 723.7266
1277.930, 1062.719
1278.999, 907.9375
1280.069, 1092.688
1281.138, 1148.109
1282.208, 615.9922
1283.277, 1105.727
1284.345, 1153.469
1285.414, 747.5000
1286.483, 1202.250
1287.551, 858.7969
1288.619, 800.2344
1289.687, 956.0703
1290.755, 888.4297
1291.823, 1173.141
1292.890, 1118.344
1293.958, 1033.281
1295.025, 1080.516
1296.092, 1005.695
1297.159, 1120.703
1298.226, 1013.406
1299.292, 1142.328
1300.359, 1318.047
1301.425, 1090.477
1302.491, 1275.852
1303.557, 803.8047
1304.623, 900.4922
1305.688, 936.4766
1306.754, 1332.555
1307.819, 869.1797
1308.884, 950.1797
1309.949, 1262.422
1311.014, 1238.844
1312.078, 1362.852
1313.143, 1085.492
1314.207, 1185.242
1315.271, 1161.242
1316.335, 1516.203
1317.399, 1587.602
1318.462, 1316.977
1319.526, 1047.852
1320.589, 1433.047
1321.652, 1192.469
1322.715, 1289.578
1323.778, 1043.656
1324.841, 892.8438
1325.903, 1018.484
1326.965, 1225.766
1328.027, 1050.719
1329.089, 1080.430
1330.151, 1033.523
1331.213, 785.6250
1332.274, 729.7188
1333.336, 645.8281
1334.397, 951.9375
1335.458, 940.0625
1336.518, 1038.195
1337.579, 843.2109
1338.640, 951.3594
1339.700, 641.5156
1340.760, 509.4922
1341.820, 933.7734
1342.880, 1387.141
1343.939, 844.2500
1344.999, 1252.172
1346.058, 843.0781
1347.117, 673.5938
1348.176, 1494.805
1349.235, 708.0312
1350.294, 728.2578
1351.352, 788.4062
1352.411, 1366.148
1353.469, 724.2500
1354.527, 850.5156
1355.585, 777.7891
1356.642, 1178.188
1357.700, 1135.234
1358.757, 767.5391
1359.815, 1124.711
1360.872, 770.0469
1361.928, 831.5234
1362.985, 654.0625
1364.042, 729.7422
1365.098, 1081.906
1366.154, 1277.094
1367.210, 1328.672
1368.266, 790.9062
1369.322, 1009.438
1370.377, 925.1875
1371.433, 828.5391
1372.488, 1153.195
1373.543, 700.7031
1374.598, 1015.789
1375.652, 1027.367
1376.707, 1179.305
1377.761, 1026.164
1378.816, 967.2188
1379.870, 1213.516
1380.924, 1290.805
1381.977, 1102.453
1383.031, 1263.398
1384.084, 800.3047
1385.137, 884.7969
1386.190, 1205.578
1387.243, 1032.633
1388.296, 1199.180
1389.349, 1236.430
1390.401, 686.0391
1391.453, 1157.570
1392.505, 1187.180
1393.557, 763.0234
1394.609, 1199.586
1395.661, 838.0078
1396.712, 761.3047
1397.763, 899.0312
1398.814, 813.2656
1399.865, 1079.750
1400.916, 1006.680
1401.967, 903.1484
1403.017, 931.8750
1404.067, 838.5391
1405.117, 935.0547
1406.167, 809.2500
1407.217, 919.7188
1408.267, 1083.641
1409.316, 837.4688
1410.365, 1025.398
1411.414, 540.1172
1412.463, 617.9766
1413.512, 635.1797
1414.561, 1012.414
1415.609, 530.2109
1416.657, 592.3516
1417.706, 886.2891
1418.754, 855.8828
1419.801, 961.0391
1420.849, 664.7734
1421.896, 745.5938
1422.944, 722.4844
1423.991, 1058.523
1425.038, 1110.977
1426.085, 821.4375
1427.131, 533.3281
1428.178, 905.9922
1429.224, 651.8750
1430.270, 730.1016
1431.316, 465.0781
1432.362, 496.4062
1433.407, 483.0078
1434.453, 384.3438
1435.498, 819.8438
1436.543, 959.5547
1437.588, 634.4688
1438.633, 921.0469
1439.678, 115.1562
1440.722, 267.5000
1441.767, 833.3984
1442.811, 534.8359
1443.855, 830.3750
1444.898, 904.3125
1445.942, 54.78125
1446.986, 774.3906
1448.029, 830.6172
1449.072, 92.17969
1450.115, 859.8984
1451.158, 231.1641
1452.201, 100.1641
1453.243, 344.2422
1454.285, 196.6797
1455.327, 665.4375
1456.369, 539.8516
1457.411, 364.7031
1458.453, 421.1797
1459.494, 264.0234
1460.536, 439.2188
1461.577, 225.3750
1462.618, 424.9141
1463.659, 718.1094
1464.700, 293.5859
1465.740, 628.7422
1466.780, 214.2031
1467.821, 71.22656
1468.861, 34.38281
1469.900, -22.26668
1470.940, 204.1953
1471.980, 88.32031
1473.019, 433.3281
1474.058, 387.3906
1475.097, 578.7656
1476.136, 67.64062
1477.175, 216.5078
1478.213, 183.4609
1479.252, 779.0781
1480.290, 878.4609
1481.328, 379.3672
1482.366, 117.1641
1483.403, 523.6953
1484.441, 86.55469
1485.478, 230.9922
1486.515, 170.2969
1487.552, 95.34375
1488.589, 354.4141
1489.626, 23.50000
1490.663, 86.39062
1491.699, 2.734375
1492.735, 289.8984
1493.771, 216.3594
1494.807, 403.3047
1495.843, 390.5703
1496.878, 70.86719
1497.914, 305.2031
1498.949, 259.5938
1499.984, 148.0234
1501.019, 443.5078
1502.054, 262.6250
1503.088, 625.4062
1504.122, 833.1875
1505.157, 894.2500
1506.191, 369.2344
1507.225, 601.0781
1508.258, 529.6562
1509.292, 445.8906
1510.325, 784.3438
1511.359, 344.8906
1512.392, 676.8438
1513.424, 692.7188
1514.457, 857.6562
1515.490, 717.1250
1516.522, 670.9219
1517.554, 930.4453
1518.586, 1021.117
1519.618, 846.2500
1520.650, 1020.680
1521.682, 571.1719
1522.713, 669.2266
1523.744, 970.5156
1524.775, 788.0312
1525.806, 933.7656
1526.837, 965.6641
1527.868, 427.0156
1528.898, 908.7031
1529.928, 949.6719
1530.958, 537.0547
1531.988, 959.2578
1533.018, 606.7500
1534.048, 538.2812
1535.077, 680.6875
1536.106, 571.3906
1537.135, 846.8906
1538.164, 783.2422
1539.193, 684.7656
1540.222, 720.5781
1541.250, 635.7266
1542.278, 740.8203
1543.306, 623.3203
1544.334, 741.7734
1545.362, 913.4453
1546.390, 674.6953
1547.417, 869.8750
1548.444, 391.4531
1549.471, 475.8047
1550.498, 498.9375
1551.525, 111.5469
1552.552, 456.7266
1553.578, 487.6953
1554.604, 765.2734
1555.630, 508.4219
1556.656, 417.3047
1557.682, 860.3672
1558.708, 1009.211
1559.733, 693.2344
1560.758, 988.6875
1561.784, 872.7086
1562.808, 354.1406
1563.833, 929.7969
1564.858, 641.8281
1565.882, 852.8047
1566.907, 926.4219
1567.931, 28.96094
1568.955, 803.0781
1569.978, 860.2031
1571.002, 114.6328
1572.025, 877.6016
1573.049, 246.1641
1574.072, 15.66406
1575.095, 239.6641
1576.118, 44.17969
1577.140, 435.7188
1578.163, 237.1016
1579.185, 0.0000000E+00
##END=



