##NAMES=Vanadinite
##RRUFFID=R050171
##IDEAL CHEMISTRY=Pb^2+^_5_(V^5+^O_4_)_3_Cl
##LOCALITY=Hamburg mine, La Paz County, Arizona, USA
##OWNER=RRUFF
##SOURCE=Marcus Origlieri
##DESCRIPTION=Red prismatic hexagonal crystals
##STATUS=The identification of this mineral has been confirmed by X-ray diffraction and chemical analysis
##URL=rruff.info/R050171
##MEASURED CHEMISTRY=Pb_5.00_((V_0.89_As_0.11_)O_4_)_3_Cl_1.00_
##PIN_ID=M00093
##ORIENTATION=Laser parallel to -a* (-1 0 0). Fiducial mark perpendicular to laser is parallel to -c [0 0 -1]
71.747, 0.000
73.144, 21.098
74.540, 86.456
75.937, 270.405
77.333, 884.989
78.729, 1231.774
80.125, 1583.826
81.521, 1742.425
82.916, 1954.328
84.311, 2407.753
85.706, 2807.261
87.101, 3361.714
88.496, 3783.362
89.890, 4340.912
91.284, 4763.887
92.678, 5112.344
94.071, 5606.158
95.465, 5944.652
96.858, 5956.797
98.251, 5831.669
99.644, 5748.568
101.036, 5546.973
102.428, 4986.495
103.820, 4586.826
105.212, 4137.790
106.604, 3789.481
107.995, 3442.635
109.387, 3068.936
110.777, 2693.215
112.168, 2613.650
113.559, 2452.262
114.949, 2341.757
116.339, 2096.889
117.729, 2032.213
119.119, 1880.491
120.508, 1741.023
121.897, 1747.744
123.286, 1688.774
124.675, 1659.265
126.063, 1764.350
127.452, 1728.147
128.840, 1917.761
130.228, 1962.282
131.615, 2056.792
133.003, 2072.366
134.390, 2183.066
135.777, 2433.946
137.164, 2398.565
138.550, 2448.771
139.937, 2569.333
141.323, 2525.918
142.709, 2727.446
144.094, 2602.928
145.480, 2629.866
146.865, 2672.893
148.250, 2614.910
149.635, 2614.909
151.019, 2534.997
152.403, 2564.520
153.788, 2523.753
155.171, 2546.877
156.555, 2427.416
157.939, 2437.897
159.322, 2327.992
160.705, 2293.336
162.088, 2304.308
163.470, 2131.423
164.853, 2152.415
166.235, 2052.126
167.617, 2001.329
168.998, 1983.565
170.380, 1962.256
171.761, 1842.646
173.142, 1818.222
174.523, 1742.974
175.904, 1681.885
177.284, 1676.946
178.664, 1524.142
180.044, 1514.458
181.424, 1503.882
182.803, 1362.405
184.183, 1286.016
185.562, 1257.707
186.940, 1133.469
188.319, 1027.293
189.698, 973.174
191.076, 910.106
192.454, 825.174
193.831, 785.061
195.209, 649.046
196.586, 595.004
197.963, 451.920
199.340, 483.782
200.717, 424.580
202.093, 299.310
203.470, 340.974
204.846, 286.574
206.221, 219.104
207.597, 144.568
208.972, 83.965
210.347, 135.293
211.722, 70.557
213.097, 25.750
214.472, 3.127
215.846, 51.074
217.220, 47.078
218.594, 116.142
219.967, 65.274
221.341, 108.487
222.714, 110.780
224.087, 169.160
225.460, 162.652
226.832, 236.313
228.204, 162.195
229.577, 163.316
230.948, 277.715
232.320, 191.476
233.692, 252.588
235.063, 259.060
236.434, 190.907
237.805, 197.220
239.175, 219.808
240.545, 205.874
241.916, 192.951
243.286, 153.302
244.655, 169.093
246.025, 155.472
247.394, 83.531
248.763, 58.319
250.132, 81.902
251.501, 45.347
252.869, 51.698
254.237, 51.023
255.605, 52.802
256.973, 55.610
258.340, 157.416
259.708, 204.206
261.075, 263.961
262.442, 331.658
263.808, 386.295
265.175, 480.869
266.541, 532.373
267.907, 635.797
269.273, 757.138
270.639, 876.388
272.004, 978.538
273.369, 1039.586
274.734, 1326.506
276.099, 1433.288
277.463, 1746.907
278.828, 1888.391
280.192, 2237.883
281.556, 2657.279
282.919, 2972.369
284.283, 3305.425
285.646, 3875.194
287.009, 4335.746
288.372, 4925.251
289.734, 5359.663
291.097, 5875.917
292.459, 6073.075
293.821, 6374.125
295.183, 6361.013
296.544, 6240.853
297.905, 6057.514
299.266, 6041.055
300.627, 5705.654
301.988, 5479.856
303.348, 5249.212
304.709, 5166.662
306.069, 5159.605
307.428, 5238.722
308.788, 5356.419
310.147, 5685.993
311.507, 5908.243
312.865, 6419.031
314.224, 6984.768
315.583, 7582.749
316.941, 8339.129
318.299, 9025.022
319.657, 9820.563
321.015, 10425.644
322.372, 11030.771
323.729, 11245.288
325.086, 11369.678
326.443, 11353.812
327.800, 10877.633
329.156, 10281.462
330.512, 9735.312
331.868, 9059.011
333.224, 8333.234
334.579, 7626.923
335.935, 7121.753
337.290, 6540.151
338.645, 6106.536
339.999, 5829.253
341.354, 5479.417
342.708, 5306.860
344.062, 5179.513
345.416, 5097.538
346.769, 5102.774
348.123, 5099.981
349.476, 5367.332
350.829, 5622.140
352.182, 5905.167
353.534, 6127.593
354.887, 6370.499
356.239, 6560.406
357.591, 6772.189
358.942, 6953.935
360.294, 7090.833
361.645, 7426.890
362.996, 7436.741
364.347, 7716.294
365.698, 7738.421
367.048, 7633.399
368.398, 7591.675
369.748, 7183.580
371.098, 6867.477
372.448, 6247.266
373.797, 5727.615
375.146, 5225.915
376.495, 4716.837
377.844, 4295.845
379.192, 3925.942
380.540, 3545.975
381.889, 3373.363
383.236, 3107.332
384.584, 2898.734
385.932, 2636.938
387.279, 2454.748
388.626, 2349.939
389.973, 2261.794
391.319, 2150.453
392.666, 2068.256
394.012, 1995.699
395.358, 1897.861
396.704, 1821.263
398.049, 1750.148
399.394, 1682.894
400.740, 1618.213
402.084, 1578.121
403.429, 1561.746
404.774, 1554.248
406.118, 1526.941
407.462, 1486.544
408.806, 1514.926
410.150, 1467.464
411.493, 1526.078
412.836, 1467.320
414.179, 1500.150
415.522, 1396.517
416.865, 1446.934
418.207, 1424.549
419.549, 1290.904
420.891, 1346.435
422.233, 1215.773
423.575, 1174.212
424.916, 1084.953
426.257, 1020.531
427.598, 1009.169
428.939, 859.563
430.279, 871.592
431.619, 816.494
432.959, 774.231
434.299, 753.188
435.639, 715.744
436.978, 676.878
438.318, 660.396
439.657, 602.187
440.996, 554.368
442.334, 531.358
443.673, 553.994
445.011, 510.760
446.349, 529.347
447.687, 534.484
449.024, 498.747
450.361, 477.836
451.699, 470.915
453.036, 452.363
454.372, 436.466
455.709, 433.769
457.045, 405.236
458.381, 408.577
459.717, 398.805
461.053, 347.167
462.388, 404.204
463.724, 329.130
465.059, 314.907
466.394, 297.175
467.728, 271.290
469.063, 289.163
470.397, 259.488
471.731, 256.702
473.065, 262.806
474.398, 213.801
475.732, 254.687
477.065, 269.467
478.398, 271.161
479.731, 259.788
481.063, 268.333
482.396, 211.731
483.728, 241.017
485.060, 223.209
486.391, 220.307
487.723, 232.310
489.054, 210.223
490.385, 192.060
491.716, 196.787
493.047, 140.422
494.377, 172.959
495.708, 152.404
497.038, 183.772
498.368, 173.031
499.697, 134.247
501.027, 174.320
502.356, 137.303
503.685, 115.193
505.014, 151.988
506.342, 124.692
507.671, 118.304
508.999, 101.823
510.327, 129.249
511.655, 104.584
512.982, 105.827
514.310, 125.979
515.637, 88.043
516.964, 87.014
518.291, 47.894
519.617, 68.672
520.944, 57.709
522.270, 58.946
523.596, 63.441
524.921, 65.844
526.247, 72.158
527.572, 91.385
528.897, 43.529
530.222, 28.582
531.547, 35.543
532.871, 29.418
534.196, 66.204
535.520, 13.916
536.844, 37.545
538.167, 28.108
539.491, 7.382
540.814, 30.057
542.137, 17.537
543.460, 7.801
544.783, 11.902
546.105, 4.654
547.427, 28.565
548.749, 15.771
550.071, 7.980
551.393, 11.830
552.714, 36.667
554.035, 41.513
555.356, 15.391
556.677, 40.270
557.998, 4.160
559.318, 16.058
560.638, 34.968
561.958, 20.892
563.278, 10.824
564.597, 26.762
565.917, 0.278
567.236, 19.684
568.555, 67.659
569.874, 49.690
571.192, 25.772
572.511, 4.884
573.829, 58.021
575.147, 19.210
576.464, 27.452
577.782, 11.750
579.099, 12.095
580.416, 20.102
581.733, 14.042
583.050, 33.469
584.366, 63.051
585.683, 61.717
586.999, 42.468
588.315, 51.292
589.630, 36.194
590.946, 16.166
592.261, 44.195
593.576, 18.705
594.891, 40.442
596.206, 17.656
597.520, 35.923
598.834, 47.294
600.148, 63.927
601.462, 23.728
602.776, 7.520
604.089, 17.554
605.402, 20.364
606.715, 29.699
608.028, 27.416
609.341, 8.342
610.653, 17.956
611.965, 16.634
613.277, 14.135
614.589, 38.600
615.901, 25.924
617.212, 17.453
618.523, 9.502
619.834, 1.516
621.145, 0.247
622.456, 33.658
623.766, 27.512
625.076, 31.219
626.386, 8.761
627.696, 32.430
629.006, 50.870
630.315, 44.286
631.624, 68.755
632.933, 38.815
634.242, 20.221
635.551, 1.747
636.859, 2.984
638.167, 4.947
639.475, 2.231
640.783, 7.303
642.090, 18.629
643.398, 29.815
644.705, 18.988
646.012, 33.273
647.318, 1.385
648.625, 50.358
649.931, 32.384
651.237, 12.792
652.543, 52.650
653.849, 1.283
655.155, 31.266
656.460, 3.823
657.765, 37.667
659.070, 45.628
660.375, 97.222
661.679, 82.520
662.984, 46.360
664.288, 91.899
665.592, 59.385
666.895, 73.636
668.199, 112.345
669.502, 117.746
670.805, 132.217
672.108, 151.293
673.411, 177.262
674.713, 166.558
676.016, 175.804
677.318, 161.808
678.620, 238.567
679.921, 201.447
681.223, 274.539
682.524, 322.770
683.825, 312.220
685.126, 339.043
686.427, 404.855
687.727, 408.158
689.028, 434.843
690.328, 463.413
691.628, 469.169
692.927, 485.183
694.227, 522.379
695.526, 610.314
696.825, 698.400
698.124, 693.638
699.423, 741.334
700.721, 809.733
702.020, 814.036
703.318, 856.916
704.616, 1026.683
705.913, 1085.018
707.211, 1232.065
708.508, 1320.013
709.805, 1400.525
711.102, 1554.864
712.399, 1735.978
713.695, 1791.654
714.992, 2000.725
716.288, 2180.177
717.584, 2326.567
718.879, 2429.971
720.175, 2528.137
721.470, 2628.436
722.765, 2721.542
724.060, 2765.508
725.355, 2806.584
726.649, 2734.903
727.944, 2791.852
729.238, 2760.220
730.532, 2540.365
731.825, 2661.073
733.119, 2604.376
734.412, 2556.781
735.705, 2588.268
736.998, 2601.400
738.291, 2601.858
739.584, 2624.400
740.876, 2722.210
742.168, 2667.235
743.460, 2755.590
744.752, 2793.520
746.043, 2963.483
747.334, 3077.365
748.626, 3174.250
749.916, 3396.166
751.207, 3536.298
752.498, 3714.576
753.788, 3833.119
755.078, 4126.185
756.368, 4206.460
757.658, 4546.794
758.947, 4725.020
760.237, 5090.340
761.526, 5375.030
762.815, 5751.511
764.104, 6206.084
765.392, 6538.099
766.680, 6951.855
767.969, 7331.299
769.257, 7747.000
770.544, 8192.813
771.832, 8628.660
773.119, 8904.545
774.406, 9730.219
775.693, 10156.137
776.980, 10922.096
778.267, 11498.126
779.553, 12193.593
780.839, 12789.700
782.125, 13595.850
783.411, 14372.038
784.697, 15188.267
785.982, 15784.534
787.267, 16860.844
788.552, 17767.199
789.837, 18023.592
791.122, 19340.012
792.406, 20206.439
793.690, 20792.902
794.974, 21679.445
796.258, 22526.053
797.542, 23632.701
798.825, 23849.395
800.108, 25016.127
801.391, 26112.904
802.674, 26769.711
803.957, 28656.582
805.239, 29603.500
806.522, 30830.463
807.804, 33287.465
809.085, 33704.504
810.367, 35881.617
811.649, 37768.707
812.930, 39355.906
814.211, 41853.152
815.492, 43040.441
816.772, 45397.789
818.053, 48025.176
819.333, 49932.609
820.613, 52750.086
821.893, 53777.629
823.173, 56305.215
824.452, 57452.844
825.732, 58940.535
827.011, 59628.266
828.290, 59326.047
829.568, 59253.887
830.847, 57791.777
832.125, 55539.723
833.403, 53997.719
834.681, 50945.758
835.959, 48053.859
837.236, 45952.035
838.514, 42070.227
839.791, 39288.484
841.068, 36726.797
842.345, 33935.160
843.621, 30963.580
844.898, 28622.057
846.174, 26720.881
847.450, 24191.174
848.726, 22460.439
850.001, 20329.223
851.277, 18718.721
852.552, 17909.773
853.827, 15790.465
855.102, 14791.394
856.376, 13841.547
857.651, 12644.269
858.925, 11895.352
860.199, 10957.064
861.473, 10229.671
862.746, 9610.847
864.020, 9043.969
865.293, 8438.118
866.566, 7980.006
867.839, 7453.145
869.112, 7029.029
870.384, 6699.260
871.656, 6314.268
872.928, 6033.964
874.200, 5850.854
875.472, 5541.175
876.744, 5344.105
878.015, 4945.916
879.286, 4832.415
880.557, 4596.612
881.828, 4377.753
883.098, 4211.430
884.369, 3958.796
885.639, 3850.631
886.909, 3578.942
888.178, 3413.829
889.448, 3333.153
890.717, 3070.445
891.987, 3060.537
893.256, 2944.607
894.524, 2717.464
895.793, 2640.319
897.061, 2585.105
898.330, 2457.975
899.598, 2310.866
900.865, 2322.086
902.133, 2235.350
903.401, 2119.979
904.668, 2081.164
905.935, 1989.280
907.202, 1815.415
908.468, 1890.588
909.735, 1797.985
911.001, 1807.253
912.267, 1696.558
913.533, 1646.641
914.799, 1581.024
916.064, 1558.443
917.330, 1447.123
918.595, 1421.674
919.860, 1399.210
921.124, 1344.056
922.389, 1228.664
923.653, 1209.306
924.918, 1254.983
926.182, 1095.694
927.445, 1154.448
928.709, 1035.229
929.972, 1073.045
931.236, 939.895
932.499, 947.782
933.761, 881.701
935.024, 877.654
936.286, 782.641
937.549, 808.659
938.811, 779.710
940.073, 676.793
941.334, 652.908
942.596, 634.055
943.857, 586.271
945.118, 582.198
946.379, 544.723
947.640, 550.038
948.900, 553.342
950.161, 517.678
951.421, 504.258
952.681, 475.654
953.940, 490.080
955.200, 371.536
956.459, 368.021
957.719, 386.795
958.978, 301.342
960.236, 426.918
961.495, 250.707
962.753, 315.340
964.012, 277.002
965.270, 167.696
966.527, 200.419
967.785, 242.209
969.043, 189.988
970.300, 239.816
971.557, 177.652
972.814, 174.517
974.071, 178.409
975.327, 136.328
976.583, 116.274
977.840, 120.246
979.095, 84.244
980.351, 114.268
981.607, 93.318
982.862, 90.392
984.117, 9.492
985.372, 52.619
986.627, 30.771
987.882, 1.948
989.136, 23.146
990.390, 58.370
991.644, 40.869
992.898, 46.641
994.152, 31.212
995.405, 13.548
996.659, 11.095
997.912, 44.714
999.165, 19.324
1000.417, 1.921
1001.670, 20.498
1002.922, 52.064
1004.174, 42.632
1005.426, 45.198
1006.678, 26.765
1007.930, 76.319
1009.181, 41.882
1010.432, 52.445
1011.683, 68.014
1012.934, 37.592
1014.185, 73.165
1015.435, 89.753
1016.685, 45.368
1017.935, 66.984
1019.185, 64.741
1020.435, 60.272
1021.684, 76.933
1022.934, 87.619
1024.183, 89.335
1025.432, 0.082
1026.680, 10.821
1027.929, 45.558
1029.177, 18.298
1030.425, 67.040
1031.673, 30.192
1032.921, 3.435
1034.169, 46.318
1035.416, 3.914
1036.663, 41.852
1037.911, 6.367
1039.157, 20.412
1040.404, 18.200
1041.650, 12.997
1042.897, 10.949
1044.143, 23.611
1045.389, 21.566
1046.634, 0.250
1047.880, 27.928
1049.125, 31.111
1050.371, 3.702
1051.615, 20.366
1052.860, 11.598
1054.105, 28.890
1055.349, 36.085
1056.593, 40.285
1057.837, 89.487
1059.081, 3.694
1060.325, 80.892
1061.568, 75.093
1062.812, 15.298
1064.055, 97.496
1065.298, 57.696
1066.540, 6.899
1067.783, 46.090
1069.025, 90.474
1070.267, 35.667
1071.509, 94.855
1072.751, 87.136
1073.993, 98.323
1075.234, 116.510
1076.475, 58.696
1077.716, 140.878
1078.957, 69.063
1080.198, 74.274
1081.438, 111.458
1082.679, 108.641
1083.919, 95.886
1085.159, 88.066
1086.398, 82.263
1087.638, 170.439
1088.877, 85.611
1090.116, 94.779
1091.355, 151.956
1092.594, 69.115
1093.833, 154.280
1095.071, 132.485
1096.309, 71.700
1097.547, 139.939
1098.785, 87.235
1100.023, 61.396
1101.260, 93.636
1102.498, 118.752
1103.735, 100.911
1104.972, 125.217
1106.208, 63.775
1107.445, 163.339
1108.681, 115.546
1109.918, 70.862
1111.154, 132.009
1112.389, 124.156
1113.625, 160.361
1114.860, 134.800
1116.096, 86.439
1117.331, 169.544
1118.566, 90.801
1119.800, 101.929
1121.035, 133.508
1122.269, 131.035
1123.503, 171.428
1124.737, 224.769
1125.971, 198.357
1127.205, 145.717
1128.438, 171.025
1129.671, 156.594
1130.904, 122.856
1132.137, 165.324
1133.370, 166.220
1134.602, 175.951
1135.834, 148.230
1137.066, 109.513
1138.298, 129.183
1139.530, 189.787
1140.762, 150.501
1141.993, 172.823
1143.224, 160.605
1144.455, 154.572
1145.686, 120.073
1146.917, 127.349
1148.147, 131.705
1149.377, 121.687
1150.607, 165.981
1151.837, 146.955
1153.067, 164.372
1154.296, 185.325
1155.526, 146.724
1156.755, 149.676
1157.984, 173.135
1159.213, 152.638
1160.441, 161.057
1161.670, 145.362
1162.898, 147.062
1164.126, 125.371
1165.354, 96.611
1166.581, 109.345
1167.809, 95.752
1169.036, 145.025
1170.263, 144.646
1171.490, 137.526
1172.717, 107.789
1173.943, 118.072
1175.170, 146.090
1176.396, 118.553
1177.622, 86.891
1178.848, 123.533
1180.073, 161.083
1181.299, 141.333
1182.524, 133.417
1183.749, 123.377
1184.974, 112.762
1186.199, 161.333
1187.423, 91.041
1188.648, 122.759
1189.872, 95.998
1191.096, 131.694
1192.320, 103.258
1193.543, 105.957
1194.767, 140.896
1195.990, 165.139
1197.213, 99.368
1198.436, 154.739
1199.659, 55.971
1200.881, 95.972
1202.104, 133.083
1203.326, 72.706
1204.548, 126.657
1205.770, 116.037
1206.991, 122.917
1208.213, 122.903
1209.434, 105.322
1210.655, 76.534
1211.876, 78.153
1213.096, 68.783
1214.317, 79.335
1215.537, 47.129
1216.757, 73.180
1217.977, 80.303
1219.197, 55.179
1220.417, 96.827
1221.636, 142.598
1222.855, 105.214
1224.074, 143.780
1225.293, 116.060
1226.512, 69.208
1227.731, 139.201
1228.949, 89.243
1230.167, 65.199
1231.385, 81.847
1232.603, 78.902
1233.820, 94.527
1235.038, 85.934
1236.255, 119.428
1237.472, 84.709
1238.689, 109.075
1239.906, 87.255
1241.122, 77.535
1242.338, 74.731
1243.555, 68.701
1244.771, 62.748
1245.986, 85.731
1247.202, 67.751
1248.417, 94.748
1249.633, 83.842
1250.848, 61.033
1252.063, 42.910
1253.277, 42.166
1254.492, 70.079
1255.706, 59.160
1256.920, 79.791
1258.134, 78.570
1259.348, 12.612
1260.562, 47.702
1261.775, 35.257
1262.988, 82.990
1264.201, 60.493
1265.414, 13.259
1266.627, 36.755
1267.839, 39.345
1269.052, 46.924
1270.264, 50.395
1271.476, 33.801
1272.688, 47.210
1273.899, 50.400
1275.111, 32.692
1276.322, 52.387
1277.533, 37.246
1278.744, 15.628
1279.955, 21.770
1281.165, 46.868
1282.376, 44.036
1283.586, 22.265
1284.796, 19.743
1286.006, 18.508
1287.215, 38.416
1288.425, 23.797
1289.634, 66.171
1290.843, 9.093
1292.052, 1.329
1293.261, 44.334
1294.469, 16.885
1295.678, 50.605
1296.886, 35.258
1298.094, 32.842
1299.302, 52.573
1300.509, 8.952
1301.717, 10.382
1302.924, 17.027
1304.131, 30.349
1305.338, 5.117
1306.545, 13.675
1307.752, 10.551
1308.958, 32.091
1310.164, 2.281
1311.370, 13.473
1312.576, 34.778
1313.782, 15.078
1314.987, 33.048
1316.193, 40.232
1317.398, 8.495
1318.603, 43.569
1319.807, 21.608
1321.012, 28.418
1322.216, 33.643
1323.421, 36.622
1324.625, 52.512
1325.829, 34.365
1327.032, 7.184
1328.236, 51.979
1329.439, 16.798
1330.642, 51.532
1331.845, 38.254
1333.048, 41.930
1334.251, 20.566
1335.453, 78.169
1336.656, 19.106
1337.858, 13.665
1339.060, 113.507
1340.261, 50.464
1341.463, 52.900
1342.664, 9.632
1343.866, 24.899
1345.067, 9.675
1346.267, 43.641
1347.468, 13.929
1348.669, 75.133
1349.869, 28.299
1351.069, 56.478
1352.269, 61.659
1353.469, 20.781
1354.668, 59.802
1355.868, 96.801
1357.067, 10.753
1358.266, 75.667
1359.465, 60.542
1360.664, 36.164
1361.862, 116.938
1363.061, 62.666
1364.259, 74.260
1365.457, 53.909
1366.655, 69.513
1367.852, 74.074
1369.050, 8.593
1370.247, 14.067
1371.444, 21.472
1372.641, 16.901
1373.838, 20.250
1375.035, 42.497
1376.231, 11.008
1377.427, 39.246
1378.623, 61.358
1379.819, 47.334
1381.015, 74.898
1382.211, 59.430
1383.406, 82.805
1384.601, 66.002
1385.796, 80.270
1386.991, 120.604
1388.185, 107.245
1389.380, 117.384
1390.574, 60.806
1391.768, 103.660
1392.962, 74.714
1394.156, 57.464
1395.350, 114.614
1396.543, 20.534
1397.736, 93.336
1398.929, 57.325
1400.122, 105.011
1401.315, 105.951
1402.507, 51.174
1403.700, 41.311
1404.892, 132.461
1406.084, 66.670
1407.276, 121.327
1408.467, 51.222
1409.659, 104.958
1410.850, 74.767
1412.041, 67.047
1413.232, 80.418
1414.423, 85.479
1415.614, 71.233
1416.804, 123.740
1417.994, 80.627
1419.184, 13.584
1420.374, 82.248
1421.564, 114.271
1422.753, 69.761
1423.943, 72.061
1425.132, 45.239
1426.321, 31.634
1427.510, 70.036
1428.698, 18.522
1429.887, 69.341
1431.075, 89.155
1432.263, 37.158
1433.451, 77.275
1434.639, 56.649
1435.827, 71.841
1437.014, 123.107
1438.201, 40.177
1439.388, 49.233
1440.575, 58.006
1441.762, 24.199
1442.949, 71.258
1444.135, 39.811
1445.321, 72.537
1446.507, 122.676
1447.693, 26.222
1448.879, 36.272
1450.064, 96.850
1451.250, 11.648
1452.435, 86.659
1453.620, 66.675
1454.805, 34.995
1455.989, 68.387
1457.174, 65.031
1458.358, 45.211
1459.542, 21.782
1460.726, 59.863
1461.910, 59.506
1463.093, 101.471
1464.277, 33.953
1465.460, 45.135
1466.643, 98.400
1467.826, 68.332
1469.009, 91.442
1470.191, 70.015
1471.373, 41.003
1472.556, 112.468
1473.738, 48.229
1474.919, 50.614
1476.101, 98.578
1477.283, 72.207
1478.464, 3.923
1479.645, 45.373
1480.826, 3.396
1482.007, 7.460
1483.187, 59.920
1484.368, 27.950
1485.548, 6.561
1486.728, 10.409
1487.908, 32.382
1489.088, 29.280
1490.268, 50.963
1491.447, 43.789
1492.626, 24.502
1493.805, 15.347
1494.984, 19.961
1496.163, 77.782
1497.341, 31.106
1498.520, 69.563
1499.698, 71.232
1500.876, 49.323
1502.054, 56.914
1503.232, 41.516
1504.409, 45.106
1505.586, 64.240
1506.763, 83.936
1507.940, 72.084
1509.117, 79.625
1510.294, 32.388
1511.470, 66.004
1512.647, 28.121
1513.823, 10.402
1514.999, 62.680
1516.174, 32.248
1517.350, 0.819
1518.526, 14.679
1519.701, 32.484
1520.876, 0.000
##END=



