##NAMES=Vivianite
##RRUFFID=R040185
##IDEAL CHEMISTRY=Fe^2+^_3_(PO_4_)_2_&#183;8H_2_O
##LOCALITY=Siglo XX mine, Llallagua, Bustillos, Potosi, Bolivia
##OWNER=RRUFF
##SOURCE=University of Arizona Mineral Museum
##DESCRIPTION=Green acicular single crystal
##STATUS=The identification of this mineral has been confirmed by X-ray diffraction and chemical analysis
##URL=rruff.info/R040185
##MEASURED CHEMISTRY=(Fe_1.00_Mn_0.01_)_3_(P_0.97_Si_0.03_O_3.94_F_0.07_)_2_Â·8H_2_O
##PIN_ID=S00041
##ORIENTATION=Laser parallel to b* (0 1 0). Fiducial mark perpendicular to laser is parallel to -c [0 0 -1]
107.995, 0.000
109.387, 7.801
110.777, 175.813
112.168, 355.111
113.559, 415.048
114.949, 258.973
116.339, 281.388
117.729, 345.968
119.119, 229.112
120.508, 423.657
121.897, 354.709
123.286, 519.562
124.675, 777.658
126.063, 889.576
127.452, 1013.441
128.840, 1173.650
130.228, 1113.302
131.615, 997.727
133.003, 887.724
134.390, 543.117
135.777, 370.754
137.164, 464.503
138.550, 394.247
139.937, 511.885
141.323, 538.395
142.709, 758.800
144.094, 810.096
145.480, 887.216
146.865, 1018.106
148.250, 892.726
149.635, 956.998
151.019, 788.832
152.403, 626.146
153.788, 586.881
155.171, 514.985
156.555, 589.417
157.939, 541.135
159.322, 1028.104
160.705, 1152.299
162.088, 1476.721
163.470, 1681.354
164.853, 1656.174
166.235, 1781.139
167.617, 1356.228
168.998, 1271.426
170.380, 864.727
171.761, 684.314
173.142, 648.634
174.523, 487.690
175.904, 523.425
177.284, 452.095
178.664, 535.191
180.044, 736.419
181.424, 979.750
182.803, 1279.304
184.183, 1499.086
185.562, 1889.184
186.940, 2069.529
188.319, 2549.804
189.698, 2810.035
191.076, 3190.054
192.454, 4089.807
193.831, 4689.327
195.209, 5488.650
196.586, 5937.799
197.963, 6256.791
199.340, 6105.648
200.717, 5404.378
202.093, 4553.295
203.470, 3661.799
204.846, 2950.201
206.221, 2293.472
207.597, 1782.980
208.972, 1294.866
210.347, 1042.917
211.722, 889.895
213.097, 689.808
214.472, 925.299
215.846, 850.621
217.220, 1043.725
218.594, 1292.357
219.967, 1600.405
221.341, 2008.172
222.714, 2425.629
224.087, 2973.014
225.460, 3480.328
226.832, 3837.568
228.204, 4044.733
229.577, 4021.822
230.948, 3808.834
232.320, 3596.290
233.692, 3426.210
235.063, 3284.469
236.434, 3264.978
237.805, 3252.998
239.175, 2984.382
240.545, 2875.820
241.916, 2427.890
243.286, 2022.854
244.655, 1809.021
246.025, 1352.153
247.394, 1249.412
248.763, 954.188
250.132, 978.597
251.501, 792.132
252.869, 714.782
254.237, 622.668
255.605, 669.150
256.973, 685.721
258.340, 603.578
259.708, 688.858
261.075, 537.808
262.442, 664.258
263.808, 792.977
265.175, 655.613
266.541, 932.175
267.907, 822.416
269.273, 977.070
270.639, 1012.235
272.004, 960.246
273.369, 992.562
274.734, 875.213
276.099, 1065.974
277.463, 772.589
278.828, 820.509
280.192, 635.704
281.556, 596.152
282.919, 509.811
284.283, 294.649
285.646, 364.644
287.009, 197.770
288.372, 231.009
289.734, 77.347
291.097, 153.768
292.459, 166.263
293.821, 9.816
295.183, 219.421
296.544, 182.067
297.905, 278.749
299.266, 337.458
300.627, 365.188
301.988, 589.934
303.348, 612.690
304.709, 789.451
306.069, 648.215
307.428, 654.975
308.788, 682.727
310.147, 504.467
311.507, 623.190
312.865, 324.125
314.224, 312.055
315.583, 296.460
316.941, 259.086
318.299, 232.157
319.657, 47.175
321.015, 173.759
322.372, 70.967
323.729, 119.977
325.086, 147.010
326.443, 14.150
327.800, 209.548
329.156, 106.266
330.512, 214.625
331.868, 216.324
333.224, 157.459
334.579, 401.610
335.935, 247.990
337.290, 429.005
338.645, 445.110
339.999, 488.978
341.354, 600.779
342.708, 546.516
344.062, 677.184
345.416, 599.782
346.769, 581.312
348.123, 555.778
349.476, 403.171
350.829, 402.491
352.182, 317.388
353.534, 342.905
354.887, 180.016
356.239, 109.052
357.591, 14.012
358.942, 102.104
360.294, 148.674
361.645, 115.593
362.996, 37.029
364.347, 86.382
365.698, 109.888
367.048, 18.495
368.398, 121.163
369.748, 47.063
371.098, 128.771
372.448, 62.718
373.797, 53.767
375.146, 168.847
376.495, 22.942
377.844, 183.313
379.192, 117.706
380.540, 61.218
381.889, 67.810
383.236, 85.490
384.584, 85.273
385.932, 16.852
387.279, 55.108
388.626, 54.842
389.973, 104.713
391.319, 47.473
392.666, 174.256
394.012, 3.910
395.358, 107.532
396.704, 162.062
398.049, 8.518
399.394, 43.841
400.740, 99.013
402.084, 62.003
403.429, 50.874
404.774, 37.394
406.118, 11.154
407.462, 0.483
408.806, 18.341
410.150, 25.312
411.493, 2.407
412.836, 35.391
414.179, 109.932
415.522, 53.601
416.865, 80.971
418.207, 44.281
419.549, 64.429
420.891, 85.444
422.233, 157.373
423.575, 58.175
424.916, 99.828
426.257, 141.347
427.598, 5.230
428.939, 200.090
430.279, 199.321
431.619, 256.454
432.959, 164.521
434.299, 220.516
435.639, 257.452
436.978, 274.333
438.318, 421.153
439.657, 436.957
440.996, 634.622
442.334, 591.267
443.673, 687.851
445.011, 854.370
446.349, 800.827
447.687, 1287.220
449.024, 1263.546
450.361, 1419.807
451.699, 1766.000
453.036, 1802.125
454.372, 1938.184
455.709, 1803.998
457.045, 1919.919
458.381, 1685.770
459.717, 1531.552
461.053, 1517.262
462.388, 1102.904
463.724, 1068.474
465.059, 793.975
466.394, 679.403
467.728, 714.762
469.063, 630.048
470.397, 605.264
471.731, 510.408
473.065, 395.479
474.398, 390.479
475.732, 275.403
477.065, 470.249
478.398, 335.024
479.731, 339.723
481.063, 433.927
482.396, 278.477
483.728, 312.587
485.060, 296.805
486.391, 271.037
487.723, 234.613
489.054, 338.772
490.385, 412.536
491.716, 196.548
493.047, 480.476
494.377, 234.160
495.708, 357.937
497.038, 431.640
498.368, 395.271
499.697, 448.831
501.027, 552.321
502.356, 525.740
503.685, 659.089
505.014, 682.368
506.342, 865.579
507.671, 930.545
508.999, 893.617
510.327, 916.639
511.655, 919.572
512.982, 1172.439
514.310, 1158.411
515.637, 1350.747
516.964, 1332.700
518.291, 1284.475
519.617, 1578.685
520.944, 1587.385
522.270, 1700.385
523.596, 1571.141
524.921, 1828.168
526.247, 1970.987
527.572, 1739.409
528.897, 2131.167
530.222, 1975.406
531.547, 1956.766
532.871, 2161.670
534.196, 1962.266
535.520, 2250.166
536.844, 1968.121
538.167, 2034.776
539.491, 2065.384
540.814, 1915.343
542.137, 2008.756
543.460, 1811.408
544.783, 1943.405
546.105, 1671.527
547.427, 1718.130
548.749, 1777.035
550.071, 1450.731
551.393, 1418.014
552.714, 1438.030
554.035, 1297.840
555.356, 1297.040
556.677, 958.328
557.998, 1238.119
559.318, 1215.796
560.638, 1167.430
561.958, 1405.349
563.278, 1266.040
564.597, 1738.785
565.917, 1834.416
567.236, 2052.606
568.555, 2466.156
569.874, 2304.582
571.192, 2438.888
572.511, 2035.067
573.829, 1782.385
575.147, 1709.012
576.464, 1187.918
577.782, 1164.019
579.099, 690.686
580.416, 757.299
581.733, 705.536
583.050, 491.740
584.366, 648.939
585.683, 446.790
586.999, 469.648
588.315, 468.040
589.630, 326.375
590.946, 485.120
592.261, 292.976
593.576, 461.339
594.891, 389.958
596.206, 218.604
597.520, 457.823
598.834, 247.067
600.148, 496.299
601.462, 405.494
602.776, 214.649
604.089, 483.770
605.402, 262.852
606.715, 471.898
608.028, 480.908
609.341, 359.883
610.653, 538.822
611.965, 307.728
613.277, 616.598
614.589, 535.435
615.901, 504.239
617.212, 833.010
618.523, 571.747
619.834, 830.452
621.145, 969.126
622.456, 797.769
623.766, 1326.380
625.076, 1094.960
626.386, 1263.512
627.696, 1072.032
629.006, 1060.524
630.315, 1078.988
631.624, 557.195
632.933, 765.353
634.242, 542.984
635.551, 471.338
636.859, 609.188
638.167, 407.035
639.475, 695.254
640.783, 402.789
642.090, 650.458
643.398, 838.040
644.705, 635.450
646.012, 942.538
647.318, 750.241
648.625, 798.236
649.931, 804.823
651.237, 592.906
652.543, 759.907
653.849, 547.608
655.155, 555.604
656.460, 593.433
657.765, 181.422
659.070, 429.394
660.375, 87.350
661.679, 215.288
662.984, 243.212
664.288, 11.121
665.592, 278.995
666.895, 66.855
668.199, 194.701
669.502, 92.534
670.805, 19.645
672.108, 148.134
673.411, 85.903
674.713, 23.664
676.016, 111.412
677.318, 90.812
678.620, 206.894
679.921, 145.366
681.223, 17.719
682.524, 79.933
683.825, 122.384
685.126, 185.229
686.427, 47.119
687.727, 20.499
689.028, 158.152
690.328, 244.166
691.628, 253.407
692.927, 138.964
694.227, 68.598
695.526, 76.221
696.825, 96.110
698.124, 131.536
699.423, 40.782
700.721, 46.878
702.020, 94.580
703.318, 47.703
704.616, 90.021
705.913, 72.243
707.211, 64.538
708.508, 193.170
709.805, 239.115
711.102, 148.507
712.399, 213.859
713.695, 66.316
714.992, 151.219
716.288, 231.226
717.584, 386.277
718.879, 66.200
720.175, 141.312
721.470, 68.867
722.765, 73.545
724.060, 264.043
725.355, 118.328
726.649, 99.293
727.944, 306.952
729.238, 24.641
730.532, 452.397
731.825, 110.182
733.119, 238.026
734.412, 455.902
735.705, 206.192
736.998, 461.655
738.291, 99.526
739.584, 37.427
740.876, 385.357
742.168, 3.312
743.460, 371.312
744.752, 269.334
746.043, 197.382
747.334, 435.451
748.626, 133.547
749.916, 351.667
751.207, 389.812
752.498, 257.980
753.788, 426.171
755.078, 64.383
756.368, 482.617
757.658, 250.874
758.947, 179.155
760.237, 447.461
761.526, 255.790
762.815, 464.144
764.104, 342.523
765.392, 320.927
766.680, 519.358
767.969, 97.815
769.257, 636.301
770.544, 414.812
771.832, 263.353
773.119, 631.920
774.406, 10.517
775.693, 399.143
776.980, 287.798
778.267, 206.483
779.553, 555.199
780.839, 73.947
782.125, 192.727
783.411, 351.536
784.697, 200.378
785.982, 569.253
787.267, 238.161
788.552, 227.105
789.837, 426.086
791.122, 175.100
792.406, 554.151
793.690, 343.240
794.974, 432.363
796.258, 711.527
797.542, 180.729
798.825, 619.969
800.108, 359.251
801.391, 398.573
802.674, 737.937
803.957, 257.338
805.239, 596.785
806.522, 446.271
807.804, 395.801
809.085, 795.372
810.367, 374.982
811.649, 754.636
812.930, 734.329
814.211, 284.094
815.492, 913.900
816.772, 743.753
818.053, 1053.647
819.333, 971.761
820.613, 681.785
821.893, 1121.835
823.173, 881.948
824.452, 1142.115
825.732, 1059.153
827.011, 879.415
828.290, 1439.722
829.568, 1019.256
830.847, 1159.662
832.125, 1333.277
833.403, 983.783
834.681, 1524.373
835.959, 1152.421
837.236, 1153.113
838.514, 1425.586
839.791, 1206.377
841.068, 1433.391
842.345, 1253.905
843.621, 1234.900
844.898, 1670.644
846.174, 1111.741
847.450, 1624.262
848.726, 1255.464
850.001, 986.719
851.277, 1682.058
852.552, 1103.418
853.827, 1581.975
855.102, 1453.445
856.376, 1354.967
857.651, 1773.527
858.925, 1475.168
860.199, 1812.713
861.473, 1720.812
862.746, 1342.662
864.020, 1981.268
865.293, 1243.230
866.566, 1243.629
867.839, 1502.248
869.112, 904.385
870.384, 1414.250
871.656, 926.508
872.928, 835.648
874.200, 1138.029
875.472, 840.471
876.744, 1159.641
878.015, 902.219
879.286, 899.422
880.557, 1182.123
881.828, 674.889
883.098, 1027.717
884.369, 1060.607
885.639, 703.559
886.909, 1316.572
888.178, 709.648
889.448, 1083.301
890.717, 1216.502
891.987, 729.766
893.256, 1253.092
894.524, 916.482
895.793, 1029.910
897.061, 1353.428
898.330, 897.035
899.598, 1410.705
900.865, 1194.438
902.133, 1058.271
903.401, 1612.168
904.668, 976.129
905.935, 1410.154
907.202, 1414.240
908.468, 1188.395
909.735, 1712.611
911.001, 1166.891
912.267, 1531.238
913.533, 1625.646
914.799, 1410.119
916.064, 1684.652
917.330, 1349.252
918.595, 1743.914
919.860, 1908.639
921.124, 1693.426
922.389, 1968.279
923.653, 2063.195
924.918, 1908.168
926.182, 2823.207
927.445, 2418.305
928.709, 3313.463
929.972, 3428.682
931.236, 3423.959
932.499, 4289.295
933.761, 4514.695
935.024, 5070.148
936.286, 6145.660
937.549, 6591.229
938.811, 8286.859
940.073, 9672.547
941.334, 11448.289
942.596, 14504.084
943.857, 17439.943
945.118, 21715.857
946.379, 26671.832
947.640, 30347.873
948.900, 34143.980
950.161, 32610.150
951.421, 31026.369
952.681, 27022.666
953.940, 21959.021
955.200, 18205.439
956.459, 14391.926
957.719, 11218.473
958.978, 9615.086
960.236, 6991.764
961.495, 6338.506
962.753, 4845.312
964.012, 4032.184
965.270, 3705.785
966.527, 2842.785
967.785, 2860.670
969.043, 2337.801
970.300, 1724.998
971.557, 2002.287
972.814, 1349.623
974.071, 1357.025
975.327, 1446.740
976.583, 784.277
977.840, 1172.564
979.095, 1060.248
980.351, 707.998
981.607, 1097.143
982.862, 455.027
984.117, 984.105
985.372, 882.156
986.627, 570.316
987.882, 1218.088
989.136, 376.393
990.390, 804.805
991.644, 1055.021
992.898, 293.582
994.152, 832.213
995.405, 510.912
996.659, 779.742
997.912, 1088.641
999.165, 637.645
1000.417, 1646.713
1001.670, 1685.850
1002.922, 1345.076
1004.174, 1514.371
1005.426, 643.750
1006.678, 713.191
1007.930, 884.211
1009.181, 303.803
1010.432, 783.461
1011.683, 452.416
1012.934, 442.246
1014.185, 842.143
1015.435, 352.168
1016.685, 802.262
1017.935, 792.477
1019.185, 652.777
1020.435, 1243.146
1021.684, 693.641
1022.934, 944.203
1024.183, 1304.961
1025.432, 655.684
1026.680, 1176.477
1027.929, 1000.695
1029.177, 831.574
1030.425, 1352.545
1031.673, 754.113
1032.921, 1315.113
1034.169, 1196.152
1035.416, 907.248
1036.663, 1538.416
1037.911, 1519.869
1039.157, 1601.139
1040.404, 2362.395
1041.650, 1903.898
1042.897, 2885.131
1044.143, 3217.037
1045.389, 3448.578
1046.634, 4879.988
1047.880, 5298.168
1049.125, 6269.697
1050.371, 7511.258
1051.615, 7631.695
1052.860, 8093.213
1054.105, 7405.467
1055.349, 6617.084
1056.593, 6068.748
1057.837, 4251.342
1059.081, 4093.086
1060.325, 3104.799
1061.568, 2307.297
1062.812, 2479.072
1064.055, 1501.055
1065.298, 1492.893
1066.540, 1464.768
1067.783, 796.943
1069.025, 1378.867
1070.267, 1000.627
1071.509, 683.268
1072.751, 1164.781
1073.993, 456.275
1075.234, 908.268
1076.475, 819.709
1077.716, 421.312
1078.957, 1122.664
1080.198, 503.959
1081.438, 615.420
1082.679, 1036.555
1083.919, 407.666
1085.159, 938.652
1086.398, 799.578
1087.638, 451.791
1088.877, 792.562
1090.116, 312.812
1091.355, 452.568
1092.594, 874.762
1093.833, 227.061
1095.071, 569.465
1096.309, 261.971
1097.547, 134.580
1098.785, 637.295
1100.023, 30.113
1101.260, 353.037
1102.498, 366.064
1103.735, 19.133
1104.972, 612.297
1106.208, 305.516
1107.445, 28.789
1108.681, 552.139
1109.918, 15.584
1111.154, 289.123
1112.389, 282.746
1113.625, 193.535
1114.860, 310.184
1116.096, 46.062
1117.331, 87.725
1118.566, 461.604
1119.800, 244.426
1121.035, 439.635
1122.269, 243.785
1123.503, 81.973
1124.737, 452.334
1125.971, 33.322
1127.205, 261.051
1128.438, 345.508
1129.671, 49.957
1130.904, 344.660
1132.137, 40.650
1133.370, 114.115
1134.602, 428.910
1135.834, 196.225
1137.066, 358.707
1138.298, 293.715
1139.530, 221.207
1140.762, 443.945
1141.993, 99.166
1143.224, 144.459
1144.455, 359.738
1145.686, 95.031
1146.917, 360.336
1148.147, 245.713
1149.377, 21.150
1150.607, 446.660
1151.837, 152.242
1153.067, 67.906
1154.296, 563.643
1155.526, 10.535
1156.755, 455.379
1157.984, 441.389
1159.213, 122.494
1160.441, 773.740
1161.670, 130.105
1162.898, 246.611
1164.126, 553.246
1165.354, 180.061
1166.581, 457.020
1167.809, 454.104
1169.036, 111.312
1170.263, 768.641
1171.490, 96.092
1172.717, 373.666
1173.943, 801.359
1175.170, 29.178
1176.396, 441.346
1177.622, 507.121
1178.848, 104.941
1180.073, 717.678
1181.299, 309.414
1182.524, 325.111
1183.749, 672.621
1184.974, 136.568
1186.199, 541.070
1187.423, 611.201
1188.648, 148.170
1189.872, 709.646
1191.096, 85.746
1192.320, 141.818
1193.543, 537.855
1194.767, 36.148
1195.990, 339.793
1197.213, 410.271
1198.436, 64.117
1199.659, 656.438
1200.881, 100.625
1202.104, 444.545
1203.326, 818.146
1204.548, 101.373
1205.770, 623.684
1206.991, 430.307
1208.213, 112.080
1209.434, 771.102
1210.655, 202.979
1211.876, 323.018
1213.096, 794.539
1214.317, 195.898
1215.537, 603.539
1216.757, 759.723
1217.977, 98.461
1219.197, 699.496
1220.417, 368.480
1221.636, 73.324
1222.855, 764.275
1224.074, 116.213
1225.293, 180.895
1226.512, 530.623
1227.731, 91.955
1228.949, 672.199
1230.167, 117.141
1231.385, 214.236
1232.603, 823.973
1233.820, 3.750
1235.038, 393.898
1236.255, 364.463
1237.472, 0.000
##END=



