##NAMES=Zircon
##RRUFFID=R050034
##IDEAL CHEMISTRY=Zr^4+^SiO_4_
##LOCALITY=Oaxaca, Mexico
##OWNER=RRUFF
##SOURCE=University of Arizona Mineral Museum
##DESCRIPTION=Reddish brown single crystal fragments
##STATUS=The identification of this mineral has been confirmed by X-ray diffraction and chemical analysis
##URL=rruff.info/R050034
##MEASURED CHEMISTRY=Zr_1.00_Si_1.00_O_4_
##PIN_ID=M00272
##ORIENTATION=Laser parallel to -c* (0 0 -1). Fiducial mark perpendicular to laser is parallel to b [0 1 0]
78.661, 0.000
80.062, 37.749
81.463, 54.462
82.863, 4.830
84.264, 19.701
85.664, 11.366
87.064, 38.698
88.463, 62.368
89.863, 50.133
91.262, 97.806
92.661, 105.247
94.059, 157.358
95.458, 162.057
96.856, 156.269
98.254, 170.929
99.652, 197.983
101.049, 253.383
102.446, 198.089
103.843, 277.072
105.240, 237.319
106.637, 274.826
108.033, 333.588
109.429, 400.583
110.825, 430.778
112.220, 366.150
113.616, 415.676
115.011, 374.341
116.406, 336.129
117.800, 297.029
119.195, 333.030
120.589, 327.123
121.983, 317.299
123.377, 341.548
124.770, 331.865
126.163, 290.242
127.556, 328.739
128.949, 338.340
130.342, 297.068
131.734, 256.968
133.126, 266.053
134.518, 301.241
135.909, 282.632
137.301, 285.120
138.692, 252.599
140.083, 257.067
141.473, 237.527
142.864, 263.982
144.254, 214.433
145.644, 252.883
147.034, 257.332
148.423, 209.782
149.812, 217.234
151.201, 168.689
152.590, 215.148
153.979, 244.611
155.367, 271.080
156.755, 245.555
158.143, 211.036
159.530, 231.525
160.918, 211.021
162.305, 268.520
163.692, 236.004
165.078, 229.466
166.465, 266.922
167.851, 197.376
169.237, 257.830
170.623, 185.289
172.008, 209.752
173.393, 209.223
174.778, 192.028
176.163, 236.785
177.548, 205.235
178.932, 234.086
180.316, 211.648
181.700, 265.299
183.083, 239.459
184.467, 264.098
185.850, 272.501
187.233, 265.535
188.616, 364.771
189.998, 358.531
191.380, 410.394
192.762, 527.770
194.144, 561.330
195.525, 709.618
196.907, 758.939
198.288, 877.265
199.669, 1043.609
201.049, 1233.970
202.429, 1402.350
203.810, 1710.748
205.189, 2119.162
206.569, 2428.594
207.949, 2737.043
209.328, 2816.508
210.707, 2668.990
212.085, 2194.488
213.464, 1741.000
214.842, 1421.527
216.220, 1191.069
217.598, 1024.625
218.976, 840.193
220.353, 800.773
221.730, 693.366
223.107, 597.971
224.483, 485.589
225.860, 398.218
227.236, 328.860
228.612, 262.724
229.988, 234.180
231.363, 184.859
232.738, 182.550
234.113, 145.503
235.488, 125.967
236.863, 99.694
238.237, 93.433
239.611, 81.184
240.985, 75.986
242.359, 65.722
243.732, 65.511
245.105, 74.740
246.478, 49.933
247.851, 74.063
249.223, 31.798
250.595, 29.095
251.967, 32.459
253.339, 40.882
254.711, 33.357
256.082, 1.879
257.453, 21.443
258.824, 25.046
260.195, 57.686
261.565, 52.359
262.935, 100.062
264.305, 56.801
265.675, 54.566
267.044, 31.361
268.414, 5.820
269.783, 23.024
271.151, 16.112
272.520, 32.230
273.888, 27.669
275.256, 18.586
276.624, 45.520
277.992, 6.531
279.359, 2.432
280.726, 30.583
282.093, 7.411
283.460, 18.582
284.827, 12.565
286.193, 28.538
287.559, 19.505
288.925, 29.030
290.290, 10.417
291.656, 34.360
293.021, 28.300
294.386, 12.235
295.750, 4.163
297.115, 24.083
298.479, 5.999
299.843, 3.091
301.207, 64.812
302.570, 13.723
303.933, 48.630
305.296, 11.541
306.659, 34.447
308.022, 12.646
309.384, 23.746
310.746, 12.852
312.108, 35.966
313.470, 2.085
314.831, 39.211
316.193, 79.344
317.554, 46.484
318.914, 83.630
320.275, 34.782
321.635, 114.942
322.995, 35.107
324.355, 60.280
325.715, 69.459
327.074, 73.644
328.434, 89.438
329.792, 88.035
331.151, 115.241
332.510, 107.453
333.868, 133.672
335.226, 122.898
336.584, 172.131
337.941, 220.371
339.299, 216.616
340.656, 307.852
342.013, 278.096
343.370, 322.345
344.726, 423.592
346.082, 536.839
347.438, 623.082
348.794, 798.318
350.150, 893.547
351.505, 1044.771
352.860, 997.995
354.215, 931.224
355.570, 769.436
356.924, 678.638
358.278, 512.838
359.632, 449.047
360.986, 443.262
362.339, 248.488
363.693, 268.721
365.046, 241.963
366.399, 306.212
367.751, 234.469
369.104, 233.739
370.456, 284.017
371.808, 243.302
373.159, 276.596
374.511, 285.898
375.862, 319.207
377.213, 323.523
378.564, 333.846
379.914, 452.177
381.265, 456.515
382.615, 485.865
383.965, 634.221
385.315, 668.585
386.664, 769.956
388.013, 754.333
389.362, 789.716
390.711, 777.107
392.060, 689.506
393.408, 660.911
394.756, 595.323
396.104, 576.745
397.451, 575.173
398.799, 503.615
400.146, 540.063
401.493, 465.518
402.840, 592.979
404.186, 568.450
405.533, 628.535
406.879, 763.025
408.225, 765.173
409.570, 848.682
410.916, 905.198
412.261, 1031.735
413.606, 1161.279
414.951, 1303.832
416.295, 1542.400
417.639, 1660.975
418.983, 1885.565
420.327, 2252.163
421.671, 2603.892
423.014, 3116.513
424.357, 3611.142
425.700, 4426.319
427.043, 5418.968
428.386, 6632.786
429.728, 8025.455
431.070, 9414.623
432.412, 11023.309
433.753, 11871.510
435.095, 12559.866
436.436, 12068.564
437.777, 11147.271
439.118, 9755.983
440.458, 8164.464
441.798, 6883.095
443.138, 5582.549
444.478, 4580.294
445.818, 3982.297
447.157, 3249.557
448.496, 2945.101
449.835, 2415.065
451.174, 2190.590
452.513, 1921.956
453.851, 1759.246
455.189, 1573.830
456.527, 1422.408
457.864, 1461.789
459.202, 1222.583
460.539, 1111.167
461.876, 1112.024
463.212, 927.741
464.549, 913.013
465.885, 804.599
467.221, 845.964
468.557, 761.261
469.893, 712.146
471.228, 693.033
472.563, 631.924
473.898, 509.818
475.233, 506.705
476.567, 431.606
477.902, 424.510
479.236, 366.417
480.570, 345.328
481.903, 382.241
483.237, 318.157
484.570, 329.076
485.903, 268.998
487.235, 273.922
488.568, 241.850
489.900, 263.780
491.232, 228.713
492.564, 156.649
493.896, 186.590
495.227, 207.538
496.558, 181.496
497.889, 206.475
499.220, 127.455
500.551, 176.454
501.881, 160.456
503.211, 214.465
504.541, 199.486
505.870, 150.508
507.200, 159.536
508.529, 174.566
509.858, 130.598
511.187, 130.637
512.515, 163.677
513.844, 185.729
515.172, 134.783
516.500, 178.839
517.827, 147.908
519.155, 150.967
520.482, 193.028
521.809, 165.508
523.136, 150.572
524.462, 126.637
525.789, 132.739
527.115, 134.806
528.441, 121.258
529.766, 122.327
531.092, 123.398
532.417, 122.896
533.742, 134.968
535.067, 98.040
536.391, 127.113
537.716, 91.367
539.040, 117.453
540.364, 121.528
541.688, 71.795
543.011, 130.876
544.334, 71.982
545.657, 106.111
546.980, 97.196
548.303, 105.320
549.625, 113.468
550.947, 84.902
552.269, 101.028
553.591, 75.196
554.913, 56.973
556.234, 59.054
557.555, 17.974
558.876, 98.081
560.197, 32.158
561.517, 27.625
562.837, 77.224
564.157, 13.819
565.477, 7.247
566.797, 14.689
568.116, 38.448
569.435, 24.502
570.754, 15.591
572.073, 88.641
573.391, 27.693
574.709, 50.681
576.027, 12.724
577.345, 34.565
578.663, 45.716
579.980, 2.153
581.297, 37.221
582.614, 24.359
583.931, 27.093
585.248, 21.270
586.564, 20.626
587.880, 28.274
589.196, 11.435
590.511, 2.974
591.827, 0.652
593.142, 16.671
594.457, 55.361
595.772, 22.898
597.086, 23.926
598.401, 89.275
599.715, 30.781
601.029, 70.572
602.343, 24.496
603.656, 48.415
604.969, 45.661
606.282, 30.576
607.595, 83.824
608.908, 44.739
610.220, 52.322
611.532, 130.545
612.844, 52.529
614.156, 108.834
615.468, 109.968
616.779, 93.289
618.090, 82.312
619.401, 91.208
620.712, 109.129
622.022, 76.027
623.332, 101.943
624.642, 132.998
625.952, 55.892
627.262, 149.026
628.571, 127.913
629.880, 126.793
631.189, 171.746
632.498, 93.614
633.807, 154.474
635.115, 193.329
636.423, 207.175
637.731, 254.013
639.039, 181.844
640.346, 248.668
641.653, 171.485
642.960, 178.377
644.267, 103.178
645.574, 105.973
646.880, 99.812
648.186, 98.704
649.492, 82.525
650.798, 131.035
652.103, 73.378
653.409, 137.123
654.714, 90.024
656.019, 68.756
657.323, 69.203
658.628, 100.067
659.932, 87.865
661.236, 64.821
662.540, 108.510
663.843, 106.887
665.147, 62.559
666.450, 97.280
667.753, 83.931
669.056, 79.575
670.358, 123.541
671.660, 65.167
672.963, 148.852
674.264, 45.458
675.566, 92.055
676.868, 88.642
678.169, 18.220
679.470, 77.784
680.771, 67.339
682.071, 41.884
683.372, 78.418
684.672, 2.056
685.972, 71.447
687.271, 70.939
688.571, 18.423
689.870, 82.892
691.169, 72.352
692.468, 129.801
693.767, 29.291
695.065, 50.719
696.364, 75.405
697.662, 1.918
698.960, 80.305
700.257, 51.438
701.555, 45.804
702.852, 61.160
704.149, 47.506
705.446, 41.841
706.742, 23.165
708.038, 47.475
709.335, 38.775
710.631, 12.064
711.926, 83.336
713.222, 8.402
714.517, 51.833
715.812, 69.058
717.107, 21.273
718.402, 16.473
719.696, 9.342
720.990, 68.217
722.284, 81.365
723.578, 38.854
724.872, 77.981
726.165, 12.902
727.458, 67.187
728.751, 57.266
730.044, 11.665
731.336, 67.377
732.629, 9.592
733.921, 34.414
735.213, 1.408
736.504, 2.738
737.796, 34.215
739.087, 5.844
740.378, 17.538
741.669, 33.443
742.960, 13.827
744.250, 18.040
745.540, 12.211
746.830, 13.052
748.120, 50.767
749.410, 35.593
750.699, 6.402
751.988, 34.197
753.277, 10.981
754.566, 78.753
755.854, 41.394
757.143, 71.330
758.431, 51.045
759.719, 10.751
761.006, 72.445
762.294, 8.870
763.581, 62.794
764.868, 30.550
766.155, 56.927
767.442, 30.650
768.728, 26.782
770.014, 12.755
771.300, 11.718
772.586, 7.212
773.872, 53.274
775.157, 6.248
776.442, 49.211
777.727, 39.662
779.012, 14.104
780.297, 59.537
781.581, 7.960
782.865, 70.373
784.149, 62.777
785.433, 23.174
786.716, 41.561
787.999, 44.939
789.282, 40.310
790.565, 111.672
791.848, 56.026
793.130, 102.373
794.413, 48.711
795.695, 94.041
796.977, 18.364
798.258, 52.677
799.540, 55.983
800.821, 24.282
802.102, 9.572
803.382, 23.854
804.663, 7.873
805.943, 5.614
807.224, 28.368
808.504, 63.149
809.783, 34.028
811.063, 56.802
812.342, 1.328
813.621, 15.551
814.900, 34.447
816.179, 51.629
817.457, 10.301
818.736, 45.755
820.014, 13.805
821.292, 16.153
822.569, 55.873
823.847, 38.108
825.124, 24.884
826.401, 7.870
827.678, 27.849
828.954, 99.811
830.231, 23.777
831.507, 54.738
832.783, 67.274
834.059, 114.222
835.334, 176.165
836.610, 152.067
837.885, 134.998
839.160, 93.541
840.435, 68.461
841.709, 85.376
842.983, 47.858
844.258, 33.763
845.532, 72.662
846.805, 0.557
848.079, 26.265
849.352, 9.863
850.625, 26.986
851.898, 105.689
853.171, 22.454
854.443, 75.370
855.715, 55.166
856.988, 67.001
858.259, 120.794
859.531, 53.557
860.803, 102.030
862.074, 81.817
863.345, 70.556
864.616, 143.682
865.886, 91.500
867.157, 113.474
868.427, 188.262
869.697, 107.078
870.967, 151.500
872.236, 136.785
873.506, 119.709
874.775, 107.520
876.044, 120.328
877.313, 118.057
878.581, 99.877
879.849, 107.658
881.118, 155.475
882.386, 98.299
883.653, 142.183
884.921, 149.010
886.188, 72.036
887.455, 159.748
888.722, 139.482
889.989, 68.968
891.255, 163.688
892.522, 102.002
893.788, 145.489
895.054, 119.241
896.319, 138.198
897.585, 175.758
898.850, 103.204
900.115, 174.683
901.380, 194.553
902.645, 119.390
903.909, 235.717
905.174, 141.550
906.438, 173.061
907.701, 196.973
908.965, 122.467
910.229, 216.392
911.492, 165.318
912.755, 289.920
914.018, 249.852
915.280, 220.452
916.543, 279.387
917.805, 264.653
919.067, 267.280
920.329, 339.147
921.590, 250.697
922.852, 283.428
924.113, 285.970
925.374, 216.811
926.635, 328.779
927.895, 272.721
929.156, 365.695
930.416, 334.650
931.676, 314.473
932.936, 354.457
934.195, 374.204
935.454, 341.194
936.714, 471.188
937.973, 371.106
939.231, 463.106
940.490, 529.112
941.748, 481.117
943.006, 536.131
944.264, 585.148
945.522, 647.169
946.780, 602.195
948.037, 591.225
949.294, 754.177
950.551, 717.216
951.808, 831.259
953.064, 824.257
954.320, 843.198
955.577, 999.206
956.832, 1048.523
958.088, 1137.004
959.344, 1342.080
960.599, 1460.996
961.854, 1898.078
963.109, 2266.442
964.364, 2850.386
965.618, 3927.392
966.872, 5109.240
968.127, 6412.349
969.380, 6739.767
970.634, 6426.887
971.888, 5691.956
973.141, 4719.091
974.394, 3972.230
975.647, 3426.045
976.900, 2863.196
978.152, 2755.285
979.404, 2422.450
980.656, 2382.621
981.908, 2482.799
983.160, 2362.983
984.411, 2693.177
985.663, 2733.375
986.914, 3011.582
988.165, 3473.794
989.415, 3785.015
990.666, 4471.247
991.916, 5523.488
993.166, 6521.734
994.416, 8408.991
995.665, 10786.254
996.915, 14533.525
998.164, 20420.750
999.413, 27228.031
1000.662, 36575.066
1001.911, 40711.258
1003.159, 38238.566
1004.407, 32835.137
1005.655, 24622.463
1006.903, 18749.807
1008.151, 14467.151
1009.398, 10794.517
1010.646, 8641.890
1011.893, 6891.160
1013.139, 5687.552
1014.386, 4849.953
1015.633, 3962.365
1016.879, 3422.805
1018.125, 2969.298
1019.371, 2449.079
1020.616, 2245.567
1021.862, 2006.082
1023.107, 1744.589
1024.352, 1712.668
1025.597, 1377.227
1026.842, 1318.781
1028.086, 1161.305
1029.330, 1043.940
1030.574, 1054.535
1031.818, 881.166
1033.062, 876.775
1034.305, 830.563
1035.548, 676.432
1036.791, 716.494
1038.034, 639.091
1039.277, 655.759
1040.519, 688.742
1041.762, 541.997
1043.004, 533.699
1044.246, 554.505
1045.487, 447.214
1046.729, 605.947
1047.970, 482.648
1049.211, 549.890
1050.452, 524.645
1051.692, 477.943
1052.933, 530.710
1054.173, 436.599
1055.413, 402.709
1056.653, 470.498
1057.893, 321.800
1059.132, 393.614
1060.371, 422.430
1061.610, 314.995
1062.849, 381.823
1064.088, 343.656
1065.326, 388.500
1066.565, 383.348
1067.803, 279.362
1069.041, 392.252
1070.278, 342.146
1071.516, 307.883
1072.753, 383.799
1073.990, 350.727
1075.227, 401.546
1076.464, 430.489
1077.700, 303.470
1078.936, 463.560
1080.173, 371.532
1081.408, 386.674
1082.644, 464.679
1083.880, 435.694
1085.115, 468.872
1086.350, 529.903
1087.585, 437.973
1088.820, 563.026
1090.054, 415.083
1091.288, 400.319
1092.522, 412.396
1093.756, 296.560
1094.990, 347.834
1096.224, 327.924
1097.457, 377.176
1098.690, 352.277
1099.923, 348.380
1101.156, 352.853
1102.388, 373.968
1103.621, 360.085
1104.853, 381.296
1106.085, 404.426
1107.316, 420.562
1108.548, 373.712
1109.779, 350.883
1111.010, 309.108
1112.241, 323.300
1113.472, 205.496
1114.703, 238.702
1115.933, 187.921
1117.163, 157.142
1118.393, 233.377
1119.623, 127.615
1120.853, 154.854
1122.082, 204.102
1123.311, 139.351
1124.540, 196.613
1125.769, 118.877
1126.997, 114.142
1128.226, 162.410
1129.454, 105.679
1130.682, 147.949
1131.910, 93.221
1133.138, 131.493
1134.365, 184.766
1135.592, 111.041
1136.819, 205.315
1138.046, 165.677
1139.273, 211.952
1140.499, 276.436
1141.725, 204.712
1142.951, 204.988
1144.177, 230.265
1145.403, 176.647
1146.628, 179.924
1147.854, 96.436
1149.079, 41.713
1150.304, 165.052
1151.528, 113.358
1152.753, 115.795
1153.977, 126.242
1155.201, 21.001
1156.425, 113.613
1157.649, 145.687
1158.872, 46.003
1160.096, 36.563
1161.319, 4.116
1162.542, 19.411
1163.764, 34.726
1164.987, 26.646
1166.209, 10.150
1167.431, 18.496
1168.653, 4.812
1169.875, 77.240
1171.097, 13.668
1172.318, 8.547
1173.539, 73.020
1174.760, 53.555
1175.981, 2.635
1177.202, 78.021
1178.422, 52.800
1179.642, 74.640
1180.862, 0.979
1182.082, 2.856
1183.302, 57.522
1184.521, 24.190
1185.740, 68.902
1186.959, 3.460
1188.178, 26.383
1189.397, 79.675
1190.615, 34.092
1191.834, 32.065
1193.052, 62.109
1194.269, 30.895
1195.487, 5.923
1196.705, 43.143
1197.922, 70.903
1199.139, 139.005
1200.356, 11.906
1201.573, 1.201
1202.789, 40.683
1204.006, 4.440
1205.222, 42.424
1206.438, 103.281
1207.653, 7.870
1208.869, 118.964
1210.084, 46.901
1211.299, 49.719
1212.514, 85.531
1213.729, 13.847
1214.944, 86.641
1216.158, 97.457
1217.372, 38.606
1218.586, 63.138
1219.800, 104.198
1221.014, 6.732
1222.227, 180.978
1223.440, 53.116
1224.654, 29.110
1225.866, 165.810
1227.079, 31.352
1228.292, 102.015
1229.504, 66.134
1230.716, 33.364
1231.928, 135.166
1233.139, 64.999
1234.351, 81.885
1235.562, 134.511
1236.773, 40.379
1237.984, 120.977
1239.195, 60.602
1240.406, 36.728
1241.616, 159.305
1242.826, 45.249
1244.036, 91.439
1245.246, 99.997
1246.456, 18.468
1247.665, 136.174
1248.874, 108.710
1250.083, 67.747
1251.292, 171.379
1252.501, 125.079
1253.709, 93.903
1254.917, 230.412
1256.125, 80.081
1257.333, 128.678
1258.541, 158.156
1259.748, 145.053
1260.956, 219.756
1262.163, 113.208
1263.370, 235.639
1264.576, 302.073
1265.783, 153.524
1266.989, 221.150
1268.195, 226.539
1269.401, 166.105
1270.607, 227.469
1271.813, 187.794
1273.018, 189.332
1274.223, 135.613
1275.428, 154.871
1276.633, 168.269
1277.838, 150.491
1279.042, 139.689
1280.246, 182.976
1281.450, 140.147
1282.654, 88.307
1283.858, 188.452
1285.061, 60.586
1286.265, 140.833
1287.468, 137.944
1288.671, 116.043
1289.873, 87.188
1291.076, 159.266
1292.278, 57.334
1293.480, 140.504
1294.682, 101.550
1295.884, 109.835
1297.086, 79.857
1298.287, 12.866
1299.488, 33.857
1300.689, 9.833
1301.890, 22.771
1303.091, 111.665
1304.291, 49.638
1305.491, 51.462
1306.691, 109.243
1307.891, 51.018
1309.091, 42.686
1310.290, 57.333
1311.490, 25.322
1312.689, 98.301
1313.888, 70.889
1315.086, 0.527
1316.285, 185.480
1317.483, 7.002
1318.681, 67.510
1319.879, 114.037
1321.077, 7.579
1322.275, 114.843
1323.472, 47.217
1324.669, 55.598
1325.866, 214.797
1327.063, 52.905
1328.260, 73.228
1329.456, 155.178
1330.653, 25.467
1331.849, 120.435
1333.045, 147.119
1334.240, 70.350
1335.436, 146.466
1336.631, 69.667
1337.826, 139.835
1339.021, 194.021
1340.216, 83.655
1341.411, 139.764
1342.605, 216.395
1343.799, 112.470
1344.993, 189.413
1346.187, 263.476
1347.381, 125.501
1348.574, 282.002
1349.767, 132.997
1350.961, 137.978
1352.153, 189.202
1353.346, 78.157
1354.539, 108.097
1355.731, 178.063
1356.923, 16.978
1358.115, 187.731
1359.307, 97.705
1360.498, 66.583
1361.690, 120.626
1362.881, 32.471
1364.072, 30.308
1365.263, 180.279
1366.453, 21.899
1367.644, 34.887
1368.834, 97.578
1370.024, 76.628
1371.214, 103.001
1372.404, 17.897
1373.593, 24.326
1374.783, 62.308
1375.972, 2.170
1377.161, 19.175
1378.349, 99.641
1379.538, 34.751
1380.726, 116.723
1381.915, 96.288
1383.103, 14.990
1384.290, 158.286
1385.478, 29.846
1386.665, 11.475
1387.853, 154.082
1389.040, 3.612
1390.227, 68.177
1391.413, 177.718
1392.600, 19.220
1393.786, 81.702
1394.972, 64.161
1396.158, 39.600
1397.344, 107.017
1398.530, 67.414
1399.715, 82.792
1400.900, 153.149
1402.085, 27.383
1403.270, 52.447
1404.455, 174.743
1405.639, 13.113
1406.824, 196.844
1408.008, 104.974
1409.192, 58.487
1410.375, 168.303
1411.559, 63.345
1412.742, 138.664
1413.925, 164.873
1415.108, 49.014
1416.291, 120.169
1417.474, 212.189
1418.656, 55.859
1419.839, 132.359
1421.021, 196.963
1422.202, 67.963
1423.384, 218.366
1424.566, 136.882
1425.747, 99.820
1426.928, 157.316
1428.109, 61.851
1429.290, 167.666
1430.470, 217.323
1431.651, 79.200
1432.831, 154.750
1434.011, 142.605
1435.191, 65.811
1436.370, 214.497
1437.550, 33.365
1438.729, 119.320
1439.908, 261.826
1441.087, 98.118
1442.266, 135.364
1443.444, 245.090
1444.623, 75.630
1445.801, 237.339
1446.979, 261.488
1448.157, 106.990
1449.334, 333.622
1450.512, 199.718
1451.689, 218.687
1452.866, 344.571
1454.043, 197.490
1455.220, 366.962
1456.396, 405.319
1457.573, 226.821
1458.749, 384.957
1459.925, 271.169
1461.100, 267.920
1462.276, 364.208
1463.451, 225.242
1464.627, 218.741
1465.802, 365.254
1466.977, 235.727
1468.151, 188.876
1469.326, 260.589
1470.500, 109.472
1471.674, 214.586
1472.848, 227.641
1474.022, 101.205
1475.195, 234.878
1476.369, 113.606
1477.542, 66.818
1478.715, 243.392
1479.888, 56.710
1481.061, 125.973
1482.233, 226.471
1483.405, 17.226
1484.577, 145.235
1485.749, 155.242
1486.921, 11.696
1488.093, 211.391
1489.264, 61.480
1490.435, 91.725
1491.606, 138.103
1492.777, 37.557
1493.948, 84.059
1495.118, 225.614
1496.288, 24.226
1497.459, 183.936
1498.628, 239.821
1499.798, 14.922
1500.968, 214.595
1502.137, 126.041
1503.306, 50.339
1504.475, 255.930
1505.644, 33.718
1506.813, 48.735
1507.981, 270.486
1509.149, 41.685
1510.318, 183.382
1511.485, 244.002
1512.653, 28.629
1513.821, 143.257
1514.988, 146.883
1516.155, 0.761
1517.322, 0.000
##END=



