##NAMES=Akatoreite
##RRUFFID=R060230
##IDEAL CHEMISTRY=Mn^2+^_9_Al_2_Si_8_O_24_(OH)_8_
##LOCALITY=near mouth of Akatore Creek, Taieri, Otago Province, New Zealand
##OWNER=RRUFF
##SOURCE=Michael Scott
##DESCRIPTION=Orange-brown massive
##STATUS=The identification of this mineral is confirmed by single-crystal X-ray diffraction and chemical analysis.
##URL=rruff.info/R060230
##MEASURED CHEMISTRY=(Mn^2+^_8.66_Mg_0.12_Fe^2+^_0.09_Fe^3+^_0.09_Ca_0.04_)_Σ=9_(Al_1.87_Cr_0.13_)_Σ=2_(Si_7.91_Al_0.09_)_Σ=8_O_24_(OH)_8_ ; OH estimated by difference and stoichiometry ; Fe2 and Fe3 by charge balance
164.3956, 539.2345
164.8777, 541.8362
165.3598, 543.8502
165.8420, 546.1308
166.3241, 548.7610
166.8062, 551.9595
167.2883, 555.9325
167.7704, 561.0135
168.2525, 566.5647
168.7346, 572.5906
169.2168, 578.9606
169.6989, 584.8643
170.1810, 590.5124
170.6631, 595.2238
171.1452, 598.1799
171.6273, 598.5320
172.1095, 597.4720
172.5916, 595.4395
173.0737, 592.5394
173.5558, 589.9724
174.0379, 588.6396
174.5201, 588.2103
175.0022, 588.1415
175.4843, 588.9362
175.9664, 589.6057
176.4485, 588.8525
176.9306, 586.7019
177.4128, 584.0499
177.8949, 581.2089
178.3770, 578.4286
178.8591, 576.2053
179.3412, 574.9141
179.8233, 574.2341
180.3055, 573.5936
180.7876, 572.9645
181.2697, 572.6926
181.7518, 573.2542
182.2339, 574.4825
182.7160, 575.8605
183.1982, 576.5615
183.6803, 577.3234
184.1624, 579.9990
184.6445, 584.7274
185.1266, 590.3964
185.6087, 596.1475
186.0909, 601.9371
186.5730, 607.2006
187.0551, 612.0215
187.5372, 616.1815
188.0193, 619.0344
188.5014, 620.4959
188.9836, 620.9054
189.4657, 621.1939
189.9478, 621.2042
190.4299, 619.1459
190.9120, 612.8826
191.3941, 603.3927
191.8763, 595.8420
192.3584, 590.4567
192.8405, 586.6717
193.3226, 583.6017
193.8047, 581.2610
194.2868, 579.8760
194.7690, 579.9418
195.2511, 581.3343
195.7332, 582.1149
196.2153, 581.9814
196.6974, 581.8391
197.1795, 583.4249
197.6617, 586.8738
198.1438, 590.4131
198.6259, 593.7535
199.1080, 596.8956
199.5901, 597.7191
200.0722, 595.6829
200.5544, 592.0858
201.0365, 589.2259
201.5186, 587.1599
202.0007, 585.3132
202.4828, 583.4563
202.9649, 581.5846
203.4471, 579.6744
203.9292, 577.6682
204.4113, 575.6474
204.8934, 573.6284
205.3755, 571.4930
205.8576, 569.8710
206.3398, 569.2191
206.8219, 569.7087
207.3040, 570.0215
207.7861, 570.1740
208.2682, 570.1078
208.7503, 569.7426
209.2325, 569.1500
209.7146, 568.0734
210.1967, 566.1905
210.6788, 563.2087
211.1609, 560.9388
211.6430, 559.6767
212.1252, 558.9306
212.6073, 557.5208
213.0894, 555.1535
213.5715, 552.9171
214.0536, 551.3500
214.5357, 550.6346
215.0179, 549.8445
215.5000, 548.7532
215.9821, 547.7148
216.4642, 547.6730
216.9463, 549.1175
217.4284, 550.4974
217.9105, 551.0438
218.3927, 550.3431
218.8748, 550.1827
219.3569, 550.7580
219.8390, 551.7596
220.3211, 552.4368
220.8032, 552.4128
221.2854, 552.7767
221.7675, 554.0051
222.2496, 556.2419
222.7317, 558.9098
223.2138, 562.3305
223.6959, 566.0130
224.1781, 568.9987
224.6602, 571.2115
225.1423, 572.8154
225.6244, 573.7381
226.1065, 573.6895
226.5886, 573.8467
227.0708, 574.1915
227.5529, 574.7499
228.0350, 575.6013
228.5171, 576.8889
228.9992, 578.2474
229.4813, 579.5397
229.9635, 580.7239
230.4456, 581.9978
230.9277, 583.5279
231.4098, 585.0564
231.8919, 585.9739
232.3740, 585.5228
232.8562, 585.6945
233.3383, 587.4109
233.8204, 591.4189
234.3025, 594.5258
234.7846, 596.4278
235.2667, 597.6091
235.7489, 598.8697
236.2310, 600.1718
236.7131, 601.6282
237.1952, 603.4852
237.6773, 606.1410
238.1594, 607.5695
238.6416, 607.1181
239.1237, 605.8456
239.6058, 605.5187
240.0879, 606.8237
240.5700, 607.9645
241.0521, 608.3500
241.5343, 607.8067
242.0164, 607.3147
242.4985, 607.2736
242.9806, 606.9989
243.4627, 605.2650
243.9448, 600.6667
244.4270, 597.0178
244.9091, 595.8954
245.3912, 598.1804
245.8733, 597.9828
246.3554, 593.9545
246.8375, 588.4998
247.3197, 584.8111
247.8018, 583.6871
248.2839, 582.9065
248.7660, 582.0538
249.2481, 581.1815
249.7302, 579.7010
250.2124, 576.9183
250.6945, 574.1716
251.1766, 573.1073
251.6587, 574.6895
252.1408, 576.0866
252.6229, 576.5647
253.1051, 576.0443
253.5872, 576.0048
254.0693, 576.8087
254.5514, 577.6974
255.0335, 577.7872
255.5156, 576.5377
255.9978, 575.6953
256.4799, 575.8333
256.9620, 576.9325
257.4441, 577.0671
257.9262, 575.7928
258.4083, 574.1180
258.8904, 572.9807
259.3726, 572.6053
259.8547, 572.1483
260.3368, 571.2973
260.8189, 570.1426
261.3010, 569.9254
261.7831, 571.1374
262.2653, 572.5104
262.7474, 572.9100
263.2295, 571.8279
263.7116, 571.2610
264.1937, 571.4919
264.6758, 572.4553
265.1580, 573.8906
265.6401, 576.0318
266.1222, 578.2022
266.6043, 579.8646
267.0864, 580.8287
267.5685, 582.0138
268.0507, 583.4789
268.5328, 585.2502
269.0149, 587.5753
269.4970, 590.8065
269.9791, 593.8254
270.4612, 595.8697
270.9434, 596.6246
271.4255, 597.9127
271.9076, 600.0888
272.3897, 602.7135
272.8718, 604.6268
273.3539, 605.6660
273.8361, 606.4957
274.3182, 607.6730
274.8003, 609.3814
275.2824, 609.8972
275.7645, 609.0143
276.2466, 607.0597
276.7288, 604.4044
277.2109, 600.8489
277.6930, 597.5886
278.1751, 595.3749
278.6572, 594.2601
279.1393, 592.9173
279.6215, 591.3288
280.1036, 589.5693
280.5857, 587.7309
281.0678, 585.8252
281.5499, 583.8669
282.0320, 581.7346
282.5142, 579.4804
282.9963, 578.1019
283.4784, 577.8371
283.9605, 577.7287
284.4426, 576.0859
284.9247, 572.8542
285.4069, 570.8696
285.8890, 571.5637
286.3711, 574.3117
286.8532, 576.0475
287.3353, 576.6572
287.8174, 576.8746
288.2996, 577.4410
288.7817, 578.3248
289.2638, 579.1415
289.7459, 579.8026
290.2280, 580.3234
290.7101, 580.6461
291.1923, 580.7507
291.6744, 581.0399
292.1565, 581.9391
292.6386, 583.3541
293.1207, 584.8398
293.6028, 586.3732
294.0850, 587.8333
294.5671, 589.1247
295.0492, 590.2318
295.5313, 591.0019
296.0134, 591.1571
296.4955, 590.8625
296.9777, 590.5283
297.4598, 590.1156
297.9419, 589.9118
298.4240, 590.5803
298.9061, 591.9537
299.3882, 593.1666
299.8704, 593.4866
300.3525, 593.3304
300.8346, 593.5446
301.3167, 594.2824
301.7988, 595.1521
302.2809, 595.9106
302.7631, 596.4976
303.2452, 596.7394
303.7273, 596.0760
304.2094, 595.2040
304.6915, 595.1599
305.1736, 596.0449
305.6558, 597.1658
306.1379, 597.7283
306.6200, 598.0986
307.1021, 598.9636
307.5842, 601.1074
308.0663, 603.5555
308.5485, 605.4389
309.0306, 606.7403
309.5127, 607.7800
309.9948, 608.4893
310.4769, 609.1406
310.9590, 610.0768
311.4412, 611.4274
311.9233, 613.0848
312.4054, 615.3615
312.8875, 618.0706
313.3696, 620.1374
313.8517, 620.7010
314.3339, 620.4877
314.8160, 620.0612
315.2981, 619.2835
315.7802, 618.7787
316.2623, 619.3300
316.7444, 620.4733
317.2266, 620.9504
317.7087, 619.9233
318.1908, 618.2825
318.6729, 616.5189
319.1550, 614.6520
319.6371, 612.8203
320.1193, 611.3697
320.6014, 609.9412
321.0835, 607.9219
321.5656, 604.3305
322.0477, 600.7969
322.5298, 597.8154
323.0120, 595.3604
323.4941, 593.7995
323.9762, 594.2341
324.4583, 595.2062
324.9404, 595.1425
325.4225, 592.3538
325.9047, 589.9434
326.3868, 588.6663
326.8689, 588.5408
327.3510, 589.0343
327.8331, 591.4326
328.3152, 593.6744
328.7974, 594.3286
329.2795, 591.3288
329.7616, 589.1742
330.2437, 588.5049
330.7258, 589.0663
331.2079, 589.4504
331.6901, 589.3821
332.1722, 589.3993
332.6543, 589.7815
333.1364, 590.8002
333.6185, 591.6511
334.1006, 592.2190
334.5828, 592.6304
335.0649, 593.1550
335.5470, 593.7453
336.0291, 594.5305
336.5112, 595.6437
336.9933, 597.2357
337.4755, 598.4115
337.9576, 599.1027
338.4397, 599.4519
338.9218, 599.5295
339.4039, 599.1560
339.8860, 599.2057
340.3681, 600.1603
340.8503, 601.9095
341.3324, 602.7003
341.8145, 602.3226
342.2966, 601.6135
342.7787, 601.2175
343.2608, 601.1317
343.7430, 601.5836
344.2251, 602.8444
344.7072, 604.5125
345.1893, 605.3239
345.6714, 605.2376
346.1535, 604.8864
346.6357, 604.3969
347.1178, 603.9045
347.5999, 604.3401
348.0820, 605.9786
348.5641, 608.1645
349.0462, 609.9874
349.5284, 611.4681
350.0105, 612.8464
350.4926, 613.9026
350.9747, 614.9891
351.4568, 617.3127
351.9389, 621.0814
352.4211, 624.4741
352.9032, 625.1218
353.3853, 623.8837
353.8674, 622.8297
354.3495, 622.7426
354.8316, 623.2817
355.3138, 624.1241
355.7959, 625.2673
356.2780, 626.6448
356.7601, 628.7600
357.2422, 630.9234
357.7243, 632.1805
358.2065, 631.7373
358.6886, 631.1349
359.1707, 631.7958
359.6528, 633.2309
360.1349, 633.9664
360.6170, 632.1263
361.0992, 630.0609
361.5813, 629.7020
362.0634, 631.9677
362.5455, 633.8007
363.0276, 634.3595
363.5097, 633.6325
363.9919, 631.6045
364.4740, 626.6309
364.9561, 621.8267
365.4382, 618.4543
365.9203, 616.6656
366.4024, 615.0981
366.8846, 613.5621
367.3667, 612.0821
367.8488, 610.6790
368.3309, 608.9910
368.8130, 607.7988
369.2951, 607.3382
369.7773, 607.5334
370.2594, 607.7985
370.7415, 608.0551
371.2236, 608.4696
371.7057, 609.1427
372.1878, 610.2825
372.6700, 611.2932
373.1521, 612.0854
373.6342, 612.7819
374.1163, 613.6329
374.5984, 614.7433
375.0805, 615.7715
375.5627, 616.5099
376.0448, 616.8945
376.5269, 617.7859
377.0090, 619.2637
377.4911, 621.1058
377.9732, 623.2256
378.4554, 625.6951
378.9375, 627.8490
379.4196, 629.4880
379.9017, 630.7433
380.3838, 632.0575
380.8659, 633.3879
381.3481, 635.0453
381.8302, 637.5023
382.3123, 640.6124
382.7944, 643.2040
383.2765, 645.0873
383.7586, 646.6628
384.2408, 648.3329
384.7229, 650.1570
385.2050, 652.5831
385.6871, 656.9083
386.1692, 661.6902
386.6513, 664.0161
387.1335, 663.7213
387.6156, 662.6597
388.0977, 662.2294
388.5798, 662.2447
389.0619, 662.3749
389.5440, 662.6015
390.0262, 662.7869
390.5083, 662.8942
390.9904, 662.8802
391.4725, 662.5583
391.9546, 661.5055
392.4367, 660.2641
392.9189, 659.4286
393.4010, 659.4926
393.8831, 658.9839
394.3652, 656.6090
394.8473, 653.2916
395.3294, 650.5334
395.8116, 649.7394
396.2937, 648.8445
396.7758, 646.7209
397.2579, 643.1238
397.7400, 640.2004
398.2221, 638.8895
398.7043, 638.1815
399.1864, 637.2632
399.6685, 635.9032
400.1506, 634.5073
400.6327, 633.2156
401.1148, 631.9487
401.5970, 630.2842
402.0791, 627.7477
402.5612, 625.3848
403.0433, 623.6810
403.5254, 622.8480
404.0075, 622.0206
404.4897, 620.7908
404.9718, 619.9392
405.4539, 621.0516
405.9360, 625.0847
406.4181, 628.1064
406.9002, 628.8678
407.3824, 627.5766
407.8645, 625.9966
408.3466, 623.9364
408.8287, 622.3005
409.3108, 622.1035
409.7929, 623.2750
410.2751, 624.3116
410.7572, 624.9254
411.2393, 625.3818
411.7214, 625.9857
412.2035, 626.7704
412.6856, 628.1131
413.1678, 630.6384
413.6499, 633.8106
414.1320, 636.7149
414.6141, 639.3920
415.0962, 641.1943
415.5783, 640.6352
416.0605, 638.8926
416.5426, 638.1940
417.0247, 640.0779
417.5068, 642.6750
417.9889, 644.3113
418.4710, 645.1950
418.9532, 646.3260
419.4353, 648.4988
419.9174, 650.9752
420.3995, 653.1201
420.8816, 654.7266
421.3637, 656.2731
421.8459, 657.8283
422.3280, 659.4410
422.8101, 661.2151
423.2922, 663.5308
423.7743, 665.6343
424.2564, 667.4329
424.7386, 668.9476
425.2207, 669.5781
425.7028, 668.7027
426.1849, 667.2993
426.6670, 665.9897
427.1491, 664.7567
427.6313, 663.7045
428.1134, 663.0671
428.5955, 662.5958
429.0776, 661.5497
429.5597, 659.6287
430.0418, 657.7109
430.5240, 655.9431
431.0061, 654.2619
431.4882, 653.9738
431.9703, 655.7386
432.4524, 657.4379
432.9345, 655.9681
433.4167, 651.2076
433.8988, 648.0242
434.3809, 647.9960
434.8630, 649.9120
435.3451, 650.9147
435.8272, 651.0289
436.3094, 651.0378
436.7915, 651.3387
437.2736, 651.9374
437.7557, 652.7386
438.2378, 653.6771
438.7199, 655.1904
439.2020, 658.1595
439.6841, 662.0155
440.1663, 665.5905
440.6484, 667.9095
441.1305, 670.1215
441.6126, 673.2051
442.0947, 677.0594
442.5768, 681.0066
443.0590, 684.5937
443.5411, 688.1818
444.0232, 692.0480
444.5053, 696.2725
444.9874, 700.7166
445.4695, 705.1113
445.9517, 709.6878
446.4338, 714.8710
446.9159, 720.5605
447.3980, 727.0632
447.8801, 734.7079
448.3622, 743.6256
448.8444, 752.0927
449.3265, 759.7280
449.8086, 767.2820
450.2907, 775.2232
450.7728, 783.6852
451.2549, 792.5178
451.7371, 802.1701
452.2192, 811.8422
452.7013, 819.7316
453.1834, 825.6766
453.6655, 830.2383
454.1476, 833.7197
454.6298, 836.0421
455.1119, 836.5635
455.5940, 835.3942
456.0761, 831.7894
456.5582, 824.5226
457.0403, 813.9901
457.5225, 802.0805
458.0046, 788.8693
458.4867, 775.4726
458.9688, 763.5897
459.4509, 753.0889
459.9330, 743.9427
460.4152, 736.7832
460.8973, 730.4906
461.3794, 723.4222
461.8615, 715.3592
462.3436, 708.4691
462.8257, 704.5819
463.3079, 702.4080
463.7900, 700.4786
464.2721, 698.1111
464.7542, 696.1979
465.2363, 695.2167
465.7184, 694.9781
466.2006, 694.9412
466.6827, 695.0468
467.1648, 695.2682
467.6469, 695.5341
468.1290, 695.7371
468.6111, 696.4211
469.0933, 697.6954
469.5754, 699.3912
470.0575, 701.4147
470.5396, 703.9568
471.0217, 706.4729
471.5038, 709.0966
471.9860, 711.6231
472.4681, 713.3530
472.9502, 714.1759
473.4323, 714.5743
473.9144, 714.9466
474.3965, 715.2593
474.8787, 714.3300
475.3608, 712.0652
475.8429, 709.0043
476.3250, 705.6503
476.8071, 702.0070
477.2892, 698.0340
477.7714, 693.5762
478.2535, 689.0667
478.7356, 685.2532
479.2177, 681.9890
479.6998, 678.7354
480.1819, 674.8337
480.6641, 670.9296
481.1462, 667.6942
481.6283, 665.1716
482.1104, 663.2455
482.5925, 662.2039
483.0746, 661.5856
483.5568, 660.9132
484.0389, 660.4239
484.5210, 659.4781
485.0031, 657.5963
485.4852, 655.0869
485.9673, 652.8479
486.4495, 650.5491
486.9316, 649.0059
487.4137, 648.6988
487.8958, 649.9886
488.3779, 650.6518
488.8600, 650.5004
489.3422, 649.9006
489.8243, 649.0881
490.3064, 647.9297
490.7885, 646.9991
491.2706, 646.3281
491.7527, 645.9538
492.2349, 646.2092
492.7170, 647.1890
493.1991, 647.6917
493.6812, 646.5774
494.1633, 644.4371
494.6454, 643.9141
495.1276, 645.0906
495.6097, 646.4885
496.0918, 646.8334
496.5739, 646.3934
497.0560, 645.6428
497.5381, 644.5053
498.0203, 643.4836
498.5024, 642.9843
498.9845, 642.9371
499.4666, 643.1727
499.9487, 643.7892
500.4308, 644.5255
500.9130, 645.2980
501.3951, 646.0953
501.8772, 646.7465
502.3593, 647.1854
502.8414, 647.4621
503.3235, 647.6011
503.8057, 647.2991
504.2878, 647.3102
504.7699, 647.8274
505.2520, 648.5977
505.7341, 649.2171
506.2162, 649.7011
506.6984, 649.9469
507.1805, 649.7151
507.6626, 649.1238
508.1447, 649.5538
508.6268, 651.2997
509.1089, 652.9434
509.5911, 653.1725
510.0732, 652.1642
510.5553, 652.0804
511.0374, 653.2560
511.5195, 654.7294
512.0016, 655.2327
512.4838, 655.0034
512.9659, 654.7917
513.4480, 654.6379
513.9301, 654.8591
514.4122, 656.2486
514.8943, 658.4850
515.3765, 660.1953
515.8586, 660.6124
516.3407, 660.1954
516.8228, 659.0206
517.3049, 656.8662
517.7870, 655.2530
518.2692, 655.7806
518.7513, 656.6008
519.2334, 655.9363
519.7155, 651.7283
520.1976, 648.1656
520.6797, 645.6757
521.1619, 644.1240
521.6440, 643.2125
522.1261, 643.1393
522.6082, 643.3840
523.0903, 643.8290
523.5724, 644.4826
524.0546, 645.0549
524.5367, 645.4608
525.0188, 646.0615
525.5009, 647.3707
525.9830, 649.3115
526.4651, 650.8123
526.9473, 651.6141
527.4294, 652.2599
527.9115, 653.3203
528.3936, 654.8273
528.8757, 656.9354
529.3578, 660.4648
529.8400, 664.1070
530.3221, 666.2076
530.8042, 666.9781
531.2863, 667.9561
531.7684, 670.1968
532.2505, 672.8225
532.7327, 675.1885
533.2148, 677.1708
533.6969, 678.9504
534.1790, 680.5559
534.6611, 681.9825
535.1432, 683.1989
535.6254, 684.5738
536.1075, 685.3025
536.5896, 685.2460
537.0717, 684.5027
537.5538, 683.4139
538.0359, 682.0511
538.5181, 680.1815
539.0002, 677.6522
539.4823, 674.4811
539.9644, 670.8524
540.4465, 666.6761
540.9286, 662.4979
541.4108, 658.7321
541.8929, 655.3547
542.3750, 652.4943
542.8571, 650.2670
543.3392, 648.2614
543.8214, 645.7769
544.3035, 643.1111
544.7856, 640.9084
545.2677, 640.3432
545.7498, 639.6380
546.2319, 636.9943
546.7141, 632.7993
547.1962, 629.4107
547.6783, 628.1171
548.1604, 627.6583
548.6425, 627.3350
549.1246, 627.0411
549.6068, 627.0031
550.0889, 627.7781
550.5710, 628.4891
551.0531, 628.2565
551.5352, 626.4670
552.0173, 625.0253
552.4995, 624.1324
552.9816, 623.7353
553.4637, 623.7726
553.9458, 624.2802
554.4279, 625.0189
554.9100, 626.2763
555.3922, 627.6762
555.8743, 627.4651
556.3564, 625.6468
556.8385, 623.5242
557.3206, 621.7943
557.8027, 620.5638
558.2849, 620.0804
558.7670, 620.4806
559.2491, 621.1467
559.7312, 621.8522
560.2133, 622.4578
560.6954, 622.7686
561.1776, 622.3573
561.6597, 622.0082
562.1418, 622.2111
562.6239, 622.7314
563.1060, 622.7220
563.5881, 621.2228
564.0703, 620.0289
564.5524, 619.8253
565.0345, 620.7258
565.5166, 621.1107
565.9987, 620.7526
566.4808, 620.2704
566.9630, 620.2723
567.4451, 620.8381
567.9272, 620.7128
568.4093, 619.6341
568.8914, 618.2921
569.3735, 617.5869
569.8557, 617.4648
570.3378, 617.6335
570.8199, 618.0348
571.3020, 618.6363
571.7841, 619.6842
572.2662, 620.9696
572.7484, 621.7205
573.2305, 621.0042
573.7126, 616.6990
574.1947, 618.8817
574.6768, 620.1074
575.1589, 620.4274
575.6411, 617.1295
576.1232, 618.5034
576.6053, 618.0050
577.0874, 617.4299
577.5695, 619.4614
578.0516, 616.6896
578.5338, 618.6797
579.0159, 618.7690
579.4980, 619.7283
579.9801, 619.3237
580.4622, 619.3785
580.9443, 619.9107
581.4265, 620.1891
581.9086, 620.2167
582.3907, 620.1597
582.8728, 620.1465
583.3549, 620.1110
583.8370, 619.8698
584.3192, 619.4264
584.8013, 618.9725
585.2834, 618.6414
585.7655, 618.3792
586.2476, 618.0873
586.7297, 617.6572
587.2118, 617.4484
587.6939, 617.8041
588.1760, 618.3931
588.6581, 618.7931
589.1403, 618.7161
589.6224, 618.6991
590.1045, 619.1022
590.5866, 619.6193
591.0687, 619.0535
591.5508, 616.6843
592.0330, 614.8925
592.5151, 614.8409
592.9972, 616.3301
593.4793, 616.9606
593.9614, 616.6570
594.4435, 616.0977
594.9257, 615.6000
595.4078, 615.2858
595.8899, 615.6921
596.3720, 617.0007
596.8541, 618.2103
597.3362, 618.1645
597.8184, 617.4694
598.3005, 617.0411
598.7826, 617.3484
599.2647, 617.7704
599.7468, 618.0070
600.2289, 618.1493
600.7111, 618.3997
601.1932, 619.0124
601.6753, 619.4971
602.1574, 619.5941
602.6395, 619.3422
603.1216, 619.4296
603.6038, 619.9612
604.0859, 620.6129
604.5680, 621.3984
605.0501, 622.3749
605.5322, 622.2563
606.0143, 620.8349
606.4965, 619.2225
606.9786, 618.4766
607.4607, 618.4838
607.9428, 618.9736
608.4249, 620.0565
608.9070, 621.1457
609.3892, 621.7023
609.8713, 621.8421
610.3534, 621.7854
610.8355, 621.5837
611.3176, 621.2553
611.7997, 620.6509
612.2819, 619.8952
612.7640, 619.4249
613.2461, 619.4147
613.7282, 619.6351
614.2103, 620.1940
614.6924, 621.1337
615.1746, 621.1872
615.6567, 619.8221
616.1388, 618.5670
616.6209, 618.6190
617.1030, 620.0277
617.5851, 621.1616
618.0673, 621.9818
618.5494, 622.3770
619.0315, 621.6969
619.5136, 620.4520
619.9957, 620.2634
620.4778, 622.0609
620.9600, 623.9648
621.4421, 623.8245
621.9242, 622.5068
622.4063, 621.7809
622.8884, 623.0932
623.3705, 624.3702
623.8527, 624.5659
624.3348, 623.8497
624.8169, 623.6061
625.2990, 624.3544
625.7811, 625.1764
626.2632, 625.7313
626.7454, 625.9921
627.2275, 626.3618
627.7096, 626.8597
628.1917, 627.4226
628.6738, 628.0574
629.1559, 628.7545
629.6381, 629.3282
630.1202, 629.7751
630.6023, 630.1029
631.0844, 630.2178
631.5665, 630.2427
632.0486, 630.4147
632.5308, 630.7582
633.0129, 631.3549
633.4950, 632.3757
633.9771, 633.6718
634.4592, 634.9750
634.9413, 636.0819
635.4235, 637.2936
635.9056, 638.7576
636.3877, 640.4274
636.8698, 642.0165
637.3519, 643.4230
637.8340, 644.8615
638.3162, 646.3539
638.7983, 647.9117
639.2804, 649.7078
639.7625, 651.7386
640.2446, 654.0518
640.7267, 656.8154
641.2089, 659.8989
641.6910, 662.6664
642.1731, 664.9853
642.6552, 667.5729
643.1373, 671.2134
643.6194, 675.4530
644.1016, 679.6661
644.5837, 683.4896
645.0658, 687.5720
645.5479, 692.2478
646.0300, 697.3099
646.5121, 702.2891
646.9943, 706.7111
647.4764, 711.6290
647.9585, 717.3621
648.4406, 723.6885
648.9227, 730.0787
649.4048, 736.5777
649.8870, 742.8474
650.3691, 748.6260
650.8512, 754.1215
651.3333, 760.5594
651.8154, 767.9004
652.2975, 775.6107
652.7797, 783.9706
653.2618, 792.2355
653.7439, 799.5311
654.2260, 805.7474
654.7081, 811.2194
655.1902, 816.0786
655.6724, 820.2354
656.1545, 823.6947
656.6366, 826.6119
657.1187, 828.4711
657.6008, 829.5114
658.0829, 829.2879
658.5651, 827.2006
659.0472, 822.9410
659.5293, 817.6149
660.0114, 811.2676
660.4935, 804.0281
660.9756, 795.8655
661.4578, 786.8914
661.9399, 778.0280
662.4220, 769.7413
662.9041, 761.6707
663.3862, 752.8412
663.8683, 743.5641
664.3505, 734.8908
664.8326, 727.4775
665.3147, 720.9229
665.7968, 715.2488
666.2789, 710.3793
666.7610, 705.4335
667.2432, 699.6946
667.7253, 694.2221
668.2074, 689.3923
668.6895, 685.0949
669.1716, 682.0980
669.6537, 680.8450
670.1359, 679.9903
670.6180, 678.5062
671.1001, 676.4080
671.5822, 673.6733
672.0643, 670.1823
672.5464, 666.5876
673.0286, 663.4521
673.5107, 660.8549
673.9928, 659.0007
674.4749, 658.2307
674.9570, 657.6475
675.4391, 656.5795
675.9213, 655.3076
676.4034, 654.2939
676.8855, 654.1119
677.3676, 653.7270
677.8497, 652.5462
678.3318, 651.0123
678.8140, 650.4731
679.2961, 651.4580
679.7782, 652.1761
680.2603, 651.9330
680.7424, 650.9772
681.2245, 650.3884
681.7067, 650.1693
682.1888, 650.1017
682.6709, 650.3711
683.1530, 650.5782
683.6351, 649.7714
684.1172, 648.0060
684.5994, 646.5465
685.0815, 646.6145
685.5636, 647.0296
686.0457, 646.7298
686.5278, 645.2120
687.0099, 644.4940
687.4921, 645.5242
687.9742, 647.0648
688.4563, 648.2933
688.9384, 649.1390
689.4205, 649.8818
689.9026, 650.5671
690.3848, 651.0752
690.8669, 651.2904
691.3490, 651.2002
691.8311, 650.5794
692.3132, 649.0990
692.7953, 647.7871
693.2775, 648.1963
693.7596, 649.6520
694.2417, 650.7867
694.7238, 650.8859
695.2059, 650.7043
695.6880, 650.4753
696.1702, 650.2217
696.6523, 649.9901
697.1344, 649.5643
697.6165, 649.4736
698.0986, 650.0472
698.5807, 651.0880
699.0629, 651.4001
699.5450, 650.8425
700.0271, 650.2353
700.5092, 650.0984
700.9913, 650.2086
701.4734, 649.6956
701.9556, 648.6027
702.4377, 647.5273
702.9198, 646.8351
703.4019, 646.4124
703.8840, 646.1406
704.3661, 646.0058
704.8483, 646.0585
705.3304, 646.5680
705.8125, 647.0937
706.2946, 647.2869
706.7767, 646.9036
707.2589, 646.8998
707.7410, 647.4093
708.2231, 648.1136
708.7052, 648.7684
709.1873, 649.3744
709.6694, 649.8254
710.1516, 650.0640
710.6337, 650.3264
711.1158, 651.0239
711.5979, 651.9540
712.0800, 652.6218
712.5621, 652.7570
713.0443, 652.9200
713.5264, 653.3331
714.0085, 654.0505
714.4906, 655.1630
714.9727, 657.1300
715.4548, 658.9547
715.9370, 660.5657
716.4191, 661.9313
716.9012, 663.0023
717.3833, 663.7425
717.8654, 664.2921
718.3475, 664.6489
718.8297, 664.8749
719.3118, 665.1484
719.7939, 665.4514
720.2760, 665.6807
720.7581, 665.7360
721.2402, 665.7119
721.7224, 665.8200
722.2045, 665.9713
722.6866, 665.7757
723.1687, 664.7287
723.6508, 663.6023
724.1329, 662.8624
724.6151, 662.5262
725.0972, 661.7011
725.5793, 660.0634
726.0614, 658.5018
726.5435, 657.6028
727.0256, 657.3314
727.5078, 656.4172
727.9899, 654.8047
728.4720, 653.2090
728.9541, 652.1525
729.4362, 651.5130
729.9183, 651.2040
730.4005, 651.2347
730.8826, 651.1613
731.3647, 650.5370
731.8468, 649.8019
732.3289, 649.3583
732.8110, 649.4785
733.2932, 649.3000
733.7753, 648.4854
734.2574, 647.6213
734.7395, 647.2383
735.2216, 647.4220
735.7037, 647.6680
736.1859, 648.0656
736.6680, 648.1583
737.1501, 646.9762
737.6322, 644.9864
738.1143, 643.8017
738.5964, 644.0309
739.0786, 644.3210
739.5607, 643.1555
740.0428, 641.4774
740.5249, 640.6011
741.0070, 641.6027
741.4891, 642.5569
741.9713, 643.4439
742.4534, 643.9559
742.9355, 643.4310
743.4176, 641.3301
743.8997, 639.8310
744.3818, 639.3282
744.8640, 639.6427
745.3461, 640.8180
745.8282, 642.6683
746.3103, 644.0052
746.7924, 644.4085
747.2745, 644.0552
747.7567, 642.6821
748.2388, 640.6791
748.7209, 639.0434
749.2030, 638.0449
749.6851, 637.5780
750.1672, 638.0609
750.6494, 639.1161
751.1315, 639.2371
751.6136, 637.8456
752.0957, 636.8815
752.5778, 637.2078
753.0599, 638.3593
753.5421, 638.3829
754.0242, 637.3467
754.5063, 636.3820
754.9884, 636.2266
755.4705, 636.4525
755.9526, 636.6016
756.4348, 636.6676
756.9169, 636.6508
757.3990, 636.2000
757.8811, 635.9748
758.3632, 636.5805
758.8453, 638.0215
759.3275, 638.4889
759.8096, 637.4092
760.2917, 636.3571
760.7738, 636.0865
761.2559, 636.5277
761.7380, 636.9946
762.2202, 637.4854
762.7023, 637.9940
763.1844, 638.7214
763.6665, 639.3770
764.1486, 639.5401
764.6307, 639.1928
765.1129, 638.5402
765.5950, 637.1407
766.0771, 635.9016
766.5592, 635.4728
767.0413, 636.0843
767.5234, 636.6163
768.0056, 637.0407
768.4877, 637.4327
768.9698, 637.9322
769.4519, 638.5347
769.9340, 638.5468
770.4161, 637.9020
770.8983, 637.3038
771.3804, 637.5387
771.8625, 638.1702
772.3446, 638.4882
772.8267, 638.3689
773.3088, 638.3235
773.7910, 638.5681
774.2731, 639.0121
774.7552, 639.6976
775.2373, 641.0428
775.7194, 641.3392
776.2015, 640.0476
776.6837, 638.4958
777.1658, 637.8016
777.6479, 637.9437
778.1300, 638.2410
778.6121, 638.6445
779.0942, 639.2130
779.5764, 640.2354
780.0585, 641.3859
780.5406, 642.1433
781.0227, 642.3262
781.5048, 642.4870
781.9869, 642.9982
782.4691, 643.5349
782.9512, 643.7809
783.4332, 643.5633
783.9153, 643.3721
784.3975, 643.1407
784.8796, 643.0365
785.3617, 643.2267
785.8438, 643.7041
786.3259, 644.6313
786.8080, 646.1789
787.2902, 647.3461
787.7723, 646.6063
788.2544, 644.9946
788.7365, 644.0270
789.2186, 644.2379
789.7007, 644.6023
790.1829, 644.6701
790.6650, 644.7707
791.1471, 645.2665
791.6292, 646.4471
792.1113, 647.2695
792.5934, 647.4088
793.0756, 647.7556
793.5577, 649.9496
794.0398, 653.5676
794.5219, 655.9841
795.0040, 656.6838
795.4861, 656.4794
795.9683, 655.7462
796.4504, 654.7706
796.9325, 653.9014
797.4146, 653.2038
797.8967, 652.6779
798.3788, 652.3551
798.8610, 652.1786
799.3431, 652.0458
799.8252, 651.8239
800.3073, 652.1368
800.7894, 653.1375
801.2715, 654.4020
801.7537, 655.4020
802.2358, 656.2033
802.7179, 657.1179
803.2000, 658.2825
803.6821, 659.2550
804.1642, 659.8315
804.6464, 659.9647
805.1285, 659.5438
805.6106, 657.6200
806.0927, 656.7498
806.5748, 657.7529
807.0569, 659.3313
807.5391, 660.1000
808.0212, 659.9277
808.5033, 660.0648
808.9854, 660.7561
809.4675, 661.3817
809.9496, 660.9302
810.4318, 659.8690
810.9139, 659.2552
811.3960, 659.4332
811.8781, 659.6849
812.3602, 659.5654
812.8423, 659.3187
813.3245, 659.2097
813.8066, 659.4449
814.2887, 659.5101
814.7708, 659.4131
815.2529, 659.1223
815.7350, 658.3546
816.2172, 657.1685
816.6993, 657.0146
817.1814, 658.2504
817.6635, 659.4539
818.1456, 658.9384
818.6277, 657.5409
819.1099, 656.4152
819.5920, 655.9208
820.0741, 655.4081
820.5562, 654.3121
821.0383, 653.3589
821.5204, 653.2089
822.0026, 654.2971
822.4847, 654.9596
822.9668, 655.1375
823.4489, 654.9828
823.9310, 654.4297
824.4131, 653.6521
824.8953, 653.4344
825.3774, 653.9428
825.8595, 654.1907
826.3416, 652.8060
826.8237, 651.1457
827.3058, 650.6318
827.7880, 652.0485
828.2701, 652.8441
828.7522, 652.3970
829.2343, 651.7090
829.7164, 651.4661
830.1985, 651.6998
830.6807, 652.2278
831.1628, 653.1074
831.6449, 653.8684
832.1270, 653.9418
832.6091, 653.6639
833.0912, 653.6007
833.5734, 653.8256
834.0555, 653.9516
834.5376, 653.3320
835.0197, 652.8910
835.5018, 653.3302
835.9839, 654.7626
836.4661, 656.1927
836.9482, 657.6342
837.4303, 659.0091
837.9124, 660.3454
838.3945, 661.5826
838.8766, 662.2961
839.3588, 662.5147
839.8409, 662.8142
840.3230, 663.5052
840.8051, 664.5575
841.2872, 666.0139
841.7693, 667.8787
842.2515, 669.8036
842.7336, 671.9200
843.2157, 673.8765
843.6978, 675.3281
844.1799, 676.3802
844.6620, 678.6705
845.1442, 682.2515
845.6263, 685.8771
846.1084, 688.7905
846.5905, 691.2764
847.0726, 693.6895
847.5547, 696.0554
848.0369, 698.4940
848.5190, 701.1092
849.0011, 703.7612
849.4832, 706.4631
849.9653, 709.1956
850.4474, 711.7444
850.9296, 714.0417
851.4117, 716.4464
851.8938, 719.1859
852.3759, 722.0472
852.8580, 724.6608
853.3401, 726.9387
853.8223, 728.3569
854.3044, 728.2832
854.7865, 727.6608
855.2686, 727.0641
855.7507, 726.4191
856.2328, 725.5286
856.7150, 724.7028
857.1971, 723.1086
857.6792, 720.4743
858.1613, 717.1439
858.6434, 713.6545
859.1255, 710.0488
859.6077, 706.8265
860.0898, 704.1774
860.5719, 701.9884
861.0540, 700.5615
861.5361, 699.4196
862.0182, 697.6966
862.5004, 694.1925
862.9825, 691.4498
863.4646, 691.0331
863.9467, 691.1251
864.4288, 689.6271
864.9109, 686.0309
865.3931, 683.4834
865.8752, 682.4366
866.3573, 681.8831
866.8394, 680.6552
867.3215, 678.9910
867.8036, 677.2613
868.2858, 675.4365
868.7679, 674.1446
869.2500, 674.3860
869.7321, 674.8812
870.2142, 674.4105
870.6964, 672.5386
871.1785, 671.1472
871.6606, 670.4071
872.1427, 669.7668
872.6248, 668.6959
873.1069, 667.3372
873.5891, 666.2723
874.0712, 665.5144
874.5533, 665.0834
875.0354, 665.4080
875.5175, 665.7382
875.9996, 665.3463
876.4818, 664.1442
876.9639, 663.2990
877.4460, 663.1720
877.9281, 662.9776
878.4102, 662.3463
878.8923, 661.3528
879.3745, 660.4225
879.8566, 659.5641
880.3387, 659.0064
880.8208, 658.9036
881.3029, 659.1569
881.7850, 660.0668
882.2672, 661.3156
882.7493, 661.8137
883.2314, 659.8044
883.7135, 658.8105
884.1956, 660.0394
884.6777, 662.6510
885.1599, 664.5427
885.6420, 665.7195
886.1241, 666.0430
886.6062, 665.1135
887.0883, 664.0259
887.5704, 664.2997
888.0526, 665.5123
888.5347, 666.8951
889.0168, 668.2374
889.4989, 669.6259
889.9810, 671.1859
890.4631, 672.7089
890.9453, 673.9747
891.4274, 674.9551
891.9095, 675.7050
892.3916, 676.1374
892.8737, 676.7078
893.3558, 678.1876
893.8380, 680.1545
894.3201, 681.7263
894.8022, 682.7567
895.2843, 683.6828
895.7664, 684.9690
896.2485, 686.0841
896.7307, 686.5681
897.2128, 686.3168
897.6949, 686.2374
898.1770, 686.4572
898.6591, 686.4384
899.1412, 685.6686
899.6234, 684.3933
900.1055, 683.2687
900.5876, 682.3026
901.0697, 681.4237
901.5518, 680.8244
902.0339, 680.1054
902.5161, 678.8053
902.9982, 677.0670
903.4803, 676.0236
903.9624, 675.8679
904.4445, 676.0089
904.9266, 676.3176
905.4088, 676.7601
905.8909, 677.3021
906.3730, 677.9127
906.8551, 678.4557
907.3372, 678.7549
907.8193, 679.1408
908.3015, 680.0994
908.7836, 681.2157
909.2657, 681.7443
909.7478, 681.0043
910.2299, 680.8909
910.7120, 681.9052
911.1942, 682.9614
911.6763, 682.3327
912.1584, 680.3995
912.6405, 679.2053
913.1226, 679.1389
913.6047, 679.2858
914.0869, 678.9326
914.5690, 678.4539
915.0511, 678.1593
915.5332, 678.0752
916.0153, 678.3500
916.4974, 679.2509
916.9796, 680.0494
917.4617, 680.1581
917.9438, 679.7261
918.4259, 679.9548
918.9080, 680.7855
919.3901, 681.5148
919.8723, 681.0554
920.3544, 680.8280
920.8365, 682.6243
921.3186, 685.9149
921.8007, 687.5229
922.2828, 685.5863
922.7650, 684.3867
923.2471, 685.2236
923.7292, 687.1895
924.2113, 688.1699
924.6934, 688.2117
925.1755, 687.5493
925.6577, 685.7814
926.1398, 684.3446
926.6219, 684.8434
927.1040, 686.3297
927.5861, 687.4724
928.0682, 687.6915
928.5504, 687.9544
929.0325, 688.2141
929.5146, 688.5856
929.9967, 689.2733
930.4788, 690.2144
930.9609, 690.8491
931.4431, 691.1127
931.9252, 691.6922
932.4073, 693.4822
932.8894, 695.5965
933.3715, 697.2578
933.8536, 698.3422
934.3358, 699.5927
934.8179, 701.2203
935.3000, 702.7614
935.7821, 703.9321
936.2642, 704.8926
936.7463, 706.1925
937.2285, 707.8627
937.7106, 710.0297
938.1927, 712.8545
938.6748, 716.1375
939.1569, 719.8193
939.6390, 723.8361
940.1212, 728.0689
940.6033, 732.9957
941.0854, 737.2590
941.5675, 740.4459
942.0496, 743.3067
942.5317, 746.7330
943.0139, 750.7653
943.4960, 755.6273
943.9781, 761.5473
944.4602, 767.5341
944.9423, 772.3743
945.4244, 777.2282
945.9066, 783.4017
946.3887, 791.6677
946.8708, 798.7956
947.3529, 804.5468
947.8350, 809.8283
948.3171, 815.6161
948.7993, 821.3629
949.2814, 825.0193
949.7635, 826.6650
950.2456, 826.9943
950.7277, 826.3474
951.2098, 824.5705
951.6920, 821.6360
952.1741, 817.4340
952.6562, 811.7672
953.1383, 804.2347
953.6204, 796.2844
954.1025, 787.9641
954.5847, 779.7800
955.0668, 772.5167
955.5489, 765.9542
956.0310, 759.4603
956.5131, 752.8386
956.9952, 746.5801
957.4774, 740.4774
957.9595, 735.2302
958.4416, 731.5251
958.9237, 729.7969
959.4058, 727.5242
959.8879, 724.6232
960.3701, 721.6649
960.8522, 718.9216
961.3343, 716.4805
961.8164, 714.7291
962.2985, 713.5580
962.7806, 712.3906
963.2628, 710.8389
963.7449, 709.3564
964.2270, 708.1242
964.7091, 707.0715
965.1912, 705.9885
965.6733, 704.8487
966.1555, 704.0323
966.6376, 703.8544
967.1197, 703.4980
967.6018, 701.3513
968.0839, 698.4474
968.5660, 696.5784
969.0482, 696.7571
969.5303, 696.7190
970.0124, 696.0404
970.4945, 694.9695
970.9766, 693.4424
971.4587, 691.4367
971.9409, 690.5134
972.4230, 690.7207
972.9051, 690.8202
973.3872, 689.5447
973.8693, 687.9407
974.3514, 687.1399
974.8336, 687.0413
975.3157, 686.6420
975.7978, 685.2432
976.2799, 684.3320
976.7620, 684.3547
977.2441, 684.9736
977.7263, 685.5607
978.2084, 686.0786
978.6905, 686.1929
979.1726, 685.5687
979.6547, 685.1963
980.1368, 686.3016
980.6190, 687.8171
981.1010, 688.4769
981.5831, 687.7331
982.0652, 687.3183
982.5474, 687.0750
983.0295, 687.5944
983.5116, 689.7490
983.9937, 692.9689
984.4758, 695.5910
984.9579, 697.6530
985.4401, 699.7268
985.9222, 701.9615
986.4043, 704.4260
986.8864, 707.3710
987.3685, 710.5495
987.8506, 713.1216
988.3328, 714.8669
988.8149, 717.3008
989.2970, 720.8423
989.7791, 725.0644
990.2612, 729.2632
990.7433, 733.7877
991.2255, 739.5808
991.7076, 747.8823
992.1897, 754.1641
992.6718, 755.8011
993.1539, 756.6443
993.6360, 758.7939
994.1182, 762.2420
994.6003, 767.1291
995.0824, 773.4600
995.5645, 779.0460
996.0466, 781.8251
996.5287, 783.9314
997.0109, 787.0649
997.4930, 791.0820
997.9751, 795.4177
998.4572, 800.0743
998.9393, 804.8395
999.4214, 809.4120
999.9036, 814.5380
1000.386, 822.0067
1000.868, 831.0098
1001.350, 838.8934
1001.832, 845.0671
1002.314, 850.1848
1002.796, 853.1751
1003.278, 856.2711
1003.760, 861.5724
1004.243, 869.3643
1004.725, 874.9586
1005.207, 878.0402
1005.689, 880.9382
1006.171, 885.0346
1006.653, 889.6854
1007.135, 894.5394
1007.617, 899.1669
1008.100, 902.5712
1008.582, 903.6130
1009.064, 904.3194
1009.546, 905.7350
1010.028, 906.4518
1010.510, 904.7846
1010.992, 900.7404
1011.474, 894.4195
1011.956, 885.7775
1012.439, 874.9982
1012.921, 861.0468
1013.403, 845.9083
1013.885, 831.1463
1014.367, 816.9473
1014.849, 803.0070
1015.331, 788.7972
1015.813, 776.2418
1016.296, 766.5358
1016.778, 758.6331
1017.260, 750.0499
1017.742, 741.2187
1018.224, 733.1423
1018.706, 725.8997
1019.188, 719.9726
1019.670, 716.3098
1020.152, 713.6695
1020.635, 710.8129
1021.117, 707.6408
1021.599, 704.6669
1022.081, 701.8680
1022.563, 699.3784
1023.045, 697.5683
1023.527, 695.9523
1024.009, 693.9377
1024.492, 691.5745
1024.974, 689.2903
1025.456, 686.9804
1025.938, 685.1212
1026.420, 683.8408
1026.902, 683.0765
1027.384, 683.0714
1027.866, 683.5502
1028.349, 683.2214
1028.831, 681.6005
1029.313, 680.0408
1029.795, 679.4763
1030.277, 679.2719
1030.759, 679.0163
1031.241, 678.7341
1031.723, 677.7731
1032.205, 676.0095
1032.688, 674.2884
1033.170, 673.0458
1033.652, 672.1568
1034.134, 671.3819
1034.616, 670.8191
1035.098, 670.6964
1035.580, 671.8337
1036.062, 672.3261
1036.544, 671.5754
1037.027, 670.5429
1037.509, 670.6315
1037.991, 671.5979
1038.473, 671.5861
1038.955, 670.4250
1039.437, 669.2806
1039.919, 669.1845
1040.401, 669.2303
1040.884, 668.6204
1041.366, 667.4859
1041.848, 667.1677
1042.330, 667.9882
1042.812, 668.1995
1043.294, 667.1106
1043.776, 665.5696
1044.258, 664.7672
1044.740, 664.3957
1045.223, 663.8336
1045.705, 662.5987
1046.187, 662.1609
1046.669, 663.3351
1047.151, 664.6595
1047.633, 665.1993
1048.115, 665.0408
1048.597, 664.6487
1049.079, 664.0897
1049.562, 664.0028
1050.044, 665.2469
1050.526, 666.5560
1051.008, 667.3690
1051.490, 667.5945
1051.972, 666.9929
1052.454, 665.1259
1052.936, 664.2428
1053.419, 664.7415
1053.901, 665.4803
1054.383, 665.2500
1054.865, 664.4805
1055.347, 663.5270
1055.829, 662.4598
1056.311, 662.1418
1056.793, 663.6516
1057.276, 664.8393
1057.758, 665.0323
1058.240, 664.5357
1058.722, 663.9641
1059.204, 663.4072
1059.686, 663.3580
1060.168, 664.3514
1060.650, 664.8108
1061.132, 663.0372
1061.615, 660.7990
1062.097, 659.6593
1062.579, 659.6830
1063.061, 660.6782
1063.543, 662.7789
1064.025, 664.3505
1064.507, 663.9149
1064.989, 662.6939
1065.471, 661.9697
1065.954, 661.6926
1066.436, 661.7263
1066.918, 662.4382
1067.400, 662.8450
1067.882, 662.7927
1068.364, 662.5886
1068.846, 662.7436
1069.328, 663.0275
1069.811, 662.4641
1070.293, 661.0359
1070.775, 660.1766
1071.257, 661.2589
1071.739, 662.4348
1072.221, 662.8741
1072.703, 662.7502
1073.185, 662.5920
1073.667, 662.4025
1074.150, 662.2211
1074.632, 662.1186
1075.114, 661.8344
1075.596, 660.4138
1076.078, 659.1140
1076.560, 659.5821
1077.042, 662.5543
1077.524, 664.2051
1078.006, 664.3083
1078.489, 663.8806
1078.971, 663.2270
1079.453, 662.5757
1079.935, 662.4796
1080.417, 662.7457
1080.899, 662.9082
1081.381, 662.6917
1081.863, 662.4873
1082.345, 662.2216
1082.828, 662.1400
1083.310, 662.6533
1083.792, 663.6271
1084.274, 664.0632
1084.756, 663.9575
1085.238, 663.7751
1085.720, 663.5428
1086.202, 663.5853
1086.685, 664.4432
1087.167, 665.6329
1087.649, 665.8690
1088.131, 664.9899
1088.613, 664.6896
1089.095, 665.2831
1089.577, 666.3021
1090.059, 667.7726
1090.542, 669.0767
1091.024, 669.3928
1091.506, 668.5659
1091.988, 668.1049
1092.470, 668.3705
1092.952, 668.1658
1093.434, 666.7543
1093.916, 665.0691
1094.398, 665.2252
1094.880, 666.4661
1095.363, 667.0452
1095.845, 666.1368
1096.327, 665.4994
1096.809, 665.6290
1097.291, 666.0559
1097.773, 666.7292
1098.255, 667.5078
1098.737, 667.0437
1099.220, 665.5526
1099.702, 664.3701
1100.184, 664.4150
1100.666, 664.7426
1101.148, 665.1124
1101.630, 665.3751
1102.112, 665.3378
1102.594, 664.9971
1103.077, 664.3136
1103.559, 663.2371
1104.041, 662.5713
1104.523, 663.2991
1105.005, 664.4771
1105.487, 665.5107
1105.969, 666.2518
1106.451, 666.1335
1106.933, 664.7918
1107.416, 663.5270
1107.898, 662.4089
1108.380, 661.8302
1108.862, 662.8674
1109.344, 664.5353
1109.826, 665.0781
1110.308, 664.1564
1110.790, 663.6185
1111.272, 664.0836
1111.755, 664.7825
1112.237, 665.7210
1112.719, 666.5148
1113.201, 665.6901
1113.683, 663.8528
1114.165, 663.0692
1114.647, 664.3368
1115.129, 665.5192
1115.612, 665.4211
1116.094, 665.1046
1116.576, 665.2217
1117.058, 665.7582
1117.540, 666.7126
1118.022, 668.0135
1118.504, 668.8135
1118.986, 668.2606
1119.469, 667.5695
1119.951, 667.6304
1120.433, 668.0173
1120.915, 668.1117
1121.397, 667.8372
1121.879, 667.4531
1122.361, 666.9244
1122.843, 666.7074
1123.325, 667.5865
1123.807, 668.6336
1124.290, 668.6631
1124.772, 668.0056
1125.254, 667.9631
1125.736, 669.2908
1126.218, 669.4169
1126.700, 667.5281
1127.182, 666.0330
1127.664, 668.8821
1128.147, 673.4844
1128.629, 675.2380
1129.111, 673.9425
1129.593, 672.5696
1130.075, 671.5077
1130.557, 671.1674
1131.039, 671.9805
1131.521, 673.1182
1132.004, 673.0331
1132.486, 671.9783
1132.968, 670.4547
1133.450, 668.4144
1133.932, 667.0518
1134.414, 667.3844
1134.896, 668.0399
1135.378, 668.4874
1135.860, 668.7059
1136.343, 668.2708
1136.825, 667.3948
1137.307, 667.6055
1137.789, 670.1895
1138.271, 671.9491
1138.753, 669.6714
1139.235, 666.5988
1139.717, 665.7078
1140.199, 667.0177
1140.682, 667.8331
1141.164, 668.1437
1141.646, 668.1055
1142.128, 667.5167
1142.610, 666.9588
1143.092, 667.1888
1143.574, 667.6436
1144.056, 667.3858
1144.539, 665.9800
1145.021, 665.4859
1145.503, 666.0109
1145.985, 666.7892
1146.467, 667.3670
1146.949, 667.8040
1147.431, 668.1534
1147.913, 668.4149
1148.396, 668.5818
1148.878, 668.6955
1149.360, 668.6046
1149.842, 668.2718
1150.324, 667.7807
1150.806, 666.8455
1151.288, 666.0206
1151.770, 666.4513
1152.252, 667.9645
1152.734, 668.8669
1153.217, 668.5276
1153.699, 667.9138
1154.181, 666.9632
1154.663, 666.2587
1155.145, 667.0733
1155.627, 668.6270
1156.109, 669.2960
1156.591, 668.8666
1157.074, 668.0546
1157.556, 666.6292
1158.038, 665.4179
1158.520, 664.5828
1159.002, 664.1589
1159.484, 664.5011
1159.966, 665.3153
1160.448, 665.6827
1160.931, 665.3573
1161.413, 664.8419
1161.895, 664.0175
1162.377, 663.4739
1162.859, 663.5901
1163.341, 664.1562
1163.823, 664.2626
1164.305, 664.0345
1164.787, 664.1389
1165.270, 665.0311
1165.752, 665.6612
1166.234, 664.7949
1166.716, 664.1044
1167.198, 665.0678
1167.680, 667.4750
1168.162, 668.0980
1168.644, 667.1357
1169.126, 666.3807
1169.609, 666.9694
1170.091, 667.5129
1170.573, 666.8942
1171.055, 665.9999
1171.537, 665.8050
1172.019, 666.3655
1172.501, 666.9766
1172.983, 667.6178
1173.466, 668.0039
1173.948, 667.6898
1174.430, 667.3161
1174.912, 667.2761
1175.394, 667.4912
1175.876, 667.8553
1176.358, 668.4349
1176.840, 668.6718
1177.323, 668.5380
1177.805, 668.2999
1178.287, 668.0778
1178.769, 667.9225
1179.251, 667.9711
1179.733, 668.1132
1180.215, 668.0365
1180.697, 667.6654
1181.179, 667.5178
1181.661, 667.6859
1182.144, 667.7222
1182.626, 667.0486
1183.108, 666.1825
1183.590, 665.5636
1184.072, 665.2129
1184.554, 665.0635
1185.036, 665.1171
1185.518, 665.3425
1186.001, 665.7668
1186.483, 666.1876
1186.965, 666.3185
1187.447, 666.3725
1187.929, 666.6097
1188.411, 667.0240
1188.893, 667.3949
1189.375, 667.8763
1189.858, 667.6264
1190.340, 666.2388
1190.822, 664.8369
1191.304, 664.6627
1191.786, 665.3470
1192.268, 666.8265
1192.750, 669.0949
1193.232, 669.9979
1193.714, 669.0345
1194.197, 668.0729
1194.679, 667.5537
1195.161, 667.5421
1195.643, 668.6537
1196.125, 670.0607
1196.607, 670.5513
1197.089, 669.7981
1197.571, 669.1107
1198.053, 668.4702
1198.536, 668.1932
1199.018, 668.5509
1199.500, 669.0264
1199.982, 668.6371
1200.464, 667.9125
1200.946, 667.7473
1201.428, 668.5731
1201.910, 668.8425
1202.393, 668.3405
1202.875, 667.8299
1203.357, 667.6898
1203.839, 667.7211
1204.321, 667.4395
1204.803, 667.1409
1205.285, 667.4083
1205.767, 668.7689
1206.250, 669.4216
1206.732, 669.1055
1207.214, 668.7094
1207.696, 668.7514
1208.178, 668.9787
1208.660, 668.9926
1209.142, 668.8477
1209.624, 668.6490
1210.106, 668.3624
1210.589, 668.0812
1211.071, 667.6749
1211.553, 667.6951
1212.035, 668.8669
1212.517, 670.4158
1212.999, 671.0859
1213.481, 671.1406
1213.963, 671.1423
1214.445, 671.3538
1214.928, 671.2912
1215.410, 670.8928
1215.892, 670.4382
1216.374, 670.0795
1216.856, 669.8343
1217.338, 669.7894
1217.820, 669.8680
1218.302, 669.8792
1218.785, 669.5646
1219.267, 669.6247
1219.749, 670.1669
1220.231, 670.7368
1220.713, 670.8294
1221.195, 670.8185
1221.677, 671.5040
1222.159, 672.5417
1222.641, 672.8745
1223.124, 671.9423
1223.606, 671.1725
1224.088, 670.5785
1224.570, 670.3929
1225.052, 671.3958
1225.534, 672.5228
1226.016, 671.8596
1226.498, 672.5979
1226.980, 673.0154
1227.463, 672.3020
1227.945, 673.3211
1228.427, 672.3271
1228.909, 670.9706
1229.391, 670.7919
1229.873, 671.0801
1230.355, 671.1059
1230.837, 670.8742
1231.320, 670.5264
1231.802, 670.0148
1232.284, 669.5980
1232.766, 669.2855
1233.248, 669.2184
1233.730, 669.9023
1234.212, 670.6180
1234.694, 670.5325
1235.177, 669.8237
1235.659, 669.3117
1236.141, 669.0358
1236.623, 668.8994
1237.105, 668.8619
1237.587, 669.2464
1238.069, 671.1415
1238.551, 672.9040
1239.033, 672.3785
1239.516, 670.4037
1239.998, 670.6077
1240.480, 673.3288
1240.962, 675.2774
1241.444, 675.9881
1241.926, 675.9236
1242.408, 674.7088
1242.890, 673.5828
1243.372, 673.7181
1243.855, 674.6862
1244.337, 675.1531
1244.819, 675.0977
1245.301, 675.1625
1245.783, 675.4536
1246.265, 675.8216
1246.747, 676.6837
1247.229, 677.0938
1247.712, 676.0345
1248.194, 674.2127
1248.676, 673.1766
1249.158, 672.8989
1249.640, 672.8160
1250.122, 672.8538
1250.604, 672.9883
1251.086, 672.8820
1251.568, 673.2693
1252.051, 674.9937
1252.533, 677.1218
1253.015, 677.3696
1253.497, 676.0632
1253.979, 674.8209
1254.461, 673.8693
1254.943, 673.5569
1255.425, 674.6950
1255.907, 675.7623
1256.390, 676.1705
1256.872, 676.1357
1257.354, 675.8966
1257.836, 675.5938
1258.318, 675.8048
1258.800, 676.6326
1259.282, 677.2815
1259.764, 677.3857
1260.247, 677.2587
1260.729, 676.8105
1261.211, 676.4711
1261.693, 677.5224
1262.175, 679.0980
1262.657, 678.9452
1263.139, 676.7440
1263.621, 675.4656
1264.104, 676.4026
1264.586, 677.0983
1265.068, 676.8858
1265.550, 676.3532
1266.032, 676.2214
1266.514, 676.4244
1266.996, 677.0757
1267.478, 678.1443
1267.960, 678.4117
1268.443, 677.4094
1268.925, 676.9178
1269.407, 677.4752
1269.889, 678.2842
1270.371, 678.3818
1270.853, 678.1926
1271.335, 677.8824
1271.817, 677.6371
1272.299, 679.1545
1272.782, 682.9922
1273.264, 684.9476
1273.746, 683.8737
1274.228, 681.8743
1274.710, 680.4110
1275.192, 679.3995
1275.674, 678.8617
1276.156, 678.7103
1276.639, 678.6479
1277.121, 678.6746
1277.603, 678.8112
1278.085, 679.0681
1278.567, 679.3707
1279.049, 679.8224
1279.531, 680.1369
1280.013, 680.1456
1280.495, 679.8965
1280.978, 679.2488
1281.460, 678.3604
1281.942, 678.3677
1282.424, 679.4905
1282.906, 680.6168
1283.388, 681.5203
1283.870, 681.7829
1284.352, 681.0787
1284.834, 679.9309
1285.317, 679.2794
1285.799, 679.0555
1286.281, 679.2662
1286.763, 679.8992
1287.245, 680.0925
1287.727, 679.0115
1288.209, 678.2665
1288.691, 678.0858
1289.173, 678.6732
1289.656, 681.2153
1290.138, 684.2880
1290.620, 685.5126
1291.102, 684.7408
1291.584, 683.4672
1292.066, 681.6413
1292.548, 680.1113
1293.030, 678.9841
1293.513, 678.3440
1293.995, 678.4338
1294.477, 678.9518
1294.959, 679.6741
1295.441, 680.5497
1295.923, 681.4927
1296.405, 682.5984
1296.887, 682.7568
1297.370, 681.7112
1297.852, 680.7996
1298.334, 681.3857
1298.816, 682.3582
1299.298, 682.7470
1299.780, 682.7719
1300.262, 683.6689
1300.744, 685.2883
1301.226, 685.2582
1301.708, 683.3846
1302.191, 682.9155
1302.673, 688.4710
1303.155, 692.0606
1303.637, 691.3980
1304.119, 686.1923
##END=



