##NAMES=Alleghanyite
##RRUFFID=R070378
##IDEAL CHEMISTRY=Mn^2+^_5_(SiO_4_)_2_(OH)_2_
##LOCALITY=Franklin, Sussex County, New Jersey, USA
##OWNER=RRUFF
##SOURCE=William W. Pinch
##DESCRIPTION=Pinkish-brown massive, exposed by etching
##STATUS=The identification of this mineral is confirmed by single-crystal X-ray diffraction and chemical analysis.
##URL=rruff.info/R070378
##MEASURED CHEMISTRY=(Mn^2+^_4.43_Mg_0.57_)_Î£=5_(Si_1.00_O_4_)_2_(OH)_2_; OH estimated by difference and charge balance
148.0179, 2302.855
148.5001, 2363.878
148.9822, 2419.679
149.4643, 2472.420
149.9464, 2521.975
150.4285, 2560.305
150.9106, 2577.096
151.3928, 2573.903
151.8749, 2576.603
152.3570, 2589.509
152.8391, 2607.140
153.3212, 2626.803
153.8033, 2648.467
154.2855, 2666.546
154.7676, 2674.180
155.2497, 2673.828
155.7318, 2676.072
156.2139, 2683.978
156.6960, 2694.566
157.1782, 2703.017
157.6603, 2708.173
158.1424, 2717.458
158.6245, 2741.633
159.1066, 2774.849
159.5887, 2802.884
160.0709, 2813.880
160.5530, 2820.707
161.0351, 2844.023
161.5172, 2887.948
161.9993, 2934.202
162.4814, 2968.184
162.9636, 2995.027
163.4457, 3024.515
163.9278, 3066.119
164.4099, 3110.542
164.8920, 3137.502
165.3741, 3140.239
165.8563, 3144.344
166.3384, 3167.354
166.8205, 3202.291
167.3026, 3238.633
167.7847, 3274.936
168.2668, 3309.209
168.7490, 3337.032
169.2311, 3357.518
169.7132, 3373.411
170.1953, 3386.375
170.6774, 3396.252
171.1595, 3402.109
171.6417, 3401.784
172.1238, 3397.880
172.6059, 3396.728
173.0880, 3398.563
173.5701, 3402.978
174.0522, 3413.056
174.5344, 3424.725
175.0165, 3431.080
175.4986, 3425.731
175.9807, 3414.790
176.4628, 3416.830
176.9449, 3441.108
177.4271, 3461.365
177.9092, 3464.716
178.3913, 3459.231
178.8734, 3455.869
179.3555, 3460.623
179.8376, 3470.329
180.3197, 3475.842
180.8019, 3476.472
181.2840, 3473.590
181.7661, 3464.311
182.2482, 3453.391
182.7303, 3446.962
183.2124, 3448.395
183.6946, 3455.532
184.1767, 3462.763
184.6588, 3471.757
185.1409, 3477.540
185.6230, 3475.662
186.1051, 3471.493
186.5873, 3471.682
187.0694, 3479.849
187.5515, 3492.633
188.0336, 3501.554
188.5157, 3506.264
188.9978, 3506.936
189.4800, 3501.733
189.9621, 3494.074
190.4442, 3486.857
190.9263, 3481.244
191.4084, 3477.762
191.8905, 3478.633
192.3727, 3489.556
192.8548, 3494.337
193.3369, 3484.299
193.8190, 3470.664
194.3011, 3465.049
194.7832, 3472.157
195.2654, 3486.089
195.7475, 3493.393
196.2296, 3487.421
196.7117, 3487.587
197.1938, 3501.380
197.6759, 3518.609
198.1581, 3530.522
198.6402, 3534.202
199.1223, 3532.693
199.6044, 3531.545
200.0865, 3531.591
200.5686, 3530.213
201.0508, 3524.205
201.5329, 3518.723
202.0150, 3519.296
202.4971, 3526.972
202.9792, 3536.304
203.4613, 3537.579
203.9435, 3524.614
204.4256, 3517.604
204.9077, 3521.042
205.3898, 3527.253
205.8719, 3532.933
206.3540, 3536.621
206.8362, 3536.425
207.3183, 3527.853
207.8004, 3503.980
208.2825, 3489.923
208.7646, 3492.954
209.2467, 3498.996
209.7289, 3500.764
210.2110, 3497.058
210.6931, 3490.335
211.1752, 3481.911
211.6573, 3468.710
212.1395, 3465.771
212.6216, 3481.082
213.1037, 3499.025
213.5858, 3513.486
214.0679, 3523.558
214.5500, 3530.741
215.0322, 3536.513
215.5143, 3541.058
215.9964, 3542.686
216.4785, 3539.390
216.9606, 3535.097
217.4427, 3529.773
217.9249, 3524.476
218.4070, 3521.268
218.8891, 3522.043
219.3712, 3526.891
219.8533, 3532.474
220.3354, 3536.366
220.8176, 3543.529
221.2997, 3562.424
221.7818, 3585.637
222.2639, 3597.203
222.7460, 3583.080
223.2281, 3547.170
223.7103, 3532.994
224.1924, 3568.502
224.6745, 3596.411
225.1566, 3600.020
225.6387, 3589.560
226.1208, 3581.204
226.6030, 3584.532
227.0851, 3596.318
227.5672, 3602.703
228.0493, 3596.604
228.5314, 3594.679
229.0135, 3604.090
229.4957, 3617.317
229.9778, 3625.033
230.4599, 3622.877
230.9420, 3615.279
231.4241, 3613.319
231.9062, 3620.518
232.3884, 3627.680
232.8705, 3634.630
233.3526, 3640.479
233.8347, 3644.111
234.3168, 3645.213
234.7989, 3645.186
235.2811, 3646.092
235.7632, 3647.236
236.2453, 3651.193
236.7274, 3663.810
237.2095, 3675.141
237.6916, 3675.934
238.1738, 3665.585
238.6559, 3653.957
239.1380, 3654.824
239.6201, 3673.110
240.1022, 3685.637
240.5843, 3689.283
241.0665, 3688.915
241.5486, 3682.413
242.0307, 3672.297
242.5128, 3667.253
242.9949, 3678.008
243.4770, 3706.376
243.9592, 3729.195
244.4413, 3750.902
244.9234, 3761.837
245.4055, 3752.137
245.8876, 3727.886
246.3697, 3703.946
246.8519, 3689.452
247.3340, 3684.239
247.8161, 3688.363
248.2982, 3711.519
248.7803, 3731.233
249.2624, 3738.386
249.7446, 3737.556
250.2267, 3736.034
250.7088, 3737.384
251.1909, 3740.955
251.6730, 3746.124
252.1551, 3757.346
252.6373, 3760.603
253.1194, 3740.343
253.6015, 3715.188
254.0836, 3707.671
254.5657, 3728.374
255.0478, 3760.014
255.5300, 3772.790
256.0121, 3759.899
256.4942, 3753.906
256.9763, 3772.564
257.4584, 3796.879
257.9406, 3813.829
258.4227, 3820.618
258.9048, 3822.161
259.3869, 3820.789
259.8690, 3816.092
260.3511, 3818.990
260.8333, 3841.273
261.3154, 3863.169
261.7975, 3868.206
262.2796, 3856.832
262.7617, 3845.323
263.2438, 3848.033
263.7260, 3861.811
264.2081, 3867.571
264.6902, 3859.670
265.1723, 3849.009
265.6544, 3841.968
266.1365, 3838.457
266.6187, 3838.769
267.1008, 3845.772
267.5829, 3856.198
268.0650, 3863.786
268.5471, 3868.809
269.0292, 3869.622
269.5114, 3857.811
269.9935, 3841.507
270.4756, 3835.871
270.9577, 3852.253
271.4398, 3874.791
271.9219, 3886.298
272.4041, 3886.588
272.8862, 3881.769
273.3683, 3871.347
273.8504, 3859.260
274.3325, 3852.819
274.8146, 3853.726
275.2968, 3857.823
275.7789, 3865.163
276.2610, 3874.190
276.7431, 3877.351
277.2252, 3869.109
277.7073, 3857.742
278.1895, 3857.240
278.6716, 3868.549
279.1537, 3882.654
279.6358, 3902.131
280.1179, 3921.010
280.6000, 3926.755
281.0822, 3915.320
281.5643, 3898.728
282.0464, 3890.449
282.5285, 3890.939
283.0106, 3894.410
283.4927, 3900.288
283.9749, 3908.876
284.4570, 3922.014
284.9391, 3939.333
285.4212, 3956.150
285.9033, 3968.581
286.3854, 3976.536
286.8676, 3984.353
287.3497, 3995.284
287.8318, 4003.001
288.3139, 4001.147
288.7960, 3993.258
289.2781, 3988.462
289.7603, 3991.746
290.2424, 4002.032
290.7245, 4015.050
291.2066, 4029.897
291.6887, 4048.327
292.1708, 4079.018
292.6530, 4110.471
293.1351, 4126.316
293.6172, 4121.050
294.0993, 4105.143
294.5814, 4097.014
295.0635, 4101.079
295.5457, 4105.235
296.0278, 4106.322
296.5099, 4109.691
296.9920, 4121.201
297.4741, 4140.208
297.9562, 4159.495
298.4384, 4171.038
298.9205, 4173.030
299.4026, 4180.066
299.8847, 4196.457
300.3668, 4213.407
300.8489, 4230.168
301.3311, 4245.150
301.8131, 4255.290
302.2953, 4257.846
302.7774, 4254.762
303.2595, 4255.854
303.7416, 4261.613
304.2237, 4271.438
304.7058, 4288.079
305.1880, 4306.962
305.6701, 4324.462
306.1522, 4339.385
306.6343, 4349.538
307.1164, 4347.792
307.5985, 4327.803
308.0807, 4319.699
308.5628, 4347.500
309.0449, 4375.815
309.5270, 4380.759
310.0091, 4361.350
310.4912, 4337.305
310.9734, 4325.338
311.4555, 4324.366
311.9376, 4323.022
312.4197, 4320.916
312.9018, 4317.797
313.3839, 4311.298
313.8661, 4303.523
314.3482, 4300.458
314.8303, 4312.301
315.3124, 4327.214
315.7945, 4320.815
316.2766, 4289.291
316.7588, 4258.664
317.2409, 4240.369
317.7230, 4233.304
318.2051, 4237.177
318.6872, 4258.819
319.1693, 4279.356
319.6515, 4281.521
320.1336, 4269.385
320.6157, 4261.815
321.0978, 4266.559
321.5799, 4276.432
322.0620, 4280.971
322.5442, 4280.787
323.0263, 4275.105
323.5084, 4255.963
323.9905, 4234.444
324.4726, 4226.981
324.9547, 4236.236
325.4369, 4249.106
325.9190, 4252.594
326.4011, 4245.475
326.8832, 4244.126
327.3653, 4252.018
327.8474, 4262.220
328.3296, 4272.643
328.8117, 4282.349
329.2938, 4289.030
329.7759, 4290.926
330.2580, 4289.546
330.7401, 4291.671
331.2223, 4310.170
331.7044, 4316.138
332.1865, 4291.175
332.6686, 4259.247
333.1507, 4248.813
333.6328, 4267.616
334.1150, 4298.271
334.5971, 4315.146
335.0792, 4313.403
335.5613, 4310.262
336.0434, 4301.646
336.5255, 4295.355
337.0077, 4295.420
337.4898, 4301.534
337.9719, 4311.906
338.4540, 4326.877
338.9361, 4345.087
339.4182, 4353.491
339.9004, 4343.661
340.3825, 4336.207
340.8646, 4334.584
341.3467, 4339.366
341.8288, 4353.383
342.3109, 4379.346
342.7931, 4407.110
343.2752, 4421.464
343.7573, 4421.220
344.2394, 4415.160
344.7215, 4392.401
345.2036, 4375.408
345.6858, 4388.910
346.1679, 4432.856
346.6500, 4469.825
347.1321, 4467.528
347.6142, 4440.379
348.0963, 4428.453
348.5785, 4437.561
349.0606, 4456.078
349.5427, 4480.612
350.0248, 4508.042
350.5069, 4528.278
350.9890, 4541.136
351.4712, 4544.975
351.9533, 4530.612
352.4354, 4502.799
352.9175, 4485.801
353.3996, 4490.872
353.8817, 4513.979
354.3639, 4550.069
354.8460, 4618.733
355.3281, 4657.990
355.8102, 4633.581
356.2923, 4581.686
356.7744, 4541.235
357.2566, 4521.246
357.7387, 4517.177
358.2208, 4526.979
358.7029, 4556.655
359.1850, 4565.247
359.6671, 4533.937
360.1493, 4503.516
360.6314, 4493.931
361.1135, 4499.522
361.5956, 4504.493
362.0777, 4499.050
362.5598, 4487.835
363.0420, 4488.828
363.5241, 4516.007
364.0062, 4532.762
364.4883, 4528.097
364.9704, 4516.663
365.4525, 4512.965
365.9347, 4519.129
366.4168, 4522.819
366.8989, 4504.058
367.3810, 4460.115
367.8631, 4438.835
368.3452, 4462.790
368.8274, 4485.059
369.3095, 4472.434
369.7916, 4439.712
370.2737, 4423.661
370.7558, 4449.319
371.2379, 4494.989
371.7201, 4525.533
372.2022, 4540.140
372.6843, 4546.920
373.1664, 4546.589
373.6485, 4541.340
374.1306, 4534.480
374.6128, 4525.393
375.0949, 4517.262
375.5770, 4510.876
376.0591, 4506.808
376.5412, 4506.373
377.0233, 4509.916
377.5055, 4516.776
377.9876, 4528.188
378.4697, 4544.842
378.9518, 4553.301
379.4339, 4541.123
379.9160, 4531.727
380.3982, 4544.539
380.8803, 4572.297
381.3624, 4593.625
381.8445, 4596.807
382.3266, 4586.273
382.8087, 4575.149
383.2909, 4556.224
383.7730, 4546.966
384.2551, 4552.525
384.7372, 4564.597
385.2193, 4580.025
385.7014, 4596.253
386.1836, 4606.960
386.6657, 4603.066
387.1478, 4583.298
387.6299, 4574.086
388.1120, 4587.062
388.5941, 4597.389
389.0763, 4593.101
389.5584, 4581.863
390.0405, 4576.866
390.5226, 4585.115
391.0047, 4597.751
391.4868, 4600.067
391.9690, 4590.940
392.4511, 4582.362
392.9332, 4580.352
393.4153, 4577.226
393.8974, 4563.375
394.3795, 4538.902
394.8617, 4519.021
395.3438, 4514.491
395.8259, 4518.157
396.3080, 4518.623
396.7901, 4514.876
397.2722, 4508.876
397.7544, 4501.542
398.2365, 4492.989
398.7186, 4484.099
399.2007, 4477.489
399.6828, 4467.770
400.1649, 4450.993
400.6471, 4430.187
401.1292, 4408.990
401.6113, 4388.467
402.0934, 4371.163
402.5755, 4360.214
403.0576, 4354.771
403.5398, 4359.854
404.0219, 4392.902
404.5040, 4418.926
404.9861, 4414.507
405.4682, 4387.754
405.9503, 4361.957
406.4325, 4352.501
406.9146, 4353.426
407.3967, 4342.163
407.8788, 4308.030
408.3609, 4283.917
408.8430, 4279.128
409.3252, 4283.834
409.8073, 4293.382
410.2894, 4306.201
410.7715, 4316.927
411.2536, 4319.710
411.7357, 4316.047
412.2179, 4312.572
412.7000, 4307.987
413.1821, 4307.796
413.6642, 4323.464
414.1463, 4345.799
414.6284, 4355.112
415.1106, 4341.442
415.5927, 4321.591
416.0748, 4302.894
416.5569, 4287.419
417.0390, 4283.652
417.5211, 4296.182
418.0033, 4315.265
418.4854, 4326.292
418.9675, 4326.107
419.4496, 4328.189
419.9317, 4334.204
420.4138, 4341.570
420.8960, 4351.042
421.3781, 4360.675
421.8602, 4364.451
422.3423, 4357.556
422.8244, 4343.844
423.3065, 4340.661
423.7887, 4360.761
424.2708, 4371.346
424.7529, 4361.298
425.2350, 4346.497
425.7171, 4340.302
426.1992, 4344.272
426.6814, 4350.315
427.1635, 4348.896
427.6456, 4341.188
428.1277, 4343.198
428.6098, 4362.340
429.0919, 4376.864
429.5741, 4370.404
430.0562, 4353.728
430.5383, 4343.127
431.0204, 4345.119
431.5025, 4348.067
431.9846, 4338.898
432.4668, 4322.088
432.9489, 4315.204
433.4310, 4324.650
433.9131, 4338.656
434.3952, 4343.928
434.8773, 4339.681
435.3595, 4332.838
435.8416, 4321.417
436.3237, 4309.577
436.8058, 4299.588
437.2879, 4291.271
437.7701, 4283.516
438.2522, 4275.725
438.7343, 4268.416
439.2164, 4262.615
439.6985, 4255.489
440.1806, 4255.447
440.6628, 4270.645
441.1449, 4285.486
441.6270, 4289.375
442.1091, 4283.072
442.5912, 4274.049
443.0733, 4267.786
443.5555, 4263.239
444.0376, 4256.048
444.5197, 4245.147
445.0018, 4234.581
445.4839, 4226.147
445.9660, 4218.603
446.4482, 4209.740
446.9303, 4198.693
447.4124, 4191.422
447.8945, 4193.986
448.3766, 4202.457
448.8587, 4210.159
449.3409, 4216.564
449.8230, 4217.146
450.3051, 4205.227
450.7872, 4183.091
451.2693, 4173.285
451.7514, 4193.014
452.2336, 4204.145
452.7157, 4184.861
453.1978, 4152.811
453.6799, 4133.559
454.1620, 4134.162
454.6441, 4142.679
455.1263, 4144.008
455.6084, 4136.997
456.0905, 4129.347
456.5726, 4116.077
457.0547, 4107.508
457.5368, 4112.543
458.0190, 4123.035
458.5011, 4124.852
458.9832, 4110.860
459.4653, 4091.906
459.9474, 4085.447
460.4295, 4091.782
460.9117, 4090.696
461.3938, 4073.036
461.8759, 4054.157
462.3580, 4050.717
462.8401, 4059.338
463.3222, 4061.922
463.8044, 4045.581
464.2865, 4027.415
464.7686, 4025.434
465.2507, 4035.737
465.7328, 4039.895
466.2149, 4028.107
466.6971, 4012.705
467.1792, 4019.620
467.6613, 4073.109
468.1434, 4096.604
468.6255, 4066.104
469.1076, 4027.102
469.5898, 4008.377
470.0719, 4006.377
470.5540, 4001.784
471.0361, 3981.009
471.5182, 3953.001
472.0003, 3945.909
472.4825, 3969.267
472.9646, 3987.667
473.4467, 3989.602
473.9288, 3986.920
474.4109, 3989.256
474.8930, 3995.778
475.3752, 3994.766
475.8573, 3971.148
476.3394, 3939.055
476.8215, 3922.347
477.3036, 3921.698
477.7857, 3930.303
478.2679, 3950.407
478.7500, 3973.018
479.2321, 3972.893
479.7142, 3936.027
480.1963, 3914.737
480.6784, 3933.052
481.1606, 3961.714
481.6427, 3974.862
482.1248, 3970.994
482.6069, 3961.077
483.0890, 3952.549
483.5711, 3945.685
484.0533, 3942.580
484.5354, 3950.835
485.0175, 3949.902
485.4996, 3921.701
485.9817, 3894.885
486.4638, 3897.125
486.9460, 3928.575
487.4281, 3961.839
487.9102, 3973.594
488.3923, 3970.822
488.8744, 3976.614
489.3565, 3993.510
489.8387, 4004.717
490.3208, 3997.633
490.8029, 3981.510
491.2850, 3976.125
491.7671, 3984.701
492.2492, 3994.362
492.7314, 4002.269
493.2135, 4008.133
493.6956, 4010.303
494.1777, 4009.346
494.6598, 4009.311
495.1419, 4013.357
495.6241, 4020.912
496.1062, 4028.533
496.5883, 4039.376
497.0704, 4045.510
497.5525, 4042.261
498.0346, 4036.941
498.5168, 4035.999
498.9989, 4039.811
499.4810, 4043.760
499.9631, 4042.250
500.4452, 4037.898
500.9273, 4041.402
501.4095, 4054.294
501.8916, 4068.985
502.3737, 4085.744
502.8558, 4100.173
503.3379, 4105.337
503.8200, 4099.400
504.3022, 4091.347
504.7843, 4078.022
505.2664, 4068.078
505.7485, 4078.028
506.2306, 4105.175
506.7127, 4124.070
507.1949, 4116.147
507.6770, 4088.754
508.1591, 4074.257
508.6412, 4084.640
509.1233, 4090.733
509.6054, 4087.349
510.0876, 4082.125
510.5697, 4080.738
511.0518, 4083.183
511.5339, 4085.940
512.0161, 4086.453
512.4982, 4085.482
512.9803, 4085.180
513.4624, 4085.731
513.9445, 4086.256
514.4266, 4089.398
514.9088, 4089.589
515.3909, 4078.662
515.8730, 4055.719
516.3551, 4033.838
516.8372, 4019.444
517.3193, 4005.985
517.8015, 3985.473
518.2836, 3959.697
518.7657, 3935.600
519.2478, 3916.451
519.7299, 3903.534
520.2120, 3900.919
520.6942, 3918.711
521.1763, 3927.410
521.6584, 3919.687
522.1405, 3910.839
522.6226, 3910.598
523.1047, 3916.053
523.5869, 3918.066
524.0690, 3910.972
524.5511, 3900.002
525.0332, 3893.174
525.5153, 3890.475
525.9974, 3890.524
526.4796, 3895.198
526.9617, 3898.921
527.4438, 3892.045
527.9259, 3876.389
528.4080, 3870.264
528.8901, 3886.584
529.3723, 3902.881
529.8544, 3904.585
530.3365, 3896.921
530.8186, 3889.050
531.3007, 3884.298
531.7828, 3884.163
532.2650, 3891.228
532.7471, 3906.646
533.2292, 3922.477
533.7113, 3946.606
534.1934, 3961.661
534.6755, 3953.688
535.1577, 3937.024
535.6398, 3932.012
536.1219, 3945.239
536.6040, 3962.960
537.0861, 3974.462
537.5682, 3980.233
538.0504, 3980.564
538.5325, 3974.842
539.0146, 3967.949
539.4967, 3960.442
539.9788, 3954.911
540.4609, 3963.787
540.9431, 4004.853
541.4252, 4034.476
541.9073, 4038.057
542.3894, 4030.060
542.8715, 4020.585
543.3536, 4012.993
543.8358, 4010.895
544.3179, 4018.277
544.8000, 4032.360
545.2821, 4041.143
545.7642, 4044.083
546.2463, 4043.120
546.7285, 4034.022
547.2106, 4024.658
547.6927, 4022.870
548.1748, 4027.979
548.6569, 4029.677
549.1390, 4015.168
549.6211, 4000.882
550.1032, 4009.075
550.5853, 4034.910
551.0674, 4056.086
551.5496, 4063.672
552.0317, 4063.635
552.5138, 4065.488
552.9959, 4070.036
553.4780, 4073.797
553.9601, 4072.507
554.4423, 4075.085
554.9244, 4087.233
555.4065, 4104.955
555.8886, 4122.401
556.3707, 4137.548
556.8528, 4150.602
557.3350, 4161.119
557.8171, 4169.452
558.2992, 4178.649
558.7813, 4189.345
559.2634, 4199.630
559.7455, 4206.614
560.2277, 4212.555
560.7098, 4223.847
561.1919, 4240.523
561.6740, 4262.600
562.1561, 4298.128
562.6382, 4334.159
563.1204, 4355.709
563.6025, 4362.739
564.0846, 4366.293
564.5667, 4374.860
565.0488, 4385.604
565.5309, 4386.965
566.0131, 4375.721
566.4952, 4363.229
566.9773, 4346.292
567.4594, 4332.899
567.9415, 4331.933
568.4236, 4340.305
568.9058, 4343.397
569.3879, 4330.778
569.8700, 4314.036
570.3521, 4306.716
570.8342, 4305.382
571.3163, 4298.617
571.7985, 4282.929
572.2806, 4260.549
572.7627, 4232.879
573.2448, 4198.441
573.7269, 4171.996
574.2090, 4162.400
574.6912, 4149.459
575.1733, 4122.596
575.6554, 4092.698
576.1375, 4073.201
576.6196, 4066.469
577.1017, 4062.192
577.5839, 4048.906
578.0660, 4030.594
578.5481, 4021.589
579.0302, 4022.946
579.5123, 4026.157
579.9944, 4027.724
580.4766, 4028.603
580.9587, 4031.544
581.4408, 4038.432
581.9229, 4039.707
582.4050, 4033.031
582.8871, 4021.267
583.3693, 4001.263
583.8514, 3978.356
584.3335, 3963.862
584.8156, 3963.152
585.2977, 3968.008
585.7798, 3965.886
586.2620, 3956.424
586.7441, 3943.262
587.2262, 3921.688
587.7083, 3904.325
588.1904, 3903.958
588.6725, 3910.995
589.1547, 3908.360
589.6368, 3888.316
590.1189, 3873.097
590.6010, 3877.294
591.0831, 3890.216
591.5652, 3902.597
592.0474, 3911.230
592.5295, 3906.634
593.0116, 3880.118
593.4937, 3842.861
593.9758, 3831.073
594.4579, 3858.693
594.9401, 3878.748
595.4222, 3886.360
595.9043, 3886.228
596.3864, 3874.218
596.8685, 3856.290
597.3506, 3847.378
597.8328, 3857.395
598.3149, 3869.537
598.7970, 3866.100
599.2791, 3853.159
599.7612, 3846.730
600.2433, 3849.889
600.7255, 3856.304
601.2076, 3861.048
601.6897, 3864.233
602.1718, 3866.760
602.6539, 3868.754
603.1360, 3869.846
603.6182, 3875.063
604.1003, 3875.434
604.5824, 3857.586
605.0645, 3827.052
605.5466, 3806.933
606.0287, 3814.189
606.5109, 3833.820
606.9930, 3845.495
607.4751, 3849.509
607.9572, 3847.892
608.4393, 3840.834
608.9214, 3829.046
609.4036, 3811.152
609.8857, 3787.122
610.3678, 3772.688
610.8499, 3772.953
611.3320, 3775.390
611.8141, 3778.409
612.2963, 3781.420
612.7784, 3783.826
613.2605, 3785.654
613.7426, 3787.824
614.2247, 3792.816
614.7068, 3797.164
615.1890, 3790.137
615.6711, 3771.103
616.1532, 3754.724
616.6353, 3744.806
617.1174, 3739.972
617.5995, 3741.618
618.0817, 3749.903
618.5638, 3748.947
619.0459, 3723.570
619.5280, 3705.702
620.0101, 3715.234
620.4922, 3735.469
620.9744, 3744.350
621.4565, 3738.470
621.9386, 3731.143
622.4207, 3735.928
622.9028, 3748.164
623.3849, 3748.477
623.8671, 3734.958
624.3492, 3720.407
624.8313, 3707.637
625.3134, 3696.601
625.7955, 3686.876
626.2776, 3678.389
626.7598, 3673.851
627.2419, 3675.942
627.7240, 3679.604
628.2061, 3682.373
628.6882, 3685.081
629.1703, 3690.672
629.6525, 3698.937
630.1346, 3703.939
630.6167, 3698.655
631.0988, 3685.276
631.5809, 3674.817
632.0630, 3665.748
632.5452, 3666.030
633.0273, 3683.555
633.5094, 3706.323
633.9915, 3722.561
634.4736, 3732.423
634.9557, 3736.221
635.4379, 3729.953
635.9200, 3721.802
636.4021, 3708.062
636.8842, 3674.842
637.3663, 3695.165
637.8484, 3709.961
638.3306, 3719.527
638.8127, 3708.191
639.2948, 3723.844
639.7769, 3728.681
640.2590, 3733.073
640.7411, 3752.524
641.2233, 3764.347
641.7054, 3786.317
642.1875, 3787.247
642.6696, 3769.250
643.1517, 3758.883
643.6339, 3771.049
644.1160, 3782.101
644.5981, 3774.100
645.0802, 3758.545
645.5623, 3753.805
646.0444, 3763.272
646.5266, 3777.119
647.0087, 3786.583
647.4908, 3792.532
647.9729, 3799.768
648.4550, 3809.699
648.9371, 3815.181
649.4193, 3815.005
649.9014, 3808.952
650.3835, 3791.033
650.8656, 3764.330
651.3477, 3751.597
651.8298, 3776.519
652.3120, 3793.553
652.7941, 3773.389
653.2762, 3736.487
653.7583, 3708.818
654.2404, 3695.108
654.7225, 3687.413
655.2047, 3680.075
655.6868, 3672.839
656.1689, 3664.395
656.6510, 3654.112
657.1331, 3646.312
657.6152, 3641.097
658.0974, 3639.836
658.5795, 3650.484
659.0616, 3668.062
659.5437, 3668.650
660.0258, 3629.686
660.5079, 3598.854
660.9901, 3599.954
661.4722, 3612.318
661.9543, 3614.550
662.4364, 3578.553
662.9185, 3591.975
663.4006, 3597.105
663.8828, 3594.386
664.3649, 3560.319
664.8470, 3566.734
665.3291, 3556.925
665.8112, 3546.451
666.2933, 3558.564
666.7755, 3529.055
667.2576, 3540.809
667.7397, 3536.093
668.2218, 3538.915
668.7039, 3525.413
669.1860, 3516.954
669.6682, 3513.308
670.1503, 3497.661
670.6324, 3484.838
671.1145, 3484.755
671.5966, 3503.450
672.0787, 3528.235
672.5609, 3542.375
673.0430, 3546.725
673.5251, 3548.127
674.0072, 3547.996
674.4893, 3538.730
674.9714, 3509.767
675.4536, 3473.273
675.9357, 3462.634
676.4178, 3495.621
676.8999, 3515.551
677.3820, 3514.046
677.8641, 3506.284
678.3463, 3496.958
678.8284, 3487.907
679.3105, 3481.282
679.7926, 3477.773
680.2747, 3474.726
680.7568, 3470.015
681.2390, 3463.880
681.7211, 3455.593
682.2032, 3445.473
682.6853, 3438.569
683.1674, 3436.884
683.6495, 3440.436
684.1317, 3451.516
684.6138, 3474.996
685.0959, 3479.864
685.5780, 3445.297
686.0601, 3416.993
686.5422, 3408.889
687.0244, 3410.553
687.5065, 3413.748
687.9886, 3416.281
688.4707, 3413.184
688.9528, 3393.049
689.4349, 3372.413
689.9171, 3373.208
690.3992, 3389.209
690.8813, 3403.712
691.3634, 3411.934
691.8455, 3411.968
692.3276, 3399.599
692.8098, 3377.608
693.2919, 3372.443
693.7740, 3394.604
694.2561, 3410.344
694.7382, 3410.450
695.2203, 3404.831
695.7025, 3395.803
696.1846, 3386.195
696.6667, 3386.127
697.1488, 3405.497
697.6309, 3423.775
698.1130, 3426.292
698.5952, 3423.637
699.0773, 3432.932
699.5594, 3451.903
700.0415, 3461.532
700.5236, 3449.294
701.0057, 3425.361
701.4879, 3409.604
701.9700, 3402.155
702.4521, 3401.083
702.9342, 3410.980
703.4163, 3414.546
703.8984, 3395.755
704.3806, 3365.947
704.8627, 3352.516
705.3448, 3359.660
705.8269, 3369.650
706.3090, 3384.745
706.7911, 3397.415
707.2733, 3402.841
707.7554, 3402.848
708.2375, 3400.194
708.7196, 3395.888
709.2017, 3391.169
709.6838, 3388.360
710.1660, 3385.747
710.6481, 3377.126
711.1302, 3362.984
711.6123, 3352.816
712.0944, 3350.031
712.5765, 3352.556
713.0587, 3359.080
713.5408, 3370.102
714.0229, 3374.361
714.5050, 3364.660
714.9871, 3357.949
715.4692, 3356.712
715.9514, 3359.495
716.4335, 3367.003
716.9156, 3377.820
717.3977, 3386.874
717.8798, 3392.809
718.3619, 3395.300
718.8441, 3392.977
719.3262, 3387.476
719.8083, 3380.533
720.2904, 3373.001
720.7725, 3366.695
721.2546, 3362.560
721.7368, 3361.755
722.2189, 3369.731
722.7010, 3389.406
723.1831, 3396.311
723.6652, 3381.730
724.1473, 3368.103
724.6295, 3373.825
725.1116, 3386.536
725.5937, 3377.763
726.0758, 3336.170
726.5579, 3312.918
727.0400, 3332.308
727.5222, 3357.183
728.0043, 3370.053
728.4864, 3371.625
728.9685, 3361.741
729.4506, 3342.049
729.9327, 3325.483
730.4149, 3328.874
730.8970, 3341.688
731.3791, 3335.539
731.8612, 3313.312
732.3433, 3303.393
732.8254, 3314.831
733.3076, 3336.234
733.7897, 3358.624
734.2718, 3380.828
734.7539, 3387.425
735.2360, 3364.169
735.7181, 3349.158
736.2003, 3358.295
736.6824, 3365.840
737.1645, 3351.850
737.6466, 3323.501
738.1287, 3300.698
738.6108, 3285.420
739.0930, 3284.401
739.5751, 3317.972
740.0572, 3356.779
740.5393, 3361.837
741.0214, 3339.409
741.5035, 3319.840
741.9857, 3317.452
742.4678, 3323.245
742.9499, 3322.678
743.4320, 3316.988
743.9141, 3328.741
744.3962, 3364.549
744.8784, 3380.504
745.3605, 3350.569
745.8426, 3306.493
746.3247, 3292.313
746.8068, 3312.048
747.2889, 3324.607
747.7711, 3326.961
748.2532, 3326.647
748.7353, 3322.261
749.2174, 3318.329
749.6995, 3318.733
750.1816, 3323.415
750.6638, 3330.994
751.1459, 3344.467
751.6280, 3353.608
752.1101, 3343.557
752.5922, 3324.379
753.0743, 3315.921
753.5565, 3319.350
754.0386, 3323.479
754.5207, 3321.532
755.0028, 3318.142
755.4849, 3324.364
755.9670, 3342.182
756.4492, 3350.474
756.9313, 3346.948
757.4134, 3337.903
757.8955, 3317.774
758.3776, 3299.705
758.8597, 3309.624
759.3419, 3351.392
759.8240, 3375.915
760.3061, 3369.294
760.7882, 3356.767
761.2703, 3343.404
761.7524, 3331.786
762.2346, 3323.254
762.7167, 3318.522
763.1988, 3319.667
763.6809, 3331.559
764.1630, 3343.216
764.6451, 3339.536
765.1273, 3326.167
765.6094, 3316.015
766.0915, 3311.168
766.5736, 3311.351
767.0557, 3316.978
767.5378, 3324.885
768.0200, 3326.589
768.5021, 3319.432
768.9842, 3324.066
769.4663, 3350.222
769.9484, 3367.427
770.4305, 3353.108
770.9127, 3328.978
771.3948, 3328.693
771.8769, 3354.342
772.3590, 3373.603
772.8411, 3385.584
773.3232, 3387.167
773.8054, 3366.042
774.2875, 3341.253
774.7696, 3335.381
775.2517, 3347.124
775.7338, 3356.987
776.2159, 3353.233
776.6981, 3345.500
777.1802, 3344.693
777.6623, 3348.130
778.1444, 3349.154
778.6265, 3347.407
779.1086, 3347.403
779.5908, 3351.811
780.0729, 3358.286
780.5550, 3361.625
781.0371, 3360.943
781.5192, 3367.566
782.0013, 3386.895
782.4835, 3398.637
782.9656, 3389.318
783.4477, 3374.139
783.9298, 3373.255
784.4119, 3386.945
784.8940, 3399.391
785.3762, 3411.206
785.8583, 3420.040
786.3404, 3422.883
786.8225, 3424.351
787.3046, 3431.239
787.7867, 3440.547
788.2689, 3439.954
788.7510, 3419.784
789.2331, 3403.367
789.7152, 3417.297
790.1973, 3444.129
790.6794, 3454.170
791.1616, 3449.435
791.6437, 3451.135
792.1258, 3468.463
792.6079, 3486.841
793.0900, 3481.265
793.5721, 3456.541
794.0543, 3465.511
794.5364, 3514.710
795.0185, 3557.064
795.5006, 3579.412
795.9827, 3589.793
796.4648, 3592.969
796.9470, 3590.158
797.4291, 3594.334
797.9112, 3617.963
798.3933, 3630.553
798.8754, 3614.015
799.3575, 3602.724
799.8397, 3621.902
800.3218, 3658.945
800.8039, 3687.349
801.2860, 3699.074
801.7681, 3715.902
802.2502, 3753.153
802.7324, 3796.431
803.2145, 3832.754
803.6966, 3865.179
804.1787, 3901.830
804.6608, 3944.074
805.1429, 3985.533
805.6251, 4019.037
806.1072, 4050.653
806.5893, 4091.161
807.0714, 4141.174
807.5535, 4204.991
808.0356, 4283.773
808.5178, 4372.523
808.9999, 4469.265
809.4820, 4571.807
809.9641, 4670.639
810.4462, 4758.439
810.9283, 4871.288
811.4105, 5018.188
811.8926, 5176.146
812.3747, 5330.305
812.8568, 5495.027
813.3389, 5686.347
813.8210, 5903.993
814.3032, 6134.390
814.7853, 6371.651
815.2674, 6625.448
815.7495, 6899.589
816.2316, 7190.780
816.7137, 7502.311
817.1959, 7828.911
817.6780, 8156.981
818.1601, 8478.854
818.6422, 8812.214
819.1243, 9169.900
819.6064, 9554.646
820.0886, 9977.211
820.5707, 10431.28
821.0528, 10891.08
821.5349, 11350.71
822.0170, 11804.09
822.4991, 12251.42
822.9813, 12688.51
823.4634, 13105.91
823.9455, 13508.06
824.4276, 13863.24
824.9097, 14170.67
825.3918, 14409.17
825.8740, 14563.82
826.3561, 14636.74
826.8382, 14634.72
827.3203, 14569.84
827.8024, 14401.36
828.2845, 14093.61
828.7667, 13723.57
829.2488, 13299.30
829.7309, 12840.47
830.2130, 12369.57
830.6951, 11887.39
831.1772, 11395.11
831.6594, 10858.34
832.1415, 10353.76
832.6236, 9916.807
833.1057, 9524.198
833.5878, 9152.751
834.0699, 8799.750
834.5521, 8472.281
835.0342, 8174.261
835.5163, 7896.910
835.9984, 7630.881
836.4805, 7379.332
836.9626, 7145.886
837.4448, 6930.933
837.9269, 6735.155
838.4090, 6558.962
838.8911, 6400.662
839.3732, 6262.002
839.8553, 6138.532
840.3375, 6010.167
840.8196, 5876.607
841.3017, 5753.565
841.7838, 5643.441
842.2659, 5545.880
842.7480, 5461.999
843.2302, 5387.898
843.7123, 5313.624
844.1944, 5241.157
844.6765, 5160.682
845.1586, 5060.726
845.6407, 4970.000
846.1229, 4901.251
846.6050, 4843.714
847.0871, 4791.318
847.5692, 4742.729
848.0513, 4685.187
848.5334, 4603.380
849.0156, 4530.417
849.4977, 4479.038
849.9798, 4436.413
850.4619, 4394.291
850.9440, 4352.082
851.4261, 4310.763
851.9083, 4270.173
852.3904, 4234.387
852.8725, 4210.788
853.3546, 4188.903
853.8367, 4154.164
854.3188, 4113.304
854.8010, 4080.594
855.2831, 4058.461
855.7652, 4040.295
856.2473, 4021.476
856.7294, 4003.519
857.2115, 3992.556
857.6937, 3985.259
858.1758, 3963.246
858.6579, 3925.476
859.1400, 3892.808
859.6221, 3875.300
860.1042, 3864.135
860.5864, 3847.405
861.0685, 3825.216
861.5506, 3796.290
862.0327, 3756.526
862.5148, 3726.249
862.9969, 3711.232
863.4791, 3704.696
863.9612, 3709.594
864.4433, 3716.539
864.9254, 3688.982
865.4075, 3588.596
865.8896, 3533.868
866.3718, 3562.645
866.8539, 3589.593
867.3360, 3582.184
867.8181, 3559.342
868.3002, 3541.163
868.7823, 3529.117
869.2645, 3518.488
869.7466, 3507.656
870.2287, 3498.670
870.7108, 3495.165
871.1929, 3491.514
871.6750, 3482.497
872.1572, 3469.209
872.6393, 3455.328
873.1214, 3442.086
873.6035, 3427.453
874.0856, 3403.598
874.5677, 3382.754
875.0499, 3379.097
875.5320, 3388.949
876.0141, 3410.878
876.4962, 3439.734
876.9783, 3453.447
877.4604, 3435.150
877.9426, 3402.081
878.4247, 3376.385
878.9068, 3359.754
879.3889, 3365.333
879.8710, 3391.101
880.3531, 3404.164
880.8353, 3390.754
881.3174, 3366.773
881.7995, 3349.603
882.2816, 3339.177
882.7637, 3336.759
883.2458, 3343.932
883.7280, 3347.158
884.2101, 3343.647
884.6922, 3337.705
885.1743, 3331.168
885.6564, 3325.037
886.1385, 3320.931
886.6207, 3317.571
887.1028, 3322.617
887.5849, 3344.358
888.0670, 3360.963
888.5491, 3359.074
889.0313, 3356.559
889.5134, 3375.028
889.9955, 3407.434
890.4776, 3420.880
890.9597, 3398.013
891.4418, 3383.583
891.9240, 3387.677
892.4061, 3397.208
892.8882, 3411.441
893.3703, 3423.568
893.8524, 3420.412
894.3345, 3402.398
894.8167, 3395.298
895.2988, 3416.620
895.7809, 3442.661
896.2630, 3461.081
896.7451, 3477.754
897.2272, 3503.811
897.7094, 3532.770
898.1915, 3544.809
898.6736, 3532.702
899.1557, 3519.743
899.6378, 3522.282
900.1199, 3536.052
900.6021, 3563.422
901.0842, 3595.600
901.5663, 3612.200
902.0484, 3612.245
902.5305, 3611.855
903.0126, 3620.703
903.4948, 3636.041
903.9769, 3654.535
904.4590, 3676.134
904.9411, 3705.005
905.4232, 3738.503
905.9053, 3754.646
906.3875, 3746.426
906.8696, 3730.787
907.3517, 3722.551
907.8338, 3721.901
908.3159, 3734.526
908.7980, 3760.649
909.2802, 3764.745
909.7623, 3740.305
910.2444, 3715.631
910.7265, 3705.181
911.2086, 3698.973
911.6907, 3681.560
912.1729, 3653.187
912.6550, 3634.019
913.1371, 3627.252
913.6192, 3620.250
914.1013, 3614.852
914.5834, 3600.589
915.0656, 3564.238
915.5477, 3518.091
916.0298, 3490.105
916.5119, 3483.193
916.9940, 3483.787
917.4761, 3501.595
917.9583, 3513.145
918.4404, 3512.274
918.9225, 3503.854
919.4046, 3487.732
919.8867, 3466.955
920.3688, 3452.004
920.8510, 3442.404
921.3331, 3441.320
921.8152, 3454.330
922.2973, 3470.036
922.7794, 3485.349
923.2615, 3499.171
923.7437, 3509.798
924.2258, 3517.620
924.7079, 3525.735
925.1900, 3536.746
925.6721, 3545.502
926.1542, 3541.031
926.6364, 3541.777
927.1185, 3568.105
927.6006, 3608.004
928.0827, 3638.616
928.5648, 3655.712
929.0469, 3675.683
929.5291, 3710.391
930.0112, 3748.084
930.4933, 3781.026
930.9754, 3811.359
931.4575, 3843.489
931.9396, 3875.434
932.4218, 3902.179
932.9039, 3921.966
933.3860, 3931.556
933.8681, 3919.419
934.3502, 3902.548
934.8323, 3904.036
935.3145, 3917.264
935.7966, 3934.031
936.2787, 3948.942
936.7608, 3946.399
937.2429, 3917.196
937.7250, 3882.642
938.2072, 3873.613
938.6893, 3876.508
939.1714, 3860.319
939.6535, 3827.299
940.1356, 3786.634
940.6177, 3741.282
941.0999, 3696.104
941.5820, 3653.642
942.0641, 3617.708
942.5462, 3599.288
943.0283, 3594.150
943.5104, 3577.833
943.9926, 3550.698
944.4747, 3532.996
944.9568, 3531.304
945.4389, 3526.094
945.9210, 3498.297
946.4031, 3457.742
946.8853, 3431.395
947.3674, 3419.185
947.8495, 3411.683
948.3316, 3408.329
948.8137, 3410.313
949.2958, 3419.211
949.7780, 3427.966
950.2601, 3428.306
950.7422, 3421.896
951.2243, 3417.085
951.7064, 3413.592
952.1885, 3414.132
952.6707, 3420.147
953.1528, 3425.877
953.6349, 3428.939
954.1170, 3429.869
954.5991, 3429.758
955.0812, 3428.437
955.5634, 3420.891
956.0455, 3402.227
956.5276, 3392.810
957.0097, 3397.301
957.4918, 3407.299
957.9739, 3422.527
958.4561, 3435.903
958.9382, 3434.280
959.4203, 3416.143
959.9024, 3404.592
960.3845, 3402.127
960.8666, 3401.227
961.3488, 3400.130
961.8309, 3401.284
962.3130, 3406.310
962.7951, 3414.630
963.2772, 3428.340
963.7593, 3452.819
964.2415, 3453.647
964.7236, 3408.235
965.2057, 3372.015
965.6878, 3353.403
966.1699, 3347.472
966.6520, 3356.755
967.1342, 3375.092
967.6163, 3387.544
968.0984, 3390.423
968.5805, 3400.901
969.0626, 3432.174
969.5447, 3454.626
970.0269, 3460.151
970.5090, 3454.853
970.9911, 3433.458
971.4732, 3406.369
971.9553, 3403.540
972.4374, 3439.599
972.9196, 3457.132
973.4017, 3429.209
973.8838, 3406.049
974.3659, 3405.748
974.8480, 3417.264
975.3301, 3437.731
975.8123, 3460.995
976.2944, 3469.541
976.7765, 3455.329
977.2586, 3444.166
977.7407, 3442.318
978.2228, 3444.037
978.7050, 3449.543
979.1871, 3455.329
979.6692, 3455.894
980.1513, 3453.708
980.6334, 3458.759
981.1155, 3476.565
981.5977, 3490.965
982.0798, 3499.478
982.5619, 3500.709
983.0440, 3485.851
983.5261, 3469.256
984.0082, 3467.073
984.4904, 3477.820
984.9725, 3490.936
985.4546, 3507.082
985.9367, 3515.144
986.4188, 3501.727
986.9009, 3489.750
987.3831, 3495.806
987.8652, 3508.570
988.3473, 3511.138
988.8294, 3506.458
989.3115, 3516.077
989.7936, 3557.063
990.2758, 3581.251
990.7579, 3552.563
991.2400, 3518.473
991.7221, 3508.798
992.2042, 3511.859
992.6863, 3511.391
993.1685, 3507.271
993.6506, 3509.521
994.1327, 3523.912
994.6148, 3537.679
995.0969, 3546.095
995.5790, 3550.964
996.0612, 3551.819
996.5433, 3550.905
997.0254, 3549.006
997.5075, 3547.722
997.9896, 3552.513
998.4717, 3567.699
998.9539, 3581.629
999.4360, 3588.216
999.9181, 3592.515
1000.400, 3598.510
1000.882, 3603.955
1001.364, 3606.749
1001.847, 3606.045
1002.329, 3597.866
1002.811, 3573.271
1003.293, 3564.994
1003.775, 3602.901
1004.257, 3646.653
1004.739, 3676.014
1005.221, 3689.707
1005.703, 3680.706
1006.186, 3655.742
1006.668, 3639.129
1007.150, 3640.921
1007.632, 3645.385
1008.114, 3642.666
1008.596, 3643.217
1009.078, 3661.066
1009.560, 3681.190
1010.043, 3681.046
1010.525, 3665.258
1011.007, 3660.499
1011.489, 3679.590
1011.971, 3692.700
1012.453, 3676.029
1012.935, 3662.086
1013.417, 3677.012
1013.899, 3700.819
1014.382, 3709.462
1014.864, 3705.264
1015.346, 3705.676
1015.828, 3717.103
1016.310, 3726.037
1016.792, 3721.572
1017.274, 3720.054
1017.756, 3735.144
1018.239, 3753.885
1018.721, 3763.111
1019.203, 3763.871
1019.685, 3764.001
1020.167, 3766.285
1020.649, 3762.922
1021.131, 3737.878
1021.613, 3723.365
1022.095, 3742.188
1022.578, 3771.469
1023.060, 3797.093
1023.542, 3813.958
1024.024, 3811.434
1024.506, 3783.318
1024.988, 3763.963
1025.470, 3761.619
1025.952, 3770.431
1026.435, 3804.967
1026.917, 3834.533
1027.399, 3822.873
1027.881, 3790.806
1028.363, 3787.942
1028.845, 3825.186
1029.327, 3851.589
1029.809, 3850.005
1030.292, 3847.492
1030.774, 3852.954
1031.256, 3858.148
1031.738, 3853.191
1032.220, 3845.729
1032.702, 3847.060
1033.184, 3844.595
1033.666, 3869.007
1034.148, 3885.125
1034.630, 3893.398
1035.113, 3870.332
1035.595, 3887.736
1036.077, 3888.918
1036.559, 3889.434
1037.041, 3912.538
1037.523, 3937.123
1038.005, 3955.843
1038.487, 3938.679
1038.970, 3931.840
1039.452, 3950.654
1039.934, 3963.456
1040.416, 3949.737
1040.898, 3928.528
1041.380, 3921.359
1041.862, 3927.630
1042.344, 3942.079
1042.826, 3977.667
1043.309, 3991.371
1043.791, 3967.555
1044.273, 3948.233
1044.755, 3949.373
1045.237, 3960.823
1045.719, 3975.974
1046.201, 3991.733
1046.683, 3992.247
1047.166, 3969.543
1047.648, 3958.687
1048.130, 3961.151
1048.612, 3973.415
1049.094, 3999.139
1049.576, 4021.926
1050.058, 4026.186
1050.540, 4019.424
1051.022, 4022.180
1051.505, 4035.483
1051.987, 4048.040
1052.469, 4059.608
1052.951, 4073.180
1053.433, 4091.387
1053.915, 4100.265
1054.397, 4089.162
1054.879, 4067.123
1055.361, 4047.483
1055.844, 4031.577
1056.326, 4036.840
1056.808, 4063.246
1057.290, 4096.578
1057.772, 4134.645
1058.254, 4158.155
1058.736, 4156.246
1059.218, 4143.310
1059.701, 4135.773
1060.183, 4134.555
1060.665, 4148.168
1061.147, 4172.016
1061.629, 4177.154
1062.111, 4163.146
1062.593, 4152.908
1063.075, 4155.563
1063.557, 4169.526
1064.040, 4197.449
1064.522, 4226.990
1065.004, 4233.958
1065.486, 4225.168
1065.968, 4210.110
1066.450, 4195.263
1066.932, 4199.582
1067.414, 4226.079
1067.896, 4258.810
1068.379, 4289.666
1068.861, 4311.585
1069.343, 4313.786
1069.825, 4304.247
1070.307, 4285.624
1070.789, 4267.516
1071.271, 4269.263
1071.753, 4290.244
1072.236, 4314.596
1072.718, 4336.330
1073.200, 4352.710
1073.682, 4362.197
1074.164, 4365.227
1074.646, 4348.866
1075.128, 4336.014
1075.610, 4366.780
1076.093, 4423.419
1076.575, 4451.701
1077.057, 4436.676
1077.539, 4417.450
1078.021, 4406.485
1078.503, 4400.929
1078.985, 4392.109
1079.467, 4395.463
1079.949, 4434.114
1080.432, 4487.785
1080.914, 4524.501
1081.396, 4540.689
1081.878, 4548.264
1082.360, 4549.344
1082.842, 4542.005
1083.324, 4505.603
1083.806, 4485.108
1084.288, 4513.826
1084.771, 4558.936
1085.253, 4586.602
1085.735, 4599.222
1086.217, 4609.268
1086.699, 4616.353
1087.181, 4621.740
1087.663, 4624.921
1088.145, 4627.075
1088.628, 4626.548
1089.110, 4628.630
1089.592, 4637.149
1090.074, 4651.214
1090.556, 4670.719
1091.038, 4696.296
1091.520, 4705.978
1092.002, 4695.730
1092.484, 4695.754
1092.967, 4711.843
1093.449, 4732.867
1093.931, 4754.093
1094.413, 4774.000
1094.895, 4791.959
1095.377, 4805.672
1095.859, 4800.388
1096.341, 4780.524
1096.823, 4783.929
1097.306, 4811.107
1097.788, 4836.117
1098.270, 4850.443
1098.752, 4859.625
1099.234, 4866.975
1099.716, 4875.813
1100.198, 4895.958
1100.680, 4918.757
1101.163, 4925.519
1101.645, 4920.019
1102.127, 4907.265
1102.609, 4893.559
1103.091, 4898.860
1103.573, 4933.471
1104.055, 4970.854
1104.537, 4987.434
1105.020, 4998.476
1105.502, 5017.548
1105.984, 5039.569
1106.466, 5060.077
1106.948, 5077.517
1107.430, 5089.324
1107.912, 5095.337
1108.394, 5100.793
1108.876, 5106.394
1109.359, 5114.007
1109.841, 5125.954
1110.323, 5138.250
1110.805, 5150.195
1111.287, 5159.852
1111.769, 5163.380
1112.251, 5162.222
1112.733, 5163.984
1113.215, 5168.414
1113.698, 5178.246
1114.180, 5202.365
1114.662, 5217.073
1115.144, 5205.666
1115.626, 5200.807
1116.108, 5232.561
1116.590, 5276.633
1117.072, 5284.875
1117.555, 5257.041
1118.037, 5246.901
1118.519, 5255.960
1119.001, 5278.901
1119.483, 5319.908
1119.965, 5339.855
1120.447, 5319.273
1120.929, 5292.368
1121.411, 5294.687
1121.894, 5315.917
1122.376, 5334.554
1122.858, 5348.305
1123.340, 5340.057
1123.822, 5314.306
1124.304, 5295.992
1124.786, 5291.560
1125.268, 5301.498
1125.750, 5326.898
1126.233, 5352.276
1126.715, 5352.235
1127.197, 5348.392
1127.679, 5381.031
1128.161, 5424.295
1128.643, 5435.706
1129.125, 5420.181
1129.607, 5398.517
1130.090, 5378.314
1130.572, 5371.160
1131.054, 5387.314
1131.536, 5409.919
1132.018, 5436.131
1132.500, 5459.329
1132.982, 5473.229
1133.464, 5482.939
1133.947, 5492.743
1134.429, 5504.099
1134.911, 5523.424
1135.393, 5562.327
1135.875, 5571.822
1136.357, 5507.255
1136.839, 5474.571
1137.321, 5511.928
1137.803, 5555.255
1138.286, 5567.179
1138.768, 5565.665
1139.250, 5576.771
1139.732, 5599.271
1140.214, 5623.164
1140.696, 5649.677
1141.178, 5669.420
1141.660, 5682.030
1142.142, 5681.967
1142.625, 5666.162
1143.107, 5660.492
1143.589, 5686.956
1144.071, 5725.613
1144.553, 5737.167
1145.035, 5734.219
1145.517, 5762.168
1145.999, 5807.737
1146.482, 5827.077
1146.964, 5819.575
1147.446, 5808.986
1147.928, 5804.936
1148.410, 5808.143
1148.892, 5821.208
1149.374, 5838.206
1149.856, 5855.671
1150.339, 5872.675
1150.821, 5889.681
1151.303, 5904.679
1151.785, 5910.543
1152.267, 5911.313
1152.749, 5928.963
1153.231, 5979.355
1153.713, 6003.984
1154.195, 5958.646
1154.677, 5928.975
1155.160, 5939.408
1155.642, 5975.636
1156.124, 6053.060
1156.606, 6129.904
1157.088, 6137.088
1157.570, 6082.516
1158.052, 6060.954
1158.534, 6079.937
1159.017, 6097.215
1159.499, 6109.552
1159.981, 6130.293
1160.463, 6165.796
1160.945, 6188.847
1161.427, 6177.728
1161.909, 6153.836
1162.391, 6153.883
1162.874, 6170.596
1163.356, 6180.972
1163.838, 6186.501
1164.320, 6191.246
1164.802, 6195.766
1165.284, 6197.920
1165.766, 6198.023
1166.248, 6204.492
1166.730, 6224.153
1167.213, 6248.840
1167.695, 6278.517
1168.177, 6303.277
1168.659, 6312.549
1169.141, 6312.658
1169.623, 6308.218
1170.105, 6302.846
1170.587, 6302.146
1171.069, 6306.399
1171.552, 6321.531
1172.034, 6364.542
1172.516, 6393.559
1172.998, 6385.981
1173.480, 6388.156
1173.962, 6433.212
1174.444, 6476.495
1174.926, 6464.314
1175.409, 6418.293
1175.891, 6417.584
1176.373, 6466.885
1176.855, 6490.889
1177.337, 6488.837
1177.819, 6503.744
1178.301, 6542.927
1178.783, 6567.635
1179.266, 6558.947
1179.748, 6548.746
1180.230, 6575.398
1180.712, 6611.787
1181.194, 6607.473
1181.676, 6586.334
1182.158, 6588.764
1182.640, 6607.802
1183.122, 6625.974
1183.604, 6639.110
1184.087, 6646.604
1184.569, 6647.389
1185.051, 6648.943
1185.533, 6652.920
1186.015, 6660.785
1186.497, 6675.026
1186.979, 6691.421
1187.461, 6707.379
1187.944, 6723.563
1188.426, 6743.323
1188.908, 6764.890
1189.390, 6775.806
1189.872, 6770.741
1190.354, 6773.820
1190.836, 6785.380
1191.318, 6805.025
1191.801, 6833.990
1192.283, 6863.013
1192.765, 6887.750
1193.247, 6900.984
1193.729, 6888.166
1194.211, 6865.864
1194.693, 6881.716
1195.175, 6918.387
1195.657, 6922.137
1196.140, 6906.253
1196.622, 6924.910
1197.104, 6978.775
1197.586, 7016.215
1198.068, 7013.634
1198.550, 7001.456
1199.032, 6982.602
1199.514, 6980.579
1199.996, 7019.624
1200.479, 7069.534
1200.961, 7125.867
1201.443, 7165.999
1201.925, 7139.579
1202.407, 7060.669
1202.889, 7047.387
1203.371, 7129.747
1203.853, 7181.798
1204.336, 7194.562
1204.818, 7206.922
1205.300, 7228.644
1205.782, 7239.061
1206.264, 7224.656
1206.746, 7210.582
1207.228, 7230.538
1207.710, 7265.348
1208.193, 7261.709
1208.675, 7235.175
1209.157, 7224.560
1209.639, 7232.990
1210.121, 7272.121
1210.603, 7332.651
1211.085, 7371.346
1211.567, 7370.792
1212.049, 7369.207
1212.531, 7394.896
1213.014, 7419.455
1213.496, 7429.729
1213.978, 7431.583
1214.460, 7420.720
1214.942, 7409.884
1215.424, 7415.067
1215.906, 7433.570
1216.388, 7454.666
1216.871, 7480.408
1217.353, 7493.726
1217.835, 7488.497
1218.317, 7499.503
1218.799, 7534.703
1219.281, 7563.318
1219.763, 7572.279
1220.245, 7576.037
1220.728, 7587.346
1221.210, 7603.409
1221.692, 7620.346
1222.174, 7637.717
1222.656, 7657.687
1223.138, 7675.892
1223.620, 7679.830
1224.102, 7674.272
1224.584, 7674.520
1225.067, 7684.812
1225.549, 7703.224
1226.031, 7741.484
##END=



