##NAMES=Alloclasite
##RRUFFID=R110002
##IDEAL CHEMISTRY=Co^3+^(AsS)^3-^
##LOCALITY=Bou Azzer, Morocco
##OWNER=RRUFF
##SOURCE=Marcus Origlieri
##DESCRIPTION=Aggregate of steel-gray prismatic to platy crystals associated with spherocobaltite
##STATUS=The identification of this mineral has been confirmed by single-crystal X-ray diffraction.
##URL=rruff.info/R110002
167.7441, 25.09080
168.2262, 24.10580
168.7083, 22.47097
169.1904, 21.57136
169.6725, 21.63096
170.1547, 21.81203
170.6368, 21.79219
171.1189, 21.63022
171.6010, 21.57592
172.0831, 21.90812
172.5652, 22.25555
173.0474, 21.87715
173.5295, 20.39181
174.0116, 18.91203
174.4937, 18.37344
174.9758, 18.77177
175.4579, 19.21508
175.9401, 19.20213
176.4222, 19.10661
176.9043, 19.38328
177.3864, 20.22196
177.8685, 21.19369
178.3506, 21.75702
178.8328, 21.83642
179.3149, 21.76553
179.7970, 21.63667
180.2791, 21.42910
180.7612, 21.03424
181.2433, 20.35875
181.7255, 19.67747
182.2076, 19.64926
182.6897, 20.75712
183.1718, 21.64747
183.6539, 22.10311
184.1360, 22.21929
184.6181, 21.98897
185.1003, 21.38163
185.5824, 20.59009
186.0645, 20.33035
186.5466, 21.46652
187.0287, 22.07807
187.5108, 21.44379
187.9930, 20.27655
188.4751, 19.43756
188.9572, 19.40737
189.4393, 20.10495
189.9214, 21.12008
190.4035, 23.72796
190.8857, 25.23914
191.3678, 24.36810
191.8499, 22.10614
192.3320, 20.07512
192.8141, 19.20326
193.2962, 19.42420
193.7784, 20.32770
194.2605, 22.82827
194.7426, 24.88113
195.2247, 25.64277
195.7068, 25.36563
196.1889, 24.77177
196.6711, 24.19610
197.1532, 23.69799
197.6353, 23.49369
198.1174, 23.60462
198.5995, 23.94799
199.0816, 24.69160
199.5638, 25.74819
200.0459, 26.52649
200.5280, 26.63210
201.0101, 26.18311
201.4922, 25.67734
201.9743, 25.05182
202.4565, 24.45042
202.9386, 24.01090
203.4207, 23.73587
203.9028, 23.47811
204.3849, 22.93988
204.8670, 22.46467
205.3492, 22.64529
205.8313, 23.97244
206.3134, 25.49417
206.7955, 25.83956
207.2776, 24.70593
207.7597, 23.80653
208.2419, 24.13790
208.7240, 25.02609
209.2061, 25.93880
209.6882, 26.78000
210.1703, 27.42438
210.6524, 27.58348
211.1346, 27.05255
211.6167, 26.55477
212.0988, 26.33927
212.5809, 26.25562
213.0630, 26.18857
213.5451, 26.10502
214.0273, 25.96710
214.5094, 25.69486
214.9915, 25.29637
215.4736, 24.72046
215.9557, 23.88824
216.4378, 22.94122
216.9200, 21.93865
217.4021, 20.90091
217.8842, 19.96040
218.3663, 19.50131
218.8484, 19.68111
219.3305, 20.19533
219.8127, 21.51153
220.2948, 22.91372
220.7769, 23.58294
221.2590, 23.14572
221.7411, 21.97202
222.2232, 21.16232
222.7054, 21.50882
223.1875, 21.25384
223.6696, 19.17709
224.1517, 16.83505
224.6338, 16.38763
225.1159, 18.81166
225.5980, 22.83967
226.0802, 24.78148
226.5623, 22.25197
227.0444, 20.40413
227.5265, 19.98388
228.0086, 20.33908
228.4907, 20.64521
228.9729, 20.55031
229.4550, 20.26537
229.9371, 20.35016
230.4192, 21.00238
230.9013, 21.68433
231.3834, 22.40244
231.8656, 23.08204
232.3477, 23.67179
232.8298, 24.18337
233.3119, 24.47175
233.7940, 24.10976
234.2761, 22.90457
234.7583, 21.70591
235.2404, 20.63919
235.7225, 19.72933
236.2046, 18.94756
236.6867, 18.21634
237.1688, 17.78371
237.6510, 18.36634
238.1331, 20.19813
238.6152, 21.48057
239.0973, 21.15032
239.5794, 19.87138
240.0615, 19.12131
240.5437, 19.42973
241.0258, 20.08610
241.5079, 20.04777
241.9900, 19.31859
242.4721, 18.79715
242.9542, 18.92729
243.4364, 19.54860
243.9185, 20.38471
244.4006, 21.66594
244.8827, 22.59768
245.3648, 22.25319
245.8469, 20.79097
246.3290, 19.18792
246.8112, 17.37122
247.2933, 15.72933
247.7754, 15.72912
248.2575, 18.56561
248.7396, 21.36024
249.2217, 21.38458
249.7039, 19.39710
250.1860, 17.96194
250.6681, 19.32748
251.1502, 22.49769
251.6323, 23.56063
252.1144, 21.18087
252.5966, 18.54596
253.0787, 17.79119
253.5608, 18.25072
254.0429, 18.38831
254.5250, 16.81341
255.0071, 14.21413
255.4893, 13.42040
255.9714, 15.48538
256.4535, 17.75602
256.9356, 19.20934
257.4177, 20.01201
257.8998, 20.41036
258.3820, 20.44963
258.8641, 20.21664
259.3462, 20.03648
259.8283, 20.05467
260.3104, 19.86661
260.7925, 19.11801
261.2747, 18.17971
261.7568, 17.60208
262.2389, 17.73670
262.7210, 18.24890
263.2031, 18.07535
263.6852, 16.53663
264.1674, 15.48533
264.6495, 15.63532
265.1316, 16.29916
265.6137, 16.82307
266.0958, 16.93950
266.5779, 16.66164
267.0601, 15.89477
267.5422, 13.94818
268.0243, 12.81320
268.5064, 13.21002
268.9885, 14.17000
269.4706, 14.89317
269.9528, 15.09070
270.4349, 14.93128
270.9170, 14.64517
271.3991, 13.82290
271.8812, 13.74290
272.3633, 15.36280
272.8455, 17.07719
273.3276, 17.38094
273.8097, 16.03140
274.2918, 14.22270
274.7739, 13.87577
275.2560, 16.06005
275.7382, 17.44830
276.2202, 17.38839
276.7024, 17.19271
277.1845, 18.00720
277.6666, 19.80482
278.1487, 21.41189
278.6308, 21.27591
279.1129, 18.64316
279.5951, 16.86984
280.0772, 16.26400
280.5593, 16.07033
281.0414, 15.85895
281.5235, 15.65384
282.0056, 15.81953
282.4878, 16.81843
282.9699, 18.90141
283.4520, 19.98780
283.9341, 19.39185
284.4162, 18.63055
284.8983, 18.38105
285.3805, 18.50097
285.8626, 18.41241
286.3447, 17.60712
286.8268, 16.10974
287.3089, 15.28310
287.7910, 15.74042
288.2732, 16.15173
288.7553, 16.01491
289.2374, 15.56420
289.7195, 15.31242
290.2016, 15.58892
290.6837, 16.27048
291.1659, 16.67443
291.6480, 16.97239
292.1301, 16.79336
292.6122, 15.32732
293.0943, 13.53106
293.5764, 12.96203
294.0586, 14.37576
294.5407, 16.85940
295.0228, 17.94224
295.5049, 15.81776
295.9870, 14.44780
296.4691, 14.23185
296.9513, 14.72403
297.4334, 15.76918
297.9155, 17.26260
298.3976, 18.53993
298.8797, 18.41038
299.3618, 15.56647
299.8440, 13.73076
300.3261, 13.37816
300.8082, 13.71931
301.2903, 14.28370
301.7724, 14.92015
302.2545, 15.48666
302.7367, 15.80011
303.2188, 15.76026
303.7009, 15.84080
304.1830, 16.34139
304.6651, 16.71225
305.1472, 16.60257
305.6294, 16.01533
306.1115, 15.06743
306.5936, 13.69396
307.0757, 11.81409
307.5578, 11.52000
308.0399, 14.37606
308.5221, 16.97196
309.0042, 17.72842
309.4863, 16.98907
309.9684, 15.71751
310.4505, 14.40213
310.9326, 13.17542
311.4148, 13.07650
311.8969, 15.15207
312.3790, 16.95945
312.8611, 18.04864
313.3432, 18.46690
313.8253, 18.21238
314.3075, 17.24292
314.7896, 15.85917
315.2717, 14.81883
315.7538, 14.12729
316.2359, 13.77809
316.7180, 14.04105
317.2001, 14.52994
317.6823, 14.86237
318.1644, 14.92314
318.6465, 14.75690
319.1286, 14.40670
319.6107, 13.73090
320.0928, 13.21904
320.5750, 12.58448
321.0571, 12.29818
321.5392, 12.96217
322.0213, 14.51752
322.5034, 16.19938
322.9855, 17.29153
323.4677, 17.77609
323.9498, 17.57895
324.4319, 16.03708
324.9140, 14.53684
325.3961, 13.88156
325.8782, 13.89559
326.3604, 13.85651
326.8425, 13.21920
327.3246, 12.07470
327.8067, 11.46177
328.2888, 11.40392
328.7709, 11.75812
329.2531, 12.65823
329.7352, 13.92058
330.2173, 15.48313
330.6994, 17.37057
331.1815, 19.09832
331.6636, 19.33897
332.1458, 16.13997
332.6279, 13.81746
333.1100, 12.98415
333.5921, 12.85284
334.0742, 12.67739
334.5563, 12.24599
335.0385, 11.79830
335.5206, 11.71990
336.0027, 12.31790
336.4848, 12.47202
336.9669, 11.77840
337.4490, 11.00873
337.9312, 10.58913
338.4133, 10.57795
338.8954, 10.92415
339.3775, 11.67032
339.8596, 12.91287
340.3417, 13.33318
340.8239, 12.14196
341.3060, 11.06502
341.7881, 10.53138
342.2702, 10.58583
342.7523, 11.33490
343.2344, 12.91235
343.7166, 15.04434
344.1987, 16.37855
344.6808, 16.20328
345.1629, 15.97009
345.6450, 15.58357
346.1271, 15.29083
346.6093, 15.45116
347.0914, 16.17390
347.5735, 17.12167
348.0556, 17.63307
348.5377, 17.41569
349.0198, 17.27079
349.5020, 17.40776
349.9841, 17.45787
350.4662, 17.08479
350.9483, 16.30874
351.4304, 15.46670
351.9125, 14.94915
352.3947, 14.83439
352.8768, 14.52490
353.3589, 13.74472
353.8410, 13.04620
354.3231, 12.51708
354.8052, 12.22481
355.2874, 12.30656
355.7695, 12.91809
356.2516, 13.91902
356.7337, 14.52284
357.2158, 14.59733
357.6979, 14.40177
358.1800, 13.81153
358.6621, 13.07106
359.1443, 12.39544
359.6264, 11.86541
360.1085, 11.53106
360.5906, 11.42992
361.0727, 11.42764
361.5548, 12.04907
362.0370, 14.43010
362.5191, 16.59267
363.0012, 17.04033
363.4833, 15.80289
363.9654, 14.22805
364.4475, 13.72164
364.9297, 14.36352
365.4118, 14.71160
365.8939, 14.30304
366.3760, 14.11249
366.8581, 14.72794
367.3402, 15.83529
367.8224, 16.79928
368.3045, 17.28049
368.7866, 17.33397
369.2687, 17.06343
369.7508, 16.31919
370.2329, 15.57707
370.7151, 14.82021
371.1972, 14.22479
371.6793, 14.00976
372.1614, 14.26322
372.6435, 14.73872
373.1256, 15.27862
373.6078, 15.91851
374.0899, 16.07918
374.5720, 15.15903
375.0541, 14.13757
375.5362, 13.72330
376.0183, 13.90492
376.5005, 14.30357
376.9826, 14.87786
377.4647, 15.49948
377.9468, 15.67477
378.4289, 15.28568
378.9110, 14.63679
379.3932, 13.36133
379.8753, 12.00801
380.3574, 11.81399
380.8395, 14.02646
381.3216, 16.77212
381.8037, 17.71541
382.2859, 16.83368
382.7680, 15.38511
383.2501, 13.37567
383.7322, 11.48205
384.2143, 10.78213
384.6964, 11.61168
385.1786, 12.52839
385.6607, 12.54117
386.1428, 12.00623
386.6249, 11.94893
387.1070, 12.72523
387.5891, 13.68721
388.0713, 14.07406
388.5534, 13.94254
389.0355, 13.70503
389.5176, 13.46282
389.9997, 13.14019
390.4818, 12.37742
390.9640, 11.23304
391.4461, 10.77300
391.9282, 12.02112
392.4103, 14.53775
392.8924, 15.88599
393.3745, 15.25957
393.8567, 14.46086
394.3388, 14.13181
394.8209, 14.13219
395.3030, 14.29154
395.7851, 14.58753
396.2672, 14.75361
396.7494, 14.21319
397.2315, 12.29039
397.7136, 11.32905
398.1957, 12.16443
398.6778, 13.49897
399.1599, 14.44816
399.6420, 14.83820
400.1241, 14.63295
400.6063, 13.65584
401.0884, 11.85022
401.5705, 11.15869
402.0526, 12.54511
402.5347, 13.80898
403.0168, 14.14131
403.4990, 13.93521
403.9811, 13.94309
404.4632, 14.53248
404.9453, 15.34845
405.4274, 15.48831
405.9095, 14.32168
406.3917, 13.53031
406.8738, 13.24849
407.3559, 13.25648
407.8380, 13.63834
408.3201, 14.25257
408.8022, 14.54437
409.2844, 13.74780
409.7665, 11.73176
410.2486, 10.82958
410.7307, 12.24225
411.2128, 13.51836
411.6949, 13.83081
412.1771, 13.55142
412.6592, 13.32511
413.1413, 13.46998
413.6234, 13.83720
414.1055, 14.21790
414.5876, 14.81515
415.0698, 14.79815
415.5519, 13.01433
416.0340, 11.18923
416.5161, 10.73214
416.9982, 11.73189
417.4803, 12.83058
417.9625, 12.70735
418.4446, 11.58068
418.9267, 10.98578
419.4088, 11.20500
419.8909, 11.65111
420.3730, 12.06959
420.8552, 12.41949
421.3373, 12.56966
421.8194, 12.25533
422.3015, 11.95088
422.7836, 12.45983
423.2657, 13.76507
423.7479, 14.53994
424.2300, 13.88745
424.7121, 12.75269
425.1942, 12.76643
425.6763, 14.21520
426.1584, 15.30937
426.6406, 14.96749
427.1227, 13.86326
427.6048, 13.01877
428.0869, 12.57999
428.5690, 12.68273
429.0511, 13.81273
429.5333, 15.90159
430.0154, 16.53947
430.4975, 14.51313
430.9796, 12.16768
431.4617, 10.43070
431.9438, 9.414884
432.4260, 9.547286
432.9081, 11.20929
433.3902, 13.42169
433.8723, 13.77997
434.3544, 10.18328
434.8365, 8.210927
435.3187, 9.247356
435.8008, 11.17400
436.2829, 12.29941
436.7650, 12.42780
437.2471, 12.30019
437.7292, 12.60909
438.2114, 13.37073
438.6935, 13.96983
439.1756, 14.51310
439.6577, 14.76855
440.1398, 14.38536
440.6219, 13.77469
441.1040, 13.59599
441.5862, 14.12368
442.0683, 14.81589
442.5504, 14.54802
443.0325, 12.82078
443.5146, 11.66847
443.9967, 11.90654
444.4789, 12.22525
444.9610, 11.78306
445.4431, 10.75291
445.9252, 9.960593
446.4073, 10.06595
446.8894, 10.87248
447.3716, 11.76250
447.8537, 13.02272
448.3358, 13.63858
448.8179, 12.47515
449.3000, 10.73075
449.7821, 9.674771
450.2643, 9.618072
450.7464, 10.01489
451.2285, 10.72752
451.7106, 11.59752
452.1927, 11.60838
452.6748, 10.12242
453.1570, 8.640208
453.6391, 9.217984
454.1212, 11.34059
454.6033, 12.55780
455.0854, 11.48122
455.5675, 9.868563
456.0497, 9.222933
456.5318, 9.492748
457.0139, 10.18122
457.4960, 11.23212
457.9781, 12.30138
458.4602, 12.28647
458.9424, 10.31265
459.4245, 9.250363
459.9066, 10.52764
460.3887, 12.43884
460.8708, 13.06160
461.3529, 12.21526
461.8351, 11.22699
462.3172, 11.40134
462.7993, 12.79300
463.2814, 13.59913
463.7635, 13.07358
464.2456, 12.85988
464.7278, 13.89313
465.2099, 15.31389
465.6920, 15.78971
466.1741, 14.83067
466.6562, 13.28688
467.1383, 12.64496
467.6205, 13.28561
468.1026, 13.62885
468.5847, 13.27444
469.0668, 12.92639
469.5489, 13.11774
470.0310, 13.59988
470.5132, 13.65583
470.9953, 12.74468
471.4774, 11.21190
471.9595, 9.772703
472.4416, 8.236201
472.9237, 7.516774
473.4059, 8.682323
473.8880, 10.39382
474.3701, 11.52108
474.8522, 11.93305
475.3343, 11.94575
475.8164, 11.37975
476.2986, 10.59668
476.7807, 10.68015
477.2628, 11.92590
477.7449, 13.06734
478.2270, 12.95191
478.7091, 11.91316
479.1913, 11.42662
479.6734, 11.95150
480.1555, 12.61237
480.6376, 12.99125
481.1197, 13.17701
481.6018, 13.42686
482.0839, 13.84275
482.5660, 14.10489
483.0482, 13.69347
483.5303, 12.28480
484.0124, 11.39970
484.4945, 11.43859
484.9766, 11.59178
485.4587, 11.32111
485.9409, 10.80855
486.4230, 10.62499
486.9051, 11.11864
487.3872, 11.97281
487.8693, 12.22642
488.3514, 11.37822
488.8336, 10.87215
489.3157, 10.87629
489.7978, 11.14739
490.2799, 11.74528
490.7620, 12.52010
491.2441, 12.98934
491.7263, 12.63579
492.2084, 11.66262
492.6905, 11.03622
493.1726, 10.78726
493.6547, 10.81616
494.1368, 11.49378
494.6190, 12.23005
495.1011, 12.28213
495.5832, 11.42836
496.0653, 10.63768
496.5474, 10.95243
497.0295, 11.92489
497.5117, 12.00479
497.9938, 10.73596
498.4759, 9.561078
498.9580, 9.987685
499.4401, 11.61541
499.9222, 12.25022
500.4044, 10.87476
500.8865, 9.395633
501.3686, 8.648227
501.8507, 8.522805
502.3328, 8.851257
502.8149, 9.589267
503.2971, 10.52764
503.7792, 11.36250
504.2613, 12.02977
504.7434, 12.86208
505.2255, 14.49632
505.7076, 15.65466
506.1898, 15.55381
506.6719, 14.52804
507.1540, 13.16430
507.6361, 11.73350
508.1182, 10.52409
508.6003, 10.34971
509.0825, 11.77910
509.5646, 12.71597
510.0467, 12.50065
510.5288, 12.13387
511.0109, 12.15480
511.4930, 12.51791
511.9752, 12.87727
512.4573, 12.96786
512.9394, 12.94267
513.4215, 13.31765
513.9036, 14.24481
514.3857, 14.56557
514.8679, 13.27249
515.3500, 11.56017
515.8321, 11.13183
516.3142, 12.19162
516.7963, 12.94783
517.2784, 12.17343
517.7606, 10.85609
518.2427, 10.46521
518.7248, 11.09466
519.2069, 11.88653
519.6890, 12.40712
520.1711, 12.58055
520.6533, 11.96849
521.1354, 9.249173
521.6175, 7.614168
522.0996, 8.239146
522.5817, 9.818176
523.0638, 11.32382
523.5460, 12.43562
524.0281, 12.93405
524.5102, 12.45341
524.9923, 11.04399
525.4744, 10.54006
525.9565, 11.97930
526.4387, 12.98759
526.9208, 12.87254
527.4029, 12.22714
527.8850, 11.60953
528.3671, 11.17630
528.8492, 10.88339
529.3314, 10.77290
529.8135, 10.81042
530.2956, 10.57455
530.7777, 9.803619
531.2598, 9.257877
531.7419, 9.669195
532.2241, 10.56372
532.7062, 11.23840
533.1883, 11.64952
533.6704, 11.64905
534.1525, 10.66342
534.6346, 9.235672
535.1168, 8.729769
535.5989, 9.496908
536.0810, 10.78161
536.5631, 12.00303
537.0452, 13.16517
537.5273, 13.42004
538.0095, 11.93714
538.4916, 10.56151
538.9737, 10.12006
539.4558, 10.16308
539.9379, 9.771631
540.4200, 8.712459
540.9022, 7.933269
541.3843, 9.041188
541.8664, 12.65747
542.3485, 14.63255
542.8306, 13.39573
543.3127, 12.13851
543.7948, 12.12813
544.2769, 12.65612
544.7590, 12.47875
545.2411, 11.05954
545.7233, 9.414271
546.2054, 8.907227
546.6875, 9.455626
547.1696, 9.866583
547.6517, 9.949981
548.1339, 9.884904
548.6160, 9.686997
549.0981, 9.443289
549.5802, 9.428773
550.0623, 9.598613
550.5444, 10.11258
551.0266, 11.88284
551.5087, 14.01216
551.9908, 13.98350
552.4729, 10.95115
552.9550, 7.357448
553.4371, 6.369739
553.9193, 8.617767
554.4014, 9.656257
554.8835, 8.148005
555.3656, 7.089598
555.8477, 8.084790
556.3298, 10.04970
556.8120, 11.25725
557.2941, 11.09800
557.7762, 10.40837
558.2583, 10.44182
558.7404, 11.33124
559.2225, 11.81673
559.7047, 11.63992
560.1868, 11.33205
560.6689, 11.25697
561.1510, 11.20883
561.6331, 10.71177
562.1152, 9.370927
562.5974, 8.273181
563.0795, 8.765887
563.5616, 10.38733
564.0437, 11.47849
564.5258, 11.70557
565.0079, 11.39481
565.4901, 10.70581
565.9722, 9.661752
566.4543, 8.825720
566.9364, 8.025599
567.4185, 7.624526
567.9006, 7.902781
568.3828, 8.610269
568.8649, 9.480587
569.3470, 10.40681
569.8291, 11.29830
570.3112, 12.08762
570.7933, 12.80172
571.2755, 12.95618
571.7576, 11.95482
572.2397, 11.13011
572.7218, 10.84472
573.2039, 10.87185
573.6860, 11.02405
574.1682, 11.24428
574.6503, 11.35530
575.1324, 11.07749
575.6145, 10.52599
576.0966, 10.20817
576.5787, 10.16490
577.0609, 10.32996
577.5430, 10.82570
578.0251, 11.45282
578.5072, 11.77463
578.9893, 11.82495
579.4714, 11.47380
579.9536, 10.17829
580.4357, 8.711470
580.9178, 8.109588
581.3999, 8.429009
581.8820, 8.971966
582.3641, 9.232413
582.8463, 9.244905
583.3284, 9.227355
583.8105, 9.512201
584.2926, 9.251222
584.7747, 7.297081
585.2568, 5.617022
585.7390, 6.178755
586.2211, 8.667441
586.7032, 10.90924
587.1853, 11.16432
587.6674, 10.20405
588.1495, 10.19480
588.6317, 11.31265
589.1138, 12.31901
589.5959, 12.98185
590.0780, 13.18613
590.5601, 12.53637
591.0422, 11.05096
591.5244, 10.26946
592.0065, 11.30234
592.4886, 12.73731
592.9707, 13.30196
593.4528, 13.14139
593.9349, 12.94046
594.4171, 13.00305
594.8992, 13.14100
595.3813, 13.02163
595.8634, 12.56772
596.3455, 12.07211
596.8276, 11.30176
597.3098, 10.73778
597.7919, 10.57961
598.2740, 10.76587
598.7561, 11.26395
599.2382, 12.07961
599.7203, 12.86288
600.2025, 13.08935
600.6846, 12.77545
601.1667, 12.54254
601.6488, 12.58943
602.1309, 12.44576
602.6130, 11.50853
603.0952, 10.18523
603.5773, 9.318444
604.0594, 9.067249
604.5415, 9.176684
605.0236, 9.630495
605.5057, 10.31721
605.9879, 11.38504
606.4700, 12.73115
606.9521, 13.22522
607.4342, 11.70517
607.9163, 8.581533
608.3984, 6.977681
608.8806, 8.203738
609.3627, 9.223845
609.8448, 9.669181
610.3269, 9.907043
610.8090, 10.23083
611.2911, 10.64435
611.7733, 10.95323
612.2554, 10.92749
612.7375, 10.79222
613.2196, 11.23226
613.7017, 12.34646
614.1838, 12.95651
614.6660, 12.44155
615.1481, 11.60332
615.6302, 11.47873
616.1123, 12.00733
616.5944, 12.23618
617.0765, 11.56528
617.5587, 10.91899
618.0408, 11.01211
618.5229, 11.59693
619.0050, 12.20078
619.4871, 12.64664
619.9692, 12.74663
620.4514, 12.18139
620.9335, 10.82913
621.4156, 9.715837
621.8977, 8.680248
622.3798, 8.108932
622.8619, 8.292952
623.3441, 8.892162
623.8262, 9.625408
624.3083, 10.40875
624.7904, 11.01528
625.2725, 11.18871
625.7546, 11.04183
626.2367, 10.86954
626.7188, 10.68614
627.2009, 10.43230
627.6830, 9.923809
628.1652, 9.444534
628.6473, 9.793117
629.1294, 11.33481
629.6115, 12.37588
630.0936, 12.63163
630.5757, 12.34320
631.0579, 11.24777
631.5400, 9.769289
632.0221, 8.934752
632.5042, 9.283138
632.9863, 10.20541
633.4684, 10.54019
633.9506, 10.13918
634.4327, 9.867157
634.9148, 9.546977
635.3969, 9.666051
635.8790, 11.12070
636.3611, 12.96605
636.8433, 13.42742
637.3254, 11.71604
637.8075, 9.690433
638.2896, 8.488959
638.7717, 7.973960
639.2538, 8.057086
639.7360, 8.697226
640.2181, 9.255200
640.7002, 9.236897
641.1823, 8.820216
641.6644, 8.730035
642.1465, 9.032826
642.6287, 9.604523
643.1108, 11.40739
643.5929, 12.65382
644.0750, 11.33432
644.5571, 8.387818
645.0392, 6.612342
645.5214, 7.702040
646.0035, 10.26699
646.4856, 12.14718
646.9677, 13.34393
647.4498, 14.22999
647.9319, 15.07750
648.4141, 15.16722
648.8962, 13.19254
649.3783, 9.866263
649.8604, 7.973636
650.3425, 8.563022
650.8246, 9.479226
651.3068, 9.894742
651.7889, 10.16619
652.2710, 10.94686
652.7531, 12.17064
653.2352, 12.94678
653.7173, 12.52717
654.1995, 11.19232
654.6816, 10.07124
655.1637, 9.137493
655.6458, 8.490616
656.1279, 8.375599
656.6100, 8.369616
657.0922, 8.131206
657.5743, 7.782784
658.0564, 7.789010
658.5385, 8.542285
659.0206, 9.417644
659.5027, 9.870120
659.9849, 9.964161
660.4670, 9.768159
660.9491, 9.282459
661.4312, 8.955881
661.9133, 9.201874
662.3954, 9.994092
662.8776, 10.93873
663.3597, 12.72523
663.8418, 13.74447
664.3239, 13.08342
664.8060, 12.16916
665.2881, 12.29588
665.7703, 13.34581
666.2524, 14.28731
666.7345, 14.53403
667.2166, 14.20194
667.6987, 13.33916
668.1808, 11.96451
668.6630, 10.79861
669.1451, 10.05758
669.6272, 9.447348
670.1093, 8.463877
670.5914, 7.242851
671.0735, 7.161424
671.5557, 9.858374
672.0378, 11.71537
672.5199, 10.61336
673.0020, 8.627196
673.4841, 8.311934
673.9662, 9.740116
674.4484, 10.90874
674.9305, 10.11415
675.4126, 8.151812
675.8947, 7.845984
676.3768, 9.664396
676.8589, 11.05242
677.3411, 11.22731
677.8232, 11.13419
678.3053, 11.67951
678.7874, 12.62799
679.2695, 13.10779
679.7516, 12.90073
680.2338, 12.20361
680.7159, 10.42708
681.1980, 8.505281
681.6801, 8.185424
682.1622, 9.604060
682.6443, 11.23818
683.1265, 11.87956
683.6086, 11.65731
684.0907, 11.10044
684.5728, 9.683458
685.0549, 9.086544
685.5370, 10.85583
686.0192, 12.33399
686.5013, 11.37559
686.9834, 8.830911
687.4655, 7.371231
687.9476, 8.504566
688.4297, 10.10188
688.9119, 9.876063
689.3940, 8.741133
689.8761, 9.174058
690.3582, 11.56322
690.8403, 13.68144
691.3224, 13.74812
691.8046, 12.19233
692.2867, 11.03857
692.7688, 10.43114
693.2509, 10.01609
693.7330, 9.812862
694.2151, 9.752121
694.6973, 9.793963
695.1794, 9.943929
695.6615, 10.29196
696.1436, 10.97784
696.6257, 11.51984
697.1078, 11.24441
697.5900, 10.37481
698.0721, 9.629322
698.5542, 9.101788
699.0363, 8.858460
699.5184, 8.990919
700.0005, 9.409989
700.4827, 9.800273
700.9648, 10.01776
701.4469, 10.44693
701.9290, 11.83108
702.4111, 12.73362
702.8932, 11.81117
703.3754, 9.833776
703.8575, 8.366311
704.3396, 8.056110
704.8217, 8.478475
705.3038, 9.441172
705.7859, 10.76319
706.2681, 11.57218
706.7502, 11.77311
707.2323, 11.58148
707.7144, 10.92753
708.1965, 10.11211
708.6786, 9.867206
709.1607, 10.40735
709.6428, 10.85261
710.1249, 10.90749
710.6071, 11.09302
711.0892, 12.00660
711.5713, 13.16207
712.0534, 13.75470
712.5355, 13.51320
713.0176, 12.73292
713.4998, 11.37564
713.9819, 9.683619
714.4640, 9.050229
714.9461, 9.620021
715.4282, 10.50793
715.9103, 11.68880
716.3925, 12.61161
716.8746, 12.16413
717.3567, 10.14086
717.8388, 8.746945
718.3209, 8.104436
718.8030, 8.200473
719.2852, 9.860120
719.7673, 11.87646
720.2494, 12.57950
720.7315, 11.64735
721.2136, 9.999858
721.6957, 8.045408
722.1779, 6.243070
722.6600, 6.574228
723.1421, 9.316515
723.6242, 11.86367
724.1063, 13.73444
724.5884, 14.73068
725.0706, 14.16286
725.5527, 12.19779
726.0348, 11.17443
726.5169, 11.97143
726.9990, 12.79171
727.4811, 13.24617
727.9633, 13.28992
728.4454, 12.59541
728.9275, 11.37018
729.4096, 10.47932
729.8917, 10.56624
730.3738, 11.20850
730.8560, 11.49859
731.3381, 11.42277
731.8202, 11.51456
732.3023, 11.99964
732.7844, 12.31048
733.2665, 11.86417
733.7487, 10.91360
734.2308, 10.44985
734.7129, 10.82488
735.1950, 11.02069
735.6771, 10.48748
736.1592, 9.990515
736.6414, 10.06536
737.1235, 10.69398
737.6056, 11.86931
738.0877, 13.62154
738.5698, 15.14895
739.0519, 15.21808
739.5341, 13.97292
740.0162, 12.53464
740.4983, 10.78700
740.9804, 9.738832
741.4625, 10.25583
741.9446, 11.44585
742.4268, 11.52629
742.9089, 10.17511
743.3910, 9.483668
743.8731, 10.26625
744.3552, 11.04506
744.8373, 10.95552
745.3195, 10.48657
745.8016, 10.33809
746.2837, 10.68006
746.7658, 11.28093
747.2479, 12.16842
747.7300, 13.04080
748.2122, 12.81753
748.6943, 11.47527
749.1764, 10.67482
749.6585, 11.05202
750.1406, 11.66684
750.6227, 11.51899
751.1049, 10.63605
751.5870, 10.07261
752.0691, 10.12710
752.5512, 10.07174
753.0333, 9.777768
753.5154, 9.323022
753.9976, 8.805770
754.4797, 8.192639
754.9618, 7.192411
755.4439, 5.425094
755.9260, 4.031081
756.4081, 5.044505
756.8903, 7.797282
757.3724, 9.441759
757.8545, 9.595200
758.3366, 9.319445
758.8187, 9.153266
759.3008, 9.149636
759.7830, 9.463397
760.2651, 10.32685
760.7472, 10.96096
761.2293, 11.34999
761.7114, 11.54341
762.1935, 11.24187
762.6757, 10.90414
763.1578, 11.23847
763.6399, 12.37716
764.1220, 13.53489
764.6041, 14.32070
765.0862, 14.68695
765.5684, 14.30201
766.0505, 13.35910
766.5326, 12.89635
767.0147, 13.27408
767.4968, 13.69074
767.9789, 13.23812
768.4611, 11.95059
768.9432, 10.73490
769.4253, 9.586821
769.9074, 8.511290
770.3895, 6.939353
770.8716, 5.929672
771.3538, 6.625782
771.8359, 8.527033
772.3180, 9.968688
772.8001, 10.23771
773.2822, 10.30824
773.7643, 10.95475
774.2465, 11.75325
774.7286, 12.15098
775.2107, 12.07598
775.6928, 11.47579
776.1749, 10.27134
776.6570, 8.959586
777.1392, 8.508725
777.6213, 8.994482
778.1034, 9.861032
778.5855, 11.48630
779.0676, 12.74449
779.5497, 12.95148
780.0319, 12.62416
780.5140, 12.43791
780.9961, 12.42870
781.4782, 12.21341
781.9603, 11.45196
782.4424, 10.72403
782.9246, 10.14153
783.4067, 9.904417
783.8888, 10.62446
784.3709, 12.17427
784.8530, 13.27730
785.3351, 12.80239
785.8173, 11.35986
786.2994, 10.31342
786.7815, 9.666382
787.2636, 9.752589
787.7457, 10.94668
788.2278, 11.81413
788.7100, 11.00436
789.1921, 9.057881
789.6742, 8.153783
790.1563, 8.966967
790.6384, 9.524200
791.1205, 9.746417
791.6026, 9.663409
792.0847, 8.948971
792.5668, 8.061760
793.0490, 7.819901
793.5311, 8.451797
794.0132, 9.152514
794.4953, 9.080527
794.9774, 8.729984
795.4595, 8.918947
795.9417, 9.644191
796.4238, 10.92247
796.9059, 12.81161
797.3880, 14.47745
797.8701, 14.92430
798.3522, 14.24536
798.8344, 14.01145
799.3165, 14.91708
799.7986, 14.92736
800.2807, 12.62711
800.7628, 10.32121
801.2449, 9.524486
801.7271, 9.814754
802.2092, 9.933256
802.6913, 9.441065
803.1734, 9.117894
803.6555, 9.666704
804.1376, 10.37013
804.6198, 10.31354
805.1019, 9.706877
805.5840, 9.276921
806.0661, 9.345866
806.5482, 9.861538
807.0303, 11.00266
807.5125, 12.63247
807.9946, 13.30023
808.4767, 12.83491
808.9588, 12.40144
809.4409, 12.47581
809.9230, 12.58751
810.4052, 12.13758
810.8873, 11.12548
811.3694, 10.39021
811.8515, 9.772442
812.3336, 9.642362
812.8157, 10.56607
813.2979, 11.59786
813.7800, 11.84450
814.2621, 11.54283
814.7442, 11.59470
815.2263, 12.47331
815.7084, 13.29576
816.1906, 13.04572
816.6727, 12.16761
817.1548, 11.44569
817.6369, 10.97236
818.1190, 10.87726
818.6011, 11.22564
819.0833, 11.92780
819.5654, 12.97801
820.0475, 14.41895
820.5296, 14.96980
821.0117, 14.41190
821.4938, 13.38986
821.9760, 11.15174
822.4581, 9.325786
822.9402, 9.777838
823.4223, 11.94559
823.9044, 13.15175
824.3865, 12.32844
824.8687, 11.32805
825.3508, 10.59106
825.8329, 10.21233
826.3150, 10.50941
826.7971, 11.23700
827.2792, 11.74405
827.7614, 11.74239
828.2435, 11.56639
828.7256, 11.68762
829.2077, 11.97890
829.6898, 11.85548
830.1719, 11.30555
830.6541, 10.98145
831.1362, 11.16437
831.6183, 11.53002
832.1004, 11.74435
832.5825, 11.80512
833.0646, 11.50301
833.5468, 10.11040
834.0289, 9.508472
834.5110, 11.04859
834.9931, 12.34480
835.4752, 11.25405
835.9573, 8.792811
836.4395, 7.689378
836.9216, 8.920814
837.4037, 10.58523
837.8858, 12.32423
838.3679, 13.50791
838.8500, 13.21311
839.3322, 11.83327
839.8143, 10.31273
840.2964, 9.017720
840.7785, 7.951604
841.2606, 7.043989
841.7427, 6.411016
842.2249, 6.601572
842.7070, 7.637129
843.1891, 9.050901
843.6712, 10.93607
844.1533, 12.46728
844.6354, 12.84261
845.1176, 12.28391
845.5997, 11.88164
846.0818, 12.22554
846.5639, 11.77210
847.0460, 9.110236
847.5281, 7.195844
848.0103, 7.752302
848.4924, 9.790113
848.9745, 12.02259
849.4566, 14.19408
849.9387, 15.75959
850.4208, 16.75466
850.9030, 16.73749
851.3851, 14.45617
851.8672, 11.14594
852.3493, 9.102500
852.8314, 8.752122
853.3135, 9.282769
853.7957, 10.24891
854.2778, 11.18678
854.7599, 10.71114
855.2420, 8.868160
855.7241, 8.109651
856.2062, 8.833527
856.6884, 10.02086
857.1705, 11.38399
857.6526, 12.53055
858.1347, 12.64540
858.6168, 11.41344
859.0989, 10.56953
859.5811, 10.18065
860.0632, 10.08023
860.5453, 10.50231
861.0274, 10.99086
861.5095, 11.10455
861.9916, 10.89505
862.4738, 10.72276
862.9559, 10.62626
863.4380, 10.76309
863.9201, 11.41935
864.4022, 12.24265
864.8843, 13.05725
865.3665, 13.63652
865.8486, 13.24374
866.3307, 11.60640
866.8128, 9.862824
867.2949, 9.461096
867.7770, 10.14685
868.2592, 10.86032
868.7413, 11.60048
869.2234, 12.44972
869.7055, 13.54190
870.1876, 14.30766
870.6697, 14.26275
871.1519, 13.42046
871.6340, 11.73990
872.1161, 7.943466
872.5981, 5.766206
873.0803, 6.399643
873.5624, 7.601657
874.0445, 8.914338
874.5266, 10.02321
875.0087, 10.46650
875.4908, 10.15492
875.9730, 9.708704
876.4551, 8.957979
876.9372, 8.551288
877.4193, 8.958727
877.9014, 9.917493
878.3835, 11.56409
878.8657, 13.48510
879.3478, 14.21933
879.8299, 12.72029
880.3120, 10.34906
880.7941, 8.506857
881.2762, 7.379857
881.7584, 8.117891
882.2405, 10.59250
882.7226, 12.22494
883.2047, 11.83399
883.6868, 10.36452
884.1689, 8.976758
884.6511, 7.682555
885.1332, 7.014214
885.6153, 7.147451
886.0974, 7.436728
886.5795, 7.860754
887.0616, 8.271516
887.5438, 8.566258
888.0259, 8.760287
888.5080, 8.920220
888.9901, 9.138389
889.4722, 9.103306
889.9543, 8.220903
890.4365, 7.671771
890.9186, 8.404179
891.4007, 9.678485
891.8828, 10.70231
892.3649, 11.24154
892.8470, 10.92256
893.3292, 8.535580
893.8113, 6.464866
894.2934, 7.619059
894.7755, 10.41795
895.2576, 12.42083
895.7397, 13.23838
896.2219, 12.97131
896.7040, 11.64663
897.1861, 9.929612
897.6682, 8.668132
898.1503, 7.873281
898.6324, 7.780588
899.1146, 8.457687
899.5967, 8.722932
900.0788, 8.087515
900.5609, 7.382393
901.0430, 7.377151
901.5251, 8.020624
902.0073, 9.075727
902.4894, 11.32843
902.9715, 12.37766
903.4536, 11.40457
903.9357, 10.01215
904.4178, 8.363786
904.9000, 6.998059
905.3821, 6.864052
905.8642, 8.102282
906.3463, 9.104022
906.8284, 9.436757
907.3105, 9.506151
907.7927, 9.164369
908.2748, 8.886087
908.7569, 9.305851
909.2390, 10.24991
909.7211, 11.03391
910.2032, 11.36090
910.6854, 11.40160
911.1675, 11.43371
911.6496, 11.21396
912.1317, 9.849798
912.6138, 7.852264
913.0959, 7.238141
913.5781, 8.516858
914.0602, 9.903363
914.5423, 9.649324
915.0244, 8.384725
915.5065, 7.927870
915.9886, 8.281677
916.4708, 9.493948
916.9529, 11.90689
917.4350, 13.23314
917.9171, 11.81801
918.3992, 9.360516
918.8813, 9.060461
919.3635, 11.44624
919.8456, 11.80493
920.3277, 8.146321
920.8098, 5.733087
921.2919, 6.683433
921.7740, 8.339706
922.2562, 9.119434
922.7383, 9.111238
923.2204, 8.557905
923.7025, 6.968360
924.1846, 6.184040
924.6667, 7.572685
925.1489, 8.932042
925.6310, 8.747102
926.1131, 7.804762
926.5952, 7.141938
927.0773, 6.971223
927.5594, 7.142846
928.0416, 7.787856
928.5237, 8.389440
929.0058, 8.113507
929.4879, 7.679801
929.9700, 8.697470
930.4521, 10.72435
930.9343, 11.50226
931.4164, 10.12349
931.8985, 8.404826
932.3806, 8.632294
932.8627, 10.14911
933.3448, 10.87401
933.8270, 10.84995
934.3091, 10.43875
934.7912, 9.688022
935.2733, 9.100506
935.7554, 9.053862
936.2375, 9.360944
936.7197, 9.652561
937.2018, 10.03286
937.6839, 9.660358
938.1660, 7.950806
938.6481, 6.993573
939.1302, 7.806517
939.6124, 9.244146
940.0945, 10.39265
940.5766, 11.19706
941.0587, 11.12237
941.5408, 8.898692
942.0229, 7.771530
942.5051, 8.907943
942.9872, 10.05414
943.4693, 10.22163
943.9514, 9.677144
944.4335, 8.522732
944.9156, 6.846138
945.3978, 5.990575
945.8799, 6.861265
946.3620, 8.111317
946.8441, 9.528778
947.3262, 10.61930
947.8083, 10.68749
948.2905, 10.01042
948.7726, 9.294303
949.2547, 8.793447
949.7368, 8.678943
950.2189, 9.471334
950.7010, 10.45021
951.1832, 10.36852
951.6653, 9.742340
952.1474, 10.01494
952.6295, 11.30505
953.1116, 12.48839
953.5938, 12.85566
954.0759, 12.66782
954.5580, 12.41067
955.0400, 11.99848
955.5222, 10.73260
956.0043, 8.618562
956.4864, 6.953467
956.9685, 6.124136
957.4506, 6.239653
957.9327, 7.628421
958.4149, 9.782040
958.8970, 10.25832
959.3791, 8.494394
959.8612, 8.060990
960.3433, 9.831372
960.8254, 11.24380
961.3076, 10.99879
961.7897, 9.939518
962.2718, 9.143570
962.7539, 8.616363
963.2360, 8.108944
963.7181, 7.378252
964.2003, 7.051412
964.6824, 7.701938
965.1645, 8.212318
965.6466, 7.738411
966.1287, 6.831094
966.6108, 6.451854
967.0930, 6.725112
967.5751, 7.086456
968.0572, 7.398958
968.5393, 7.802730
969.0214, 8.651325
969.5035, 9.370939
969.9857, 9.105760
970.4678, 8.302493
970.9499, 8.361323
971.4320, 9.887299
971.9141, 10.94578
972.3962, 9.725835
972.8784, 8.211071
973.3605, 8.173675
973.8426, 9.021306
974.3247, 10.01629
974.8068, 10.83816
975.2889, 11.00546
975.7711, 10.18251
976.2532, 8.994112
976.7353, 7.777788
977.2174, 6.861313
977.6995, 7.085113
978.1816, 8.160871
978.6638, 9.203723
979.1459, 9.889421
979.6280, 9.656827
980.1101, 7.821075
980.5922, 5.560302
981.0743, 5.739637
981.5565, 7.854205
982.0386, 8.587862
982.5207, 7.750482
983.0028, 7.576320
983.4849, 9.032586
983.9670, 10.31430
984.4492, 9.231002
984.9313, 6.496455
985.4134, 5.555891
985.8955, 6.627740
986.3776, 8.022299
986.8597, 9.787091
987.3419, 11.06685
987.8240, 11.41272
988.3061, 11.09995
988.7882, 10.36112
989.2703, 9.204848
989.7524, 8.879086
990.2346, 9.767410
990.7167, 10.65878
991.1988, 11.61490
991.6809, 12.26192
992.1630, 12.43738
992.6451, 12.14839
993.1273, 11.28417
993.6094, 9.731657
994.0915, 8.449268
994.5736, 7.444470
995.0557, 6.709491
995.5378, 6.080266
996.0200, 5.882184
996.5021, 6.607714
996.9842, 7.840843
997.4663, 8.783035
997.9484, 9.315863
998.4305, 9.640031
998.9127, 9.676037
999.3948, 9.670645
999.8769, 9.865168
1000.359, 9.953405
1000.841, 9.382862
1001.323, 8.497065
1001.805, 8.297011
1002.287, 9.169456
1002.770, 9.954777
1003.252, 10.21038
1003.734, 10.00453
1004.216, 8.939641
1004.698, 7.718558
1005.180, 7.074232
1005.662, 7.166461
1006.144, 8.208944
1006.627, 10.46236
1007.109, 12.42523
1007.591, 12.77925
1008.073, 12.23606
1008.555, 11.22506
1009.037, 10.10732
1009.519, 9.726465
1010.001, 9.995037
1010.483, 9.739381
1010.966, 8.222662
1011.448, 6.423114
1011.930, 5.355763
1012.412, 4.901181
1012.894, 4.774327
1013.376, 5.043498
1013.858, 6.270157
1014.340, 8.403168
1014.823, 10.06814
1015.305, 10.25292
1015.787, 9.745143
1016.269, 9.818034
1016.751, 10.30958
1017.233, 10.73217
1017.715, 11.01529
1018.197, 10.67614
1018.679, 9.598612
1019.162, 8.659602
1019.644, 8.623393
1020.126, 7.920398
1020.608, 7.632154
1021.090, 7.637021
1021.572, 7.338458
1022.054, 7.843734
1022.536, 8.272040
1023.018, 8.351632
1023.501, 8.139597
1023.983, 7.564210
1024.465, 6.971037
1024.947, 7.698106
1025.429, 9.940928
1025.911, 11.09064
1026.393, 10.93558
1026.875, 10.25295
1027.358, 9.118178
1027.840, 8.150754
1028.322, 7.983052
1028.804, 8.455567
1029.286, 9.001894
1029.768, 9.797686
1030.250, 9.868242
1030.732, 8.892443
1031.214, 8.021381
1031.697, 7.689497
1032.179, 7.560265
1032.661, 7.283611
1033.143, 6.919000
1033.625, 6.733727
1034.107, 6.521491
1034.589, 7.169338
1035.071, 10.17671
1035.553, 11.17953
1036.036, 6.664561
1036.518, 1.771657
1037.000, 2.157939
1037.482, 6.843055
1037.964, 10.16230
1038.446, 12.16698
1038.928, 12.62188
1039.410, 9.891703
1039.893, 7.830930
1040.375, 8.342409
1040.857, 9.596411
1041.339, 9.732287
1041.821, 9.006855
1042.303, 8.837887
1042.785, 9.798190
1043.267, 10.24379
1043.750, 9.915407
1044.232, 9.303669
1044.714, 7.950922
1045.196, 6.879384
1045.678, 7.675268
1046.160, 9.745023
1046.642, 10.14799
1047.124, 7.309738
1047.606, 5.756005
1048.089, 7.218679
1048.571, 8.666639
1049.053, 8.996500
1049.535, 8.655735
1050.017, 7.922723
1050.499, 6.943341
1050.981, 6.046137
1051.463, 5.023367
1051.945, 4.797781
1052.428, 6.573339
1052.910, 7.964700
1053.392, 7.381373
1053.874, 6.300693
1054.356, 6.126761
1054.838, 6.807045
1055.320, 7.775445
1055.802, 9.058308
1056.285, 10.13270
1056.767, 11.25868
1057.249, 11.65077
1057.731, 9.871463
1058.213, 7.998589
1058.695, 8.544552
1059.177, 10.78935
1059.659, 12.13549
1060.141, 11.91622
1060.624, 11.11197
1061.106, 9.388219
1061.588, 7.980074
1062.070, 7.708430
1062.552, 7.897085
1063.034, 8.108356
1063.516, 8.140006
1063.998, 7.441013
1064.480, 5.654756
1064.963, 4.949386
1065.445, 7.605045
1065.927, 9.818942
1066.409, 9.132275
1066.891, 7.446388
1067.373, 6.104284
1067.855, 5.480258
1068.337, 6.179228
1068.820, 8.435973
1069.302, 10.13223
1069.784, 9.914768
1070.266, 9.474104
1070.748, 10.09991
1071.230, 10.55977
1071.712, 9.073748
1072.194, 6.701119
1072.677, 5.967663
1073.159, 7.388958
1073.641, 8.575424
1074.123, 8.172647
1074.605, 7.685912
1075.087, 7.910724
1075.569, 8.356031
1076.051, 8.472516
1076.533, 8.530622
1077.016, 9.160054
1077.498, 10.43032
1077.980, 11.65727
1078.462, 13.13479
1078.944, 13.66710
1079.426, 11.69798
1079.908, 9.511165
1080.390, 9.223077
1080.872, 9.858021
1081.354, 9.535128
1081.837, 8.150163
1082.319, 7.358267
1082.801, 7.991910
1083.283, 8.914432
1083.765, 10.35160
1084.247, 11.10055
1084.729, 9.586096
1085.211, 7.260073
1085.694, 5.994816
1086.176, 5.940455
1086.658, 6.361391
1087.140, 7.223951
1087.622, 7.946984
1088.104, 8.279467
1088.586, 8.409913
1089.068, 8.403397
1089.551, 8.299884
1090.033, 8.025837
1090.515, 7.689505
1090.997, 7.737725
1091.479, 8.509525
1091.961, 8.656079
1092.443, 7.127533
1092.925, 5.507150
1093.407, 4.156256
1093.890, 3.499427
1094.372, 4.254528
1094.854, 5.939859
1095.336, 7.485718
1095.818, 8.712307
1096.300, 9.373586
1096.782, 8.808520
1097.264, 8.433755
1097.746, 9.136193
1098.229, 9.933926
1098.711, 10.19063
1099.193, 9.905316
1099.675, 9.005001
1100.157, 7.485494
1100.639, 6.395605
1101.121, 5.892275
1101.603, 6.002615
1102.086, 7.471691
1102.568, 8.766449
1103.050, 8.802765
1103.532, 8.152293
1104.014, 7.639787
1104.496, 7.305296
1104.978, 6.765387
1105.460, 5.481572
1105.943, 4.792951
1106.425, 4.953039
1106.907, 5.688488
1107.389, 7.390485
1107.871, 9.226927
1108.353, 10.61598
1108.835, 11.40062
1109.317, 10.94820
1109.799, 8.463167
1110.281, 6.600297
1110.764, 5.694994
1111.246, 5.245047
1111.728, 5.159484
1112.210, 5.424595
1112.692, 6.694383
1113.174, 8.181559
1113.656, 7.485192
1114.138, 3.596957
1114.621, 2.154767
1115.103, 5.299520
1115.585, 7.367731
1116.067, 6.540991
1116.549, 5.675136
1117.031, 6.632474
1117.513, 8.385427
1117.995, 9.235834
1118.478, 9.166189
1118.960, 9.572193
1119.442, 11.44451
1119.924, 11.21314
1120.406, 7.008931
1120.888, 3.946216
1121.370, 4.597972
1121.852, 6.842734
1122.334, 8.571095
1122.817, 9.676592
1123.299, 9.334051
1123.781, 6.827677
1124.263, 5.978961
1124.745, 7.346342
1125.227, 8.711438
1125.709, 9.460384
1126.191, 9.790677
1126.673, 9.772394
1127.156, 9.614674
1127.638, 9.955723
1128.120, 9.653368
1128.602, 9.178357
1129.084, 9.238339
1129.566, 8.184241
1130.048, 7.796364
1130.530, 7.977000
1131.013, 8.796234
1131.495, 9.446128
1131.977, 8.545150
1132.459, 6.538067
1132.941, 5.622401
1133.423, 5.734848
1133.905, 6.165809
1134.387, 6.817657
1134.870, 7.501708
1135.352, 8.143577
1135.834, 8.684602
1136.316, 9.108417
1136.798, 9.284158
1137.280, 8.767260
1137.762, 7.786573
1138.244, 7.017357
1138.726, 6.558833
1139.208, 6.825510
1139.691, 7.796308
1140.173, 8.515018
1140.655, 8.348896
1141.137, 8.038158
1141.619, 8.783157
1142.101, 8.522099
1142.583, 9.703877
1143.065, 8.911261
1143.548, 8.849402
1144.030, 9.489102
1144.512, 9.932165
1144.994, 9.832814
1145.476, 9.529749
1145.958, 9.090253
1146.440, 8.836653
1146.922, 9.312608
1147.405, 9.998926
1147.887, 10.06239
1148.369, 9.866743
1148.851, 10.61489
1149.333, 12.22454
1149.815, 12.70148
1150.297, 10.72760
1150.779, 8.488989
1151.261, 6.792383
1151.744, 5.822739
1152.226, 6.419011
1152.708, 7.313475
1153.190, 6.807299
1153.672, 5.257040
1154.154, 4.161316
1154.636, 3.846337
1155.118, 4.005287
1155.600, 5.280377
1156.083, 6.011592
1156.565, 4.646391
1157.047, 3.545369
1157.529, 4.952062
1158.011, 7.420284
1158.493, 8.539600
1158.975, 8.209901
1159.457, 7.834761
1159.940, 6.571090
1160.422, 6.832008
1160.904, 10.82664
1161.386, 13.18486
1161.868, 10.73414
1162.350, 7.534693
1162.832, 7.461346
1163.314, 9.432319
1163.796, 9.967854
1164.279, 8.598010
1164.761, 8.579940
1165.243, 10.54938
1165.725, 11.59642
1166.207, 11.01778
1166.689, 9.874424
1167.171, 8.615403
1167.653, 7.607163
1168.135, 7.460487
1168.618, 7.969120
1169.100, 7.955410
1169.582, 7.426215
1170.064, 6.780315
1170.546, 6.061759
1171.028, 5.803560
1171.510, 6.182765
1171.992, 6.410139
1172.474, 5.773260
1172.957, 6.494538
1173.439, 5.640005
1173.921, 7.100682
1174.403, 7.606881
1174.885, 7.445408
1175.367, 7.736220
1175.849, 8.557352
1176.331, 9.261721
1176.814, 9.568419
1177.296, 9.684985
1177.778, 9.746380
1178.260, 9.777738
1178.742, 9.996075
1179.224, 10.06209
1179.706, 9.104944
1180.188, 7.783905
1180.671, 7.652439
1181.153, 8.753214
1181.635, 9.667948
1182.117, 9.866548
1182.599, 9.503239
1183.081, 7.528739
1183.563, 6.360192
1184.045, 8.693066
1184.527, 11.54940
1185.010, 11.57112
1185.492, 9.831927
1185.974, 9.504819
1186.456, 11.14820
1186.938, 11.74549
1187.420, 9.920597
1187.902, 8.369987
1188.384, 7.475891
1188.866, 6.991654
1189.349, 6.755846
1189.831, 6.934669
1190.313, 7.995435
1190.795, 9.560180
1191.277, 10.02607
1191.759, 8.948603
1192.241, 8.858479
1192.723, 10.23876
1193.206, 10.92069
1193.688, 10.47578
1194.170, 8.988143
1194.652, 6.147904
1195.134, 3.637676
1195.616, 3.980864
1196.098, 6.532875
1196.580, 9.157505
1197.063, 11.62877
1197.545, 11.21091
1198.027, 8.069910
1198.509, 5.427180
1198.991, 4.275236
1199.473, 4.680171
1199.955, 6.889105
1200.437, 9.010351
1200.919, 7.714177
1201.401, 9.039957
1201.884, 9.148593
1202.366, 8.645895
1202.848, 9.425895
1203.330, 8.751055
1203.812, 8.913184
1204.294, 10.50249
1204.776, 11.90225
1205.258, 12.21604
1205.741, 11.99432
1206.223, 11.17634
1206.705, 10.39275
1207.187, 10.35813
1207.669, 10.47172
1208.151, 10.01609
1208.633, 9.021747
1209.115, 7.596183
1209.598, 5.430673
1210.080, 4.754982
1210.562, 7.523534
1211.044, 9.400210
1211.526, 8.816134
1212.008, 8.068370
1212.490, 8.527002
1212.972, 8.975744
1213.454, 7.636351
1213.937, 5.123176
1214.419, 4.549766
1214.901, 6.390284
1215.383, 7.829086
1215.865, 8.860490
1216.347, 9.397842
1216.829, 9.367236
1217.311, 9.271923
1217.793, 9.389346
1218.276, 9.769341
1218.758, 10.79521
1219.240, 11.71121
1219.722, 9.462098
1220.204, 5.362763
1220.686, 4.502985
1221.168, 6.426270
1221.650, 7.813854
1222.133, 7.917922
1222.615, 7.994462
1223.097, 8.768085
1223.579, 9.525393
1224.061, 9.783270
1224.543, 9.541867
1225.025, 8.349600
1225.507, 7.021283
1225.990, 6.647639
1226.472, 6.851488
1226.954, 6.528977
1227.436, 5.637694
1227.918, 5.627547
1228.400, 7.678142
1228.882, 9.013602
1229.364, 8.456247
1229.846, 7.771792
1230.328, 7.965005
1230.811, 7.941368
1231.293, 6.502533
1231.775, 4.516574
1232.257, 3.517692
1232.739, 3.505761
1233.221, 4.596395
1233.703, 7.282051
1234.185, 8.796368
1234.668, 8.734653
1235.150, 8.578817
1235.632, 8.773643
1236.114, 9.488155
1236.596, 11.00938
1237.078, 12.31715
1237.560, 11.13784
1238.042, 11.42771
1238.525, 10.60716
1239.007, 9.142430
1239.489, 8.265891
1239.971, 5.782388
1240.453, 4.020006
1240.935, 3.723937
1241.417, 4.579359
1241.899, 6.819167
1242.381, 8.644699
1242.864, 8.115899
1243.346, 7.152890
1243.828, 7.322734
1244.310, 7.975889
1244.792, 8.553819
1245.274, 8.870834
1245.756, 8.734116
1246.238, 8.114390
1246.720, 7.086174
1247.203, 4.401942
1247.685, 3.409462
1248.167, 5.761179
1248.649, 7.598139
1249.131, 7.353813
1249.613, 6.929970
1250.095, 7.966123
1250.577, 7.595320
1251.059, 7.631944
1251.542, 7.938855
1252.024, 7.386676
1252.506, 7.739392
1252.988, 7.662217
1253.470, 7.086005
1253.952, 7.344395
1254.434, 8.760793
1254.916, 9.718464
1255.399, 9.063709
1255.881, 7.630877
1256.363, 6.033059
1256.845, 4.674849
1257.327, 4.130610
1257.809, 4.260458
1258.291, 5.071765
1258.773, 6.278841
1259.255, 7.486526
1259.738, 8.540802
1260.220, 9.168237
1260.702, 9.191875
1261.184, 9.005887
1261.666, 8.650944
1262.148, 8.224424
1262.630, 7.400753
1263.112, 6.907958
1263.594, 7.392863
1264.077, 8.433001
1264.559, 9.615824
1265.041, 10.81901
1265.523, 10.82544
1266.005, 9.319304
1266.487, 8.541500
1266.969, 8.637495
1267.451, 8.711300
1267.934, 8.559234
1268.416, 7.937662
1268.898, 6.653913
1269.380, 5.864648
1269.862, 7.303663
1270.344, 9.486615
1270.826, 9.699415
1271.308, 8.686382
1271.791, 7.231549
1272.273, 5.978373
1272.755, 6.561721
1273.237, 8.510718
1273.719, 8.870648
1274.201, 6.471473
1274.683, 5.408772
1275.165, 9.221329
1275.647, 12.26127
1276.130, 11.71325
1276.612, 10.61870
1277.094, 10.97275
1277.576, 11.47963
1278.058, 10.32276
1278.540, 10.71566
1279.022, 10.60314
1279.504, 10.02305
1279.986, 10.57867
1280.469, 9.609477
1280.951, 9.294580
1281.433, 9.949675
1281.915, 10.11520
1282.397, 9.257349
1282.879, 8.603526
1283.361, 9.098230
1283.843, 10.43513
1284.326, 12.25342
1284.808, 14.55798
##END=



