##NAMES=Aluminium
##RRUFFID=R070230
##IDEAL CHEMISTRY=Al
##LOCALITY=Mud Volcano, Bulla Apsheren penninsula, Caspian Sea, Qobustan (Gobustan; Kobustan) Rayonu, Azerbaijan
##OWNER=Michael Scott
##SOURCE=Michael Scott
##DESCRIPTION=Metallic gray blebs in matrix embedded in epoxy, no Raman activity because of crystal symmetry
##STATUS=The identification of this mineral is not yet confirmed.
##URL=rruff.info/R070230
184.3742, 2570.263
184.8564, 2545.023
185.3385, 2538.669
185.8206, 2552.308
186.3027, 2570.740
186.7848, 2578.692
187.2669, 2577.331
187.7491, 2575.992
188.2312, 2579.021
188.7133, 2584.642
189.1954, 2586.339
189.6775, 2583.883
190.1596, 2578.418
190.6418, 2569.850
191.1239, 2558.323
191.6060, 2548.142
192.0881, 2538.578
192.5702, 2530.580
193.0524, 2535.059
193.5345, 2555.092
194.0166, 2579.546
194.4987, 2590.616
194.9808, 2587.615
195.4629, 2581.563
195.9451, 2577.123
196.4272, 2574.200
196.9093, 2571.174
197.3914, 2568.222
197.8735, 2564.807
198.3556, 2558.264
198.8378, 2547.490
199.3199, 2540.618
199.8020, 2543.799
200.2841, 2557.805
200.7662, 2570.312
201.2483, 2581.342
201.7305, 2589.830
202.2126, 2591.866
202.6947, 2585.792
203.1768, 2579.460
203.6589, 2580.178
204.1410, 2590.381
204.6232, 2588.508
205.1053, 2566.846
205.5874, 2534.416
206.0695, 2523.403
206.5516, 2539.777
207.0337, 2561.891
207.5159, 2574.608
207.9980, 2575.199
208.4801, 2578.887
208.9622, 2589.901
209.4443, 2605.376
209.9264, 2610.915
210.4086, 2604.704
210.8907, 2592.130
211.3728, 2574.437
211.8549, 2546.464
212.3370, 2531.026
212.8191, 2534.083
213.3013, 2553.433
213.7834, 2572.746
214.2655, 2596.168
214.7476, 2612.900
215.2297, 2609.760
215.7118, 2575.613
216.1940, 2552.850
216.6761, 2551.865
217.1582, 2571.487
217.6403, 2586.596
218.1224, 2596.549
218.6045, 2602.640
219.0867, 2605.521
219.5688, 2603.768
220.0509, 2602.222
220.5330, 2602.715
221.0151, 2605.384
221.4972, 2603.027
221.9794, 2591.826
222.4615, 2579.835
222.9436, 2577.077
223.4257, 2591.134
223.9078, 2598.376
224.3899, 2590.078
224.8721, 2564.003
225.3542, 2551.071
225.8363, 2556.706
226.3184, 2570.209
226.8005, 2579.384
227.2827, 2583.299
227.7648, 2584.382
228.2469, 2582.219
228.7290, 2576.003
229.2111, 2572.526
229.6932, 2570.675
230.1754, 2572.495
230.6575, 2582.525
231.1396, 2609.670
231.6217, 2628.938
232.1038, 2631.319
232.5859, 2612.657
233.0681, 2599.599
233.5502, 2594.463
234.0323, 2593.287
234.5144, 2590.336
234.9965, 2584.762
235.4786, 2578.754
235.9608, 2571.605
236.4429, 2561.356
236.9250, 2560.302
237.4071, 2575.055
237.8892, 2594.909
238.3713, 2602.215
238.8535, 2590.166
239.3356, 2576.818
239.8177, 2566.414
240.2998, 2557.225
240.7819, 2558.725
241.2640, 2577.613
241.7462, 2603.314
242.2283, 2616.889
242.7104, 2610.670
243.1925, 2604.980
243.6746, 2607.501
244.1567, 2622.334
244.6389, 2631.448
245.1210, 2634.094
245.6031, 2631.504
246.0852, 2624.597
246.5673, 2608.322
247.0494, 2596.447
247.5316, 2595.979
248.0137, 2613.460
248.4958, 2619.025
248.9779, 2605.139
249.4600, 2583.540
249.9421, 2577.495
250.4243, 2595.630
250.9064, 2613.745
251.3885, 2622.212
251.8706, 2616.914
252.3527, 2616.001
252.8348, 2621.358
253.3170, 2629.913
253.7991, 2636.247
254.2812, 2640.906
254.7633, 2642.133
255.2454, 2637.834
255.7275, 2624.931
256.2097, 2618.781
256.6918, 2623.142
257.1739, 2631.745
257.6560, 2631.286
258.1381, 2614.771
258.6202, 2603.719
259.1024, 2608.686
259.5845, 2635.645
260.0666, 2653.485
260.5487, 2660.342
261.0308, 2659.431
261.5129, 2656.397
261.9951, 2650.865
262.4772, 2644.090
262.9593, 2634.723
263.4414, 2619.929
263.9235, 2617.132
264.4056, 2631.532
264.8878, 2653.072
265.3699, 2663.938
265.8520, 2661.375
266.3341, 2656.228
266.8162, 2651.886
267.2983, 2648.141
267.7805, 2646.961
268.2626, 2648.934
268.7447, 2652.845
269.2268, 2657.364
269.7089, 2663.356
270.1910, 2666.865
270.6732, 2666.458
271.1553, 2662.034
271.6374, 2652.730
272.1195, 2634.935
272.6016, 2617.542
273.0837, 2618.081
273.5659, 2640.284
274.0480, 2661.218
274.5301, 2671.342
275.0122, 2670.162
275.4943, 2671.598
275.9764, 2677.528
276.4586, 2682.540
276.9407, 2675.128
277.4228, 2653.230
277.9049, 2637.592
278.3870, 2639.826
278.8691, 2658.855
279.3513, 2669.148
279.8334, 2669.094
280.3155, 2664.444
280.7976, 2661.284
281.2798, 2659.521
281.7619, 2662.199
282.2440, 2673.601
282.7261, 2691.788
283.2082, 2700.708
283.6903, 2698.760
284.1725, 2693.441
284.6546, 2696.009
285.1367, 2705.962
285.6188, 2710.225
286.1009, 2699.313
286.5830, 2678.492
287.0652, 2673.284
287.5473, 2685.950
288.0294, 2700.995
288.5115, 2699.889
288.9936, 2684.398
289.4757, 2669.196
289.9579, 2657.794
290.4400, 2650.469
290.9221, 2649.197
291.4042, 2654.395
291.8863, 2660.448
292.3684, 2661.747
292.8506, 2659.035
293.3327, 2655.435
293.8148, 2650.645
294.2969, 2646.285
294.7790, 2645.073
295.2611, 2647.022
295.7433, 2652.267
296.2254, 2665.208
296.7075, 2682.127
297.1896, 2691.704
297.6717, 2686.970
298.1538, 2676.733
298.6360, 2677.085
299.1181, 2686.840
299.6002, 2691.965
300.0823, 2671.105
300.5644, 2639.168
301.0465, 2625.993
301.5287, 2649.520
302.0108, 2682.202
302.4929, 2693.448
302.9750, 2685.713
303.4571, 2672.463
303.9392, 2656.486
304.4214, 2642.329
304.9035, 2637.171
305.3856, 2648.194
305.8677, 2660.008
306.3498, 2656.592
306.8319, 2641.794
307.3141, 2629.098
307.7962, 2627.679
308.2783, 2631.784
308.7604, 2635.926
309.2425, 2638.846
309.7246, 2641.870
310.2068, 2648.255
310.6889, 2655.717
311.1710, 2658.441
311.6531, 2646.458
312.1352, 2633.036
312.6173, 2629.108
313.0995, 2639.590
313.5816, 2650.399
314.0637, 2655.621
314.5458, 2656.585
315.0279, 2655.873
315.5100, 2653.481
315.9922, 2650.423
316.4743, 2647.390
316.9564, 2644.725
317.4385, 2640.998
317.9206, 2631.878
318.4027, 2622.287
318.8849, 2619.108
319.3670, 2636.495
319.8491, 2649.783
320.3312, 2645.463
320.8133, 2617.899
321.2954, 2601.457
321.7776, 2612.734
322.2597, 2634.436
322.7418, 2648.124
323.2239, 2646.082
323.7060, 2640.851
324.1881, 2633.679
324.6703, 2624.226
325.1524, 2618.177
325.6345, 2613.786
326.1166, 2614.165
326.5987, 2621.930
327.0808, 2650.921
327.5630, 2670.969
328.0451, 2676.078
328.5272, 2666.938
329.0093, 2658.376
329.4914, 2650.013
329.9735, 2642.763
330.4557, 2637.213
330.9378, 2633.120
331.4199, 2631.403
331.9020, 2634.083
332.3841, 2639.513
332.8662, 2639.385
333.3484, 2631.733
333.8305, 2621.506
334.3126, 2609.252
334.7947, 2590.314
335.2768, 2585.091
335.7589, 2599.297
336.2411, 2625.186
336.7232, 2644.767
337.2053, 2658.165
337.6874, 2664.422
338.1695, 2660.179
338.6516, 2643.475
339.1338, 2633.977
339.6159, 2633.087
340.0980, 2637.909
340.5801, 2646.302
341.0622, 2659.410
341.5443, 2666.078
342.0265, 2659.329
342.5086, 2640.799
342.9907, 2623.424
343.4728, 2606.207
343.9549, 2594.658
344.4370, 2600.359
344.9192, 2621.235
345.4013, 2637.755
345.8834, 2641.729
346.3655, 2636.641
346.8476, 2629.033
347.3297, 2618.726
347.8119, 2611.534
348.2940, 2615.565
348.7761, 2627.553
349.2582, 2637.842
349.7403, 2644.706
350.2225, 2647.831
350.7046, 2645.702
351.1867, 2638.761
351.6688, 2630.564
352.1509, 2619.861
352.6331, 2610.493
353.1152, 2609.520
353.5973, 2622.660
354.0794, 2636.717
354.5615, 2640.176
355.0436, 2634.917
355.5258, 2626.671
356.0079, 2611.242
356.4900, 2598.271
356.9721, 2597.812
357.4542, 2614.655
357.9363, 2632.992
358.4185, 2647.240
358.9006, 2656.641
359.3827, 2659.890
359.8648, 2652.475
360.3469, 2641.945
360.8290, 2630.121
361.3112, 2616.111
361.7933, 2608.732
362.2754, 2617.239
362.7575, 2631.309
363.2396, 2639.759
363.7217, 2630.704
364.2039, 2625.037
364.6860, 2631.140
365.1681, 2649.300
365.6502, 2661.521
366.1323, 2662.098
366.6144, 2658.433
367.0966, 2655.581
367.5787, 2654.257
368.0608, 2653.174
368.5429, 2653.589
369.0250, 2654.596
369.5071, 2651.042
369.9893, 2636.391
370.4714, 2624.768
370.9535, 2624.293
371.4356, 2643.392
371.9177, 2653.947
372.3998, 2651.903
372.8820, 2643.015
373.3641, 2640.746
373.8462, 2648.117
374.3283, 2654.238
374.8104, 2653.713
375.2925, 2645.650
375.7747, 2641.670
376.2568, 2642.553
376.7389, 2645.898
377.2210, 2649.579
377.7031, 2653.835
378.1852, 2654.688
378.6674, 2648.862
379.1495, 2638.768
379.6316, 2635.156
380.1137, 2638.516
380.5958, 2644.174
381.0779, 2649.156
381.5601, 2653.159
382.0422, 2654.316
382.5243, 2651.914
383.0064, 2646.917
383.4885, 2637.444
383.9706, 2624.741
384.4528, 2618.622
384.9349, 2633.628
385.4170, 2657.554
385.8991, 2669.687
386.3812, 2665.120
386.8633, 2654.855
387.3455, 2645.561
387.8276, 2638.285
388.3097, 2635.333
388.7918, 2644.429
389.2739, 2654.177
389.7560, 2652.692
390.2382, 2637.803
390.7203, 2627.035
391.2024, 2634.757
391.6845, 2650.116
392.1666, 2660.713
392.6487, 2658.232
393.1309, 2654.103
393.6130, 2652.089
394.0951, 2652.217
394.5772, 2653.735
395.0593, 2658.767
395.5414, 2663.669
396.0236, 2666.121
396.5057, 2668.934
396.9878, 2665.551
397.4699, 2648.657
397.9520, 2624.210
398.4341, 2611.063
398.9163, 2616.112
399.3984, 2625.381
399.8805, 2634.646
400.3626, 2644.951
400.8447, 2652.105
401.3268, 2655.572
401.8090, 2656.269
402.2911, 2655.014
402.7732, 2650.622
403.2553, 2647.611
403.7374, 2648.553
404.2195, 2652.932
404.7017, 2650.084
405.1838, 2637.658
405.6659, 2624.282
406.1480, 2615.591
406.6301, 2611.424
407.1122, 2619.351
407.5944, 2646.030
408.0765, 2680.169
408.5586, 2693.262
409.0407, 2685.701
409.5228, 2672.531
410.0049, 2660.990
410.4871, 2651.557
410.9692, 2644.944
411.4513, 2640.794
411.9334, 2641.240
412.4155, 2654.201
412.8976, 2674.663
413.3798, 2687.784
413.8619, 2680.326
414.3440, 2666.166
414.8261, 2659.970
415.3082, 2662.049
415.7903, 2665.171
416.2725, 2664.663
416.7546, 2662.547
417.2367, 2661.085
417.7188, 2661.347
418.2009, 2662.048
418.6830, 2664.066
419.1652, 2666.450
419.6473, 2665.630
420.1294, 2656.658
420.6115, 2646.943
421.0937, 2639.886
421.5758, 2634.811
422.0579, 2635.208
422.5400, 2649.390
423.0221, 2667.698
423.5042, 2674.406
423.9864, 2657.700
424.4685, 2641.996
424.9506, 2631.659
425.4327, 2626.839
425.9148, 2628.013
426.3969, 2639.271
426.8791, 2651.861
427.3612, 2657.659
427.8433, 2654.281
428.3254, 2651.708
428.8075, 2651.891
429.2896, 2653.576
429.7718, 2651.161
430.2539, 2643.268
430.7360, 2638.421
431.2181, 2642.043
431.7002, 2653.767
432.1823, 2670.463
432.6645, 2694.175
433.1466, 2715.571
433.6287, 2720.418
434.1108, 2710.911
434.5929, 2697.373
435.0750, 2678.831
435.5572, 2661.251
436.0393, 2658.076
436.5214, 2668.662
437.0035, 2679.359
437.4856, 2677.109
437.9677, 2668.969
438.4499, 2665.039
438.9320, 2669.923
439.4141, 2676.136
439.8962, 2677.323
440.3783, 2675.578
440.8604, 2676.338
441.3426, 2687.062
441.8247, 2697.128
442.3068, 2699.140
442.7889, 2690.098
443.2710, 2683.653
443.7531, 2687.567
444.2353, 2694.323
444.7174, 2695.670
445.1995, 2681.868
445.6816, 2671.965
446.1637, 2670.399
446.6458, 2676.402
447.1280, 2681.917
447.6101, 2686.415
448.0922, 2691.028
448.5743, 2696.573
449.0564, 2704.188
449.5385, 2709.717
450.0207, 2712.446
450.5028, 2713.589
450.9849, 2716.569
451.4670, 2722.678
451.9491, 2723.713
452.4312, 2713.563
452.9134, 2694.458
453.3955, 2684.685
453.8776, 2685.237
454.3597, 2688.140
454.8418, 2682.092
455.3239, 2670.763
455.8061, 2671.524
456.2882, 2694.330
456.7703, 2721.509
457.2524, 2726.132
457.7345, 2712.379
458.2166, 2697.288
458.6988, 2688.159
459.1809, 2684.496
459.6630, 2687.604
460.1451, 2698.611
460.6272, 2709.032
461.1093, 2712.624
461.5915, 2712.743
462.0736, 2713.470
462.5557, 2716.148
463.0378, 2719.676
463.5199, 2726.409
464.0020, 2735.082
464.4842, 2736.704
464.9663, 2720.000
465.4484, 2702.678
465.9305, 2694.081
466.4126, 2698.427
466.8947, 2704.766
467.3769, 2716.183
467.8590, 2728.225
468.3411, 2732.986
468.8232, 2725.946
469.3053, 2720.795
469.7874, 2723.003
470.2696, 2731.762
470.7517, 2730.612
471.2338, 2716.854
471.7159, 2701.535
472.1980, 2693.025
472.6801, 2691.315
473.1623, 2697.631
473.6444, 2715.701
474.1265, 2734.928
474.6086, 2732.440
475.0907, 2711.815
475.5728, 2696.195
476.0550, 2704.983
476.5371, 2724.102
477.0192, 2728.924
477.5013, 2718.495
477.9834, 2707.449
478.4655, 2706.337
478.9477, 2711.630
479.4298, 2719.173
479.9119, 2733.301
480.3940, 2742.453
480.8761, 2736.091
481.3582, 2719.339
481.8404, 2706.982
482.3225, 2706.143
482.8046, 2708.899
483.2867, 2711.813
483.7688, 2714.377
484.2509, 2717.839
484.7331, 2724.912
485.2152, 2731.551
485.6973, 2733.694
486.1794, 2726.935
486.6615, 2723.368
487.1436, 2725.919
487.6258, 2732.997
488.1079, 2737.262
488.5900, 2738.518
489.0721, 2737.392
489.5542, 2733.135
490.0363, 2725.683
490.5185, 2720.887
491.0006, 2719.258
491.4827, 2719.216
491.9648, 2719.439
492.4470, 2719.735
492.9291, 2719.007
493.4112, 2716.830
493.8933, 2713.491
494.3754, 2706.296
494.8575, 2696.660
495.3397, 2693.912
495.8218, 2711.151
496.3039, 2735.141
496.7860, 2751.696
497.2681, 2758.524
497.7502, 2759.706
498.2324, 2752.951
498.7145, 2743.179
499.1966, 2736.954
499.6787, 2741.643
500.1608, 2744.756
500.6429, 2740.001
501.1251, 2728.152
501.6072, 2722.576
502.0893, 2728.643
502.5714, 2737.155
503.0535, 2744.106
503.5356, 2749.515
504.0178, 2753.093
504.4999, 2753.857
504.9820, 2753.654
505.4641, 2755.652
505.9462, 2760.430
506.4283, 2764.264
506.9105, 2765.560
507.3926, 2765.192
507.8747, 2767.923
508.3568, 2774.068
508.8389, 2777.492
509.3210, 2770.519
509.8032, 2757.342
510.2853, 2749.536
510.7674, 2748.906
511.2495, 2752.120
511.7316, 2759.672
512.2137, 2768.362
512.6959, 2771.618
513.1780, 2758.498
513.6601, 2745.921
514.1422, 2745.718
514.6243, 2756.635
515.1064, 2769.278
515.5886, 2786.855
516.0707, 2800.229
516.5528, 2802.729
517.0349, 2787.099
517.5170, 2774.147
517.9991, 2769.304
518.4813, 2766.909
518.9634, 2758.901
519.4455, 2736.156
519.9276, 2723.760
520.4097, 2729.230
520.8918, 2749.811
521.3740, 2770.013
521.8561, 2791.795
522.3382, 2806.710
522.8203, 2805.071
523.3024, 2788.239
523.7845, 2780.815
524.2667, 2785.828
524.7488, 2793.734
525.2309, 2793.336
525.7130, 2786.069
526.1951, 2776.510
526.6772, 2761.437
527.1594, 2749.338
527.6415, 2753.237
528.1236, 2770.076
528.6057, 2786.597
529.0878, 2799.406
529.5699, 2806.122
530.0521, 2801.708
530.5342, 2781.484
531.0163, 2768.617
531.4984, 2776.583
531.9805, 2792.945
532.4626, 2804.491
532.9448, 2803.218
533.4269, 2804.588
533.9090, 2811.308
534.3911, 2822.028
534.8732, 2832.376
535.3553, 2846.732
535.8375, 2852.432
536.3196, 2840.028
536.8017, 2807.911
537.2838, 2789.623
537.7659, 2787.161
538.2480, 2791.418
538.7302, 2793.412
539.2123, 2793.539
539.6944, 2794.374
540.1765, 2796.405
540.6586, 2799.511
541.1407, 2807.117
541.6229, 2816.611
542.1050, 2818.811
542.5871, 2795.552
543.0692, 2771.449
543.5513, 2773.552
544.0334, 2802.971
544.5156, 2828.378
544.9977, 2831.922
545.4798, 2827.250
545.9619, 2824.948
546.4440, 2828.460
546.9261, 2832.247
547.4083, 2834.483
547.8904, 2836.790
548.3725, 2842.277
548.8546, 2854.037
549.3367, 2863.985
549.8188, 2870.173
550.3010, 2872.767
550.7831, 2874.060
551.2652, 2874.577
551.7473, 2872.007
552.2294, 2862.024
552.7115, 2845.841
553.1937, 2836.315
553.6758, 2834.857
554.1579, 2838.427
554.6400, 2846.332
555.1221, 2856.558
555.6042, 2862.890
556.0864, 2858.364
556.5685, 2853.903
557.0506, 2864.215
557.5327, 2884.731
558.0148, 2898.256
558.4969, 2889.189
558.9791, 2875.976
559.4612, 2869.068
559.9433, 2869.839
560.4254, 2875.578
560.9075, 2891.823
561.3896, 2909.440
561.8718, 2920.706
562.3539, 2923.668
562.8360, 2923.761
563.3181, 2922.708
563.8002, 2918.412
564.2823, 2901.603
564.7645, 2867.204
565.2466, 2844.068
565.7287, 2847.653
566.2108, 2872.228
566.6929, 2891.651
567.1750, 2905.796
567.6572, 2914.032
568.1393, 2912.253
568.6214, 2904.584
569.1035, 2897.977
569.5856, 2892.246
570.0677, 2892.682
570.5499, 2912.308
571.0320, 2939.211
571.5141, 2954.693
571.9962, 2942.430
572.4783, 2926.898
572.9604, 2916.867
573.4426, 2911.750
573.9247, 2907.431
574.4068, 2897.716
574.8889, 2894.093
575.3710, 2903.583
575.8531, 2930.617
576.3353, 2946.060
576.8174, 2945.062
577.2995, 2939.439
577.7816, 2941.129
578.2637, 2951.083
578.7458, 2957.933
579.2280, 2959.561
579.7101, 2958.267
580.1922, 2958.461
580.6743, 2959.624
581.1564, 2958.823
581.6385, 2952.664
582.1207, 2944.860
582.6028, 2938.873
583.0849, 2935.086
583.5670, 2935.996
584.0491, 2948.837
584.5313, 2963.303
585.0134, 2970.458
585.4955, 2966.054
585.9776, 2963.855
586.4597, 2972.823
586.9418, 2983.445
587.4240, 2984.273
587.9061, 2962.152
588.3882, 2950.980
588.8703, 2960.338
589.3524, 2981.341
589.8345, 2985.372
590.3167, 2967.020
590.7988, 2952.735
591.2809, 2957.943
591.7630, 2977.352
592.2451, 2981.283
592.7272, 2969.144
593.2094, 2955.969
593.6915, 2956.614
594.1736, 2964.641
594.6557, 2967.025
595.1378, 2960.370
595.6199, 2953.418
596.1021, 2952.631
596.5842, 2955.703
597.0663, 2959.360
597.5485, 2964.829
598.0306, 2968.206
598.5127, 2966.455
598.9948, 2961.082
599.4769, 2958.551
599.9590, 2958.116
600.4412, 2961.909
600.9233, 2972.316
601.4054, 2990.181
601.8875, 3001.863
602.3696, 3006.208
602.8517, 3006.968
603.3339, 3006.688
603.8160, 3005.406
604.2981, 3003.347
604.7802, 3000.341
605.2623, 2997.307
605.7444, 2997.280
606.2266, 2998.313
606.7087, 2994.516
607.1908, 2969.805
607.6729, 2953.816
608.1550, 2983.851
608.6371, 3044.482
609.1193, 3086.593
609.6014, 3069.378
610.0835, 3046.821
610.5656, 3049.094
611.0477, 3083.627
611.5298, 3097.742
612.0120, 3074.514
612.4941, 3045.681
612.9762, 3033.179
613.4583, 3042.895
613.9404, 3047.077
614.4225, 3042.613
614.9047, 3035.953
615.3868, 3036.988
615.8689, 3045.162
616.3510, 3052.999
616.8331, 3058.261
617.3152, 3062.131
617.7974, 3067.787
618.2795, 3074.026
618.7616, 3076.542
619.2437, 3064.952
619.7258, 3054.683
620.2079, 3061.740
620.6901, 3086.597
621.1722, 3103.197
621.6543, 3098.515
622.1364, 3085.405
622.6185, 3070.984
623.1006, 3050.464
623.5828, 3040.791
624.0649, 3047.543
624.5470, 3060.028
625.0291, 3065.043
625.5112, 3060.946
625.9933, 3058.604
626.4755, 3061.177
626.9576, 3064.942
627.4397, 3058.891
627.9218, 3044.896
628.4039, 3037.243
628.8860, 3049.524
629.3682, 3068.792
629.8503, 3077.773
630.3324, 3077.278
630.8145, 3073.615
631.2966, 3066.992
631.7787, 3060.965
632.2609, 3058.119
632.7430, 3059.165
633.2251, 3061.902
633.7072, 3069.157
634.1893, 3075.906
634.6714, 3077.403
635.1536, 3068.813
635.6357, 3066.254
636.1178, 3073.446
636.5999, 3084.500
637.0820, 3087.537
637.5641, 3082.137
638.0463, 3078.666
638.5284, 3081.072
639.0105, 3086.928
639.4926, 3092.515
639.9747, 3097.614
640.4568, 3100.859
640.9390, 3100.702
641.4211, 3098.827
641.9032, 3096.252
642.3853, 3093.067
642.8674, 3090.842
643.3495, 3084.822
643.8317, 3083.605
644.3138, 3094.678
644.7959, 3133.948
645.2780, 3155.940
645.7601, 3155.471
646.2422, 3142.313
646.7244, 3124.902
647.2065, 3100.827
647.6886, 3086.003
648.1707, 3084.276
648.6528, 3091.878
649.1349, 3105.846
649.6171, 3124.484
650.0992, 3136.299
650.5813, 3128.477
651.0634, 3115.534
651.5455, 3115.585
652.0276, 3126.917
652.5098, 3140.363
652.9919, 3160.140
653.4740, 3173.456
653.9561, 3168.147
654.4382, 3138.315
654.9203, 3119.375
655.4025, 3125.917
655.8846, 3136.269
656.3667, 3134.289
656.8488, 3110.954
657.3309, 3104.863
657.8130, 3123.564
658.2952, 3148.360
658.7773, 3149.211
659.2594, 3128.574
659.7415, 3116.441
660.2236, 3123.249
660.7057, 3137.792
661.1879, 3145.597
661.6700, 3148.098
662.1521, 3149.168
662.6342, 3147.333
663.1163, 3147.562
663.5984, 3156.038
664.0806, 3171.178
664.5627, 3180.010
665.0448, 3172.899
665.5269, 3164.541
666.0090, 3161.410
666.4911, 3164.408
666.9733, 3165.848
667.4554, 3164.723
667.9375, 3164.036
668.4196, 3167.672
668.9017, 3175.361
669.3839, 3177.289
669.8660, 3171.486
670.3481, 3165.055
670.8302, 3168.535
671.3123, 3177.443
671.7944, 3181.961
672.2766, 3177.607
672.7587, 3170.366
673.2408, 3159.553
673.7229, 3149.176
674.2050, 3146.829
674.6871, 3163.045
675.1693, 3178.557
675.6514, 3192.352
676.1335, 3202.430
676.6156, 3194.022
677.0977, 3153.990
677.5798, 3125.864
678.0620, 3136.169
678.5441, 3179.187
679.0262, 3193.612
679.5083, 3177.765
679.9904, 3162.853
680.4725, 3180.940
680.9547, 3214.839
681.4368, 3232.993
681.9189, 3230.242
682.4010, 3225.107
682.8831, 3231.629
683.3652, 3241.243
683.8474, 3245.225
684.3295, 3239.255
684.8116, 3231.335
685.2937, 3219.765
685.7758, 3208.125
686.2579, 3201.574
686.7401, 3201.917
687.2222, 3202.319
687.7043, 3201.184
688.1864, 3199.797
688.6685, 3200.946
689.1506, 3204.625
689.6328, 3210.748
690.1149, 3219.677
690.5970, 3230.845
691.0791, 3248.272
691.5612, 3269.190
692.0433, 3279.252
692.5255, 3256.850
693.0076, 3232.554
693.4897, 3229.273
693.9718, 3251.151
694.4539, 3262.688
694.9360, 3246.293
695.4182, 3230.252
695.9003, 3230.974
696.3824, 3254.054
696.8645, 3270.924
697.3466, 3282.059
697.8287, 3285.720
698.3109, 3274.645
698.7930, 3252.642
699.2751, 3242.033
699.7572, 3249.729
700.2393, 3258.595
700.7214, 3248.367
701.2036, 3227.549
701.6857, 3210.196
702.1678, 3197.379
702.6499, 3193.466
703.1320, 3206.271
703.6141, 3229.095
704.0963, 3244.808
704.5784, 3245.436
705.0605, 3250.544
705.5426, 3269.150
706.0247, 3295.093
706.5068, 3296.085
706.9890, 3268.643
707.4711, 3245.668
707.9532, 3250.918
708.4353, 3271.689
708.9174, 3271.806
709.3995, 3253.468
709.8817, 3238.149
710.3638, 3245.842
710.8459, 3259.781
711.3280, 3265.236
711.8101, 3259.961
712.2922, 3252.705
712.7744, 3237.744
713.2565, 3227.817
713.7386, 3231.914
714.2207, 3257.466
714.7028, 3278.273
715.1849, 3294.584
715.6671, 3306.046
716.1492, 3310.441
716.6313, 3308.532
717.1134, 3310.847
717.5955, 3320.460
718.0776, 3330.517
718.5598, 3332.573
719.0419, 3328.882
719.5240, 3323.624
720.0061, 3313.793
720.4882, 3308.165
720.9703, 3314.367
721.4525, 3327.442
721.9346, 3336.149
722.4167, 3337.320
722.8988, 3336.194
723.3809, 3332.966
723.8630, 3328.227
724.3452, 3323.793
724.8273, 3319.366
725.3094, 3317.443
725.7915, 3319.800
726.2736, 3325.318
726.7557, 3332.644
727.2379, 3341.265
727.7200, 3347.156
728.2021, 3350.492
728.6842, 3348.042
729.1663, 3331.604
729.6484, 3299.957
730.1306, 3281.504
730.6127, 3299.141
731.0948, 3319.987
731.5769, 3324.225
732.0590, 3304.894
732.5411, 3298.920
733.0233, 3309.089
733.5054, 3326.370
733.9875, 3343.339
734.4696, 3360.246
734.9517, 3380.902
735.4338, 3407.699
735.9160, 3427.086
736.3981, 3419.929
736.8802, 3398.160
737.3623, 3378.957
737.8444, 3366.219
738.3266, 3357.919
738.8087, 3354.487
739.2908, 3354.537
739.7729, 3356.206
740.2551, 3360.194
740.7372, 3364.370
741.2193, 3369.259
741.7014, 3373.565
742.1835, 3374.370
742.6656, 3371.642
743.1478, 3366.982
743.6299, 3358.840
744.1120, 3351.596
744.5941, 3354.531
745.0762, 3364.565
745.5583, 3372.226
746.0405, 3368.068
746.5226, 3364.622
747.0047, 3372.796
747.4868, 3389.468
747.9689, 3395.292
748.4510, 3373.369
748.9332, 3359.558
749.4153, 3369.602
749.8974, 3400.288
750.3795, 3411.626
750.8616, 3401.254
751.3438, 3389.754
751.8259, 3390.533
752.3080, 3399.633
752.7901, 3409.368
753.2722, 3419.301
753.7543, 3426.207
754.2365, 3426.000
754.7186, 3423.221
755.2007, 3421.415
755.6828, 3421.220
756.1649, 3420.552
756.6470, 3418.257
757.1292, 3416.094
757.6113, 3414.426
758.0934, 3412.127
758.5755, 3416.285
759.0576, 3428.299
759.5397, 3442.231
760.0219, 3455.075
760.5040, 3464.964
760.9861, 3463.452
761.4682, 3447.295
761.9503, 3430.642
762.4324, 3421.683
762.9146, 3419.792
763.3967, 3424.369
763.8788, 3438.012
764.3609, 3453.749
764.8430, 3478.288
765.3251, 3499.761
765.8073, 3502.240
766.2894, 3479.146
766.7715, 3463.326
767.2536, 3460.566
767.7357, 3464.667
768.2178, 3465.850
768.7000, 3464.919
769.1821, 3465.422
769.6642, 3469.776
770.1463, 3473.913
770.6284, 3474.760
771.1105, 3472.807
771.5927, 3469.004
772.0748, 3458.501
772.5569, 3452.199
773.0390, 3453.704
773.5211, 3460.880
774.0032, 3469.307
774.4854, 3479.897
774.9675, 3488.252
775.4496, 3492.695
775.9317, 3494.378
776.4138, 3495.177
776.8959, 3495.456
777.3781, 3497.215
777.8602, 3507.387
778.3423, 3514.726
778.8244, 3505.324
779.3065, 3483.639
779.7886, 3468.770
780.2708, 3464.272
780.7529, 3470.696
781.2350, 3493.369
781.7171, 3529.167
782.1992, 3547.606
782.6813, 3545.633
783.1635, 3537.697
783.6456, 3527.608
784.1277, 3517.729
784.6098, 3514.821
785.0919, 3518.947
785.5740, 3530.133
786.0562, 3558.503
786.5383, 3586.715
787.0204, 3600.468
787.5025, 3598.953
787.9846, 3589.447
788.4667, 3563.594
788.9489, 3539.803
789.4310, 3525.091
789.9131, 3519.737
790.3952, 3521.591
790.8773, 3532.017
791.3594, 3543.219
791.8416, 3550.810
792.3237, 3554.446
792.8058, 3549.925
793.2879, 3537.263
793.7700, 3530.068
794.2521, 3546.945
794.7343, 3567.100
795.2164, 3570.623
795.6985, 3549.367
796.1806, 3539.267
796.6627, 3555.543
797.1448, 3571.084
797.6270, 3564.974
798.1091, 3532.450
798.5912, 3518.941
799.0733, 3527.153
799.5554, 3540.842
800.0375, 3543.769
800.5197, 3540.958
801.0018, 3542.437
801.4839, 3550.007
801.9660, 3557.954
802.4481, 3566.516
802.9302, 3571.651
803.4124, 3568.380
803.8945, 3545.563
804.3766, 3539.092
804.8587, 3555.809
805.3408, 3579.854
805.8229, 3598.541
806.3051, 3611.865
806.7872, 3619.876
807.2693, 3622.946
807.7514, 3618.349
808.2335, 3595.287
808.7156, 3565.521
809.1978, 3546.826
809.6799, 3543.956
810.1620, 3548.706
810.6441, 3567.578
811.1262, 3586.868
811.6083, 3591.622
812.0905, 3568.162
812.5726, 3563.982
813.0547, 3588.510
813.5368, 3616.019
814.0189, 3610.207
814.5010, 3577.925
814.9832, 3560.006
815.4653, 3564.355
815.9474, 3577.469
816.4295, 3594.514
816.9116, 3609.791
817.3937, 3614.948
817.8759, 3598.738
818.3580, 3590.479
818.8401, 3604.830
819.3222, 3624.037
819.8043, 3631.475
820.2864, 3624.898
820.7686, 3615.217
821.2507, 3601.334
821.7328, 3590.960
822.2149, 3600.954
822.6970, 3622.033
823.1791, 3629.462
823.6613, 3614.328
824.1434, 3595.873
824.6255, 3577.338
825.1076, 3566.840
825.5897, 3573.720
826.0718, 3627.639
826.5540, 3657.879
827.0361, 3656.328
827.5182, 3640.725
828.0003, 3633.321
828.4824, 3633.978
828.9645, 3620.251
829.4467, 3583.775
829.9288, 3554.021
830.4109, 3576.892
830.8930, 3624.712
831.3751, 3653.735
831.8572, 3643.475
832.3394, 3634.185
832.8215, 3646.093
833.3036, 3662.446
833.7857, 3663.257
834.2678, 3638.854
834.7499, 3628.112
835.2321, 3636.197
835.7142, 3651.885
836.1963, 3664.863
836.6784, 3674.008
837.1605, 3671.365
837.6426, 3651.532
838.1248, 3637.813
838.6069, 3661.631
839.0890, 3695.136
839.5711, 3705.865
840.0532, 3665.356
840.5353, 3642.610
841.0175, 3650.042
841.4996, 3667.752
841.9817, 3675.825
842.4638, 3673.926
842.9459, 3671.400
843.4280, 3668.554
843.9102, 3668.133
844.3923, 3673.614
844.8744, 3683.427
845.3565, 3696.877
845.8386, 3717.085
846.3207, 3728.792
846.8029, 3721.967
847.2850, 3706.184
847.7671, 3688.650
848.2492, 3663.723
848.7313, 3654.814
849.2134, 3666.701
849.6956, 3682.603
850.1777, 3682.490
850.6598, 3672.235
851.1419, 3675.797
851.6240, 3697.790
852.1061, 3715.126
852.5883, 3705.401
853.0704, 3685.953
853.5525, 3671.682
854.0346, 3664.695
854.5167, 3664.470
854.9988, 3671.040
855.4810, 3683.716
855.9631, 3708.586
856.4452, 3746.249
856.9273, 3750.699
857.4094, 3718.534
857.8915, 3685.352
858.3737, 3685.873
858.8558, 3702.347
859.3379, 3713.903
859.8200, 3717.944
860.3021, 3717.697
860.7842, 3707.552
861.2664, 3699.427
861.7485, 3701.167
862.2306, 3714.292
862.7127, 3721.030
863.1948, 3719.869
863.6769, 3719.214
864.1591, 3727.123
864.6412, 3739.521
865.1233, 3748.667
865.6054, 3754.045
866.0875, 3752.197
866.5696, 3733.116
867.0518, 3712.799
867.5339, 3701.250
868.0160, 3699.566
868.4981, 3699.657
868.9802, 3699.847
869.4623, 3705.628
869.9445, 3724.725
870.4266, 3751.206
870.9087, 3752.620
871.3908, 3731.443
871.8729, 3713.781
872.3550, 3721.037
872.8372, 3733.939
873.3193, 3734.695
873.8014, 3725.631
874.2835, 3722.276
874.7656, 3739.575
875.2477, 3748.490
875.7299, 3736.308
876.2120, 3711.397
876.6941, 3709.350
877.1762, 3730.090
877.6583, 3748.325
878.1404, 3750.908
878.6226, 3747.295
879.1047, 3749.573
879.5869, 3755.758
880.0690, 3760.793
880.5511, 3766.252
881.0332, 3766.107
881.5153, 3752.829
881.9974, 3734.683
882.4796, 3728.736
882.9617, 3736.757
883.4438, 3748.395
883.9259, 3764.128
884.4080, 3776.261
884.8901, 3764.213
885.3723, 3739.464
885.8544, 3730.262
886.3365, 3760.927
886.8186, 3785.135
887.3007, 3773.225
887.7828, 3746.503
888.2650, 3735.418
888.7471, 3747.589
889.2292, 3756.328
889.7113, 3759.049
890.1934, 3758.811
890.6755, 3757.139
891.1577, 3755.778
891.6398, 3761.282
892.1219, 3776.059
892.6040, 3791.296
893.0861, 3806.504
893.5682, 3815.813
894.0504, 3811.782
894.5325, 3783.730
895.0146, 3767.426
895.4967, 3765.795
895.9788, 3770.496
896.4609, 3777.119
896.9431, 3784.686
897.4252, 3786.133
897.9073, 3781.016
898.3894, 3774.081
898.8715, 3764.510
899.3536, 3757.734
899.8358, 3759.707
900.3179, 3771.720
900.8000, 3782.276
901.2821, 3791.452
901.7642, 3796.991
902.2463, 3796.522
902.7285, 3791.184
903.2106, 3791.013
903.6927, 3795.707
904.1748, 3797.393
904.6569, 3785.225
905.1390, 3772.204
905.6212, 3772.949
906.1033, 3784.909
906.5854, 3795.978
907.0675, 3804.047
907.5496, 3809.341
908.0317, 3812.922
908.5139, 3813.434
908.9960, 3800.326
909.4781, 3773.563
909.9602, 3767.743
910.4423, 3806.190
910.9244, 3853.138
911.4066, 3867.158
911.8887, 3857.861
912.3708, 3842.996
912.8529, 3822.387
913.3350, 3804.352
913.8171, 3789.594
914.2993, 3778.685
914.7814, 3773.311
915.2635, 3773.835
915.7456, 3775.487
916.2277, 3777.966
916.7098, 3779.819
917.1920, 3775.919
917.6741, 3771.612
918.1562, 3775.513
918.6383, 3791.265
919.1204, 3808.219
919.6025, 3832.855
920.0847, 3849.354
920.5668, 3843.406
921.0489, 3809.605
921.5310, 3792.729
922.0131, 3793.989
922.4952, 3802.162
922.9774, 3812.785
923.4595, 3822.346
923.9416, 3822.173
924.4237, 3812.946
924.9058, 3810.953
925.3879, 3830.736
925.8701, 3851.083
926.3522, 3864.699
926.8343, 3871.540
927.3164, 3868.902
927.7985, 3855.439
928.2806, 3844.808
928.7628, 3843.985
929.2449, 3849.034
929.7270, 3858.640
930.2091, 3869.157
930.6912, 3870.965
931.1733, 3849.607
931.6555, 3831.202
932.1376, 3826.761
932.6197, 3828.771
933.1018, 3822.472
933.5839, 3804.987
934.0660, 3802.354
934.5482, 3822.358
935.0303, 3848.895
935.5124, 3861.529
935.9945, 3866.196
936.4766, 3874.535
936.9587, 3894.223
937.4409, 3904.294
937.9230, 3883.889
938.4051, 3862.133
938.8872, 3864.833
939.3693, 3899.874
939.8514, 3910.336
940.3336, 3893.458
940.8157, 3871.047
941.2978, 3855.936
941.7799, 3849.240
942.2620, 3856.009
942.7441, 3875.454
943.2263, 3892.244
943.7084, 3901.077
944.1905, 3904.754
944.6726, 3904.370
945.1547, 3900.037
945.6368, 3890.493
946.1190, 3875.088
946.6011, 3864.155
947.0832, 3861.584
947.5653, 3866.748
948.0474, 3885.605
948.5295, 3911.088
949.0117, 3926.757
949.4938, 3922.135
949.9759, 3912.569
950.4580, 3897.249
950.9401, 3881.645
951.4222, 3875.488
951.9044, 3878.939
952.3865, 3879.155
952.8686, 3873.202
953.3507, 3867.950
953.8328, 3870.550
954.3149, 3878.292
954.7971, 3889.252
955.2792, 3905.448
955.7613, 3914.665
956.2434, 3912.655
956.7255, 3906.348
957.2076, 3899.086
957.6898, 3890.876
958.1719, 3880.976
958.6540, 3869.438
959.1361, 3865.016
959.6182, 3882.667
960.1003, 3903.104
960.5825, 3907.964
961.0646, 3898.928
961.5467, 3889.471
962.0288, 3880.217
962.5109, 3873.245
962.9930, 3867.627
963.4752, 3865.936
963.9573, 3880.712
964.4394, 3907.918
964.9215, 3922.096
965.4036, 3908.804
965.8857, 3892.097
966.3679, 3890.742
966.8500, 3897.866
967.3321, 3904.596
967.8142, 3908.975
968.2963, 3914.109
968.7784, 3920.251
969.2606, 3926.585
969.7427, 3932.837
970.2248, 3938.549
970.7069, 3942.261
971.1890, 3943.852
971.6711, 3942.948
972.1533, 3937.692
972.6354, 3931.177
973.1175, 3924.446
973.5996, 3917.749
974.0817, 3916.541
974.5638, 3923.838
975.0460, 3925.281
975.5281, 3910.437
976.0102, 3890.099
976.4923, 3887.263
976.9744, 3898.345
977.4565, 3912.820
977.9387, 3936.101
978.4208, 3950.277
978.9029, 3937.941
979.3850, 3918.224
979.8671, 3919.561
980.3492, 3947.531
980.8314, 3963.550
981.3135, 3962.656
981.7956, 3952.886
982.2777, 3935.346
982.7598, 3918.078
983.2419, 3913.049
983.7241, 3922.760
984.2062, 3938.388
984.6883, 3970.367
985.1704, 3994.055
985.6525, 3996.536
986.1346, 3979.855
986.6168, 3961.744
987.0989, 3942.581
987.5810, 3934.195
988.0631, 3954.690
988.5452, 3979.626
989.0273, 3986.720
989.5095, 3979.828
989.9916, 3968.330
990.4737, 3942.553
990.9558, 3932.206
991.4379, 3947.849
991.9200, 3970.307
992.4022, 3962.759
992.8843, 3934.501
993.3664, 3928.262
993.8485, 3954.872
994.3306, 3985.186
994.8127, 4003.305
995.2949, 4013.449
995.7770, 4017.183
996.2591, 4013.500
996.7412, 4014.569
997.2233, 4021.616
997.7054, 4028.917
998.1876, 4034.773
998.6697, 4037.711
999.1518, 4028.972
999.6339, 4013.158
1000.116, 4008.416
1000.598, 4035.675
1001.080, 4060.633
1001.562, 4072.708
1002.044, 4074.656
1002.527, 4068.801
1003.009, 4054.383
1003.491, 4044.813
1003.973, 4044.023
1004.455, 4042.921
1004.937, 4026.766
1005.419, 4006.696
1005.901, 3998.462
1006.384, 4008.836
1006.866, 4013.212
1007.348, 4002.184
1007.830, 3994.822
1008.312, 4006.342
1008.794, 4031.368
1009.276, 4036.000
1009.758, 4022.209
1010.240, 4006.846
1010.723, 3995.065
1011.205, 3989.428
1011.687, 3996.453
1012.169, 4010.513
1012.651, 4016.156
1013.133, 4009.800
1013.615, 4004.567
1014.097, 4002.159
1014.580, 4002.124
1015.062, 4006.228
1015.544, 4011.584
1016.026, 4011.010
1016.508, 4001.368
1016.990, 3996.827
1017.472, 4006.324
1017.954, 4019.855
1018.436, 4032.521
1018.919, 4044.169
1019.401, 4055.035
1019.883, 4065.135
1020.365, 4067.821
1020.847, 4054.836
1021.329, 4036.280
1021.811, 4011.883
1022.293, 3990.555
1022.776, 3994.838
1023.258, 4059.209
1023.740, 4097.952
1024.222, 4096.500
1024.704, 4077.167
1025.186, 4068.206
1025.668, 4067.110
1026.150, 4066.252
1026.632, 4064.666
1027.115, 4061.587
1027.597, 4047.404
1028.079, 4039.564
1028.561, 4055.910
1029.043, 4094.563
1029.525, 4110.706
1030.007, 4101.636
1030.489, 4090.406
1030.972, 4088.500
1031.454, 4089.168
1031.936, 4079.528
1032.418, 4065.537
1032.900, 4060.064
1033.382, 4084.363
1033.864, 4091.358
1034.346, 4066.850
1034.828, 4036.891
1035.311, 4031.415
1035.793, 4047.459
1036.275, 4070.048
1036.757, 4098.206
1037.239, 4116.673
1037.721, 4104.962
1038.203, 4088.108
1038.685, 4085.121
1039.167, 4094.803
1039.650, 4095.899
1040.132, 4084.607
1040.614, 4082.582
1041.096, 4101.675
1041.578, 4125.936
1042.060, 4126.716
1042.542, 4114.420
1043.024, 4109.263
1043.507, 4124.985
1043.989, 4132.225
1044.471, 4119.414
1044.953, 4103.995
1045.435, 4098.764
1045.917, 4103.246
1046.399, 4114.506
1046.881, 4131.867
1047.364, 4143.867
1047.846, 4139.495
1048.328, 4130.121
1048.810, 4121.299
1049.292, 4113.972
1049.774, 4110.999
1050.256, 4115.207
1050.738, 4111.984
1051.220, 4095.002
1051.703, 4078.785
1052.185, 4094.413
1052.667, 4122.121
1053.149, 4122.263
1053.631, 4076.286
1054.113, 4055.182
1054.595, 4102.843
1055.077, 4151.191
1055.559, 4164.970
1056.042, 4149.153
1056.524, 4133.782
1057.006, 4119.906
1057.488, 4116.101
1057.970, 4138.307
1058.452, 4160.426
1058.934, 4161.979
1059.416, 4153.571
1059.899, 4157.045
1060.381, 4179.890
1060.863, 4186.427
1061.345, 4169.581
1061.827, 4154.208
1062.309, 4179.564
1062.791, 4216.125
1063.273, 4212.579
1063.755, 4165.882
1064.238, 4132.811
1064.720, 4133.404
1065.202, 4144.995
1065.684, 4165.037
1066.166, 4188.939
1066.648, 4206.847
1067.130, 4217.338
1067.612, 4212.836
1068.094, 4182.192
1068.577, 4157.035
1069.059, 4165.173
1069.541, 4181.919
1070.023, 4181.003
1070.505, 4156.331
1070.987, 4150.172
1071.469, 4164.232
1071.951, 4179.246
1072.434, 4181.945
1072.916, 4178.319
1073.398, 4172.193
1073.880, 4165.550
1074.362, 4164.882
1074.844, 4178.352
1075.326, 4185.536
1075.808, 4180.759
1076.291, 4174.589
1076.773, 4188.535
1077.255, 4212.608
1077.737, 4215.955
1078.219, 4193.460
1078.701, 4166.706
1079.183, 4129.491
1079.665, 4109.777
1080.147, 4127.137
1080.630, 4173.049
1081.112, 4196.857
1081.594, 4199.111
1082.076, 4195.823
1082.558, 4189.220
1083.040, 4186.638
1083.522, 4203.023
1084.004, 4223.677
1084.486, 4226.696
1084.969, 4197.869
1085.451, 4187.646
1085.933, 4199.915
1086.415, 4216.439
1086.897, 4226.069
1087.379, 4229.267
1087.861, 4223.876
1088.343, 4212.095
1088.826, 4202.921
1089.308, 4198.446
1089.790, 4199.153
1090.272, 4206.599
1090.754, 4217.168
1091.236, 4224.106
1091.718, 4228.956
1092.200, 4240.754
1092.682, 4261.463
1093.165, 4278.585
1093.647, 4281.970
1094.129, 4281.246
1094.611, 4283.441
1095.093, 4287.541
1095.575, 4283.881
1096.057, 4272.132
1096.539, 4260.130
1097.022, 4248.712
1097.504, 4242.794
1097.986, 4252.938
1098.468, 4269.539
1098.950, 4279.249
1099.432, 4278.444
1099.914, 4274.159
1100.396, 4264.919
1100.879, 4257.222
1101.361, 4255.138
1101.843, 4258.156
1102.325, 4268.395
1102.807, 4283.383
1103.289, 4293.847
1103.771, 4301.917
1104.253, 4295.175
1104.735, 4261.472
1105.218, 4225.906
1105.700, 4232.943
1106.182, 4270.940
1106.664, 4279.676
1107.146, 4252.171
1107.628, 4226.915
1108.110, 4225.285
1108.592, 4234.984
1109.074, 4255.068
1109.557, 4280.298
1110.039, 4287.605
1110.521, 4276.787
1111.003, 4268.286
1111.485, 4269.156
1111.967, 4271.100
1112.449, 4263.633
1112.931, 4254.533
1113.414, 4252.688
1113.896, 4260.234
1114.378, 4268.783
1114.860, 4278.495
1115.342, 4288.497
1115.824, 4298.368
1116.306, 4308.166
1116.788, 4322.722
1117.271, 4336.695
1117.753, 4338.275
1118.235, 4308.039
1118.717, 4288.126
1119.199, 4281.590
1119.681, 4284.644
1120.163, 4300.490
1120.645, 4321.895
1121.127, 4322.833
1121.609, 4304.919
1122.092, 4293.633
1122.574, 4313.081
1123.056, 4327.061
1123.538, 4319.197
1124.020, 4302.449
1124.502, 4305.971
1124.984, 4326.532
1125.466, 4334.445
1125.949, 4322.639
1126.431, 4312.448
1126.913, 4322.515
1127.395, 4336.557
1127.877, 4343.347
1128.359, 4343.324
1128.841, 4338.289
1129.323, 4327.501
1129.806, 4327.020
1130.288, 4349.341
1130.770, 4369.923
1131.252, 4354.858
1131.734, 4327.243
1132.216, 4319.409
1132.698, 4343.492
1133.180, 4354.360
1133.662, 4349.288
1134.145, 4342.153
1134.627, 4338.785
1135.109, 4340.790
1135.591, 4356.429
1136.073, 4379.260
1136.555, 4392.557
1137.037, 4380.627
1137.519, 4376.213
1138.001, 4384.725
1138.484, 4393.680
1138.966, 4386.165
1139.448, 4370.048
1139.930, 4365.623
1140.412, 4372.805
1140.894, 4380.231
1141.376, 4385.015
1141.858, 4386.977
1142.341, 4385.631
1142.823, 4382.222
1143.305, 4375.596
1143.787, 4368.372
1144.269, 4377.860
1144.751, 4409.777
1145.233, 4426.082
1145.715, 4380.706
1146.198, 4338.665
1146.680, 4338.271
1147.162, 4370.015
1147.644, 4392.984
1148.126, 4407.008
1148.608, 4406.889
1149.090, 4383.985
1149.572, 4365.675
1150.054, 4379.000
1150.536, 4402.305
1151.019, 4414.510
1151.501, 4414.113
1151.983, 4417.870
1152.465, 4426.094
1152.947, 4431.300
1153.429, 4431.720
1153.911, 4424.771
1154.393, 4396.405
1154.876, 4362.573
1155.358, 4353.327
1155.840, 4378.133
1156.322, 4403.039
1156.804, 4428.732
1157.286, 4447.372
1157.768, 4449.229
1158.250, 4442.790
1158.733, 4436.661
1159.215, 4431.424
1159.697, 4428.092
1160.179, 4429.660
1160.661, 4425.219
1161.143, 4410.203
1161.625, 4398.367
1162.107, 4412.192
1162.589, 4436.913
1163.072, 4449.208
1163.554, 4447.317
1164.036, 4435.208
1164.518, 4395.770
1165.000, 4378.408
1165.482, 4401.276
1165.964, 4441.897
1166.446, 4463.427
1166.928, 4469.941
1167.411, 4469.198
1167.893, 4461.683
1168.375, 4453.989
1168.857, 4448.055
1169.339, 4441.679
1169.821, 4429.353
1170.303, 4419.500
1170.785, 4450.904
1171.268, 4506.762
1171.750, 4527.929
1172.232, 4475.376
1172.714, 4439.229
1173.196, 4480.084
1173.678, 4524.687
1174.160, 4526.027
1174.642, 4492.115
1175.125, 4472.373
1175.607, 4465.691
1176.089, 4467.040
1176.571, 4479.322
1177.053, 4492.007
1177.535, 4505.548
1178.017, 4513.232
1178.499, 4503.054
1178.981, 4475.421
1179.464, 4477.864
1179.946, 4508.830
1180.428, 4535.258
1180.910, 4534.318
1181.392, 4525.510
1181.874, 4513.298
1182.356, 4502.800
1182.838, 4499.604
1183.320, 4503.447
1183.803, 4529.938
1184.285, 4581.365
1184.767, 4619.327
1185.249, 4606.185
1185.731, 4578.559
1186.213, 4554.524
1186.695, 4537.141
1187.177, 4534.576
1187.660, 4548.123
1188.142, 4556.201
1188.624, 4554.822
1189.106, 4551.241
1189.588, 4555.615
1190.070, 4557.337
1190.552, 4544.256
1191.034, 4518.936
1191.516, 4499.359
1191.999, 4484.661
1192.481, 4487.211
1192.963, 4515.194
1193.445, 4541.658
1193.927, 4535.862
1194.409, 4517.522
1194.891, 4504.163
1195.373, 4497.205
1195.855, 4501.616
1196.338, 4519.247
1196.820, 4531.938
1197.302, 4530.445
1197.784, 4525.470
1198.266, 4529.359
1198.748, 4536.344
1199.230, 4537.429
1199.712, 4528.980
1200.195, 4536.022
1200.677, 4561.930
1201.159, 4579.021
1201.641, 4564.125
1202.123, 4543.335
1202.605, 4552.370
1203.087, 4573.969
1203.569, 4577.978
1204.052, 4550.207
1204.534, 4540.641
1205.016, 4551.800
1205.498, 4565.657
1205.980, 4567.591
1206.462, 4567.355
1206.944, 4580.506
1207.426, 4599.601
1207.908, 4605.901
1208.391, 4591.918
1208.873, 4584.107
1209.355, 4584.688
1209.837, 4584.965
1210.319, 4572.485
1210.801, 4559.589
1211.283, 4562.120
1211.765, 4576.740
1212.247, 4591.329
1212.730, 4608.049
1213.212, 4612.507
1213.694, 4600.698
1214.176, 4588.479
1214.658, 4594.282
1215.140, 4605.813
1215.622, 4612.929
1216.104, 4613.344
1216.587, 4596.300
1217.069, 4549.414
1217.551, 4530.248
1218.033, 4552.389
1218.515, 4585.732
1218.997, 4595.836
1219.479, 4599.256
1219.961, 4619.395
1220.443, 4655.293
1220.926, 4671.806
1221.408, 4665.289
1221.890, 4648.183
1222.372, 4621.540
1222.854, 4591.643
1223.336, 4555.245
1223.818, 4526.650
1224.300, 4525.441
1224.782, 4555.490
1225.265, 4587.797
1225.747, 4626.929
1226.229, 4642.588
1226.711, 4617.998
1227.193, 4586.938
1227.675, 4593.574
1228.157, 4615.239
1228.639, 4622.638
1229.122, 4610.430
1229.604, 4617.716
1230.086, 4648.819
1230.568, 4670.363
1231.050, 4666.956
1231.532, 4653.877
1232.014, 4643.848
1232.496, 4637.164
1232.979, 4632.590
1233.461, 4628.675
1233.943, 4644.840
1234.425, 4684.670
1234.907, 4705.801
1235.389, 4675.721
1235.871, 4638.718
1236.353, 4642.015
1236.835, 4662.764
1237.318, 4669.555
1237.800, 4657.948
1238.282, 4660.049
1238.764, 4676.888
1239.246, 4685.530
1239.728, 4664.945
1240.210, 4641.398
1240.692, 4635.866
1241.175, 4641.806
1241.657, 4651.108
1242.139, 4664.836
1242.621, 4670.542
1243.103, 4668.197
1243.585, 4669.754
1244.067, 4694.039
1244.549, 4712.449
1245.031, 4695.030
1245.514, 4665.819
1245.996, 4659.855
1246.478, 4679.671
1246.960, 4692.356
1247.442, 4697.420
1247.924, 4696.001
1248.406, 4677.790
1248.888, 4665.488
1249.370, 4681.896
1249.853, 4705.567
1250.335, 4703.403
1250.817, 4676.932
1251.299, 4679.980
1251.781, 4712.567
1252.263, 4739.866
1252.745, 4735.625
1253.227, 4726.949
1253.710, 4729.233
1254.192, 4730.903
1254.674, 4707.845
1255.156, 4667.346
1255.638, 4672.185
1256.120, 4721.229
1256.602, 4756.502
1257.084, 4730.198
1257.567, 4704.558
1258.049, 4698.785
1258.531, 4704.604
1259.013, 4715.780
1259.495, 4728.743
1259.977, 4726.853
1260.459, 4710.619
1260.941, 4699.635
1261.423, 4704.781
1261.906, 4714.909
1262.388, 4730.464
1262.870, 4744.669
1263.352, 4745.979
1263.834, 4738.843
1264.316, 4733.485
1264.798, 4730.581
1265.280, 4725.165
1265.762, 4708.778
1266.245, 4702.153
1266.727, 4711.322
1267.209, 4726.053
1267.691, 4734.009
1268.173, 4737.137
1268.655, 4737.428
1269.137, 4735.424
1269.619, 4735.966
1270.102, 4740.733
1270.584, 4744.188
1271.066, 4744.350
1271.548, 4745.630
1272.030, 4756.559
1272.512, 4769.681
1272.994, 4774.765
1273.476, 4771.689
1273.958, 4773.280
1274.441, 4780.393
1274.923, 4790.876
1275.405, 4805.984
1275.887, 4816.120
1276.369, 4804.850
1276.851, 4788.793
1277.333, 4784.817
1277.815, 4791.503
1278.297, 4795.144
1278.780, 4795.715
1279.262, 4792.528
1279.744, 4784.833
1280.226, 4777.202
1280.708, 4768.979
1281.190, 4766.365
1281.672, 4773.827
1282.154, 4790.261
1282.637, 4819.851
1283.119, 4859.333
1283.601, 4874.964
1284.083, 4857.712
1284.565, 4832.259
1285.047, 4797.872
1285.529, 4778.415
1286.011, 4792.288
1286.494, 4822.343
1286.976, 4814.708
1287.458, 4781.430
1287.940, 4760.525
1288.422, 4758.899
1288.904, 4777.750
1289.386, 4851.310
1289.868, 4897.477
1290.350, 4880.496
1290.833, 4833.046
1291.315, 4814.312
1291.797, 4815.980
1292.279, 4822.805
1292.761, 4832.296
1293.243, 4846.865
1293.725, 4874.991
1294.207, 4884.276
1294.689, 4858.115
1295.172, 4822.668
1295.654, 4810.158
1296.136, 4815.175
1296.618, 4838.487
1297.100, 4882.797
1297.582, 4888.753
1298.064, 4848.802
1298.546, 4819.450
1299.029, 4819.168
1299.511, 4832.681
1299.993, 4853.508
1300.475, 4873.154
1300.957, 4884.354
1301.439, 4886.848
1301.921, 4870.126
1302.403, 4835.455
1302.885, 4824.670
1303.368, 4855.593
1303.850, 4884.387
1304.332, 4878.978
1304.814, 4861.415
1305.296, 4841.350
1305.778, 4823.523
1306.260, 4830.066
1306.742, 4854.099
##END=



