##NAMES=Aluminium
##RRUFFID=R070230
##IDEAL CHEMISTRY=Al
##LOCALITY=Mud Volcano, Bulla Apsheren penninsula, Caspian Sea, Qobustan (Gobustan; Kobustan) Rayonu, Azerbaijan
##OWNER=Michael Scott
##SOURCE=Michael Scott
##DESCRIPTION=Metallic gray blebs in matrix embedded in epoxy, no Raman activity because of crystal symmetry
##STATUS=The identification of this mineral is not yet confirmed.
##URL=rruff.info/R070230
129.6975, 2055.673
130.1796, 2168.631
130.6617, 2288.407
131.1439, 2397.284
131.6260, 2486.254
132.1081, 2553.536
132.5902, 2584.494
133.0723, 2543.229
133.5544, 2499.932
134.0366, 2462.126
134.5187, 2431.682
135.0008, 2410.852
135.4829, 2402.718
135.9650, 2406.129
136.4471, 2395.011
136.9293, 2354.035
137.4114, 2315.726
137.8935, 2284.866
138.3756, 2264.077
138.8577, 2257.017
139.3398, 2267.279
139.8220, 2295.148
140.3041, 2326.708
140.7862, 2357.864
141.2683, 2395.399
141.7504, 2441.331
142.2325, 2495.880
142.7147, 2559.484
143.1968, 2634.271
143.6789, 2720.303
144.1610, 2802.738
144.6431, 2882.673
145.1252, 2958.325
145.6074, 3026.036
146.0895, 3087.023
146.5716, 3149.513
147.0537, 3222.932
147.5358, 3306.394
148.0179, 3371.344
148.5001, 3417.827
148.9822, 3446.421
149.4643, 3450.815
149.9464, 3432.126
150.4285, 3411.340
150.9106, 3408.091
151.3928, 3419.778
151.8749, 3417.355
152.3570, 3397.244
152.8391, 3363.496
153.3212, 3314.663
153.8033, 3250.207
154.2855, 3185.847
154.7676, 3133.739
155.2497, 3092.106
155.7318, 3053.871
156.2139, 3013.845
156.6960, 2978.757
157.1782, 2958.765
157.6603, 2956.028
158.1424, 2957.092
158.6245, 2951.917
159.1066, 2942.656
159.5887, 2934.306
160.0709, 2926.085
160.5530, 2920.237
161.0351, 2921.558
161.5172, 2931.943
161.9993, 2942.745
162.4814, 2948.738
162.9636, 2950.775
163.4457, 2949.441
163.9278, 2938.793
164.4099, 2926.556
164.8920, 2930.542
165.3741, 2958.218
165.8563, 2980.972
166.3384, 2974.988
166.8205, 2952.696
167.3026, 2934.457
167.7847, 2931.186
168.2668, 2936.265
168.7490, 2934.339
169.2311, 2921.613
169.7132, 2910.494
170.1953, 2910.193
170.6774, 2915.303
171.1595, 2917.563
171.6417, 2913.610
172.1238, 2904.222
172.6059, 2889.810
173.0880, 2865.870
173.5701, 2846.197
174.0522, 2839.625
174.5344, 2840.023
175.0165, 2838.693
175.4986, 2830.488
175.9807, 2818.362
176.4628, 2811.158
176.9449, 2813.121
177.4271, 2812.042
177.9092, 2799.487
178.3913, 2782.404
178.8734, 2771.031
179.3555, 2772.315
179.8376, 2780.586
180.3197, 2777.454
180.8019, 2752.669
181.2840, 2734.833
181.7661, 2736.326
182.2482, 2747.696
182.7303, 2757.654
183.2124, 2760.827
183.6946, 2758.984
184.1767, 2757.177
184.6588, 2756.269
185.1409, 2753.743
185.6230, 2747.535
186.1051, 2740.141
186.5873, 2734.867
187.0694, 2733.671
187.5515, 2734.271
188.0336, 2729.891
188.5157, 2715.766
188.9978, 2705.017
189.4800, 2700.729
189.9621, 2700.561
190.4442, 2703.201
190.9263, 2708.470
191.4084, 2713.854
191.8905, 2712.248
192.3727, 2696.476
192.8548, 2686.648
193.3369, 2688.316
193.8190, 2695.407
194.3011, 2703.436
194.7832, 2710.717
195.2654, 2715.567
195.7475, 2713.060
196.2296, 2695.156
196.7117, 2685.268
197.1938, 2692.583
197.6759, 2704.429
198.1581, 2709.519
198.6402, 2704.123
199.1223, 2693.175
199.6044, 2686.042
200.0865, 2685.965
200.5686, 2683.181
201.0508, 2672.629
201.5329, 2662.060
202.0150, 2658.833
202.4971, 2664.535
202.9792, 2673.363
203.4613, 2675.427
203.9435, 2666.140
204.4256, 2660.377
204.9077, 2662.825
205.3898, 2665.721
205.8719, 2663.957
206.3540, 2656.478
206.8362, 2645.476
207.3183, 2632.949
207.8004, 2616.579
208.2825, 2605.135
208.7646, 2604.227
209.2467, 2603.343
209.7289, 2594.206
210.2110, 2577.201
210.6931, 2560.552
211.1752, 2554.543
211.6573, 2562.587
212.1395, 2569.014
212.6216, 2572.285
213.1037, 2575.344
213.5858, 2580.147
214.0679, 2586.320
214.5500, 2591.851
215.0322, 2594.636
215.5143, 2594.285
215.9964, 2593.658
216.4785, 2595.275
216.9606, 2594.303
217.4427, 2587.239
217.9249, 2575.604
218.4070, 2563.410
218.8891, 2553.243
219.3712, 2544.976
219.8533, 2543.400
220.3354, 2554.152
220.8176, 2566.555
221.2997, 2582.240
221.7818, 2597.364
222.2639, 2604.517
222.7460, 2597.084
223.2281, 2576.965
223.7103, 2565.305
224.1924, 2569.534
224.6745, 2574.879
225.1566, 2581.109
225.6387, 2585.980
226.1208, 2585.533
226.6030, 2576.670
227.0851, 2562.648
227.5672, 2557.952
228.0493, 2576.485
228.5314, 2585.353
229.0135, 2568.969
229.4957, 2544.254
229.9778, 2532.636
230.4599, 2544.219
230.9420, 2567.752
231.4241, 2574.358
231.9062, 2549.839
232.3884, 2532.371
232.8705, 2530.275
233.3526, 2534.361
233.8347, 2536.781
234.3168, 2534.936
234.7989, 2531.315
235.2811, 2530.075
235.7632, 2531.671
236.2453, 2534.746
236.7274, 2542.683
237.2095, 2549.511
237.6916, 2549.927
238.1738, 2543.506
238.6559, 2535.527
239.1380, 2533.203
239.6201, 2538.875
240.1022, 2541.484
240.5843, 2536.002
241.0665, 2531.182
241.5486, 2531.149
242.0307, 2536.041
242.5128, 2543.720
242.9949, 2553.665
243.4770, 2566.527
243.9592, 2573.753
244.4413, 2568.592
244.9234, 2563.948
245.4055, 2566.787
245.8876, 2574.387
246.3697, 2579.120
246.8519, 2574.788
247.3340, 2562.415
247.8161, 2550.805
248.2982, 2534.171
248.7803, 2526.971
249.2624, 2541.829
249.7446, 2567.165
250.2267, 2583.464
250.7088, 2577.967
251.1909, 2559.318
251.6730, 2553.245
252.1551, 2566.086
252.6373, 2578.906
253.1194, 2587.080
253.6015, 2591.510
254.0836, 2592.188
254.5657, 2588.446
255.0478, 2583.498
255.5300, 2583.064
256.0121, 2588.661
256.4942, 2593.018
256.9763, 2594.181
257.4584, 2593.198
257.9406, 2589.028
258.4227, 2581.249
258.9048, 2575.583
259.3869, 2581.060
259.8690, 2598.476
260.3511, 2608.133
260.8333, 2599.222
261.3154, 2587.543
261.7975, 2584.368
262.2796, 2589.902
262.7617, 2598.031
263.2438, 2606.973
263.7260, 2615.765
264.2081, 2617.633
264.6902, 2607.178
265.1723, 2596.962
265.6544, 2597.059
266.1365, 2605.016
266.6187, 2612.959
267.1008, 2617.314
267.5829, 2619.127
268.0650, 2620.979
268.5471, 2623.569
269.0292, 2624.114
269.5114, 2618.638
269.9935, 2609.941
270.4756, 2602.534
270.9577, 2596.958
271.4398, 2593.653
271.9219, 2594.491
272.4041, 2599.638
272.8862, 2603.047
273.3683, 2600.132
273.8504, 2594.303
274.3325, 2592.240
274.8146, 2595.580
275.2968, 2600.280
275.7789, 2605.833
276.2610, 2611.124
276.7431, 2610.415
277.2252, 2598.915
277.7073, 2584.253
278.1895, 2579.918
278.6716, 2587.627
279.1537, 2594.866
279.6358, 2598.133
280.1179, 2597.788
280.6000, 2593.209
281.0822, 2583.618
281.5643, 2573.649
282.0464, 2568.520
282.5285, 2568.390
283.0106, 2571.376
283.4927, 2582.023
283.9749, 2592.710
284.4570, 2595.951
284.9391, 2591.440
285.4212, 2584.120
285.9033, 2576.910
286.3854, 2570.125
286.8676, 2568.423
287.3497, 2580.552
287.8318, 2588.857
288.3139, 2578.435
288.7960, 2556.571
289.2781, 2544.337
289.7603, 2554.838
290.2424, 2581.381
290.7245, 2595.557
291.2066, 2589.933
291.6887, 2582.166
292.1708, 2570.334
292.6530, 2559.364
293.1351, 2557.884
293.6172, 2568.646
294.0993, 2582.540
294.5814, 2582.698
295.0635, 2556.067
295.5457, 2540.300
296.0278, 2545.207
296.5099, 2553.137
296.9920, 2548.447
297.4741, 2531.521
297.9562, 2516.963
298.4384, 2521.389
298.9205, 2548.925
299.4026, 2566.803
299.8847, 2568.478
300.3668, 2567.373
300.8489, 2567.044
301.3311, 2567.531
301.8131, 2567.427
302.2953, 2565.340
302.7774, 2562.412
303.2595, 2565.150
303.7416, 2581.064
304.2237, 2591.379
304.7058, 2591.384
305.1880, 2584.882
305.6701, 2574.262
306.1522, 2560.177
306.6343, 2546.844
307.1164, 2542.256
307.5985, 2549.149
308.0807, 2554.658
308.5628, 2556.883
309.0449, 2556.718
309.5270, 2554.265
310.0091, 2549.613
310.4912, 2543.240
310.9734, 2533.142
311.4555, 2520.162
311.9376, 2514.763
312.4197, 2522.348
312.9018, 2531.026
313.3839, 2535.255
313.8661, 2534.939
314.3482, 2529.285
314.8303, 2511.811
315.3124, 2491.459
315.7945, 2486.093
316.2766, 2498.195
316.7588, 2510.916
317.2409, 2517.432
317.7230, 2517.821
318.2051, 2511.463
318.6872, 2494.739
319.1693, 2477.518
319.6515, 2466.423
320.1336, 2460.974
320.6157, 2459.556
321.0978, 2463.189
321.5799, 2468.233
322.0620, 2468.072
322.5442, 2461.766
323.0263, 2457.336
323.5084, 2458.312
323.9905, 2461.874
324.4726, 2464.515
324.9547, 2465.654
325.4369, 2466.326
325.9190, 2467.888
326.4011, 2470.500
326.8832, 2470.084
327.3653, 2462.128
327.8474, 2455.381
328.3296, 2455.787
328.8117, 2461.716
329.2938, 2468.102
329.7759, 2472.274
330.2580, 2474.146
330.7401, 2473.169
331.2223, 2466.357
331.7044, 2460.367
332.1865, 2452.759
332.6686, 2447.709
333.1507, 2452.589
333.6328, 2468.719
334.1150, 2486.445
334.5971, 2490.371
335.0792, 2473.024
335.5613, 2462.006
336.0434, 2458.722
336.5255, 2459.664
337.0077, 2447.413
337.4898, 2466.707
337.9719, 2477.627
338.4540, 2480.623
338.9361, 2451.965
339.4182, 2464.182
339.9004, 2460.018
340.3825, 2455.183
340.8646, 2473.154
341.3467, 2449.099
341.8288, 2466.708
342.3109, 2467.686
342.7931, 2476.276
343.2752, 2468.383
343.7573, 2470.152
344.2394, 2474.347
344.7215, 2466.448
345.2036, 2456.068
345.6858, 2450.582
346.1679, 2450.339
346.6500, 2452.093
347.1321, 2456.422
347.6142, 2461.159
348.0963, 2458.298
348.5785, 2443.985
349.0606, 2431.661
349.5427, 2435.424
350.0248, 2450.135
350.5069, 2460.768
350.9890, 2461.052
351.4712, 2459.247
351.9533, 2463.499
352.4354, 2472.331
352.9175, 2477.368
353.3996, 2473.600
353.8817, 2464.836
354.3639, 2461.737
354.8460, 2468.676
355.3281, 2471.016
355.8102, 2461.175
356.2923, 2446.983
356.7744, 2436.978
357.2566, 2433.113
357.7387, 2434.323
358.2208, 2440.268
358.7029, 2452.701
359.1850, 2459.874
359.6671, 2457.973
360.1493, 2455.425
360.6314, 2456.721
361.1135, 2460.310
361.5956, 2462.096
362.0777, 2459.522
362.5598, 2453.884
363.0420, 2449.727
363.5241, 2446.209
364.0062, 2445.863
364.4883, 2453.348
364.9704, 2461.045
365.4525, 2461.318
365.9347, 2453.093
366.4168, 2443.095
366.8989, 2439.154
367.3810, 2441.641
367.8631, 2443.691
368.3452, 2446.547
368.8274, 2446.943
369.3095, 2440.784
369.7916, 2431.072
370.2737, 2424.892
370.7558, 2425.565
371.2379, 2431.635
371.7201, 2443.044
372.2022, 2460.804
372.6843, 2473.927
373.1664, 2476.325
373.6485, 2471.897
374.1306, 2466.835
374.6128, 2461.070
375.0949, 2455.552
375.5770, 2446.932
376.0591, 2439.585
376.5412, 2445.018
377.0233, 2466.917
377.5055, 2491.237
377.9876, 2503.991
378.4697, 2503.712
378.9518, 2501.490
379.4339, 2497.564
379.9160, 2491.600
380.3982, 2481.083
380.8803, 2468.160
381.3624, 2458.721
381.8445, 2456.126
382.3266, 2458.529
382.8087, 2460.355
383.2909, 2461.073
383.7730, 2461.848
384.2551, 2464.513
384.7372, 2466.082
385.2193, 2462.995
385.7014, 2455.376
386.1836, 2447.083
386.6657, 2440.967
387.1478, 2436.708
387.6299, 2441.705
388.1120, 2469.526
388.5941, 2490.887
389.0763, 2495.365
389.5584, 2487.632
390.0405, 2473.323
390.5226, 2452.302
391.0047, 2432.987
391.4868, 2431.263
391.9690, 2449.286
392.4511, 2464.708
392.9332, 2473.578
393.4153, 2475.422
393.8974, 2467.111
394.3795, 2448.908
394.8617, 2435.431
395.3438, 2435.848
395.8259, 2444.839
396.3080, 2455.130
396.7901, 2466.307
397.2722, 2474.920
397.7544, 2477.901
398.2365, 2476.090
398.7186, 2475.096
399.2007, 2477.337
399.6828, 2477.710
400.1649, 2471.756
400.6471, 2463.209
401.1292, 2459.338
401.6113, 2462.548
402.0934, 2467.147
402.5755, 2463.866
403.0576, 2446.903
403.5398, 2440.261
404.0219, 2454.774
404.5040, 2468.026
404.9861, 2465.410
405.4682, 2451.711
405.9503, 2440.488
406.4325, 2440.276
406.9146, 2448.939
407.3967, 2460.370
407.8788, 2480.354
408.3609, 2490.806
408.8430, 2478.311
409.3252, 2462.308
409.8073, 2459.148
410.2894, 2470.897
410.7715, 2485.746
411.2536, 2494.821
411.7357, 2498.642
412.2179, 2498.689
412.7000, 2493.281
413.1821, 2488.370
413.6642, 2490.143
414.1463, 2495.224
414.6284, 2496.584
415.1106, 2489.464
415.5927, 2482.518
416.0748, 2483.778
416.5569, 2490.589
417.0390, 2493.271
417.5211, 2487.217
418.0033, 2481.017
418.4854, 2490.104
418.9675, 2524.136
419.4496, 2539.053
419.9317, 2517.330
420.4138, 2489.078
420.8960, 2470.143
421.3781, 2462.422
421.8602, 2466.879
422.3423, 2486.096
422.8244, 2513.694
423.3065, 2521.084
423.7887, 2487.761
424.2708, 2466.039
424.7529, 2465.110
425.2350, 2474.193
425.7171, 2488.771
426.1992, 2506.063
426.6814, 2518.538
427.1635, 2517.001
427.6456, 2502.679
428.1277, 2490.115
428.6098, 2478.921
429.0919, 2470.336
429.5741, 2464.308
430.0562, 2461.305
430.5383, 2462.793
431.0204, 2470.264
431.5025, 2479.796
431.9846, 2490.237
432.4668, 2500.402
432.9489, 2505.083
433.4310, 2501.845
433.9131, 2496.559
434.3952, 2496.223
434.8773, 2501.404
435.3595, 2506.033
435.8416, 2511.009
436.3237, 2514.249
436.8058, 2513.271
437.2879, 2509.496
437.7701, 2506.222
438.2522, 2505.055
438.7343, 2505.976
439.2164, 2509.567
439.6985, 2522.203
440.1806, 2525.692
440.6628, 2510.642
441.1449, 2494.963
441.6270, 2490.458
442.1091, 2496.539
442.5912, 2505.704
443.0733, 2513.180
443.5555, 2519.006
444.0376, 2523.020
444.5197, 2524.523
445.0018, 2526.195
445.4839, 2530.408
445.9660, 2534.582
446.4482, 2537.041
446.9303, 2537.983
447.4124, 2533.876
447.8945, 2512.648
448.3766, 2486.758
448.8587, 2487.697
449.3409, 2521.519
449.8230, 2555.510
450.3051, 2563.563
450.7872, 2547.927
451.2693, 2536.790
451.7514, 2533.031
452.2336, 2530.040
452.7157, 2522.886
453.1978, 2516.219
453.6799, 2518.791
454.1620, 2532.420
454.6441, 2547.862
455.1263, 2552.860
455.6084, 2545.482
456.0905, 2538.611
456.5726, 2528.822
457.0547, 2523.309
457.5368, 2529.259
458.0190, 2539.797
458.5011, 2543.099
458.9832, 2533.228
459.4653, 2519.084
459.9474, 2513.745
460.4295, 2517.367
460.9117, 2520.609
461.3938, 2522.292
461.8759, 2522.264
462.3580, 2518.298
462.8401, 2511.677
463.3222, 2509.787
463.8044, 2516.302
464.2865, 2527.063
464.7686, 2541.532
465.2507, 2557.751
465.7328, 2568.223
466.2149, 2569.269
466.6971, 2564.330
467.1792, 2559.827
467.6613, 2555.180
468.1434, 2552.394
468.6255, 2552.706
469.1076, 2553.757
469.5898, 2556.255
470.0719, 2558.334
470.5540, 2554.447
471.0361, 2539.696
471.5182, 2520.367
472.0003, 2517.270
472.4825, 2539.962
472.9646, 2552.813
473.4467, 2538.544
473.9288, 2518.776
474.4109, 2504.434
474.8930, 2496.989
475.3752, 2497.303
475.8573, 2513.479
476.3394, 2534.713
476.8215, 2540.156
477.3036, 2529.200
477.7857, 2519.598
478.2679, 2521.132
478.7500, 2528.848
479.2321, 2529.380
479.7142, 2516.027
480.1963, 2512.868
480.6784, 2537.195
481.1606, 2565.135
481.6427, 2573.710
482.1248, 2562.876
482.6069, 2546.281
483.0890, 2533.151
483.5711, 2523.834
484.0533, 2520.133
484.5354, 2523.721
485.0175, 2530.609
485.4996, 2544.715
485.9817, 2558.309
486.4638, 2563.834
486.9460, 2561.293
487.4281, 2558.247
487.9102, 2563.044
488.3923, 2571.773
488.8744, 2571.152
489.3565, 2559.462
489.8387, 2547.622
490.3208, 2539.570
490.8029, 2535.841
491.2850, 2537.509
491.7671, 2547.228
492.2492, 2554.603
492.7314, 2554.603
493.2135, 2551.250
493.6956, 2550.081
494.1777, 2550.996
494.6598, 2547.570
495.1419, 2533.124
495.6241, 2511.352
496.1062, 2506.486
496.5883, 2537.478
497.0704, 2559.101
497.5525, 2560.893
498.0346, 2556.237
498.5168, 2555.604
498.9989, 2560.387
499.4810, 2566.230
499.9631, 2568.706
500.4452, 2569.407
500.9273, 2575.882
501.4095, 2590.478
501.8916, 2600.815
502.3737, 2599.808
502.8558, 2592.213
503.3379, 2585.679
503.8200, 2580.460
504.3022, 2575.872
504.7843, 2571.768
505.2664, 2568.117
505.7485, 2564.654
506.2306, 2561.510
506.7127, 2559.305
507.1949, 2558.165
507.6770, 2558.675
508.1591, 2563.616
508.6412, 2580.701
509.1233, 2590.773
509.6054, 2585.978
510.0876, 2579.429
510.5697, 2583.144
511.0518, 2595.475
511.5339, 2603.971
512.0161, 2597.653
512.4982, 2582.392
512.9803, 2574.330
513.4624, 2574.454
513.9445, 2576.192
514.4266, 2577.515
514.9088, 2579.248
515.3909, 2584.000
515.8730, 2592.501
516.3551, 2595.109
516.8372, 2581.646
517.3193, 2566.391
517.8015, 2564.527
518.2836, 2573.696
518.7657, 2581.004
519.2478, 2579.410
519.7299, 2572.753
520.2120, 2570.330
520.6942, 2575.610
521.1763, 2578.513
521.6584, 2576.813
522.1405, 2575.099
522.6226, 2577.662
523.1047, 2582.246
523.5869, 2582.446
524.0690, 2573.647
524.5511, 2561.615
525.0332, 2554.985
525.5153, 2553.750
525.9974, 2557.535
526.4796, 2569.258
526.9617, 2581.111
527.4438, 2583.764
527.9259, 2578.335
528.4080, 2572.988
528.8901, 2564.086
529.3723, 2560.271
529.8544, 2570.771
530.3365, 2589.264
530.8186, 2603.870
531.3007, 2610.541
531.7828, 2612.226
532.2650, 2613.147
532.7471, 2613.897
533.2292, 2609.984
533.7113, 2591.854
534.1934, 2580.206
534.6755, 2587.028
535.1577, 2601.735
535.6398, 2609.436
536.1219, 2605.434
536.6040, 2598.590
537.0861, 2596.924
537.5682, 2599.045
538.0504, 2601.256
538.5325, 2603.496
539.0146, 2602.579
539.4967, 2593.999
539.9788, 2580.534
540.4609, 2576.053
540.9431, 2587.781
541.4252, 2597.467
541.9073, 2597.510
542.3894, 2596.399
542.8715, 2605.115
543.3536, 2622.492
543.8358, 2635.624
544.3179, 2632.434
544.8000, 2618.482
545.2821, 2620.729
545.7642, 2648.712
546.2463, 2666.685
546.7285, 2658.085
547.2106, 2641.412
547.6927, 2628.796
548.1748, 2620.937
548.6569, 2616.669
549.1390, 2615.380
549.6211, 2617.597
550.1032, 2628.102
550.5853, 2643.771
551.0674, 2649.412
551.5496, 2637.632
552.0317, 2620.305
552.5138, 2617.274
552.9959, 2634.743
553.4780, 2645.587
553.9601, 2643.689
554.4423, 2642.748
554.9244, 2648.738
555.4065, 2659.169
555.8886, 2671.011
556.3707, 2683.360
556.8528, 2692.169
557.3350, 2691.759
557.8171, 2682.938
558.2992, 2670.241
558.7813, 2650.709
559.2634, 2638.315
559.7455, 2646.907
560.2277, 2669.383
560.7098, 2681.959
561.1919, 2679.661
561.6740, 2675.940
562.1561, 2673.663
562.6382, 2672.841
563.1204, 2674.188
563.6025, 2677.253
564.0846, 2680.142
564.5667, 2681.606
565.0488, 2681.612
565.5309, 2679.912
566.0131, 2675.884
566.4952, 2671.691
566.9773, 2662.631
567.4594, 2657.800
567.9415, 2668.899
568.4236, 2691.290
568.9058, 2703.398
569.3879, 2686.005
569.8700, 2663.517
570.3521, 2662.969
570.8342, 2678.472
571.3163, 2690.263
571.7985, 2692.230
572.2806, 2689.685
572.7627, 2688.916
573.2448, 2690.317
573.7269, 2689.686
574.2090, 2689.557
574.6912, 2684.471
575.1733, 2665.546
575.6554, 2644.891
576.1375, 2636.952
576.6196, 2644.372
577.1017, 2656.610
577.5839, 2665.829
578.0660, 2672.201
578.5481, 2674.906
579.0302, 2661.948
579.5123, 2681.222
579.9944, 2692.122
580.4766, 2695.098
580.9587, 2666.420
581.4408, 2678.617
581.9229, 2674.433
582.4050, 2669.578
582.8871, 2687.528
583.3693, 2663.454
583.8514, 2681.043
584.3335, 2682.001
584.8156, 2690.570
585.2977, 2682.657
585.7798, 2679.835
586.2620, 2693.501
586.7441, 2698.037
587.2262, 2688.227
587.7083, 2676.815
588.1904, 2687.890
588.6725, 2701.141
589.1547, 2702.068
589.6368, 2682.485
590.1189, 2667.238
590.6010, 2673.512
591.0831, 2688.003
591.5652, 2691.653
592.0474, 2684.865
592.5295, 2683.608
593.0116, 2699.892
593.4937, 2724.976
593.9758, 2730.445
594.4579, 2705.225
594.9401, 2686.684
595.4222, 2681.297
595.9043, 2680.344
596.3864, 2681.648
596.8685, 2683.993
597.3506, 2684.959
597.8328, 2682.853
598.3149, 2680.658
598.7970, 2681.098
599.2791, 2683.551
599.7612, 2687.194
600.2433, 2691.893
600.7255, 2694.260
601.2076, 2689.938
601.6897, 2680.816
602.1718, 2682.531
602.6539, 2713.018
603.1360, 2729.643
603.6182, 2719.366
604.1003, 2702.121
604.5824, 2690.651
605.0645, 2686.183
605.5466, 2685.489
606.0287, 2686.598
606.5109, 2690.584
606.9930, 2704.024
607.4751, 2724.391
607.9572, 2728.421
608.4393, 2706.636
608.9214, 2681.898
609.4036, 2678.216
609.8857, 2695.719
610.3678, 2706.242
610.8499, 2706.876
611.3320, 2704.928
611.8141, 2695.782
612.2963, 2688.797
612.7784, 2699.209
613.2605, 2724.320
613.7426, 2740.933
614.2247, 2727.093
614.7068, 2696.034
615.1890, 2680.502
615.6711, 2681.058
616.1532, 2685.401
616.6353, 2692.237
617.1174, 2697.621
617.5995, 2696.064
618.0817, 2687.387
618.5638, 2680.834
619.0459, 2673.347
619.5280, 2671.968
620.0101, 2684.631
620.4922, 2702.369
620.9744, 2714.126
621.4565, 2717.881
621.9386, 2719.092
622.4207, 2724.123
622.9028, 2729.921
623.3849, 2721.037
623.8671, 2678.081
624.3492, 2696.891
624.8313, 2707.327
625.3134, 2709.839
625.7955, 2680.697
