##NAMES=Alum-(K)
##RRUFFID=R060528
##IDEAL CHEMISTRY=KAl(S^6+^O_4_)_2_&#183;12H_2_O
##LOCALITY=El Desierto mine fumaroles, Potosí, Bolivia
##OWNER=Michael Scott
##SOURCE=Michael Scott
##DESCRIPTION=Colorless thin tabular crystals associated with yellow sulfur and colorless tamarugite
##STATUS=The identification of this mineral has been confirmed by single-crystal X-ray diffraction.
##URL=rruff.info/R060528
9.059570e+001, 1.002433e+003
9.107782e+001, 1.002667e+003
9.155994e+001, 1.002798e+003
9.204205e+001, 1.003860e+003
9.252417e+001, 1.004064e+003
9.300629e+001, 1.001980e+003
9.348840e+001, 9.924818e+002
9.397052e+001, 9.712114e+002
9.445264e+001, 9.393967e+002
9.493475e+001, 9.102404e+002
9.541687e+001, 8.843179e+002
9.589898e+001, 8.621913e+002
9.638110e+001, 8.430981e+002
9.686321e+001, 8.261352e+002
9.734533e+001, 8.102366e+002
9.782745e+001, 7.943343e+002
9.830956e+001, 7.830781e+002
9.879168e+001, 7.773613e+002
9.927380e+001, 7.737733e+002
9.975591e+001, 7.720308e+002
1.002380e+002, 7.716095e+002
1.007201e+002, 7.714386e+002
1.012023e+002, 7.710339e+002
1.016844e+002, 7.702814e+002
1.021665e+002, 7.690692e+002
1.026486e+002, 7.672352e+002
1.031307e+002, 7.649568e+002
1.036128e+002, 7.621257e+002
1.040950e+002, 7.585038e+002
1.045771e+002, 7.552659e+002
1.050592e+002, 7.521741e+002
1.055413e+002, 7.497747e+002
1.060234e+002, 7.493333e+002
1.065055e+002, 7.513548e+002
1.069877e+002, 7.556970e+002
1.074698e+002, 7.621476e+002
1.079519e+002, 7.726917e+002
1.084340e+002, 7.829254e+002
1.089161e+002, 7.913594e+002
1.093982e+002, 7.980751e+002
1.098804e+002, 8.034336e+002
1.103625e+002, 8.078881e+002
1.108446e+002, 8.116317e+002
1.113267e+002, 8.131727e+002
1.118088e+002, 8.130807e+002
1.122909e+002, 8.106400e+002
1.127731e+002, 8.048947e+002
1.132552e+002, 7.960018e+002
1.137373e+002, 7.851271e+002
1.142194e+002, 7.739915e+002
1.147015e+002, 7.623324e+002
1.151836e+002, 7.506314e+002
1.156658e+002, 7.395365e+002
1.161479e+002, 7.280870e+002
1.166300e+002, 7.150352e+002
1.171121e+002, 6.998254e+002
1.175942e+002, 6.835020e+002
1.180763e+002, 6.686948e+002
1.185584e+002, 6.558292e+002
1.190406e+002, 6.431014e+002
1.195227e+002, 6.296765e+002
1.200048e+002, 6.159573e+002
1.204869e+002, 6.029794e+002
1.209690e+002, 5.914026e+002
1.214511e+002, 5.808568e+002
1.219333e+002, 5.702535e+002
1.224154e+002, 5.594326e+002
1.228975e+002, 5.488154e+002
1.233796e+002, 5.390552e+002
1.238617e+002, 5.302375e+002
1.243438e+002, 5.213126e+002
1.248260e+002, 5.117436e+002
1.253081e+002, 5.018639e+002
1.257902e+002, 4.917473e+002
1.262723e+002, 4.812751e+002
1.267544e+002, 4.708870e+002
1.272365e+002, 4.616679e+002
1.277187e+002, 4.536645e+002
1.282008e+002, 4.469293e+002
1.286829e+002, 4.417496e+002
1.291650e+002, 4.375101e+002
1.296471e+002, 4.334489e+002
1.301292e+002, 4.290841e+002
1.306114e+002, 4.244501e+002
1.310935e+002, 4.200397e+002
1.315756e+002, 4.159401e+002
1.320577e+002, 4.119731e+002
1.325398e+002, 4.081935e+002
1.330219e+002, 4.045311e+002
1.335041e+002, 4.008350e+002
1.339862e+002, 3.969001e+002
1.344683e+002, 3.925698e+002
1.349504e+002, 3.890978e+002
1.354325e+002, 3.866614e+002
1.359146e+002, 3.847368e+002
1.363968e+002, 3.831347e+002
1.368789e+002, 3.817962e+002
1.373610e+002, 3.806448e+002
1.378431e+002, 3.796390e+002
1.383252e+002, 3.788063e+002
1.388073e+002, 3.779721e+002
1.392895e+002, 3.771262e+002
1.397716e+002, 3.762704e+002
1.402537e+002, 3.754062e+002
1.407358e+002, 3.745385e+002
1.412179e+002, 3.736583e+002
1.417000e+002, 3.727173e+002
1.421821e+002, 3.717188e+002
1.426643e+002, 3.708243e+002
1.431464e+002, 3.700479e+002
1.436285e+002, 3.694174e+002
1.441106e+002, 3.690131e+002
1.445927e+002, 3.688026e+002
1.450748e+002, 3.689369e+002
1.455570e+002, 3.695512e+002
1.460391e+002, 3.706407e+002
1.465212e+002, 3.718584e+002
1.470033e+002, 3.729081e+002
1.474854e+002, 3.737693e+002
1.479675e+002, 3.746740e+002
1.484497e+002, 3.759620e+002
1.489318e+002, 3.771200e+002
1.494139e+002, 3.778491e+002
1.498960e+002, 3.780854e+002
1.503781e+002, 3.779796e+002
1.508602e+002, 3.776537e+002
1.513424e+002, 3.767734e+002
1.518245e+002, 3.764406e+002
1.523066e+002, 3.770086e+002
1.527887e+002, 3.779029e+002
1.532708e+002, 3.786599e+002
1.537529e+002, 3.791061e+002
1.542351e+002, 3.794238e+002
1.547172e+002, 3.800784e+002
1.551993e+002, 3.817505e+002
1.556814e+002, 3.829332e+002
1.561635e+002, 3.837565e+002
1.566456e+002, 3.840084e+002
1.571278e+002, 3.832911e+002
1.576099e+002, 3.813612e+002
1.580920e+002, 3.785418e+002
1.585741e+002, 3.762022e+002
1.590562e+002, 3.744987e+002
1.595383e+002, 3.730061e+002
1.600205e+002, 3.714722e+002
1.605026e+002, 3.700651e+002
1.609847e+002, 3.692082e+002
1.614668e+002, 3.692138e+002
1.619489e+002, 3.699541e+002
1.624310e+002, 3.706882e+002
1.629131e+002, 3.715276e+002
1.633953e+002, 3.722588e+002
1.638774e+002, 3.726553e+002
1.643595e+002, 3.727560e+002
1.648416e+002, 3.729322e+002
1.653237e+002, 3.734021e+002
1.658058e+002, 3.741299e+002
1.662880e+002, 3.750319e+002
1.667701e+002, 3.765647e+002
1.672522e+002, 3.779067e+002
1.677343e+002, 3.781212e+002
1.682164e+002, 3.771217e+002
1.686985e+002, 3.753995e+002
1.691807e+002, 3.729787e+002
1.696628e+002, 3.700809e+002
1.701449e+002, 3.668929e+002
1.706270e+002, 3.635456e+002
1.711091e+002, 3.599274e+002
1.715912e+002, 3.557753e+002
1.720734e+002, 3.510194e+002
1.725555e+002, 3.457847e+002
1.730376e+002, 3.398896e+002
1.735197e+002, 3.336532e+002
1.740018e+002, 3.274291e+002
1.744839e+002, 3.213202e+002
1.749661e+002, 3.154256e+002
1.754482e+002, 3.104719e+002
1.759303e+002, 3.073163e+002
1.764124e+002, 3.042229e+002
1.768945e+002, 3.006444e+002
1.773766e+002, 2.967990e+002
1.778588e+002, 2.931573e+002
1.783409e+002, 2.900638e+002
1.788230e+002, 2.875172e+002
1.793051e+002, 2.849464e+002
1.797872e+002, 2.824044e+002
1.802693e+002, 2.797824e+002
1.807515e+002, 2.768730e+002
1.812336e+002, 2.738250e+002
1.817157e+002, 2.710593e+002
1.821978e+002, 2.689947e+002
1.826799e+002, 2.677619e+002
1.831620e+002, 2.658973e+002
1.836441e+002, 2.628057e+002
1.841263e+002, 2.597550e+002
1.846084e+002, 2.574547e+002
1.850905e+002, 2.558578e+002
1.855726e+002, 2.544129e+002
1.860547e+002, 2.526234e+002
1.865368e+002, 2.504261e+002
1.870190e+002, 2.483518e+002
1.875011e+002, 2.464458e+002
1.879832e+002, 2.446418e+002
1.884653e+002, 2.429075e+002
1.889474e+002, 2.412445e+002
1.894296e+002, 2.396331e+002
1.899117e+002, 2.381052e+002
1.903938e+002, 2.366557e+002
1.908759e+002, 2.350313e+002
1.913580e+002, 2.329276e+002
1.918401e+002, 2.307719e+002
1.923223e+002, 2.291447e+002
1.928044e+002, 2.281989e+002
1.932865e+002, 2.273068e+002
1.937686e+002, 2.257009e+002
1.942507e+002, 2.236057e+002
1.947328e+002, 2.217142e+002
1.952150e+002, 2.202705e+002
1.956971e+002, 2.191600e+002
1.961792e+002, 2.182119e+002
1.966613e+002, 2.175240e+002
1.971434e+002, 2.167483e+002
1.976255e+002, 2.155880e+002
1.981077e+002, 2.141389e+002
1.985898e+002, 2.126465e+002
1.990719e+002, 2.110778e+002
1.995540e+002, 2.095210e+002
2.000361e+002, 2.084109e+002
2.005182e+002, 2.080100e+002
2.010004e+002, 2.077276e+002
2.014825e+002, 2.072629e+002
2.019646e+002, 2.066553e+002
2.024467e+002, 2.060173e+002
2.029288e+002, 2.054292e+002
2.034109e+002, 2.048858e+002
2.038930e+002, 2.043033e+002
2.043752e+002, 2.035760e+002
2.048573e+002, 2.029302e+002
2.053394e+002, 2.025380e+002
2.058215e+002, 2.023091e+002
2.063036e+002, 2.020266e+002
2.067857e+002, 2.015173e+002
2.072679e+002, 2.007744e+002
2.077500e+002, 1.999457e+002
2.082321e+002, 1.987646e+002
2.087142e+002, 1.977394e+002
2.091963e+002, 1.970611e+002
2.096784e+002, 1.966914e+002
2.101606e+002, 1.964841e+002
2.106427e+002, 1.963086e+002
2.111248e+002, 1.961507e+002
2.116069e+002, 1.961605e+002
2.120890e+002, 1.966447e+002
2.125711e+002, 1.969974e+002
2.130533e+002, 1.968728e+002
2.135354e+002, 1.963651e+002
2.140175e+002, 1.958303e+002
2.144996e+002, 1.955988e+002
2.149817e+002, 1.957226e+002
2.154638e+002, 1.958013e+002
2.159460e+002, 1.959738e+002
2.164281e+002, 1.959967e+002
2.169102e+002, 1.956954e+002
2.173923e+002, 1.951067e+002
2.178744e+002, 1.944046e+002
2.183565e+002, 1.937208e+002
2.188387e+002, 1.930470e+002
2.193208e+002, 1.925865e+002
2.198029e+002, 1.925661e+002
2.202850e+002, 1.925466e+002
2.207671e+002, 1.922821e+002
2.212492e+002, 1.917587e+002
2.217314e+002, 1.910611e+002
2.222135e+002, 1.902131e+002
2.226956e+002, 1.892074e+002
2.231777e+002, 1.883737e+002
2.236598e+002, 1.877874e+002
2.241419e+002, 1.873128e+002
2.246240e+002, 1.868208e+002
2.251062e+002, 1.863111e+002
2.255883e+002, 1.859374e+002
2.260704e+002, 1.858703e+002
2.265525e+002, 1.860834e+002
2.270346e+002, 1.862605e+002
2.275167e+002, 1.862924e+002
2.279989e+002, 1.863380e+002
2.284810e+002, 1.866032e+002
2.289631e+002, 1.871055e+002
2.294452e+002, 1.875562e+002
2.299273e+002, 1.877477e+002
2.304094e+002, 1.877157e+002
2.308916e+002, 1.875635e+002
2.313737e+002, 1.872005e+002
2.318558e+002, 1.867818e+002
2.323379e+002, 1.864955e+002
2.328200e+002, 1.863592e+002
2.333021e+002, 1.862328e+002
2.337843e+002, 1.860440e+002
2.342664e+002, 1.858024e+002
2.347485e+002, 1.855240e+002
2.352306e+002, 1.852753e+002
2.357127e+002, 1.849377e+002
2.361948e+002, 1.842138e+002
2.366770e+002, 1.829386e+002
2.371591e+002, 1.819521e+002
2.376412e+002, 1.820221e+002
2.381233e+002, 1.825187e+002
2.386054e+002, 1.827244e+002
2.390875e+002, 1.822755e+002
2.395697e+002, 1.816517e+002
2.400518e+002, 1.817305e+002
2.405339e+002, 1.827963e+002
2.410160e+002, 1.836515e+002
2.414981e+002, 1.837479e+002
2.419802e+002, 1.834551e+002
2.424624e+002, 1.830081e+002
2.429445e+002, 1.824194e+002
2.434266e+002, 1.819194e+002
2.439087e+002, 1.819989e+002
2.443908e+002, 1.829385e+002
2.448729e+002, 1.836886e+002
2.453550e+002, 1.837922e+002
2.458372e+002, 1.836831e+002
2.463193e+002, 1.837505e+002
2.468014e+002, 1.841348e+002
2.472835e+002, 1.846187e+002
2.477656e+002, 1.847818e+002
2.482477e+002, 1.843980e+002
2.487299e+002, 1.842388e+002
2.492120e+002, 1.847257e+002
2.496941e+002, 1.852942e+002
2.501762e+002, 1.855410e+002
2.506583e+002, 1.853389e+002
2.511404e+002, 1.847829e+002
2.516226e+002, 1.839541e+002
2.521047e+002, 1.826072e+002
2.525868e+002, 1.815690e+002
2.530689e+002, 1.812674e+002
2.535510e+002, 1.810227e+002
2.540331e+002, 1.802818e+002
2.545153e+002, 1.789352e+002
2.549974e+002, 1.773548e+002
2.554795e+002, 1.761063e+002
2.559616e+002, 1.753729e+002
2.564437e+002, 1.746012e+002
2.569258e+002, 1.737540e+002
2.574080e+002, 1.728919e+002
2.578901e+002, 1.720767e+002
2.583722e+002, 1.713083e+002
2.588543e+002, 1.705014e+002
2.593364e+002, 1.694853e+002
2.598185e+002, 1.679607e+002
2.603007e+002, 1.670262e+002
2.607828e+002, 1.670939e+002
2.612649e+002, 1.672954e+002
2.617470e+002, 1.670759e+002
2.622291e+002, 1.663938e+002
2.627112e+002, 1.655815e+002
2.631934e+002, 1.650038e+002
2.636755e+002, 1.646876e+002
2.641576e+002, 1.645422e+002
2.646397e+002, 1.648303e+002
2.651218e+002, 1.650380e+002
2.656039e+002, 1.647974e+002
2.660861e+002, 1.641565e+002
2.665682e+002, 1.634531e+002
2.670503e+002, 1.630045e+002
2.675324e+002, 1.628315e+002
2.680145e+002, 1.628365e+002
2.684966e+002, 1.632393e+002
2.689788e+002, 1.635844e+002
2.694609e+002, 1.635790e+002
2.699430e+002, 1.632879e+002
2.704251e+002, 1.629965e+002
2.709072e+002, 1.629388e+002
2.713893e+002, 1.631237e+002
2.718715e+002, 1.633082e+002
2.723536e+002, 1.633836e+002
2.728357e+002, 1.635614e+002
2.733178e+002, 1.639141e+002
2.737999e+002, 1.644408e+002
2.742820e+002, 1.651322e+002
2.747642e+002, 1.659983e+002
2.752463e+002, 1.670257e+002
2.757284e+002, 1.680344e+002
2.762105e+002, 1.690937e+002
2.766926e+002, 1.700698e+002
2.771747e+002, 1.708263e+002
2.776568e+002, 1.714673e+002
2.781389e+002, 1.722144e+002
2.786211e+002, 1.731915e+002
2.791032e+002, 1.743599e+002
2.795853e+002, 1.755780e+002
2.800674e+002, 1.767767e+002
2.805495e+002, 1.780950e+002
2.810316e+002, 1.796492e+002
2.815138e+002, 1.813384e+002
2.819959e+002, 1.829783e+002
2.824780e+002, 1.844815e+002
2.829601e+002, 1.859156e+002
2.834422e+002, 1.874123e+002
2.839243e+002, 1.889200e+002
2.844065e+002, 1.905768e+002
2.848886e+002, 1.925669e+002
2.853707e+002, 1.946842e+002
2.858528e+002, 1.965783e+002
2.863349e+002, 1.981149e+002
2.868170e+002, 1.995400e+002
2.872992e+002, 2.013142e+002
2.877813e+002, 2.035350e+002
2.882634e+002, 2.057095e+002
2.887455e+002, 2.073798e+002
2.892276e+002, 2.091077e+002
2.897097e+002, 2.115966e+002
2.901919e+002, 2.150154e+002
2.906740e+002, 2.189895e+002
2.911561e+002, 2.232687e+002
2.916382e+002, 2.279189e+002
2.921203e+002, 2.321950e+002
2.926024e+002, 2.360402e+002
2.930846e+002, 2.394686e+002
2.935667e+002, 2.422284e+002
2.940488e+002, 2.443236e+002
2.945309e+002, 2.465842e+002
2.950130e+002, 2.498394e+002
2.954951e+002, 2.541349e+002
2.959773e+002, 2.583640e+002
2.964594e+002, 2.624967e+002
2.969415e+002, 2.665446e+002
2.974236e+002, 2.707033e+002
2.979057e+002, 2.749008e+002
2.983878e+002, 2.786082e+002
2.988700e+002, 2.814637e+002
2.993521e+002, 2.834206e+002
2.998342e+002, 2.848566e+002
3.003163e+002, 2.856361e+002
3.007984e+002, 2.860243e+002
3.012805e+002, 2.859899e+002
3.017627e+002, 2.856289e+002
3.022448e+002, 2.853678e+002
3.027269e+002, 2.854389e+002
3.032090e+002, 2.857621e+002
3.036911e+002, 2.860498e+002
3.041732e+002, 2.861451e+002
3.046554e+002, 2.864539e+002
3.051375e+002, 2.869894e+002
3.056196e+002, 2.878651e+002
3.061017e+002, 2.893410e+002
3.065838e+002, 2.914692e+002
3.070659e+002, 2.943406e+002
3.075481e+002, 2.982188e+002
3.080302e+002, 3.031311e+002
3.085123e+002, 3.085041e+002
3.089944e+002, 3.142571e+002
3.094765e+002, 3.203235e+002
3.099586e+002, 3.265927e+002
3.104408e+002, 3.330498e+002
3.109229e+002, 3.395453e+002
3.114050e+002, 3.458497e+002
3.118871e+002, 3.519985e+002
3.123692e+002, 3.579196e+002
3.128513e+002, 3.640232e+002
3.133335e+002, 3.696861e+002
3.138156e+002, 3.743815e+002
3.142977e+002, 3.780352e+002
3.147798e+002, 3.803600e+002
3.152619e+002, 3.811153e+002
3.157440e+002, 3.801933e+002
3.162262e+002, 3.775101e+002
3.167083e+002, 3.727920e+002
3.171904e+002, 3.664846e+002
3.176725e+002, 3.586334e+002
3.181546e+002, 3.493036e+002
3.186367e+002, 3.392843e+002
3.191188e+002, 3.287286e+002
3.196010e+002, 3.179616e+002
3.200831e+002, 3.081382e+002
3.205652e+002, 2.999019e+002
3.210473e+002, 2.918876e+002
3.215294e+002, 2.830987e+002
3.220115e+002, 2.738600e+002
3.224937e+002, 2.651540e+002
3.229758e+002, 2.574855e+002
3.234579e+002, 2.506675e+002
3.239400e+002, 2.444160e+002
3.244221e+002, 2.388363e+002
3.249042e+002, 2.334184e+002
3.253864e+002, 2.279164e+002
3.258685e+002, 2.224536e+002
3.263506e+002, 2.172661e+002
3.268327e+002, 2.124668e+002
3.273148e+002, 2.077935e+002
3.277969e+002, 2.026989e+002
3.282791e+002, 1.970132e+002
3.287612e+002, 1.919146e+002
3.292433e+002, 1.878844e+002
3.297254e+002, 1.844503e+002
3.302075e+002, 1.809945e+002
3.306896e+002, 1.774099e+002
3.311718e+002, 1.741756e+002
3.316539e+002, 1.718310e+002
3.321360e+002, 1.704699e+002
3.326181e+002, 1.691180e+002
3.331002e+002, 1.673003e+002
3.335823e+002, 1.658289e+002
3.340645e+002, 1.653593e+002
3.345466e+002, 1.658599e+002
3.350287e+002, 1.668524e+002
3.355108e+002, 1.680844e+002
3.359929e+002, 1.695357e+002
3.364750e+002, 1.709736e+002
3.369572e+002, 1.720814e+002
3.374393e+002, 1.735135e+002
3.379214e+002, 1.756861e+002
3.384035e+002, 1.784024e+002
3.388856e+002, 1.812187e+002
3.393677e+002, 1.839656e+002
3.398499e+002, 1.865995e+002
3.403320e+002, 1.889937e+002
3.408141e+002, 1.913708e+002
3.412962e+002, 1.931707e+002
3.417783e+002, 1.943603e+002
3.422604e+002, 1.948891e+002
3.427426e+002, 1.946082e+002
3.432247e+002, 1.934773e+002
3.437068e+002, 1.917342e+002
3.441889e+002, 1.896613e+002
3.446710e+002, 1.871225e+002
3.451531e+002, 1.846005e+002
3.456353e+002, 1.821555e+002
3.461174e+002, 1.797086e+002
3.465995e+002, 1.772560e+002
3.470816e+002, 1.747838e+002
3.475637e+002, 1.721295e+002
3.480458e+002, 1.691321e+002
3.485280e+002, 1.657533e+002
3.490101e+002, 1.626966e+002
3.494922e+002, 1.602245e+002
3.499743e+002, 1.577543e+002
3.504564e+002, 1.550226e+002
3.509385e+002, 1.521185e+002
3.514207e+002, 1.492055e+002
3.519028e+002, 1.463602e+002
3.523849e+002, 1.436600e+002
3.528670e+002, 1.414303e+002
3.533491e+002, 1.400766e+002
3.538312e+002, 1.386933e+002
3.543134e+002, 1.370613e+002
3.547955e+002, 1.353907e+002
3.552776e+002, 1.339706e+002
3.557597e+002, 1.328955e+002
3.562418e+002, 1.319477e+002
3.567239e+002, 1.307338e+002
3.572061e+002, 1.290067e+002
3.576882e+002, 1.275194e+002
3.581703e+002, 1.263912e+002
3.586524e+002, 1.253861e+002
3.591345e+002, 1.243708e+002
3.596166e+002, 1.233182e+002
3.600987e+002, 1.222597e+002
3.605808e+002, 1.212082e+002
3.610630e+002, 1.201506e+002
3.615451e+002, 1.192294e+002
3.620272e+002, 1.184986e+002
3.625093e+002, 1.178388e+002
3.629914e+002, 1.172789e+002
3.634735e+002, 1.167542e+002
3.639557e+002, 1.161365e+002
3.644378e+002, 1.153292e+002
3.649199e+002, 1.144228e+002
3.654020e+002, 1.138154e+002
3.658841e+002, 1.138067e+002
3.663662e+002, 1.136998e+002
3.668484e+002, 1.133468e+002
3.673305e+002, 1.128976e+002
3.678126e+002, 1.124894e+002
3.682947e+002, 1.121705e+002
3.687768e+002, 1.119116e+002
3.692589e+002, 1.116756e+002
3.697411e+002, 1.114823e+002
3.702232e+002, 1.112577e+002
3.707053e+002, 1.109202e+002
3.711874e+002, 1.106175e+002
3.716695e+002, 1.104891e+002
3.721516e+002, 1.104918e+002
3.726338e+002, 1.104201e+002
3.731159e+002, 1.100264e+002
3.735980e+002, 1.093291e+002
3.740801e+002, 1.089423e+002
3.745622e+002, 1.089453e+002
3.750443e+002, 1.092028e+002
3.755265e+002, 1.099411e+002
3.760086e+002, 1.108271e+002
3.764907e+002, 1.113187e+002
3.769728e+002, 1.110953e+002
3.774549e+002, 1.104755e+002
3.779370e+002, 1.101554e+002
3.784192e+002, 1.101950e+002
3.789013e+002, 1.103720e+002
3.793834e+002, 1.108730e+002
3.798655e+002, 1.113372e+002
3.803476e+002, 1.113922e+002
3.808297e+002, 1.109712e+002
3.813119e+002, 1.105162e+002
3.817940e+002, 1.104459e+002
3.822761e+002, 1.107559e+002
3.827582e+002, 1.112652e+002
3.832403e+002, 1.120578e+002
3.837224e+002, 1.129335e+002
3.842046e+002, 1.139000e+002
3.846867e+002, 1.148639e+002
3.851688e+002, 1.155215e+002
3.856509e+002, 1.155029e+002
3.861330e+002, 1.150933e+002
3.866151e+002, 1.149272e+002
3.870973e+002, 1.150304e+002
3.875794e+002, 1.152871e+002
3.880615e+002, 1.156959e+002
3.885436e+002, 1.162058e+002
3.890257e+002, 1.167537e+002
3.895078e+002, 1.173232e+002
3.899900e+002, 1.179359e+002
3.904721e+002, 1.186461e+002
3.909542e+002, 1.194385e+002
3.914363e+002, 1.201676e+002
3.919184e+002, 1.207648e+002
3.924005e+002, 1.213030e+002
3.928827e+002, 1.218726e+002
3.933648e+002, 1.224697e+002
3.938469e+002, 1.231161e+002
3.943290e+002, 1.236692e+002
3.948111e+002, 1.243248e+002
3.952932e+002, 1.254843e+002
3.957754e+002, 1.272546e+002
3.962575e+002, 1.291091e+002
3.967396e+002, 1.306226e+002
3.972217e+002, 1.318011e+002
3.977038e+002, 1.329139e+002
3.981859e+002, 1.338753e+002
3.986681e+002, 1.348718e+002
3.991501e+002, 1.359712e+002
3.996323e+002, 1.371992e+002
4.001144e+002, 1.386304e+002
4.005965e+002, 1.403001e+002
4.010786e+002, 1.421972e+002
4.015607e+002, 1.443040e+002
4.020428e+002, 1.467829e+002
4.025250e+002, 1.491545e+002
4.030071e+002, 1.512068e+002
4.034892e+002, 1.531696e+002
4.039713e+002, 1.552689e+002
4.044534e+002, 1.575546e+002
4.049355e+002, 1.600184e+002
4.054177e+002, 1.626801e+002
4.058998e+002, 1.655899e+002
4.063819e+002, 1.683593e+002
4.068640e+002, 1.707872e+002
4.073461e+002, 1.732721e+002
4.078282e+002, 1.761068e+002
4.083104e+002, 1.791752e+002
4.087925e+002, 1.821826e+002
4.092746e+002, 1.849818e+002
4.097567e+002, 1.875722e+002
4.102388e+002, 1.899962e+002
4.107209e+002, 1.920241e+002
4.112031e+002, 1.941743e+002
4.116852e+002, 1.966570e+002
4.121673e+002, 1.991881e+002
4.126494e+002, 2.016004e+002
4.131315e+002, 2.038105e+002
4.136136e+002, 2.056676e+002
4.140958e+002, 2.068799e+002
4.145779e+002, 2.072433e+002
4.150600e+002, 2.078028e+002
4.155421e+002, 2.088404e+002
