##NAMES=Amblygonite
##RRUFFID=R040006
##IDEAL CHEMISTRY=LiAlPO_4_F
##LOCALITY=Pala, San Diego County, California, USA
##OWNER=RRUFF
##SOURCE=University of Arizona Mineral Museum
##DESCRIPTION=Light gray coarsely crystalline massive
##STATUS=The identification of this mineral has been confirmed by X-ray diffraction and chemical analysis
##URL=rruff.info/R040006
##MEASURED CHEMISTRY=LiAl_1.00_(P_1.00_O_4_)(F_0.73_(OH)_0.27_)_Î£=1_; Li assumed by stoichiometry; OH estimated by charge balance
121.0403, 1368.112
121.5224, 1459.168
122.0045, 1570.789
122.4867, 1696.894
122.9688, 1825.000
123.4509, 1946.203
123.9330, 2067.091
124.4151, 2195.070
124.8972, 2331.409
125.3794, 2474.372
125.8615, 2632.055
126.3436, 2798.591
126.8257, 2952.128
127.3078, 3082.144
127.7899, 3187.989
128.2721, 3267.687
128.7542, 3319.064
129.2363, 3345.279
129.7184, 3352.908
130.2005, 3341.889
130.6826, 3310.849
131.1648, 3251.404
131.6469, 3166.604
132.1290, 3078.072
132.6111, 2993.816
133.0932, 2912.367
133.5753, 2826.266
134.0575, 2732.612
134.5396, 2641.313
135.0217, 2564.664
135.5038, 2502.259
135.9859, 2454.033
136.4680, 2423.293
136.9501, 2410.628
137.4323, 2402.203
137.9144, 2399.639
138.3965, 2399.385
138.8786, 2390.092
139.3607, 2367.804
139.8428, 2347.911
140.3250, 2341.121
140.8071, 2350.757
141.2892, 2362.223
141.7713, 2374.048
142.2534, 2386.375
142.7355, 2398.650
143.2177, 2407.585
143.6998, 2420.292
144.1819, 2444.157
144.6640, 2486.979
145.1461, 2527.298
145.6283, 2560.728
146.1104, 2585.762
146.5925, 2610.768
147.0746, 2634.425
147.5567, 2658.184
148.0388, 2683.256
148.5210, 2703.903
149.0031, 2731.901
149.4852, 2770.695
149.9673, 2824.988
150.4494, 2882.287
150.9315, 2944.521
151.4137, 3010.020
151.8958, 3072.604
152.3779, 3123.871
152.8600, 3178.860
153.3421, 3243.344
153.8242, 3326.473
154.3064, 3409.125
154.7885, 3485.599
155.2706, 3558.023
155.7527, 3643.936
156.2348, 3753.478
156.7169, 3873.698
157.1990, 3994.955
157.6812, 4116.672
158.1633, 4237.896
158.6454, 4358.608
159.1275, 4477.094
159.6096, 4595.591
160.0917, 4719.442
160.5739, 4840.519
161.0560, 4950.243
161.5381, 5050.010
162.0202, 5133.986
162.5023, 5200.109
162.9844, 5247.542
163.4666, 5275.987
163.9487, 5285.737
164.4308, 5276.289
164.9129, 5246.856
165.3950, 5189.024
165.8771, 5116.381
166.3593, 5037.993
166.8414, 4955.282
167.3235, 4867.197
167.8056, 4771.273
168.2877, 4668.821
168.7698, 4563.104
169.2520, 4455.376
169.7341, 4345.609
170.2162, 4232.767
170.6983, 4114.795
171.1804, 3998.047
171.6625, 3882.029
172.1447, 3768.476
172.6268, 3667.396
173.1089, 3592.551
173.5910, 3533.462
174.0731, 3473.086
174.5552, 3402.427
175.0374, 3329.717
175.5195, 3266.326
176.0016, 3211.458
176.4837, 3160.682
176.9658, 3110.905
177.4479, 3062.734
177.9300, 3018.064
178.4122, 2977.100
178.8943, 2940.261
179.3764, 2911.415
179.8585, 2892.124
180.3406, 2869.345
180.8227, 2821.322
181.3049, 2755.448
181.7870, 2698.510
182.2691, 2670.571
182.7512, 2661.536
183.2333, 2648.034
183.7154, 2628.007
184.1976, 2604.969
184.6797, 2583.506
185.1618, 2563.254
185.6439, 2542.924
186.1260, 2522.563
186.6081, 2501.557
187.0903, 2476.331
187.5724, 2444.282
188.0545, 2410.910
188.5366, 2385.074
189.0187, 2367.028
189.5008, 2352.203
189.9830, 2337.619
190.4651, 2323.555
190.9472, 2312.217
191.4293, 2306.152
191.9114, 2301.758
192.3935, 2286.905
192.8757, 2260.345
193.3578, 2233.675
193.8399, 2217.148
194.3220, 2210.502
194.8041, 2207.466
195.2862, 2209.108
195.7684, 2213.170
196.2505, 2206.390
196.7326, 2185.948
197.2147, 2165.409
197.6968, 2163.501
198.1789, 2182.019
198.6610, 2192.421
199.1432, 2180.280
199.6253, 2148.092
200.1074, 2136.541
200.5895, 2150.031
201.0716, 2173.810
201.5537, 2188.864
202.0359, 2194.194
202.5180, 2196.251
203.0001, 2194.963
203.4822, 2189.589
203.9643, 2193.616
204.4464, 2210.474
204.9286, 2231.875
205.4107, 2243.131
205.8928, 2242.150
206.3749, 2238.304
206.8570, 2235.959
207.3391, 2235.991
207.8213, 2231.738
208.3034, 2221.009
208.7855, 2207.875
209.2676, 2202.984
209.7497, 2210.002
210.2318, 2215.813
210.7140, 2212.017
211.1961, 2194.852
211.6782, 2184.367
212.1603, 2182.983
212.6424, 2188.572
213.1245, 2195.901
213.6067, 2207.641
214.0888, 2215.440
214.5709, 2211.690
215.0530, 2189.622
215.5351, 2177.464
216.0172, 2181.374
216.4994, 2197.173
216.9815, 2204.870
217.4636, 2203.350
217.9457, 2195.232
218.4278, 2180.368
218.9099, 2153.896
219.3920, 2133.988
219.8742, 2124.714
220.3563, 2125.055
220.8384, 2123.396
221.3205, 2118.694
221.8026, 2113.547
222.2847, 2110.446
222.7669, 2110.818
223.2490, 2110.030
223.7311, 2106.597
224.2132, 2100.554
224.6953, 2097.999
225.1774, 2101.878
225.6596, 2105.927
226.1417, 2103.346
226.6238, 2089.629
227.1059, 2078.178
227.5880, 2071.409
228.0701, 2069.463
228.5523, 2070.894
229.0344, 2078.711
229.5165, 2087.023
229.9986, 2088.823
230.4807, 2080.709
230.9628, 2072.125
231.4450, 2064.560
231.9271, 2057.536
232.4092, 2055.393
232.8913, 2060.725
233.3734, 2068.912
233.8555, 2074.004
234.3377, 2075.533
234.8198, 2074.832
235.3019, 2071.493
235.7840, 2064.410
236.2661, 2060.524
236.7482, 2062.335
237.2304, 2065.878
237.7125, 2064.448
238.1946, 2053.477
238.6767, 2045.087
239.1588, 2043.733
239.6409, 2052.061
240.1230, 2058.402
240.6052, 2062.295
241.0873, 2064.406
241.5694, 2065.770
242.0515, 2066.054
242.5336, 2066.048
243.0157, 2065.810
243.4979, 2064.815
243.9800, 2064.811
244.4621, 2064.976
244.9442, 2066.358
245.4263, 2071.323
245.9084, 2081.004
246.3906, 2092.344
246.8727, 2104.696
247.3548, 2119.675
247.8369, 2130.968
248.3190, 2136.340
248.8011, 2138.815
249.2833, 2145.815
249.7654, 2160.090
250.2475, 2174.511
250.7296, 2185.571
251.2117, 2189.912
251.6938, 2199.394
252.1760, 2215.706
252.6581, 2236.709
253.1402, 2257.480
253.6223, 2276.338
254.1044, 2298.002
254.5865, 2325.822
255.0687, 2365.526
255.5508, 2396.275
256.0329, 2412.289
256.5150, 2420.634
256.9971, 2442.101
257.4792, 2483.091
257.9614, 2526.295
258.4435, 2561.928
258.9256, 2582.892
259.4077, 2616.136
259.8898, 2665.444
260.3719, 2726.966
260.8541, 2790.754
261.3362, 2860.299
261.8183, 2926.371
262.3004, 2983.006
262.7825, 3024.280
263.2646, 3074.185
263.7468, 3137.568
264.2289, 3208.946
264.7110, 3268.379
265.1931, 3311.523
265.6752, 3351.851
266.1573, 3395.423
266.6395, 3439.870
267.1216, 3497.366
267.6037, 3575.936
268.0858, 3664.482
268.5679, 3728.605
269.0500, 3760.140
269.5321, 3785.386
270.0143, 3822.104
270.4964, 3875.469
270.9785, 3913.609
271.4606, 3932.019
271.9427, 3935.405
272.4248, 3937.362
272.9070, 3938.252
273.3891, 3936.679
273.8712, 3930.980
274.3533, 3920.480
274.8354, 3910.597
275.3175, 3901.052
275.7997, 3892.887
276.2818, 3888.980
276.7639, 3889.462
277.2460, 3893.424
277.7281, 3900.828
278.2102, 3911.793
278.6924, 3923.223
279.1745, 3933.496
279.6566, 3945.295
280.1387, 3966.452
280.6208, 3998.106
281.1029, 4031.960
281.5851, 4057.957
282.0672, 4076.073
282.5493, 4113.973
283.0314, 4176.618
283.5135, 4257.381
283.9956, 4341.922
284.4778, 4429.889
284.9599, 4526.303
285.4420, 4632.747
285.9241, 4749.610
286.4062, 4875.480
286.8883, 5006.258
287.3705, 5150.325
287.8526, 5322.422
288.3347, 5522.576
288.8168, 5745.394
289.2989, 5982.420
289.7810, 6236.610
290.2632, 6522.034
290.7453, 6839.415
291.2274, 7182.510
291.7095, 7541.692
292.1916, 7916.727
292.6737, 8306.971
293.1559, 8699.703
293.6380, 9101.982
294.1201, 9545.042
294.6022, 10035.51
295.0843, 10560.83
295.5664, 11111.41
296.0486, 11691.01
296.5307, 12300.84
297.0128, 12962.77
297.4949, 13659.84
297.9770, 14360.45
298.4591, 15068.63
298.9413, 15774.70
299.4234, 16480.83
299.9055, 17179.33
300.3876, 17815.36
300.8697, 18395.84
301.3518, 18883.35
301.8340, 19232.11
302.3161, 19440.77
302.7982, 19491.42
303.2803, 19348.37
303.7624, 19031.88
304.2445, 18591.79
304.7267, 17988.86
305.2088, 17311.28
305.6909, 16633.80
306.1730, 15966.29
306.6551, 15316.12
307.1372, 14690.97
307.6194, 14092.08
308.1015, 13534.38
308.5836, 13030.02
309.0657, 12566.12
309.5478, 12136.45
310.0299, 11743.48
310.5120, 11368.40
310.9941, 11006.25
311.4763, 10658.07
311.9584, 10320.23
312.4405, 10012.28
312.9226, 9701.170
313.4047, 9367.050
313.8868, 9004.256
314.3690, 8640.375
314.8511, 8287.832
315.3332, 7941.831
315.8153, 7598.338
316.2974, 7227.301
316.7795, 6877.444
317.2617, 6578.043
317.7438, 6327.482
318.2259, 6095.848
318.7080, 5871.525
319.1901, 5661.535
319.6722, 5472.101
320.1544, 5299.830
320.6365, 5152.337
321.1186, 5043.545
321.6007, 4970.225
322.0828, 4897.430
322.5649, 4804.824
323.0471, 4716.713
323.5292, 4650.037
324.0113, 4633.578
324.4934, 4610.150
324.9755, 4566.618
325.4576, 4506.072
325.9398, 4449.396
326.4219, 4399.133
326.9040, 4352.640
327.3861, 4308.503
327.8682, 4273.941
328.3503, 4232.969
328.8325, 4177.514
329.3146, 4114.129
329.7967, 4065.103
330.2788, 4043.020
330.7609, 4023.166
331.2430, 3994.454
331.7252, 3953.314
332.2073, 3909.817
332.6894, 3860.260
333.1715, 3808.729
333.6536, 3768.532
334.1357, 3746.442
334.6179, 3724.019
335.1000, 3693.058
335.5821, 3650.893
336.0642, 3608.751
336.5463, 3562.473
337.0284, 3519.221
337.5106, 3495.240
337.9927, 3498.449
338.4748, 3497.079
338.9569, 3475.656
339.4390, 3431.901
339.9211, 3400.748
340.4033, 3385.280
340.8854, 3377.344
341.3675, 3367.148
341.8496, 3354.611
342.3317, 3339.759
342.8138, 3321.125
343.2960, 3299.792
343.7781, 3281.331
344.2602, 3265.485
344.7423, 3254.777
345.2244, 3253.942
345.7065, 3262.371
346.1887, 3272.373
346.6708, 3283.457
347.1529, 3293.798
347.6350, 3296.105
348.1171, 3290.050
348.5992, 3284.569
349.0814, 3290.822
349.5635, 3304.438
350.0456, 3311.444
350.5277, 3303.993
351.0098, 3293.010
351.4919, 3294.993
351.9740, 3308.868
352.4561, 3326.157
352.9383, 3343.403
353.4204, 3359.599
353.9025, 3373.223
354.3846, 3384.113
354.8667, 3392.344
355.3488, 3397.719
355.8310, 3400.548
356.3131, 3401.630
356.7952, 3399.395
357.2773, 3396.766
357.7594, 3395.487
358.2415, 3394.673
358.7237, 3399.281
359.2058, 3416.895
359.6879, 3441.594
360.1700, 3462.749
360.6521, 3473.308
361.1342, 3481.033
361.6164, 3491.427
362.0985, 3506.079
362.5806, 3515.755
363.0627, 3511.714
363.5448, 3502.691
364.0269, 3498.889
364.5091, 3506.816
364.9912, 3516.547
365.4733, 3525.405
365.9554, 3533.323
366.4375, 3541.040
366.9196, 3548.290
367.4018, 3555.687
367.8839, 3563.781
368.3660, 3585.068
368.8481, 3592.758
369.3302, 3576.180
369.8123, 3539.150
370.2945, 3516.392
370.7766, 3521.906
371.2587, 3527.838
371.7408, 3517.338
372.2229, 3476.559
372.7050, 3446.561
373.1872, 3431.480
373.6693, 3427.729
374.1514, 3426.988
374.6335, 3435.817
375.1156, 3433.957
375.5977, 3406.724
376.0799, 3344.914
376.5620, 3304.004
377.0441, 3290.194
377.5262, 3288.691
378.0083, 3275.310
378.4904, 3248.835
378.9726, 3219.271
379.4547, 3189.844
379.9368, 3160.693
380.4189, 3127.939
380.9010, 3090.253
381.3831, 3056.525
381.8653, 3042.485
382.3474, 3044.848
382.8295, 3041.466
383.3116, 3021.454
383.7937, 2993.646
384.2758, 2978.350
384.7580, 2975.239
385.2401, 2971.230
385.7222, 2955.057
386.2043, 2930.254
386.6864, 2902.424
387.1685, 2867.032
387.6507, 2837.986
388.1328, 2837.744
388.6149, 2859.094
389.0970, 2874.779
389.5791, 2862.629
390.0612, 2840.413
390.5434, 2826.325
391.0255, 2825.514
391.5076, 2825.472
391.9897, 2818.164
392.4718, 2806.681
392.9539, 2796.417
393.4360, 2790.714
393.9182, 2786.073
394.4003, 2781.906
394.8824, 2778.685
395.3645, 2771.510
395.8466, 2754.005
396.3287, 2733.901
396.8109, 2718.809
397.2930, 2712.461
397.7751, 2708.871
398.2572, 2708.338
398.7393, 2710.614
399.2214, 2710.458
399.7036, 2708.526
400.1857, 2703.468
400.6678, 2694.113
401.1499, 2674.942
401.6320, 2660.532
402.1141, 2652.784
402.5963, 2650.001
403.0784, 2646.997
403.5605, 2643.416
404.0426, 2640.328
404.5247, 2637.076
405.0068, 2632.090
405.4890, 2636.343
405.9711, 2653.856
406.4532, 2674.686
406.9353, 2682.543
407.4174, 2675.822
407.8995, 2669.933
408.3817, 2670.635
408.8638, 2676.777
409.3459, 2680.822
409.8280, 2682.082
410.3101, 2686.649
410.7922, 2701.567
411.2744, 2725.312
411.7565, 2750.815
412.2386, 2775.423
412.7207, 2802.043
413.2028, 2833.824
413.6849, 2871.376
414.1671, 2916.737
414.6492, 2975.843
415.1313, 3042.289
415.6134, 3106.905
416.0955, 3166.228
416.5776, 3230.336
417.0598, 3309.462
417.5419, 3398.982
418.0240, 3491.089
418.5061, 3573.871
418.9882, 3663.424
419.4703, 3768.132
419.9525, 3889.750
420.4346, 4023.519
420.9167, 4174.427
421.3988, 4334.144
421.8809, 4498.663
422.3630, 4659.838
422.8452, 4831.629
423.3273, 5033.394
423.8094, 5257.687
424.2915, 5442.164
424.7736, 5600.738
425.2557, 5700.950
425.7379, 5727.534
426.2200, 5678.740
426.7021, 5556.545
427.1842, 5329.298
427.6663, 5037.893
428.1484, 4768.813
428.6306, 4521.339
429.1127, 4290.775
429.5948, 4071.275
430.0769, 3862.632
430.5590, 3680.138
431.0411, 3525.566
431.5233, 3396.216
432.0054, 3291.871
432.4875, 3212.979
432.9696, 3148.737
433.4517, 3101.044
433.9338, 3063.541
434.4159, 3015.419
434.8980, 2956.676
435.3802, 2903.254
435.8623, 2870.241
436.3444, 2851.745
436.8265, 2832.650
437.3086, 2810.014
437.7907, 2787.681
438.2729, 2770.489
438.7550, 2757.119
439.2371, 2743.972
439.7192, 2728.022
440.2013, 2712.118
440.6834, 2698.122
441.1656, 2686.178
441.6477, 2677.723
442.1298, 2675.314
442.6119, 2676.152
443.0940, 2677.230
443.5761, 2680.270
444.0583, 2680.774
444.5404, 2674.582
445.0225, 2663.458
445.5046, 2656.880
445.9867, 2662.699
446.4688, 2669.066
446.9510, 2669.287
447.4331, 2653.386
447.9152, 2648.482
448.3973, 2659.630
448.8794, 2679.903
449.3615, 2699.429
449.8437, 2721.806
450.3258, 2736.831
450.8079, 2739.652
451.2900, 2730.005
451.7721, 2722.576
452.2542, 2716.255
452.7364, 2714.609
453.2185, 2723.144
453.7006, 2742.391
454.1827, 2759.484
454.6648, 2771.676
455.1469, 2780.789
455.6291, 2788.929
456.1112, 2796.329
456.5933, 2807.614
457.0754, 2827.644
457.5575, 2853.412
458.0396, 2877.709
458.5218, 2900.364
459.0039, 2920.855
459.4860, 2935.231
459.9681, 2947.420
460.4502, 2964.881
460.9323, 2996.183
461.4145, 3029.654
461.8966, 3054.355
462.3787, 3071.737
462.8608, 3094.539
463.3429, 3133.722
463.8250, 3178.213
464.3072, 3218.984
464.7893, 3248.233
465.2714, 3284.182
465.7535, 3336.979
466.2356, 3399.100
466.7177, 3454.412
467.1999, 3490.478
467.6820, 3529.630
468.1641, 3577.358
468.6462, 3633.848
469.1283, 3698.436
469.6104, 3776.711
470.0926, 3857.214
470.5747, 3929.059
471.0568, 3986.131
471.5389, 4052.773
472.0210, 4135.244
472.5031, 4228.341
472.9853, 4310.132
473.4674, 4378.063
473.9495, 4456.821
474.4316, 4571.776
474.9137, 4714.242
475.3958, 4829.266
475.8779, 4913.256
476.3600, 4983.823
476.8422, 5059.066
477.3243, 5137.679
477.8064, 5214.932
478.2885, 5289.303
478.7706, 5360.557
479.2527, 5430.653
479.7349, 5498.372
480.2170, 5556.458
480.6991, 5599.991
481.1812, 5631.318
481.6633, 5650.773
482.1454, 5654.670
482.6276, 5655.509
483.1097, 5661.810
483.5918, 5667.232
484.0739, 5661.794
484.5560, 5644.423
485.0381, 5614.206
485.5203, 5566.314
486.0024, 5498.859
486.4845, 5438.185
486.9666, 5385.815
487.4487, 5339.249
487.9308, 5298.384
488.4130, 5271.171
488.8951, 5229.406
489.3772, 5165.046
489.8593, 5089.536
490.3414, 5030.818
490.8235, 4991.230
491.3057, 4954.324
491.7878, 4914.870
492.2699, 4872.540
492.7520, 4827.729
493.2341, 4780.716
493.7162, 4729.810
494.1984, 4668.007
494.6805, 4600.453
495.1626, 4546.414
495.6447, 4515.833
496.1268, 4490.554
496.6089, 4450.329
497.0911, 4397.696
497.5732, 4339.345
498.0553, 4271.719
498.5374, 4205.207
499.0195, 4151.909
499.5016, 4115.237
499.9838, 4072.497
500.4659, 4006.507
500.9480, 3934.389
501.4301, 3872.057
501.9122, 3837.475
502.3943, 3797.172
502.8765, 3739.718
503.3586, 3670.293
503.8407, 3612.688
504.3228, 3574.423
504.8049, 3538.452
505.2870, 3496.612
505.7692, 3445.758
506.2513, 3407.186
506.7334, 3388.809
507.2155, 3370.730
507.6976, 3323.845
508.1797, 3245.421
508.6619, 3176.115
509.1440, 3126.947
509.6261, 3091.858
510.1082, 3055.201
510.5903, 3017.445
511.0724, 2986.106
511.5546, 2975.131
512.0367, 2971.746
512.5188, 2949.844
513.0009, 2904.732
513.4830, 2857.547
513.9651, 2825.173
514.4473, 2802.235
514.9294, 2780.714
515.4115, 2757.865
515.8936, 2735.408
516.3757, 2714.434
516.8578, 2694.630
517.3400, 2673.713
517.8221, 2645.280
518.3042, 2620.175
518.7863, 2604.320
519.2684, 2602.658
519.7505, 2599.735
520.2327, 2598.509
520.7148, 2594.026
521.1969, 2579.302
521.6790, 2548.608
522.1611, 2521.519
522.6432, 2500.768
523.1254, 2486.495
523.6075, 2481.525
524.0896, 2487.256
524.5717, 2493.290
525.0538, 2494.068
525.5359, 2489.829
526.0181, 2480.487
526.5002, 2465.096
526.9823, 2449.712
527.4644, 2441.778
527.9465, 2438.845
528.4286, 2435.010
528.9108, 2427.769
529.3929, 2419.296
529.8750, 2412.640
530.3571, 2406.734
530.8392, 2397.765
531.3214, 2376.106
531.8035, 2356.601
532.2856, 2349.984
532.7677, 2361.700
533.2498, 2369.399
533.7319, 2368.432
534.2141, 2361.500
534.6962, 2350.889
535.1783, 2327.834
535.6604, 2314.705
536.1425, 2317.108
536.6246, 2330.792
537.1067, 2340.487
537.5888, 2345.573
538.0709, 2348.179
538.5530, 2349.693
539.0352, 2350.042
539.5173, 2344.895
539.9994, 2333.117
540.4815, 2321.344
540.9636, 2317.981
541.4457, 2320.814
541.9279, 2321.259
542.4100, 2314.781
542.8921, 2309.086
543.3742, 2316.014
543.8563, 2331.866
544.3384, 2345.751
544.8206, 2351.447
545.3027, 2353.553
545.7848, 2354.557
546.2669, 2354.607
546.7490, 2355.014
547.2311, 2354.606
547.7133, 2355.746
548.1954, 2360.245
548.6775, 2375.401
549.1596, 2384.790
549.6417, 2383.617
550.1238, 2377.543
550.6060, 2379.581
551.0881, 2396.699
551.5702, 2406.556
552.0523, 2399.645
552.5344, 2377.999
553.0165, 2364.120
553.4987, 2358.643
553.9808, 2357.514
554.4629, 2356.767
554.9450, 2357.339
555.4271, 2365.945
555.9092, 2385.912
556.3914, 2404.698
556.8735, 2405.007
557.3556, 2392.784
557.8377, 2381.167
558.3198, 2372.737
558.8019, 2369.438
559.2841, 2377.908
559.7662, 2395.112
560.2483, 2404.207
560.7304, 2387.836
561.2125, 2369.516
561.6946, 2363.142
562.1768, 2375.252
562.6589, 2386.187
563.1410, 2393.928
563.6231, 2400.266
564.1052, 2407.667
564.5873, 2418.944
565.0695, 2424.124
565.5516, 2419.307
566.0337, 2408.502
566.5158, 2403.131
566.9979, 2402.801
567.4800, 2410.955
567.9622, 2437.457
568.4443, 2474.892
568.9264, 2490.796
569.4085, 2484.261
569.8906, 2473.839
570.3727, 2473.520
570.8549, 2480.868
571.3370, 2493.040
571.8191, 2512.420
572.3012, 2529.737
572.7833, 2537.049
573.2654, 2538.155
573.7476, 2539.874
574.2297, 2542.221
574.7118, 2547.801
575.1939, 2557.298
575.6760, 2570.892
576.1581, 2588.869
576.6403, 2617.637
577.1224, 2644.167
577.6045, 2659.812
578.0866, 2657.640
578.5687, 2670.177
579.0508, 2702.425
579.5330, 2740.135
580.0151, 2762.992
580.4972, 2771.205
580.9793, 2784.259
581.4614, 2807.744
581.9435, 2838.218
582.4257, 2867.608
582.9078, 2897.105
583.3899, 2932.089
583.8720, 2976.559
584.3541, 3027.248
584.8362, 3082.863
585.3184, 3143.125
585.8005, 3203.723
586.2826, 3260.258
586.7647, 3317.318
587.2468, 3379.054
587.7289, 3442.997
588.2111, 3516.389
588.6932, 3603.177
589.1753, 3699.058
589.6574, 3797.072
590.1395, 3892.964
590.6216, 4000.041
591.1038, 4123.442
591.5859, 4261.199
592.0680, 4400.979
592.5501, 4541.583
593.0322, 4692.094
593.5143, 4857.219
593.9965, 5036.970
594.4786, 5230.853
594.9607, 5437.575
595.4428, 5661.987
595.9249, 5907.452
596.4070, 6175.832
596.8892, 6471.449
597.3713, 6805.188
597.8534, 7153.468
598.3355, 7492.824
598.8176, 7837.602
599.2997, 8216.899
599.7819, 8671.358
600.2640, 9124.717
600.7461, 9577.260
601.2282, 10030.71
601.7103, 10377.31
602.1924, 10622.72
602.6746, 10753.31
603.1567, 10755.55
603.6388, 10623.69
604.1209, 10393.28
604.6030, 10058.62
605.0851, 9638.604
605.5673, 9129.477
606.0494, 8541.542
606.5315, 7981.681
607.0136, 7461.896
607.4957, 6989.929
607.9778, 6569.683
608.4600, 6201.136
608.9421, 5870.735
609.4242, 5577.033
609.9063, 5319.537
610.3884, 5103.767
610.8705, 4927.408
611.3527, 4771.575
611.8348, 4631.199
612.3169, 4507.849
612.7990, 4404.238
613.2811, 4329.321
613.7632, 4248.988
614.2454, 4154.219
614.7275, 4064.378
615.2096, 4008.919
615.6917, 3992.743
616.1738, 3977.738
616.6559, 3954.697
617.1381, 3930.724
617.6202, 3922.245
618.1023, 3927.974
618.5844, 3936.709
619.0665, 3938.263
619.5486, 3941.615
620.0307, 3961.871
620.5128, 3997.926
620.9949, 4032.467
621.4771, 4029.905
621.9592, 4037.655
622.4413, 4098.260
622.9234, 4244.898
623.4055, 4374.170
623.8876, 4465.637
624.3698, 4530.708
624.8519, 4578.445
625.3340, 4588.225
625.8161, 4622.736
626.2982, 4693.067
626.7803, 4790.174
627.2625, 4891.780
627.7446, 4997.433
628.2267, 5113.274
628.7088, 5244.275
629.1909, 5387.242
629.6730, 5531.061
630.1552, 5676.555
630.6373, 5826.947
631.1194, 6001.390
631.6015, 6171.643
632.0836, 6301.375
632.5657, 6380.226
633.0479, 6453.512
633.5300, 6530.969
634.0121, 6618.238
634.4942, 6719.460
634.9763, 6849.569
635.4584, 6975.458
635.9406, 7078.486
636.4227, 7181.804
636.9048, 7333.813
637.3869, 7538.404
637.8690, 7775.673
638.3511, 8039.769
638.8333, 8330.021
639.3154, 8638.333
639.7975, 8962.274
640.2796, 9320.072
640.7617, 9711.948
641.2438, 10144.44
641.7260, 10641.71
642.2081, 11201.64
642.6902, 11794.95
643.1723, 12460.50
643.6544, 13117.26
644.1365, 13706.88
644.6187, 14254.59
645.1008, 14650.38
645.5829, 14882.61
646.0650, 14937.68
646.5471, 14808.33
647.0292, 14472.27
647.5114, 13978.41
647.9935, 13304.98
648.4756, 12484.72
648.9577, 11638.21
649.4398, 10747.70
649.9219, 9899.761
650.4041, 9131.926
650.8862, 8433.947
651.3683, 7803.640
651.8504, 7242.314
652.3325, 6726.622
652.8146, 6246.756
653.2968, 5815.157
653.7789, 5445.874
654.2610, 5148.357
654.7431, 4887.625
655.2252, 4664.554
655.7073, 4463.468
656.1895, 4271.644
656.6716, 4075.748
657.1537, 3909.458
657.6358, 3781.845
658.1179, 3679.073
658.6000, 3578.839
659.0822, 3479.865
659.5643, 3390.469
660.0464, 3316.725
660.5285, 3250.959
661.0106, 3169.850
661.4927, 3075.710
661.9749, 2989.954
662.4570, 2927.495
662.9391, 2879.018
663.4212, 2839.012
663.9033, 2806.390
664.3854, 2767.973
664.8676, 2702.611
665.3497, 2638.826
665.8318, 2598.121
666.3139, 2593.163
666.7960, 2585.707
667.2781, 2572.680
667.7603, 2556.378
668.2424, 2538.948
668.7245, 2519.995
669.2066, 2500.445
669.6887, 2480.172
670.1708, 2459.458
670.6530, 2435.170
671.1351, 2408.777
671.6172, 2392.987
672.0993, 2402.546
672.5814, 2415.532
673.0635, 2400.518
673.5457, 2364.050
674.0278, 2329.109
674.5099, 2307.057
674.9920, 2290.883
675.4741, 2277.468
675.9562, 2266.913
676.4384, 2257.830
676.9205, 2250.663
677.4026, 2244.422
677.8847, 2239.182
678.3668, 2236.036
678.8489, 2227.546
679.3311, 2211.053
679.8132, 2195.005
680.2953, 2190.443
680.7774, 2195.276
681.2595, 2195.773
681.7416, 2188.496
682.2238, 2179.590
682.7059, 2176.597
683.1880, 2177.016
683.6701, 2175.948
684.1522, 2173.836
684.6343, 2167.476
685.1165, 2152.478
685.5986, 2131.984
686.0807, 2114.440
686.5628, 2101.161
687.0449, 2091.579
687.5270, 2085.696
688.0092, 2083.523
688.4913, 2085.789
688.9734, 2093.837
689.4555, 2101.498
689.9376, 2106.734
690.4197, 2108.877
690.9019, 2100.921
691.3840, 2082.468
691.8661, 2067.864
692.3482, 2071.114
692.8303, 2084.244
693.3124, 2099.413
693.7946, 2118.250
694.2767, 2127.075
694.7588, 2108.941
695.2409, 2082.731
695.7230, 2068.628
696.2051, 2084.274
696.6873, 2090.279
697.1694, 2080.967
697.6515, 2064.142
698.1336, 2053.691
698.6157, 2050.591
699.0978, 2047.527
699.5800, 2042.985
700.0621, 2036.910
700.5442, 2025.478
701.0262, 2010.913
701.5084, 2004.387
701.9905, 2021.138
702.4726, 2041.980
702.9547, 2047.602
703.4368, 2039.926
703.9189, 2035.089
704.4011, 2044.455
704.8832, 2053.517
705.3653, 2053.005
705.8474, 2040.464
706.3295, 2035.669
706.8116, 2042.758
707.2938, 2050.795
707.7759, 2051.393
708.2580, 2044.482
708.7401, 2038.887
709.2222, 2035.357
709.7043, 2032.006
710.1865, 2025.679
710.6686, 2018.182
711.1507, 2012.927
711.6328, 2010.061
712.1149, 2011.131
712.5970, 2020.802
713.0792, 2033.958
713.5613, 2043.359
714.0434, 2045.735
714.5255, 2045.674
715.0076, 2043.164
715.4897, 2038.966
715.9719, 2033.870
716.4540, 2026.268
716.9361, 2024.166
717.4182, 2033.403
717.9003, 2047.920
718.3824, 2046.800
718.8646, 2031.710
719.3467, 2018.344
719.8288, 2016.207
720.3109, 2020.652
720.7930, 2028.538
721.2751, 2039.177
721.7573, 2048.048
722.2394, 2054.287
722.7215, 2056.989
723.2036, 2053.583
723.6857, 2041.084
724.1678, 2037.056
724.6500, 2045.252
725.1321, 2056.667
725.6142, 2066.399
726.0963, 2074.512
726.5784, 2074.229
727.0605, 2063.390
727.5427, 2053.117
728.0248, 2058.595
728.5069, 2073.468
728.9890, 2084.716
729.4711, 2089.423
729.9532, 2089.569
730.4354, 2082.281
730.9175, 2072.784
731.3996, 2067.829
731.8817, 2072.787
732.3638, 2077.997
732.8459, 2084.890
733.3281, 2090.239
733.8102, 2086.284
734.2923, 2070.461
734.7744, 2056.162
735.2565, 2046.303
735.7386, 2040.796
736.2208, 2042.261
736.7029, 2049.312
737.1850, 2053.728
737.6671, 2046.554
738.1492, 2038.151
738.6313, 2039.204
739.1135, 2048.245
739.5956, 2057.209
740.0777, 2065.773
740.5598, 2071.284
741.0419, 2071.065
741.5240, 2065.130
742.0062, 2062.023
742.4883, 2062.698
742.9704, 2064.055
743.4525, 2063.511
743.9346, 2061.369
744.4167, 2062.485
744.8989, 2066.952
745.3810, 2073.084
745.8631, 2081.391
746.3452, 2089.558
746.8273, 2093.772
747.3094, 2092.842
747.7916, 2091.966
748.2737, 2095.324
748.7558, 2099.009
749.2379, 2099.727
749.7200, 2101.747
750.2021, 2092.260
750.6843, 2066.383
751.1664, 2035.132
751.6485, 2006.708
752.1306, 1980.810
752.6127, 1981.651
753.0948, 2019.357
753.5770, 2067.614
754.0591, 2091.547
754.5412, 2098.322
755.0233, 2103.264
755.5054, 2112.695
755.9875, 2120.401
756.4697, 2122.056
756.9518, 2119.698
757.4339, 2117.699
757.9160, 2117.224
758.3981, 2116.366
758.8802, 2113.755
759.3624, 2111.031
759.8445, 2114.970
760.3266, 2126.898
760.8087, 2133.575
761.2908, 2126.574
761.7729, 2113.806
762.2551, 2112.756
762.7372, 2120.864
763.2193, 2126.263
763.7014, 2113.416
764.1835, 2103.132
764.6656, 2114.135
765.1478, 2144.326
765.6299, 2166.221
766.1120, 2170.343
766.5941, 2170.316
767.0762, 2169.763
767.5583, 2168.650
768.0405, 2169.626
768.5226, 2173.042
769.0047, 2175.998
769.4868, 2174.899
769.9689, 2171.963
770.4510, 2173.115
770.9332, 2178.553
771.4153, 2186.001
771.8974, 2192.810
772.3795, 2201.610
772.8616, 2217.656
773.3438, 2246.079
773.8259, 2260.028
774.3080, 2240.830
774.7901, 2220.066
775.2722, 2219.382
775.7543, 2244.164
776.2365, 2262.708
776.7186, 2274.506
777.2007, 2281.084
777.6828, 2281.052
778.1649, 2277.175
778.6470, 2276.690
779.1292, 2280.822
779.6113, 2288.225
780.0934, 2300.078
780.5755, 2313.675
781.0576, 2325.762
781.5397, 2333.261
782.0219, 2343.349
782.5040, 2358.429
782.9860, 2374.795
783.4681, 2388.037
783.9503, 2397.309
784.4324, 2409.111
784.9145, 2425.690
785.3966, 2441.352
785.8787, 2441.351
786.3608, 2433.511
786.8430, 2440.456
787.3251, 2476.637
787.8072, 2516.007
788.2893, 2542.159
788.7714, 2560.177
789.2535, 2578.911
789.7357, 2598.962
790.2178, 2620.934
790.6999, 2643.594
791.1820, 2668.708
791.6641, 2702.549
792.1462, 2745.922
792.6284, 2787.720
793.1105, 2825.748
793.5926, 2859.687
794.0747, 2887.497
794.5568, 2911.113
795.0389, 2936.624
795.5211, 2968.273
796.0032, 3001.051
796.4853, 3032.221
796.9674, 3062.549
797.4495, 3095.524
797.9316, 3134.573
798.4138, 3171.331
798.8959, 3201.442
799.3780, 3228.730
799.8601, 3265.803
800.3422, 3312.598
800.8243, 3361.677
801.3065, 3410.318
801.7886, 3458.237
802.2707, 3505.262
802.7528, 3550.800
803.2349, 3595.358
803.7170, 3637.363
804.1992, 3679.477
804.6813, 3723.940
805.1634, 3770.160
805.6455, 3812.275
806.1276, 3844.740
806.6097, 3884.411
807.0919, 3941.807
807.5740, 4011.331
808.0561, 4065.302
808.5382, 4104.494
809.0203, 4143.994
809.5024, 4200.250
809.9846, 4256.767
810.4667, 4297.192
810.9488, 4321.705
811.4309, 4334.282
811.9130, 4335.439
812.3951, 4325.713
812.8773, 4309.357
813.3594, 4285.633
813.8415, 4229.404
814.3236, 4132.528
814.8057, 4031.025
815.2878, 3941.998
815.7700, 3863.059
816.2521, 3785.049
816.7342, 3708.583
817.2163, 3642.702
817.6984, 3600.783
818.1805, 3567.176
818.6627, 3530.028
819.1448, 3488.688
819.6269, 3450.090
820.1090, 3417.512
820.5911, 3386.698
821.0732, 3356.036
821.5554, 3325.681
822.0375, 3296.064
822.5196, 3266.284
823.0017, 3242.344
823.4838, 3234.750
823.9659, 3233.206
824.4481, 3215.042
824.9302, 3180.761
825.4123, 3147.302
825.8944, 3125.611
826.3765, 3105.795
826.8586, 3078.921
827.3408, 3043.313
827.8229, 3021.301
828.3050, 3021.937
828.7871, 3020.648
829.2692, 3004.170
829.7513, 2974.051
830.2335, 2941.446
830.7156, 2906.234
831.1977, 2876.419
831.6798, 2861.396
832.1619, 2852.491
832.6440, 2841.281
833.1262, 2827.225
833.6083, 2811.193
834.0904, 2789.732
834.5725, 2769.979
835.0546, 2755.351
835.5367, 2745.912
836.0189, 2738.842
836.5010, 2734.767
836.9831, 2730.153
837.4652, 2721.391
837.9473, 2710.568
838.4294, 2703.931
838.9116, 2701.223
839.3937, 2698.223
839.8758, 2692.066
840.3579, 2684.786
840.8400, 2671.780
841.3221, 2686.558
841.8043, 2693.199
842.2864, 2692.143
842.7685, 2660.329
843.2506, 2668.232
843.7327, 2660.218
844.2148, 2651.552
844.6970, 2621.977
845.1791, 2610.474
845.6612, 2596.925
846.1433, 2582.721
846.6254, 2568.932
847.1075, 2555.795
847.5897, 2544.739
848.0718, 2539.555
848.5539, 2533.358
849.0360, 2520.118
849.5181, 2501.221
850.0002, 2496.904
850.4824, 2511.419
850.9645, 2522.945
851.4466, 2518.315
851.9287, 2502.991
852.4108, 2491.266
852.8929, 2482.721
853.3751, 2475.558
853.8572, 2465.851
854.3393, 2459.751
854.8214, 2464.025
855.3035, 2477.346
855.7856, 2484.708
856.2678, 2479.719
856.7499, 2478.754
857.2320, 2489.548
857.7141, 2507.913
858.1962, 2517.280
858.6783, 2517.816
859.1605, 2513.080
859.6426, 2500.194
860.1247, 2486.474
860.6068, 2480.726
861.0889, 2480.928
861.5710, 2480.344
862.0532, 2471.971
862.5353, 2468.319
863.0174, 2476.562
863.4995, 2491.383
863.9816, 2493.849
864.4637, 2482.490
864.9459, 2470.349
865.4279, 2462.593
865.9100, 2456.272
866.3922, 2443.452
866.8743, 2427.677
867.3564, 2418.925
867.8385, 2424.194
868.3206, 2434.741
868.8027, 2452.044
869.2849, 2471.359
869.7670, 2480.792
870.2491, 2474.992
870.7312, 2472.809
871.2133, 2478.996
871.6954, 2489.086
872.1776, 2496.137
872.6597, 2499.692
873.1418, 2497.059
873.6239, 2482.904
874.1060, 2469.916
874.5881, 2465.655
875.0703, 2469.484
875.5524, 2480.501
876.0345, 2512.301
876.5166, 2531.882
876.9987, 2534.337
877.4808, 2526.973
877.9630, 2518.924
878.4451, 2510.269
878.9272, 2501.843
879.4093, 2492.446
879.8914, 2488.482
880.3735, 2502.556
880.8557, 2524.073
881.3378, 2538.436
881.8199, 2539.597
882.3020, 2538.552
882.7841, 2532.964
883.2662, 2529.692
883.7484, 2537.808
884.2305, 2560.740
884.7126, 2565.236
885.1947, 2545.682
885.6768, 2527.327
886.1589, 2547.962
886.6411, 2583.671
887.1232, 2591.648
887.6053, 2561.774
888.0874, 2536.090
888.5695, 2535.946
889.0516, 2544.785
889.5338, 2551.507
890.0159, 2555.737
890.4980, 2557.971
890.9801, 2557.184
891.4622, 2558.083
891.9443, 2566.405
892.4265, 2578.568
892.9086, 2586.183
893.3907, 2588.867
893.8728, 2588.072
894.3549, 2577.880
894.8370, 2570.128
895.3192, 2574.769
895.8013, 2592.434
896.2834, 2603.472
896.7655, 2607.588
897.2476, 2605.701
897.7297, 2595.176
898.2119, 2580.115
898.6940, 2576.900
899.1761, 2583.609
899.6582, 2588.582
900.1403, 2582.080
900.6224, 2574.693
901.1046, 2574.878
901.5867, 2580.583
902.0688, 2583.112
902.5509, 2576.210
903.0330, 2576.114
903.5151, 2588.740
903.9973, 2607.896
904.4794, 2618.135
904.9615, 2620.442
905.4436, 2621.496
905.9257, 2622.387
906.4078, 2625.007
906.8900, 2635.831
907.3721, 2648.278
907.8542, 2651.677
908.3363, 2632.749
908.8184, 2619.168
909.3005, 2612.796
909.7827, 2612.550
910.2648, 2619.597
910.7469, 2633.237
911.2290, 2641.334
911.7111, 2641.420
912.1932, 2638.495
912.6754, 2635.494
913.1575, 2633.276
913.6396, 2633.345
914.1217, 2637.415
914.6038, 2639.235
915.0859, 2637.509
915.5681, 2633.795
916.0502, 2626.839
916.5323, 2616.230
917.0144, 2618.906
917.4965, 2635.724
917.9786, 2653.497
918.4608, 2662.986
918.9429, 2666.745
919.4250, 2667.114
919.9071, 2664.337
920.3892, 2659.491
920.8713, 2645.190
921.3535, 2637.473
921.8356, 2645.345
922.3177, 2665.580
922.7998, 2673.164
923.2819, 2667.389
923.7640, 2666.395
924.2462, 2687.213
924.7283, 2711.237
925.2104, 2711.172
925.6925, 2694.480
926.1746, 2682.271
926.6567, 2688.796
927.1389, 2692.542
927.6210, 2682.373
928.1031, 2669.507
928.5852, 2682.064
929.0673, 2722.677
929.5494, 2746.901
930.0316, 2741.985
930.5137, 2725.583
930.9958, 2713.896
931.4779, 2707.994
931.9600, 2710.490
932.4421, 2728.015
932.9243, 2741.612
933.4064, 2743.069
933.8885, 2741.978
934.3706, 2748.313
934.8527, 2764.100
935.3348, 2763.630
935.8170, 2743.722
936.2991, 2725.141
936.7812, 2728.928
937.2633, 2745.024
937.7454, 2763.180
938.2275, 2782.421
938.7097, 2793.895
939.1918, 2786.139
939.6739, 2778.661
940.1560, 2780.206
940.6381, 2789.925
941.1202, 2798.148
941.6024, 2804.756
942.0845, 2811.818
942.5666, 2821.617
943.0487, 2831.620
943.5308, 2838.035
944.0129, 2841.798
944.4951, 2845.722
944.9772, 2850.017
945.4593, 2855.554
945.9414, 2862.215
946.4235, 2870.288
946.9056, 2880.887
947.3877, 2894.042
947.8698, 2907.577
948.3519, 2921.318
948.8340, 2934.227
949.3162, 2946.120
949.7983, 2955.872
950.2804, 2961.093
950.7625, 2956.834
951.2446, 2957.522
951.7267, 2963.623
952.2089, 2976.345
952.6910, 3001.698
953.1731, 3039.571
953.6552, 3057.606
954.1373, 3054.137
954.6194, 3043.249
955.1016, 3024.265
955.5837, 3012.006
956.0658, 3027.928
956.5479, 3072.353
957.0300, 3103.084
957.5121, 3099.416
957.9943, 3101.344
958.4764, 3124.543
958.9585, 3162.881
959.4406, 3193.095
959.9227, 3215.736
960.4048, 3235.990
960.8870, 3257.210
961.3691, 3275.552
961.8512, 3284.981
962.3333, 3289.852
962.8154, 3299.071
963.2975, 3312.965
963.7797, 3334.284
964.2618, 3367.347
964.7439, 3401.935
965.2260, 3421.510
965.7081, 3429.417
966.1902, 3439.693
966.6724, 3455.240
967.1545, 3467.816
967.6366, 3467.141
968.1187, 3463.575
968.6008, 3464.655
969.0829, 3470.044
969.5651, 3489.235
970.0472, 3529.155
970.5293, 3564.694
971.0114, 3573.439
971.4935, 3567.497
971.9756, 3586.047
972.4578, 3625.800
972.9399, 3669.326
973.4220, 3720.969
973.9041, 3760.639
974.3862, 3764.301
974.8683, 3749.367
975.3505, 3769.526
975.8326, 3836.511
976.3147, 3890.305
976.7968, 3914.427
977.2789, 3929.088
977.7610, 3962.151
978.2432, 4008.553
978.7253, 4059.319
979.2074, 4114.149
979.6895, 4167.364
980.1716, 4210.023
980.6537, 4254.610
981.1359, 4312.988
981.6180, 4388.938
982.1001, 4445.026
982.5822, 4479.214
983.0643, 4521.090
983.5464, 4604.042
984.0286, 4701.364
984.5107, 4774.134
984.9928, 4825.861
985.4749, 4898.731
985.9570, 5026.473
986.4391, 5150.734
986.9213, 5252.114
987.4034, 5342.596
987.8855, 5452.948
988.3676, 5583.368
988.8497, 5734.896
989.3318, 5915.664
989.8140, 6101.624
990.2961, 6266.560
990.7782, 6426.804
991.2603, 6600.224
991.7424, 6783.404
992.2245, 6998.292
992.7067, 7250.772
993.1888, 7523.182
993.6709, 7798.573
994.1530, 8080.229
994.6351, 8383.376
995.1172, 8709.734
995.5994, 9051.112
996.0815, 9397.011
996.5636, 9756.537
997.0457, 10142.41
997.5278, 10551.44
998.0099, 10938.44
998.4921, 11295.68
998.9742, 11683.08
999.4563, 12128.72
999.9384, 12603.59
1000.421, 13051.62
1000.903, 13488.38
1001.385, 13959.51
1001.867, 14496.10
1002.349, 15038.82
1002.831, 15571.93
1003.313, 16107.05
1003.795, 16648.45
1004.277, 17200.85
1004.760, 17759.85
1005.242, 18333.30
1005.724, 18863.95
1006.206, 19282.11
1006.688, 19648.99
1007.170, 20043.41
1007.652, 20466.89
1008.134, 20802.09
1008.617, 21017.78
1009.099, 21195.53
1009.581, 21375.97
1010.063, 21527.33
1010.545, 21579.27
1011.027, 21532.10
1011.509, 21381.62
1011.991, 21097.84
1012.473, 20759.69
1012.956, 20401.98
1013.438, 20014.08
1013.920, 19588.29
1014.402, 19125.63
1014.884, 18616.38
1015.366, 18049.59
1015.848, 17463.41
1016.330, 16885.14
1016.813, 16311.04
1017.295, 15738.57
1017.777, 15166.59
1018.259, 14616.85
1018.741, 14105.17
1019.223, 13600.39
1019.705, 13081.63
1020.187, 12563.68
1020.669, 12101.37
1021.152, 11696.06
1021.634, 11309.21
1022.116, 10927.28
1022.598, 10561.43
1023.080, 10218.32
1023.562, 9898.916
1024.044, 9605.561
1024.526, 9342.675
1025.008, 9094.598
1025.491, 8855.665
1025.973, 8637.776
1026.455, 8455.572
1026.937, 8301.813
1027.419, 8161.335
1027.901, 8030.878
1028.383, 7898.005
1028.865, 7721.572
1029.348, 7574.866
1029.830, 7506.047
1030.312, 7490.232
1030.794, 7458.399
1031.276, 7408.113
1031.758, 7375.753
1032.240, 7375.241
1032.722, 7384.456
1033.204, 7372.442
1033.687, 7356.179
1034.169, 7356.875
1034.651, 7376.210
1035.133, 7423.210
1035.615, 7503.684
1036.097, 7600.095
1036.579, 7709.660
1037.061, 7827.737
1037.543, 7927.488
1038.026, 8010.694
1038.508, 8084.850
1038.990, 8140.805
1039.472, 8203.886
1039.954, 8292.863
1040.436, 8398.878
1040.918, 8500.637
1041.400, 8594.037
1041.883, 8705.538
1042.365, 8843.328
1042.847, 8990.336
1043.329, 9120.545
1043.811, 9250.613
1044.293, 9404.653
1044.775, 9590.771
1045.257, 9782.447
1045.740, 9973.108
1046.222, 10169.62
1046.704, 10367.02
1047.186, 10572.15
1047.668, 10833.21
1048.150, 11143.28
1048.632, 11450.51
1049.114, 11709.97
1049.596, 11982.10
1050.078, 12287.79
1050.561, 12636.50
1051.043, 13030.78
1051.525, 13479.00
1052.007, 13939.58
1052.489, 14406.15
1052.971, 14903.36
1053.453, 15457.28
1053.935, 16057.95
1054.418, 16677.78
1054.900, 17316.10
1055.382, 18013.58
1055.864, 18802.31
1056.346, 19617.03
1056.828, 20442.08
1057.310, 21278.33
1057.792, 22160.86
1058.275, 23074.56
1058.757, 23991.65
1059.239, 24918.89
1059.721, 25807.00
1060.203, 26654.51
1060.685, 27427.93
1061.167, 28107.08
1061.649, 28707.64
1062.131, 29182.07
1062.614, 29546.18
1063.096, 29702.34
1063.578, 29571.43
1064.060, 29199.39
1064.542, 28628.47
1065.024, 27865.21
1065.506, 26946.31
1065.988, 25828.93
1066.470, 24595.27
1066.953, 23205.65
1067.435, 21758.05
1067.917, 20408.73
1068.399, 19139.44
1068.881, 17891.20
1069.363, 16671.82
1069.845, 15519.98
1070.327, 14454.98
1070.810, 13494.97
1071.292, 12660.76
1071.774, 11946.23
1072.256, 11247.24
1072.738, 10565.55
1073.220, 9930.740
1073.702, 9353.358
1074.184, 8832.648
1074.666, 8387.732
1075.149, 7999.109
1075.631, 7646.981
1076.113, 7339.780
1076.595, 7034.835
1077.077, 6721.336
1077.559, 6436.164
1078.041, 6231.662
1078.523, 6077.612
1079.005, 5897.250
1079.488, 5694.224
1079.970, 5507.270
1080.452, 5351.916
1080.934, 5219.583
1081.416, 5110.900
1081.898, 5017.473
1082.380, 4927.111
1082.862, 4839.298
1083.344, 4746.471
1083.827, 4646.149
1084.309, 4553.730
1084.791, 4479.976
1085.273, 4422.357
1085.755, 4385.227
1086.237, 4368.897
1086.719, 4334.917
1087.201, 4279.409
1087.684, 4228.642
1088.166, 4198.119
1088.648, 4176.131
1089.130, 4146.026
1089.612, 4111.816
1090.094, 4080.971
1090.576, 4053.323
1091.058, 4033.770
1091.541, 4023.923
1092.023, 4019.534
1092.505, 4017.711
1092.987, 4018.198
1093.469, 4021.280
1093.951, 4026.352
1094.433, 4029.438
1094.915, 4026.422
1095.397, 4022.876
1095.880, 4016.588
1096.362, 4013.347
1096.844, 4027.993
1097.326, 4060.147
1097.808, 4087.748
1098.290, 4106.226
1098.772, 4125.429
1099.254, 4158.880
1099.736, 4193.879
1100.219, 4215.261
1100.701, 4221.296
1101.183, 4248.007
1101.665, 4299.648
1102.147, 4354.211
1102.629, 4400.852
1103.111, 4446.787
1103.593, 4508.321
1104.076, 4574.958
1104.558, 4627.695
1105.040, 4641.228
1105.522, 4681.782
1106.004, 4768.215
1106.486, 4857.244
1106.968, 4912.632
1107.450, 4945.116
1107.932, 5000.023
1108.415, 5073.202
1108.897, 5142.705
1109.379, 5198.158
1109.861, 5245.878
1110.343, 5280.312
1110.825, 5314.000
1111.307, 5368.752
1111.789, 5443.252
1112.271, 5515.348
1112.754, 5582.701
1113.236, 5637.683
1113.718, 5661.618
1114.200, 5681.280
1114.682, 5718.447
1115.164, 5771.750
1115.646, 5820.344
1116.128, 5863.713
1116.611, 5905.429
1117.093, 5948.767
1117.575, 5986.210
1118.057, 6005.268
1118.539, 6015.112
1119.021, 6030.001
1119.503, 6058.745
1119.985, 6065.332
1120.468, 6039.133
1120.950, 6015.041
1121.432, 6016.239
1121.914, 6029.869
1122.396, 6028.085
1122.878, 6014.092
1123.360, 5996.412
1123.842, 5983.224
1124.324, 5958.124
1124.807, 5910.044
1125.289, 5861.772
1125.771, 5837.749
1126.253, 5833.481
1126.735, 5826.745
1127.217, 5815.951
1127.699, 5796.487
1128.181, 5761.012
1128.663, 5721.040
1129.146, 5678.151
1129.628, 5635.559
1130.110, 5602.697
1130.592, 5579.237
1131.074, 5546.054
1131.556, 5499.707
1132.038, 5447.075
1132.520, 5387.040
1133.003, 5328.305
1133.485, 5283.758
1133.967, 5250.814
1134.449, 5190.019
1134.931, 5095.401
1135.413, 5013.041
1135.895, 4961.871
1136.377, 4921.365
1136.859, 4872.708
1137.342, 4815.445
1137.824, 4748.946
1138.306, 4669.821
1138.788, 4586.632
1139.270, 4495.318
1139.752, 4412.728
1140.234, 4352.459
1140.716, 4304.759
1141.198, 4257.493
1141.681, 4207.637
1142.163, 4149.303
1142.645, 4072.102
1143.127, 3996.707
1143.609, 3920.082
1144.091, 3852.146
1144.573, 3803.573
1145.055, 3770.531
1145.538, 3746.260
1146.020, 3728.135
1146.502, 3703.191
1146.984, 3658.500
1147.466, 3614.076
1147.948, 3574.187
1148.430, 3539.656
1148.912, 3512.512
1149.395, 3491.957
1149.877, 3471.144
1150.359, 3449.322
1150.841, 3431.835
1151.323, 3433.435
1151.805, 3428.708
1152.287, 3393.379
1152.769, 3342.317
1153.251, 3328.123
1153.734, 3350.064
1154.216, 3363.168
1154.698, 3355.554
1155.180, 3340.620
1155.662, 3329.669
1156.144, 3316.476
1156.626, 3288.761
1157.108, 3247.538
1157.590, 3240.616
1158.073, 3271.689
1158.555, 3290.175
1159.037, 3266.007
1159.519, 3235.025
1160.001, 3237.871
1160.483, 3257.091
1160.965, 3268.532
1161.447, 3267.524
1161.929, 3266.042
1162.412, 3264.631
1162.894, 3259.958
1163.376, 3247.479
1163.858, 3232.264
1164.340, 3215.376
1164.822, 3202.203
1165.304, 3205.809
1165.786, 3253.017
1166.269, 3267.497
1166.751, 3237.483
1167.233, 3200.130
1167.715, 3187.626
1168.197, 3192.186
1168.679, 3206.669
1169.161, 3227.063
1169.643, 3237.149
1170.125, 3214.269
1170.608, 3208.689
1171.090, 3232.422
1171.572, 3265.297
1172.054, 3280.665
1172.536, 3283.379
1173.018, 3282.717
1173.500, 3279.800
1173.982, 3277.714
1174.464, 3279.617
1174.947, 3279.535
1175.429, 3274.038
1175.911, 3268.035
1176.393, 3272.719
1176.875, 3285.205
1177.357, 3297.608
1177.839, 3269.048
1178.321, 3294.531
1178.804, 3311.890
1179.286, 3321.539
1179.768, 3300.427
1180.250, 3319.035
1180.732, 3321.726
1181.214, 3323.762
1181.696, 3347.959
1182.178, 3331.321
1182.661, 3355.181
1183.143, 3382.304
1183.625, 3397.197
1184.107, 3399.511
1184.589, 3390.536
1185.071, 3375.859
1185.553, 3357.668
1186.035, 3350.796
1186.517, 3367.913
1187.000, 3388.869
1187.482, 3404.899
1187.964, 3419.757
1188.446, 3439.479
1188.928, 3464.491
1189.410, 3467.873
1189.892, 3451.377
1190.374, 3438.037
1190.856, 3444.045
1191.339, 3453.965
1191.821, 3459.083
1192.303, 3463.485
1192.785, 3472.886
1193.267, 3487.414
1193.749, 3506.118
1194.231, 3528.583
1194.713, 3540.420
1195.196, 3519.532
1195.678, 3496.602
1196.160, 3495.806
1196.642, 3505.823
1197.124, 3501.155
1197.606, 3480.907
1198.088, 3462.262
1198.570, 3446.946
1199.052, 3435.156
1199.535, 3425.539
1200.017, 3420.951
1200.499, 3427.055
1200.981, 3439.904
1201.463, 3446.185
1201.945, 3445.719
1202.427, 3442.524
1202.909, 3437.447
1203.391, 3429.050
1203.874, 3413.456
1204.356, 3396.169
1204.838, 3378.854
1205.320, 3363.500
1205.802, 3365.439
1206.284, 3386.584
1206.766, 3387.867
1207.248, 3353.574
1207.731, 3313.786
1208.213, 3293.182
1208.695, 3283.112
1209.177, 3277.818
1209.659, 3276.235
1210.141, 3263.689
1210.623, 3239.100
1211.105, 3226.719
1211.588, 3242.385
1212.070, 3257.758
1212.552, 3243.654
1213.034, 3215.679
1213.516, 3189.082
1213.998, 3164.732
1214.480, 3144.382
1214.962, 3128.005
1215.444, 3113.491
1215.927, 3101.565
1216.409, 3088.745
1216.891, 3070.904
1217.373, 3051.204
1217.855, 3032.714
1218.337, 3014.793
1218.819, 3005.785
1219.301, 3006.206
1219.783, 3004.237
1220.266, 2989.428
1220.748, 2973.069
1221.230, 2965.356
1221.712, 2961.764
1222.194, 2955.121
1222.676, 2944.272
1223.158, 2935.607
1223.640, 2929.247
1224.123, 2922.376
1224.605, 2912.788
1225.087, 2902.139
1225.569, 2890.956
1226.051, 2879.901
1226.533, 2870.009
1227.015, 2861.449
1227.497, 2853.747
1227.979, 2846.929
1228.462, 2839.550
1228.944, 2827.383
1229.426, 2817.397
1229.908, 2817.057
1230.390, 2821.897
1230.872, 2821.688
1231.354, 2815.927
1231.836, 2812.979
1232.318, 2813.660
1232.801, 2813.605
1233.283, 2811.072
1233.765, 2805.025
1234.247, 2790.306
1234.729, 2772.884
1235.211, 2766.229
1235.693, 2770.334
1236.175, 2776.709
1236.657, 2784.464
1237.140, 2788.973
1237.622, 2789.649
1238.104, 2782.868
1238.586, 2758.292
1239.068, 2727.393
1239.550, 2717.547
1240.032, 2727.551
1240.514, 2738.269
1240.997, 2747.039
1241.479, 2754.061
1241.961, 2761.884
1242.443, 2765.361
1242.925, 2760.938
1243.407, 2750.645
1243.889, 2737.552
1244.371, 2722.437
1244.854, 2712.482
1245.336, 2708.884
1245.818, 2710.224
1246.300, 2723.092
1246.782, 2731.896
1247.264, 2726.265
1247.746, 2713.185
1248.228, 2715.263
1248.710, 2728.233
1249.193, 2731.527
1249.675, 2719.500
1250.157, 2707.333
1250.639, 2701.878
1251.121, 2698.996
1251.603, 2698.160
1252.085, 2697.833
1252.567, 2691.002
1253.049, 2681.156
1253.532, 2680.476
1254.014, 2695.002
1254.496, 2702.122
1254.978, 2686.808
1255.460, 2672.553
1255.942, 2668.449
1256.424, 2671.684
1256.906, 2679.638
1257.389, 2688.916
1257.871, 2691.284
1258.353, 2683.383
1258.835, 2673.671
1259.317, 2662.842
1259.799, 2652.115
1260.281, 2640.981
1260.763, 2631.616
1261.245, 2628.308
1261.728, 2630.071
1262.210, 2635.932
1262.692, 2648.237
1263.174, 2655.994
1263.656, 2659.220
1264.138, 2656.465
1264.620, 2642.861
1265.102, 2628.893
1265.584, 2633.079
1266.067, 2647.497
1266.549, 2660.084
1267.031, 2669.379
1267.513, 2672.757
1267.995, 2669.670
1268.477, 2662.103
1268.959, 2646.862
1269.441, 2633.536
1269.924, 2631.860
1270.406, 2640.036
1270.888, 2660.681
1271.370, 2699.057
1271.852, 2702.663
1272.334, 2669.297
1272.816, 2639.738
1273.298, 2635.519
1273.781, 2641.504
1274.263, 2652.309
1274.745, 2661.209
1275.227, 2659.422
1275.709, 2646.433
1276.191, 2637.037
1276.673, 2631.454
1277.155, 2633.606
1277.637, 2651.667
1278.120, 2668.413
1278.602, 2676.652
1279.084, 2676.738
1279.566, 2666.047
1280.048, 2646.309
1280.530, 2639.254
1281.012, 2643.522
1281.494, 2652.347
1281.976, 2670.172
1282.459, 2679.356
1282.941, 2665.604
1283.423, 2651.412
1283.905, 2654.650
1284.387, 2670.261
1284.869, 2679.020
1285.351, 2680.953
1285.833, 2675.674
1286.316, 2650.200
1286.798, 2640.730
1287.280, 2656.027
1287.762, 2675.508
1288.244, 2686.447
1288.726, 2690.257
1289.208, 2686.607
1289.690, 2678.777
1290.172, 2674.263
1290.655, 2676.960
1291.137, 2680.537
1291.619, 2685.656
1292.101, 2687.165
1292.583, 2677.000
##END=



