##NAMES=Amblygonite
##RRUFFID=R040006
##IDEAL CHEMISTRY=LiAlPO_4_F
##LOCALITY=Pala, San Diego County, California, USA
##OWNER=RRUFF
##SOURCE=University of Arizona Mineral Museum
##DESCRIPTION=Light gray coarsely crystalline massive
##STATUS=The identification of this mineral has been confirmed by X-ray diffraction and chemical analysis
##URL=rruff.info/R040006
##MEASURED CHEMISTRY=LiAl_1.00_(P_1.00_O_4_)(F_0.73_(OH)_0.27_)_Î£=1_; Li assumed by stoichiometry; OH estimated by charge balance
112.8500, 291.0400
113.3321, 292.0211
113.8143, 311.9255
114.2964, 343.2650
114.7785, 373.3494
115.2606, 399.2449
115.7427, 419.8202
116.2248, 433.5114
116.7070, 440.5821
117.1891, 442.6383
117.6712, 438.2419
118.1533, 428.7344
118.6354, 419.6528
119.1175, 413.7203
119.5997, 408.7550
120.0818, 400.2246
120.5639, 385.0954
121.0460, 372.7267
121.5281, 370.5693
122.0102, 378.4923
122.4924, 390.4028
122.9745, 403.3919
123.4566, 419.5185
123.9387, 440.4722
124.4208, 465.1991
124.9029, 497.0218
125.3851, 541.6875
125.8672, 601.3857
126.3493, 663.5992
126.8314, 723.0962
127.3135, 782.0859
127.7956, 842.3548
128.2778, 900.3184
128.7599, 963.9598
129.2420, 1051.357
129.7241, 1174.206
130.2062, 1292.737
130.6883, 1404.938
131.1705, 1501.179
131.6526, 1567.965
132.1347, 1598.120
132.6168, 1594.903
133.0989, 1566.106
133.5810, 1499.644
134.0632, 1422.874
134.5453, 1345.132
135.0274, 1265.274
135.5095, 1178.813
135.9916, 1078.122
136.4737, 967.6382
136.9559, 884.3366
137.4380, 843.3772
137.9201, 816.7603
138.4022, 799.3668
138.8843, 789.3212
139.3664, 784.3661
139.8486, 782.5736
140.3307, 783.9254
140.8128, 792.3216
141.2949, 810.5525
141.7770, 834.1591
142.2591, 860.9642
142.7413, 891.9797
143.2234, 930.0736
143.7055, 977.6393
144.1876, 1034.841
144.6697, 1099.469
145.1518, 1171.167
145.6340, 1249.878
146.1161, 1339.210
146.5982, 1436.785
147.0803, 1536.807
147.5624, 1637.333
148.0445, 1745.517
148.5267, 1817.610
149.0088, 1850.661
149.4909, 1858.113
149.9730, 1834.026
150.4551, 1785.062
150.9372, 1733.634
151.4194, 1703.812
151.9015, 1699.885
152.3836, 1707.249
152.8657, 1731.256
153.3478, 1760.432
153.8299, 1786.385
154.3121, 1808.608
154.7942, 1833.776
155.2763, 1870.658
155.7584, 1926.673
156.2405, 1975.133
156.7226, 1999.327
157.2048, 2027.288
157.6869, 2081.491
158.1690, 2165.239
158.6511, 2265.643
159.1332, 2365.434
159.6153, 2466.126
160.0975, 2561.907
160.5796, 2643.021
161.0617, 2724.961
161.5438, 2826.684
162.0259, 2951.146
162.5080, 3079.652
162.9902, 3185.731
163.4723, 3261.488
163.9544, 3329.257
164.4365, 3396.140
164.9186, 3452.102
165.4007, 3485.586
165.8829, 3493.796
166.3650, 3483.250
166.8471, 3461.318
167.3292, 3423.188
167.8113, 3387.062
168.2934, 3363.624
168.7756, 3339.680
169.2577, 3298.923
169.7398, 3236.553
170.2219, 3161.567
170.7040, 3087.166
171.1861, 3015.467
171.6683, 2937.967
172.1504, 2848.088
172.6325, 2753.595
173.1146, 2664.937
173.5967, 2585.104
174.0788, 2510.312
174.5610, 2432.808
175.0431, 2349.996
175.5252, 2274.105
176.0073, 2208.870
176.4894, 2151.530
176.9715, 2098.222
177.4537, 2048.268
177.9358, 2000.535
178.4179, 1954.257
178.9000, 1909.974
179.3821, 1864.367
179.8642, 1813.140
180.3464, 1760.747
180.8285, 1714.873
181.3106, 1678.227
181.7927, 1646.478
182.2748, 1613.366
182.7569, 1578.650
183.2391, 1544.114
183.7212, 1511.300
184.2033, 1478.892
184.6854, 1443.893
185.1675, 1404.707
185.6496, 1365.307
186.1318, 1332.758
186.6139, 1307.371
187.0960, 1282.164
187.5781, 1254.344
188.0602, 1225.562
188.5423, 1198.924
189.0245, 1176.222
189.5066, 1153.686
189.9887, 1124.790
190.4708, 1089.386
190.9529, 1056.198
191.4350, 1028.624
191.9172, 1005.245
192.3993, 983.7133
192.8814, 963.9331
193.3635, 945.0297
193.8456, 924.2794
194.3277, 901.2232
194.8099, 883.6016
195.2920, 879.8920
195.7741, 882.0827
196.2562, 874.0042
196.7383, 849.6061
197.2204, 822.4465
197.7026, 810.9708
198.1847, 814.0272
198.6668, 816.7407
199.1489, 812.8248
199.6310, 806.1226
200.1131, 802.9016
200.5953, 804.3046
201.0774, 809.2629
201.5595, 819.9125
202.0416, 835.7107
202.5237, 845.3130
203.0058, 838.0164
203.4880, 824.6791
203.9701, 824.5291
204.4522, 842.9952
204.9343, 864.5627
205.4164, 870.0870
205.8985, 861.8957
206.3807, 857.2870
206.8628, 863.9249
207.3449, 875.3960
207.8270, 882.3682
208.3091, 883.1423
208.7912, 882.2804
209.2734, 884.3184
209.7555, 888.7839
210.2376, 892.3597
210.7197, 894.0939
211.2018, 894.7124
211.6839, 894.4559
212.1660, 893.1326
212.6482, 893.0125
213.1303, 897.8301
213.6124, 906.4492
214.0945, 911.1328
214.5766, 909.0973
215.0587, 903.4481
215.5409, 896.6373
216.0230, 888.7943
216.5051, 881.3951
216.9872, 875.0735
217.4693, 870.1977
217.9514, 868.2386
218.4336, 872.6405
218.9157, 877.9083
219.3978, 879.0465
219.8799, 875.9238
220.3620, 871.3527
220.8441, 867.2249
221.3263, 863.1805
221.8084, 857.6555
222.2905, 848.5361
222.7726, 839.5001
223.2547, 833.3199
223.7368, 829.8430
224.2190, 827.0671
224.7011, 823.7271
225.1832, 820.1384
225.6653, 817.5223
226.1474, 817.6503
226.6295, 817.1287
227.1117, 813.1143
227.5938, 806.3942
228.0759, 800.6288
228.5580, 798.3766
229.0401, 798.2166
229.5222, 795.0092
230.0044, 784.9125
230.4865, 776.5287
230.9686, 776.1685
231.4507, 780.8732
231.9328, 782.1242
232.4149, 775.3061
232.8971, 763.2988
233.3792, 754.1703
233.8613, 747.9194
234.3434, 743.7338
234.8255, 743.4651
235.3076, 744.9298
235.7898, 743.6381
236.2719, 737.5430
236.7540, 728.7835
237.2361, 721.6060
237.7182, 715.1354
238.2003, 711.6263
238.6825, 715.3132
239.1646, 721.1141
239.6467, 721.2443
240.1288, 713.0575
240.6109, 701.2655
241.0930, 693.2397
241.5752, 689.3130
242.0573, 688.7169
242.5394, 695.6241
243.0215, 703.7616
243.5036, 705.5201
243.9857, 699.4579
244.4679, 691.7189
244.9500, 690.0848
245.4321, 697.0369
245.9142, 704.0555
246.3963, 712.7090
246.8784, 720.3245
247.3606, 724.4531
247.8427, 725.0530
248.3248, 723.9980
248.8069, 722.5361
249.2890, 719.6897
249.7711, 723.0242
250.2533, 737.9427
250.7354, 753.3880
251.2175, 760.4103
251.6996, 761.4088
252.1817, 767.2457
252.6638, 788.1075
253.1460, 824.7572
253.6281, 850.2874
254.1102, 851.5527
254.5923, 856.5864
255.0744, 876.6852
255.5565, 907.8839
256.0387, 940.6447
256.5208, 968.6846
257.0029, 992.8652
257.4850, 1019.100
257.9671, 1046.998
258.4492, 1077.665
258.9314, 1109.068
259.4135, 1143.851
259.8956, 1187.154
260.3777, 1241.937
260.8598, 1303.413
261.3419, 1358.161
261.8241, 1395.091
262.3062, 1441.208
262.7883, 1503.864
263.2704, 1573.283
263.7525, 1641.632
264.2346, 1705.700
264.7168, 1767.346
265.1989, 1829.866
265.6810, 1894.912
266.1631, 1957.473
266.6452, 2017.107
267.1273, 2074.929
267.6095, 2131.055
268.0916, 2185.816
268.5737, 2240.566
269.0558, 2300.294
269.5379, 2369.773
270.0201, 2421.764
270.5022, 2445.254
270.9843, 2457.820
271.4664, 2462.294
271.9485, 2461.052
272.4306, 2459.519
272.9128, 2467.234
273.3949, 2482.923
273.8770, 2477.478
274.3591, 2437.483
274.8412, 2391.986
275.3233, 2352.734
275.8055, 2318.794
276.2876, 2287.108
276.7697, 2254.349
277.2518, 2223.042
277.7339, 2201.426
278.2160, 2193.930
278.6982, 2185.950
279.1803, 2167.940
279.6624, 2145.802
280.1445, 2127.012
280.6266, 2113.625
281.1087, 2105.211
281.5909, 2101.074
282.0730, 2101.142
282.5551, 2106.596
283.0372, 2122.788
283.5193, 2142.363
284.0014, 2154.163
284.4836, 2153.210
284.9657, 2155.502
285.4478, 2172.626
285.9299, 2203.604
286.4120, 2241.623
286.8941, 2283.310
287.3763, 2333.611
287.8584, 2400.243
288.3405, 2484.722
288.8226, 2570.794
289.3047, 2644.000
289.7868, 2715.683
290.2690, 2806.731
290.7511, 2921.577
291.2332, 3053.908
291.7153, 3197.230
292.1974, 3351.329
292.6795, 3519.263
293.1617, 3700.496
293.6438, 3896.614
294.1259, 4106.739
294.6080, 4330.566
295.0901, 4574.043
295.5722, 4843.731
296.0544, 5138.881
296.5365, 5444.020
297.0186, 5757.258
297.5007, 6079.678
297.9828, 6419.680
298.4649, 6770.830
298.9471, 7121.015
299.4292, 7469.538
299.9113, 7809.204
300.3934, 8111.331
300.8755, 8402.942
301.3576, 8627.937
301.8398, 8786.277
302.3219, 8869.170
302.8040, 8861.935
303.2861, 8759.723
303.7682, 8578.179
304.2503, 8341.599
304.7325, 8023.499
305.2146, 7691.754
305.6967, 7327.102
306.1788, 6965.513
306.6609, 6628.209
307.1430, 6318.828
307.6252, 6024.869
308.1073, 5731.959
308.5894, 5434.396
309.0715, 5167.360
309.5536, 4939.923
310.0357, 4733.943
310.5179, 4548.617
311.0000, 4379.758
311.4821, 4219.792
311.9642, 4064.872
312.4463, 3913.477
312.9284, 3759.119
313.4106, 3597.709
313.8927, 3441.067
314.3748, 3296.229
314.8569, 3155.921
315.3390, 3010.708
315.8211, 2855.132
316.3033, 2697.924
316.7854, 2548.646
317.2675, 2406.984
317.7496, 2277.055
318.2317, 2163.451
318.7138, 2061.443
319.1960, 1966.791
319.6781, 1878.681
320.1602, 1799.655
320.6423, 1733.335
321.1244, 1677.920
321.6065, 1626.347
322.0887, 1576.354
322.5708, 1532.005
323.0529, 1500.075
323.5350, 1478.907
324.0171, 1458.480
324.4992, 1437.293
324.9814, 1414.612
325.4635, 1387.539
325.9456, 1355.734
326.4277, 1327.701
326.9098, 1311.462
327.3919, 1305.559
327.8741, 1293.095
328.3562, 1270.803
328.8383, 1245.527
329.3204, 1218.412
329.8025, 1190.843
330.2846, 1165.849
330.7668, 1145.082
331.2489, 1127.680
331.7310, 1111.736
332.2131, 1102.114
332.6952, 1087.444
333.1773, 1063.098
333.6595, 1035.406
334.1415, 1009.922
334.6237, 988.1910
335.1058, 970.2323
335.5879, 956.3959
336.0700, 947.9620
336.5521, 939.2587
337.0342, 931.3458
337.5164, 922.2728
337.9985, 909.1691
338.4806, 893.8633
338.9627, 881.0613
339.4448, 874.5657
339.9269, 873.6654
340.4091, 873.7343
340.8912, 879.0617
341.3733, 878.5331
341.8554, 862.1746
342.3375, 841.5376
342.8196, 831.8126
343.3018, 839.9457
343.7839, 855.1289
344.2660, 860.8934
344.7481, 855.7104
345.2302, 851.9111
345.7123, 855.1133
346.1945, 858.7170
346.6766, 855.6498
347.1587, 845.5098
347.6408, 838.0159
348.1229, 842.8192
348.6050, 855.1050
349.0872, 859.6932
349.5693, 852.5397
350.0514, 844.2697
350.5335, 844.2780
351.0156, 851.0330
351.4977, 858.8829
351.9799, 866.7240
352.4620, 875.4291
352.9441, 887.3369
353.4262, 901.6128
353.9083, 912.3440
354.3904, 914.9600
354.8726, 912.7335
355.3547, 918.6118
355.8368, 941.9288
356.3189, 958.9609
356.8010, 959.8133
357.2831, 953.3024
357.7653, 950.3176
358.2474, 954.0953
358.7295, 961.6713
359.2116, 969.2144
359.6937, 977.1723
360.1758, 983.5731
360.6580, 984.5405
361.1401, 987.5672
361.6222, 998.4728
362.1043, 1015.364
362.5864, 1032.112
363.0685, 1044.676
363.5507, 1053.017
364.0328, 1056.284
364.5149, 1047.136
364.9970, 1043.943
365.4791, 1055.123
365.9612, 1072.208
366.4434, 1085.745
366.9255, 1092.525
367.4076, 1095.317
367.8897, 1097.648
368.3718, 1099.592
368.8539, 1099.945
369.3361, 1096.757
369.8182, 1093.548
370.3003, 1093.685
370.7824, 1096.880
371.2645, 1099.387
371.7466, 1098.689
372.2288, 1096.112
372.7109, 1095.132
373.1930, 1096.570
373.6751, 1095.170
374.1572, 1086.066
374.6393, 1070.766
375.1215, 1056.956
375.6036, 1044.500
376.0857, 1033.997
376.5678, 1028.131
377.0499, 1024.544
377.5320, 1017.325
378.0142, 1003.940
378.4963, 986.6302
378.9784, 969.4901
379.4605, 951.6265
379.9426, 935.7416
380.4247, 924.4813
380.9069, 913.3463
381.3890, 897.9658
381.8711, 878.6287
382.3532, 859.0723
382.8353, 842.2947
383.3174, 828.3380
383.7996, 817.1726
384.2817, 811.6579
384.7638, 805.8598
385.2459, 798.3232
385.7280, 789.7720
386.2101, 781.2736
386.6923, 773.2361
387.1744, 765.3533
387.6565, 756.9871
388.1386, 747.9809
388.6207, 739.2074
389.1028, 729.0302
389.5850, 720.8514
390.0671, 718.7583
390.5492, 722.2365
391.0313, 724.1763
391.5134, 718.3102
391.9955, 708.4042
392.4777, 703.7593
392.9598, 706.0776
393.4419, 706.6160
393.9240, 696.7967
394.4061, 680.4521
394.8882, 672.2209
395.3704, 681.0370
395.8525, 689.0963
396.3346, 685.0536
396.8167, 673.6453
397.2988, 665.5859
397.7809, 664.9332
398.2631, 667.3222
398.7452, 665.2635
399.2273, 654.5643
399.7094, 649.2755
400.1915, 654.7874
400.6736, 661.1777
401.1558, 661.5325
401.6379, 656.4963
402.1200, 651.1271
402.6021, 649.4310
403.0842, 650.6575
403.5663, 648.7078
404.0485, 640.4419
404.5306, 633.6102
405.0127, 630.5776
405.4948, 629.2277
405.9769, 626.9675
406.4590, 623.0347
406.9412, 619.9529
407.4233, 621.5823
407.9054, 627.8041
408.3875, 631.8522
408.8696, 631.9576
409.3517, 630.9127
409.8339, 629.9441
410.3160, 629.4182
410.7981, 631.0505
411.2802, 636.5070
411.7623, 643.6932
412.2444, 649.7961
412.7266, 655.0490
413.2087, 662.0756
413.6908, 671.5877
414.1729, 684.2407
414.6550, 702.7122
415.1371, 728.4192
415.6193, 755.7314
416.1014, 781.7061
416.5835, 809.6555
417.0656, 844.4717
417.5477, 886.1616
418.0298, 928.0161
418.5120, 962.1542
418.9941, 986.8406
419.4762, 1027.462
419.9583, 1094.824
420.4404, 1166.927
420.9225, 1238.250
421.4047, 1311.408
421.8868, 1391.939
422.3689, 1482.568
422.8510, 1577.521
423.3331, 1669.302
423.8152, 1759.929
424.2974, 1838.296
424.7795, 1908.296
425.2616, 1957.642
425.7437, 1985.031
426.2258, 1988.216
426.7079, 1954.703
427.1901, 1859.935
427.6722, 1733.529
428.1543, 1615.097
428.6364, 1506.302
429.1185, 1404.053
429.6006, 1306.780
430.0828, 1215.134
430.5649, 1129.370
431.0470, 1044.726
431.5291, 972.8755
432.0112, 921.1002
432.4933, 882.1536
432.9755, 848.9609
433.4576, 819.5504
433.9397, 792.8854
434.4218, 767.2206
434.9039, 741.9200
435.3860, 724.4492
435.8682, 724.3582
436.3503, 721.5893
436.8324, 707.2167
437.3145, 687.6957
437.7966, 672.8304
438.2787, 666.7296
438.7609, 666.0364
439.2430, 666.2076
439.7251, 667.4687
440.2072, 667.5737
440.6893, 663.9084
441.1714, 661.4473
441.6536, 666.2120
442.1357, 676.3893
442.6178, 681.7284
443.0999, 674.4281
443.5820, 661.9108
444.0641, 652.0953
444.5463, 645.2477
445.0284, 643.4199
445.5105, 649.6022
445.9926, 659.6450
446.4747, 661.3837
446.9568, 648.8924
447.4390, 641.0961
447.9211, 643.0386
448.4032, 649.8624
448.8853, 657.7108
449.3674, 665.7010
449.8495, 674.4114
450.3317, 684.7829
450.8138, 696.6271
451.2959, 703.6964
451.7780, 702.4858
452.2601, 700.8307
452.7422, 699.7937
453.2244, 699.4924
453.7065, 699.2214
454.1886, 698.7616
454.6707, 700.9918
455.1528, 711.3192
455.6349, 728.7259
456.1171, 741.4218
456.5992, 747.1180
457.0813, 749.6844
457.5634, 749.4643
458.0455, 748.1501
458.5276, 751.2936
459.0098, 760.3407
459.4919, 773.8771
459.9740, 795.8781
460.4561, 821.9174
460.9382, 838.2482
461.4203, 839.1605
461.9025, 832.9095
462.3846, 832.1605
462.8667, 836.8116
463.3488, 848.5120
463.8309, 871.0524
464.3130, 896.5563
464.7952, 922.6873
465.2773, 948.1882
465.7594, 970.5322
466.2415, 987.6194
466.7236, 1002.579
467.2057, 1024.404
467.6879, 1055.779
468.1700, 1085.232
468.6521, 1103.380
469.1342, 1123.938
469.6163, 1159.646
470.0984, 1209.566
470.5806, 1257.712
471.0627, 1290.291
471.5448, 1317.343
472.0269, 1355.749
472.5090, 1406.213
472.9911, 1459.207
473.4733, 1511.687
473.9554, 1562.309
474.4375, 1606.413
474.9196, 1636.257
475.4017, 1674.617
475.8839, 1733.245
476.3660, 1797.621
476.8481, 1853.420
477.3302, 1899.701
477.8123, 1944.766
478.2944, 1997.126
478.7766, 2055.564
479.2587, 2099.805
479.7408, 2119.212
480.2229, 2140.685
480.7050, 2175.343
481.1871, 2212.181
481.6693, 2238.913
482.1514, 2253.021
482.6335, 2264.119
483.1156, 2285.230
483.5977, 2310.631
484.0798, 2316.722
484.5620, 2297.734
485.0441, 2274.457
485.5262, 2260.191
486.0083, 2253.438
486.4904, 2246.642
486.9725, 2242.133
487.4547, 2234.543
487.9368, 2224.318
488.4189, 2208.824
488.9010, 2180.864
489.3831, 2139.893
489.8652, 2098.600
490.3474, 2071.953
490.8295, 2061.594
491.3116, 2046.996
491.7937, 2026.713
492.2758, 2003.478
492.7579, 1976.659
493.2401, 1947.868
493.7222, 1917.724
494.2043, 1886.455
494.6864, 1857.350
495.1685, 1837.046
495.6506, 1823.794
496.1328, 1803.053
496.6149, 1771.435
497.0970, 1735.437
497.5791, 1698.947
498.0612, 1661.940
498.5433, 1625.120
499.0254, 1590.082
499.5075, 1553.395
499.9897, 1508.381
500.4718, 1461.738
500.9539, 1426.972
501.4360, 1407.705
501.9181, 1393.534
502.4002, 1371.698
502.8824, 1341.275
503.3645, 1308.928
503.8466, 1271.530
504.3287, 1235.736
504.8108, 1204.327
505.2929, 1175.563
505.7751, 1146.283
506.2572, 1115.421
506.7393, 1085.179
507.2214, 1060.635
507.7035, 1040.587
508.1856, 1013.325
508.6678, 973.7676
509.1499, 935.3328
509.6320, 911.5091
510.1141, 898.9681
510.5962, 881.8870
511.0783, 852.4636
511.5605, 825.1136
512.0426, 809.0041
512.5247, 798.8669
513.0068, 785.3955
513.4890, 766.0334
513.9711, 745.3665
514.4532, 729.3848
514.9353, 718.9380
515.4174, 705.8191
515.8995, 689.3156
516.3817, 670.6099
516.8638, 645.9546
517.3459, 620.8269
517.8280, 603.1135
518.3101, 595.4431
518.7922, 592.6531
519.2744, 592.3024
519.7565, 592.9709
520.2386, 586.9521
520.7207, 571.8936
521.2028, 555.4581
521.6849, 543.4653
522.1671, 535.4042
522.6492, 526.6696
523.1313, 515.1741
523.6134, 505.5086
524.0955, 500.4777
524.5776, 497.5891
525.0598, 493.8127
525.5419, 488.4413
526.0240, 482.4638
526.5061, 477.0540
526.9882, 472.1662
527.4703, 465.1245
527.9525, 453.3561
528.4346, 443.3909
528.9167, 437.6500
529.3988, 434.2180
529.8809, 431.7627
530.3630, 430.1546
530.8452, 427.1628
531.3273, 419.5826
531.8094, 409.8830
532.2915, 403.9396
532.7736, 402.3794
533.2557, 400.0163
533.7379, 392.8160
534.2200, 382.4676
534.7021, 376.1023
535.1842, 375.4060
535.6663, 375.9489
536.1484, 379.6466
536.6306, 382.7524
537.1127, 381.2922
537.5948, 375.7156
538.0769, 369.8013
538.5590, 366.4237
539.0411, 364.9465
539.5233, 362.8421
540.0054, 359.6098
540.4875, 357.5988
540.9696, 357.5255
541.4517, 359.0549
541.9338, 362.9053
542.4160, 368.9976
542.8981, 372.4357
543.3802, 368.8181
543.8623, 363.5565
544.3444, 362.5576
544.8265, 364.9395
545.3087, 366.2885
545.7908, 364.4914
546.2729, 360.9415
546.7550, 358.4374
547.2371, 357.7529
547.7192, 356.2323
548.2014, 351.0960
548.6835, 347.9191
549.1656, 350.6527
549.6477, 357.0868
550.1298, 362.9820
550.6119, 366.8328
551.0941, 368.2033
551.5762, 363.7835
552.0583, 354.9354
552.5404, 354.4403
553.0225, 367.2603
553.5046, 380.9261
553.9868, 383.7228
554.4689, 375.9054
554.9510, 369.5997
555.4331, 364.5499
555.9152, 361.3468
556.3973, 360.9630
556.8795, 362.2374
557.3616, 364.2940
557.8437, 366.6408
558.3258, 368.0511
558.8079, 366.9574
559.2900, 363.5570
559.7722, 360.8443
560.2543, 358.6599
560.7364, 357.4915
561.2185, 355.9644
561.7006, 356.4192
562.1827, 364.0205
562.6649, 380.5640
563.1470, 390.3914
563.6291, 379.0648
564.1112, 360.8648
564.5933, 355.1176
565.0754, 361.1406
565.5576, 366.1416
566.0397, 362.7477
566.5218, 354.6639
567.0039, 351.5759
567.4860, 357.5912
567.9681, 361.0041
568.4503, 357.3659
568.9324, 355.5768
569.4145, 361.8853
569.8966, 373.7790
570.3787, 385.1529
570.8608, 393.8532
571.3430, 399.2254
571.8251, 397.4911
572.3072, 390.3802
572.7893, 390.1713
573.2714, 400.8900
573.7535, 413.3938
574.2357, 418.7671
574.7178, 417.1242
575.1999, 417.8464
575.6820, 421.3837
576.1641, 426.5674
576.6462, 434.8698
577.1284, 443.6651
577.6105, 449.5188
578.0926, 452.1163
578.5747, 454.4275
579.0568, 459.7289
579.5389, 467.1191
580.0211, 470.6772
580.5032, 468.2786
580.9852, 470.0759
581.4673, 483.4992
581.9495, 500.3885
582.4316, 508.9818
582.9137, 508.1231
583.3958, 509.4940
583.8779, 515.3787
584.3600, 525.5668
584.8422, 542.8130
585.3243, 564.2510
585.8064, 581.7752
586.2885, 591.6996
586.7706, 599.3184
587.2527, 613.7023
587.7349, 635.8707
588.2170, 660.8807
588.6991, 689.4748
589.1812, 720.1303
589.6633, 751.3736
590.1454, 784.1478
590.6276, 819.5079
591.1097, 856.8274
591.5918, 899.5734
592.0739, 947.5728
592.5560, 1003.252
593.0381, 1073.028
593.5203, 1156.618
594.0024, 1244.608
594.4845, 1330.213
594.9666, 1415.852
595.4487, 1513.634
595.9308, 1621.307
596.4130, 1745.149
596.8951, 1888.508
597.3772, 2043.771
597.8593, 2209.446
598.3414, 2382.372
598.8235, 2555.635
599.3057, 2722.366
599.7878, 2893.411
600.2699, 3093.994
600.7520, 3314.572
601.2341, 3514.142
601.7162, 3685.414
602.1984, 3818.984
602.6805, 3907.950
603.1626, 3952.422
603.6447, 3929.749
604.1268, 3819.943
604.6089, 3674.996
605.0911, 3493.362
605.5732, 3288.256
606.0553, 3062.537
606.5374, 2822.631
607.0195, 2593.376
607.5016, 2392.440
607.9838, 2216.923
608.4659, 2059.291
608.9480, 1920.052
609.4301, 1792.255
609.9122, 1671.750
610.3943, 1563.831
610.8765, 1478.253
611.3586, 1418.542
611.8407, 1361.683
612.3228, 1303.391
612.8049, 1251.655
613.2870, 1210.816
613.7692, 1178.416
614.2513, 1150.761
614.7334, 1126.649
615.2155, 1107.850
615.6976, 1099.356
616.1797, 1098.868
616.6619, 1088.264
617.1440, 1063.453
617.6261, 1047.758
618.1082, 1055.182
618.5903, 1075.231
619.0724, 1088.747
619.5546, 1093.586
620.0367, 1102.915
620.5188, 1119.072
621.0009, 1140.175
621.4830, 1164.970
621.9651, 1193.801
622.4473, 1227.444
622.9294, 1266.235
623.4115, 1308.830
623.8936, 1354.257
624.3757, 1402.382
624.8578, 1448.575
625.3400, 1489.429
625.8221, 1535.933
626.3042, 1595.182
626.7863, 1663.735
627.2684, 1734.914
627.7505, 1811.356
628.2327, 1882.495
628.7148, 1942.289
629.1969, 1997.907
629.6790, 2051.719
630.1611, 2106.638
630.6432, 2171.483
631.1254, 2251.556
631.6075, 2330.941
632.0896, 2380.974
632.5717, 2399.860
633.0538, 2415.636
633.5359, 2432.810
634.0181, 2441.719
634.5002, 2431.919
634.9823, 2410.660
635.4644, 2392.260
635.9465, 2376.029
636.4286, 2366.231
636.9108, 2361.049
637.3929, 2365.225
637.8750, 2383.101
638.3571, 2414.642
638.8392, 2455.548
639.3214, 2502.605
639.8035, 2564.769
640.2856, 2663.241
640.7677, 2800.629
641.2498, 2943.753
641.7319, 3085.344
642.2141, 3238.718
642.6962, 3421.872
643.1783, 3621.915
643.6604, 3812.041
644.1425, 3997.321
644.6246, 4158.173
645.1068, 4302.947
645.5889, 4410.835
646.0710, 4470.101
646.5531, 4474.354
647.0352, 4410.203
647.5173, 4268.743
647.9995, 4063.274
648.4816, 3806.601
648.9637, 3493.368
649.4458, 3204.847
649.9279, 2953.355
650.4100, 2720.445
650.8922, 2492.732
651.3743, 2275.120
651.8564, 2077.724
652.3385, 1902.116
652.8206, 1746.513
653.3027, 1614.356
653.7849, 1499.120
654.2670, 1397.142
654.7491, 1306.490
655.2312, 1223.621
655.7133, 1146.929
656.1954, 1077.075
656.6776, 1015.800
657.1597, 963.1793
657.6418, 915.7961
658.1239, 873.5746
658.6060, 835.3864
659.0881, 800.6889
659.5703, 769.6231
660.0524, 741.8625
660.5345, 720.4624
661.0166, 696.3824
661.4987, 662.0682
661.9808, 629.0197
662.4630, 606.9232
662.9451, 593.9537
663.4272, 582.6163
663.9093, 569.2222
664.3914, 555.6005
664.8735, 545.3152
665.3557, 537.8094
665.8378, 527.3924
666.3199, 512.7338
666.8020, 498.1896
667.2841, 485.6691
667.7662, 475.5807
668.2484, 470.0990
668.7305, 475.2328
669.2126, 472.7874
669.6947, 454.5144
670.1768, 434.5814
670.6589, 420.0764
671.1411, 411.2172
671.6232, 407.1927
672.1053, 407.9825
672.5874, 410.2509
673.0695, 411.8089
673.5516, 411.7595
674.0338, 405.2254
674.5159, 391.4259
674.9980, 379.7611
675.4801, 375.5280
675.9622, 376.4287
676.4443, 377.3719
676.9265, 379.1169
677.4086, 379.0586
677.8907, 375.9433
678.3728, 372.5228
678.8549, 370.6537
679.3370, 369.0091
679.8192, 365.6104
680.3013, 359.8802
680.7834, 352.3719
681.2655, 340.2993
681.7476, 328.0793
682.2297, 325.0590
682.7119, 330.3767
683.1940, 335.5808
683.6761, 336.9632
684.1582, 335.5567
684.6403, 332.5499
685.1224, 327.1449
685.6046, 324.7600
686.0867, 329.1762
686.5688, 331.6069
687.0509, 328.4233
687.5330, 322.5972
688.0151, 317.0231
688.4973, 312.1146
688.9794, 307.6348
689.4615, 303.0108
689.9436, 299.1528
690.4257, 297.1172
690.9078, 296.5257
691.3900, 297.2005
691.8721, 298.8905
692.3542, 298.8715
692.8363, 293.2269
693.3184, 282.6357
693.8005, 276.5365
694.2827, 276.1700
694.7648, 276.6009
695.2469, 276.8126
695.7290, 276.8646
696.2111, 277.2394
696.6932, 277.8268
697.1754, 276.7524
697.6575, 271.0975
698.1396, 266.7526
698.6217, 266.2430
699.1038, 268.5861
699.5859, 273.6996
700.0681, 280.6928
700.5502, 286.6469
701.0323, 289.4885
701.5144, 289.5654
701.9965, 287.4142
702.4786, 283.0562
702.9608, 275.8231
703.4429, 263.6934
703.9250, 255.7581
704.4071, 262.0949
704.8892, 279.7806
705.3713, 288.2737
705.8535, 279.5525
706.3356, 273.0590
706.8177, 272.1346
707.2998, 272.0478
707.7819, 269.8114
708.2640, 265.6942
708.7462, 260.7332
709.2283, 254.6647
709.7104, 250.3078
710.1925, 251.1543
710.6746, 255.3829
711.1567, 259.7067
711.6389, 263.6134
712.1210, 266.3428
712.6031, 267.3554
713.0852, 267.3547
713.5673, 268.1678
714.0494, 270.8184
714.5316, 270.5098
715.0137, 265.7249
715.4958, 260.0573
715.9779, 252.5749
716.4600, 246.2834
716.9421, 246.1118
717.4243, 253.3575
717.9064, 260.3857
718.3885, 265.8248
718.8706, 268.8026
719.3527, 265.9658
719.8348, 260.8374
720.3170, 261.2973
720.7991, 269.2404
721.2812, 277.2095
721.7633, 276.5109
722.2454, 269.3438
722.7275, 265.5478
723.2097, 265.4324
723.6918, 264.7684
724.1739, 261.1565
724.6560, 259.0471
725.1381, 264.6056
725.6202, 278.1802
726.1024, 285.8839
726.5845, 285.4714
727.0666, 282.8473
727.5487, 277.3539
728.0308, 271.4049
728.5129, 266.2955
728.9951, 262.5018
729.4772, 260.6488
729.9593, 261.0526
730.4414, 263.4502
730.9235, 269.2850
731.4056, 276.4915
731.8878, 280.4563
732.3699, 280.7151
732.8520, 279.3603
733.3341, 277.5286
733.8162, 275.7136
734.2983, 275.2865
734.7805, 276.6818
735.2626, 277.4428
735.7447, 277.0641
736.2268, 276.7032
736.7089, 277.5652
737.1910, 278.5749
737.6732, 277.8899
738.1553, 275.0768
738.6374, 272.1457
739.1195, 267.5544
739.6016, 264.9767
740.0837, 268.1830
740.5659, 274.4620
741.0480, 279.8426
741.5301, 283.0545
742.0122, 284.2062
742.4943, 282.9817
742.9764, 279.9482
743.4586, 275.8203
743.9407, 270.7925
744.4228, 266.5190
744.9049, 263.3111
745.3870, 262.2879
745.8691, 264.9413
746.3513, 270.9715
746.8334, 276.5201
747.3155, 283.4143
747.7976, 286.5844
748.2797, 281.5995
748.7618, 276.2246
749.2440, 275.8504
749.7261, 278.9599
750.2082, 280.6992
750.6903, 279.5991
751.1724, 277.6183
751.6545, 272.5271
752.1367, 269.3320
752.6188, 276.6470
753.1009, 290.8447
753.5830, 299.6952
754.0651, 297.4694
754.5472, 290.6458
755.0294, 287.9142
755.5115, 288.4945
755.9936, 286.9937
756.4757, 282.9478
756.9578, 280.6331
757.4399, 282.4712
757.9221, 285.3857
758.4042, 284.1974
758.8863, 277.5950
759.3684, 277.1372
759.8505, 290.3662
760.3326, 300.2638
760.8148, 301.0853
761.2969, 299.3217
761.7790, 300.8071
762.2611, 305.3633
762.7432, 309.1479
763.2253, 309.5977
763.7075, 310.2363
764.1896, 316.7761
764.6717, 323.2797
765.1538, 319.2525
765.6359, 305.7626
766.1180, 293.1184
766.6002, 287.4518
767.0823, 285.9728
767.5644, 282.7856
768.0465, 278.3860
768.5286, 281.5475
769.0107, 294.0165
769.4929, 307.4297
769.9750, 318.0469
770.4571, 326.4549
770.9392, 334.0670
771.4213, 342.1263
771.9034, 344.2464
772.3856, 331.6263
772.8677, 324.0637
773.3498, 330.8836
773.8319, 342.5928
774.3140, 348.8484
774.7961, 349.3959
775.2783, 352.2323
775.7604, 363.7290
776.2425, 375.4582
776.7246, 381.4525
777.2067, 383.8800
777.6888, 385.4716
778.1710, 386.8808
778.6531, 388.2745
779.1352, 389.8048
779.6173, 391.2187
780.0994, 389.4109
780.5815, 385.6104
781.0637, 395.1632
781.5458, 421.3773
782.0279, 445.3005
782.5100, 456.1610
782.9921, 459.4090
783.4742, 465.5151
783.9564, 475.3821
784.4385, 484.5027
784.9206, 492.0779
785.4027, 499.8911
785.8848, 504.3120
786.3669, 511.8575
786.8491, 533.0840
787.3312, 566.7314
787.8133, 592.2764
788.2954, 593.7192
788.7775, 595.5250
789.2596, 613.7187
789.7418, 638.5035
790.2239, 657.5740
790.7060, 670.6716
791.1881, 685.2708
791.6702, 705.6157
792.1523, 729.4191
792.6345, 753.7718
793.1166, 778.7623
793.5987, 805.5325
794.0808, 834.0571
794.5629, 861.1896
795.0450, 885.3270
795.5272, 907.4440
796.0093, 929.1827
796.4914, 950.5665
796.9735, 971.3401
797.4556, 991.4579
797.9377, 1011.008
798.4199, 1029.475
798.9020, 1047.840
799.3841, 1064.979
799.8662, 1081.769
800.3483, 1105.819
800.8304, 1148.202
801.3126, 1184.712
801.7947, 1203.293
802.2768, 1216.675
802.7589, 1236.487
803.2410, 1260.895
803.7231, 1280.929
804.2053, 1292.013
804.6874, 1303.056
805.1695, 1322.126
805.6516, 1346.362
806.1337, 1372.389
806.6158, 1399.221
807.0980, 1425.303
807.5801, 1450.123
808.0622, 1470.092
808.5443, 1478.504
809.0264, 1478.439
809.5085, 1495.070
809.9907, 1532.498
810.4728, 1556.818
810.9549, 1556.938
811.4370, 1548.928
811.9191, 1546.658
812.4012, 1548.305
812.8834, 1543.426
813.3655, 1532.785
813.8476, 1514.058
814.3297, 1480.944
814.8118, 1446.731
815.2939, 1421.029
815.7761, 1397.327
816.2582, 1360.902
816.7403, 1306.845
817.2224, 1265.294
817.7045, 1263.917
818.1866, 1264.635
818.6688, 1235.114
819.1509, 1190.724
819.6330, 1154.830
820.1151, 1132.477
820.5972, 1117.909
821.0793, 1109.899
821.5615, 1101.931
822.0436, 1081.933
822.5257, 1053.118
823.0078, 1026.131
823.4899, 1002.607
823.9720, 982.5248
824.4542, 966.4492
824.9363, 950.6402
825.4184, 926.5302
825.9005, 892.6371
826.3826, 864.5847
826.8647, 843.8759
827.3469, 824.7653
827.8290, 805.5031
828.3111, 786.6945
828.7932, 769.6657
829.2753, 754.5517
829.7574, 736.6663
830.2396, 712.4353
830.7217, 690.7029
831.2038, 673.4835
831.6859, 658.6062
832.1680, 646.1356
832.6501, 634.4282
833.1323, 619.2727
833.6144, 598.4504
834.0965, 578.7484
834.5786, 563.8218
835.0607, 551.6055
835.5428, 541.3882
836.0250, 532.0859
836.5071, 521.8274
836.9892, 510.2352
837.4713, 498.7841
837.9534, 489.1392
838.4355, 480.0154
838.9177, 468.4187
839.3998, 455.2269
839.8819, 443.6697
840.3640, 434.3625
840.8461, 427.1896
841.3282, 422.2742
841.8104, 418.8220
842.2925, 415.2725
842.7746, 411.6825
843.2567, 407.4577
843.7388, 402.5544
844.2209, 396.9881
844.7031, 390.4063
845.1852, 383.5783
845.6673, 377.0938
846.1494, 370.8119
846.6315, 367.5530
847.1136, 371.7243
847.5958, 372.8942
848.0779, 368.7720
848.5600, 362.1908
849.0421, 352.7359
849.5242, 342.5883
850.0063, 337.4269
850.4885, 340.4058
850.9706, 342.1778
851.4527, 336.9200
851.9348, 331.7096
852.4169, 333.5194
852.8990, 338.1577
853.3812, 337.7975
853.8633, 331.2386
854.3454, 324.9232
854.8275, 323.8370
855.3096, 324.7409
855.7917, 324.2947
856.2739, 322.7663
856.7560, 319.7049
857.2381, 315.7701
857.7202, 314.9624
858.2023, 319.9091
858.6844, 326.2049
859.1666, 326.8351
859.6487, 322.3061
860.1308, 315.1786
860.6129, 305.3605
861.0950, 298.6664
861.5771, 297.1215
862.0593, 299.6930
862.5414, 306.4230
863.0235, 316.2010
863.5056, 317.7760
863.9877, 307.6111
864.4698, 299.4873
864.9520, 295.5602
865.4341, 293.2997
865.9162, 291.1152
866.3983, 289.5029
866.8804, 289.9378
867.3625, 293.2343
867.8447, 295.7562
868.3268, 298.2938
868.8089, 298.9148
869.2910, 293.6635
869.7731, 288.5203
870.2552, 290.8668
870.7374, 299.6718
871.2195, 306.1237
871.7016, 306.0046
872.1837, 305.1983
872.6658, 307.5112
873.1479, 309.5432
873.6301, 307.0879
874.1122, 301.9482
874.5943, 298.7483
875.0764, 298.9886
875.5585, 299.7437
876.0406, 298.4504
876.5228, 296.4702
877.0049, 294.5041
877.4870, 293.5677
877.9691, 297.7673
878.4512, 306.6714
878.9333, 312.3098
879.4155, 308.7780
879.8976, 301.1497
880.3797, 299.0475
880.8618, 301.1921
881.3439, 299.2171
881.8260, 292.7459
882.3082, 290.7284
882.7903, 297.2627
883.2724, 305.8937
883.7545, 308.3910
884.2366, 305.6250
884.7188, 305.8195
885.2009, 309.9111
885.6830, 312.6820
886.1651, 313.1289
886.6472, 312.3266
887.1293, 310.1322
887.6115, 307.8100
888.0936, 308.8837
888.5757, 315.6280
889.0578, 318.2275
889.5399, 314.1196
890.0220, 309.3065
890.5042, 303.3714
890.9863, 298.9642
891.4684, 299.6957
891.9505, 304.6018
892.4326, 307.4024
892.9147, 304.0284
893.3969, 303.5027
893.8790, 311.2428
894.3611, 318.9205
894.8432, 320.5956
895.3253, 318.7349
895.8074, 318.6907
896.2896, 321.4227
896.7717, 316.9662
897.2538, 323.3360
897.7359, 326.9576
898.2180, 327.9786
898.7001, 318.6101
899.1823, 322.6575
899.6644, 321.3285
900.1465, 319.7789
900.6286, 325.7146
901.1107, 317.8572
901.5928, 323.6742
902.0750, 324.0327
902.5571, 326.8894
903.0392, 324.3363
903.5213, 325.3115
904.0034, 329.9508
904.4855, 332.7985
904.9677, 331.0639
905.4498, 327.8606
905.9319, 330.9908
906.4140, 338.2714
906.8961, 338.6344
907.3782, 331.4927
907.8604, 324.6848
908.3425, 321.7323
908.8246, 321.9751
909.3067, 325.3941
909.7888, 331.1743
910.2709, 332.9045
910.7530, 330.2361
911.2351, 327.0045
911.7172, 323.5580
912.1993, 321.3608
912.6815, 321.3983
913.1636, 323.4170
913.6457, 326.8698
914.1278, 331.8343
914.6099, 338.4500
915.0920, 350.0133
915.5742, 355.0500
916.0563, 345.6301
916.5384, 334.2226
917.0205, 334.4132
917.5026, 344.0545
917.9847, 347.4280
918.4669, 338.7367
918.9490, 333.4047
919.4311, 334.0603
919.9132, 335.3295
920.3953, 336.1748
920.8774, 335.7387
921.3596, 331.0739
921.8417, 321.9797
922.3238, 319.6802
922.8059, 331.2895
923.2880, 342.2608
923.7701, 351.0616
924.2523, 355.8417
924.7344, 353.6696
925.2165, 346.8493
925.6986, 339.1545
926.1807, 330.8533
926.6628, 326.4627
927.1450, 330.6645
927.6271, 335.9876
928.1092, 338.0010
928.5913, 338.6941
929.0734, 341.0753
929.5555, 344.6121
930.0377, 345.8559
930.5198, 342.6145
931.0019, 339.9887
931.4840, 343.8672
931.9661, 348.0820
932.4482, 343.0590
932.9304, 334.7376
933.4125, 336.7434
933.8946, 349.9412
934.3767, 360.3618
934.8588, 357.1787
935.3409, 351.3091
935.8231, 357.4500
936.3052, 368.2163
936.7873, 369.6131
937.2694, 363.3624
937.7515, 359.6360
938.2336, 361.8050
938.7158, 363.9518
939.1979, 359.2004
939.6800, 352.1862
940.1621, 353.2868
940.6442, 359.7505
941.1263, 361.8449
941.6085, 358.9905
942.0906, 357.6484
942.5727, 361.1017
943.0548, 366.9058
943.5369, 372.8173
944.0190, 378.0940
944.5012, 377.9652
944.9833, 373.2680
945.4654, 373.8619
945.9475, 381.8017
946.4296, 390.0873
946.9117, 394.3243
947.3939, 394.1312
947.8760, 385.2447
948.3581, 368.2689
948.8402, 368.1592
949.3223, 386.7229
949.8044, 401.5901
950.2866, 406.2592
950.7687, 405.3609
951.2508, 401.6461
951.7329, 397.4310
952.2150, 401.8466
952.6971, 416.9934
953.1793, 424.7050
953.6614, 422.2505
954.1435, 420.6813
954.6256, 424.6536
955.1077, 429.7869
955.5898, 430.7153
956.0720, 428.4057
956.5541, 430.2043
957.0362, 436.9741
957.5183, 445.4467
958.0004, 457.2196
958.4825, 466.5274
958.9647, 470.1863
959.4468, 470.4263
959.9289, 469.4159
960.4110, 467.0963
960.8931, 469.5788
961.3752, 481.0717
961.8574, 488.5107
962.3395, 486.4626
962.8216, 485.7804
963.3037, 494.7970
963.7858, 507.6476
964.2679, 513.6640
964.7501, 511.7603
965.2322, 510.6198
965.7143, 507.7973
966.1964, 509.3896
966.6785, 521.5522
967.1606, 533.1732
967.6428, 534.6349
968.1249, 531.3260
968.6070, 536.0436
969.0891, 551.9724
969.5712, 563.8480
970.0533, 568.9439
970.5355, 572.6170
971.0176, 574.4864
971.4997, 576.9799
971.9818, 582.5183
972.4639, 590.1286
972.9460, 596.9796
973.4282, 602.7451
973.9103, 607.9628
974.3924, 612.1439
974.8745, 616.4479
975.3566, 619.5119
975.8387, 624.2727
976.3209, 634.3388
976.8030, 648.5867
977.2851, 662.7399
977.7672, 677.3421
978.2493, 688.6414
978.7314, 688.8937
979.2136, 693.7926
979.6957, 717.0475
980.1778, 744.4046
980.6599, 759.3167
981.1420, 762.8425
981.6241, 767.3235
982.1063, 774.2147
982.5884, 785.3830
983.0705, 803.3554
983.5526, 823.5791
984.0347, 846.5792
984.5168, 868.3276
984.9990, 881.0483
985.4811, 886.4811
985.9632, 899.4324
986.4453, 925.6747
986.9274, 957.2625
987.4095, 994.8863
987.8917, 1032.933
988.3738, 1066.881
988.8559, 1099.408
989.3380, 1134.849
989.8201, 1173.503
990.3022, 1212.550
990.7844, 1246.415
991.2665, 1287.903
991.7486, 1347.653
992.2307, 1411.906
992.7128, 1464.498
993.1949, 1517.495
993.6771, 1594.610
994.1592, 1696.779
994.6413, 1793.799
995.1234, 1865.902
995.6055, 1942.090
996.0876, 2039.832
996.5698, 2143.373
997.0519, 2242.789
997.5340, 2337.284
998.0161, 2422.019
998.4982, 2497.966
998.9803, 2587.359
999.4625, 2709.035
999.9446, 2832.688
1000.427, 2941.316
1000.909, 3047.952
1001.391, 3160.520
1001.873, 3280.986
1002.355, 3416.243
1002.837, 3565.730
1003.319, 3704.068
1003.802, 3804.145
1004.284, 3911.497
1004.766, 4055.007
1005.248, 4208.617
1005.730, 4364.198
1006.212, 4507.513
1006.694, 4613.131
1007.176, 4677.965
1007.658, 4732.849
1008.141, 4794.484
1008.623, 4845.258
1009.105, 4878.266
1009.587, 4895.013
1010.069, 4891.664
1010.551, 4875.056
1011.033, 4865.855
1011.515, 4865.628
1011.997, 4822.341
1012.480, 4687.859
1012.962, 4540.762
1013.444, 4410.850
1013.926, 4289.512
1014.408, 4176.918
1014.890, 4063.593
1015.372, 3933.125
1015.854, 3782.706
1016.337, 3629.070
1016.819, 3465.446
1017.301, 3316.260
1017.783, 3204.686
1018.265, 3098.203
1018.747, 2967.065
1019.229, 2823.594
1019.711, 2688.082
1020.193, 2564.019
1020.676, 2458.251
1021.158, 2387.308
1021.640, 2315.351
1022.122, 2220.382
1022.604, 2129.100
1023.086, 2060.433
1023.568, 2009.530
1024.050, 1969.753
1024.533, 1939.391
1025.015, 1904.087
1025.497, 1844.962
1025.979, 1801.678
1026.461, 1800.793
1026.943, 1803.157
1027.425, 1774.992
1027.907, 1737.937
1028.390, 1728.140
1028.872, 1748.119
1029.354, 1767.971
1029.836, 1779.336
1030.318, 1793.972
1030.800, 1813.855
1031.282, 1838.120
1031.764, 1862.866
1032.246, 1893.739
1032.729, 1944.557
1033.211, 2013.910
1033.693, 2064.696
1034.175, 2068.887
1034.657, 2090.777
1035.139, 2144.187
1035.621, 2209.374
1036.103, 2288.814
1036.585, 2367.493
1037.068, 2424.757
1037.550, 2462.105
1038.032, 2508.960
1038.514, 2575.407
1038.996, 2636.383
1039.478, 2691.780
1039.960, 2741.258
1040.442, 2780.867
1040.925, 2817.751
1041.407, 2859.688
1041.889, 2905.841
1042.371, 2949.709
1042.853, 2990.929
1043.335, 3030.113
1043.817, 3066.886
1044.299, 3102.738
1044.781, 3138.802
1045.264, 3173.229
1045.746, 3204.552
1046.228, 3232.628
1046.710, 3255.358
1047.192, 3270.491
1047.674, 3287.921
1048.156, 3308.241
1048.638, 3328.859
1049.120, 3347.687
1049.603, 3369.265
1050.085, 3396.731
1050.567, 3430.294
1051.049, 3472.316
1051.531, 3524.890
1052.013, 3567.151
1052.495, 3594.019
1052.977, 3636.937
1053.460, 3703.732
1053.942, 3790.456
1054.424, 3898.238
1054.906, 4014.790
1055.388, 4112.097
1055.870, 4191.800
1056.352, 4285.328
1056.834, 4392.646
1057.317, 4507.387
1057.799, 4627.768
1058.281, 4759.226
1058.763, 4906.691
1059.245, 5056.196
1059.727, 5188.291
1060.209, 5303.956
1060.691, 5409.671
1061.173, 5504.428
1061.656, 5587.051
1062.138, 5655.250
1062.620, 5688.261
1063.102, 5676.794
1063.584, 5621.914
1064.066, 5522.887
1064.548, 5384.368
1065.030, 5211.938
1065.512, 5009.693
1065.995, 4785.156
1066.477, 4542.478
1066.959, 4290.426
1067.441, 4030.870
1067.923, 3768.926
1068.405, 3502.454
1068.887, 3246.813
1069.369, 3023.247
1069.852, 2823.917
1070.334, 2637.871
1070.816, 2466.066
1071.298, 2316.765
1071.780, 2189.445
1072.262, 2067.603
1072.744, 1940.114
1073.226, 1820.633
1073.708, 1722.437
1074.191, 1635.452
1074.673, 1549.130
1075.155, 1466.713
1075.637, 1395.866
1076.119, 1335.662
1076.601, 1279.051
1077.083, 1223.265
1077.565, 1170.339
1078.047, 1119.496
1078.530, 1074.214
1079.012, 1036.726
1079.494, 1005.827
1079.976, 982.2913
1080.458, 964.0594
1080.940, 947.4383
1081.422, 932.8610
1081.904, 912.6346
1082.386, 873.6434
1082.869, 844.2361
1083.351, 839.6273
1083.833, 841.3578
1084.315, 840.6517
1084.797, 835.6639
1085.279, 821.6670
1085.761, 797.1334
1086.243, 780.9946
1086.726, 777.7390
1087.208, 775.4739
1087.690, 774.9774
1088.172, 772.3342
1088.654, 762.8981
1089.136, 753.9006
1089.618, 755.1938
1090.100, 764.9695
1090.583, 769.8043
1091.065, 767.8749
1091.547, 768.5269
1092.029, 772.8283
1092.511, 776.7681
1092.993, 778.7570
1093.475, 780.7966
1093.957, 784.1161
1094.439, 789.8705
1094.922, 803.2872
1095.404, 823.6905
1095.886, 832.7435
1096.368, 830.6991
1096.850, 833.8150
1097.332, 845.5428
1097.814, 859.0627
1098.296, 870.3830
1098.778, 880.9371
1099.261, 890.8054
1099.743, 902.5679
1100.225, 926.8815
1100.707, 958.2370
1101.189, 977.0489
1101.671, 984.7913
1102.153, 1000.868
1102.635, 1031.883
1103.118, 1060.147
1103.600, 1064.946
1104.082, 1069.436
1104.564, 1102.971
1105.046, 1149.917
1105.528, 1193.575
1106.010, 1231.955
1106.492, 1263.026
1106.974, 1288.378
1107.457, 1317.523
1107.939, 1355.913
1108.421, 1395.557
1108.903, 1437.289
1109.385, 1472.918
1109.867, 1493.427
1110.349, 1507.660
1110.831, 1522.615
1111.313, 1540.743
1111.796, 1566.706
1112.278, 1603.410
1112.760, 1638.772
1113.242, 1670.176
1113.724, 1700.662
1114.206, 1731.539
1114.688, 1761.213
1115.170, 1790.783
1115.653, 1816.979
1116.135, 1830.987
1116.617, 1832.898
1117.099, 1854.480
1117.581, 1910.280
1118.063, 1939.635
1118.545, 1927.904
1119.027, 1920.903
1119.510, 1938.270
1119.992, 1962.022
1120.474, 1975.008
1120.956, 1978.882
1121.438, 1978.383
1121.920, 1973.484
1122.402, 1960.867
1122.884, 1941.335
1123.366, 1933.438
1123.849, 1940.608
1124.331, 1942.524
1124.813, 1926.342
1125.295, 1903.908
1125.777, 1892.866
1126.259, 1885.838
1126.741, 1865.183
1127.223, 1837.338
1127.705, 1817.173
1128.188, 1804.137
1128.670, 1790.165
1129.152, 1772.654
1129.634, 1754.739
1130.116, 1738.614
1130.598, 1722.687
1131.080, 1709.493
1131.562, 1692.404
1132.045, 1661.698
1132.527, 1624.961
1133.009, 1594.290
1133.491, 1569.348
1133.973, 1540.446
1134.455, 1502.643
1134.937, 1468.523
1135.419, 1447.293
1135.901, 1421.760
1136.384, 1380.128
1136.866, 1337.640
1137.348, 1309.155
1137.830, 1286.177
1138.312, 1251.949
1138.794, 1205.672
1139.276, 1167.177
1139.758, 1140.290
1140.240, 1109.038
1140.723, 1069.792
1141.205, 1033.695
1141.687, 1005.958
1142.169, 979.8636
1142.651, 948.4948
1143.133, 913.9489
1143.615, 883.0473
1144.097, 854.9361
1144.580, 820.7573
1145.062, 781.6583
1145.544, 751.0161
1146.026, 731.0220
1146.508, 714.6941
1146.990, 698.3633
1147.472, 681.2979
1147.954, 658.1513
1148.437, 637.9973
1148.919, 639.5432
1149.401, 649.1840
1149.883, 646.9348
1150.365, 633.6694
1150.847, 614.2497
1151.329, 591.6043
1151.811, 574.6602
1152.293, 569.9095
1152.776, 566.5638
1153.258, 559.2203
1153.740, 552.1687
1154.222, 547.1146
1154.704, 544.2743
1155.186, 547.7611
1155.668, 553.1317
1156.150, 545.2399
1156.632, 517.9730
1157.115, 501.8813
1157.597, 501.4957
1158.079, 503.5563
1158.561, 508.8432
1159.043, 510.5491
1159.525, 504.6676
1160.007, 495.2124
1160.489, 486.4514
1160.972, 478.6662
1161.454, 471.9651
1161.936, 466.5463
1162.418, 468.8144
1162.900, 478.2722
1163.382, 485.1440
1163.864, 487.0791
1164.346, 485.6438
1164.828, 481.6257
1165.311, 477.0186
1165.793, 474.2740
1166.275, 472.2972
1166.757, 468.1868
1167.239, 464.4955
1167.721, 468.0104
1168.203, 474.7944
1168.685, 472.9408
1169.167, 461.2514
1169.650, 453.4752
1170.132, 458.0696
1170.614, 461.9369
1171.096, 457.3427
1171.578, 453.3207
1172.060, 456.3661
1172.542, 460.8651
1173.024, 461.9719
1173.507, 459.8797
1173.989, 455.1656
1174.471, 447.1305
1174.953, 442.9766
1175.435, 443.7327
1175.917, 445.9394
1176.399, 450.3671
1176.881, 451.8273
1177.364, 447.5697
1177.846, 442.0214
1178.328, 439.8622
1178.810, 439.1224
1179.292, 433.4085
1179.774, 424.7483
1180.256, 423.3722
1180.738, 428.6227
1181.220, 438.8506
1181.703, 451.9018
1182.185, 459.6794
1182.667, 458.7076
1183.149, 454.0488
1183.631, 447.2207
1184.113, 442.0370
1184.595, 443.9807
1185.077, 447.3735
1185.559, 445.8033
1186.042, 442.1402
1186.524, 440.1172
1187.006, 440.8101
1187.488, 446.5737
1187.970, 460.7620
1188.452, 470.8395
1188.934, 469.4879
1189.416, 472.8397
1189.899, 491.1388
1190.381, 503.0860
1190.863, 492.5897
1191.345, 475.9984
1191.827, 476.4596
1192.309, 490.7628
1192.791, 501.9268
1193.273, 509.9520
1193.755, 516.7513
1194.238, 522.3146
1194.720, 524.3793
1195.202, 522.5152
1195.684, 518.2682
1196.166, 512.4219
1196.648, 506.3857
1197.130, 498.5667
1197.612, 494.4803
1198.094, 506.1793
1198.577, 522.6458
1199.059, 529.6365
1199.541, 528.6541
1200.023, 524.3365
1200.505, 518.3069
1200.987, 513.4817
1201.469, 511.1061
1201.951, 509.0375
1202.434, 504.4168
1202.916, 503.2168
1203.398, 512.3738
1203.880, 520.0682
1204.362, 518.6638
1204.844, 511.9528
1205.326, 505.2978
1205.808, 498.7595
1206.291, 492.0606
1206.773, 484.9038
1207.255, 483.0623
1207.737, 486.8790
1208.219, 495.4373
1208.701, 508.0114
1209.183, 515.5744
1209.665, 512.2987
1210.147, 504.5107
1210.630, 499.5882
1211.112, 495.0096
1211.594, 485.4400
1212.076, 475.2214
1212.558, 471.8461
1213.040, 472.3195
1213.522, 469.0171
1214.004, 461.4778
1214.486, 456.2443
1214.969, 456.6606
1215.451, 455.5352
1215.933, 449.5888
1216.415, 444.1367
1216.897, 442.7906
1217.379, 439.6010
1217.861, 429.3109
1218.343, 417.6336
1218.826, 412.8183
1219.308, 413.7136
1219.790, 414.8837
1220.272, 416.3152
1220.754, 410.8416
1221.236, 398.8705
1221.718, 391.8488
1222.200, 391.7740
1222.682, 391.0981
1223.165, 385.8372
1223.647, 378.3757
1224.129, 371.1222
1224.611, 362.8467
1225.093, 348.8335
1225.575, 336.1142
1226.057, 334.8774
1226.539, 339.1144
1227.021, 338.7741
1227.504, 333.7242
1227.986, 329.7740
1228.468, 328.3534
1228.950, 326.5377
1229.432, 325.1013
1229.914, 321.1409
1230.396, 312.1590
1230.878, 305.3218
1231.361, 304.8545
1231.843, 305.1277
1232.325, 299.8064
1232.807, 291.5972
1233.289, 287.9016
1233.771, 287.7992
1234.253, 287.6526
1234.735, 286.7504
1235.218, 280.8900
1235.700, 271.6749
1236.182, 268.5121
1236.664, 274.1471
1237.146, 279.0722
1237.628, 276.9437
1238.110, 273.2852
1238.592, 270.8892
1239.074, 268.8188
1239.557, 266.1997
1240.039, 263.8407
1240.521, 262.4238
1241.003, 261.9718
1241.485, 262.0051
1241.967, 262.5081
1242.449, 267.0338
1242.931, 277.9648
1243.413, 280.2048
1243.896, 271.7343
1244.378, 264.8824
1244.860, 263.2517
1245.342, 264.7122
1245.824, 268.1736
1246.306, 270.4820
1246.788, 265.8905
1247.270, 259.2869
1247.753, 257.9156
1248.235, 259.8092
##END=



