##NAMES=Amicite
##RRUFFID=R080066
##IDEAL CHEMISTRY=K_2_Na_2_(Si_4_Al_4_O_16_)&#183;5H_2_O
##LOCALITY=Kirovski Drive, Khibiny, Kola Peninsula, Russia
##OWNER=RRUFF
##SOURCE=Michael Scott
##DESCRIPTION=Colorless pseudo-octahedral crystals
##STATUS=The identification of this mineral has been confirmed by single-crystal X-ray diffraction.
##URL=rruff.info/R080066
92.52344, 327.7906
93.00555, 326.1756
93.48767, 326.5678
93.96979, 335.3763
94.45190, 344.6764
94.93402, 352.3116
95.41614, 355.1896
95.89825, 356.3146
96.38037, 359.1015
96.86249, 362.8949
97.34460, 366.0478
97.82672, 368.6188
98.30884, 371.3643
98.79095, 374.4301
99.27307, 377.3046
99.75519, 379.8392
100.2373, 383.3091
100.7194, 387.7293
101.2015, 391.5885
101.6837, 394.4168
102.1658, 396.9651
102.6479, 399.7265
103.1300, 402.6982
103.6121, 405.8323
104.0942, 409.7691
104.5764, 413.7999
105.0585, 416.5272
105.5406, 417.0554
106.0227, 415.8926
106.5048, 414.6626
106.9869, 413.9352
107.4691, 411.9419
107.9512, 407.5123
108.4333, 401.2419
108.9154, 394.6212
109.3975, 388.5268
109.8796, 382.7542
110.3618, 378.7522
110.8439, 377.6063
111.3260, 377.2354
111.8081, 376.6392
112.2902, 375.7768
112.7723, 375.3832
113.2544, 376.6109
113.7366, 381.0029
114.2187, 384.1910
114.7008, 385.5981
115.1829, 386.2147
115.6650, 386.7595
116.1471, 387.4839
116.6293, 388.4639
117.1114, 389.9387
117.5935, 391.9284
118.0756, 394.2296
118.5577, 396.5594
119.0398, 399.1393
119.5220, 402.6181
120.0041, 407.4877
120.4862, 413.3138
120.9683, 418.9865
121.4504, 424.6826
121.9325, 429.9390
122.4147, 434.5739
122.8968, 438.6331
123.3789, 441.4872
123.8610, 442.9543
124.3431, 442.8999
124.8252, 440.8654
125.3074, 436.6001
125.7895, 430.4053
126.2716, 422.6956
126.7537, 412.8036
127.2358, 402.5461
127.7179, 392.3345
128.2001, 382.2249
128.6822, 372.0242
129.1643, 361.4941
129.6464, 350.7518
130.1285, 341.8871
130.6107, 335.8521
131.0928, 330.9201
131.5749, 326.5434
132.0570, 322.9691
132.5391, 320.8604
133.0212, 320.9245
133.5034, 323.5094
133.9855, 326.2071
134.4676, 328.3857
134.9497, 331.1307
135.4318, 335.2492
135.9139, 340.7246
136.3960, 346.8017
136.8782, 352.7168
137.3603, 358.4904
137.8424, 363.8246
138.3245, 368.6613
138.8066, 373.0521
139.2887, 377.0435
139.7709, 380.6515
140.2530, 383.7532
140.7351, 385.8680
141.2172, 387.0824
141.6993, 388.5555
142.1814, 391.0869
142.6636, 394.3378
143.1457, 397.0620
143.6278, 398.7986
144.1099, 400.0798
144.5920, 401.1978
145.0741, 402.1826
145.5563, 403.5594
146.0384, 405.7850
146.5205, 408.8900
147.0026, 412.5390
147.4847, 416.9903
147.9668, 421.8065
148.4490, 426.8525
148.9311, 432.0629
149.4132, 437.4061
149.8953, 442.8095
150.3774, 448.2808
150.8595, 453.8759
151.3417, 459.3482
151.8238, 465.0190
152.3059, 471.1685
152.7880, 477.8540
153.2701, 484.9907
153.7522, 492.2702
154.2344, 499.4993
154.7165, 507.0915
155.1986, 515.9282
155.6807, 524.9250
156.1628, 532.7219
156.6449, 538.5895
157.1271, 542.8579
157.6092, 546.7366
158.0913, 550.6559
158.5734, 553.8640
159.0555, 556.4438
159.5376, 558.1900
160.0198, 558.6036
160.5019, 557.4802
160.9840, 554.5745
161.4661, 549.9225
161.9482, 543.1118
162.4303, 535.1273
162.9125, 526.3549
163.3946, 516.8221
163.8767, 507.0985
164.3588, 497.4271
164.8409, 487.8584
165.3230, 478.3608
165.8052, 468.8418
166.2873, 459.5147
166.7694, 450.5717
167.2515, 441.6990
167.7336, 434.2462
168.2157, 429.6150
168.6979, 426.4609
169.1800, 423.2225
169.6621, 419.0132
170.1442, 414.4650
170.6263, 411.4249
171.1084, 410.7431
171.5906, 410.3467
172.0727, 409.4955
172.5548, 408.4629
173.0369, 407.6255
173.5190, 407.2007
174.0011, 407.1715
174.4833, 407.4051
174.9654, 408.3530
175.4475, 409.1235
175.9296, 409.3197
176.4117, 409.2002
176.8938, 409.3052
177.3760, 410.1063
177.8581, 411.6408
178.3402, 412.3724
178.8223, 411.2173
179.3044, 410.4062
179.7865, 410.8681
180.2687, 412.4091
180.7508, 414.2865
181.2329, 415.8932
181.7150, 417.2074
182.1971, 418.5040
182.6792, 419.3339
183.1614, 420.5025
183.6435, 422.6458
184.1256, 425.7159
184.6077, 428.9840
185.0898, 431.6856
185.5719, 433.8057
186.0541, 436.8190
186.5362, 441.7658
187.0183, 447.0312
187.5004, 450.8372
187.9825, 452.9320
188.4646, 454.9628
188.9468, 458.9366
189.4289, 464.2757
189.9110, 468.6417
190.3931, 471.5168
190.8752, 473.1040
191.3573, 473.5883
191.8395, 472.7835
192.3216, 471.3964
192.8037, 470.2907
193.2858, 469.1245
193.7679, 466.9089
194.2500, 462.8612
194.7322, 457.3972
195.2143, 451.8479
195.6964, 446.6432
196.1785, 440.6460
196.6606, 433.1212
197.1427, 424.4614
197.6249, 415.5771
198.1070, 406.8941
198.5891, 398.4291
199.0712, 390.3876
199.5533, 383.1450
200.0354, 375.9296
200.5176, 368.3102
200.9997, 360.5085
201.4818, 353.0556
201.9639, 346.4676
202.4460, 340.7639
202.9281, 335.0161
203.4103, 329.0147
203.8924, 323.2049
204.3745, 317.8476
204.8566, 312.8120
205.3387, 307.8439
205.8208, 302.6484
206.3030, 297.0985
206.7851, 292.3760
207.2672, 289.3971
207.7493, 286.2925
208.2314, 282.3244
208.7135, 277.5634
209.1957, 272.4382
209.6778, 267.2308
210.1599, 261.8238
210.6420, 257.5357
211.1241, 255.1653
211.6062, 252.9929
212.0884, 250.1265
212.5705, 246.5848
213.0526, 242.8621
213.5347, 239.3162
214.0168, 235.9614
214.4989, 233.1048
214.9811, 231.0201
215.4632, 229.1631
215.9453, 227.1106
216.4274, 224.8621
216.9095, 222.8218
217.3916, 221.4055
217.8737, 220.6330
218.3559, 219.6916
218.8380, 218.2905
219.3201, 216.8882
219.8022, 215.9267
220.2843, 215.4392
220.7664, 215.0528
221.2486, 214.4925
221.7307, 213.7841
222.2128, 213.0685
222.6949, 212.5563
223.1770, 211.9440
223.6591, 210.6564
224.1413, 208.5344
224.6234, 206.7481
225.1055, 206.8217
225.5876, 207.8004
226.0697, 207.8948
226.5518, 206.0859
227.0340, 203.4266
227.5161, 201.5878
227.9982, 200.8675
228.4803, 199.9200
228.9624, 197.9005
229.4445, 195.2099
229.9267, 192.2297
230.4088, 189.0162
230.8909, 185.6808
231.3730, 182.4756
231.8551, 179.4534
232.3372, 176.4454
232.8194, 173.2516
233.3015, 170.0456
233.7836, 167.0489
234.2657, 164.4071
234.7478, 161.9410
235.2299, 159.2016
235.7121, 155.9268
236.1942, 152.8939
236.6763, 150.2511
237.1584, 147.9497
237.6405, 146.0105
238.1227, 144.4802
238.6048, 143.1408
239.0869, 141.3884
239.5690, 138.7835
240.0511, 136.5375
240.5332, 134.9954
241.0154, 133.8108
241.4975, 132.6915
241.9796, 131.5134
242.4617, 130.2977
242.9438, 129.0810
243.4259, 127.6042
243.9081, 126.5752
244.3902, 126.2439
244.8723, 126.2588
245.3544, 126.3741
245.8365, 126.4830
246.3186, 126.4967
246.8008, 126.2006
247.2829, 125.3541
247.7650, 124.5170
248.2471, 123.3857
248.7292, 122.4348
249.2113, 122.1702
249.6935, 122.7466
250.1756, 123.8409
250.6577, 124.8551
251.1398, 126.1571
251.6219, 126.7514
252.1040, 126.0528
252.5862, 124.9894
253.0683, 124.3584
253.5504, 124.3973
254.0325, 124.8450
254.5146, 125.2894
254.9967, 125.7257
255.4789, 126.1654
255.9610, 126.6780
256.4431, 127.1542
256.9252, 127.4595
257.4073, 127.5732
257.8894, 127.6410
258.3716, 127.8464
258.8537, 128.2059
259.3358, 128.7271
259.8179, 129.4796
260.3000, 130.3542
260.7821, 131.3992
261.2643, 132.5925
261.7464, 133.5508
262.2285, 133.7441
262.7106, 132.9037
263.1927, 132.6871
263.6748, 133.6526
264.1570, 134.9106
264.6391, 135.6883
265.1212, 135.9134
265.6033, 136.0383
266.0854, 136.5219
266.5675, 137.3760
267.0497, 137.9121
267.5318, 137.6931
268.0139, 137.4412
268.4960, 137.8352
268.9781, 138.8814
269.4602, 139.9643
269.9424, 140.6927
270.4245, 141.0321
270.9066, 141.0906
271.3887, 140.7919
271.8708, 140.2707
272.3529, 139.5658
272.8351, 138.6925
273.3172, 137.8197
273.7993, 137.1211
274.2814, 136.4640
274.7635, 135.4698
275.2456, 133.8922
275.7278, 132.2507
276.2099, 130.9841
276.6920, 130.0368
277.1741, 128.9144
277.6562, 127.2193
278.1383, 125.3255
278.6205, 124.0593
279.1026, 123.7469
279.5847, 123.3306
280.0668, 121.8623
280.5489, 119.5439
281.0310, 117.6593
281.5132, 116.8792
281.9953, 116.5265
282.4774, 115.6647
282.9595, 114.2636
283.4416, 112.5687
283.9237, 110.4743
284.4059, 108.1376
284.8880, 106.2168
285.3701, 104.9536
285.8522, 104.0845
286.3343, 103.3027
286.8164, 102.6062
287.2986, 102.0443
287.7807, 101.8678
288.2628, 101.8749
288.7449, 101.3429
289.2270, 99.94498
289.7091, 98.39882
290.1913, 97.22443
290.6734, 96.37651
291.1555, 95.70937
291.6376, 95.33027
292.1197, 95.07449
292.6018, 94.44591
293.0840, 93.19888
293.5661, 92.12839
294.0482, 91.91946
294.5303, 92.23265
295.0124, 92.48678
295.4945, 92.52916
295.9767, 92.34412
296.4588, 91.84438
296.9409, 90.94372
297.4230, 90.02192
297.9051, 89.27126
298.3872, 88.60824
298.8694, 87.92727
299.3515, 87.16118
299.8336, 86.42995
300.3157, 85.84919
300.7978, 85.39940
301.2799, 85.20719
301.7621, 85.56525
302.2442, 86.08631
302.7263, 86.42776
303.2084, 86.51217
303.6905, 86.51514
304.1726, 86.66886
304.6548, 86.98731
305.1369, 87.09566
305.6190, 86.73499
306.1011, 86.25859
306.5832, 85.92665
307.0653, 85.75655
307.5475, 85.65044
308.0296, 85.47829
308.5117, 85.26183
308.9938, 85.27874
309.4759, 85.68044
309.9580, 86.20393
310.4402, 86.73190
310.9223, 87.23622
311.4044, 87.62643
311.8865, 87.78647
312.3686, 87.76891
312.8507, 87.81821
313.3329, 87.99532
313.8150, 88.13618
314.2971, 88.10521
314.7792, 87.98471
315.2613, 87.93999
315.7434, 88.12653
316.2256, 88.38168
316.7077, 88.29813
317.1898, 87.72087
317.6719, 87.23411
318.1540, 87.21006
318.6361, 87.36644
319.1183, 87.38152
319.6004, 87.11620
320.0825, 86.80385
320.5646, 86.74124
321.0467, 86.94052
321.5288, 87.31779
322.0110, 88.09834
322.4931, 88.89564
322.9752, 89.37233
323.4573, 89.46956
323.9394, 89.45710
324.4215, 89.57993
324.9037, 89.83410
325.3858, 90.05869
325.8679, 90.20272
326.3500, 90.33186
326.8321, 90.52305
327.3142, 90.75930
327.7964, 90.93141
328.2785, 90.92429
328.7606, 90.77904
329.2427, 90.73766
329.7248, 90.98215
330.2069, 91.02481
330.6891, 90.46505
331.1712, 89.51494
331.6533, 88.60984
332.1354, 87.95494
332.6175, 87.46278
333.0996, 86.96990
333.5818, 86.47835
334.0639, 85.97108
334.5460, 85.31943
335.0281, 84.68954
335.5102, 84.30245
335.9923, 84.25591
336.4745, 84.36614
336.9566, 84.47292
337.4387, 84.58309
337.9208, 84.55640
338.4029, 84.20241
338.8850, 83.79275
339.3671, 83.62500
339.8492, 83.73777
340.3314, 83.85683
340.8135, 83.75024
341.2956, 83.45551
341.7777, 83.19922
342.2598, 82.97747
342.7419, 82.87590
343.2241, 83.08004
343.7062, 83.50920
344.1883, 83.73311
344.6704, 83.37910
345.1525, 82.70450
345.6346, 82.24471
346.1168, 82.02847
346.5989, 82.02238
347.0810, 82.41001
347.5631, 82.97851
348.0452, 83.34055
348.5273, 83.25719
349.0095, 83.05267
349.4916, 83.04375
349.9737, 83.23013
350.4558, 83.65263
350.9379, 84.55827
351.4200, 85.57521
351.9022, 86.08900
352.3843, 85.93143
352.8664, 85.65725
353.3485, 85.54094
353.8306, 85.58990
354.3127, 85.85444
354.7949, 86.40085
355.2770, 87.08794
355.7591, 87.78076
356.2412, 88.48146
356.7233, 89.09663
357.2054, 89.53805
357.6876, 89.89030
358.1697, 90.25822
358.6518, 90.64380
359.1339, 91.13034
359.6160, 91.86047
360.0981, 92.78037
360.5803, 93.56942
361.0624, 94.07893
361.5445, 94.52501
362.0266, 95.05918
362.5087, 95.68276
362.9908, 96.38476
363.4730, 97.21685
363.9551, 98.08537
364.4372, 98.71976
364.9193, 98.97836
365.4014, 99.25652
365.8835, 99.55626
366.3657, 100.0019
366.8478, 100.9321
367.3299, 102.5165
367.8120, 104.3669
368.2941, 105.8545
368.7762, 106.8622
369.2584, 108.0449
369.7405, 109.7752
370.2226, 111.5490
370.7047, 112.7292
371.1868, 113.2884
371.6689, 113.8935
372.1511, 115.1937
372.6332, 117.2330
373.1153, 118.9751
373.5974, 120.5712
374.0795, 121.7781
374.5616, 122.3582
375.0438, 122.4521
375.5259, 122.3786
376.0080, 122.2851
376.4901, 122.2078
376.9722, 122.2826
377.4543, 123.1438
377.9365, 123.3429
378.4186, 122.2272
378.9007, 120.6020
379.3828, 119.3518
379.8649, 118.7192
380.3470, 118.3509
380.8292, 117.7116
381.3113, 116.4836
381.7934, 115.9954
382.2755, 116.7069
382.7576, 117.6527
383.2397, 118.2616
383.7219, 118.5889
384.2040, 119.0070
384.6861, 119.8102
385.1682, 120.9795
385.6503, 122.1943
386.1324, 123.6222
386.6146, 124.9030
387.0967, 125.8506
387.5788, 126.6470
388.0609, 127.5252
388.5430, 128.5814
389.0251, 129.7483
389.5073, 130.9514
389.9894, 132.4482
390.4715, 133.4049
390.9536, 133.5183
391.4357, 133.3642
391.9178, 133.2602
392.4000, 133.2569
392.8821, 133.2610
393.3642, 133.1632
393.8463, 132.9568
394.3284, 132.8588
394.8105, 132.9633
395.2927, 133.0720
395.7748, 133.1513
396.2569, 133.1830
396.7390, 133.0885
397.2211, 132.7540
397.7032, 132.4335
398.1854, 132.7648
398.6675, 133.9674
399.1496, 135.1637
399.6317, 135.8913
400.1138, 136.6600
400.5959, 137.9568
401.0781, 139.8501
401.5602, 141.8109
402.0423, 143.2381
402.5244, 144.1994
403.0065, 145.4860
403.4886, 147.2119
403.9708, 149.2613
404.4529, 151.5945
404.9350, 154.1492
405.4171, 156.7840
405.8992, 159.4112
406.3813, 162.0836
406.8635, 164.9994
407.3456, 168.2123
407.8277, 171.1936
408.3098, 173.5100
408.7919, 175.5444
409.2740, 178.0264
409.7562, 181.2921
410.2383, 184.2466
410.7204, 186.4373
411.2025, 187.8220
411.6846, 188.2835
412.1667, 187.7528
412.6489, 186.4102
413.1310, 184.3841
413.6131, 181.7113
414.0952, 178.4145
414.5773, 174.1039
415.0594, 169.4311
415.5416, 165.0027
416.0237, 160.8314
416.5058, 156.6455
416.9879, 152.2765
417.4700, 147.7438
417.9521, 143.1463
418.4343, 137.5360
418.9164, 132.9821
419.3985, 130.6655
419.8806, 129.5589
420.3627, 128.2106
420.8448, 126.1479
421.3270, 123.7574
421.8091, 121.5653
422.2912, 119.5084
422.7733, 117.9476
423.2554, 117.2698
423.7375, 116.7134
424.2197, 115.7002
424.7018, 114.3814
425.1839, 113.3598
425.6660, 113.0938
426.1481, 113.4749
426.6302, 113.7604
427.1124, 113.7236
427.5945, 113.8750
428.0766, 114.2610
428.5587, 114.8662
429.0408, 115.7004
429.5229, 116.7571
430.0051, 117.9735
430.4872, 119.2530
430.9693, 120.5601
431.4514, 122.0530
431.9335, 123.9054
432.4156, 125.8152
432.8978, 127.6069
433.3799, 129.3590
433.8620, 131.2839
434.3441, 133.4506
434.8262, 135.9136
435.3083, 138.9874
435.7905, 143.0440
436.2726, 146.6457
436.7547, 148.3355
437.2368, 149.8576
437.7189, 152.9279
438.2010, 157.9348
438.6832, 163.4336
439.1653, 168.1454
439.6474, 172.2465
440.1295, 176.7902
440.6116, 182.0334
441.0938, 187.5358
441.5759, 192.7201
442.0580, 197.7809
442.5401, 203.4549
443.0222, 210.0755
443.5043, 217.2838
443.9865, 224.8814
444.4686, 232.8134
444.9507, 240.8834
445.4328, 248.9814
445.9149, 257.1876
446.3970, 265.6352
446.8792, 274.2722
447.3613, 283.1593
447.8434, 292.2145
448.3255, 301.5799
448.8076, 311.6188
449.2897, 322.3840
449.7719, 333.1702
450.2540, 343.2835
450.7361, 352.7169
451.2182, 362.3604
451.7003, 371.7366
452.1824, 381.7932
452.6646, 393.2531
453.1467, 405.5966
453.6288, 417.8510
454.1109, 429.6225
454.5930, 441.1861
455.0751, 453.2177
455.5573, 465.9891
456.0394, 478.7115
456.5215, 490.7126
457.0036, 503.2198
457.4857, 517.5039
457.9678, 533.0867
458.4500, 548.4286
458.9321, 562.2790
459.4142, 574.9077
459.8963, 588.1545
460.3784, 602.7172
460.8605, 616.5748
461.3427, 629.6409
461.8248, 641.7411
462.3069, 652.7624
462.7890, 662.6769
463.2711, 671.5085
463.7532, 679.6680
464.2354, 687.0714
464.7175, 691.7934
465.1996, 693.6506
465.6817, 692.5735
466.1638, 688.5255
466.6459, 681.7815
467.1281, 672.6882
467.6102, 661.1854
468.0923, 647.5592
468.5744, 631.8650
469.0565, 614.0980
469.5386, 595.4400
470.0208, 576.2090
470.5029, 556.4636
470.9850, 536.2136
471.4671, 515.1102
471.9492, 495.0047
472.4313, 476.2471
472.9135, 458.6843
473.3956, 442.2559
473.8777, 426.9242
474.3598, 412.2980
474.8419, 398.1650
475.3240, 384.5186
475.8062, 371.6224
476.2883, 359.8138
476.7704, 348.1715
477.2525, 336.6433
477.7346, 325.1485
478.2167, 313.5870
478.6989, 301.9084
479.1810, 290.4397
479.6631, 279.4690
480.1452, 269.1732
480.6273, 258.8080
481.1094, 247.9593
481.5916, 237.5162
482.0737, 227.5640
482.5558, 218.2679
483.0379, 209.9420
483.5200, 202.7682
484.0021, 196.2538
484.4843, 189.3644
484.9664, 181.8719
485.4485, 174.9203
485.9306, 168.7674
486.4127, 163.2375
486.8948, 158.2250
487.3770, 153.7131
487.8591, 149.7498
488.3412, 146.8079
488.8233, 144.3093
489.3054, 140.9645
489.7875, 136.6729
490.2697, 132.6348
490.7518, 129.4705
491.2339, 126.9977
491.7160, 124.6163
492.1981, 122.1589
492.6802, 120.3158
493.1624, 120.0084
493.6445, 120.2817
494.1266, 119.5070
494.6087, 117.4337
495.0908, 115.3605
495.5729, 114.4743
496.0551, 114.7657
496.5372, 114.7445
497.0193, 114.2827
497.5014, 113.7116
497.9835, 112.9814
498.4656, 112.2538
498.9478, 111.7501
499.4299, 111.5399
499.9120, 111.5124
500.3941, 111.4989
500.8762, 111.4520
501.3583, 111.6116
501.8405, 112.2409
502.3226, 112.8082
502.8047, 113.0677
503.2868, 113.1357
503.7689, 113.2036
504.2510, 113.3444
504.7331, 113.6236
505.2152, 114.2943
505.6974, 115.4923
506.1795, 116.2363
506.6616, 116.0142
507.1437, 115.5557
507.6258, 115.3562
508.1079, 115.4030
508.5901, 115.5502
509.0722, 115.7977
509.5543, 116.0699
510.0364, 116.3583
510.5185, 116.6555
511.0006, 116.5627
511.4828, 115.7604
511.9649, 114.5681
512.4470, 113.7270
512.9291, 113.4271
513.4113, 112.7837
513.8934, 111.4808
514.3755, 109.7838
514.8576, 107.8966
515.3397, 105.8695
515.8218, 103.8299
516.3040, 101.8922
516.7861, 99.99863
517.2682, 97.76380
517.7503, 94.58589
518.2324, 91.82689
518.7145, 89.74083
519.1967, 88.02749
519.6788, 86.44682
520.1609, 84.92733
520.6430, 83.45763
521.1251, 82.00372
521.6072, 80.56351
522.0894, 79.34892
522.5715, 78.44386
523.0536, 77.63673
523.5357, 76.92368
524.0178, 76.22330
524.4999, 75.41982
524.9821, 74.47269
525.4642, 73.52853
525.9463, 72.65363
526.4284, 71.88017
526.9105, 71.39713
527.3926, 71.34359
527.8748, 71.24916
528.3569, 70.61121
528.8390, 69.62061
529.3211, 68.93404
529.8032, 68.71122
530.2853, 68.69926
530.7675, 69.13541
531.2496, 69.62395
531.7317, 69.14223
532.2138, 67.37478
532.6959, 65.49163
533.1780, 65.02847
533.6602, 66.33208
534.1423, 66.89179
534.6244, 66.25788
535.1065, 65.50060
535.5886, 64.95190
536.0707, 64.56361
536.5529, 64.20418
537.0350, 63.82520
537.5171, 63.50305
537.9992, 63.41444
538.4813, 63.63941
538.9634, 63.67813
539.4456, 63.28585
539.9277, 62.95269
540.4098, 63.06134
540.8919, 63.37194
541.3740, 63.35009
541.8561, 62.64069
542.3383, 61.83076
542.8204, 61.71888
543.3025, 62.22953
543.7846, 62.66608
544.2667, 62.91488
544.7488, 62.92774
545.2310, 62.49584
545.7131, 61.68198
546.1952, 61.09287
546.6773, 60.99497
547.1594, 60.98791
547.6415, 60.77191
548.1237, 60.43898
548.6058, 60.25342
549.0879, 60.32676
549.5700, 60.51451
550.0521, 60.58845
550.5342, 60.54827
551.0164, 60.38321
551.4985, 59.85484
551.9806, 59.46427
552.4627, 59.60873
552.9448, 60.02012
553.4269, 60.12541
553.9091, 59.62944
554.3912, 58.95282
554.8733, 58.93715
555.3554, 59.73202
555.8375, 60.13574
556.3196, 59.70200
556.8018, 59.17589
557.2839, 59.12249
557.7660, 59.36617
558.2481, 59.39680
558.7302, 58.89375
559.2123, 58.27042
559.6945, 57.86607
560.1766, 57.68715
560.6587, 57.86654
561.1408, 58.55430
561.6229, 59.23958
562.1050, 59.22280
562.5872, 58.35860
563.0693, 57.78208
563.5514, 57.66040
564.0335, 57.67487
564.5156, 57.70868
564.9977, 57.75471
565.4799, 57.79004
565.9620, 57.80928
566.4441, 57.91251
566.9262, 58.34253
567.4083, 59.31100
567.8904, 59.74176
568.3726, 59.03617
568.8547, 58.39226
569.3368, 58.34558
569.8189, 58.59980
570.3010, 58.62719
570.7831, 58.20625
571.2653, 57.65042
571.7474, 57.26894
572.2295, 57.06319
572.7116, 57.10217
573.1937, 57.53682
573.6758, 57.86342
574.1580, 57.47148
574.6401, 56.58752
575.1222, 56.10511
575.6043, 56.29957
576.0864, 56.69355
576.5685, 57.27709
577.0507, 57.84099
577.5328, 57.95464
578.0149, 57.53304
578.4970, 56.99262
578.9791, 56.80420
579.4612, 56.99261
579.9434, 56.90850
580.4255, 56.06225
580.9076, 55.52143
581.3897, 55.72897
581.8718, 56.20838
582.3539, 56.43861
582.8361, 56.30516
583.3182, 56.05266
583.8003, 55.93666
584.2824, 55.92627
584.7645, 55.77399
585.2466, 55.42001
585.7288, 55.09100
586.2108, 54.94221
586.6929, 54.86333
587.1750, 54.62111
587.6572, 54.08352
588.1393, 53.89316
588.6214, 54.84302
589.1035, 56.05452
589.5856, 56.13576
590.0677, 55.09417
590.5499, 54.24248
591.0320, 54.49523
591.5141, 55.48383
591.9962, 55.83220
592.4783, 54.59658
592.9604, 54.04957
593.4426, 54.91871
593.9247, 55.89532
594.4068, 55.99695
594.8889, 55.35124
595.3710, 54.67593
595.8531, 54.41046
596.3353, 54.46016
596.8174, 54.68517
597.2995, 55.15651
597.7816, 55.36609
598.2637, 54.98513
598.7458, 54.53820
599.2280, 54.41592
599.7101, 54.60311
600.1922, 55.01841
600.6743, 55.98463
601.1564, 56.86752
601.6385, 57.05567
602.1207, 56.71899
602.6028, 56.34782
603.0849, 56.10146
603.5670, 55.91504
604.0491, 55.69137
604.5313, 55.39420
605.0134, 55.29347
605.4955, 55.43017
605.9776, 55.68695
606.4597, 56.23371
606.9418, 56.79071
607.4240, 56.94488
607.9061, 56.60292
608.3882, 56.12442
608.8703, 55.91343
609.3524, 55.95001
609.8345, 55.90670
610.3167, 55.62267
610.7988, 55.66033
611.2809, 56.69869
611.7630, 58.04424
612.2451, 58.67875
612.7272, 58.35936
613.2094, 58.08884
613.6915, 58.37509
614.1736, 58.93204
614.6557, 59.47747
615.1378, 59.96072
615.6199, 60.28395
616.1021, 60.37587
616.5842, 60.29617
617.0663, 60.21086
617.5484, 60.10532
618.0305, 60.01741
618.5126, 59.86727
618.9948, 59.80559
619.4769, 59.93847
619.9590, 60.22867
620.4411, 60.57103
620.9232, 60.90900
621.4053, 61.29692
621.8875, 61.90283
622.3696, 62.71856
622.8517, 63.29091
623.3338, 63.50938
623.8159, 63.53323
624.2980, 63.41597
624.7802, 63.20168
625.2623, 63.02722
625.7444, 62.75264
626.2265, 62.72096
626.7086, 63.41672
627.1907, 64.31391
627.6729, 64.55244
628.1550, 64.03655
628.6371, 63.42848
629.1192, 63.29845
629.6013, 63.60476
630.0834, 64.04475
630.5656, 64.98778
631.0477, 65.43178
631.5298, 64.91726
632.0119, 64.16148
632.4940, 63.64807
632.9761, 63.40667
633.4583, 63.24665
633.9404, 63.04244
634.4225, 62.86520
634.9046, 62.91883
635.3867, 63.17139
635.8688, 63.18170
636.3510, 62.77050
636.8331, 62.16114
637.3152, 61.53251
637.7973, 60.86052
638.2794, 60.59469
638.7615, 61.22294
639.2437, 61.71952
639.7258, 61.55719
640.2079, 61.04575
640.6900, 60.57990
641.1721, 60.28501
641.6542, 60.15376
642.1364, 60.20551
642.6185, 60.42490
643.1006, 60.66033
643.5827, 61.07587
644.0648, 61.13784
644.5469, 60.20026
645.0291, 59.10710
645.5112, 58.61275
645.9933, 58.77175
646.4754, 59.15961
646.9575, 59.90862
647.4396, 60.56267
647.9218, 60.44961
648.4039, 59.74944
648.8860, 59.31743
649.3681, 59.52622
649.8502, 59.90438
650.3323, 59.67149
650.8145, 58.55736
651.2966, 58.08258
651.7787, 58.52542
652.2608, 59.25591
652.7429, 60.54740
653.2250, 61.80970
653.7072, 62.14875
654.1893, 61.39145
654.6714, 60.55839
655.1535, 60.76811
655.6356, 61.66937
656.1177, 62.02411
656.5999, 61.73829
657.0820, 61.41034
657.5641, 61.30152
658.0462, 61.32282
658.5283, 61.31682
659.0104, 61.28032
659.4926, 61.24178
659.9747, 61.19802
660.4568, 61.16014
660.9389, 61.08995
661.4210, 61.03920
661.9031, 61.10961
662.3853, 61.34035
662.8674, 61.67965
663.3495, 62.16444
663.8316, 62.83693
664.3137, 62.90052
664.7958, 61.91425
665.2780, 61.12145
665.7601, 61.27105
666.2422, 61.81664
666.7243, 62.19799
667.2064, 62.35996
667.6885, 62.29199
668.1707, 61.80577
668.6528, 61.20895
669.1349, 60.83776
669.6170, 60.68626
670.0991, 60.62499
670.5812, 60.59423
671.0634, 60.62922
671.5455, 60.82082
672.0276, 61.26707
672.5097, 61.49231
672.9918, 61.21629
673.4739, 61.02413
673.9561, 61.21120
674.4382, 61.52946
674.9203, 61.59393
675.4024, 61.31033
675.8845, 61.09878
676.3666, 61.46452
676.8488, 62.09839
677.3309, 62.29850
677.8130, 62.03695
678.2951, 61.66908
678.7772, 61.31794
679.2593, 61.03423
679.7415, 60.93481
680.2236, 61.14861
680.7057, 61.13740
681.1878, 60.60987
681.6699, 60.17364
682.1520, 60.13548
682.6342, 60.35258
683.1163, 60.61724
683.5984, 60.85981
684.0805, 61.07536
684.5626, 61.27542
685.0447, 61.44912
685.5269, 61.47432
686.0090, 61.28106
686.4911, 61.35299
686.9732, 62.12188
687.4553, 63.06840
687.9374, 63.28126
688.4196, 62.69389
688.9017, 62.19245
689.3838, 61.78859
689.8659, 61.62909
690.3480, 61.92047
690.8301, 62.48228
691.3123, 63.01331
691.7944, 63.41724
692.2765, 63.81377
692.7586, 64.41070
693.2407, 65.16956
693.7228, 65.44798
694.2050, 64.96885
694.6871, 64.77198
695.1692, 65.48028
695.6513, 66.45236
696.1334, 66.93481
696.6155, 66.92587
697.0977, 67.11604
697.5798, 67.66692
698.0619, 68.53029
698.5440, 70.02360
699.0261, 71.73082
699.5082, 72.70007
699.9904, 72.70306
700.4725, 72.48156
700.9546, 72.83235
701.4367, 73.71899
701.9188, 74.61597
702.4009, 75.53859
702.8831, 76.43791
703.3652, 77.37727
703.8473, 78.23526
704.3294, 78.99098
704.8115, 79.60524
705.2936, 79.88652
705.7758, 79.49776
706.2579, 78.99966
706.7400, 78.84572
707.2221, 78.93411
707.7042, 79.06798
708.1863, 79.19363
708.6685, 79.28751
709.1506, 79.34676
709.6327, 79.34811
710.1148, 79.10484
710.5969, 78.52789
711.0790, 77.86497
711.5612, 77.00241
712.0433, 76.19305
712.5254, 75.62765
713.0075, 75.26017
713.4896, 74.93790
713.9717, 74.65538
714.4539, 74.29887
714.9360, 73.52182
715.4181, 72.64029
715.9002, 72.54881
716.3823, 73.34091
716.8644, 74.07260
717.3466, 74.03991
717.8287, 73.44123
718.3108, 72.98426
718.7929, 72.54119
719.2750, 72.49935
719.7571, 73.49532
720.2393, 74.24421
720.7214, 73.85990
721.2035, 72.81628
721.6856, 72.07283
722.1677, 71.98130
722.6498, 72.02897
723.1320, 71.65538
723.6141, 71.15553
724.0962, 71.25843
724.5783, 71.96760
725.0604, 72.53365
725.5425, 72.52482
726.0247, 72.22121
726.5068, 72.21319
726.9889, 72.67114
727.4710, 72.90466
727.9531, 72.78142
728.4352, 72.58985
728.9174, 72.52374
729.3995, 72.39588
729.8816, 71.87409
730.3637, 70.90540
730.8458, 70.00890
731.3279, 69.64445
731.8101, 69.52898
732.2922, 69.29878
732.7743, 68.91763
733.2564, 68.19606
733.7385, 67.03471
734.2206, 65.70755
734.7028, 64.52638
735.1849, 63.48180
735.6670, 62.72800
736.1491, 62.56168
736.6312, 62.31244
737.1133, 61.84360
737.5955, 61.26726
738.0776, 60.64542
738.5597, 60.00422
739.0418, 59.41575
739.5239, 58.95508
740.0060, 58.50761
740.4882, 57.93611
740.9703, 57.26548
741.4524, 56.49392
741.9345, 55.62469
742.4166, 55.02434
742.8987, 55.06826
743.3809, 55.58299
743.8630, 55.69670
744.3451, 55.20348
744.8272, 54.67629
745.3093, 54.05980
745.7914, 53.50537
746.2736, 53.10447
746.7557, 52.82538
747.2378, 52.58043
747.7199, 52.33086
748.2020, 52.16768
748.6841, 52.26759
749.1663, 52.45319
749.6484, 52.38696
750.1305, 52.07679
750.6126, 51.75475
751.0947, 51.53186
751.5768, 51.41261
752.0590, 51.43749
752.5411, 51.68782
753.0232, 51.70064
753.5053, 51.49266
753.9874, 51.00904
754.4695, 49.74256
754.9517, 48.50398
755.4338, 48.39492
755.9159, 49.47313
756.3980, 50.24880
756.8801, 49.52392
757.3622, 48.60564
757.8444, 48.92829
758.3265, 50.03459
758.8086, 50.86655
759.2907, 51.12606
759.7728, 50.94550
760.2549, 50.37848
760.7371, 49.52520
761.2192, 49.03735
761.7013, 49.02750
762.1834, 49.07842
762.6655, 49.13197
763.1476, 49.21855
763.6298, 49.45998
764.1119, 49.74764
764.5940, 49.74587
765.0761, 49.16475
765.5582, 48.74195
766.0403, 49.06058
766.5225, 49.57409
767.0046, 49.73983
767.4867, 49.51186
767.9688, 48.87233
768.4509, 47.78966
768.9330, 46.80140
769.4152, 47.01458
769.8973, 48.49911
770.3794, 49.23977
770.8615, 48.91648
771.3436, 48.63168
771.8257, 49.06798
772.3079, 49.65129
772.7900, 49.45558
773.2721, 48.41376
773.7542, 47.54367
774.2363, 46.83253
774.7184, 46.51630
775.2006, 47.06323
775.6827, 47.90330
776.1648, 48.29194
776.6469, 48.11685
777.1290, 47.73400
777.6111, 47.39469
778.0933, 47.06657
778.5754, 46.52236
779.0575, 45.78898
779.5396, 45.82053
780.0217, 47.02746
780.5038, 48.17189
780.9860, 48.16859
781.4681, 47.34701
781.9502, 47.16684
782.4323, 48.35383
782.9144, 48.96498
783.3965, 48.28813
783.8787, 47.64022
784.3608, 48.08916
784.8429, 49.00383
785.3250, 49.09291
785.8071, 47.94506
786.2892, 46.69072
786.7714, 46.24889
787.2535, 46.37035
787.7356, 46.73515
788.2177, 47.27254
788.6998, 47.63564
789.1819, 47.69666
789.6641, 47.54733
790.1462, 47.26613
790.6283, 46.85430
791.1104, 46.58974
791.5925, 46.51775
792.0746, 46.52135
792.5568, 46.69051
793.0389, 46.83128
793.5210, 46.69230
794.0031, 46.39878
794.4852, 46.40281
794.9673, 47.01316
795.4495, 47.60083
795.9316, 47.70998
796.4137, 47.60432
796.8958, 47.62421
797.3779, 47.77425
797.8600, 47.89830
798.3422, 47.91573
798.8243, 47.86401
799.3064, 47.83661
799.7885, 47.84101
800.2706, 47.55827
800.7527, 46.80779
801.2349, 46.34122
801.7170, 46.63388
802.1991, 47.19941
802.6812, 47.33877
803.1633, 47.05220
803.6454, 46.88407
804.1276, 47.06625
804.6097, 47.15282
805.0918, 46.73130
805.5739, 46.30186
806.0560, 46.52325
806.5381, 47.29167
807.0203, 47.90016
807.5024, 47.89439
807.9845, 48.33018
808.4666, 47.88433
808.9487, 48.36484
809.4308, 48.40622
809.9130, 47.91900
810.3951, 47.45374
810.8772, 47.33549
811.3593, 47.40257
811.8414, 47.30009
812.3235, 46.89722
812.8057, 46.82016
813.2878, 47.46553
813.7699, 47.94198
814.2520, 47.88448
814.7341, 47.63202
815.2162, 47.53938
815.6984, 47.62098
816.1805, 47.64137
816.6626, 47.29432
817.1447, 47.06971
817.6268, 47.51274
818.1089, 48.23632
818.5911, 48.67339
819.0732, 48.73174
819.5553, 48.50401
820.0374, 48.01853
820.5195, 47.45043
821.0016, 47.11268
821.4838, 47.00242
821.9659, 47.29549
822.4480, 48.14473
822.9301, 48.93507
823.4122, 49.35682
823.8943, 49.53865
824.3765, 49.74194
824.8586, 50.03951
825.3407, 49.96513
825.8228, 49.09860
826.3049, 48.34893
826.7870, 48.04407
827.2692, 47.99536
827.7513, 48.02935
828.2334, 48.11103
828.7155, 48.25895
829.1976, 48.52205
829.6797, 48.78334
830.1619, 48.97157
830.6440, 49.04295
831.1261, 48.80747
831.6082, 48.28621
832.0903, 47.79993
832.5724, 47.50541
833.0546, 47.51029
833.5367, 48.15960
834.0188, 49.64933
834.5009, 50.38753
834.9830, 50.09373
835.4651, 49.59960
835.9473, 48.94198
836.4294, 48.43281
836.9115, 48.47811
837.3936, 49.05050
837.8757, 49.56365
838.3578, 49.87569
838.8400, 50.17852
839.3221, 50.71247
839.8042, 51.15144
840.2863, 51.08558
840.7684, 50.61502
841.2505, 50.10706
841.7327, 49.70864
842.2148, 49.55010
842.6969, 50.09581
843.1790, 50.95510
843.6611, 50.80169
844.1432, 49.65227
844.6254, 48.90944
845.1075, 49.21716
845.5896, 49.81663
846.0717, 49.66234
846.5538, 48.75069
847.0359, 48.12417
847.5181, 47.79168
848.0002, 47.74066
848.4823, 48.21558
848.9644, 48.74368
849.4465, 49.01659
849.9286, 49.08101
850.4108, 49.09198
850.8929, 49.07362
851.3750, 49.00507
851.8571, 48.73110
852.3392, 48.53426
852.8214, 48.87128
853.3035, 49.41029
853.7856, 49.31467
854.2677, 48.38769
854.7498, 47.59172
855.2319, 48.03016
855.7141, 49.15400
856.1962, 49.81007
856.6783, 50.00853
857.1604, 49.74371
857.6425, 48.98562
858.1246, 48.15852
858.6068, 47.56930
859.0889, 47.25008
859.5710, 47.38371
860.0531, 48.29284
860.5352, 48.79809
861.0173, 48.68848
861.4995, 48.38965
861.9816, 47.99762
862.4637, 47.57838
862.9458, 47.19112
863.4279, 46.83604
863.9100, 46.61843
864.3922, 46.66387
864.8743, 46.73891
865.3564, 46.67632
865.8385, 46.60119
866.3206, 46.81266
866.8027, 47.19824
867.2849, 47.16185
867.7670, 46.25417
868.2491, 45.21997
868.7312, 45.14853
869.2133, 45.71155
869.6954, 45.99729
870.1776, 45.93816
870.6597, 45.68022
871.1418, 45.25682
871.6239, 44.93722
872.1060, 45.16755
872.5881, 45.94068
873.0703, 46.24605
873.5524, 45.94593
874.0345, 45.51643
874.5166, 44.89998
874.9987, 44.36451
875.4808, 44.19720
875.9630, 44.28067
876.4451, 44.27206
876.9272, 44.11359
877.4093, 43.94405
877.8914, 43.63481
878.3735, 43.48100
878.8557, 43.91095
879.3378, 44.50896
879.8199, 44.55420
880.3020, 43.94024
880.7841, 43.32568
881.2662, 43.19576
881.7484, 43.26426
882.2305, 43.16902
882.7126, 42.99458
883.1947, 42.95670
883.6768, 43.07739
884.1589, 43.26092
884.6411, 43.46718
885.1232, 43.55907
885.6053, 43.13380
886.0874, 42.16563
886.5695, 41.71278
887.0516, 41.88214
887.5338, 42.25770
888.0159, 42.79554
888.4980, 43.28691
888.9801, 43.46771
889.4622, 43.33848
889.9443, 43.17738
890.4265, 43.12292
890.9086, 42.83804
891.3907, 41.79199
891.8728, 40.99193
892.3549, 41.27863
892.8370, 42.20349
893.3192, 42.87626
893.8013, 43.09684
894.2834, 43.13664
894.7655, 43.23261
895.2476, 43.10360
895.7297, 42.18311
896.2119, 41.00443
896.6940, 40.57844
897.1761, 40.98272
897.6582, 41.38757
898.1403, 41.18287
898.6224, 41.44943
899.1046, 41.52464
899.5867, 41.41082
900.0688, 41.60154
900.5509, 41.41209
901.0330, 41.24175
901.5151, 41.29356
901.9973, 41.36452
902.4794, 41.11455
902.9615, 40.54301
903.4436, 40.32056
903.9257, 40.60979
904.4078, 40.82396
904.8900, 40.84417
905.3721, 40.75466
905.8542, 40.57607
906.3363, 40.34070
906.8184, 40.13008
907.3005, 39.84920
907.7827, 39.83412
908.2648, 40.43469
908.7469, 40.96418
909.2290, 40.96711
909.7111, 40.78028
910.1932, 40.92437
910.6754, 41.39243
911.1575, 41.60629
911.6396, 41.05140
912.1217, 40.49091
912.6038, 40.77771
913.0859, 41.30688
913.5681, 41.12033
914.0502, 40.32508
914.5323, 39.63021
915.0144, 39.34806
915.4965, 39.29193
915.9786, 39.26270
916.4607, 39.27191
916.9428, 39.38857
917.4249, 39.60216
917.9070, 39.74483
918.3892, 39.76731
918.8713, 39.82455
919.3534, 40.06003
919.8355, 40.38601
920.3176, 40.54788
920.7997, 40.56736
921.2819, 40.31492
921.7640, 39.59970
922.2461, 38.97284
922.7282, 38.53206
923.2103, 38.38476
923.6924, 38.83331
924.1746, 39.83241
924.6567, 40.49677
925.1388, 40.68959
925.6209, 40.68492
926.1030, 40.32180
926.5851, 39.97472
927.0673, 39.92028
927.5494, 40.05714
928.0315, 40.23539
928.5136, 40.42653
928.9957, 40.39098
929.4778, 39.68739
929.9600, 39.02362
930.4421, 39.13301
930.9242, 39.58580
931.4063, 39.69239
931.8884, 39.40779
932.3705, 39.07205
932.8527, 38.85960
933.3348, 38.78264
933.8169, 38.92920
934.2990, 39.20646
934.7811, 39.36682
935.2632, 39.40602
935.7454, 39.35606
936.2275, 39.22664
936.7096, 39.14805
937.1917, 39.26538
937.6738, 39.51076
938.1559, 39.62238
938.6381, 39.58766
939.1202, 39.50462
939.6023, 39.36190
940.0844, 39.22999
940.5665, 39.10228
941.0486, 39.06297
941.5308, 39.26011
942.0129, 39.71484
942.4950, 40.18946
942.9771, 41.00703
943.4592, 41.35241
943.9413, 40.61071
944.4235, 39.87139
944.9056, 39.85193
945.3877, 40.32402
945.8698, 40.78455
946.3519, 41.18404
946.8340, 41.50850
947.3162, 41.67743
947.7983, 41.85876
948.2804, 42.26482
948.7625, 42.64669
949.2446, 42.59130
949.7267, 42.21023
950.2089, 42.11996
950.6910, 42.71230
951.1731, 43.25699
951.6552, 42.94354
952.1373, 42.43137
952.6194, 42.60059
953.1016, 43.26507
953.5837, 43.84996
954.0658, 44.19245
954.5479, 44.48936
955.0300, 44.91220
955.5121, 45.37006
955.9943, 45.74847
956.4764, 46.01882
956.9585, 46.01069
957.4406, 45.72776
957.9227, 45.43990
958.4048, 45.26527
958.8870, 45.20597
959.3691, 45.24396
959.8512, 45.40118
960.3333, 45.97126
960.8154, 47.06787
961.2975, 47.65692
961.7797, 47.40740
962.2618, 47.08649
962.7439, 47.08832
963.2260, 47.47937
963.7081, 48.52326
964.1902, 50.52008
964.6724, 51.54473
965.1545, 50.80333
965.6366, 50.40840
966.1187, 51.07204
966.6008, 52.03040
967.0829, 52.75640
967.5651, 53.30340
968.0472, 53.83728
968.5293, 54.39924
969.0114, 54.86764
969.4935, 55.13809
969.9756, 55.41833
970.4578, 55.79946
970.9399, 56.24000
971.4220, 56.61750
971.9041, 56.99060
972.3862, 57.68000
972.8683, 59.00292
973.3505, 60.18128
973.8326, 60.82366
974.3147, 61.14776
974.7968, 61.31890
975.2789, 61.32489
975.7610, 60.96080
976.2432, 60.28822
976.7253, 59.94496
977.2074, 60.58602
977.6895, 61.30910
978.1716, 61.01767
978.6537, 60.18838
979.1359, 59.56833
979.6180, 59.19991
980.1001, 58.94445
980.5822, 58.73277
981.0643, 58.39125
981.5464, 57.58895
982.0286, 56.70519
982.5107, 56.74491
982.9928, 57.53503
983.4749, 58.27732
983.9570, 58.85418
984.4391, 59.33285
984.9213, 59.72475
985.4034, 60.26550
985.8855, 61.36396
986.3676, 62.93775
986.8497, 64.17632
987.3318, 65.03175
987.8140, 66.11178
988.2961, 67.53701
988.7782, 69.24466
989.2603, 71.36663
989.7424, 73.44283
990.2245, 74.41779
990.7067, 74.06007
991.1888, 74.51619
991.6709, 75.97820
992.1530, 77.80272
992.6351, 79.86381
993.1172, 82.24117
993.5994, 85.22243
994.0815, 88.52312
994.5636, 91.22529
995.0457, 93.07301
995.5278, 95.03701
996.0099, 96.87019
996.4921, 99.15455
996.9742, 102.4197
997.4563, 105.8735
997.9384, 108.7883
998.4205, 111.3258
998.9026, 114.1248
999.3848, 117.4748
999.8669, 120.5039
1000.349, 123.5603
1000.831, 125.6560
1001.313, 125.7912
1001.795, 125.0858
1002.277, 124.8906
1002.760, 125.0910
1003.242, 124.5176
1003.724, 122.5820
1004.206, 120.4024
1004.688, 118.6542
1005.170, 116.6925
1005.652, 113.6125
1006.134, 110.1833
1006.617, 107.5938
1007.099, 105.9430
1007.581, 104.4891
1008.063, 102.8484
1008.545, 101.3111
1009.027, 100.3274
1009.509, 99.40419
1009.991, 97.64089
1010.473, 95.53681
1010.956, 94.29006
1011.438, 94.12237
1011.920, 94.35831
1012.402, 94.62186
1012.884, 94.86543
1013.366, 94.99918
1013.848, 95.08541
1014.330, 95.06401
1014.813, 95.10502
1015.295, 95.93391
1015.777, 97.67915
1016.259, 99.22875
1016.741, 99.49099
1017.223, 100.9307
1017.705, 100.3831
1018.187, 102.2897
1018.669, 103.1639
1019.152, 102.9657
1019.634, 102.7804
1020.116, 103.0024
1020.598, 102.8123
1021.080, 101.3157
1021.562, 98.88998
1022.044, 96.61146
1022.526, 94.44052
1023.008, 92.02622
1023.491, 89.32951
1023.973, 86.16155
1024.455, 82.37253
1024.937, 78.80616
1025.419, 76.54712
1025.901, 75.23245
1026.383, 73.00919
1026.865, 69.76798
1027.348, 67.32569
1027.830, 65.91765
1028.312, 64.96735
1028.794, 64.31802
1029.276, 63.66375
1029.758, 62.59480
1030.240, 61.17792
1030.722, 59.96642
1031.204, 58.96118
1031.687, 58.16058
1032.169, 57.51579
1032.651, 57.27287
1033.133, 57.75541
1033.615, 58.32431
1034.097, 58.06116
1034.579, 57.04619
1035.061, 56.53910
1035.544, 56.70339
1036.026, 56.95781
1036.508, 57.25505
1036.990, 57.64985
1037.472, 58.26250
1037.954, 58.88568
1038.436, 59.24226
1038.918, 59.33886
1039.401, 59.37564
1039.883, 59.26366
1040.365, 59.25472
1040.847, 59.30826
1041.329, 59.54414
1041.811, 60.21458
1042.293, 60.96494
1042.775, 61.31548
1043.257, 61.27546
1043.740, 61.24222
1044.222, 61.29524
1044.704, 61.23286
1045.186, 61.10401
1045.668, 60.78933
1046.150, 60.06793
1046.632, 59.23992
1047.114, 58.76619
1047.596, 58.60826
1048.079, 58.09269
1048.561, 56.92982
1049.043, 55.76033
1049.525, 54.58772
1050.007, 53.50689
1050.489, 52.61770
1050.971, 51.80379
1051.453, 50.88897
1051.936, 50.13054
1052.418, 49.06213
1052.900, 48.59453
1053.382, 48.02338
1053.864, 47.25290
1054.346, 46.35779
1054.828, 45.12006
1055.310, 43.94859
1055.792, 43.46331
1056.275, 43.56198
1056.757, 43.39857
1057.239, 42.56244
1057.721, 41.92088
1058.203, 41.90002
1058.685, 41.91738
1059.167, 41.60587
1059.649, 41.18958
1060.131, 40.91368
1060.614, 40.79784
1061.096, 40.80988
1061.578, 41.06651
1062.060, 41.11717
1062.542, 40.63274
1063.024, 40.10138
1063.506, 39.70574
1063.988, 39.48111
1064.471, 39.57589
1064.953, 39.86884
1065.435, 39.87532
1065.917, 39.29449
1066.399, 39.04095
1066.881, 40.00378
1067.363, 40.78600
1067.845, 40.27616
1068.328, 39.37724
1068.810, 39.02052
1069.292, 39.21908
1069.774, 39.70779
1070.256, 40.52326
1070.738, 40.98891
1071.220, 40.38551
1071.702, 39.84809
1072.184, 40.19750
1072.667, 40.82143
1073.149, 41.02272
1073.631, 40.92723
1074.113, 41.04598
1074.595, 41.52483
1075.077, 42.05690
1075.559, 42.65176
1076.041, 43.07933
1076.523, 42.93600
1077.006, 42.79390
1077.488, 43.21964
1077.970, 44.10030
1078.452, 45.19350
1078.934, 46.43860
1079.416, 47.31836
1079.898, 47.30732
1080.380, 47.25435
1080.862, 47.56593
1081.345, 48.06628
1081.827, 48.54644
1082.309, 49.10932
1082.791, 50.07005
1083.273, 51.44418
1083.755, 52.58236
1084.237, 53.11414
1084.719, 53.49706
1085.202, 53.92904
1085.684, 54.31450
1086.166, 54.37814
1086.648, 54.44420
1087.130, 55.15747
1087.612, 56.48760
1088.094, 57.51059
1088.576, 57.68187
1089.058, 57.88826
1089.541, 58.53129
1090.023, 59.32648
1090.505, 60.42323
1090.987, 61.32887
1091.469, 61.28484
1091.951, 60.41293
1092.433, 59.62178
1092.915, 59.21526
1093.397, 58.83815
1093.880, 58.55501
1094.362, 58.02980
1094.844, 56.84667
1095.326, 55.48398
1095.808, 54.55351
1096.290, 53.91813
1096.772, 52.91512
1097.254, 51.26391
1097.737, 49.89868
1098.219, 49.45367
1098.701, 48.96717
1099.183, 47.85089
1099.665, 46.63264
1100.147, 45.85070
1100.629, 45.33484
1101.111, 44.63358
1101.594, 43.66020
1102.076, 42.61935
1102.558, 41.41311
1103.040, 40.35084
1103.522, 39.52594
1104.004, 38.88017
1104.486, 38.39809
1104.968, 38.05643
1105.450, 37.88091
1105.932, 37.86235
1106.415, 37.73543
1106.897, 37.37181
1107.379, 37.01360
1107.861, 36.71869
1108.343, 36.42662
1108.825, 35.97545
1109.307, 35.59534
1109.789, 35.74958
1110.272, 36.31136
1110.754, 36.29816
1111.236, 35.17428
1111.718, 34.34520
1112.200, 34.02891
1112.682, 33.90385
1113.164, 33.98798
1113.646, 34.10382
1114.129, 34.05016
1114.611, 33.89977
1115.093, 33.94771
1115.575, 33.79662
1116.057, 33.47168
1116.539, 33.52968
1117.021, 32.85447
1117.503, 32.57290
1117.985, 32.57690
1118.468, 33.00001
1118.950, 33.54712
1119.432, 33.61971
1119.914, 33.16845
1120.396, 32.83821
1120.878, 32.64447
1121.360, 32.54127
1121.842, 32.54608
1122.324, 32.61811
1122.807, 32.51186
1123.289, 32.97883
1123.771, 32.44444
1124.253, 32.59807
1124.735, 32.69243
1125.217, 32.31542
1125.699, 32.85995
1126.181, 32.70528
1126.664, 32.21127
1127.146, 31.31301
1127.628, 30.64591
1128.110, 30.89453
1128.592, 31.68667
1129.074, 31.90368
1129.556, 31.48187
1130.038, 31.09149
1130.521, 30.67857
1131.003, 30.81571
1131.485, 31.75135
1131.967, 32.44584
1132.449, 32.19990
1132.931, 31.45562
1133.413, 30.86732
1133.895, 30.45303
1134.377, 30.36781
1134.859, 30.60271
1135.342, 30.96968
1135.824, 31.43702
1136.306, 31.60678
1136.788, 31.29679
1137.270, 30.93149
1137.752, 30.99081
1138.234, 30.77107
1138.716, 30.64167
1139.199, 30.69982
1139.681, 30.52285
1140.163, 30.59317
1140.645, 30.78749
1141.127, 31.04652
1141.609, 31.20032
1142.091, 31.12829
1142.573, 30.91911
1143.056, 30.68167
1143.538, 30.40567
1144.020, 29.89868
1144.502, 29.38224
1144.984, 29.63097
1145.466, 30.50046
1145.948, 30.90912
1146.430, 30.40274
1146.912, 29.63750
1147.395, 28.93536
1147.877, 28.56277
1148.359, 29.10044
1148.841, 29.96394
1149.323, 30.34033
1149.805, 30.33461
1150.287, 30.37400
1150.769, 30.54159
1151.251, 30.59847
1151.734, 30.35625
1152.216, 30.13516
1152.698, 30.30350
1153.180, 30.41800
1153.662, 29.91987
1154.144, 29.27323
1154.626, 29.05702
1155.108, 29.28141
1155.591, 29.81121
1156.073, 30.72280
1156.555, 31.19642
1157.037, 30.46076
1157.519, 29.87441
1158.001, 30.35313
1158.483, 30.83539
1158.965, 30.17047
1159.448, 29.09689
1159.930, 29.10496
1160.412, 30.28728
1160.894, 30.89065
1161.376, 30.15101
1161.858, 29.72984
1162.340, 30.08648
1162.822, 30.36608
1163.304, 30.03945
1163.786, 29.72429
1164.269, 30.14393
1164.751, 31.01051
1165.233, 31.32216
1165.715, 30.96382
1166.197, 30.52330
1166.679, 29.88629
1167.161, 29.50974
1167.643, 29.56366
1168.126, 29.66615
1168.608, 29.56540
1169.090, 29.45423
1169.572, 29.65110
1170.054, 30.09610
1170.536, 30.32077
1171.018, 30.31778
1171.500, 30.27362
1171.983, 30.20374
1172.465, 30.05549
1172.947, 29.80117
1173.429, 29.70965
1173.911, 30.05006
1174.393, 30.49371
1174.875, 30.26975
1175.357, 30.51347
1175.839, 30.53433
1176.322, 30.33669
1176.804, 30.43496
1177.286, 29.95100
1177.768, 29.63721
1178.250, 29.82887
1178.732, 30.03831
1179.214, 29.72072
1179.696, 29.81142
1180.178, 29.29795
1180.661, 29.50344
1181.143, 29.32794
1181.625, 28.99490
1182.107, 29.23008
1182.589, 30.01403
1183.071, 30.41027
1183.553, 29.87112
1184.035, 29.29834
1184.518, 29.17739
1185.000, 29.31812
1185.482, 29.81958
1185.964, 30.32026
1186.446, 30.40435
1186.928, 30.19151
1187.410, 30.01736
1187.892, 29.94100
1188.375, 29.83908
1188.857, 29.64189
1189.339, 29.47865
1189.821, 29.39564
1190.303, 29.32852
1190.785, 29.11363
1191.267, 29.00776
1191.749, 29.45742
1192.231, 30.23364
1192.714, 30.40806
1193.196, 29.74839
1193.678, 29.37137
1194.160, 29.26726
1194.642, 29.53442
1195.124, 30.38803
1195.606, 31.05062
1196.088, 31.07025
1196.570, 30.65145
1197.053, 29.98063
1197.535, 29.19910
1198.017, 29.13765
1198.499, 29.77124
1198.981, 29.93673
1199.463, 29.58220
1199.945, 29.39556
1200.427, 29.56366
1200.910, 29.65805
1201.392, 29.36845
1201.874, 28.98516
1202.356, 28.91458
1202.838, 29.05425
1203.320, 29.22766
1203.802, 29.41885
1204.284, 29.68634
1204.766, 29.93443
1205.249, 29.70917
1205.731, 28.97287
1206.213, 28.66494
1206.695, 29.60201
1207.177, 30.57825
1207.659, 30.65376
1208.141, 30.38019
1208.623, 30.17713
1209.105, 29.96471
1209.588, 29.44833
1210.070, 28.81865
1210.552, 28.77311
1211.034, 29.56458
1211.516, 29.85346
1211.998, 28.74123
1212.480, 27.95324
1212.962, 28.03958
1213.445, 28.39150
1213.927, 28.88977
1214.409, 29.32375
1214.891, 29.39690
1215.373, 29.21615
1215.855, 29.27145
1216.337, 29.62530
1216.819, 29.97349
1217.302, 30.39569
1217.784, 30.44714
1218.266, 29.95472
1218.748, 29.46355
1219.230, 29.26484
1219.712, 29.25196
1220.194, 29.30527
1220.676, 29.40214
1221.158, 29.48795
1221.641, 29.55276
1222.123, 29.49041
1222.605, 29.34398
1223.087, 29.41340
1223.569, 29.72080
1224.051, 29.85603
1224.533, 29.57603
1225.015, 29.33899
1225.497, 29.91182
1225.980, 30.47488
1226.462, 29.64834
1226.944, 28.54712
1227.426, 28.78159
1227.908, 29.87655
1228.390, 30.75698
1228.872, 31.17961
1229.354, 31.18901
1229.837, 30.67620
1230.319, 30.12190
1230.801, 29.69515
1231.283, 29.25196
1231.765, 28.49295
1232.247, 27.92850
1232.729, 28.07786
1233.211, 28.64230
1233.693, 29.07479
1234.176, 29.38128
1234.658, 29.75335
1235.140, 30.30919
1235.622, 30.54844
1236.104, 30.35729
1236.586, 30.16799
1237.068, 30.08659
1237.550, 30.16218
1238.032, 30.47733
1238.515, 30.75811
1238.997, 30.44666
1239.479, 29.76897
1239.961, 29.73886
1240.443, 30.18136
1240.925, 30.34984
1241.407, 30.18480
1241.889, 29.68049
1242.372, 28.93139
1242.854, 28.55951
1243.336, 29.00438
1243.818, 29.59221
1244.300, 29.74789
1244.782, 29.68625
1245.264, 29.50273
1245.746, 29.31794
1246.229, 29.26260
1246.711, 29.31637
1247.193, 29.44272
1247.675, 29.62108
1248.157, 29.73966
1248.639, 29.72381
1249.121, 29.74264
1249.603, 30.02612
1250.085, 30.06132
1250.568, 29.34666
1251.050, 28.77043
1251.532, 29.00014
1252.014, 29.65180
1252.496, 30.12165
1252.978, 30.41096
1253.460, 30.55657
1253.942, 30.57494
1254.424, 30.12855
1254.907, 29.16807
1255.389, 28.76829
1255.871, 29.21626
1256.353, 29.72665
1256.835, 29.80667
1257.317, 29.56667
1257.799, 28.90358
1258.281, 28.25961
1258.764, 28.63214
1259.246, 29.48575
1259.728, 29.91081
1260.210, 29.96678
1260.692, 29.89347
1261.174, 29.82695
1261.656, 30.12632
1262.138, 31.08137
1262.620, 31.60224
1263.103, 30.72767
1263.585, 29.92268
1264.067, 29.98276
1264.549, 30.18904
1265.031, 30.02715
1265.513, 29.69670
1265.995, 29.47428
1266.477, 29.35824
1266.959, 29.33265
1267.442, 29.30857
1267.924, 29.48863
1268.406, 29.50629
1268.888, 29.62945
1269.370, 29.91527
1269.852, 30.05101
1270.334, 29.86081
1270.816, 29.68299
1271.299, 29.93012
1271.781, 30.28708
1272.263, 29.96688
1272.745, 29.32192
1273.227, 29.27662
1273.709, 29.61831
1274.191, 29.81720
1274.673, 29.77512
1275.156, 29.38351
1275.638, 28.66245
1276.120, 28.47422
1276.602, 29.76063
1277.084, 30.85980
1277.566, 30.82973
1278.048, 30.50285
1278.530, 30.20165
1279.012, 29.99634
1279.495, 29.99186
1279.977, 30.10264
1280.459, 30.11207
1280.941, 30.01486
1281.423, 30.01513
1281.905, 30.20313
1282.387, 30.10342
1282.869, 29.58458
1283.351, 29.39470
1283.834, 29.77782
1284.316, 30.33410
1284.798, 30.82099
1285.280, 31.09480
1285.762, 30.98670
1286.244, 30.51039
##END=



