##NAMES=Analcime
##RRUFFID=R040128
##IDEAL CHEMISTRY=NaAlSi_2_O_6_&#183;H_2_O
##LOCALITY=Mont Saint-Hilaire, Rouville County, Quebec, Canada
##OWNER=RRUFF
##SOURCE=Bob Downs
##DESCRIPTION=White trapezohedra associated with black arfvedsonite, R040127
##STATUS=The identification of this mineral has been confirmed by X-ray diffraction and chemical analysis
##URL=rruff.info/R040128
##MEASURED CHEMISTRY=Na_0.93_(Si_2.04_Al_0.99_)O_6_Â·H_2_O
134.7162, 2589.580
135.1983, 2656.841
135.6804, 2730.226
136.1626, 2813.144
136.6447, 2896.364
137.1268, 2961.017
137.6089, 3003.802
138.0910, 3037.829
138.5731, 3067.015
139.0553, 3090.091
139.5374, 3115.992
140.0195, 3145.600
140.5016, 3178.311
140.9837, 3211.645
141.4658, 3249.088
141.9480, 3282.188
142.4301, 3302.967
142.9122, 3301.652
143.3943, 3308.792
143.8764, 3329.357
144.3585, 3362.934
144.8407, 3399.419
145.3228, 3441.103
145.8049, 3483.715
146.2870, 3523.072
146.7691, 3558.857
147.2512, 3591.169
147.7334, 3619.013
148.2155, 3641.679
148.6976, 3664.173
149.1797, 3681.777
149.6618, 3700.654
150.1439, 3728.688
150.6261, 3777.415
151.1082, 3824.622
151.5903, 3865.360
152.0724, 3900.987
152.5545, 3926.516
153.0366, 3933.383
153.5188, 3930.009
154.0009, 3932.939
154.4830, 3951.834
154.9651, 3972.104
155.4472, 3987.650
155.9293, 3997.250
156.4115, 4002.662
156.8936, 3999.942
157.3757, 3992.207
157.8578, 3990.184
158.3399, 4000.574
158.8221, 4015.590
159.3042, 4030.280
159.7863, 4047.818
160.2684, 4060.592
160.7505, 4061.621
161.2326, 4052.911
161.7148, 4049.932
162.1969, 4067.579
162.6790, 4090.927
163.1611, 4105.370
163.6432, 4094.024
164.1253, 4082.321
164.6075, 4084.373
165.0896, 4100.708
165.5717, 4120.516
166.0538, 4142.045
166.5359, 4162.514
167.0180, 4178.057
167.5002, 4184.163
167.9823, 4186.722
168.4644, 4189.437
168.9465, 4192.377
169.4286, 4196.876
169.9107, 4203.974
170.3929, 4213.326
170.8750, 4224.408
171.3571, 4238.821
171.8392, 4253.896
172.3213, 4265.894
172.8034, 4273.034
173.2856, 4281.021
173.7677, 4296.794
174.2498, 4318.437
174.7319, 4339.062
175.2140, 4358.525
175.6961, 4373.507
176.1783, 4375.401
176.6604, 4354.862
177.1425, 4334.786
177.6246, 4349.365
178.1067, 4393.860
178.5888, 4438.551
179.0710, 4462.532
179.5531, 4470.412
180.0352, 4469.798
180.5173, 4456.367
180.9994, 4441.611
181.4815, 4445.323
181.9637, 4467.210
182.4458, 4496.893
182.9279, 4531.555
183.4100, 4568.381
183.8921, 4597.362
184.3742, 4614.672
184.8564, 4622.792
185.3385, 4625.642
185.8206, 4622.992
186.3027, 4618.157
186.7848, 4610.344
187.2669, 4601.066
187.7491, 4601.623
188.2312, 4621.410
188.7133, 4654.238
189.1954, 4676.457
189.6775, 4686.328
190.1596, 4692.689
190.6418, 4710.385
191.1239, 4738.811
191.6060, 4757.442
192.0881, 4749.166
192.5702, 4718.780
193.0524, 4711.534
193.5345, 4732.124
194.0166, 4763.594
194.4987, 4779.568
194.9808, 4779.154
195.4629, 4776.729
195.9451, 4779.858
196.4272, 4788.402
196.9093, 4791.589
197.3914, 4787.068
197.8735, 4780.354
198.3556, 4784.726
198.8378, 4802.641
199.3199, 4816.026
199.8020, 4811.274
200.2841, 4786.648
200.7662, 4771.582
201.2483, 4770.710
201.7305, 4777.614
202.2126, 4774.876
202.6947, 4759.461
203.1768, 4745.740
203.6589, 4742.093
204.1410, 4749.166
204.6232, 4763.225
205.1053, 4787.794
205.5874, 4817.478
206.0695, 4834.170
206.5516, 4836.200
207.0337, 4829.624
207.5159, 4816.037
207.9980, 4793.287
208.4801, 4774.776
208.9622, 4761.730
209.4443, 4754.190
209.9264, 4753.516
210.4086, 4762.267
210.8907, 4772.771
211.3728, 4777.770
211.8549, 4773.985
212.3370, 4776.775
212.8191, 4791.945
213.3013, 4816.868
213.7834, 4829.433
214.2655, 4825.374
214.7476, 4815.789
215.2297, 4808.763
215.7118, 4802.196
216.1940, 4804.381
216.6761, 4819.491
217.1582, 4846.783
217.6403, 4868.786
218.1224, 4885.430
218.6045, 4896.574
219.0867, 4900.567
219.5688, 4892.968
220.0509, 4888.734
220.5330, 4891.699
221.0151, 4902.061
221.4972, 4911.504
221.9794, 4919.228
222.4615, 4927.016
222.9436, 4937.193
223.4257, 4951.381
223.9078, 4964.894
224.3899, 4977.393
224.8721, 4989.394
225.3542, 4995.122
225.8363, 4990.760
226.3184, 4983.789
226.8005, 4983.916
227.2827, 4996.594
227.7648, 5005.892
228.2469, 5007.047
228.7290, 4998.866
229.2111, 4991.521
229.6932, 4983.723
230.1754, 4977.888
230.6575, 4977.351
231.1396, 4983.762
231.6217, 4992.836
232.1038, 5005.731
232.5859, 5025.358
233.0681, 5032.509
233.5502, 5022.531
234.0323, 5003.473
234.5144, 4986.432
234.9965, 4972.059
235.4786, 4958.712
235.9608, 4944.548
236.4429, 4927.523
236.9250, 4921.451
237.4071, 4936.779
237.8892, 4956.591
238.3713, 4950.709
238.8535, 4896.939
239.3356, 4854.886
239.8177, 4848.247
240.2998, 4891.290
240.7819, 4913.969
241.2640, 4907.515
241.7462, 4886.169
242.2283, 4874.500
242.7104, 4877.263
243.1925, 4881.909
243.6746, 4884.414
244.1567, 4884.006
244.6389, 4884.370
245.1210, 4887.113
245.6031, 4889.683
246.0852, 4886.915
246.5673, 4875.165
247.0494, 4864.225
247.5316, 4856.672
248.0137, 4851.253
248.4958, 4854.583
248.9779, 4872.448
249.4600, 4895.798
249.9421, 4907.260
250.4243, 4903.156
250.9064, 4893.875
251.3885, 4881.567
251.8706, 4863.021
252.3527, 4852.461
252.8348, 4852.253
253.3170, 4858.535
253.7991, 4865.624
254.2812, 4877.928
254.7633, 4882.310
255.2454, 4869.246
255.7275, 4828.167
256.2097, 4811.301
256.6918, 4829.603
257.1739, 4864.767
257.6560, 4881.323
258.1381, 4869.005
258.6202, 4859.380
259.1024, 4867.431
259.5845, 4900.888
260.0666, 4918.573
260.5487, 4914.605
261.0308, 4899.277
261.5129, 4890.577
261.9951, 4889.115
262.4772, 4893.101
262.9593, 4904.073
263.4414, 4925.394
263.9235, 4937.019
264.4056, 4934.904
264.8878, 4926.981
265.3699, 4927.645
265.8520, 4939.446
266.3341, 4952.571
266.8162, 4963.125
267.2983, 4970.309
267.7805, 4980.672
268.2626, 4997.473
268.7447, 5013.699
269.2268, 5012.447
269.7089, 4985.629
270.1910, 4970.595
270.6732, 4990.427
271.1553, 5051.640
271.6374, 5079.174
272.1195, 5063.750
272.6016, 5028.245
273.0837, 5010.764
273.5659, 5014.796
274.0480, 5018.359
274.5301, 5009.690
275.0122, 4987.958
275.4943, 4981.733
275.9764, 4994.878
276.4586, 5016.271
276.9407, 5028.856
277.4228, 5031.337
277.9049, 5034.994
278.3870, 5045.452
278.8691, 5062.250
279.3513, 5073.956
279.8334, 5079.287
280.3155, 5082.824
280.7976, 5089.357
281.2798, 5098.715
281.7619, 5113.877
282.2440, 5139.623
282.7261, 5173.710
283.2082, 5198.111
283.6903, 5211.451
284.1725, 5220.161
284.6546, 5231.549
285.1367, 5245.446
285.6188, 5259.900
286.1009, 5273.674
286.5830, 5287.383
287.0652, 5303.341
287.5473, 5321.263
288.0294, 5342.248
288.5115, 5367.628
288.9936, 5397.376
289.4757, 5430.192
289.9579, 5468.250
290.4400, 5508.567
290.9221, 5542.354
291.4042, 5569.050
291.8863, 5596.223
292.3684, 5629.709
292.8506, 5669.627
293.3327, 5717.492
293.8148, 5780.312
294.2969, 5847.911
294.7790, 5902.317
295.2611, 5943.688
295.7433, 5975.795
296.2254, 6002.564
296.7075, 6023.261
297.1896, 6035.071
297.6717, 6036.825
298.1538, 6030.053
298.6360, 6016.232
299.1181, 5995.404
299.6002, 5969.577
300.0823, 5938.554
300.5644, 5903.571
301.0465, 5866.034
301.5287, 5823.246
302.0108, 5781.939
302.4929, 5752.435
302.9750, 5732.803
303.4571, 5713.663
303.9392, 5686.560
304.4214, 5656.586
304.9035, 5629.695
305.3856, 5607.254
305.8677, 5589.367
306.3498, 5577.682
306.8319, 5571.355
307.3141, 5567.216
307.7962, 5566.162
308.2783, 5565.191
308.7604, 5560.700
309.2425, 5550.183
309.7246, 5540.187
310.2068, 5532.909
310.6889, 5529.162
311.1710, 5530.892
311.6531, 5545.971
312.1352, 5562.661
312.6173, 5571.416
313.0995, 5568.161
313.5816, 5564.180
314.0637, 5562.059
314.5458, 5563.036
315.0279, 5569.366
315.5100, 5592.198
315.9922, 5612.863
316.4743, 5618.027
316.9564, 5600.608
317.4385, 5590.764
317.9206, 5608.918
318.4027, 5638.226
318.8849, 5655.142
319.3670, 5639.475
319.8491, 5622.549
320.3312, 5616.157
320.8133, 5622.618
321.2954, 5630.833
321.7776, 5635.899
322.2597, 5642.724
322.7418, 5656.540
323.2239, 5695.056
323.7060, 5723.708
324.1881, 5730.266
324.6703, 5712.280
325.1524, 5699.545
325.6345, 5697.930
326.1166, 5700.434
326.5987, 5701.304
327.0808, 5690.233
327.5630, 5689.739
328.0451, 5708.121
328.5272, 5744.092
329.0093, 5769.862
329.4914, 5783.390
329.9735, 5788.089
330.4557, 5784.850
330.9378, 5764.683
331.4199, 5752.103
331.9020, 5748.690
332.3841, 5754.208
332.8662, 5768.544
333.3484, 5795.904
333.8305, 5825.491
334.3126, 5852.756
334.7947, 5879.029
335.2768, 5897.486
335.7589, 5905.266
336.2411, 5906.396
336.7232, 5911.436
337.2053, 5921.609
337.6874, 5932.012
338.1695, 5941.132
338.6516, 5949.168
339.1338, 5951.718
339.6159, 5945.194
340.0980, 5938.717
340.5801, 5951.534
341.0622, 5986.366
341.5443, 6016.693
342.0265, 6027.594
342.5086, 6022.033
342.9907, 6032.854
343.4728, 6064.096
343.9549, 6095.504
344.4370, 6094.130
344.9192, 6064.200
345.4013, 6046.737
345.8834, 6063.400
346.3655, 6100.995
346.8476, 6124.255
347.3297, 6132.791
347.8119, 6136.523
348.2940, 6140.540
348.7761, 6146.577
349.2582, 6160.658
349.7403, 6190.798
350.2225, 6223.614
350.7046, 6237.671
351.1867, 6235.095
351.6688, 6231.312
352.1509, 6236.881
352.6331, 6248.498
353.1152, 6261.992
353.5973, 6278.491
354.0794, 6292.776
354.5615, 6298.519
355.0436, 6297.856
355.5258, 6297.292
356.0079, 6293.363
356.4900, 6294.998
356.9721, 6312.949
357.4542, 6354.091
357.9363, 6393.825
358.4185, 6418.987
358.9006, 6433.344
359.3827, 6443.414
359.8648, 6437.114
360.3469, 6438.772
360.8290, 6467.449
361.3112, 6529.918
361.7933, 6581.531
362.2754, 6603.976
362.7575, 6610.234
363.2396, 6614.432
363.7217, 6607.171
364.2039, 6610.645
364.6860, 6638.240
365.1681, 6690.431
365.6502, 6728.334
366.1323, 6733.336
366.6144, 6731.580
367.0966, 6741.146
367.5787, 6774.371
368.0608, 6804.155
368.5429, 6821.081
369.0250, 6830.919
369.5071, 6864.164
369.9893, 6942.693
370.4714, 7018.974
370.9535, 7069.667
371.4356, 7084.806
371.9177, 7094.725
372.3998, 7094.455
372.8820, 7091.911
373.3641, 7107.010
373.8462, 7147.357
374.3283, 7185.276
374.8104, 7204.886
375.2925, 7203.078
375.7747, 7227.277
376.2568, 7288.688
376.7389, 7354.325
377.2210, 7370.034
377.7031, 7331.316
378.1852, 7308.713
378.6674, 7333.090
379.1495, 7390.333
379.6316, 7418.108
380.1137, 7413.790
380.5958, 7401.684
381.0779, 7401.251
381.5601, 7411.646
382.0422, 7429.648
382.5243, 7458.672
383.0064, 7490.016
383.4885, 7510.916
383.9706, 7521.750
384.4528, 7523.901
384.9349, 7507.375
385.4170, 7485.594
385.8991, 7483.907
386.3812, 7511.763
386.8633, 7541.339
387.3455, 7544.746
387.8276, 7529.939
388.3097, 7515.083
388.7918, 7507.493
389.2739, 7504.822
389.7560, 7505.376
390.2382, 7509.023
390.7203, 7515.893
391.2024, 7529.568
391.6845, 7545.272
392.1666, 7557.670
392.6487, 7570.153
393.1309, 7573.999
393.6130, 7562.417
394.0951, 7536.647
394.5772, 7511.169
395.0593, 7486.762
395.5414, 7465.603
396.0236, 7449.315
396.5057, 7443.158
396.9878, 7435.841
397.4699, 7415.563
397.9520, 7381.067
398.4341, 7388.836
398.9163, 7389.003
399.3984, 7381.979
399.8805, 7346.222
400.3626, 7347.568
400.8447, 7334.044
401.3268, 7319.911
401.8090, 7321.719
402.2911, 7314.036
402.7732, 7301.729
403.2553, 7284.324
403.7374, 7261.070
404.2195, 7232.181
404.7017, 7200.095
405.1838, 7162.638
405.6659, 7127.550
406.1480, 7104.634
406.6301, 7094.051
407.1122, 7077.227
407.5944, 7048.570
408.0765, 7013.992
408.5586, 6987.819
409.0407, 6969.829
409.5228, 6955.236
410.0049, 6941.648
410.4871, 6929.188
410.9692, 6919.958
411.4513, 6915.926
411.9334, 6907.831
412.4155, 6874.922
412.8976, 6827.421
413.3798, 6795.807
413.8619, 6814.295
414.3440, 6843.219
414.8261, 6836.496
415.3082, 6793.232
415.7903, 6749.667
416.2725, 6726.262
416.7546, 6716.630
417.2367, 6713.673
417.7188, 6726.588
418.2009, 6733.321
418.6830, 6717.794
419.1652, 6686.047
419.6473, 6660.825
420.1294, 6652.699
420.6115, 6650.700
421.0937, 6649.490
421.5758, 6650.256
422.0579, 6647.797
422.5400, 6633.596
423.0221, 6617.362
423.5042, 6615.068
423.9864, 6646.402
424.4685, 6670.063
424.9506, 6674.504
425.4327, 6657.806
425.9148, 6645.754
426.3969, 6639.361
426.8791, 6636.452
427.3612, 6634.695
427.8433, 6632.507
428.3254, 6637.573
428.8075, 6655.445
429.2896, 6679.564
429.7718, 6684.019
430.2539, 6664.860
430.7360, 6647.108
431.2181, 6646.663
431.7002, 6662.441
432.1823, 6680.590
432.6645, 6702.204
433.1466, 6720.297
433.6287, 6718.777
434.1108, 6702.428
434.5929, 6695.591
435.0750, 6717.043
435.5572, 6750.549
436.0393, 6768.640
436.5214, 6771.641
437.0035, 6766.446
437.4856, 6745.909
437.9677, 6724.220
438.4499, 6722.734
438.9320, 6754.617
439.4141, 6794.742
439.8962, 6832.021
440.3783, 6864.103
440.8604, 6886.027
441.3426, 6893.291
441.8247, 6891.176
442.3068, 6876.398
442.7889, 6841.900
443.2710, 6827.461
443.7531, 6862.197
444.2353, 6915.180
444.7174, 6952.806
445.1995, 6952.299
445.6816, 6955.383
446.1637, 6967.978
446.6458, 6989.688
447.1280, 7019.391
447.6101, 7068.015
448.0922, 7112.704
448.5743, 7139.156
449.0564, 7139.080
449.5385, 7143.040
450.0207, 7151.297
450.5028, 7164.362
450.9849, 7182.265
451.4670, 7203.903
451.9491, 7235.680
452.4312, 7287.313
452.9134, 7353.869
453.3955, 7391.143
453.8776, 7394.349
454.3597, 7401.425
454.8418, 7462.284
455.3239, 7562.394
455.8061, 7635.554
456.2882, 7656.051
456.7703, 7661.319
457.2524, 7703.406
457.7345, 7776.730
458.2166, 7860.011
458.6988, 7952.434
459.1809, 8041.636
459.6630, 8104.036
460.1451, 8132.155
460.6272, 8176.795
461.1093, 8288.061
461.5915, 8428.795
462.0736, 8550.668
462.5557, 8607.550
463.0378, 8672.586
463.5199, 8773.443
464.0020, 8906.788
464.4842, 9048.840
464.9663, 9194.481
465.4484, 9346.580
465.9305, 9506.659
466.4126, 9671.443
466.8947, 9853.623
467.3769, 10058.52
467.8590, 10277.57
468.3411, 10499.42
468.8232, 10718.86
469.3053, 10950.17
469.7874, 11201.22
470.2696, 11470.91
470.7517, 11736.61
471.2338, 11993.44
471.7159, 12258.88
472.1980, 12542.67
472.6801, 12846.14
473.1623, 13171.14
473.6444, 13524.14
474.1265, 13891.11
474.6086, 14253.41
475.0907, 14610.24
475.5728, 14956.38
476.0550, 15282.21
476.5371, 15599.30
477.0192, 15929.91
477.5013, 16276.76
477.9834, 16601.97
478.4655, 16879.42
478.9477, 17117.66
479.4298, 17325.45
479.9119, 17519.48
480.3940, 17669.78
480.8761, 17769.49
481.3582, 17813.89
481.8404, 17786.89
482.3225, 17653.30
482.8046, 17471.67
483.2867, 17268.68
483.7688, 17052.71
484.2509, 16794.25
484.7331, 16461.15
485.2152, 16100.52
485.6973, 15748.43
486.1794, 15413.02
486.6615, 15071.14
487.1436, 14717.08
487.6258, 14352.33
488.1079, 13980.03
488.5900, 13597.48
489.0721, 13220.73
489.5542, 12857.62
490.0363, 12506.52
490.5185, 12170.29
491.0006, 11849.96
491.4827, 11550.79
491.9648, 11287.64
492.4470, 11056.92
492.9291, 10845.20
493.4112, 10659.47
493.8933, 10485.12
494.3754, 10301.13
494.8575, 10109.05
495.3397, 9929.584
495.8218, 9782.045
496.3039, 9648.494
496.7860, 9508.793
497.2681, 9353.457
497.7502, 9208.968
498.2324, 9091.166
498.7145, 8991.226
499.1966, 8894.868
499.6787, 8803.017
500.1608, 8710.191
500.6429, 8609.387
501.1251, 8502.063
501.6072, 8411.588
502.0893, 8349.876
502.5714, 8294.956
503.0535, 8236.110
503.5356, 8168.601
504.0178, 8108.972
504.4999, 8058.927
504.9820, 8015.773
505.4641, 7974.786
505.9462, 7935.952
506.4283, 7900.249
506.9105, 7869.553
507.3926, 7842.125
507.8747, 7812.357
508.3568, 7780.260
508.8389, 7742.979
509.3210, 7688.375
509.8032, 7626.404
510.2853, 7586.390
510.7674, 7575.109
511.2495, 7572.430
511.7316, 7562.465
512.2137, 7545.540
512.6959, 7522.599
513.1780, 7483.724
513.6601, 7447.353
514.1422, 7429.167
514.6243, 7426.454
515.1064, 7420.038
515.5886, 7399.232
516.0707, 7374.556
516.5528, 7351.362
517.0349, 7325.054
517.5170, 7310.838
517.9991, 7322.437
518.4813, 7342.240
518.9634, 7348.292
519.4455, 7336.994
519.9276, 7317.058
520.4097, 7283.147
520.8918, 7240.643
521.3740, 7225.230
521.8561, 7244.097
522.3382, 7266.250
522.8203, 7267.794
523.3024, 7250.599
523.7845, 7251.971
524.2667, 7279.115
524.7488, 7305.035
525.2309, 7292.308
525.7130, 7249.767
526.1951, 7208.130
526.6772, 7174.957
527.1594, 7150.330
527.6415, 7136.573
528.1236, 7132.443
528.6057, 7132.268
529.0878, 7138.309
529.5699, 7143.514
530.0521, 7141.273
530.5342, 7128.668
531.0163, 7118.081
531.4984, 7112.513
531.9805, 7111.280
532.4626, 7113.597
532.9448, 7127.552
533.4269, 7135.015
533.9090, 7129.406
534.3911, 7115.338
534.8732, 7111.970
535.3553, 7125.708
535.8375, 7138.129
536.3196, 7140.823
536.8017, 7133.394
537.2838, 7126.101
537.7659, 7119.731
538.2480, 7110.641
538.7302, 7087.422
539.2123, 7054.151
539.6944, 7043.715
540.1765, 7071.965
540.6586, 7110.023
541.1407, 7115.983
541.6229, 7096.717
542.1050, 7077.189
542.5871, 7070.092
543.0692, 7069.174
543.5513, 7066.973
544.0334, 7063.245
544.5156, 7068.983
544.9977, 7104.973
545.4798, 7143.569
545.9619, 7162.164
546.4440, 7144.087
546.9261, 7124.418
547.4083, 7101.700
547.8904, 7081.555
548.3725, 7075.116
548.8546, 7092.302
549.3367, 7106.724
549.8188, 7110.956
550.3010, 7106.056
550.7831, 7106.604
551.2652, 7116.202
551.7473, 7119.187
552.2294, 7092.696
552.7115, 7042.288
553.1937, 7032.093
553.6758, 7074.203
554.1579, 7127.378
554.6400, 7139.281
555.1221, 7120.646
555.6042, 7101.981
556.0864, 7094.039
556.5685, 7090.720
557.0506, 7083.919
557.5327, 7076.124
558.0148, 7076.824
558.4969, 7103.637
558.9791, 7130.624
559.4612, 7140.184
559.9433, 7127.037
560.4254, 7114.606
560.9075, 7099.420
561.3896, 7091.321
561.8718, 7098.952
562.3539, 7133.857
562.8360, 7166.092
563.3181, 7198.871
563.8002, 7224.837
564.2823, 7220.142
564.7645, 7176.091
565.2466, 7141.099
565.7287, 7140.047
566.2108, 7164.271
566.6929, 7171.017
567.1750, 7159.773
567.6572, 7141.333
568.1393, 7119.340
568.6214, 7097.701
569.1035, 7084.188
569.5856, 7079.317
570.0677, 7084.950
570.5499, 7111.999
571.0320, 7148.653
571.5141, 7176.399
571.9962, 7189.036
572.4783, 7190.939
572.9604, 7176.590
573.4426, 7150.266
573.9247, 7133.108
574.4068, 7126.516
574.8889, 7132.247
575.3710, 7155.688
575.8531, 7203.529
576.3353, 7230.926
576.8174, 7229.015
577.2995, 7219.409
577.7816, 7225.212
578.2637, 7248.780
578.7458, 7261.006
579.2280, 7255.190
579.7101, 7240.828
580.1922, 7235.563
580.6743, 7237.548
581.1564, 7236.351
581.6385, 7216.176
582.1207, 7195.930
582.6028, 7207.410
583.0849, 7246.379
583.5670, 7280.412
584.0491, 7283.043
584.5313, 7277.745
585.0134, 7283.933
585.4955, 7309.155
585.9776, 7330.591
586.4597, 7341.867
586.9418, 7346.503
587.4240, 7348.249
587.9061, 7346.559
588.3882, 7342.988
588.8703, 7335.212
589.3524, 7326.334
589.8345, 7327.681
590.3167, 7343.077
590.7988, 7353.588
591.2809, 7345.231
591.7630, 7324.297
592.2451, 7326.145
592.7272, 7351.439
593.2094, 7383.295
593.6915, 7409.665
594.1736, 7432.199
594.6557, 7457.814
595.1378, 7491.254
595.6199, 7509.984
596.1021, 7475.753
596.5842, 7421.595
597.0663, 7394.523
597.5485, 7444.262
598.0306, 7487.989
598.5127, 7492.803
598.9948, 7467.989
599.4769, 7455.489
599.9590, 7472.404
600.4412, 7484.029
600.9233, 7474.403
601.4054, 7440.743
601.8875, 7431.189
602.3696, 7452.080
602.8517, 7481.793
603.3339, 7502.540
603.8160, 7515.099
604.2981, 7526.920
604.7802, 7538.698
605.2623, 7549.982
605.7444, 7559.253
606.2266, 7567.449
606.7087, 7576.845
607.1908, 7592.723
607.6729, 7605.747
608.1550, 7604.009
608.6371, 7592.520
609.1193, 7587.500
609.6014, 7608.150
610.0835, 7625.903
610.5656, 7623.194
611.0477, 7595.010
611.5298, 7578.332
612.0120, 7581.423
612.4941, 7589.349
612.9762, 7592.260
613.4583, 7588.344
613.9404, 7585.481
614.4225, 7583.113
614.9047, 7583.447
615.3868, 7592.565
615.8689, 7609.521
616.3510, 7620.158
616.8331, 7617.574
617.3152, 7610.210
617.7974, 7609.431
618.2795, 7614.828
618.7616, 7624.620
619.2437, 7644.740
619.7258, 7663.691
620.2079, 7670.735
620.6901, 7665.432
621.1722, 7662.685
621.6543, 7670.450
622.1364, 7680.517
622.6185, 7687.618
623.1006, 7690.948
623.5828, 7692.903
624.0649, 7696.013
624.5470, 7695.421
625.0291, 7681.252
625.5112, 7648.225
625.9933, 7631.013
626.4755, 7639.089
626.9576, 7662.117
627.4397, 7685.782
627.9218, 7708.263
628.4039, 7715.675
628.8860, 7684.517
629.3682, 7643.016
629.8503, 7630.889
630.3324, 7645.482
630.8145, 7666.435
631.2966, 7690.243
631.7787, 7710.135
632.2609, 7719.999
632.7430, 7716.474
633.2251, 7713.228
633.7072, 7717.970
634.1893, 7720.815
634.6714, 7711.174
635.1536, 7672.454
635.6357, 7660.688
636.1178, 7691.231
636.5999, 7738.688
637.0820, 7753.380
637.5641, 7733.771
638.0463, 7716.188
638.5284, 7710.167
639.0105, 7715.219
639.4926, 7740.668
639.9747, 7781.175
640.4568, 7805.388
640.9390, 7780.726
641.4211, 7740.133
641.9032, 7708.598
642.3853, 7688.061
642.8674, 7686.253
643.3495, 7726.793
643.8317, 7773.476
644.3138, 7801.583
644.7959, 7800.494
645.2780, 7794.157
645.7601, 7776.767
646.2422, 7759.245
646.7244, 7756.309
647.2065, 7771.619
647.6886, 7783.540
648.1707, 7789.976
648.6528, 7788.687
649.1349, 7766.727
649.6171, 7728.392
650.0992, 7703.291
650.5813, 7715.688
651.0634, 7742.360
651.5455, 7753.478
652.0276, 7752.310
652.5098, 7755.891
652.9919, 7784.483
653.4740, 7812.010
653.9561, 7819.163
654.4382, 7799.593
654.9203, 7787.362
655.4025, 7792.042
655.8846, 7800.902
656.3667, 7805.145
656.8488, 7801.691
657.3309, 7803.624
657.8130, 7813.255
658.2952, 7824.981
658.7773, 7834.673
659.2594, 7841.491
659.7415, 7830.951
660.2236, 7788.482
660.7057, 7744.961
661.1879, 7751.736
661.6700, 7794.692
662.1521, 7834.541
662.6342, 7851.411
663.1163, 7859.799
663.5984, 7866.149
664.0806, 7871.109
664.5627, 7877.472
665.0448, 7887.526
665.5269, 7897.695
666.0090, 7909.121
666.4911, 7924.078
666.9733, 7920.189
667.4554, 7889.023
667.9375, 7855.729
668.4196, 7839.447
668.9017, 7839.992
669.3839, 7856.107
669.8660, 7891.746
670.3481, 7923.362
670.8302, 7913.402
671.3123, 7879.465
671.7944, 7860.888
672.2766, 7880.212
672.7587, 7901.371
673.2408, 7898.967
673.7229, 7881.735
674.2050, 7866.785
674.6871, 7860.031
675.1693, 7854.833
675.6514, 7850.388
676.1335, 7846.209
676.6156, 7838.381
677.0977, 7821.573
677.5798, 7813.534
678.0620, 7826.239
678.5441, 7856.761
679.0262, 7876.505
679.5083, 7885.539
679.9904, 7885.251
680.4725, 7864.763
680.9547, 7839.324
681.4368, 7841.174
681.9189, 7877.153
682.4010, 7910.048
682.8831, 7915.453
683.3652, 7904.573
683.8474, 7887.633
684.3295, 7857.357
684.8116, 7836.274
685.2937, 7830.541
685.7758, 7834.436
686.2579, 7842.145
686.7401, 7856.300
687.2222, 7867.590
687.7043, 7876.063
688.1864, 7878.980
688.6685, 7861.546
689.1506, 7825.892
689.6328, 7806.941
690.1149, 7835.669
690.5970, 7880.084
691.0791, 7888.163
691.5612, 7866.496
692.0433, 7848.579
692.5255, 7851.932
693.0076, 7864.929
693.4897, 7884.687
693.9718, 7912.259
694.4539, 7927.905
694.9360, 7928.107
695.4182, 7916.461
695.9003, 7888.129
696.3824, 7830.947
696.8645, 7817.158
697.3466, 7859.814
697.8287, 7911.607
698.3109, 7916.099
698.7930, 7882.612
699.2751, 7860.088
699.7572, 7857.416
700.2393, 7866.388
700.7214, 7885.116
701.2036, 7908.320
701.6857, 7927.185
702.1678, 7936.672
702.6499, 7943.506
703.1320, 7953.982
703.6141, 7963.532
704.0963, 7959.411
704.5784, 7920.846
705.0605, 7901.026
705.5426, 7921.913
706.0247, 7969.460
706.5068, 7973.610
706.9890, 7928.348
707.4711, 7890.543
707.9532, 7899.812
708.4353, 7935.959
708.9174, 7943.642
709.3995, 7925.641
709.8817, 7908.625
710.3638, 7913.262
710.8459, 7925.567
711.3280, 7932.563
711.8101, 7931.936
712.2922, 7935.074
712.7744, 7954.446
713.2565, 7971.721
713.7386, 7972.646
714.2207, 7942.210
714.7028, 7938.439
715.1849, 7975.283
715.6671, 8014.467
716.1492, 8003.374
716.6313, 7947.773
717.1134, 7917.399
717.5955, 7927.401
718.0776, 7955.913
718.5598, 7988.251
719.0419, 8018.036
719.5240, 8032.434
720.0061, 8015.084
720.4882, 7995.962
720.9703, 7990.239
721.4525, 7992.607
721.9346, 7990.850
722.4167, 7974.356
722.8988, 7965.411
723.3809, 7969.482
723.8630, 7984.054
724.3452, 8002.977
724.8273, 8028.635
725.3094, 8040.878
725.7915, 8020.293
726.2736, 7982.906
726.7557, 7973.834
727.2379, 7989.694
727.7200, 8003.863
728.2021, 7988.214
728.6842, 7971.276
729.1663, 7982.877
729.6484, 8026.488
730.1306, 8056.437
730.6127, 8046.810
731.0948, 8030.463
731.5769, 8026.792
732.0590, 8041.290
732.5411, 8044.750
733.0233, 8034.870
733.5054, 8019.111
733.9875, 7998.266
734.4696, 7975.060
734.9517, 7976.010
735.4338, 8008.391
735.9160, 8038.481
736.3981, 8020.558
736.8802, 7981.826
737.3623, 7963.222
737.8444, 7983.611
738.3266, 8010.014
738.8087, 8041.340
739.2908, 8067.469
739.7729, 8072.054
740.2551, 8038.917
740.7372, 8013.237
741.2193, 7999.137
741.7014, 7996.025
742.1835, 8008.253
742.6656, 8036.022
743.1478, 8052.031
743.6299, 8040.462
744.1120, 8021.434
744.5941, 8032.169
745.0762, 8063.090
745.5583, 8084.781
746.0405, 8072.892
746.5226, 8056.698
747.0047, 8054.193
747.4868, 8062.601
747.9689, 8063.329
748.4510, 8039.356
748.9332, 8026.875
749.4153, 8041.816
749.8974, 8080.937
750.3795, 8106.954
750.8616, 8119.237
751.3438, 8123.023
751.8259, 8115.605
752.3080, 8103.275
752.7901, 8104.655
753.2722, 8119.146
753.7543, 8127.886
754.2365, 8110.422
754.7186, 8087.431
755.2007, 8076.149
755.6828, 8080.410
756.1649, 8084.541
756.6470, 8084.707
757.1292, 8085.145
757.6113, 8088.437
758.0934, 8095.081
758.5755, 8101.640
759.0576, 8107.208
759.5397, 8115.948
760.0219, 8138.149
760.5040, 8167.445
760.9861, 8180.913
761.4682, 8172.598
761.9503, 8161.082
762.4324, 8160.214
762.9146, 8164.791
763.3967, 8168.805
763.8788, 8171.704
764.3609, 8172.451
764.8430, 8165.089
765.3251, 8158.794
765.8073, 8167.640
766.2894, 8200.063
766.7715, 8210.997
767.2536, 8186.277
767.7357, 8152.423
768.2178, 8158.423
768.7000, 8195.574
769.1821, 8227.193
769.6642, 8239.570
770.1463, 8245.546
770.6284, 8253.828
771.1105, 8263.993
771.5927, 8275.229
772.0748, 8295.534
772.5569, 8307.250
773.0390, 8306.977
773.5211, 8295.376
774.0032, 8265.730
774.4854, 8204.164
774.9675, 8180.580
775.4496, 8232.604
775.9317, 8321.329
776.4138, 8346.014
776.8959, 8315.697
777.3781, 8280.626
777.8602, 8257.939
778.3423, 8249.029
778.8244, 8261.235
779.3065, 8289.760
779.7886, 8314.649
780.2708, 8334.220
780.7529, 8343.978
781.2350, 8339.059
781.7171, 8321.822
782.1992, 8314.963
782.6813, 8320.226
783.1635, 8329.279
783.6456, 8341.560
784.1277, 8353.809
784.6098, 8350.879
785.0919, 8334.789
785.5740, 8325.267
786.0562, 8343.168
786.5383, 8367.116
787.0204, 8378.020
787.5025, 8374.856
787.9846, 8373.901
788.4667, 8383.234
788.9489, 8391.399
789.4310, 8391.709
789.9131, 8383.198
790.3952, 8387.236
790.8773, 8406.638
791.3594, 8425.318
791.8416, 8431.390
792.3237, 8427.363
792.8058, 8417.512
793.2879, 8402.135
793.7700, 8388.893
794.2521, 8381.232
794.7343, 8379.162
795.2164, 8384.733
795.6985, 8401.032
796.1806, 8411.360
796.6627, 8409.765
797.1448, 8406.673
797.6270, 8409.458
798.1091, 8419.402
798.5912, 8425.409
799.0733, 8427.661
799.5554, 8424.756
800.0375, 8408.423
800.5197, 8387.832
801.0018, 8384.009
801.4839, 8402.158
801.9660, 8416.870
802.4481, 8407.209
802.9302, 8390.790
803.4124, 8383.547
803.8945, 8397.511
804.3766, 8397.092
804.8587, 8374.006
805.3408, 8347.469
805.8229, 8333.419
806.3051, 8331.847
806.7872, 8343.607
807.2693, 8371.097
807.7514, 8397.952
808.2335, 8409.480
808.7156, 8408.863
809.1978, 8398.194
809.6799, 8372.809
810.1620, 8354.731
810.6441, 8358.609
811.1262, 8371.116
811.6083, 8379.107
812.0905, 8379.701
812.5726, 8380.749
813.0547, 8380.459
813.5368, 8384.335
814.0189, 8405.467
814.5010, 8438.969
814.9832, 8452.430
815.4653, 8436.517
815.9474, 8420.056
816.4295, 8436.153
816.9116, 8464.611
817.3937, 8480.208
817.8759, 8472.478
818.3580, 8459.842
818.8401, 8441.578
819.3222, 8422.989
819.8043, 8407.916
820.2864, 8395.195
820.7686, 8392.565
821.2507, 8402.510
821.7328, 8417.294
822.2149, 8431.719
822.6970, 8442.668
823.1791, 8440.126
823.6613, 8417.648
824.1434, 8395.534
824.6255, 8380.662
825.1076, 8376.638
825.5897, 8387.757
826.0718, 8452.662
826.5540, 8474.158
827.0361, 8427.307
827.5182, 8365.886
828.0003, 8358.068
828.4824, 8403.222
828.9645, 8445.817
829.4467, 8480.538
829.9288, 8498.565
830.4109, 8473.072
830.8930, 8429.645
831.3751, 8409.376
831.8572, 8433.910
832.3394, 8457.410
832.8215, 8462.318
833.3036, 8459.146
833.7857, 8460.644
834.2678, 8471.050
834.7499, 8473.060
835.2321, 8419.984
835.7142, 8473.897
836.1963, 8505.010
836.6784, 8514.545
837.1605, 8437.879
837.6426, 8472.523
838.1248, 8462.561
838.6069, 8450.768
839.0890, 8501.079
839.5711, 8436.950
840.0532, 8486.277
840.5353, 8490.314
841.0175, 8515.080
841.4996, 8494.961
841.9817, 8488.705
842.4638, 8527.348
842.9459, 8541.130
843.4280, 8515.844
843.9102, 8541.928
844.3923, 8476.230
844.8744, 8491.071
845.3565, 8540.661
845.8386, 8517.632
846.3207, 8544.535
846.8029, 8552.422
847.2850, 8473.884
847.7671, 8545.646
848.2492, 8552.409
848.7313, 8492.431
849.2134, 8559.044
849.6956, 8508.267
850.1777, 8499.390
850.6598, 8522.047
851.1419, 8511.832
851.6240, 8553.443
852.1061, 8545.126
852.5883, 8532.349
853.0704, 8539.038
853.5525, 8490.562
854.0346, 8544.430
854.5167, 8528.388
854.9988, 8547.096
855.4810, 8573.682
855.9631, 8539.956
856.4452, 8570.080
856.9273, 8501.188
857.4094, 8515.146
857.8915, 8520.184
858.3737, 8578.177
858.8558, 8509.768
859.3379, 8521.424
859.8200, 8567.171
860.3021, 8565.217
860.7842, 8583.207
861.2664, 8542.155
861.7485, 8556.569
862.2306, 8555.694
862.7127, 8607.650
863.1948, 8617.898
863.6769, 8577.848
864.1591, 8538.012
864.6412, 8593.769
865.1233, 8558.921
865.6054, 8572.953
866.0875, 8536.503
866.5696, 8543.641
867.0518, 8550.088
867.5339, 8578.879
868.0160, 8539.915
868.4981, 8588.840
868.9802, 8586.968
869.4623, 8600.059
869.9445, 8611.486
870.4266, 8554.747
870.9087, 8553.888
871.3908, 8608.483
871.8729, 8621.875
872.3550, 8639.531
872.8372, 8653.772
873.3193, 8653.857
873.8014, 8642.999
874.2835, 8639.646
874.7656, 8651.973
875.2477, 8668.393
875.7299, 8690.432
876.2120, 8713.474
876.6941, 8716.624
877.1762, 8699.944
877.6583, 8685.134
878.1404, 8682.844
878.6226, 8686.242
879.1047, 8689.809
879.5869, 8691.795
880.0690, 8687.809
880.5511, 8660.890
881.0332, 8645.669
881.5153, 8663.456
881.9974, 8695.828
882.4796, 8702.690
882.9617, 8677.791
883.4438, 8664.239
883.9259, 8676.123
884.4080, 8696.010
884.8901, 8690.533
885.3723, 8671.781
885.8544, 8669.276
886.3365, 8706.320
886.8186, 8739.986
887.3007, 8751.435
887.7828, 8747.876
888.2650, 8739.257
888.7471, 8724.038
889.2292, 8707.868
889.7113, 8688.829
890.1934, 8674.306
890.6755, 8672.591
891.1577, 8683.124
891.6398, 8709.896
892.1219, 8759.078
892.6040, 8794.693
893.0861, 8776.652
893.5682, 8741.657
894.0504, 8724.783
894.5325, 8739.845
895.0146, 8751.310
895.4967, 8760.980
895.9788, 8763.735
896.4609, 8747.490
896.9431, 8717.888
897.4252, 8715.872
897.9073, 8743.941
898.3894, 8770.440
898.8715, 8765.170
899.3536, 8752.714
899.8358, 8756.592
900.3179, 8780.883
900.8000, 8794.940
901.2821, 8787.365
901.7642, 8781.942
902.2463, 8795.024
902.7285, 8821.101
903.2106, 8811.790
903.6927, 8768.679
904.1748, 8732.994
904.6569, 8735.354
905.1390, 8753.130
905.6212, 8766.495
906.1033, 8775.537
906.5854, 8783.813
907.0675, 8795.665
907.5496, 8801.727
908.0317, 8794.530
908.5139, 8782.128
908.9960, 8795.517
909.4781, 8834.798
909.9602, 8859.066
910.4423, 8848.233
910.9244, 8824.692
911.4066, 8808.307
911.8887, 8800.183
912.3708, 8802.245
912.8529, 8838.058
913.3350, 8854.056
913.8171, 8828.154
914.2993, 8787.532
914.7814, 8767.852
915.2635, 8770.385
915.7456, 8777.997
916.2277, 8789.138
916.7098, 8801.187
917.1920, 8813.813
917.6741, 8824.229
918.1562, 8826.291
918.6383, 8814.654
919.1204, 8809.620
919.6025, 8826.097
920.0847, 8844.100
920.5668, 8849.762
921.0489, 8841.037
921.5310, 8832.237
922.0131, 8822.384
922.4952, 8820.473
922.9774, 8840.368
923.4595, 8869.674
923.9416, 8889.947
924.4237, 8900.461
924.9058, 8909.965
925.3879, 8932.465
925.8701, 8943.147
926.3522, 8926.153
926.8343, 8886.639
927.3164, 8867.562
927.7985, 8870.261
928.2806, 8880.229
928.7628, 8893.864
929.2449, 8907.947
929.7270, 8915.736
930.2091, 8919.788
930.6912, 8927.271
931.1733, 8949.876
931.6555, 8965.877
932.1376, 8962.954
932.6197, 8951.838
933.1018, 8951.129
933.5839, 8962.717
934.0660, 8972.113
934.5482, 8979.006
935.0303, 8975.941
935.5124, 8938.748
935.9945, 8888.791
936.4766, 8865.675
936.9587, 8887.359
937.4409, 8910.558
937.9230, 8919.646
938.4051, 8926.479
938.8872, 8940.803
939.3693, 8964.848
939.8514, 8982.197
940.3336, 8991.319
940.8157, 9003.798
941.2978, 9044.642
941.7799, 9087.339
942.2620, 9084.543
942.7441, 9036.690
943.2263, 8998.926
943.7084, 8996.685
944.1905, 9006.238
944.6726, 9021.902
945.1547, 9041.333
945.6368, 9047.610
946.1190, 9039.907
946.6011, 9034.451
947.0832, 9044.146
947.5653, 9053.775
948.0474, 9033.854
948.5295, 8998.416
949.0117, 8980.106
949.4938, 9011.177
949.9759, 9033.863
950.4580, 9036.889
950.9401, 9026.636
951.4222, 9006.355
951.9044, 8975.408
952.3865, 8968.327
952.8686, 8993.881
953.3507, 9028.477
953.8328, 9051.813
954.3149, 9066.926
954.7971, 9076.287
955.2792, 9077.637
955.7613, 9083.556
956.2434, 9106.006
956.7255, 9121.316
957.2076, 9111.164
957.6898, 9076.504
958.1719, 9054.949
958.6540, 9046.180
959.1361, 9040.007
959.6182, 9023.575
960.1003, 9010.921
960.5825, 9019.173
961.0646, 9044.747
961.5467, 9064.153
962.0288, 9068.800
962.5109, 9073.531
962.9930, 9082.287
963.4752, 9092.647
963.9573, 9098.902
964.4394, 9101.174
964.9215, 9099.604
965.4036, 9090.479
965.8857, 9085.192
966.3679, 9099.158
966.8500, 9119.810
967.3321, 9130.416
967.8142, 9119.646
968.2963, 9115.349
968.7784, 9119.386
969.2606, 9126.438
969.7427, 9133.495
970.2248, 9139.126
970.7069, 9134.415
971.1890, 9118.930
971.6711, 9110.453
972.1533, 9124.003
972.6354, 9145.821
973.1175, 9174.190
973.5996, 9207.496
974.0817, 9207.334
974.5638, 9160.222
975.0460, 9128.304
975.5281, 9144.290
976.0102, 9185.174
976.4923, 9207.119
976.9744, 9212.741
977.4565, 9209.735
977.9387, 9184.320
978.4208, 9170.904
978.9029, 9195.709
979.3850, 9232.626
979.8671, 9244.808
980.3492, 9226.884
980.8314, 9214.541
981.3135, 9211.426
981.7956, 9215.296
982.2777, 9229.658
982.7598, 9246.677
983.2419, 9251.876
983.7241, 9240.592
984.2062, 9239.602
984.6883, 9271.027
985.1704, 9300.166
985.6525, 9311.055
986.1346, 9305.363
986.6168, 9298.899
987.0989, 9291.792
987.5810, 9288.061
988.0631, 9296.774
988.5452, 9304.238
989.0273, 9291.386
989.5095, 9267.190
989.9916, 9254.781
990.4737, 9258.426
990.9558, 9277.107
991.4379, 9319.077
991.9200, 9363.887
992.4022, 9377.315
992.8843, 9364.925
993.3664, 9347.163
993.8485, 9325.034
994.3306, 9316.381
994.8127, 9346.289
995.2949, 9386.560
995.7770, 9414.335
996.2591, 9428.714
996.7412, 9424.245
997.2233, 9393.342
997.7054, 9371.387
998.1876, 9384.202
998.6697, 9419.317
999.1518, 9463.372
999.6339, 9508.207
1000.116, 9522.357
1000.598, 9455.188
1001.080, 9397.180
1001.562, 9378.300
1002.044, 9388.275
1002.527, 9420.291
1003.009, 9477.883
1003.491, 9496.363
1003.973, 9455.483
1004.455, 9407.989
1004.937, 9417.820
1005.419, 9453.270
1005.901, 9474.688
1006.384, 9472.063
1006.866, 9467.551
1007.348, 9459.500
1007.830, 9457.048
1008.312, 9469.018
1008.794, 9491.487
1009.276, 9498.329
1009.758, 9491.657
1010.240, 9489.313
1010.723, 9508.237
1011.205, 9528.331
1011.687, 9538.941
1012.169, 9540.540
1012.651, 9535.584
1013.133, 9522.118
1013.615, 9507.032
1014.097, 9488.938
1014.580, 9475.915
1015.062, 9480.120
1015.544, 9497.248
1016.026, 9523.222
1016.508, 9560.641
1016.990, 9585.628
1017.472, 9576.526
1017.954, 9563.152
1018.436, 9563.037
1018.919, 9575.429
1019.401, 9585.486
1019.883, 9593.226
1020.365, 9593.493
1020.847, 9574.503
1021.329, 9553.953
1021.811, 9547.327
1022.293, 9553.177
1022.776, 9568.365
1023.258, 9607.411
1023.740, 9628.849
1024.222, 9621.993
1024.704, 9607.374
1025.186, 9622.879
1025.668, 9654.682
1026.150, 9644.363
1026.632, 9579.423
1027.115, 9534.062
1027.597, 9577.310
1028.079, 9635.197
1028.561, 9655.829
1029.043, 9640.498
1029.525, 9632.665
1030.007, 9632.743
1030.489, 9638.113
1030.972, 9649.978
1031.454, 9663.822
1031.936, 9683.187
1032.418, 9698.587
1032.900, 9689.668
1033.382, 9604.734
1033.864, 9561.720
1034.346, 9588.452
1034.828, 9637.438
1035.311, 9651.179
1035.793, 9637.138
1036.275, 9649.991
1036.757, 9694.412
1037.239, 9729.931
1037.721, 9710.914
1038.203, 9687.365
1038.685, 9699.260
1039.167, 9743.214
1039.650, 9772.129
1040.132, 9783.782
1040.614, 9787.487
1041.096, 9781.009
1041.578, 9777.086
1042.060, 9809.897
1042.542, 9857.005
1043.024, 9873.934
1043.507, 9821.237
1043.989, 9790.353
1044.471, 9806.997
1044.953, 9838.922
1045.435, 9866.762
1045.917, 9889.637
1046.399, 9892.063
1046.881, 9874.713
1047.364, 9857.854
1047.846, 9856.227
1048.328, 9858.825
1048.810, 9859.244
1049.292, 9857.494
1049.774, 9854.605
1050.256, 9848.938
1050.738, 9848.587
1051.220, 9856.351
1051.703, 9866.816
1052.185, 9870.703
1052.667, 9872.212
1053.149, 9877.823
1053.631, 9888.378
1054.113, 9905.389
1054.595, 9936.681
1055.077, 9966.519
1055.559, 9992.003
1056.042, 10009.82
1056.524, 9986.146
1057.006, 9927.224
1057.488, 9884.105
1057.970, 9900.448
1058.452, 9925.004
1058.934, 9924.433
1059.416, 9910.403
1059.899, 9904.028
1060.381, 9903.335
1060.863, 9924.414
1061.345, 9975.588
1061.827, 10018.87
1062.309, 9995.332
1062.791, 9948.914
1063.273, 9951.582
1063.755, 10008.16
1064.238, 10054.67
1064.720, 10079.50
1065.202, 10082.00
1065.684, 10051.94
1066.166, 10006.15
1066.648, 9989.333
1067.130, 9999.506
1067.612, 10029.57
1068.094, 10089.15
1068.577, 10139.59
1069.059, 10151.57
1069.541, 10147.36
1070.023, 10150.41
1070.505, 10164.60
1070.987, 10161.44
1071.469, 10138.17
1071.951, 10123.85
1072.434, 10147.90
1072.916, 10185.03
1073.398, 10210.72
1073.880, 10224.38
1074.362, 10225.60
1074.844, 10198.79
1075.326, 10186.17
1075.808, 10195.30
1076.291, 10216.11
1076.773, 10233.59
1077.255, 10251.35
1077.737, 10283.56
1078.219, 10332.97
1078.701, 10373.38
1079.183, 10381.97
1079.665, 10386.87
1080.147, 10403.90
1080.630, 10429.99
1081.112, 10440.81
1081.594, 10437.53
1082.076, 10459.42
1082.558, 10538.10
1083.040, 10615.04
1083.522, 10633.28
1084.004, 10620.00
1084.486, 10610.09
1084.969, 10604.94
1085.451, 10610.19
1085.933, 10626.76
1086.415, 10649.95
1086.897, 10685.18
1087.379, 10720.04
1087.861, 10724.66
1088.343, 10707.06
1088.826, 10702.77
1089.308, 10737.41
1089.790, 10770.30
1090.272, 10796.56
1090.754, 10814.68
1091.236, 10818.65
1091.718, 10811.72
1092.200, 10807.60
1092.682, 10808.05
1093.165, 10815.20
1093.647, 10848.60
1094.129, 10871.83
1094.611, 10851.44
1095.093, 10797.46
1095.575, 10783.88
1096.057, 10812.17
1096.539, 10846.83
1097.022, 10880.61
1097.504, 10902.51
1097.986, 10898.31
1098.468, 10875.96
1098.950, 10842.85
1099.432, 10782.18
1099.914, 10765.17
1100.396, 10804.78
1100.879, 10846.79
1101.361, 10845.46
1101.843, 10822.65
1102.325, 10818.60
1102.807, 10830.93
1103.289, 10849.00
1103.771, 10890.78
1104.253, 10905.74
1104.735, 10875.12
1105.218, 10829.35
1105.700, 10816.28
1106.182, 10826.67
1106.664, 10809.82
1107.146, 10759.38
1107.628, 10724.43
1108.110, 10756.79
1108.592, 10790.89
1109.074, 10784.13
1109.557, 10748.79
1110.039, 10739.00
1110.521, 10755.19
1111.003, 10755.23
1111.485, 10721.58
1111.967, 10684.29
1112.449, 10669.33
1112.931, 10668.24
1113.414, 10675.69
1113.896, 10696.04
1114.378, 10693.51
1114.860, 10663.10
1115.342, 10631.63
1115.824, 10614.71
1116.306, 10605.42
1116.788, 10599.29
1117.271, 10591.42
1117.753, 10570.63
1118.235, 10507.92
1118.717, 10471.74
1119.199, 10471.70
1119.681, 10487.52
1120.163, 10509.42
1120.645, 10529.52
1121.127, 10515.93
1121.609, 10471.78
1122.092, 10438.75
1122.574, 10450.30
1123.056, 10461.74
1123.538, 10458.93
1124.020, 10446.52
1124.502, 10430.22
1124.984, 10411.34
1125.466, 10405.85
1125.949, 10419.75
1126.431, 10420.47
1126.913, 10364.79
1127.395, 10305.01
1127.877, 10285.73
1128.359, 10300.35
1128.841, 10287.24
1129.323, 10243.91
1129.806, 10218.53
1130.288, 10234.99
1130.770, 10262.55
1131.252, 10277.32
1131.734, 10280.90
1132.216, 10273.90
1132.698, 10253.86
1133.180, 10231.38
1133.662, 10203.79
1134.145, 10185.81
1134.627, 10202.29
1135.109, 10223.73
1135.591, 10191.22
1136.073, 10126.29
1136.555, 10084.40
1137.037, 10100.55
1137.519, 10112.78
1138.001, 10117.88
1138.484, 10117.42
1138.966, 10112.03
1139.448, 10102.52
1139.930, 10089.91
1140.412, 10074.58
1140.894, 10060.34
1141.376, 10046.27
1141.858, 10036.31
1142.341, 10029.87
1142.823, 10029.21
1143.305, 10047.05
1143.787, 10075.71
1144.269, 10076.27
1144.751, 10039.47
1145.233, 10005.84
1145.715, 9995.362
1146.198, 9998.499
1146.680, 10014.19
1147.162, 10037.47
1147.644, 10044.12
1148.126, 10034.91
1148.608, 10018.79
1149.090, 9993.497
1149.572, 9975.355
1150.054, 9990.289
1150.536, 10008.49
1151.019, 9997.612
1151.501, 9954.107
1151.983, 9927.976
1152.465, 9919.391
1152.947, 9920.215
1153.429, 9931.245
1153.911, 9943.859
1154.393, 9955.928
1154.876, 9961.865
1155.358, 9947.817
1155.840, 9897.256
1156.322, 9881.727
1156.804, 9908.479
1157.286, 9937.579
1157.768, 9933.502
1158.250, 9915.623
1158.733, 9906.434
1159.215, 9904.784
1159.697, 9903.354
1160.179, 9901.403
1160.661, 9897.340
1161.143, 9888.442
1161.625, 9884.690
1162.107, 9903.863
1162.589, 9933.167
1163.072, 9953.128
1163.554, 9962.043
1164.036, 9959.808
1164.518, 9934.756
1165.000, 9919.460
1165.482, 9926.322
1165.964, 9939.174
1166.446, 9924.675
1166.928, 9894.380
1167.411, 9873.082
1167.893, 9865.525
1168.375, 9866.047
1168.857, 9876.946
1169.339, 9891.386
1169.821, 9910.909
1170.303, 9929.137
1170.785, 9923.202
1171.268, 9899.732
1171.750, 9880.319
1172.232, 9872.986
1172.714, 9867.623
1173.196, 9853.969
1173.678, 9848.225
1174.160, 9866.016
1174.642, 9901.353
1175.125, 9908.894
1175.607, 9893.820
1176.089, 9884.541
1176.571, 9908.305
1177.053, 9922.376
1177.535, 9893.288
1178.017, 9856.783
1178.499, 9849.930
1178.981, 9872.108
1179.464, 9867.960
1179.946, 9838.954
1180.428, 9819.143
1180.910, 9840.842
1181.392, 9865.524
1181.874, 9868.195
1182.356, 9863.273
1182.838, 9877.712
1183.320, 9913.020
1183.803, 9918.865
1184.285, 9890.364
1184.767, 9866.520
1185.249, 9882.873
1185.731, 9907.876
1186.213, 9925.816
1186.695, 9933.969
1187.177, 9922.248
1187.660, 9888.339
1188.142, 9872.872
1188.624, 9884.559
1189.106, 9898.918
1189.588, 9892.235
1190.070, 9881.061
1190.552, 9876.850
1191.034, 9880.529
1191.516, 9897.305
1191.999, 9930.560
1192.481, 9940.362
1192.963, 9909.677
1193.445, 9879.766
1193.927, 9910.911
1194.409, 9950.751
1194.891, 9934.590
1195.373, 9857.132
1195.855, 9829.727
1196.338, 9858.280
1196.820, 9884.203
1197.302, 9883.155
1197.784, 9873.119
1198.266, 9868.401
1198.748, 9869.120
1199.230, 9878.691
1199.712, 9901.147
1200.195, 9901.165
1200.677, 9873.747
1201.159, 9860.146
1201.641, 9897.045
1202.123, 9940.532
1202.605, 9924.861
1203.087, 9886.651
1203.569, 9891.454
1204.052, 9976.408
1204.534, 10006.38
1205.016, 9974.538
1205.498, 9930.010
1205.980, 9891.267
1206.462, 9870.382
1206.944, 9899.006
1207.426, 9953.196
1207.908, 9974.828
1208.391, 9944.908
1208.873, 9925.136
1209.355, 9918.793
1209.837, 9917.710
1210.319, 9914.107
1210.801, 9912.604
1211.283, 9913.705
1211.765, 9921.372
1212.247, 9954.320
1212.730, 10036.35
1213.212, 10063.59
1213.694, 10016.29
1214.176, 9956.082
1214.658, 9941.291
1215.140, 9946.837
1215.622, 9944.265
1216.104, 9934.660
1216.587, 9935.648
1217.069, 9953.251
1217.551, 9962.752
1218.033, 9958.864
1218.515, 9951.619
1218.997, 9951.406
1219.479, 9954.540
1219.961, 9958.116
1220.443, 9961.443
1220.926, 9960.896
1221.408, 9955.839
1221.890, 9948.101
1222.372, 9936.188
1222.854, 9928.488
1223.336, 9942.362
1223.818, 9961.421
1224.300, 9964.217
1224.782, 9947.639
1225.265, 9941.149
1225.747, 9944.959
1226.229, 9960.553
1226.711, 9993.310
1227.193, 10024.43
1227.675, 10028.84
1228.157, 10019.96
1228.639, 10012.10
1229.122, 10006.80
1229.604, 10004.29
1230.086, 10003.50
1230.568, 10015.66
1231.050, 10057.19
1231.532, 10087.91
1232.014, 10039.91
1232.496, 9966.146
1232.979, 9934.688
1233.461, 9955.321
1233.943, 9969.732
1234.425, 9976.874
1234.907, 9988.041
1235.389, 10015.14
1235.871, 10037.80
1236.353, 10031.08
1236.835, 10010.78
1237.318, 9996.604
1237.800, 9989.152
1238.282, 9993.554
1238.764, 10010.82
1239.246, 10017.69
1239.728, 9986.856
1240.210, 9958.503
1240.692, 9975.121
1241.175, 10010.60
1241.657, 10028.14
1242.139, 10023.28
1242.621, 10025.49
1243.103, 10034.87
1243.585, 10046.24
1244.067, 10060.96
1244.549, 10071.87
1245.031, 10077.76
1245.514, 10074.24
1245.996, 10053.90
1246.478, 10014.02
1246.960, 9984.885
1247.442, 9967.288
1247.924, 9969.210
1248.406, 10014.86
1248.888, 10060.46
1249.370, 10082.11
1249.853, 10088.84
1250.335, 10091.51
1250.817, 10090.17
1251.299, 10086.12
1251.781, 10079.56
1252.263, 10072.29
1252.745, 10051.22
1253.227, 10047.30
1253.710, 10097.59
1254.192, 10153.61
1254.674, 10142.33
1255.156, 10076.54
1255.638, 10052.56
1256.120, 10072.80
1256.602, 10092.97
1257.084, 10081.74
1257.567, 10076.27
1258.049, 10094.06
1258.531, 10116.13
1259.013, 10113.17
1259.495, 10092.07
1259.977, 10076.24
1260.459, 10067.59
1260.941, 10064.42
1261.423, 10067.51
1261.906, 10074.14
1262.388, 10082.15
1262.870, 10095.67
1263.352, 10132.25
1263.834, 10175.36
1264.316, 10178.58
1264.798, 10141.76
1265.280, 10117.34
1265.762, 10129.54
1266.245, 10142.86
1266.727, 10153.28
1267.209, 10157.59
1267.691, 10141.26
1268.173, 10120.76
1268.655, 10129.53
1269.137, 10167.94
1269.619, 10188.15
1270.102, 10173.79
1270.584, 10175.18
1271.066, 10207.91
1271.548, 10241.69
1272.030, 10234.91
1272.512, 10209.25
1272.994, 10186.71
1273.476, 10170.10
1273.958, 10159.22
1274.441, 10154.10
1274.923, 10154.49
1275.405, 10160.76
1275.887, 10170.63
1276.369, 10191.10
1276.851, 10206.72
1277.333, 10192.25
1277.815, 10156.01
1278.297, 10159.09
1278.780, 10204.49
1279.262, 10219.37
1279.744, 10181.30
1280.226, 10146.37
1280.708, 10175.81
1281.190, 10210.35
1281.672, 10197.61
1282.154, 10156.18
1282.637, 10161.71
1283.119, 10207.90
1283.601, 10232.08
1284.083, 10218.49
1284.565, 10202.46
1285.047, 10199.84
1285.529, 10208.31
1286.011, 10235.17
1286.494, 10264.63
1286.976, 10236.96
1287.458, 10173.21
1287.940, 10150.53
1288.422, 10190.68
1288.904, 10220.54
1289.386, 10195.33
1289.868, 10180.89
1290.350, 10205.35
1290.833, 10242.93
1291.315, 10234.42
1291.797, 10202.65
1292.279, 10194.83
1292.761, 10222.81
1293.243, 10244.39
1293.725, 10252.30
1294.207, 10260.47
1294.689, 10275.92
1295.172, 10288.23
1295.654, 10278.25
1296.136, 10257.98
1296.618, 10244.18
1297.100, 10239.89
1297.582, 10224.84
1298.064, 10194.77
1298.546, 10182.87
1299.029, 10205.34
1299.511, 10230.56
1299.993, 10219.71
1300.475, 10199.41
1300.957, 10195.81
1301.439, 10207.47
1301.921, 10223.82
##END=



