##NAMES=Ankerite
##RRUFFID=R050197
##IDEAL CHEMISTRY=CaFe^2+^(CO_3_)_2_
##LOCALITY=Brownley Hill mine, Nenthead, Cumbria, England
##OWNER=RRUFF
##SOURCE=Marcus Origlieri
##DESCRIPTION=Curved saddle-shaped rhombohedral crystals
##STATUS=The identification of this mineral has been confirmed by X-ray diffraction and chemical analysis
##URL=rruff.info/R050197
##MEASURED CHEMISTRY=Ca_1.00_(Fe^2+^_0.52_Mg_0.35_Ca_0.08_Mn^2+^_0.05_)_Î£=1_(CO_3_)_2_ ; where C was not measured but estimated by difference and stoichiometry
93.77539, 4.159076
94.25751, 3.983056
94.73962, 4.120283
95.22174, 4.492841
95.70386, 4.818063
96.18597, 4.923524
96.66809, 4.893305
97.15021, 5.008010
97.63232, 5.277694
98.11444, 5.651829
98.59656, 6.064377
99.07867, 6.516688
99.56079, 7.018788
100.0429, 7.596401
100.5250, 8.248512
101.0071, 8.848540
101.4893, 9.358643
101.9714, 9.845252
102.4535, 10.45216
102.9356, 11.20928
103.4177, 12.01523
103.8998, 12.81595
104.3820, 13.63531
104.8641, 14.39664
105.3462, 15.07038
105.8283, 15.67970
106.3104, 16.40592
106.7925, 17.34020
107.2747, 18.28526
107.7568, 19.09437
108.2389, 19.75528
108.7210, 20.30674
109.2031, 20.68067
109.6852, 20.86127
110.1674, 21.23506
110.6495, 21.81857
111.1316, 22.59350
111.6137, 23.54215
112.0958, 24.81533
112.5779, 26.12758
113.0601, 27.39907
113.5422, 28.60411
114.0243, 29.94840
114.5064, 31.61849
114.9885, 33.39548
115.4706, 35.02969
115.9528, 36.34193
116.4349, 37.58553
116.9170, 38.88936
117.3991, 40.38731
117.8812, 41.65870
118.3633, 42.34582
118.8455, 42.70518
119.3276, 43.23759
119.8097, 44.28213
120.2918, 45.50780
120.7739, 46.67373
121.2560, 47.73755
121.7382, 48.74540
122.2203, 49.70113
122.7024, 50.61716
123.1845, 51.53492
123.6666, 52.53521
124.1487, 53.52841
124.6309, 54.40810
125.1130, 55.01233
125.5951, 55.61269
126.0772, 56.49275
126.5593, 57.63431
127.0414, 58.87373
127.5236, 60.08251
128.0057, 61.28984
128.4878, 62.59310
128.9699, 64.03079
129.4520, 65.56473
129.9341, 67.18261
130.4162, 68.89191
130.8984, 70.51432
131.3805, 71.75878
131.8626, 72.70494
132.3447, 73.77905
132.8268, 75.16607
133.3089, 76.81734
133.7911, 78.35837
134.2732, 79.55573
134.7553, 80.52679
135.2374, 81.62517
135.7195, 82.85905
136.2016, 83.97363
136.6838, 84.82071
137.1659, 85.40443
137.6480, 85.99773
138.1301, 86.55452
138.6122, 87.20129
139.0943, 88.28334
139.5765, 89.93546
140.0586, 91.46339
140.5407, 92.49122
141.0228, 92.91091
141.5049, 93.41831
141.9870, 93.98739
142.4692, 94.68482
142.9513, 95.72094
143.4334, 97.21725
143.9155, 98.82278
144.3976, 100.3460
144.8797, 101.6472
145.3619, 103.1772
145.8440, 104.9651
146.3261, 106.9981
146.8082, 109.1045
147.2903, 111.4204
147.7724, 113.6831
148.2546, 115.7390
148.7367, 117.2308
149.2188, 119.0365
149.7009, 121.3032
150.1830, 124.0019
150.6651, 126.6389
151.1473, 129.0500
151.6294, 131.4938
152.1115, 134.1252
152.5936, 137.1995
153.0757, 140.1870
153.5578, 142.9462
154.0400, 145.4316
154.5221, 148.0824
155.0042, 151.0105
155.4863, 154.0905
155.9684, 157.2095
156.4505, 160.5089
156.9327, 163.7306
157.4148, 166.7080
157.8969, 169.3401
158.3790, 172.2954
158.8611, 175.8351
159.3432, 179.7340
159.8254, 183.7575
160.3075, 187.4262
160.7896, 191.5662
161.2717, 196.7113
161.7538, 203.1185
162.2359, 209.3032
162.7181, 214.5944
163.2002, 219.4052
163.6823, 224.3062
164.1644, 229.8781
164.6465, 235.3296
165.1286, 240.3449
165.6108, 245.0003
166.0929, 248.8256
166.5750, 251.7018
167.0571, 253.6246
167.5392, 254.5833
168.0213, 254.6722
168.5035, 253.7377
168.9856, 251.6623
169.4677, 248.4007
169.9498, 244.0343
170.4319, 238.3676
170.9140, 231.6174
171.3962, 224.3352
171.8783, 216.5971
172.3604, 208.5742
172.8425, 200.3964
173.3246, 191.9784
173.8067, 183.5902
174.2889, 175.2124
174.7710, 166.9613
175.2531, 159.3047
175.7352, 152.8758
176.2173, 147.1773
176.6994, 141.5454
177.1816, 135.7176
177.6637, 130.1200
178.1458, 125.1978
178.6279, 120.8709
179.1100, 117.0064
179.5921, 113.5373
180.0743, 110.4080
180.5564, 107.5918
181.0385, 105.1336
181.5206, 102.8543
182.0027, 100.3991
182.4848, 97.81775
182.9670, 95.58220
183.4491, 94.26301
183.9312, 93.56711
184.4133, 92.68707
184.8954, 91.37955
185.3775, 89.85771
185.8597, 88.38753
186.3418, 86.97812
186.8239, 85.75874
187.3060, 84.99708
187.7881, 84.56534
188.2702, 83.91930
188.7523, 82.83192
189.2345, 81.51472
189.7166, 80.42954
190.1987, 79.56950
190.6808, 78.89748
191.1629, 78.48686
191.6451, 78.29573
192.1272, 77.95450
192.6093, 77.29230
193.0914, 76.45132
193.5735, 75.85748
194.0556, 75.51633
194.5378, 75.34553
195.0199, 75.35873
195.5020, 75.54359
195.9841, 75.57241
196.4662, 75.27976
196.9483, 74.77424
197.4305, 74.56650
197.9126, 74.70559
198.3947, 74.91288
198.8768, 74.87058
199.3589, 74.56333
199.8410, 74.32153
200.3232, 74.23750
200.8053, 74.28645
201.2874, 74.34451
201.7695, 74.42551
202.2516, 74.47043
202.7337, 74.38525
203.2159, 74.14778
203.6980, 73.97710
204.1801, 73.95019
204.6622, 74.04958
205.1443, 74.12253
205.6264, 74.20033
206.1086, 74.18279
206.5907, 73.87639
207.0728, 73.18957
207.5549, 72.72258
208.0370, 72.67889
208.5191, 73.02943
209.0013, 73.28574
209.4834, 73.44534
209.9655, 73.51685
210.4476, 73.47673
210.9297, 73.27757
211.4118, 73.15184
211.8940, 73.18066
212.3761, 73.35903
212.8582, 73.45487
213.3403, 73.44897
213.8224, 73.39279
214.3045, 73.30028
214.7867, 73.09268
215.2688, 73.10403
215.7509, 73.51881
216.2330, 74.32862
216.7151, 74.73656
217.1972, 74.56255
217.6794, 74.23184
218.1615, 74.22414
218.6436, 74.68308
219.1257, 75.08770
219.6078, 75.31322
220.0899, 75.36109
220.5721, 75.36425
221.0542, 75.28453
221.5363, 75.20577
222.0184, 75.21669
222.5005, 75.33772
222.9826, 75.50768
223.4648, 75.75278
223.9469, 76.07986
224.4290, 76.20277
224.9111, 75.97568
225.3932, 75.71599
225.8753, 75.75670
226.3575, 76.22921
226.8396, 76.72359
227.3217, 77.15677
227.8038, 77.53408
228.2859, 77.90337
228.7680, 78.25391
229.2502, 78.60925
229.7323, 78.97635
230.2144, 79.32246
230.6965, 79.75959
231.1786, 80.33726
231.6607, 81.05546
232.1429, 81.71210
232.6250, 82.25568
233.1071, 82.79533
233.5892, 83.43209
234.0713, 84.22863
234.5534, 84.99236
235.0356, 85.67522
235.5177, 86.27496
235.9998, 86.91239
236.4819, 87.63836
236.9640, 88.35355
237.4461, 88.95443
237.9283, 89.31160
238.4104, 89.80502
238.8925, 90.48351
239.3746, 91.34884
239.8567, 92.38517
240.3388, 93.76572
240.8210, 95.12307
241.3031, 96.13411
241.7852, 96.53599
242.2673, 97.11954
242.7494, 98.00072
243.2315, 99.16660
243.7137, 100.4093
244.1958, 101.7501
244.6779, 103.1529
245.1600, 104.5977
245.6421, 106.1059
246.1242, 107.6077
246.6064, 109.0619
247.0885, 110.4922
247.5706, 112.0710
248.0527, 113.8156
248.5348, 115.6706
249.0169, 117.5925
249.4990, 119.6495
249.9812, 121.6307
250.4633, 123.3985
250.9454, 125.0641
251.4275, 127.1874
251.9096, 129.8928
252.3917, 132.8506
252.8739, 135.8541
253.3560, 138.9444
253.8381, 142.0045
254.3202, 144.9154
254.8023, 147.8137
255.2844, 151.1871
255.7666, 155.2607
256.2487, 159.4208
256.7308, 163.1966
257.2129, 166.2015
257.6950, 169.9624
258.1772, 174.7842
258.6593, 180.2913
259.1414, 185.5829
259.6235, 190.5119
260.1056, 195.5294
260.5877, 200.9570
261.0699, 206.8352
261.5520, 212.8404
262.0341, 219.0633
262.5162, 225.3444
262.9983, 231.4310
263.4804, 237.0598
263.9626, 242.9983
264.4447, 249.5475
264.9268, 256.8506
265.4089, 264.3953
265.8910, 272.2876
266.3731, 280.3845
266.8553, 288.6408
267.3374, 297.0102
267.8195, 305.5185
268.3016, 313.9599
268.7837, 322.4153
269.2658, 331.1278
269.7480, 340.0416
270.2301, 349.2806
270.7122, 359.0299
271.1943, 369.4865
271.6764, 379.6335
272.1585, 388.7433
272.6407, 396.8103
273.1228, 405.8592
273.6049, 416.1940
274.0870, 426.7710
274.5691, 436.4382
275.0512, 444.9733
275.5334, 453.4518
276.0155, 462.3596
276.4976, 471.5615
276.9797, 479.4934
277.4618, 485.9270
277.9439, 491.7157
278.4261, 497.9077
278.9081, 504.6244
279.3903, 510.3747
279.8724, 514.7868
280.3545, 517.9294
280.8366, 520.1612
281.3187, 521.4092
281.8008, 522.1096
282.2830, 522.7659
282.7651, 523.3973
283.2472, 523.1405
283.7293, 521.8306
284.2114, 519.5357
284.6935, 516.4395
285.1757, 512.5116
285.6578, 507.9529
286.1399, 502.9247
286.6220, 497.4107
287.1041, 491.1671
287.5862, 484.0285
288.0684, 476.2988
288.5505, 468.8852
289.0326, 461.7590
289.5147, 454.0938
289.9968, 445.1069
290.4789, 434.9831
290.9611, 425.1917
291.4432, 415.9369
291.9253, 406.6178
292.4074, 396.3155
292.8895, 385.0268
293.3716, 373.6950
293.8538, 362.6705
294.3359, 351.9018
294.8180, 341.1761
295.3001, 330.5734
295.7822, 320.0904
296.2643, 309.7666
296.7465, 299.6234
297.2286, 289.5898
297.7107, 279.3151
298.1928, 269.0803
298.6749, 259.6646
299.1570, 251.0398
299.6392, 242.8970
300.1213, 235.2933
300.6034, 228.0360
301.0855, 220.9436
301.5676, 213.8412
302.0497, 206.8284
302.5319, 200.0950
303.0140, 193.5883
303.4961, 187.4588
303.9782, 181.8388
304.4603, 176.6477
304.9424, 171.4865
305.4246, 166.1524
305.9067, 160.9913
306.3888, 156.4883
306.8709, 152.5895
307.3530, 148.9198
307.8351, 145.3526
308.3173, 141.8765
308.7994, 138.4789
309.2815, 135.0885
309.7636, 131.8394
310.2457, 128.8539
310.7278, 126.0748
311.2100, 123.4295
311.6921, 120.8510
312.1742, 118.3849
312.6563, 116.1392
313.1384, 114.1304
313.6205, 112.2775
314.1027, 110.6264
314.5848, 109.0779
315.0669, 107.4469
315.5490, 105.3964
316.0311, 103.4247
316.5132, 101.9087
316.9954, 100.9001
317.4775, 100.0017
317.9596, 99.08650
318.4417, 98.17608
318.9238, 97.28269
319.4059, 96.51955
319.8881, 95.67651
320.3702, 94.58613
320.8523, 93.25658
321.3344, 92.10525
321.8165, 91.38870
322.2986, 90.82246
322.7808, 90.19053
323.2629, 89.40275
323.7450, 88.59758
324.2271, 87.77164
324.7092, 86.94555
325.1913, 86.17991
325.6735, 85.54662
326.1556, 84.93371
326.6377, 84.28276
327.1198, 83.52288
327.6019, 82.82455
328.0840, 82.20334
328.5662, 81.65511
329.0483, 81.15137
329.5304, 80.76985
330.0125, 80.36272
330.4946, 79.85641
330.9767, 79.14927
331.4589, 78.62991
331.9410, 78.44360
332.4231, 78.37652
332.9052, 78.12581
333.3873, 77.57004
333.8694, 77.00875
334.3516, 76.51482
334.8337, 76.08916
335.3158, 75.66995
335.7979, 75.26125
336.2800, 74.85643
336.7621, 74.45588
337.2443, 74.05478
337.7264, 73.66089
338.2085, 73.27349
338.6906, 72.89440
339.1727, 72.51626
339.6548, 72.14436
340.1370, 71.76025
340.6191, 71.29976
341.1012, 70.73625
341.5833, 70.41131
342.0654, 70.48476
342.5475, 70.68261
343.0297, 70.25188
343.5118, 69.09959
343.9939, 68.04166
344.4760, 67.59168
344.9581, 67.70414
345.4402, 67.74689
345.9224, 67.72341
346.4045, 67.56223
346.8866, 67.06413
347.3687, 66.25895
347.8508, 65.56428
348.3329, 65.18501
348.8151, 65.02787
349.2972, 64.84833
349.7793, 64.64773
350.2614, 64.42043
350.7435, 64.14664
351.2256, 63.84355
351.7078, 63.55640
352.1899, 63.30914
352.6720, 63.07493
353.1541, 62.81962
353.6362, 62.54121
354.1183, 62.24113
354.6005, 61.86400
355.0826, 61.48403
355.5647, 61.21843
356.0468, 61.12406
356.5289, 61.05174
357.0110, 60.80599
357.4932, 60.47667
357.9753, 60.27452
358.4574, 60.50590
358.9395, 60.77865
359.4216, 60.72145
359.9037, 60.26941
360.3859, 59.84169
360.8680, 59.74665
361.3501, 59.79286
361.8322, 59.74843
362.3143, 59.39327
362.7964, 59.05876
363.2786, 58.94106
363.7607, 59.01641
364.2428, 59.00354
364.7249, 58.64787
365.2070, 58.26828
365.6891, 58.08827
366.1713, 58.35883
366.6534, 58.56667
367.1355, 58.60921
367.6176, 58.52128
368.0997, 58.39834
368.5818, 58.17028
369.0640, 57.97973
369.5461, 57.91545
370.0282, 58.13857
370.5103, 58.09623
370.9924, 57.55420
371.4745, 56.84966
371.9567, 56.42762
372.4388, 56.42717
372.9209, 56.51434
373.4030, 56.65483
373.8851, 56.85199
374.3672, 56.94257
374.8494, 56.86117
375.3315, 56.76156
375.8136, 56.78434
376.2957, 56.98093
376.7778, 57.12669
377.2599, 57.19757
377.7421, 57.19600
378.2242, 57.11064
378.7063, 56.92131
379.1884, 56.72921
379.6705, 56.57453
380.1526, 56.45552
380.6348, 56.45591
381.1169, 56.61819
381.5990, 56.79850
382.0811, 56.78045
382.5632, 56.57330
383.0453, 56.31023
383.5275, 55.97493
384.0096, 55.63691
384.4917, 55.57403
384.9738, 55.79617
385.4559, 56.00061
385.9380, 55.84667
386.4202, 55.46367
386.9023, 55.18977
387.3844, 55.14995
387.8665, 55.18643
388.3486, 55.08093
388.8307, 54.87206
389.3129, 54.71521
389.7950, 54.75724
390.2771, 54.87403
390.7592, 54.91681
391.2413, 54.84702
391.7234, 54.79571
392.2056, 54.92580
392.6877, 55.12007
393.1698, 55.19789
393.6519, 54.92794
394.1340, 54.65893
394.6161, 54.61538
395.0983, 54.79482
395.5804, 54.92180
396.0625, 54.97195
396.5446, 54.88866
397.0267, 54.62289
397.5089, 53.73820
397.9910, 53.18233
398.4731, 53.34971
398.9552, 53.99894
399.4373, 54.40590
399.9194, 54.25949
400.4016, 54.07015
400.8837, 54.04386
401.3658, 54.29287
401.8479, 54.35851
402.3300, 54.13322
402.8121, 53.79160
403.2942, 53.52508
403.7763, 53.28271
404.2585, 53.22301
404.7406, 53.44340
405.2227, 53.90757
405.7048, 54.23337
406.1869, 54.41433
406.6690, 54.46647
407.1512, 54.36414
407.6333, 54.08403
408.1154, 53.84937
408.5975, 53.68743
409.0796, 53.57033
409.5617, 53.40620
410.0439, 53.19117
410.5260, 53.07736
411.0081, 53.22084
411.4902, 53.54048
411.9723, 53.67291
412.4544, 53.60095
412.9366, 53.48234
413.4187, 53.44884
413.9008, 53.49261
414.3829, 53.60505
414.8650, 53.85287
415.3471, 54.08656
415.8293, 54.07324
416.3114, 53.85619
416.7935, 53.63842
417.2756, 53.61958
417.7577, 53.63017
418.2398, 53.43750
418.7220, 52.93484
419.2041, 52.54985
419.6862, 52.65639
420.1683, 53.02581
420.6504, 53.30146
421.1325, 53.30278
421.6147, 53.23767
422.0968, 53.19138
422.5789, 53.16549
423.0610, 53.12174
423.5431, 53.01715
424.0252, 52.91170
424.5074, 52.84372
424.9895, 52.87387
425.4716, 52.86991
425.9537, 52.75692
426.4358, 52.60682
426.9179, 52.58550
427.4001, 52.81450
427.8822, 53.01899
428.3643, 53.10310
428.8464, 53.04227
429.3285, 53.03658
429.8106, 53.12225
430.2928, 53.21517
430.7749, 53.22527
431.2570, 53.13147
431.7391, 53.04039
432.2212, 52.96221
432.7033, 52.90354
433.1855, 52.88342
433.6676, 52.90197
434.1497, 52.95918
434.6318, 53.08205
435.1139, 53.25398
435.5960, 53.38396
436.0782, 53.47393
436.5603, 53.49791
437.0424, 53.38144
437.5245, 53.16361
438.0066, 52.97405
438.4887, 52.81328
438.9709, 52.74226
439.4530, 52.94815
439.9351, 53.38105
440.4172, 53.68738
440.8993, 53.51387
441.3814, 53.15377
441.8636, 52.92485
442.3457, 52.91994
442.8278, 52.94283
443.3099, 52.80621
443.7920, 52.63540
444.2741, 52.63219
444.7563, 53.11195
445.2384, 53.54613
445.7205, 53.68488
446.2026, 53.51963
446.6847, 53.39139
447.1668, 53.39191
447.6490, 53.43425
448.1311, 53.46429
448.6132, 53.43113
449.0953, 53.45355
449.5774, 53.62115
450.0595, 53.82362
450.5417, 53.79291
451.0238, 53.33469
451.5059, 52.99547
451.9880, 52.99886
452.4701, 53.36871
452.9522, 53.53963
453.4344, 53.45522
453.9165, 53.31070
454.3986, 53.30080
454.8807, 53.43404
455.3628, 53.51952
455.8449, 53.53272
456.3271, 53.47583
456.8092, 53.31881
457.2913, 53.06933
457.7734, 52.85114
458.2555, 52.71016
458.7376, 52.65011
459.2198, 52.69880
459.7019, 52.86145
460.1840, 53.04980
460.6661, 53.22449
461.1482, 53.36604
461.6303, 53.43145
462.1125, 53.35156
462.5946, 53.27025
463.0767, 53.31371
463.5588, 53.44478
464.0409, 53.55467
464.5230, 53.60619
465.0052, 53.61165
465.4873, 53.54103
465.9694, 53.36020
466.4515, 53.29022
466.9336, 53.38333
467.4157, 53.61352
467.8979, 53.95621
468.3800, 54.83107
468.8621, 55.30630
469.3442, 55.11097
469.8263, 54.42409
470.3084, 53.94631
470.7906, 53.75582
471.2727, 53.66428
471.7548, 53.60121
472.2369, 53.56549
472.7190, 53.58125
473.2011, 53.67462
473.6833, 53.77119
474.1654, 53.76123
474.6475, 53.63811
475.1296, 53.56713
475.6117, 53.59638
476.0938, 53.68818
476.5760, 53.73162
477.0581, 53.73426
477.5402, 53.80155
478.0223, 54.10496
478.5044, 54.49382
478.9865, 54.64315
479.4687, 54.51516
479.9508, 54.33111
480.4329, 54.24982
480.9150, 54.24823
481.3971, 54.29809
481.8792, 54.47036
482.3614, 54.60338
482.8435, 54.51586
483.3256, 54.29438
483.8077, 54.20938
484.2898, 54.55760
484.7719, 54.91244
485.2541, 55.02227
485.7362, 54.77604
486.2183, 54.65778
486.7004, 54.85659
487.1825, 55.14482
487.6646, 55.31212
488.1468, 55.29938
488.6289, 55.25145
489.1110, 55.17450
489.5931, 55.07314
490.0752, 54.96062
490.5573, 54.83543
491.0395, 54.69884
491.5216, 54.49540
492.0037, 54.21805
492.4858, 54.26372
492.9679, 54.69177
493.4500, 55.20086
493.9322, 55.49629
494.4143, 55.59125
494.8964, 55.52357
495.3785, 55.23046
495.8606, 54.90303
496.3427, 54.86469
496.8249, 55.05341
497.3070, 55.23576
497.7891, 55.27937
498.2712, 55.25071
498.7533, 55.21400
499.2354, 55.17238
499.7176, 55.11346
500.1997, 54.97713
500.6818, 54.84643
501.1639, 54.80542
501.6460, 54.96121
502.1281, 55.08045
502.6103, 55.01298
503.0924, 54.86967
503.5745, 54.88790
504.0566, 55.31181
504.5387, 55.68365
505.0208, 55.89876
505.5030, 55.95536
505.9851, 55.88878
506.4672, 55.57827
506.9493, 55.30857
507.4314, 55.32011
507.9135, 55.70538
508.3957, 55.93356
508.8778, 55.92937
509.3599, 55.82215
509.8420, 55.86132
510.3241, 56.04210
510.8062, 56.12519
511.2884, 55.88864
511.7705, 55.55544
512.2526, 55.79626
512.7347, 56.55913
513.2168, 57.22759
513.6989, 57.28954
514.1810, 57.00581
514.6631, 56.70639
515.1453, 56.42036
515.6274, 56.20998
516.1095, 56.12042
516.5916, 56.12883
517.0737, 56.20461
517.5558, 56.44469
518.0380, 56.64164
518.5201, 56.69809
519.0022, 56.64065
519.4843, 56.59927
519.9664, 56.69427
520.4485, 56.71785
520.9307, 56.09033
521.4128, 56.80456
521.8949, 57.21847
522.3770, 57.34820
522.8591, 56.34257
523.3412, 56.80302
523.8234, 56.67593
524.3055, 56.52475
524.7876, 57.19154
525.2697, 56.35104
525.7518, 57.00486
526.2339, 57.06217
526.7161, 57.39250
527.1982, 57.13165
527.6803, 57.05339
528.1624, 57.56649
528.6445, 57.75216
529.1266, 57.41362
529.6088, 57.57976
530.0909, 57.55561
530.5730, 57.40800
531.0551, 57.07093
531.5372, 56.83622
532.0193, 57.00930
532.5015, 57.37148
532.9836, 57.58096
533.4657, 57.32874
533.9478, 57.11133
534.4299, 57.15196
534.9120, 57.41689
535.3942, 57.54925
535.8763, 57.32590
536.3584, 57.15098
536.8405, 57.22815
537.3226, 57.66877
537.8047, 57.92031
538.2869, 57.93824
538.7690, 57.82770
539.2511, 57.67835
539.7332, 57.48344
540.2153, 57.33630
540.6974, 57.24651
541.1796, 57.22666
541.6617, 57.33175
542.1438, 57.55084
542.6259, 57.77486
543.1080, 58.01214
543.5901, 58.19234
544.0723, 58.14619
544.5544, 57.88539
545.0365, 57.63666
545.5186, 57.53786
546.0007, 57.54682
546.4828, 57.63982
546.9650, 57.85975
547.4471, 58.03628
547.9292, 58.08727
548.4113, 58.05695
548.8934, 58.00638
549.3755, 57.94230
549.8577, 57.86427
550.3398, 57.74632
550.8219, 57.60580
551.3040, 57.53958
551.7861, 57.57032
552.2682, 57.63689
552.7504, 57.72634
553.2325, 57.84472
553.7146, 57.90529
554.1967, 57.89695
554.6788, 57.86368
555.1609, 57.84808
555.6431, 57.84821
556.1252, 57.84161
556.6073, 57.81486
557.0894, 57.80398
557.5715, 57.90370
558.0536, 58.06730
558.5358, 58.15762
559.0179, 58.06128
559.5000, 57.89916
559.9821, 57.71619
560.4642, 57.53339
560.9464, 57.48112
561.4285, 57.77042
561.9106, 58.09845
562.3927, 58.26636
562.8748, 58.20165
563.3569, 58.13427
563.8391, 58.07733
564.3212, 58.03688
564.8033, 58.02356
565.2854, 58.07485
565.7675, 58.07099
566.2496, 57.96929
566.7318, 57.82368
567.2139, 57.79269
567.6960, 57.89799
568.1781, 57.96233
568.6602, 57.88550
569.1423, 57.71819
569.6245, 57.64363
570.1066, 57.66126
570.5887, 57.73101
571.0708, 57.88762
571.5529, 58.05748
572.0350, 58.10742
572.5172, 58.00897
572.9993, 57.86615
573.4814, 57.72291
573.9635, 57.58876
574.4456, 57.47741
574.9277, 57.35506
575.4099, 57.29707
575.8920, 57.38881
576.3741, 57.56333
576.8562, 57.63492
577.3383, 57.49925
577.8204, 57.36444
578.3026, 57.28365
578.7847, 57.25714
579.2668, 57.21478
579.7489, 57.13324
580.2310, 57.09313
580.7131, 57.16435
581.1953, 57.34493
581.6774, 57.54840
582.1595, 57.79224
582.6416, 57.96088
583.1237, 57.86149
583.6058, 57.56968
584.0880, 57.28719
584.5701, 57.03385
585.0522, 56.87940
585.5343, 56.95024
586.0164, 57.17704
586.4985, 57.38926
586.9807, 57.57355
587.4628, 57.67122
587.9449, 57.59632
588.4270, 57.35983
588.9091, 57.20497
589.3912, 57.30290
589.8734, 57.39111
590.3555, 57.32575
590.8376, 57.03266
591.3197, 56.84066
591.8018, 56.78858
592.2839, 56.78599
592.7661, 56.74137
593.2482, 56.65184
593.7303, 56.52205
594.2124, 56.29737
594.6945, 56.13337
595.1766, 56.43957
595.6588, 57.10521
596.1409, 57.54765
596.6230, 57.33318
597.1051, 56.87400
597.5872, 56.69506
598.0693, 56.74482
598.5515, 56.74488
599.0336, 56.40377
599.5157, 56.06325
599.9978, 55.99152
600.4799, 55.78941
600.9620, 56.45831
601.4442, 56.82688
601.9263, 56.91127
602.4084, 55.86031
602.8905, 56.27542
603.3726, 56.10299
603.8547, 55.90648
604.3369, 56.52792
604.8190, 55.64210
605.3011, 56.25058
605.7832, 56.26256
606.2653, 56.54755
606.7474, 56.24137
607.2296, 56.11778
607.7117, 56.58555
608.1938, 56.72588
608.6759, 56.00200
609.1580, 55.99174
609.6401, 55.95385
610.1223, 55.88911
610.6044, 55.81886
611.0865, 55.66398
611.5686, 55.56575
612.0507, 55.67467
612.5328, 56.14179
613.0150, 56.44788
613.4971, 56.37993
613.9792, 56.16343
614.4613, 56.03479
614.9434, 56.06284
615.4255, 56.03661
615.9077, 55.90631
616.3898, 55.73428
616.8719, 55.68087
617.3540, 55.76241
617.8361, 55.79187
618.3182, 55.64111
618.8004, 55.42823
619.2825, 55.53471
619.7646, 55.91559
620.2467, 56.18705
620.7288, 55.94121
621.2109, 55.53521
621.6931, 55.42479
622.1752, 55.64230
622.6573, 55.82017
623.1394, 55.66613
623.6215, 55.45478
624.1036, 55.41743
624.5858, 55.73612
625.0679, 55.94398
625.5500, 55.90144
626.0321, 55.78189
626.5142, 55.80673
626.9963, 56.10307
627.4785, 56.18408
627.9606, 55.87286
628.4427, 55.39863
628.9248, 55.38451
629.4069, 55.83353
629.8890, 56.19328
630.3712, 56.17489
630.8533, 55.95146
631.3354, 55.85143
631.8175, 55.85885
632.2996, 55.87019
632.7817, 55.79377
633.2639, 55.70908
633.7460, 55.71311
634.2281, 55.82484
634.7102, 55.86162
635.1923, 55.68451
635.6744, 55.45659
636.1566, 55.29294
636.6387, 55.20583
637.1208, 55.18810
637.6029, 55.29944
638.0850, 55.42611
638.5671, 55.40504
639.0493, 55.20237
639.5314, 55.04407
640.0135, 54.96364
640.4956, 54.95753
640.9777, 55.06094
641.4598, 55.25205
641.9420, 55.39228
642.4241, 55.37972
642.9062, 55.31449
643.3883, 55.31616
643.8704, 55.37351
644.3525, 55.43452
644.8347, 55.51966
645.3168, 55.56309
645.7989, 55.46120
646.2810, 55.17722
646.7631, 55.11422
647.2452, 55.59750
647.7274, 56.09940
648.2095, 56.33006
648.6916, 56.20784
649.1737, 56.04131
649.6558, 55.77505
650.1379, 55.57090
650.6201, 55.72076
651.1022, 56.18767
651.5843, 56.38269
652.0664, 56.15010
652.5485, 55.74815
653.0306, 55.44790
653.5128, 55.25743
653.9949, 55.19858
654.4770, 55.35020
654.9591, 55.56946
655.4412, 55.82594
655.9233, 56.08629
656.4055, 56.25504
656.8876, 56.26598
657.3697, 56.21761
657.8518, 56.09050
658.3339, 55.89676
658.8160, 55.88941
659.2982, 56.21216
659.7803, 56.44279
660.2624, 56.24147
660.7445, 55.61255
661.2266, 55.50080
661.7087, 55.96088
662.1909, 56.51847
662.6730, 56.82193
663.1551, 56.88567
663.6372, 56.66799
664.1193, 56.09518
664.6014, 55.59154
665.0836, 55.51581
665.5657, 55.68201
666.0478, 55.86714
666.5299, 56.05685
667.0120, 56.19778
667.4941, 56.21577
667.9763, 56.19229
668.4584, 56.28220
668.9405, 56.58446
669.4226, 56.81322
669.9047, 56.90200
670.3868, 56.88533
670.8690, 56.84317
671.3511, 56.76989
671.8332, 56.75807
672.3153, 56.89914
672.7974, 57.10962
673.2795, 57.19659
673.7617, 57.17573
674.2438, 57.15990
674.7259, 57.22955
675.2080, 57.33068
675.6901, 57.44171
676.1722, 57.56372
676.6544, 57.60561
677.1365, 57.41644
677.6186, 57.22873
678.1007, 57.21559
678.5828, 57.49560
679.0649, 56.94038
679.5471, 57.74840
680.0292, 58.25606
680.5113, 58.47955
680.9934, 57.56768
681.4755, 58.12189
681.9576, 58.08854
682.4398, 58.03115
682.9219, 58.79169
683.4040, 58.04496
683.8861, 58.79253
684.3682, 58.94361
684.8503, 59.36768
685.3325, 59.20062
685.8146, 59.21612
686.2967, 59.82298
686.7788, 59.38834
687.2609, 59.43484
687.7430, 59.63352
688.2252, 59.94958
688.7073, 60.25886
689.1894, 60.59992
689.6715, 60.85268
690.1536, 60.94286
690.6357, 60.90224
691.1179, 60.88373
691.6000, 60.88405
692.0821, 61.05238
692.5642, 61.65096
693.0463, 62.42891
693.5284, 62.90948
694.0106, 63.07304
694.4927, 63.29146
694.9748, 63.88194
695.4569, 64.56960
695.9390, 65.10349
696.4211, 65.32934
696.9033, 65.77690
697.3854, 66.69522
697.8675, 67.73496
698.3496, 68.63229
698.8317, 69.35306
699.3138, 70.00209
699.7960, 70.49788
700.2781, 71.08986
700.7602, 72.24866
701.2423, 73.86755
701.7244, 75.24321
702.2065, 76.08654
702.6887, 76.91373
703.1708, 78.29338
703.6529, 80.08372
704.1350, 82.00970
704.6171, 84.05061
705.0992, 86.11536
705.5814, 88.17620
706.0635, 90.24367
706.5456, 92.29675
707.0277, 94.19254
707.5098, 96.31845
707.9919, 98.84340
708.4741, 101.6817
708.9562, 104.3873
709.4383, 106.9088
709.9204, 109.5277
710.4025, 112.4350
710.8846, 115.5372
711.3667, 118.4910
711.8488, 121.3162
712.3309, 124.3015
712.8130, 127.6730
713.2952, 131.2487
713.7773, 134.9886
714.2594, 138.9270
714.7415, 142.6997
715.2236, 145.9651
715.7057, 149.3281
716.1879, 153.2020
716.6700, 157.9104
717.1521, 161.9326
717.6342, 165.2049
718.1163, 167.9985
718.5984, 170.5259
719.0806, 172.7771
719.5627, 174.7130
720.0448, 176.3855
720.5269, 177.4784
721.0090, 177.7147
721.4911, 177.1510
721.9733, 175.8646
722.4554, 173.8596
722.9375, 171.2074
723.4196, 167.8556
723.9017, 163.9004
724.3839, 159.3899
724.8660, 153.9575
725.3481, 148.5615
725.8302, 143.2142
726.3123, 137.9005
726.7944, 132.5563
727.2766, 127.0685
727.7587, 122.1065
728.2408, 117.9824
728.7229, 114.2452
729.2050, 110.0664
729.6871, 105.6185
730.1693, 101.5686
730.6514, 98.28224
731.1335, 95.38930
731.6156, 92.82685
732.0977, 90.49862
732.5798, 88.11522
733.0620, 85.31167
733.5441, 82.75963
734.0262, 80.64280
734.5083, 78.94978
734.9904, 77.57266
735.4725, 76.63831
735.9547, 75.56618
736.4368, 73.96085
736.9189, 72.02121
737.4010, 70.50925
737.8831, 69.42037
738.3652, 68.53757
738.8474, 67.91261
739.3295, 67.30198
739.8116, 66.37347
740.2937, 65.12755
740.7758, 64.04002
741.2579, 63.36324
741.7401, 62.84245
742.2222, 62.35617
742.7043, 61.91204
743.1864, 61.38033
743.6685, 60.67342
744.1506, 60.04576
744.6328, 59.79137
745.1149, 59.86536
745.5970, 59.53453
746.0791, 58.74562
746.5612, 57.92200
747.0433, 57.45787
747.5255, 57.20401
748.0076, 56.94474
748.4897, 56.62966
748.9718, 56.38266
749.4539, 56.33437
749.9360, 56.34240
750.4182, 56.27734
750.9003, 56.05725
751.3824, 55.90916
751.8645, 55.89413
752.3466, 55.87343
752.8287, 55.64649
753.3109, 55.20516
753.7930, 54.91833
754.2751, 54.86033
754.7572, 54.85190
755.2393, 54.61017
755.7214, 54.26673
756.2036, 54.08741
756.6857, 54.22969
757.1678, 54.39290
757.6499, 54.41093
758.1320, 54.35630
758.6141, 54.32985
759.0963, 54.42153
759.5784, 54.43589
760.0605, 54.37008
760.5426, 54.20954
761.0247, 53.82093
761.5068, 53.16879
761.9890, 52.92514
762.4711, 53.39036
762.9532, 54.07502
763.4353, 54.16259
763.9174, 53.83765
764.3995, 53.57130
764.8817, 53.68798
765.3638, 53.78878
765.8459, 53.53994
766.3280, 53.12341
766.8101, 52.96742
767.2922, 53.52508
767.7744, 53.82906
768.2565, 53.58850
768.7386, 53.03450
769.2207, 52.89070
769.7028, 53.19800
770.1849, 53.42469
770.6671, 53.35748
771.1492, 53.11440
771.6313, 52.82964
772.1134, 52.54131
772.5955, 52.38249
773.0776, 52.62059
773.5598, 52.82090
774.0419, 52.56394
774.5240, 52.00256
775.0061, 51.85008
775.4882, 52.69265
775.9703, 53.30529
776.4525, 53.28265
776.9346, 52.77329
777.4167, 52.54251
777.8988, 52.60925
778.3809, 52.67907
778.8630, 52.58661
779.3452, 52.41512
779.8273, 52.30092
780.3094, 52.24632
780.7915, 52.25575
781.2736, 52.44889
781.7557, 52.60327
782.2379, 52.54424
782.7200, 52.28818
783.2021, 52.12443
783.6842, 52.11914
784.1663, 52.14541
784.6484, 52.16856
785.1306, 52.18625
785.6127, 52.16641
786.0948, 52.10480
786.5769, 52.07660
787.0590, 52.16809
787.5411, 52.30540
788.0233, 52.32808
788.5054, 52.25853
788.9875, 52.25167
789.4696, 52.48349
789.9517, 52.72196
790.4338, 52.83390
790.9160, 52.80842
791.3981, 52.74551
791.8802, 52.58015
792.3623, 52.50226
792.8444, 52.66764
793.3265, 53.02813
793.8087, 53.05128
794.2908, 52.73432
794.7729, 52.40994
795.2550, 52.36753
795.7371, 52.42114
796.2192, 52.26312
796.7014, 51.91531
797.1835, 51.72726
797.6656, 51.97446
798.1477, 52.32338
798.6298, 52.64758
799.1119, 52.94530
799.5941, 53.02101
800.0762, 52.77663
800.5583, 52.53180
801.0404, 52.47201
801.5225, 52.56439
802.0046, 52.59939
802.4868, 52.57913
802.9689, 52.55529
803.4510, 52.56767
803.9331, 52.59349
804.4152, 52.62555
804.8973, 52.66058
805.3795, 52.64865
805.8616, 52.47829
806.3437, 52.35280
806.8258, 52.39265
807.3079, 52.59869
807.7900, 52.67513
808.2722, 52.57494
808.7543, 52.52882
809.2364, 52.80735
809.7185, 53.24164
810.2006, 53.22282
810.6827, 52.78542
811.1649, 52.30664
811.6470, 51.86060
812.1291, 51.60056
812.6112, 51.75776
813.0933, 52.32814
813.5754, 52.69729
814.0576, 52.62084
814.5397, 52.50267
815.0218, 52.49654
815.5039, 52.59371
815.9860, 52.54385
816.4681, 52.30623
816.9503, 52.43127
817.4324, 53.90746
817.9145, 55.71452
818.3966, 55.73482
818.8787, 54.20388
819.3608, 52.83731
819.8430, 52.61388
820.3251, 52.72576
820.8072, 52.82888
821.2893, 52.89592
821.7714, 52.80755
822.2535, 52.44389
822.7357, 52.18212
823.2178, 52.22511
823.6999, 52.49226
824.1820, 52.63231
824.6641, 52.64804
825.1462, 52.58505
825.6284, 52.34743
826.1105, 52.13488
826.5926, 52.19721
827.0747, 52.48174
827.5568, 52.70654
828.0389, 52.74256
828.5211, 52.74467
829.0032, 52.77385
829.4853, 52.81884
829.9674, 52.80659
830.4495, 52.72797
830.9316, 52.64435
831.4138, 52.56989
831.8959, 52.51579
832.3780, 52.54791
832.8601, 52.63221
833.3422, 52.63221
833.8243, 52.28286
834.3065, 52.01534
834.7886, 52.14466
835.2707, 52.57336
835.7528, 52.91193
836.2349, 53.12835
836.7170, 53.25836
837.1992, 53.29562
837.6813, 53.25813
838.1634, 53.21132
838.6455, 53.14978
839.1276, 52.97710
839.6097, 52.49642
840.0919, 52.09502
840.5740, 52.42872
841.0561, 53.17222
841.5382, 53.60166
842.0203, 53.03623
842.5024, 52.63459
842.9846, 52.82675
843.4667, 53.32317
843.9488, 53.61436
844.4309, 53.67605
844.9130, 53.62331
845.3951, 53.43244
845.8773, 53.23705
846.3594, 53.33365
846.8415, 53.60305
847.3236, 53.71677
847.8057, 53.47726
848.2878, 53.22577
848.7700, 53.13552
849.2521, 53.16352
849.7342, 53.26101
850.2163, 53.52810
850.6984, 53.66231
851.1805, 53.59721
851.6627, 53.46319
852.1448, 53.46028
852.6269, 53.56719
853.1090, 53.55717
853.5911, 53.35738
854.0732, 53.20942
854.5554, 53.43860
855.0375, 53.81818
855.5196, 54.08560
856.0017, 54.21133
856.4838, 54.14827
856.9659, 53.68657
857.4481, 53.20708
857.9302, 53.00332
858.4123, 53.10418
858.8944, 53.33400
859.3765, 53.72158
859.8586, 54.05709
860.3408, 54.08804
860.8229, 53.94516
861.3050, 53.82754
861.7871, 53.75433
862.2692, 53.78101
862.7513, 54.02128
863.2335, 54.30434
863.7156, 54.51441
864.1977, 54.63806
864.6798, 54.76464
865.1619, 54.89304
865.6440, 55.02396
866.1262, 55.09884
866.6083, 55.17316
867.0904, 55.52786
867.5725, 56.14016
868.0546, 56.69745
868.5367, 56.98319
869.0189, 57.15926
869.5010, 57.19683
869.9831, 57.13760
870.4652, 57.55119
870.9473, 58.87225
871.4294, 60.01786
871.9116, 60.62513
872.3937, 60.78539
872.8758, 60.89172
873.3579, 60.93334
873.8400, 60.72414
874.3221, 59.98594
874.8043, 59.12447
875.2864, 58.59582
875.7685, 58.28833
876.2506, 57.94110
876.7327, 57.36394
877.2148, 56.87601
877.6970, 56.57116
878.1791, 56.37786
878.6612, 56.15120
879.1433, 55.89059
879.6254, 55.58951
880.1075, 55.22136
880.5897, 54.86886
881.0718, 54.65326
881.5539, 54.53444
882.0360, 54.43816
882.5181, 54.34296
883.0002, 54.26343
883.4824, 54.11702
883.9645, 54.04081
884.4466, 54.23326
884.9287, 54.87363
885.4108, 55.08669
885.8929, 54.73895
886.3751, 54.24833
886.8572, 54.11102
887.3393, 54.17504
887.8214, 54.04363
888.3035, 53.64110
888.7856, 53.33589
889.2678, 53.42227
889.7499, 53.63769
890.2320, 53.80143
890.7141, 53.89801
891.1962, 53.97252
891.6783, 54.04276
892.1605, 54.04818
892.6426, 53.92168
893.1247, 53.69780
893.6068, 53.48642
894.0889, 53.29180
894.5710, 53.16650
895.0532, 53.12561
895.5353, 53.17469
896.0174, 53.40835
896.4995, 53.78218
896.9816, 53.90400
897.4637, 53.58169
897.9459, 53.33900
898.4280, 53.37323
898.9101, 53.56231
899.3922, 53.47405
899.8743, 53.17024
900.3564, 53.09064
900.8386, 53.63610
901.3207, 54.17422
901.8028, 54.05685
902.2849, 53.58080
902.7670, 53.27119
903.2491, 53.37822
903.7313, 53.49158
904.2134, 53.58718
904.6955, 53.67339
905.1776, 53.75220
905.6597, 53.82745
906.1418, 53.97221
906.6240, 54.22581
907.1061, 54.39032
907.5882, 54.08743
908.0703, 53.68106
908.5524, 53.63489
909.0345, 54.19555
909.5167, 54.54622
909.9988, 54.46065
910.4809, 54.28460
910.9630, 54.22492
911.4451, 54.28416
911.9272, 54.34781
912.4094, 54.41683
912.8915, 54.44733
913.3736, 54.35771
913.8557, 54.24410
914.3378, 54.24636
914.8199, 54.34750
915.3021, 54.36713
915.7842, 54.10476
916.2663, 53.92368
916.7484, 53.96084
917.2305, 54.15673
917.7126, 54.31951
918.1948, 54.45040
918.6769, 54.40731
919.1590, 54.01349
919.6411, 53.60045
920.1232, 53.64792
920.6053, 53.97563
921.0875, 54.22596
921.5696, 54.22477
922.0517, 54.21156
922.5338, 54.22057
923.0159, 54.24203
923.4980, 54.26503
923.9802, 54.28955
924.4623, 54.30589
924.9444, 54.30518
925.4265, 54.33947
925.9086, 54.53028
926.3907, 54.75814
926.8729, 54.84047
927.3550, 54.72398
927.8371, 54.63609
928.3192, 54.71273
928.8013, 54.76485
929.2834, 54.67595
929.7656, 54.44706
930.2477, 54.30561
930.7298, 54.24999
931.2119, 54.28492
931.6940, 54.51412
932.1761, 54.76864
932.6583, 54.77803
933.1404, 54.61188
933.6225, 54.55527
934.1046, 54.89989
934.5867, 55.12445
935.0688, 55.05033
935.5510, 54.79945
936.0331, 54.66770
936.5152, 54.65563
936.9973, 54.65626
937.4794, 54.63072
937.9615, 54.64107
938.4437, 54.74035
938.9258, 54.93089
939.4079, 55.24641
939.8900, 55.88825
940.3721, 56.22125
940.8542, 56.00304
941.3364, 55.60092
941.8185, 55.24899
942.3006, 54.94480
942.7827, 54.83935
943.2648, 54.94444
943.7469, 55.08367
944.2291, 55.08787
944.7112, 55.06881
945.1933, 55.14082
945.6754, 55.30982
946.1575, 55.52662
946.6396, 55.95726
947.1218, 56.20403
947.6039, 56.08610
948.0860, 55.71982
948.5681, 55.54343
949.0502, 55.54321
949.5323, 55.53103
950.0145, 55.39663
950.4966, 55.27324
950.9787, 55.33361
951.4608, 55.48109
951.9429, 55.55791
952.4250, 55.43000
952.9072, 55.37190
953.3893, 55.42722
953.8714, 55.50709
954.3535, 55.46388
954.8356, 55.33406
955.3177, 55.41488
955.7999, 55.74607
956.2820, 56.06018
956.7641, 56.16913
957.2462, 56.15227
957.7283, 56.04734
958.2104, 55.84880
958.6925, 55.68691
959.1746, 55.52140
959.6567, 55.49174
960.1389, 55.72859
960.6210, 56.11470
961.1031, 56.21942
961.5852, 56.10041
962.0673, 56.01907
962.5494, 56.23163
963.0316, 56.38340
963.5137, 56.20382
963.9958, 55.84534
964.4779, 55.59716
964.9600, 55.45266
965.4421, 55.48484
965.9243, 55.76170
966.4064, 56.06059
966.8885, 56.03782
967.3706, 55.83132
967.8527, 55.79005
968.3348, 55.97814
968.8170, 56.18238
969.2991, 56.32063
969.7812, 56.40493
970.2633, 56.42012
970.7454, 56.36726
971.2275, 56.41804
971.7097, 56.59756
972.1918, 56.73200
972.6739, 56.70692
973.1560, 56.59929
973.6381, 56.48388
974.1202, 56.39559
974.6024, 56.43286
975.0845, 56.90382
975.5666, 57.16316
976.0487, 56.85651
976.5308, 56.37742
977.0129, 56.33145
977.4951, 56.73935
977.9772, 57.02080
978.4593, 57.08290
978.9414, 57.09431
979.4235, 57.28850
979.9056, 57.49606
980.3878, 57.46339
980.8699, 57.10650
981.3520, 56.92444
981.8341, 57.08685
982.3162, 57.29485
982.7983, 57.42818
983.2805, 57.49328
983.7626, 57.49760
984.2447, 57.45158
984.7268, 57.44289
985.2089, 57.61898
985.6910, 57.75053
986.1732, 57.48793
986.6553, 57.08889
987.1374, 57.14877
987.6195, 58.06140
988.1016, 58.65234
988.5837, 58.76042
989.0659, 58.63488
989.5480, 58.48920
990.0301, 58.37037
990.5122, 58.45574
990.9943, 58.77903
991.4764, 59.07007
991.9586, 59.17505
992.4407, 59.19549
992.9228, 59.16148
993.4049, 59.08317
993.8870, 59.15422
994.3691, 59.40681
994.8513, 59.58770
995.3334, 59.54369
995.8155, 59.40453
996.2976, 59.34164
996.7797, 59.34615
997.2618, 59.39629
997.7440, 59.47630
998.2261, 59.61985
998.7082, 59.89783
999.1903, 60.17671
999.6724, 60.28218
1000.155, 60.21788
1000.637, 60.18811
1001.119, 60.20547
1001.601, 60.31520
1002.083, 60.66869
1002.565, 61.04880
1003.047, 61.24994
1003.529, 61.25205
1004.011, 61.25207
1004.494, 61.21722
1004.976, 61.28912
1005.458, 61.55712
1005.940, 61.92083
1006.422, 62.15638
1006.904, 62.27400
1007.386, 62.28651
1007.868, 62.12973
1008.351, 62.00315
1008.833, 61.93073
1009.315, 61.99279
1009.797, 62.29685
1010.279, 62.96529
1010.761, 63.34976
1011.243, 63.39940
1011.725, 63.42793
1012.207, 63.73920
1012.690, 64.15999
1013.172, 64.44569
1013.654, 64.60162
1014.136, 64.76110
1014.618, 64.94778
1015.100, 65.17564
1015.582, 65.50120
1016.064, 65.82716
1016.547, 65.86929
1017.029, 65.66883
1017.511, 65.55576
1017.993, 65.60691
1018.475, 65.79243
1018.957, 66.20152
1019.439, 66.66479
1019.921, 67.01945
1020.403, 67.25332
1020.886, 67.31127
1021.368, 67.09908
1021.850, 66.99879
1022.332, 67.34043
1022.814, 67.92667
1023.296, 68.32750
1023.778, 68.56599
1024.260, 68.72667
1024.743, 68.73547
1025.225, 68.80772
1025.707, 69.10141
1026.189, 69.44285
1026.671, 69.52393
1027.153, 69.32623
1027.635, 69.42913
1028.117, 69.93978
1028.599, 70.49365
1029.082, 70.66877
1029.564, 70.77014
1030.046, 71.15535
1030.528, 71.88453
1031.010, 72.45132
1031.492, 72.73737
1031.974, 73.06160
1032.456, 73.62584
1032.938, 74.23501
1033.421, 74.30627
1033.903, 73.99129
1034.385, 73.78497
1034.867, 73.80953
1035.349, 74.07553
1035.831, 74.81533
1036.313, 75.65262
1036.795, 76.17532
1037.278, 76.30965
1037.760, 76.64970
1038.242, 77.22375
1038.724, 77.72725
1039.206, 77.77842
1039.688, 77.72867
1040.170, 78.07776
1040.652, 78.72304
1041.135, 79.05519
1041.617, 78.56603
1042.099, 78.44579
1042.581, 79.04511
1043.063, 79.91695
1043.545, 80.24892
1044.027, 80.19059
1044.509, 80.23323
1044.991, 80.47899
1045.474, 80.78970
1045.956, 81.03333
1046.438, 81.36325
1046.920, 81.93045
1047.402, 82.72315
1047.884, 83.33073
1048.366, 83.74480
1048.848, 84.07620
1049.330, 84.28029
1049.813, 84.54407
1050.295, 85.27187
1050.777, 86.18461
1051.259, 86.76834
1051.741, 86.28951
1052.223, 86.43404
1052.705, 87.44523
1053.187, 88.70492
1053.670, 89.66611
1054.152, 90.36423
1054.634, 90.82962
1055.116, 91.09588
1055.598, 91.48234
1056.080, 92.32253
1056.562, 93.16237
1057.044, 93.60088
1057.526, 93.92068
1058.009, 94.99451
1058.491, 96.87962
1058.973, 98.44526
1059.455, 99.39027
1059.937, 100.1600
1060.419, 101.1021
1060.901, 102.2134
1061.383, 103.5080
1061.865, 105.0014
1062.348, 106.6041
1062.830, 108.4031
1063.312, 110.0726
1063.794, 111.2427
1064.276, 112.3464
1064.758, 114.6307
1065.240, 117.7882
1065.722, 120.8917
1066.205, 123.5487
1066.687, 126.1099
1067.169, 128.5626
1067.651, 131.1146
1068.133, 133.9875
1068.615, 137.1596
1069.097, 140.4631
1069.579, 143.9036
1070.062, 147.4624
1070.544, 151.0005
1071.026, 154.7575
1071.508, 158.9156
1071.990, 163.5092
1072.472, 168.3982
1072.954, 173.4285
1073.436, 179.1974
1073.918, 185.7315
1074.401, 193.5022
1074.883, 203.1904
1075.365, 214.7255
1075.847, 228.0819
1076.329, 243.0685
1076.811, 260.6231
1077.293, 280.8267
1077.775, 303.8322
1078.257, 329.2781
1078.740, 357.3129
1079.222, 388.9030
1079.704, 423.8169
1080.186, 461.3189
1080.668, 501.5977
1081.150, 544.4939
1081.632, 589.1751
1082.114, 636.7396
1082.596, 687.0291
1083.079, 739.6323
1083.561, 796.3455
1084.043, 857.4371
1084.525, 925.1348
1085.007, 999.3547
1085.489, 1082.475
1085.971, 1177.100
1086.453, 1283.758
1086.936, 1401.996
1087.418, 1532.083
1087.900, 1673.070
1088.382, 1827.444
1088.864, 1987.029
1089.346, 2147.426
1089.828, 2301.956
1090.310, 2441.549
1090.792, 2564.741
1091.275, 2649.554
1091.757, 2690.600
1092.239, 2683.503
1092.721, 2625.125
1093.203, 2521.658
1093.685, 2383.300
1094.167, 2213.463
1094.649, 2030.891
1095.131, 1836.120
1095.614, 1645.543
1096.096, 1464.381
1096.578, 1297.520
1097.060, 1146.180
1097.542, 1010.914
1098.024, 891.6478
1098.506, 788.6620
1098.988, 698.6693
1099.471, 621.1142
1099.953, 554.4089
1100.435, 496.3371
1100.917, 445.8074
1101.399, 400.9361
1101.881, 362.8989
1102.363, 328.6219
1102.845, 298.1781
1103.328, 271.0466
1103.810, 246.4792
1104.292, 224.6028
1104.774, 205.7276
1105.256, 189.5643
1105.738, 175.5491
1106.220, 163.9658
1106.702, 153.7455
1107.184, 144.7323
1107.667, 136.8152
1108.149, 129.9474
1108.631, 124.0148
1109.113, 118.8249
1109.595, 114.3144
1110.077, 110.2818
1110.559, 106.6142
1111.041, 103.3113
1111.523, 100.4035
1112.006, 97.83287
1112.488, 95.41798
1112.970, 93.13840
1113.452, 91.15727
1113.934, 89.50894
1114.416, 88.13091
1114.898, 87.15845
1115.380, 86.31101
1115.863, 85.30773
1116.345, 84.10242
1116.827, 82.85473
1117.309, 81.51982
1117.791, 80.30629
1118.273, 79.35365
1118.755, 78.54160
1119.237, 77.70901
1119.719, 76.85362
1120.202, 75.95943
1120.684, 74.86679
1121.166, 74.03831
1121.648, 73.59468
1122.130, 73.19157
1122.612, 72.44906
1123.094, 71.55286
1123.576, 71.08470
1124.058, 70.96796
1124.541, 70.81924
1125.023, 70.51015
1125.505, 70.07378
1125.987, 69.41636
1126.469, 68.76495
1126.951, 68.52462
1127.433, 68.60001
1127.915, 68.28300
1128.398, 67.52292
1128.880, 66.88880
1129.362, 66.96471
1129.844, 67.04563
1130.326, 66.60909
1130.808, 65.92042
1131.290, 65.73195
1131.772, 66.04918
1132.255, 66.17467
1132.737, 65.95277
1133.219, 65.59466
1133.701, 65.14913
1134.183, 64.75042
1134.665, 64.52840
1135.147, 64.48895
1135.629, 64.56082
1136.111, 64.79720
1136.594, 64.78185
1137.076, 64.24371
1137.558, 63.64967
1138.040, 63.72215
1138.522, 64.04772
1139.004, 64.03123
1139.486, 63.35106
1139.968, 63.07152
1140.450, 63.33118
1140.933, 63.61581
1141.415, 63.64940
1141.897, 63.52496
1142.379, 63.40034
1142.861, 63.26263
1143.343, 63.07735
1143.825, 62.74464
1144.307, 62.51903
1144.790, 62.45723
1145.272, 62.43131
1145.754, 62.31490
1146.236, 62.15443
1146.718, 62.10117
1147.200, 62.14161
1147.682, 62.19960
1148.164, 62.33972
1148.646, 62.35001
1149.129, 62.13709
1149.611, 61.83533
1150.093, 61.54424
1150.575, 61.29826
1151.057, 61.38400
1151.539, 61.79618
1152.021, 62.08301
1152.503, 61.78758
1152.985, 61.52092
1153.468, 61.64278
1153.950, 61.94147
1154.432, 61.97621
1154.914, 61.76449
1155.396, 61.55502
1155.878, 61.38602
1156.360, 61.27219
1156.842, 61.22739
1157.325, 61.23981
1157.807, 61.36921
1158.289, 61.55493
1158.771, 61.48146
1159.253, 61.13458
1159.735, 60.96897
1160.217, 61.13144
1160.699, 61.39994
1161.182, 61.74491
1161.664, 61.96938
1162.146, 61.76721
1162.628, 61.11217
1163.110, 60.83699
1163.592, 60.98021
1164.074, 61.18889
1164.556, 61.34996
1165.038, 61.46709
1165.521, 61.60807
1166.003, 61.68089
1166.485, 61.51258
1166.967, 60.95914
1167.449, 60.71127
1167.931, 60.82998
1168.413, 60.97150
1168.895, 60.94275
1169.377, 60.82752
1169.860, 60.66295
1170.342, 60.52514
1170.824, 60.56241
1171.306, 60.98640
1171.788, 61.24739
1172.270, 61.30286
1172.752, 61.31920
1173.234, 61.45243
1173.717, 61.61330
1174.199, 61.66829
1174.681, 61.61805
1175.163, 61.47091
1175.645, 60.96777
1176.127, 60.80894
1176.609, 61.16058
1177.091, 61.58367
1177.573, 61.61168
1178.056, 61.40642
1178.538, 61.34963
1179.020, 61.40221
1179.502, 61.27961
1179.984, 60.60914
1180.466, 60.13702
1180.948, 59.97113
1181.430, 60.04022
1181.912, 60.36985
1182.395, 60.83293
1182.877, 61.05885
1183.359, 61.03840
1183.841, 61.07069
1184.323, 61.47875
1184.805, 61.65884
1185.287, 61.35651
1185.769, 60.90606
1186.252, 60.97881
1186.734, 61.37286
1187.216, 61.41816
1187.698, 61.01633
1188.180, 60.75948
1188.662, 61.10115
1189.144, 61.41922
1189.626, 61.51823
1190.109, 61.44960
1190.591, 61.27234
1191.073, 61.02658
1191.555, 60.84206
1192.037, 60.73718
1192.519, 60.77366
1193.001, 61.26706
1193.483, 61.56429
1193.965, 61.25308
1194.448, 60.61062
1194.930, 60.57631
1195.412, 61.03038
1195.894, 61.54322
1196.376, 62.09799
1196.858, 62.31371
1197.340, 61.62286
1197.822, 60.94350
1198.304, 60.81298
1198.787, 61.09513
1199.269, 61.12344
1199.751, 60.95852
1200.233, 60.89861
1200.715, 61.07607
1201.197, 61.30006
1201.679, 61.62708
1202.161, 61.81642
1202.644, 61.59912
1203.126, 61.08966
1203.608, 61.18678
1204.090, 61.77026
1204.572, 62.20591
1205.054, 62.20475
1205.536, 62.03655
1206.018, 61.61019
1206.500, 61.25517
1206.983, 61.30098
1207.465, 61.69311
1207.947, 61.83109
1208.429, 61.72688
1208.911, 61.45440
1209.393, 60.68410
1209.875, 60.22886
1210.357, 60.77035
1210.839, 61.53023
1211.322, 61.86697
1211.804, 61.80445
1212.286, 61.61676
1212.768, 61.33332
1213.250, 61.16973
1213.732, 61.33250
1214.214, 61.53094
1214.696, 61.68767
1215.179, 61.78785
1215.661, 61.77132
1216.143, 61.65968
1216.625, 61.69269
1217.107, 61.86721
1217.589, 62.07035
1218.071, 62.28954
1218.553, 62.47063
1219.036, 62.63887
1219.518, 62.71987
1220.000, 62.53243
1220.482, 62.13704
1220.964, 62.07502
1221.446, 62.34072
1221.928, 62.53957
1222.410, 62.30684
1222.892, 62.14983
1223.375, 62.32439
1223.857, 62.60034
1224.339, 62.63887
1224.821, 62.48721
1225.303, 62.42714
1225.785, 62.47114
1226.267, 62.48431
1226.749, 62.36541
1227.231, 62.23651
1227.714, 62.11114
1228.196, 62.02942
1228.678, 62.03810
1229.160, 62.14442
1229.642, 62.49209
1230.124, 63.06718
1230.606, 63.34266
1231.088, 62.66955
1231.571, 62.15399
1232.053, 62.19090
1232.535, 62.48093
1233.017, 62.48602
1233.499, 62.32697
1233.981, 62.44517
1234.463, 62.87917
1234.945, 63.17406
1235.427, 62.93899
1235.910, 62.79851
1236.392, 62.99321
1236.874, 63.26288
1237.356, 63.00127
1237.838, 62.48182
1238.320, 62.46532
1238.802, 63.05087
1239.284, 63.50787
1239.766, 63.51912
1240.249, 63.43763
1240.731, 63.28367
1241.213, 63.18027
1241.695, 63.45078
1242.177, 63.88995
1242.659, 64.08613
1243.141, 63.97644
1243.623, 63.66125
1244.106, 62.89207
1244.588, 62.46996
1245.070, 62.68722
1245.552, 63.18278
1246.034, 63.48927
1246.516, 63.62395
1246.998, 63.58518
1247.480, 63.36344
1247.963, 63.19183
1248.445, 63.08593
1248.927, 63.06183
1249.409, 63.15729
1249.891, 63.25633
1250.373, 63.11640
1250.855, 62.91418
1251.337, 62.89220
1251.819, 63.09853
1252.302, 63.36537
1252.784, 63.74997
1253.266, 63.90887
1253.748, 63.66922
1254.230, 63.35184
1254.712, 63.35553
1255.194, 63.49908
1255.676, 63.61641
1256.158, 63.68266
1256.641, 63.51453
1257.123, 63.04316
1257.605, 62.86509
1258.087, 63.24805
1258.569, 63.70565
1259.051, 63.72198
1259.533, 63.57975
1260.015, 63.53033
1260.498, 63.58584
1260.980, 63.80465
1261.462, 64.18924
1261.944, 64.42661
1262.426, 64.41273
1262.908, 64.26134
1263.390, 63.84972
1263.872, 63.53098
1264.354, 63.65340
1264.837, 64.12362
1265.319, 64.34669
1265.801, 64.35440
1266.283, 64.48318
1266.765, 64.90172
1267.247, 65.16145
1267.729, 64.74520
1268.211, 64.33360
1268.693, 64.38200
1269.176, 64.74161
1269.658, 64.87241
1270.140, 64.80706
1270.622, 64.64445
1271.104, 64.35605
1271.586, 64.22302
1272.068, 64.55357
1272.550, 64.85450
1273.033, 64.91351
1273.515, 64.81754
1273.997, 64.75936
1274.479, 64.73640
1274.961, 64.74023
1275.443, 64.76414
1275.925, 64.84134
1276.407, 65.01389
1276.890, 65.16037
1277.372, 65.22504
1277.854, 65.24962
1278.336, 65.37302
1278.818, 65.49006
1279.300, 65.37988
1279.782, 64.94432
1280.264, 64.65971
1280.746, 64.55367
1281.229, 64.60048
1281.711, 64.82511
1282.193, 65.12395
1282.675, 65.51635
1283.157, 65.81049
1283.639, 65.65453
1284.121, 64.97578
1284.603, 64.80593
1285.085, 65.21075
1285.568, 65.49213
1286.050, 65.35022
1286.532, 65.22574
1287.014, 65.78601
1287.496, 66.36716
1287.978, 66.21032
1288.460, 65.45483
1288.942, 65.19175
1289.425, 65.39396
1289.907, 65.61842
1290.389, 65.75751
1290.871, 65.79721
1291.353, 65.55160
1291.835, 65.39576
1292.317, 65.61120
1292.799, 66.05611
1293.281, 66.19054
1293.764, 66.09037
1294.246, 66.06910
1294.728, 66.21673
1295.210, 66.34342
1295.692, 66.39856
1296.174, 66.37014
1296.656, 66.21445
1297.138, 66.01900
1297.620, 65.94367
1298.103, 65.97957
1298.585, 66.14201
1299.067, 66.45435
1299.549, 66.67616
1300.031, 66.72461
1300.513, 66.87527
1300.995, 67.26102
1301.477, 67.60494
1301.960, 67.40800
1302.442, 67.03446
1302.924, 67.00176
1303.406, 67.37293
1303.888, 67.48176
1304.370, 67.26466
1304.852, 67.06647
1305.334, 66.88468
##END=



