##NAMES=Anorthite
##RRUFFID=R070598
##IDEAL CHEMISTRY=CaAl_2_Si_2_O_8_
##LOCALITY=Eyscott Hill, Keswick, Cumberland, England
##OWNER=RRUFF
##SOURCE=James Shigley
##DESCRIPTION=Massive, greyish-green heterogenous aggregates on plagioclase matrix. Variety bytownite.
##STATUS=The identification of this mineral has been confirmed only by chemical analysis
##URL=rruff.info/R070598
##MEASURED CHEMISTRY=Na_0.25_K_0.03_Ca_0.72_(Al_1.70_Fe^3+^_0.02_Si_2.28_)O_8_ ; light gray
146.2648, 2258.630
146.7469, 2289.551
147.2291, 2295.914
147.7112, 2293.420
148.1933, 2300.104
148.6754, 2321.348
149.1575, 2348.254
149.6396, 2364.982
150.1218, 2369.528
150.6039, 2381.149
151.0860, 2413.149
151.5681, 2458.601
152.0502, 2497.596
152.5323, 2523.896
153.0145, 2539.438
153.4966, 2548.524
153.9787, 2549.523
154.4608, 2549.564
154.9429, 2552.836
155.4250, 2559.266
155.9072, 2571.020
156.3893, 2597.831
156.8714, 2626.382
157.3535, 2642.356
157.8356, 2637.826
158.3177, 2628.437
158.7999, 2640.633
159.2820, 2683.566
159.7641, 2727.012
160.2462, 2756.514
160.7283, 2782.138
161.2104, 2814.338
161.6926, 2857.623
162.1747, 2911.958
162.6568, 2978.712
163.1389, 3082.648
163.6210, 3167.068
164.1031, 3222.887
164.5853, 3249.714
165.0674, 3246.952
165.5495, 3210.826
166.0316, 3139.997
166.5137, 3070.823
166.9958, 2986.797
167.4780, 2918.911
167.9601, 2886.910
168.4422, 2884.055
168.9243, 2887.300
169.4064, 2872.744
169.8885, 2832.991
170.3707, 2804.221
170.8528, 2790.103
171.3349, 2781.864
171.8170, 2772.719
172.2991, 2762.265
172.7813, 2757.058
173.2634, 2767.596
173.7455, 2812.266
174.2276, 2832.001
174.7097, 2802.355
175.1918, 2759.217
175.6740, 2740.084
176.1561, 2756.822
176.6382, 2790.429
177.1203, 2805.584
177.6024, 2795.110
178.0845, 2785.987
178.5667, 2782.499
179.0488, 2783.827
179.5309, 2789.127
180.0130, 2798.843
180.4951, 2811.153
180.9772, 2821.742
181.4594, 2829.435
181.9415, 2838.241
182.4236, 2854.215
182.9057, 2874.608
183.3878, 2885.533
183.8699, 2875.313
184.3521, 2855.336
184.8342, 2848.672
185.3163, 2861.643
185.7984, 2878.977
186.2805, 2887.669
186.7626, 2887.378
187.2448, 2888.203
187.7269, 2896.376
188.2090, 2908.202
188.6911, 2917.999
189.1732, 2919.943
189.6553, 2924.428
190.1375, 2952.543
190.6196, 3015.985
191.1017, 3064.060
191.5838, 3050.349
192.0659, 3013.613
192.5480, 3003.271
193.0302, 3053.610
193.5123, 3136.053
193.9944, 3173.927
194.4765, 3141.284
194.9586, 3107.503
195.4407, 3106.209
195.9229, 3121.889
196.4050, 3129.391
196.8871, 3109.941
197.3692, 3068.977
197.8513, 3043.008
198.3334, 3047.204
198.8156, 3050.267
199.2977, 3042.702
199.7798, 3026.228
200.2619, 3004.996
200.7440, 2980.983
201.2261, 2953.928
201.7083, 2931.803
202.1904, 2923.590
202.6725, 2912.639
203.1546, 2888.263
203.6367, 2855.074
204.1188, 2828.096
204.6010, 2825.822
205.0831, 2858.351
205.5652, 2857.803
206.0473, 2795.569
206.5294, 2728.451
207.0115, 2679.419
207.4937, 2650.502
207.9758, 2633.367
208.4579, 2620.899
208.9400, 2620.293
209.4221, 2599.253
209.9042, 2537.186
210.3864, 2473.833
210.8685, 2435.708
211.3506, 2425.513
211.8327, 2427.443
212.3148, 2421.558
212.7970, 2405.613
213.2791, 2385.347
213.7612, 2356.528
214.2433, 2326.300
214.7254, 2299.547
215.2075, 2277.704
215.6897, 2259.839
216.1718, 2244.282
216.6539, 2226.288
217.1360, 2221.960
217.6181, 2254.593
218.1002, 2291.102
218.5824, 2292.394
219.0645, 2246.394
219.5466, 2178.386
220.0287, 2131.436
220.5108, 2114.663
220.9929, 2097.354
221.4751, 2076.590
221.9572, 2052.851
222.4393, 2025.315
222.9214, 1992.773
223.4035, 1959.736
223.8856, 1935.457
224.3678, 1920.212
224.8499, 1909.653
225.3320, 1910.445
225.8141, 1914.406
226.2962, 1904.109
226.7783, 1870.475
227.2605, 1826.127
227.7426, 1795.532
228.2247, 1780.848
228.7068, 1769.070
229.1889, 1757.131
229.6710, 1744.604
230.1532, 1729.303
230.6353, 1708.515
231.1174, 1687.431
231.5995, 1675.244
232.0816, 1672.816
232.5637, 1674.776
233.0459, 1681.634
233.5280, 1691.619
234.0101, 1697.144
234.4922, 1692.793
234.9743, 1685.091
235.4564, 1685.591
235.9386, 1697.419
236.4207, 1708.170
236.9028, 1707.385
237.3849, 1697.044
237.8670, 1690.127
238.3491, 1689.502
238.8313, 1697.017
239.3134, 1715.320
239.7955, 1748.698
240.2776, 1780.532
240.7597, 1796.012
241.2418, 1796.186
241.7240, 1796.394
242.2061, 1796.437
242.6882, 1803.811
243.1703, 1829.445
243.6524, 1879.587
244.1345, 1930.283
244.6167, 1955.841
245.0988, 1955.988
245.5809, 1963.230
246.0630, 1987.278
246.5451, 2025.479
247.0272, 2079.966
247.5094, 2156.217
247.9915, 2228.443
248.4736, 2260.306
248.9557, 2247.512
249.4378, 2258.824
249.9199, 2345.446
250.4021, 2450.242
250.8842, 2520.521
251.3663, 2544.058
251.8484, 2552.561
252.3305, 2576.618
252.8126, 2616.878
253.2948, 2667.362
253.7769, 2738.262
254.2590, 2811.969
254.7411, 2870.167
255.2232, 2906.642
255.7053, 2946.737
256.1874, 3027.277
256.6696, 3157.105
257.1517, 3272.251
257.6338, 3344.540
258.1159, 3400.057
258.5980, 3452.778
259.0801, 3505.366
259.5623, 3559.054
260.0444, 3616.857
260.5265, 3680.525
261.0086, 3738.337
261.4907, 3789.197
261.9728, 3831.234
262.4550, 3862.185
262.9371, 3881.516
263.4192, 3891.269
263.9013, 3898.036
264.3834, 3905.948
264.8655, 3888.578
265.3477, 3816.333
265.8298, 3730.426
266.3119, 3656.307
266.7940, 3599.506
267.2761, 3545.056
267.7582, 3475.328
268.2404, 3388.067
268.7225, 3297.902
269.2046, 3196.960
269.6867, 3100.371
270.1688, 3019.906
270.6509, 2957.183
271.1331, 2900.170
271.6152, 2835.304
272.0973, 2760.754
272.5794, 2687.142
273.0615, 2603.494
273.5436, 2530.289
274.0258, 2485.533
274.5079, 2469.718
274.9900, 2459.667
275.4721, 2423.785
275.9542, 2354.327
276.4363, 2308.803
276.9185, 2320.353
277.4006, 2340.317
277.8827, 2345.609
278.3648, 2333.850
278.8469, 2315.661
279.3290, 2299.571
279.8112, 2284.969
280.2933, 2276.688
280.7754, 2285.659
281.2575, 2292.957
281.7396, 2287.525
282.2217, 2269.933
282.7039, 2249.880
283.1860, 2236.185
283.6681, 2229.254
284.1502, 2222.943
284.6323, 2215.017
285.1144, 2209.604
285.5966, 2211.985
286.0787, 2220.077
286.5608, 2225.041
287.0429, 2214.096
287.5250, 2186.771
288.0071, 2176.395
288.4893, 2208.091
288.9714, 2232.246
289.4535, 2222.135
289.9356, 2183.988
290.4177, 2140.639
290.8998, 2111.161
291.3820, 2094.217
291.8641, 2066.942
292.3462, 2016.923
292.8283, 1971.362
293.3104, 1941.364
293.7925, 1924.781
294.2747, 1915.769
294.7568, 1915.986
295.2389, 1921.923
295.7210, 1911.101
296.2031, 1873.137
296.6852, 1831.982
297.1674, 1796.700
297.6495, 1766.044
298.1316, 1737.447
298.6137, 1707.782
299.0958, 1679.220
299.5779, 1661.021
300.0601, 1660.332
300.5422, 1657.193
301.0243, 1643.324
301.5064, 1622.281
301.9885, 1596.940
302.4706, 1562.793
302.9528, 1530.581
303.4349, 1529.842
303.9170, 1574.302
304.3991, 1617.557
304.8812, 1647.933
305.3633, 1664.901
305.8455, 1663.308
306.3276, 1635.725
306.8097, 1599.364
307.2918, 1583.512
307.7739, 1593.300
308.2560, 1605.637
308.7382, 1611.533
309.2203, 1616.028
309.7024, 1623.372
310.1845, 1634.540
310.6666, 1649.275
311.1487, 1670.618
311.6309, 1700.550
312.1130, 1721.424
312.5951, 1712.777
313.0772, 1701.566
313.5593, 1714.434
314.0414, 1758.130
314.5236, 1806.852
315.0057, 1836.695
315.4878, 1847.945
315.9699, 1854.730
316.4520, 1855.105
316.9341, 1857.060
317.4163, 1871.724
317.8984, 1900.560
318.3805, 1922.401
318.8626, 1916.249
319.3447, 1887.304
319.8268, 1867.793
320.3090, 1871.290
320.7911, 1875.507
321.2732, 1857.202
321.7553, 1818.004
322.2374, 1780.313
322.7195, 1758.090
323.2017, 1745.905
323.6838, 1727.946
324.1659, 1699.957
324.6480, 1670.852
325.1301, 1649.436
325.6122, 1633.939
326.0944, 1617.306
326.5765, 1591.244
327.0586, 1564.529
327.5407, 1553.690
328.0228, 1562.663
328.5049, 1573.491
328.9871, 1571.181
329.4692, 1559.023
329.9513, 1547.462
330.4334, 1534.364
330.9155, 1525.155
331.3976, 1529.838
331.8798, 1548.615
332.3619, 1562.393
332.8440, 1556.529
333.3261, 1535.853
333.8082, 1521.737
334.2903, 1519.752
334.7725, 1520.019
335.2546, 1517.632
335.7367, 1512.465
336.2188, 1503.951
336.7010, 1491.570
337.1831, 1475.540
337.6652, 1456.208
338.1473, 1428.060
338.6294, 1405.119
339.1115, 1396.010
339.5937, 1396.039
340.0758, 1393.675
340.5579, 1383.249
341.0400, 1371.788
341.5221, 1376.689
342.0042, 1409.586
342.4864, 1430.197
342.9685, 1421.530
343.4506, 1400.109
343.9327, 1385.707
344.4148, 1383.597
344.8969, 1389.107
345.3791, 1396.560
345.8612, 1407.887
346.3433, 1415.675
346.8254, 1419.577
347.3075, 1420.164
347.7896, 1414.601
348.2718, 1404.067
348.7539, 1397.345
349.2360, 1404.501
349.7181, 1429.152
350.2002, 1444.049
350.6823, 1448.122
351.1645, 1445.327
351.6466, 1430.630
352.1287, 1409.616
352.6108, 1396.782
353.0929, 1403.549
353.5750, 1428.780
354.0572, 1450.645
354.5393, 1473.080
355.0214, 1487.875
355.5035, 1485.789
355.9856, 1476.303
356.4677, 1474.395
356.9499, 1488.235
357.4320, 1512.772
357.9141, 1531.805
358.3962, 1544.533
358.8783, 1552.023
359.3604, 1552.022
359.8426, 1548.535
360.3247, 1545.352
360.8068, 1543.693
361.2889, 1541.957
361.7710, 1537.302
362.2531, 1528.403
362.7353, 1520.027
363.2174, 1506.225
363.6995, 1497.584
364.1816, 1505.823
364.6637, 1529.399
365.1458, 1551.643
365.6280, 1554.245
366.1101, 1535.692
366.5922, 1517.833
367.0743, 1494.346
367.5564, 1479.362
368.0385, 1480.521
368.5207, 1495.348
369.0028, 1517.065
369.4849, 1548.414
369.9670, 1583.203
370.4491, 1592.328
370.9312, 1558.376
371.4134, 1534.919
371.8955, 1563.536
372.3776, 1615.489
372.8597, 1646.443
373.3418, 1632.360
373.8239, 1601.961
374.3061, 1596.386
374.7882, 1618.246
375.2703, 1640.075
375.7524, 1648.997
376.2345, 1652.679
376.7166, 1661.226
377.1988, 1676.337
377.6809, 1693.787
378.1630, 1712.872
378.6451, 1732.436
379.1272, 1746.904
379.6093, 1753.149
380.0915, 1756.294
380.5736, 1764.544
381.0557, 1778.653
381.5378, 1788.759
382.0199, 1780.141
382.5020, 1769.855
382.9842, 1788.383
383.4663, 1842.021
383.9484, 1898.576
384.4305, 1923.525
384.9126, 1913.687
385.3947, 1921.203
385.8769, 1963.530
386.3590, 2010.487
386.8411, 2042.974
387.3232, 2061.469
387.8053, 2074.152
388.2874, 2086.590
388.7696, 2097.865
389.2517, 2099.781
389.7338, 2090.165
390.2159, 2075.525
390.6980, 2053.250
391.1801, 2028.001
391.6623, 2006.603
392.1444, 1992.055
392.6265, 1982.057
393.1086, 1971.611
393.5907, 1959.373
394.0728, 1948.860
394.5550, 1943.052
395.0371, 1936.968
395.5192, 1926.162
396.0013, 1910.319
396.4834, 1892.700
396.9655, 1876.528
397.4477, 1861.194
397.9298, 1850.364
398.4119, 1840.512
398.8940, 1838.701
399.3761, 1856.611
399.8582, 1885.433
400.3404, 1904.247
400.8225, 1896.165
401.3046, 1868.202
401.7867, 1852.951
402.2688, 1856.341
402.7509, 1862.132
403.2331, 1866.570
403.7152, 1869.486
404.1973, 1869.409
404.6794, 1864.570
405.1615, 1861.170
405.6436, 1869.210
406.1258, 1889.789
406.6079, 1908.766
407.0900, 1927.660
407.5721, 1938.254
408.0542, 1927.693
408.5363, 1894.008
409.0185, 1868.686
409.5006, 1882.336
409.9827, 1918.264
410.4648, 1929.905
410.9469, 1905.884
411.4290, 1872.328
411.9112, 1853.912
412.3933, 1848.120
412.8754, 1840.509
413.3575, 1828.696
413.8396, 1814.072
414.3217, 1793.953
414.8039, 1770.055
415.2860, 1754.930
415.7681, 1759.064
416.2502, 1777.046
416.7323, 1781.663
417.2144, 1755.097
417.6966, 1738.376
418.1787, 1758.871
418.6608, 1791.852
419.1429, 1796.807
419.6250, 1759.333
420.1071, 1701.564
420.5893, 1661.177
421.0714, 1650.116
421.5535, 1633.137
422.0356, 1605.289
422.5177, 1575.937
422.9998, 1548.313
423.4820, 1524.414
423.9641, 1507.771
424.4462, 1502.764
424.9283, 1509.452
425.4104, 1512.766
425.8925, 1512.816
426.3747, 1508.908
426.8568, 1496.346
427.3389, 1480.910
427.8210, 1471.636
428.3031, 1473.494
428.7852, 1480.878
429.2674, 1483.754
429.7495, 1483.042
430.2316, 1474.731
430.7137, 1442.772
431.1958, 1412.107
431.6779, 1404.932
432.1601, 1423.997
432.6422, 1443.098
433.1243, 1439.196
433.6064, 1417.312
434.0885, 1399.787
434.5706, 1389.233
435.0528, 1383.735
435.5349, 1381.899
436.0170, 1383.588
436.4991, 1389.910
436.9812, 1408.739
437.4633, 1427.209
437.9455, 1430.419
438.4276, 1419.549
438.9097, 1408.712
439.3918, 1406.765
439.8739, 1409.555
440.3560, 1402.300
440.8382, 1374.343
441.3203, 1353.703
441.8024, 1352.158
442.2845, 1360.925
442.7666, 1370.175
443.2487, 1376.861
443.7309, 1379.263
444.2130, 1374.036
444.6951, 1356.865
445.1772, 1346.498
445.6593, 1351.210
446.1414, 1354.243
446.6236, 1341.804
447.1057, 1319.437
447.5878, 1303.812
448.0699, 1307.211
448.5520, 1326.294
449.0341, 1343.471
449.5163, 1365.707
449.9984, 1374.025
450.4805, 1352.016
450.9626, 1322.419
451.4447, 1308.968
451.9268, 1318.765
452.4090, 1338.153
452.8911, 1351.843
453.3732, 1359.738
453.8553, 1365.867
454.3374, 1371.056
454.8195, 1373.980
455.3017, 1373.029
455.7838, 1368.939
456.2659, 1365.222
456.7480, 1361.447
457.2301, 1359.833
457.7122, 1364.440
458.1944, 1375.590
458.6765, 1389.447
459.1586, 1405.082
459.6407, 1421.557
460.1228, 1436.223
460.6049, 1449.673
461.0871, 1460.512
461.5692, 1464.835
462.0513, 1466.886
462.5334, 1476.069
463.0155, 1495.475
463.4977, 1515.823
463.9798, 1523.053
464.4619, 1509.205
464.9440, 1507.690
465.4261, 1532.510
465.9082, 1556.304
466.3904, 1557.906
466.8725, 1544.134
467.3546, 1537.491
467.8367, 1553.776
468.3188, 1589.094
468.8009, 1623.595
469.2831, 1658.092
469.7652, 1690.541
470.2473, 1725.912
470.7294, 1756.344
471.2115, 1769.797
471.6936, 1764.174
472.1758, 1758.793
472.6579, 1778.044
473.1400, 1821.596
473.6221, 1859.307
474.1042, 1884.391
474.5863, 1908.375
475.0685, 1940.204
475.5506, 1977.528
476.0327, 2013.453
476.5148, 2045.478
476.9969, 2074.624
477.4790, 2102.485
477.9612, 2128.914
478.4433, 2152.121
478.9254, 2172.371
479.4075, 2187.675
479.8896, 2193.433
480.3717, 2191.420
480.8539, 2178.655
481.3360, 2145.083
481.8181, 2104.932
482.3002, 2073.781
482.7823, 2054.454
483.2644, 2043.827
483.7466, 2042.047
484.2287, 2052.208
484.7108, 2034.983
485.1929, 1961.177
485.6750, 1894.162
486.1571, 1854.204
486.6393, 1833.654
487.1214, 1819.236
487.6035, 1805.116
488.0856, 1792.676
488.5677, 1786.197
489.0498, 1788.811
489.5320, 1786.374
490.0141, 1765.703
490.4962, 1748.301
490.9783, 1749.869
491.4604, 1768.225
491.9425, 1786.049
492.4247, 1788.361
492.9068, 1783.031
493.3889, 1786.913
493.8710, 1799.879
494.3531, 1825.618
494.8352, 1876.655
495.3174, 1938.721
495.7995, 1977.126
496.2816, 1973.877
496.7637, 1976.519
497.2458, 2012.016
497.7279, 2067.369
498.2101, 2120.220
498.6922, 2164.814
499.1743, 2207.288
499.6564, 2254.798
500.1385, 2308.410
500.6206, 2362.373
501.1028, 2414.628
501.5849, 2469.628
502.0670, 2531.907
502.5491, 2598.272
503.0312, 2662.843
503.5133, 2722.017
503.9955, 2778.439
504.4776, 2839.531
504.9597, 2910.076
505.4418, 2972.800
505.9239, 3019.111
506.4060, 3062.001
506.8882, 3112.384
507.3703, 3168.829
507.8524, 3217.402
508.3345, 3248.664
508.8166, 3264.666
509.2987, 3270.128
509.7809, 3264.106
510.2630, 3251.826
510.7451, 3234.803
511.2272, 3213.628
511.7093, 3190.354
512.1914, 3166.930
512.6735, 3138.178
513.1556, 3094.709
513.6378, 3045.969
514.1199, 3009.185
514.6020, 2988.205
515.0841, 2976.540
515.5662, 2968.702
516.0483, 2966.797
516.5305, 2953.404
517.0126, 2916.549
517.4947, 2882.575
517.9768, 2861.750
518.4589, 2851.043
518.9410, 2847.267
519.4232, 2849.502
519.9053, 2849.078
520.3874, 2826.486
520.8695, 2774.241
521.3516, 2725.884
521.8337, 2696.443
522.3159, 2662.273
522.7980, 2603.730
523.2801, 2526.240
523.7622, 2456.624
524.2443, 2418.843
524.7264, 2394.171
525.2086, 2347.051
525.6907, 2276.774
526.1728, 2199.708
526.6549, 2116.469
527.1370, 2036.799
527.6191, 1983.581
528.1013, 1969.648
528.5834, 1945.975
529.0655, 1890.072
529.5476, 1821.598
530.0297, 1761.064
530.5118, 1711.711
530.9940, 1668.709
531.4761, 1627.540
531.9582, 1588.576
532.4403, 1559.615
532.9224, 1550.940
533.4045, 1540.873
533.8867, 1520.059
534.3688, 1499.140
534.8509, 1493.903
535.3330, 1507.745
535.8151, 1521.397
536.2972, 1506.488
536.7794, 1463.226
537.2615, 1437.901
537.7436, 1440.729
538.2257, 1449.520
538.7078, 1452.948
539.1899, 1452.022
539.6721, 1448.146
540.1542, 1439.166
540.6363, 1430.608
541.1184, 1430.867
541.6005, 1435.809
542.0826, 1430.145
542.5648, 1407.747
543.0469, 1380.103
543.5290, 1363.177
544.0111, 1361.060
544.4932, 1354.631
544.9753, 1339.942
545.4575, 1324.850
545.9396, 1312.164
546.4217, 1302.559
546.9038, 1299.579
547.3859, 1306.154
547.8680, 1311.650
548.3502, 1285.563
548.8323, 1206.701
549.3144, 1157.816
549.7965, 1177.352
550.2786, 1207.468
550.7607, 1216.847
551.2429, 1207.852
551.7250, 1201.396
552.2071, 1216.388
552.6892, 1237.066
553.1713, 1232.129
553.6534, 1201.606
554.1356, 1179.753
554.6177, 1185.833
555.0998, 1204.743
555.5819, 1204.070
556.0640, 1177.087
556.5461, 1156.950
557.0283, 1150.451
557.5104, 1153.163
557.9925, 1165.104
558.4746, 1183.545
558.9567, 1200.960
559.4388, 1212.068
559.9210, 1217.256
560.4031, 1218.262
560.8852, 1215.571
561.3673, 1207.434
561.8494, 1182.364
562.3315, 1160.351
562.8137, 1163.175
563.2958, 1189.769
563.7779, 1212.729
564.2600, 1205.159
564.7421, 1177.514
565.2242, 1160.840
565.7064, 1155.941
566.1885, 1161.262
566.6706, 1185.027
567.1527, 1214.307
567.6348, 1219.144
568.1169, 1187.503
568.5991, 1159.910
569.0812, 1150.851
569.5633, 1152.503
570.0454, 1158.418
570.5275, 1166.485
571.0096, 1172.417
571.4918, 1172.108
571.9739, 1166.420
572.4560, 1165.268
572.9381, 1175.988
573.4202, 1181.210
573.9023, 1176.071
574.3845, 1166.045
574.8666, 1154.358
575.3487, 1142.339
575.8308, 1133.568
576.3129, 1134.366
576.7950, 1141.568
577.2772, 1140.244
577.7593, 1127.451
578.2414, 1116.493
578.7235, 1118.637
579.2056, 1126.474
579.6877, 1122.207
580.1699, 1099.538
580.6520, 1077.013
581.1341, 1054.674
581.6162, 1039.759
582.0984, 1048.034
582.5805, 1078.648
583.0626, 1107.973
583.5447, 1115.097
584.0269, 1101.814
584.5090, 1091.404
584.9911, 1083.720
585.4732, 1079.518
585.9553, 1080.721
586.4374, 1084.143
586.9196, 1087.189
587.4017, 1089.280
587.8838, 1090.884
588.3659, 1091.741
588.8480, 1092.391
589.3301, 1096.195
589.8123, 1104.703
590.2944, 1108.660
590.7765, 1100.446
591.2586, 1085.036
591.7407, 1075.049
592.2228, 1071.585
592.7050, 1070.908
593.1871, 1074.923
593.6692, 1079.403
594.1513, 1077.192
594.6334, 1069.300
595.1155, 1066.070
595.5977, 1076.921
596.0798, 1098.635
596.5619, 1109.582
597.0440, 1102.215
597.5261, 1096.799
598.0082, 1091.255
598.4904, 1092.453
598.9725, 1113.328
599.4546, 1151.501
599.9367, 1179.577
600.4188, 1168.199
600.9009, 1136.573
601.3831, 1128.251
601.8652, 1144.829
602.3473, 1156.179
602.8294, 1144.583
603.3115, 1121.824
603.7936, 1115.792
604.2758, 1133.603
604.7579, 1146.604
605.2400, 1146.567
605.7221, 1143.661
606.2042, 1145.180
606.6863, 1151.109
607.1685, 1159.230
607.6506, 1168.827
608.1327, 1177.461
608.6148, 1175.787
609.0969, 1156.883
609.5790, 1149.700
610.0612, 1171.866
610.5433, 1196.216
611.0254, 1205.770
611.5075, 1201.528
611.9896, 1192.444
612.4717, 1175.675
612.9539, 1160.657
613.4360, 1161.614
613.9181, 1174.446
614.4002, 1181.208
614.8823, 1175.332
615.3644, 1160.605
615.8466, 1140.270
616.3287, 1107.449
616.8108, 1095.729
617.2929, 1123.195
617.7750, 1150.649
618.2571, 1159.877
618.7393, 1157.899
619.2214, 1158.939
619.7035, 1168.911
620.1856, 1180.209
620.6677, 1182.431
621.1498, 1175.720
621.6320, 1165.798
622.1141, 1149.550
622.5962, 1137.859
623.0783, 1145.037
623.5604, 1162.849
624.0425, 1167.865
624.5247, 1143.011
625.0068, 1124.959
625.4889, 1136.251
625.9710, 1161.999
626.4531, 1183.083
626.9352, 1194.939
627.4174, 1199.414
627.8995, 1197.428
628.3816, 1189.360
628.8637, 1181.394
629.3458, 1167.276
629.8279, 1163.684
630.3101, 1187.611
630.7922, 1213.642
631.2743, 1213.988
631.7564, 1186.654
632.2385, 1162.852
632.7206, 1170.125
633.2028, 1191.250
633.6849, 1194.044
634.1670, 1178.299
634.6491, 1164.248
635.1312, 1161.659
635.6133, 1166.686
636.0955, 1171.410
636.5776, 1174.824
637.0597, 1180.109
637.5418, 1193.336
638.0239, 1202.918
638.5060, 1198.277
638.9882, 1184.703
639.4703, 1176.020
639.9524, 1180.013
640.4345, 1187.309
640.9166, 1180.373
641.3987, 1158.616
641.8809, 1139.377
642.3630, 1122.916
642.8451, 1113.437
643.3272, 1120.380
643.8093, 1138.091
644.2914, 1147.402
644.7736, 1140.576
645.2557, 1130.719
645.7378, 1122.912
646.2199, 1116.182
646.7020, 1108.122
647.1841, 1098.702
647.6663, 1091.644
648.1484, 1091.111
648.6305, 1096.582
649.1126, 1100.631
649.5947, 1105.153
650.0768, 1104.701
650.5590, 1093.542
651.0411, 1079.925
651.5232, 1071.340
652.0053, 1068.476
652.4874, 1065.631
652.9695, 1056.779
653.4517, 1047.939
653.9338, 1049.888
654.4159, 1060.764
654.8980, 1066.748
655.3801, 1060.904
655.8622, 1049.572
656.3444, 1044.629
656.8265, 1050.501
657.3086, 1050.653
657.7907, 1038.434
658.2728, 1028.185
658.7549, 1031.861
659.2371, 1040.208
659.7192, 1033.375
660.2013, 1001.624
660.6834, 971.3080
661.1655, 978.8495
661.6476, 1014.986
662.1298, 1034.543
662.6119, 1030.152
663.0940, 1020.266
663.5761, 1015.477
664.0582, 1015.874
664.5403, 1022.037
665.0225, 1042.859
665.5046, 1056.255
665.9867, 1055.810
666.4688, 1048.773
666.9509, 1037.000
667.4330, 1023.930
667.9152, 991.1862
668.3973, 1028.034
668.8794, 1050.850
669.3615, 1060.389
669.8436, 1016.881
670.3257, 1041.871
670.8079, 1039.412
671.2900, 1035.825
671.7721, 1070.456
672.2542, 1034.664
672.7363, 1068.689
673.2184, 1074.844
673.7006, 1093.756
674.1827, 1085.045
674.6648, 1084.866
675.1469, 1112.317
675.6290, 1124.469
676.1111, 1106.446
676.5933, 1112.252
677.0754, 1112.897
677.5575, 1118.291
678.0396, 1128.179
678.5217, 1143.588
679.0038, 1176.121
679.4860, 1207.000
679.9681, 1212.928
680.4502, 1192.448
680.9323, 1180.057
681.4144, 1195.094
681.8965, 1218.973
682.3787, 1233.660
682.8608, 1242.365
683.3429, 1258.274
683.8250, 1286.863
684.3071, 1317.665
684.7892, 1333.131
685.2714, 1329.437
685.7535, 1333.991
686.2356, 1354.705
686.7177, 1373.255
687.1998, 1380.411
687.6819, 1383.113
688.1641, 1389.860
688.6462, 1402.267
689.1283, 1418.563
689.6104, 1440.716
690.0925, 1464.567
690.5746, 1485.161
691.0568, 1501.788
691.5389, 1509.822
692.0210, 1504.248
692.5031, 1498.087
692.9852, 1524.601
693.4673, 1610.617
693.9495, 1664.303
694.4316, 1660.688
694.9137, 1650.393
695.3958, 1650.244
695.8779, 1658.690
696.3600, 1670.187
696.8422, 1682.366
697.3243, 1700.441
697.8064, 1738.969
698.2885, 1784.228
698.7706, 1800.257
699.2527, 1784.451
699.7349, 1774.185
700.2170, 1796.781
700.6991, 1840.101
701.1812, 1861.531
701.6633, 1846.649
702.1454, 1834.415
702.6276, 1827.504
703.1097, 1821.583
703.5918, 1812.055
704.0739, 1801.716
704.5560, 1800.189
705.0381, 1818.246
705.5203, 1828.115
706.0024, 1795.495
706.4845, 1731.750
706.9666, 1664.122
707.4487, 1596.568
707.9308, 1544.378
708.4130, 1522.466
708.8951, 1524.028
709.3772, 1513.356
709.8593, 1481.648
710.3414, 1450.163
710.8235, 1417.051
711.3057, 1386.974
711.7878, 1365.535
712.2699, 1349.904
712.7520, 1331.371
713.2341, 1304.541
713.7162, 1275.646
714.1984, 1250.305
714.6805, 1228.954
715.1626, 1213.787
715.6447, 1205.661
716.1268, 1198.658
716.6089, 1187.960
717.0911, 1174.096
717.5732, 1160.449
718.0553, 1144.183
718.5374, 1132.485
719.0195, 1130.399
719.5016, 1129.196
719.9838, 1123.753
720.4659, 1113.632
720.9480, 1099.464
721.4301, 1079.647
721.9122, 1059.067
722.3943, 1041.589
722.8765, 1028.025
723.3586, 1022.429
723.8407, 1025.907
724.3228, 1032.563
724.8049, 1038.252
725.2870, 1042.553
725.7692, 1041.651
726.2513, 1029.013
726.7334, 1020.812
727.2155, 1018.321
727.6976, 1020.490
728.1797, 1032.828
728.6619, 1050.005
729.1440, 1053.697
729.6261, 1026.829
730.1082, 995.8321
730.5903, 992.1949
731.0724, 1007.105
731.5546, 1015.415
732.0367, 1011.964
732.5188, 1005.077
733.0009, 1001.505
733.4830, 1000.853
733.9651, 1000.083
734.4473, 995.6085
734.9294, 997.3729
735.4115, 1013.959
735.8936, 1030.091
736.3757, 1034.337
736.8578, 1029.230
737.3400, 1024.909
737.8221, 1023.924
738.3042, 1027.273
738.7863, 1038.929
739.2684, 1054.828
739.7505, 1066.832
740.2327, 1073.556
740.7148, 1076.207
741.1969, 1074.636
741.6790, 1071.268
742.1611, 1078.356
742.6432, 1104.123
743.1254, 1121.201
743.6075, 1122.077
744.0896, 1117.117
744.5717, 1107.675
745.0538, 1097.117
745.5359, 1094.770
746.0181, 1107.206
746.5002, 1121.314
746.9823, 1128.201
747.4644, 1132.161
747.9465, 1140.925
748.4286, 1154.134
748.9108, 1163.262
749.3929, 1162.038
749.8750, 1154.497
750.3571, 1151.948
750.8392, 1155.765
751.3214, 1157.528
751.8035, 1150.283
752.2856, 1149.255
752.7677, 1173.820
753.2498, 1211.043
753.7319, 1230.237
754.2141, 1218.174
754.6962, 1207.443
755.1783, 1216.140
755.6604, 1226.967
756.1425, 1220.122
756.6246, 1199.088
757.1068, 1180.325
757.5889, 1172.714
758.0710, 1171.500
758.5531, 1165.525
759.0352, 1155.086
759.5173, 1166.493
759.9995, 1212.635
760.4816, 1246.740
760.9637, 1238.921
761.4458, 1200.551
761.9279, 1157.958
762.4100, 1096.360
762.8922, 1066.184
763.3743, 1103.582
763.8564, 1145.490
764.3385, 1148.205
764.8206, 1127.341
765.3027, 1117.405
765.7849, 1131.336
766.2670, 1153.418
766.7491, 1174.745
767.2312, 1190.386
767.7133, 1177.852
768.1954, 1135.830
768.6776, 1102.443
769.1597, 1096.274
769.6418, 1106.954
770.1239, 1118.154
770.6060, 1132.845
771.0881, 1136.746
771.5703, 1118.972
772.0524, 1103.667
772.5345, 1097.717
773.0166, 1098.334
773.4987, 1101.948
773.9808, 1107.907
774.4630, 1117.481
774.9451, 1139.379
775.4272, 1159.857
775.9093, 1158.881
776.3914, 1141.356
776.8735, 1123.081
777.3557, 1109.202
777.8378, 1101.646
778.3199, 1104.101
778.8020, 1115.881
779.2841, 1122.527
779.7662, 1125.426
780.2484, 1119.879
780.7305, 1097.119
781.2126, 1071.555
781.6947, 1051.729
782.1768, 1038.779
782.6589, 1039.028
783.1411, 1075.235
783.6232, 1100.894
784.1053, 1080.787
784.5874, 1042.744
785.0695, 1022.626
785.5516, 1023.955
786.0338, 1028.239
786.5159, 1022.273
786.9980, 1010.647
787.4801, 1002.875
787.9622, 998.9332
788.4443, 999.0464
788.9265, 1004.905
789.4086, 1009.626
789.8907, 1008.886
790.3728, 1002.721
790.8549, 990.9783
791.3370, 961.6323
791.8192, 945.1920
792.3013, 952.9360
792.7834, 964.9258
793.2655, 971.3018
793.7476, 971.8676
794.2297, 967.8429
794.7119, 959.0118
795.1940, 950.0737
795.6761, 943.6295
796.1582, 940.5919
796.6403, 944.8107
797.1224, 955.2547
797.6046, 962.5298
798.0867, 961.5584
798.5688, 959.7290
799.0509, 972.5269
799.5330, 1005.207
800.0151, 1015.270
800.4973, 989.3577
800.9794, 962.7880
801.4615, 942.5871
801.9436, 931.7990
802.4257, 936.5300
802.9078, 957.5129
803.3900, 978.4932
803.8721, 1002.561
804.3542, 1017.565
804.8363, 1006.273
805.3184, 985.4833
805.8005, 986.9993
806.2827, 1012.551
806.7648, 1026.378
807.2469, 990.6367
807.7290, 931.7626
808.2111, 923.7165
808.6932, 964.4070
809.1754, 982.1243
809.6575, 956.0892
810.1396, 925.5363
810.6217, 925.6085
811.1038, 950.8588
811.5859, 965.2311
812.0681, 958.5912
812.5502, 955.9486
813.0323, 967.5272
813.5144, 974.5569
813.9965, 960.8999
814.4786, 934.8692
814.9608, 916.2009
815.4429, 912.6805
815.9250, 911.0496
816.4071, 901.3730
816.8892, 888.9688
817.3713, 882.3774
817.8535, 880.1010
818.3356, 872.1371
818.8177, 853.7562
819.2998, 835.6638
819.7819, 836.4583
820.2640, 856.1903
820.7462, 867.4175
821.2283, 869.7948
821.7104, 863.9991
822.1925, 844.5479
822.6746, 823.2577
823.1567, 818.6385
823.6389, 832.8927
824.1210, 839.0801
824.6031, 829.4202
825.0852, 820.3634
825.5673, 816.3634
826.0494, 815.8417
826.5316, 818.4761
827.0137, 823.1656
827.4958, 826.4372
827.9779, 825.6745
828.4600, 823.7263
828.9421, 823.2968
829.4243, 824.2586
829.9064, 828.1437
830.3885, 834.4252
830.8706, 835.9275
831.3527, 827.4409
831.8348, 812.0767
832.3170, 795.0635
832.7991, 772.7495
833.2812, 768.6582
833.7633, 795.1404
834.2454, 819.5103
834.7275, 823.4669
835.2097, 814.8946
835.6918, 808.2650
836.1739, 803.3642
836.6560, 801.5188
837.1381, 802.6584
837.6202, 807.1705
838.1024, 821.4838
838.5845, 836.3456
839.0666, 836.8867
839.5487, 821.4836
840.0308, 805.4514
840.5129, 801.5710
840.9951, 802.8024
841.4772, 797.2189
841.9593, 787.3525
842.4414, 783.2364
842.9235, 787.1104
843.4056, 791.4287
843.8878, 789.6307
844.3699, 783.2826
844.8520, 777.4978
845.3341, 769.8289
845.8162, 772.9595
846.2983, 798.0953
846.7805, 819.7051
847.2626, 816.6915
847.7447, 799.4379
848.2268, 792.7853
848.7089, 803.5840
849.1910, 808.7695
849.6732, 801.2935
850.1553, 789.9277
850.6374, 773.6481
851.1195, 759.5700
851.6016, 760.5378
852.0837, 779.1030
852.5659, 799.0106
853.0480, 810.2360
853.5301, 813.3964
854.0122, 806.2598
854.4943, 791.6483
854.9764, 778.6113
855.4586, 769.7352
855.9407, 763.9916
856.4228, 760.3512
856.9049, 759.1990
857.3870, 763.0605
857.8691, 773.3284
858.3513, 783.0222
858.8334, 793.7004
859.3155, 798.8981
859.7976, 789.4069
860.2797, 771.4820
860.7618, 766.2613
861.2440, 783.9249
861.7261, 792.0080
862.2082, 780.8463
862.6903, 765.9066
863.1724, 748.8876
863.6545, 736.4398
864.1367, 741.0554
864.6188, 765.0568
865.1009, 787.0955
865.5830, 788.9901
866.0651, 784.8486
866.5472, 795.5954
867.0294, 813.0801
867.5115, 812.4890
867.9936, 789.6898
868.4757, 768.4343
868.9578, 770.9430
869.4399, 787.7304
869.9221, 787.1412
870.4042, 767.6824
870.8863, 756.9496
871.3684, 760.4428
871.8505, 768.7623
872.3326, 776.7288
872.8148, 784.3646
873.2969, 792.0632
873.7790, 803.2260
874.2611, 806.8275
874.7432, 796.7532
875.2253, 786.6815
875.7075, 781.9708
876.1896, 780.0630
876.6717, 777.7056
877.1538, 774.4445
877.6359, 770.9796
878.1180, 764.7469
878.6002, 761.3961
879.0823, 768.2217
879.5644, 778.8146
880.0465, 783.2438
880.5286, 780.7371
881.0107, 777.1921
881.4929, 776.1409
881.9750, 777.2218
882.4571, 782.4229
882.9392, 789.6162
883.4213, 786.4420
883.9034, 771.7187
884.3856, 761.4354
884.8677, 764.6882
885.3498, 776.9075
885.8319, 790.7954
886.3140, 808.0151
886.7961, 815.2708
887.2783, 807.5922
887.7604, 799.8535
888.2425, 795.5756
888.7246, 794.6799
889.2067, 798.5483
889.6888, 806.7976
890.1710, 812.1884
890.6531, 805.3510
891.1352, 807.1646
891.6173, 834.4254
892.0994, 863.0698
892.5815, 873.1899
893.0637, 867.1557
893.5458, 855.1127
894.0279, 838.3299
894.5100, 827.1755
894.9921, 833.4249
895.4742, 847.3044
895.9564, 857.9953
896.4385, 864.4296
896.9206, 866.5624
897.4027, 864.3790
897.8848, 857.5706
898.3669, 842.2644
898.8491, 823.4706
899.3312, 821.9626
899.8133, 837.6854
900.2954, 852.4966
900.7775, 862.6394
901.2596, 867.8588
901.7418, 865.8489
902.2239, 860.2416
902.7060, 868.5643
903.1881, 904.2722
903.6702, 920.2725
904.1523, 900.6365
904.6345, 879.4246
905.1166, 869.3566
905.5987, 869.1849
906.0808, 880.5799
906.5629, 906.4084
907.0450, 923.6295
907.5272, 925.7805
908.0093, 921.3996
908.4914, 908.2486
908.9735, 894.4716
909.4556, 889.7138
909.9377, 893.5315
910.4199, 897.6827
910.9020, 898.4573
911.3841, 897.4407
911.8662, 893.7973
912.3483, 890.4214
912.8304, 892.3518
913.3126, 899.1520
913.7947, 908.7844
914.2768, 920.3421
914.7589, 927.6967
915.2410, 919.0809
915.7231, 898.7559
916.2053, 886.3477
916.6874, 881.9793
917.1695, 886.5446
917.6516, 901.5388
918.1337, 918.9893
918.6158, 932.4881
919.0980, 941.2626
919.5801, 938.9534
920.0622, 917.1989
920.5443, 909.3462
921.0264, 931.2725
921.5085, 948.6799
921.9907, 934.8803
922.4728, 905.5207
922.9549, 892.9437
923.4370, 900.1268
923.9191, 911.9160
924.4012, 937.6342
924.8834, 955.0008
925.3655, 947.0292
925.8476, 931.9990
926.3297, 929.2036
926.8118, 939.4029
927.2939, 952.0880
927.7761, 968.4779
928.2582, 977.5231
928.7403, 960.7074
929.2224, 940.4325
929.7045, 947.1375
930.1866, 974.6625
930.6688, 999.1755
931.1509, 1010.729
931.6330, 1011.821
932.1151, 995.3625
932.5972, 974.3423
933.0793, 983.1605
933.5615, 1015.388
934.0436, 1037.698
934.5257, 1041.085
935.0078, 1035.089
935.4899, 1026.667
935.9720, 1017.934
936.4542, 1016.585
936.9363, 1023.127
937.4184, 1030.682
937.9005, 1039.666
938.3826, 1045.006
938.8647, 1043.368
939.3469, 1037.110
939.8290, 1028.541
940.3111, 1014.571
940.7932, 1018.315
941.2753, 1060.349
941.7574, 1088.153
942.2396, 1078.667
942.7217, 1059.173
943.2038, 1048.487
943.6859, 1045.864
944.1680, 1046.351
944.6501, 1050.217
945.1323, 1055.756
945.6144, 1065.518
946.0965, 1073.983
946.5786, 1078.449
947.0607, 1078.861
947.5428, 1073.588
948.0250, 1062.587
948.5071, 1055.697
948.9892, 1057.143
949.4713, 1065.779
949.9534, 1091.177
950.4355, 1117.790
950.9177, 1118.702
951.3998, 1095.874
951.8819, 1074.583
952.3640, 1069.066
952.8461, 1068.392
953.3282, 1061.458
953.8104, 1048.401
954.2925, 1022.441
954.7746, 988.7055
955.2567, 976.0099
955.7388, 994.4301
956.2209, 1020.717
956.7031, 1031.697
957.1852, 1029.251
957.6673, 1017.626
958.1494, 996.6818
958.6315, 981.3442
959.1136, 974.4984
959.5958, 970.6205
960.0779, 966.6907
960.5600, 962.4733
961.0421, 957.0336
961.5242, 949.5076
962.0063, 946.2070
962.4885, 951.2119
962.9706, 950.9686
963.4527, 936.3785
963.9348, 920.6961
964.4169, 919.4775
964.8990, 930.7709
965.3812, 933.5681
965.8633, 917.8358
966.3454, 909.0770
966.8275, 918.4592
967.3096, 924.5588
967.7917, 910.7098
968.2739, 889.1487
968.7560, 879.0113
969.2381, 883.0604
969.7202, 890.8182
970.2023, 901.7783
970.6844, 912.8486
971.1666, 926.1261
971.6487, 936.1761
972.1308, 933.6765
972.6129, 922.7827
973.0950, 918.5269
973.5771, 928.1169
974.0593, 939.2403
974.5414, 942.1073
975.0235, 943.1400
975.5056, 951.2530
975.9877, 962.5909
976.4698, 966.6879
976.9520, 962.2804
977.4341, 960.6467
977.9162, 972.9196
978.3983, 988.0908
978.8804, 985.7643
979.3625, 974.5766
979.8447, 978.2258
980.3268, 996.6672
980.8089, 1013.455
981.2910, 1020.903
981.7731, 1020.679
982.2552, 1012.225
982.7374, 998.2592
983.2195, 991.0878
983.7016, 990.5546
984.1837, 994.5840
984.6658, 1002.968
985.1479, 1011.409
985.6301, 1015.831
986.1122, 1020.094
986.5943, 1037.272
987.0764, 1070.576
987.5585, 1087.017
988.0406, 1081.652
988.5228, 1075.250
989.0049, 1074.568
989.4870, 1078.344
989.9691, 1087.239
990.4512, 1099.998
990.9333, 1100.972
991.4155, 1085.787
991.8976, 1068.299
992.3797, 1045.535
992.8618, 1026.905
993.3439, 1019.482
993.8260, 1018.352
994.3082, 1015.480
994.7903, 1011.275
995.2724, 1003.038
995.7545, 981.1559
996.2366, 968.1353
996.7188, 977.5839
997.2009, 989.9883
997.6830, 990.4413
998.1651, 981.5453
998.6472, 972.2130
999.1293, 963.0145
999.6115, 955.7578
1000.094, 954.1683
1000.576, 950.9022
1001.058, 940.6861
1001.540, 927.4842
1002.022, 913.6271
1002.504, 901.0451
1002.986, 896.5493
1003.468, 908.1106
1003.951, 918.4839
1004.433, 917.3132
1004.915, 911.6517
1005.397, 906.4362
1005.879, 902.3323
1006.361, 899.9184
1006.843, 899.1133
1007.325, 897.4417
1007.807, 892.0930
1008.290, 886.3492
1008.772, 881.1923
1009.254, 878.8630
1009.736, 887.6072
1010.218, 902.7288
1010.700, 904.6487
1011.182, 884.3494
1011.664, 864.9705
1012.146, 876.0873
1012.629, 899.2457
1013.111, 904.1878
1013.593, 895.4830
1014.075, 884.4327
1014.557, 874.6894
1015.039, 871.5504
1015.521, 879.5184
1016.003, 889.4177
1016.486, 884.1730
1016.968, 869.5875
1017.450, 864.2072
1017.932, 868.0137
1018.414, 877.5621
1018.896, 891.3593
1019.378, 897.1918
1019.860, 881.2869
1020.342, 855.8194
1020.825, 857.6588
1021.307, 882.9240
1021.789, 885.0082
1022.271, 859.6229
1022.753, 844.9644
1023.235, 858.6627
1023.717, 880.3533
1024.199, 884.7263
1024.682, 874.8353
1025.164, 869.1059
1025.646, 867.8866
1026.128, 866.6102
1026.610, 864.4589
1027.092, 862.8647
1027.574, 862.2277
1028.056, 863.8682
1028.538, 871.5944
1029.021, 885.8389
1029.503, 886.9206
1029.985, 869.3538
1030.467, 861.8254
1030.949, 875.8327
1031.431, 886.4766
1031.913, 872.7491
1032.395, 845.9034
1032.877, 835.6473
1033.360, 845.3793
1033.842, 856.7246
1034.324, 871.5355
1034.806, 884.2046
1035.288, 895.2996
1035.770, 900.2734
1036.252, 891.9148
1036.734, 874.3685
1037.217, 865.9992
1037.699, 872.2260
1038.181, 875.5574
1038.663, 871.8759
1039.145, 871.7045
1039.627, 883.8581
1040.109, 896.8254
1040.591, 894.9796
1041.073, 880.4832
1041.556, 877.9142
1042.038, 903.1945
1042.520, 915.6430
1043.002, 903.1293
1043.484, 890.4357
1043.966, 893.1935
1044.448, 898.5318
1044.930, 884.3807
1045.412, 850.3294
1045.895, 837.8821
1046.377, 869.9263
1046.859, 894.3276
1047.341, 904.6921
1047.823, 904.2909
1048.305, 884.2094
1048.787, 859.4972
1049.269, 854.6365
1049.752, 872.8080
1050.234, 892.9821
1050.716, 922.1240
1051.198, 938.9701
1051.680, 930.5596
1052.162, 915.3209
1052.644, 903.1700
1053.126, 894.9863
1053.609, 891.7295
1054.091, 894.4338
1054.573, 894.5939
1055.055, 880.4691
1055.537, 875.9982
1056.019, 900.8197
1056.501, 929.7712
1056.983, 940.0829
1057.465, 936.7526
1057.948, 938.0522
1058.430, 950.3408
1058.912, 952.5460
1059.394, 921.7034
1059.876, 899.3659
1060.358, 914.8699
1060.840, 940.7020
1061.322, 949.1775
1061.804, 942.8519
1062.287, 939.2156
1062.769, 944.4940
1063.251, 945.5687
1063.733, 930.1942
1064.215, 917.7684
1064.697, 924.6093
1065.179, 936.5395
1065.661, 933.7949
1066.144, 920.1890
1066.626, 918.9218
1067.108, 942.5255
1067.590, 962.1121
1068.072, 965.3979
1068.554, 961.4584
1069.036, 947.0693
1069.518, 934.7656
1070.000, 944.0479
1070.483, 971.4877
1070.965, 991.6639
1071.447, 995.1865
1071.929, 992.3122
1072.411, 975.7479
1072.893, 966.8335
1073.375, 991.0781
1073.857, 1026.382
1074.339, 1042.649
1074.822, 1037.791
1075.304, 1027.703
1075.786, 1012.884
1076.268, 1005.272
1076.750, 1013.031
1077.232, 1027.479
1077.714, 1051.659
1078.197, 1073.232
1078.679, 1068.641
1079.161, 1040.438
1079.643, 1025.739
1080.125, 1049.125
1080.607, 1069.066
1081.089, 1064.812
1081.571, 1050.678
1082.053, 1029.895
1082.536, 1010.627
1083.018, 1004.715
1083.500, 1012.637
1083.982, 1023.748
1084.464, 1040.074
1084.946, 1048.225
1085.428, 1038.948
1085.910, 1022.145
1086.392, 998.2224
1086.875, 975.5956
1087.357, 966.7868
1087.839, 972.6339
1088.321, 981.4606
1088.803, 993.6705
1089.285, 1000.476
1089.767, 997.2285
1090.249, 988.2195
1090.732, 970.6794
1091.214, 952.6224
1091.696, 948.9280
1092.178, 959.5496
1092.660, 963.0641
1093.142, 943.0956
1093.624, 928.1649
1094.106, 930.0218
1094.589, 939.6932
1095.071, 957.8458
1095.553, 975.9867
1096.035, 982.4919
1096.517, 976.2327
1096.999, 964.2788
1097.481, 941.2686
1097.963, 923.8577
1098.445, 918.2905
1098.927, 918.9235
1099.410, 924.0695
1099.892, 932.0187
1100.374, 941.8669
1100.856, 953.0557
1101.338, 961.6351
1101.820, 966.9257
1102.302, 968.9178
1102.784, 967.1396
1103.267, 962.5797
1103.749, 954.6063
1104.231, 944.8821
1104.713, 932.8877
1105.195, 919.6537
1105.677, 916.6138
1106.159, 930.9142
1106.641, 947.7676
1107.124, 974.5342
1107.606, 992.1025
1108.088, 981.7252
1108.570, 962.2070
1109.052, 961.4087
1109.534, 978.0607
1110.016, 978.7188
1110.498, 944.0912
1110.980, 918.6170
1111.463, 916.6368
1111.945, 911.9055
1112.427, 880.7546
1112.909, 849.3699
1113.391, 854.4995
1113.873, 892.2387
1114.355, 912.6794
1114.837, 902.7175
1115.319, 897.1257
1115.802, 897.7728
1116.284, 900.9048
1116.766, 912.5422
1117.248, 918.8127
1117.730, 898.2452
1118.212, 857.6400
1118.694, 843.6510
1119.176, 873.3196
1119.659, 890.4003
1120.141, 887.7946
1120.623, 885.4473
1121.105, 891.5652
1121.587, 898.1534
1122.069, 897.1854
1122.551, 890.4146
1123.033, 885.2760
1123.516, 882.8280
1123.998, 877.6750
1124.480, 867.1725
1124.962, 862.9113
1125.444, 872.0866
1125.926, 878.2574
1126.408, 863.6899
1126.890, 839.7316
1127.372, 843.6028
1127.854, 881.3651
1128.337, 898.8907
1128.819, 893.7792
1129.301, 881.4651
1129.783, 864.3069
1130.265, 852.5307
1130.747, 851.8459
1131.229, 872.4419
1131.711, 882.4656
1132.194, 882.4787
1132.676, 842.5302
1133.158, 854.1931
1133.640, 845.1719
1134.122, 835.3036
1134.604, 854.2297
1135.086, 820.0947
1135.568, 838.5651
1136.051, 836.0287
1136.533, 843.1111
1137.015, 824.1721
1137.497, 833.8609
1137.979, 836.6835
1138.461, 832.0422
1138.943, 826.4763
1139.425, 823.3348
1139.907, 819.9573
1140.390, 813.4495
1140.872, 804.0966
1141.354, 788.0516
1141.836, 770.6199
1142.318, 769.1907
1142.800, 782.0126
1143.282, 792.9966
1143.764, 795.7724
1144.246, 794.9290
1144.729, 794.2014
1145.211, 792.5569
1145.693, 787.2894
1146.175, 781.0047
1146.657, 779.4045
1147.139, 780.3392
1147.621, 775.1383
1148.103, 762.8215
1148.586, 756.6898
1149.068, 768.7443
1149.550, 783.5749
1150.032, 790.9865
1150.514, 793.3253
1150.996, 792.7869
1151.478, 789.0928
1151.960, 777.9833
1152.443, 761.4836
1152.925, 754.1650
1153.407, 765.2438
1153.889, 778.1876
1154.371, 793.3731
1154.853, 799.3143
1155.335, 776.9463
1155.817, 749.3163
1156.299, 744.8869
1156.781, 761.4255
1157.264, 779.5657
1157.746, 800.0239
1158.228, 809.5265
1158.710, 802.8834
1159.192, 788.2664
1159.674, 755.6498
1160.156, 727.8243
1160.638, 724.9264
1161.121, 741.3125
1161.603, 763.7560
1162.085, 799.7863
1162.567, 805.7968
1163.049, 755.1257
1163.531, 724.7977
1164.013, 736.3619
1164.495, 757.9960
1164.978, 774.5183
1165.460, 785.5659
1165.942, 791.0595
1166.424, 790.9158
1166.906, 776.4415
1167.388, 742.2874
1167.870, 720.9513
1168.352, 716.8848
1168.834, 725.5282
1169.317, 747.9075
1169.799, 768.0392
1170.281, 766.0297
1170.763, 748.1940
1171.245, 737.0256
1171.727, 732.2462
1172.209, 730.5304
1172.691, 731.5692
1173.173, 734.7386
1173.656, 739.7577
1174.138, 744.8625
1174.620, 748.9599
1175.102, 751.1262
1175.584, 746.4570
1176.066, 740.0667
1176.548, 748.7544
1177.030, 766.2006
1177.513, 772.6118
1177.995, 764.8503
1178.477, 747.6970
1178.959, 722.0056
1179.441, 705.1370
1179.923, 721.7720
1180.405, 747.2213
1180.887, 755.7795
1181.370, 754.9414
1181.852, 753.3746
1182.334, 753.5297
1182.816, 759.7861
1183.298, 773.2621
1183.780, 778.2877
1184.262, 754.2253
1184.744, 736.7762
1185.226, 750.7552
1185.708, 770.5675
1186.191, 780.4091
1186.673, 780.6296
1187.155, 768.9805
1187.637, 747.4521
1188.119, 739.6503
1188.601, 762.7940
1189.083, 777.7535
1189.565, 775.3054
1190.048, 771.1035
1190.530, 770.8813
1191.012, 771.2325
1191.494, 769.1045
1191.976, 764.9708
1192.458, 759.6271
1192.940, 750.5273
1193.422, 753.7591
1193.905, 775.3694
1194.387, 787.1221
1194.869, 780.5180
1195.351, 772.6260
1195.833, 775.5463
1196.315, 778.9221
1196.797, 762.1580
1197.279, 730.8958
1197.761, 724.7735
1198.244, 741.3556
1198.726, 749.3607
1199.208, 745.9307
1199.690, 746.1760
1200.172, 756.0657
1200.654, 770.4708
1201.136, 788.1871
1201.618, 799.1718
1202.100, 776.4143
1202.583, 740.3652
1203.065, 732.0646
1203.547, 745.3049
1204.029, 763.4120
1204.511, 778.8287
1204.993, 777.1360
1205.475, 746.2093
1205.957, 720.7407
1206.440, 732.8185
1206.922, 752.5352
1207.404, 759.1376
1207.886, 758.0710
1208.368, 754.1861
1208.850, 749.5023
1209.332, 747.3958
1209.814, 748.9529
1210.297, 747.1111
1210.779, 729.9442
1211.261, 724.1154
1211.743, 749.7520
1212.225, 772.6830
1212.707, 771.0460
1213.189, 758.1884
1213.671, 747.4877
1214.153, 739.6086
1214.635, 741.7187
1215.118, 761.3782
1215.600, 763.5859
1216.082, 739.4539
1216.564, 729.8717
1217.046, 751.3268
1217.528, 770.9271
1218.010, 762.3192
1218.492, 739.8911
1218.975, 731.6111
1219.457, 735.2939
1219.939, 736.6617
1220.421, 735.6269
1220.903, 731.2943
1221.385, 723.7337
1221.867, 711.3688
1222.349, 694.1274
1222.832, 688.2376
1223.314, 716.7563
1223.796, 750.8578
1224.278, 746.9711
1224.760, 728.3622
1225.242, 726.4417
1225.724, 737.6680
1226.206, 752.2192
1226.688, 766.5950
1227.171, 777.4939
1227.653, 784.2142
1228.135, 785.0983
1228.617, 775.7250
1229.099, 764.8765
1229.581, 751.9482
1230.063, 744.2275
1230.545, 753.6030
1231.027, 771.3321
1231.510, 775.6760
1231.992, 763.1245
1232.474, 759.5374
1232.956, 772.6202
1233.438, 777.8299
1233.920, 768.9510
1234.402, 760.8100
1234.884, 758.4861
1235.367, 762.6609
1235.849, 776.4384
1236.331, 793.7761
1236.813, 793.0702
1237.295, 775.5629
1237.777, 766.4716
1238.259, 765.8108
1238.741, 766.1918
1239.224, 766.0728
1239.706, 768.3861
1240.188, 774.9108
1240.670, 778.2339
1241.152, 764.0322
1241.634, 747.6398
1242.116, 757.7697
1242.598, 777.0677
1243.080, 776.7548
1243.563, 762.9194
1244.045, 753.7614
1244.527, 753.4391
1245.009, 757.2730
1245.491, 764.7670
1245.973, 772.5735
1246.455, 781.1523
1246.937, 787.4282
1247.419, 787.8017
1247.902, 786.8374
1248.384, 791.1024
1248.866, 796.8452
1249.348, 791.3508
1249.830, 771.5530
1250.312, 770.4767
1250.794, 799.1071
1251.276, 814.0037
1251.759, 806.2463
1252.241, 798.2046
1252.723, 799.8122
1253.205, 802.3736
1253.687, 796.3221
1254.169, 786.3627
1254.651, 784.1354
1255.133, 788.7582
1255.615, 800.7585
1256.098, 815.7556
1256.580, 808.8492
1257.062, 781.6813
1257.544, 771.1777
1258.026, 794.6524
1258.508, 817.3667
1258.990, 803.1736
1259.472, 781.9177
1259.954, 776.6484
1260.437, 781.7589
1260.919, 800.7357
1261.401, 820.9282
1261.883, 816.2437
1262.365, 789.9935
1262.847, 784.6005
1263.329, 829.6577
1263.811, 844.9997
1264.294, 782.7413
1264.776, 744.2244
1265.258, 767.0496
1265.740, 799.5468
1266.222, 811.7256
1266.704, 809.8593
1267.186, 803.0685
1267.668, 791.7130
1268.151, 778.5125
1268.633, 763.4625
1269.115, 749.7751
1269.597, 738.3868
1270.079, 744.0027
1270.561, 770.0056
1271.043, 797.3203
1271.525, 813.3878
1272.007, 819.9183
1272.490, 811.6880
1272.972, 801.4285
1273.454, 811.7806
1273.936, 828.9836
1274.418, 829.8171
1274.900, 819.1894
1275.382, 816.3801
1275.864, 824.9438
1276.346, 828.7643
1276.829, 819.6732
1277.311, 809.4813
1277.793, 791.9036
1278.275, 785.5536
1278.757, 813.1302
1279.239, 840.5474
1279.721, 838.4485
1280.203, 818.9364
1280.686, 808.5475
1281.168, 807.3110
1281.650, 813.0084
1282.132, 826.7618
1282.614, 831.4785
1283.096, 825.1048
1283.578, 818.9436
1284.060, 817.1799
1284.542, 813.5380
1285.025, 801.1261
1285.507, 791.4423
1285.989, 809.4004
1286.471, 834.1882
1286.953, 825.0687
1287.435, 804.1255
1287.917, 802.6844
##END=



