##NAMES=Arsendescloizite
##RRUFFID=R060947
##IDEAL CHEMISTRY=Pb^2+^Zn^2+^As^5+^O_4_(OH)
##LOCALITY=Ojuela mine, Mapimi, Durango, Mexico
##OWNER=RRUFF
##SOURCE=Bob Jenkins
##DESCRIPTION=Green mammillary aggregates associated with yellow and colorless mimetite and calcite
##STATUS=The identification of this mineral is not yet confirmed.
##URL=rruff.info/R060947
123.9386, 273.2449
124.4208, 290.0249
124.9029, 306.5860
125.3850, 322.0623
125.8671, 336.7728
126.3492, 354.8228
126.8313, 379.4213
127.3135, 404.3362
127.7956, 426.0199
128.2777, 447.0325
128.7598, 472.0479
129.2419, 505.1222
129.7240, 546.3824
130.2062, 588.6870
130.6883, 634.5469
131.1704, 678.9677
131.6525, 726.0737
132.1346, 771.4984
132.6167, 803.8359
133.0989, 811.4052
133.5810, 789.6962
134.0631, 775.5411
134.5452, 775.1007
135.0273, 775.3344
135.5094, 768.7394
135.9916, 755.3967
136.4737, 741.0108
136.9558, 732.0192
137.4379, 731.3525
137.9200, 720.3948
138.4021, 689.5810
138.8843, 655.9160
139.3664, 629.9879
139.8485, 613.5630
140.3306, 604.8052
140.8127, 601.8843
141.2948, 605.7394
141.7769, 615.3669
142.2591, 631.9120
142.7412, 653.6566
143.2233, 680.3024
143.7054, 711.8264
144.1875, 744.7521
144.6696, 774.8902
145.1518, 801.6975
145.6339, 828.2119
146.1160, 851.7761
146.5981, 876.2418
147.0802, 908.7240
147.5623, 951.9509
148.0445, 996.6490
148.5266, 1029.505
149.0087, 1050.795
149.4908, 1067.426
149.9729, 1078.010
150.4550, 1085.545
150.9372, 1097.850
151.4193, 1120.215
151.9014, 1139.205
152.3835, 1131.832
152.8656, 1097.434
153.3477, 1062.599
153.8299, 1036.762
154.3120, 1017.896
154.7941, 1001.852
155.2762, 988.4139
155.7583, 976.1707
156.2404, 962.0515
156.7226, 945.3861
157.2047, 932.0578
157.6868, 925.8655
158.1689, 925.6250
158.6510, 926.7495
159.1331, 927.0808
159.6153, 929.8544
160.0974, 939.9388
160.5795, 958.4465
161.0616, 975.1873
161.5437, 983.1708
162.0258, 983.4175
162.5080, 982.9074
162.9901, 984.0005
163.4722, 984.2914
163.9543, 981.4878
164.4364, 975.3544
164.9185, 967.4327
165.4007, 956.4824
165.8828, 943.0692
166.3649, 935.4368
166.8470, 940.1101
167.3291, 948.0365
167.8112, 949.9154
168.2934, 944.5452
168.7755, 938.8322
169.2576, 939.8735
169.7397, 947.6667
170.2218, 952.4097
170.7039, 949.3121
171.1861, 943.7051
171.6682, 940.2590
172.1503, 939.6758
172.6324, 939.0340
173.1145, 934.9315
173.5966, 927.0960
174.0788, 920.7215
174.5609, 919.2722
175.0430, 918.2957
175.5251, 912.9676
176.0072, 902.2922
176.4893, 893.3372
176.9715, 896.2880
177.4536, 913.0659
177.9357, 923.5360
178.4178, 918.0646
178.8999, 907.3967
179.3820, 898.1256
179.8642, 891.3797
180.3463, 885.1116
180.8284, 875.7750
181.3105, 862.1995
181.7926, 853.3854
182.2747, 857.1351
182.7569, 862.8698
183.2390, 864.3267
183.7211, 860.3528
184.2032, 853.5757
184.6853, 845.4833
185.1674, 835.1512
185.6496, 829.2310
186.1317, 833.1559
186.6138, 839.5662
187.0959, 845.2264
187.5780, 849.4401
188.0601, 851.5556
188.5423, 849.6397
189.0244, 842.4949
189.5065, 838.0021
189.9886, 843.9356
190.4707, 848.7086
190.9528, 842.8657
191.4350, 825.4885
191.9171, 807.7569
192.3992, 803.9406
192.8813, 816.9982
193.3634, 827.5810
193.8455, 830.2622
194.3277, 831.4579
194.8098, 835.4550
195.2919, 842.5616
195.7740, 848.4023
196.2561, 845.7467
196.7382, 831.9632
197.2204, 825.5975
197.7025, 836.7559
198.1846, 850.7970
198.6667, 860.7847
199.1488, 865.8569
199.6309, 868.8124
200.1131, 871.4819
200.5952, 873.2881
201.0773, 878.7030
201.5594, 892.3149
202.0415, 906.7680
202.5236, 919.4823
203.0058, 929.8915
203.4879, 938.0606
203.9700, 943.2837
204.4521, 945.0613
204.9342, 948.0304
205.4163, 952.3860
205.8985, 958.2590
206.3806, 966.2195
206.8627, 976.0497
207.3448, 986.5451
207.8269, 997.4267
208.3090, 1009.005
208.7912, 1017.177
209.2733, 1017.110
209.7554, 1017.693
210.2375, 1024.120
210.7196, 1035.379
211.2017, 1046.419
211.6839, 1051.811
212.1660, 1051.389
212.6481, 1054.787
213.1302, 1065.090
213.6123, 1076.355
214.0944, 1088.216
214.5765, 1099.219
215.0587, 1105.565
215.5408, 1101.866
216.0229, 1089.094
216.5050, 1082.540
216.9871, 1089.843
217.4692, 1094.342
217.9514, 1085.546
218.4335, 1068.269
218.9156, 1054.170
219.3977, 1053.496
219.8798, 1063.309
220.3619, 1065.388
220.8441, 1056.763
221.3262, 1043.848
221.8083, 1026.627
222.2904, 1007.789
222.7725, 992.4983
223.2546, 985.6381
223.7368, 984.0632
224.2189, 976.3105
224.7010, 958.6122
225.1831, 941.1466
225.6652, 928.0729
226.1473, 917.9242
226.6295, 908.4612
227.1116, 897.7384
227.5937, 887.7261
228.0758, 884.7772
228.5579, 893.6255
229.0400, 898.1110
229.5222, 888.1940
230.0043, 871.6414
230.4864, 857.3763
230.9685, 848.9238
231.4506, 843.8755
231.9327, 838.1530
232.4149, 831.1794
232.8970, 825.5226
233.3791, 823.5306
233.8612, 822.7990
234.3433, 821.1619
234.8254, 818.0137
235.3076, 813.8586
235.7897, 809.3679
236.2718, 804.5880
236.7539, 798.9854
237.2360, 790.7086
237.7181, 782.4961
238.2003, 776.8862
238.6824, 774.3199
239.1645, 774.0187
239.6466, 776.7362
240.1287, 782.4223
240.6108, 784.9464
241.0930, 779.2045
241.5751, 772.4280
242.0572, 772.7960
242.5393, 781.4631
243.0214, 789.4638
243.5035, 789.3503
243.9857, 782.4312
244.4678, 776.4069
244.9499, 772.5283
245.4320, 770.6995
245.9141, 771.4665
246.3962, 774.7913
246.8784, 776.8038
247.3605, 774.3461
247.8426, 768.9792
248.3247, 764.8748
248.8068, 762.5032
249.2889, 761.8352
249.7710, 763.5594
250.2532, 767.2667
250.7353, 770.5969
251.2174, 773.2069
251.6995, 774.7904
252.1816, 774.9063
252.6637, 773.5273
253.1459, 770.4022
253.6280, 761.6502
254.1101, 749.6033
254.5922, 746.6451
255.0743, 764.8209
255.5564, 787.4818
256.0386, 796.8508
256.5207, 792.0447
257.0028, 782.7464
257.4849, 773.8846
257.9670, 766.1130
258.4492, 761.4653
258.9313, 761.2657
259.4134, 763.1635
259.8955, 766.7067
260.3776, 771.4413
260.8597, 775.2254
261.3419, 777.1533
261.8240, 777.0154
262.3061, 774.4113
262.7882, 764.6886
263.2703, 757.9990
263.7524, 761.0393
264.2346, 770.0798
264.7167, 776.9382
265.1988, 778.0161
265.6809, 774.9468
266.1630, 771.5896
266.6451, 766.2889
267.1272, 763.3932
267.6093, 764.9506
268.0915, 768.9373
268.5736, 773.4831
269.0557, 778.0409
269.5378, 781.1304
270.0199, 780.0938
270.5020, 771.0989
270.9842, 765.1816
271.4663, 762.3421
271.9484, 762.5778
272.4305, 767.8703
272.9126, 777.7300
273.3947, 786.8776
273.8769, 788.7388
274.3590, 780.1777
274.8411, 776.7410
275.3232, 781.8140
275.8053, 788.1807
276.2874, 791.9092
276.7696, 793.2346
277.2517, 794.5670
277.7338, 797.8079
278.2159, 802.9720
278.6980, 809.4504
279.1801, 819.4449
279.6623, 828.4074
280.1444, 834.2324
280.6265, 838.2186
281.1086, 842.3765
281.5907, 847.7527
282.0728, 854.6310
282.5550, 864.5825
283.0371, 881.9065
283.5192, 896.3372
284.0013, 902.9710
284.4834, 907.4120
284.9655, 916.3634
285.4477, 932.5730
285.9298, 952.1003
286.4119, 967.7039
286.8940, 978.2110
287.3761, 987.6865
287.8582, 992.5988
288.3404, 999.5316
288.8225, 1014.740
289.3046, 1038.891
289.7867, 1065.059
290.2688, 1084.078
290.7509, 1094.717
291.2331, 1112.734
291.7152, 1148.078
292.1973, 1183.607
292.6794, 1207.961
293.1615, 1222.753
293.6436, 1238.445
294.1258, 1263.145
294.6079, 1294.970
295.0900, 1324.649
295.5721, 1350.362
296.0542, 1376.655
296.5363, 1404.731
297.0185, 1435.289
297.5006, 1470.195
297.9827, 1513.546
298.4648, 1559.469
298.9469, 1598.990
299.4290, 1631.234
299.9112, 1662.619
300.3933, 1693.673
300.8754, 1727.226
301.3575, 1769.066
301.8396, 1825.203
302.3217, 1881.474
302.8039, 1926.592
303.2860, 1962.631
303.7681, 1997.263
304.2502, 2032.026
304.7323, 2068.894
305.2144, 2112.634
305.6966, 2164.853
306.1787, 2216.833
306.6608, 2267.672
307.1429, 2315.966
307.6250, 2359.351
308.1071, 2397.346
308.5893, 2432.164
309.0714, 2466.024
309.5535, 2497.595
310.0356, 2534.117
310.5177, 2583.234
310.9998, 2631.602
311.4820, 2666.482
311.9641, 2689.238
312.4462, 2713.300
312.9283, 2750.458
313.4104, 2800.874
313.8925, 2846.383
314.3747, 2880.348
314.8568, 2917.410
315.3389, 2964.246
315.8210, 3017.440
316.3031, 3071.148
316.7852, 3122.406
317.2674, 3171.409
317.7495, 3217.997
318.2316, 3259.412
318.7137, 3302.922
319.1958, 3342.363
319.6779, 3387.576
320.1601, 3453.781
320.6422, 3543.033
321.1243, 3634.945
321.6064, 3697.660
322.0885, 3721.746
322.5706, 3750.910
323.0528, 3789.704
323.5349, 3831.954
324.0170, 3877.938
324.4991, 3925.500
324.9812, 3968.808
325.4633, 4000.863
325.9455, 4023.372
326.4276, 4053.323
326.9097, 4107.682
327.3918, 4139.886
327.8739, 4118.551
328.3560, 4064.629
328.8382, 4011.605
329.3203, 3972.478
329.8024, 3940.713
330.2845, 3909.929
330.7666, 3881.076
331.2487, 3842.601
331.7309, 3787.649
332.2130, 3720.327
332.6951, 3646.105
333.1772, 3561.755
333.6593, 3480.800
334.1414, 3411.542
334.6236, 3351.650
335.1057, 3295.253
335.5878, 3242.520
336.0699, 3187.618
336.5520, 3120.476
337.0341, 3039.863
337.5162, 2963.539
337.9984, 2891.058
338.4805, 2825.891
338.9626, 2774.702
339.4447, 2736.661
339.9268, 2699.782
340.4089, 2654.952
340.8911, 2602.197
341.3732, 2550.463
341.8553, 2495.715
342.3374, 2445.894
342.8195, 2404.562
343.3016, 2370.315
343.7838, 2341.402
344.2659, 2316.961
344.7480, 2296.046
345.2301, 2276.541
345.7122, 2263.940
346.1943, 2244.071
346.6765, 2210.837
347.1586, 2174.437
347.6407, 2141.684
348.1228, 2114.443
348.6049, 2091.893
349.0870, 2074.906
349.5692, 2065.130
350.0513, 2049.232
350.5334, 2022.656
351.0155, 1994.025
351.4976, 1964.827
351.9797, 1936.269
352.4619, 1909.878
352.9440, 1886.915
353.4261, 1866.680
353.9082, 1847.767
354.3903, 1830.924
354.8724, 1813.413
355.3546, 1792.214
355.8367, 1770.462
356.3188, 1751.430
356.8009, 1736.299
357.2830, 1722.258
357.7651, 1707.341
358.2473, 1691.577
358.7294, 1675.954
359.2115, 1661.224
359.6936, 1645.845
360.1757, 1627.833
360.6578, 1607.391
361.1400, 1585.032
361.6221, 1558.126
362.1042, 1530.937
362.5863, 1506.436
363.0684, 1485.340
363.5505, 1471.657
364.0327, 1471.286
364.5148, 1482.567
364.9969, 1479.882
365.4790, 1451.181
365.9611, 1424.249
366.4432, 1410.087
366.9254, 1403.567
367.4075, 1395.815
367.8896, 1383.159
368.3717, 1367.764
368.8538, 1354.156
369.3359, 1344.325
369.8181, 1332.740
370.3002, 1317.121
370.7823, 1301.723
371.2644, 1290.319
371.7465, 1282.459
372.2286, 1273.848
372.7108, 1258.882
373.1929, 1238.059
373.6750, 1226.972
374.1571, 1234.855
374.6392, 1239.926
375.1213, 1231.707
375.6035, 1216.682
376.0856, 1204.605
376.5677, 1199.320
377.0498, 1198.091
377.5319, 1197.547
378.0140, 1197.725
378.4962, 1198.153
378.9783, 1199.878
379.4604, 1200.624
379.9425, 1196.662
380.4246, 1187.326
380.9067, 1181.204
381.3889, 1184.866
381.8710, 1193.583
382.3531, 1198.814
382.8352, 1199.176
383.3173, 1200.067
383.7994, 1206.805
384.2816, 1219.096
384.7637, 1227.111
385.2458, 1225.988
385.7279, 1225.530
386.2100, 1230.454
386.6921, 1239.608
387.1743, 1250.532
387.6564, 1262.158
388.1385, 1274.117
388.6206, 1285.265
389.1027, 1290.538
389.5848, 1303.276
390.0670, 1330.534
390.5491, 1359.549
391.0312, 1379.973
391.5133, 1391.962
391.9954, 1402.968
392.4775, 1419.290
392.9597, 1440.880
393.4418, 1467.873
393.9239, 1507.480
394.4060, 1542.512
394.8881, 1566.355
395.3702, 1582.981
395.8524, 1597.502
396.3345, 1611.010
396.8166, 1625.282
397.2987, 1644.861
397.7808, 1669.932
398.2629, 1687.421
398.7451, 1687.393
399.2272, 1685.865
399.7093, 1702.453
400.1914, 1736.954
400.6735, 1768.446
401.1556, 1789.737
401.6378, 1803.278
402.1199, 1810.997
402.6020, 1813.261
403.0841, 1813.516
403.5662, 1813.707
404.0483, 1813.949
404.5305, 1814.972
405.0126, 1814.957
405.4947, 1817.743
405.9768, 1828.697
406.4589, 1841.751
406.9410, 1847.595
407.4231, 1843.372
407.9052, 1834.628
408.3874, 1830.129
408.8695, 1833.475
409.3516, 1830.121
409.8337, 1813.235
410.3158, 1796.651
410.7979, 1787.683
411.2801, 1784.256
411.7622, 1780.019
412.2443, 1771.092
412.7264, 1758.400
413.2085, 1743.244
413.6906, 1722.885
414.1728, 1708.168
414.6549, 1712.792
415.1370, 1719.224
415.6191, 1710.165
416.1012, 1682.105
416.5833, 1651.974
417.0655, 1632.836
417.5476, 1620.292
418.0297, 1601.932
418.5118, 1574.915
418.9939, 1547.802
419.4760, 1528.623
419.9582, 1516.907
420.4403, 1503.518
420.9224, 1487.749
421.4045, 1470.712
421.8866, 1452.843
422.3687, 1434.223
422.8509, 1415.505
423.3330, 1397.064
423.8151, 1377.271
424.2972, 1352.191
424.7793, 1316.845
425.2614, 1285.921
425.7436, 1263.612
426.2257, 1241.521
426.7078, 1212.698
427.1899, 1179.104
427.6720, 1148.570
428.1541, 1127.739
428.6363, 1114.421
429.1184, 1098.839
429.6005, 1080.017
430.0826, 1061.133
430.5647, 1042.712
431.0468, 1025.006
431.5290, 1007.936
432.0111, 991.3740
432.4932, 976.9677
432.9753, 968.6400
433.4574, 963.7184
433.9395, 951.8416
434.4217, 929.3787
434.9038, 907.8530
435.3859, 898.9559
435.8680, 901.4435
436.3501, 899.7673
436.8322, 888.2867
437.3144, 877.2141
437.7965, 873.4385
438.2786, 874.1458
438.7607, 872.5437
439.2428, 865.7385
439.7249, 856.8746
440.2071, 851.7420
440.6892, 851.0321
441.1713, 852.9847
441.6534, 861.0878
442.1355, 868.3823
442.6176, 871.4550
443.0998, 870.2285
443.5819, 865.1954
444.0640, 855.0956
444.5461, 843.1174
445.0282, 840.9241
445.5103, 852.8610
445.9925, 861.7906
446.4746, 858.9380
446.9567, 852.4824
447.4388, 850.6142
447.9209, 854.6667
448.4030, 855.5483
448.8852, 843.6595
449.3673, 825.6597
449.8494, 815.7772
450.3315, 815.9419
450.8136, 818.6567
451.2957, 819.2141
451.7779, 817.5311
452.2600, 813.8088
452.7421, 809.4388
453.2242, 801.6584
453.7063, 786.4510
454.1884, 768.3954
454.6706, 753.1293
455.1527, 742.4839
455.6348, 736.0348
456.1169, 733.9030
456.5990, 737.2493
457.0811, 739.0820
457.5633, 740.8149
458.0454, 739.4105
458.5275, 731.2231
459.0096, 719.6221
459.4917, 710.8873
459.9738, 708.6690
460.4560, 707.7901
460.9381, 698.9930
461.4202, 682.0523
461.9023, 668.8690
462.3844, 663.5936
462.8665, 661.4260
463.3487, 658.1345
463.8308, 653.7555
464.3129, 647.5181
464.7950, 636.5624
465.2771, 625.6084
465.7592, 620.8192
466.2414, 620.6771
466.7235, 617.2523
467.2056, 605.8773
467.6877, 590.0154
468.1698, 578.6940
468.6519, 576.4169
469.1341, 572.4370
469.6162, 565.6649
470.0983, 558.0892
470.5804, 550.9732
471.0625, 544.3719
471.5446, 537.6261
472.0268, 529.9871
472.5089, 521.8793
472.9910, 514.8024
473.4731, 508.2250
473.9552, 503.9961
474.4373, 505.6423
474.9195, 508.4117
475.4016, 508.2752
475.8837, 504.7021
476.3658, 498.8852
476.8479, 488.1621
477.3300, 476.6496
477.8121, 474.2164
478.2943, 482.0577
478.7764, 488.2758
479.2585, 483.5319
479.7406, 469.7355
480.2227, 460.2909
480.7048, 457.6573
481.1870, 455.6115
481.6691, 452.4972
482.1512, 449.5072
482.6333, 448.0386
483.1154, 448.3317
483.5975, 449.5938
484.0797, 451.1603
484.5618, 453.0381
485.0439, 454.5802
485.5260, 456.8609
486.0081, 457.1120
486.4902, 450.7363
486.9724, 443.5190
487.4545, 444.0462
487.9366, 455.7780
488.4187, 468.4883
488.9008, 472.6193
489.3829, 470.2547
489.8651, 469.5910
490.3472, 472.7216
490.8293, 473.6354
491.3114, 465.3818
491.7935, 448.6896
492.2756, 438.9272
492.7578, 441.1089
493.2399, 444.4402
493.7220, 445.4795
494.2041, 444.8241
494.6862, 442.6607
495.1683, 439.2929
495.6505, 437.1160
496.1326, 440.6647
496.6147, 452.0266
497.0968, 453.9843
497.5789, 436.3928
498.0610, 420.8526
498.5432, 415.5218
499.0253, 416.6039
499.5074, 418.0513
499.9895, 417.6053
500.4716, 417.9527
500.9537, 423.9992
501.4359, 433.9613
501.9180, 438.0789
502.4001, 433.2177
502.8822, 426.4616
503.3643, 424.5828
503.8464, 427.4090
504.3286, 428.1475
504.8107, 425.9944
505.2928, 422.4213
505.7749, 416.4461
506.2570, 409.9656
506.7391, 406.2857
507.2213, 406.3903
507.7034, 408.0330
508.1855, 408.6956
508.6676, 408.8502
509.1497, 404.8805
509.6318, 390.9653
510.1140, 379.6541
510.5961, 376.3905
511.0782, 378.2635
511.5603, 380.9461
512.0424, 383.3572
512.5245, 385.0430
513.0067, 385.6824
513.4888, 385.2368
513.9709, 383.3115
514.4530, 379.6169
514.9351, 375.4845
515.4172, 372.5476
515.8994, 370.6550
516.3815, 366.1932
516.8636, 355.0206
517.3457, 346.0286
517.8278, 343.5043
518.3099, 344.7731
518.7921, 346.8098
519.2742, 348.4731
519.7563, 348.7769
520.2384, 345.6505
520.7205, 338.6081
521.2026, 336.1619
521.6848, 342.6752
522.1669, 347.4303
522.6490, 346.2100
523.1311, 341.0832
523.6132, 334.1798
524.0953, 325.3846
524.5775, 317.6902
525.0596, 314.4285
525.5417, 313.8090
526.0238, 311.2043
526.5059, 305.8063
526.9880, 300.2526
527.4702, 296.1329
527.9523, 293.5831
528.4344, 294.2851
528.9165, 303.5768
529.3986, 308.9098
529.8807, 304.3358
530.3629, 296.8069
530.8450, 294.1110
531.3271, 296.9736
531.8092, 299.5716
532.2913, 295.2241
532.7734, 285.6524
533.2556, 283.4854
533.7377, 292.7074
534.2198, 298.7647
534.7019, 292.2149
535.1840, 281.5199
535.6661, 275.9422
536.1483, 276.4199
536.6304, 280.2889
537.1125, 290.8407
537.5946, 301.6432
538.0767, 303.2141
538.5588, 296.1187
539.0410, 288.3972
539.5231, 284.7593
540.0052, 284.6797
540.4873, 286.6987
540.9694, 294.0625
541.4515, 298.1968
541.9337, 297.0750
542.4158, 294.4601
542.8979, 291.7273
543.3800, 289.5730
543.8621, 289.2833
544.3442, 292.5588
544.8264, 296.9685
545.3085, 297.2846
545.7906, 293.4768
546.2727, 291.6875
546.7548, 294.8333
547.2369, 298.8813
547.7191, 297.8365
548.2012, 291.4623
548.6833, 288.3581
549.1654, 293.2086
549.6475, 297.9019
550.1296, 297.2567
550.6118, 293.1078
551.0939, 289.0930
551.5760, 286.6410
552.0581, 285.4417
552.5402, 285.4174
553.0223, 287.0060
553.5045, 286.9545
553.9866, 283.1044
554.4687, 280.5053
554.9508, 281.9535
555.4329, 285.7711
555.9150, 289.5191
556.3972, 292.8946
556.8793, 295.2047
557.3614, 296.8055
557.8435, 296.7899
558.3256, 291.1761
558.8077, 279.5689
559.2899, 271.6234
559.7720, 276.5215
560.2541, 291.7231
560.7362, 297.5274
561.2183, 281.9549
561.7004, 272.0748
562.1826, 274.1790
562.6647, 279.8607
563.1468, 283.0334
563.6289, 282.7751
564.1110, 280.4199
564.5931, 275.9959
565.0753, 270.7372
565.5574, 268.0807
566.0395, 268.2363
566.5216, 267.6051
567.0037, 264.5005
567.4858, 260.5879
567.9680, 258.5150
568.4501, 258.4976
568.9322, 257.5729
569.4143, 252.2034
569.8964, 248.8214
570.3785, 253.7014
570.8607, 263.1764
571.3428, 269.9154
571.8249, 270.8699
572.3070, 268.3894
572.7891, 265.3784
573.2712, 261.5266
573.7534, 259.7700
574.2355, 261.2964
574.7176, 263.2432
575.1997, 263.7014
575.6818, 263.7452
576.1639, 265.2381
576.6461, 268.9756
577.1282, 272.9239
577.6103, 278.4115
578.0924, 282.3583
578.5745, 277.3592
579.0566, 263.7839
579.5388, 253.1510
580.0209, 254.5654
580.5030, 264.9871
580.9851, 269.9006
581.4672, 264.0272
581.9493, 261.7068
582.4314, 268.7959
582.9135, 275.5745
583.3956, 274.1677
583.8777, 266.1474
584.3599, 259.3851
584.8420, 258.0086
585.3241, 259.9669
585.8062, 264.0305
586.2883, 269.4894
586.7704, 272.2061
587.2526, 270.7322
587.7347, 267.0429
588.2168, 262.8033
588.6989, 257.6763
589.1810, 255.6728
589.6631, 258.8283
590.1453, 262.3445
590.6274, 266.5907
591.1095, 269.5224
591.5916, 267.3698
592.0737, 259.9616
592.5558, 253.5222
593.0380, 256.0267
593.5201, 264.6186
594.0022, 266.4574
594.4843, 260.3367
594.9664, 255.3319
595.4485, 255.7886
595.9307, 259.2879
596.4128, 261.8835
596.8949, 263.9475
597.3770, 263.9977
597.8591, 258.7102
598.3412, 254.1809
598.8234, 254.3342
599.3055, 258.4724
599.7876, 265.8963
600.2697, 276.3861
600.7518, 285.1944
601.2339, 282.3787
601.7161, 267.0376
602.1982, 261.0147
602.6803, 270.9197
603.1624, 279.8616
603.6445, 274.7813
604.1266, 262.7852
604.6088, 257.2947
605.0909, 262.5145
605.5730, 267.1592
606.0551, 266.0632
606.5372, 262.6789
607.0193, 260.2676
607.5015, 259.2473
607.9836, 259.0108
608.4657, 259.1645
608.9478, 259.8735
609.4299, 261.9152
609.9120, 266.0853
610.3942, 268.7681
610.8763, 268.7119
611.3584, 267.9474
611.8405, 266.7940
612.3226, 265.9371
612.8047, 267.5059
613.2869, 274.3024
613.7690, 280.2113
614.2511, 281.2786
614.7332, 278.8570
615.2153, 274.1995
615.6974, 267.9495
616.1796, 262.8109
616.6617, 261.1378
617.1438, 262.4060
617.6259, 263.5011
618.1080, 264.3423
618.5901, 265.1671
619.0723, 266.6129
619.5544, 267.5606
620.0365, 266.5746
620.5186, 264.1892
621.0007, 262.9168
621.4828, 263.6958
621.9650, 266.1136
622.4471, 271.5482
622.9292, 278.2040
623.4113, 281.5206
623.8934, 280.3220
624.3755, 275.7572
624.8577, 267.8522
625.3398, 256.9160
625.8219, 254.2987
626.3040, 266.7017
626.7861, 277.2971
627.2682, 284.2631
627.7504, 287.5316
628.2325, 285.5969
628.7146, 279.1730
629.1967, 273.4934
629.6788, 271.6593
630.1609, 271.6679
630.6431, 270.7745
631.1252, 269.6086
631.6073, 271.2878
632.0894, 276.9770
632.5715, 282.6080
633.0536, 282.8119
633.5358, 277.0564
634.0179, 274.3038
634.5000, 279.5007
634.9821, 281.1587
635.4642, 271.0471
635.9464, 260.1498
636.4285, 261.2216
636.9106, 274.7722
637.3927, 286.7035
637.8748, 286.8496
638.3569, 281.7692
638.8391, 279.5433
639.3212, 279.8513
639.8033, 280.8105
640.2854, 281.8612
640.7675, 282.3192
641.2496, 281.1903
641.7318, 278.2884
642.2139, 275.3519
642.6960, 271.0117
643.1781, 268.4090
643.6602, 269.6236
644.1423, 272.0575
644.6245, 272.5543
645.1066, 270.8218
645.5887, 270.1706
646.0708, 275.2776
646.5529, 280.9162
647.0350, 278.2407
647.5172, 269.2704
647.9993, 263.2249
648.4814, 263.5634
648.9635, 268.2166
649.4456, 275.3141
649.9277, 285.9304
650.4099, 289.7238
650.8920, 279.1262
651.3741, 271.4491
651.8562, 273.1845
652.3383, 278.4936
652.8204, 281.4697
653.3026, 281.2794
653.7847, 280.8018
654.2668, 282.0806
654.7489, 283.5869
655.2310, 283.4111
655.7131, 281.8113
656.1953, 279.7387
656.6774, 277.5111
657.1595, 275.4925
657.6416, 274.0822
658.1237, 273.2553
658.6058, 273.4887
659.0880, 275.3293
659.5701, 277.4205
660.0522, 279.6603
660.5343, 281.7917
661.0164, 283.8191
661.4985, 285.6842
661.9807, 286.4655
662.4628, 284.0669
662.9449, 281.7770
663.4270, 284.1182
663.9091, 289.0612
664.3912, 291.1317
664.8734, 288.6187
665.3555, 283.9788
665.8376, 279.6038
666.3197, 275.5614
666.8018, 274.7963
667.2839, 279.0387
667.7661, 282.9477
668.2482, 285.3448
668.7303, 286.4139
669.2124, 285.5778
669.6945, 283.0032
670.1766, 281.7017
670.6588, 283.8883
671.1409, 286.3947
671.6230, 286.9915
672.1051, 286.4035
672.5872, 285.9947
673.0693, 286.0811
673.5515, 285.8806
674.0336, 284.1855
674.5157, 281.6911
674.9978, 282.9500
675.4799, 289.4439
675.9620, 293.7480
676.4442, 292.8757
676.9263, 290.2501
677.4084, 288.8907
677.8905, 288.7346
678.3726, 289.7886
678.8547, 292.9110
679.3369, 296.2376
679.8190, 300.4958
680.3011, 303.7098
680.7832, 301.9857
681.2653, 296.0296
681.7474, 291.9514
682.2296, 295.1044
682.7117, 302.0253
683.1938, 304.3773
683.6759, 302.0878
684.1580, 300.2115
684.6401, 299.9474
685.1223, 299.8734
685.6044, 298.1826
686.0865, 295.3164
686.5686, 295.5297
687.0507, 302.8523
687.5328, 307.4701
688.0150, 305.2385
688.4971, 301.9594
688.9792, 303.1531
689.4613, 307.5618
689.9434, 309.6463
690.4255, 305.7462
690.9077, 300.6647
691.3898, 300.6780
691.8719, 304.6034
692.3540, 308.9504
692.8361, 313.2842
693.3182, 315.4069
693.8004, 313.1091
694.2825, 308.3782
694.7646, 307.9647
695.2467, 315.3524
695.7288, 320.4789
696.2109, 322.1843
696.6931, 322.7251
697.1752, 322.8405
697.6573, 322.5959
698.1394, 321.8416
698.6215, 320.3598
699.1036, 319.2274
699.5858, 318.2174
700.0679, 318.4965
700.5500, 324.1569
701.0321, 333.2762
701.5142, 336.0477
701.9963, 327.3913
702.4785, 315.4990
702.9606, 315.4372
703.4427, 329.5484
703.9248, 334.6920
704.4069, 324.9165
704.8890, 318.0836
705.3712, 325.3746
705.8533, 337.5116
706.3354, 341.9135
706.8175, 337.3345
707.2996, 333.5638
707.7817, 332.9604
708.2639, 333.7530
708.7460, 335.3402
709.2281, 337.3930
709.7102, 339.1588
710.1923, 340.6346
710.6744, 343.3331
711.1566, 350.0497
711.6387, 358.4946
712.1208, 360.3648
712.6029, 355.4990
713.0850, 352.5109
713.5671, 354.0256
714.0493, 357.9599
714.5314, 362.7356
715.0135, 368.3115
715.4956, 371.8894
715.9777, 370.7773
716.4598, 371.3482
716.9420, 375.9639
717.4241, 381.4421
717.9062, 386.1857
718.3883, 389.5419
718.8704, 390.1885
719.3525, 385.9838
719.8347, 381.8091
720.3168, 382.9708
720.7989, 387.4223
721.2810, 390.1647
721.7631, 390.9076
722.2452, 394.5210
722.7274, 404.8582
723.2095, 417.9377
723.6915, 422.0973
724.1736, 413.8707
724.6558, 410.9341
725.1379, 415.3926
725.6200, 423.4550
726.1021, 438.0938
726.5842, 453.3549
727.0663, 458.3026
727.5485, 448.6797
728.0306, 442.6389
728.5127, 445.8566
728.9948, 453.8306
729.4769, 466.7338
729.9590, 481.1124
730.4412, 489.9185
730.9233, 491.3914
731.4054, 493.1997
731.8875, 504.3545
732.3696, 521.9896
732.8517, 537.7948
733.3339, 551.7207
733.8160, 561.6460
734.2981, 565.6757
734.7802, 569.6269
735.2623, 580.8248
735.7444, 599.5123
736.2266, 615.5770
736.7087, 624.4925
737.1908, 637.1362
737.6729, 658.3596
738.1550, 680.9625
738.6371, 702.2802
739.1193, 720.4247
739.6014, 729.6702
740.0835, 719.9938
740.5656, 714.2344
741.0477, 733.1877
741.5298, 764.0037
742.0120, 790.3093
742.4941, 809.3389
742.9762, 820.7668
743.4583, 823.4951
743.9404, 824.0670
744.4225, 837.3282
744.9047, 863.7357
745.3868, 881.4711
745.8689, 886.0714
746.3510, 891.6844
746.8331, 905.7812
747.3152, 925.1398
747.7974, 943.1537
748.2795, 957.0906
748.7616, 979.0947
749.2437, 1023.851
749.7258, 1060.199
750.2079, 1069.918
750.6901, 1067.628
751.1722, 1070.350
751.6543, 1081.480
752.1364, 1097.107
752.6185, 1116.783
753.1006, 1138.113
753.5828, 1158.558
754.0649, 1178.283
754.5470, 1198.511
755.0291, 1219.163
755.5112, 1237.170
755.9933, 1249.383
756.4755, 1257.400
756.9576, 1266.567
757.4397, 1276.121
757.9218, 1291.029
758.4039, 1314.968
758.8860, 1339.245
759.3682, 1358.519
759.8503, 1373.353
760.3324, 1385.824
760.8145, 1393.815
761.2966, 1403.909
761.7787, 1419.966
762.2609, 1435.653
762.7430, 1448.396
763.2251, 1457.470
763.7072, 1458.860
764.1893, 1451.883
764.6714, 1452.055
765.1536, 1481.985
765.6357, 1521.604
766.1178, 1535.225
766.5999, 1528.042
767.0820, 1524.753
767.5641, 1532.994
768.0463, 1545.309
768.5284, 1554.399
769.0105, 1560.462
769.4926, 1563.834
769.9747, 1562.036
770.4568, 1566.645
770.9390, 1584.439
771.4211, 1602.957
771.9032, 1610.958
772.3853, 1611.399
772.8674, 1615.022
773.3495, 1621.431
773.8317, 1632.378
774.3138, 1645.893
774.7959, 1666.177
775.2780, 1700.925
775.7601, 1743.359
776.2422, 1777.753
776.7244, 1798.405
777.2065, 1825.630
777.6886, 1883.053
778.1707, 1954.190
778.6528, 2011.116
779.1349, 2056.905
779.6171, 2109.253
780.0992, 2174.054
780.5813, 2245.709
781.0634, 2317.955
781.5455, 2391.269
782.0276, 2465.009
782.5098, 2535.920
782.9919, 2623.457
783.4740, 2740.019
783.9561, 2861.614
784.4382, 2966.039
784.9203, 3058.224
785.4025, 3163.284
785.8846, 3288.036
786.3667, 3414.331
786.8488, 3549.136
787.3309, 3676.164
787.8130, 3778.904
788.2952, 3868.383
788.7773, 3967.087
789.2594, 4081.589
789.7415, 4193.753
790.2236, 4295.680
790.7057, 4383.943
791.1879, 4451.367
791.6700, 4501.353
792.1521, 4543.980
792.6342, 4581.818
793.1163, 4605.693
793.5984, 4605.412
794.0806, 4584.691
794.5627, 4557.631
795.0448, 4524.524
795.5269, 4479.955
796.0090, 4423.622
796.4911, 4352.259
796.9733, 4258.978
797.4554, 4150.041
797.9375, 4051.931
798.4196, 3971.919
798.9017, 3890.746
799.3839, 3795.122
799.8660, 3712.457
800.3481, 3661.946
800.8302, 3628.055
801.3123, 3584.442
801.7944, 3525.735
802.2766, 3482.172
802.7587, 3468.945
803.2408, 3472.996
803.7229, 3484.474
804.2050, 3506.937
804.6871, 3542.911
805.1693, 3595.246
805.6514, 3672.802
806.1335, 3782.612
806.6156, 3919.973
807.0977, 4077.457
807.5798, 4255.870
808.0620, 4458.016
808.5441, 4684.801
809.0262, 4944.132
809.5083, 5244.647
809.9904, 5577.391
810.4725, 5918.524
810.9547, 6261.414
811.4368, 6652.296
811.9189, 7109.235
812.4010, 7579.646
812.8831, 8048.819
813.3652, 8520.794
813.8474, 9005.565
814.3295, 9506.403
814.8116, 9990.214
815.2937, 10473.05
815.7758, 10914.28
816.2579, 11318.85
816.7401, 11664.32
817.2222, 11932.61
817.7043, 12122.52
818.1864, 12238.55
818.6685, 12283.07
819.1506, 12252.27
819.6328, 12143.03
820.1149, 11956.69
820.5970, 11677.25
821.0791, 11322.44
821.5612, 10939.03
822.0433, 10545.27
822.5255, 10128.64
823.0076, 9672.061
823.4897, 9182.254
823.9718, 8691.207
824.4539, 8197.158
824.9360, 7706.270
825.4182, 7214.406
825.9003, 6743.574
826.3824, 6313.614
826.8645, 5918.685
827.3466, 5537.796
827.8287, 5160.740
828.3109, 4823.343
828.7930, 4542.422
829.2751, 4282.572
829.7572, 4029.958
830.2393, 3785.728
830.7214, 3546.814
831.2036, 3309.908
831.6857, 3107.423
832.1678, 2967.018
832.6499, 2839.122
833.1320, 2701.924
833.6141, 2566.147
834.0963, 2444.257
834.5784, 2337.703
835.0605, 2240.776
835.5426, 2153.262
836.0247, 2070.350
836.5068, 1985.491
836.9890, 1904.153
837.4711, 1836.292
837.9532, 1780.735
838.4353, 1729.563
838.9174, 1678.915
839.3995, 1630.389
839.8817, 1586.285
840.3638, 1546.175
840.8459, 1506.663
841.3280, 1467.581
841.8101, 1432.910
842.2922, 1404.015
842.7744, 1377.347
843.2565, 1348.661
843.7386, 1319.412
844.2207, 1299.512
844.7028, 1295.313
845.1849, 1281.977
845.6671, 1251.477
846.1492, 1220.125
846.6313, 1198.973
847.1134, 1182.362
847.5955, 1156.786
848.0776, 1116.748
848.5598, 1091.927
849.0419, 1103.214
849.5240, 1108.169
850.0061, 1085.813
850.4882, 1053.195
850.9703, 1026.464
851.4525, 1006.980
851.9346, 989.4676
852.4167, 973.3107
852.8988, 956.1223
853.3809, 934.9938
853.8630, 912.9924
854.3452, 892.0943
854.8273, 873.7974
855.3094, 862.5634
855.7915, 859.8688
856.2736, 855.8157
856.7557, 837.0061
857.2379, 810.8186
857.7200, 793.6736
858.2021, 784.0591
858.6842, 774.2322
859.1663, 762.3164
859.6484, 751.7426
860.1306, 745.8364
860.6127, 741.8091
861.0948, 730.4621
861.5769, 710.9520
862.0590, 696.8763
862.5411, 691.0047
863.0233, 682.8011
863.5054, 665.0992
863.9875, 645.4523
864.4696, 636.4797
864.9517, 639.8669
865.4338, 638.2745
865.9159, 628.2032
866.3980, 618.7354
866.8801, 611.4309
867.3622, 605.5359
867.8444, 601.3323
868.3265, 598.1181
868.8086, 593.4567
869.2907, 585.2148
869.7728, 579.6096
870.2549, 579.7009
870.7371, 580.9424
871.2192, 581.1020
871.7013, 580.5010
872.1834, 579.3569
872.6655, 577.9203
873.1476, 577.9694
873.6298, 581.6897
874.1119, 585.9180
874.5940, 588.0930
875.0761, 589.3378
875.5582, 591.4508
876.0403, 594.1880
876.5225, 595.7322
877.0046, 595.1332
877.4867, 594.0857
877.9688, 592.9104
878.4509, 593.3493
878.9330, 600.9613
879.4152, 614.2241
879.8973, 625.5966
880.3794, 632.9082
880.8615, 638.0380
881.3436, 642.1913
881.8257, 646.4808
882.3079, 655.0108
882.7900, 667.8668
883.2721, 680.0391
883.7542, 691.7223
884.2363, 696.8943
884.7184, 690.3820
885.2006, 680.6395
885.6827, 682.7877
886.1648, 698.2086
886.6469, 707.4544
887.1290, 708.6092
887.6111, 708.0900
888.0933, 707.5581
888.5754, 705.4622
889.0575, 699.6721
889.5396, 691.1965
890.0217, 684.5373
890.5038, 682.9197
890.9860, 676.7951
891.4681, 664.5787
891.9502, 649.3208
892.4323, 629.5807
892.9144, 608.9903
893.3965, 591.6500
893.8787, 577.8336
894.3608, 566.0823
894.8429, 558.8775
895.3250, 549.7813
895.8071, 533.2976
896.2892, 516.1882
896.7714, 504.8234
897.2535, 497.7491
897.7356, 490.2416
898.2177, 480.6505
898.6998, 473.0354
899.1819, 473.9116
899.6641, 474.5876
900.1462, 464.5693
900.6283, 448.8420
901.1104, 435.6577
901.5925, 426.7414
902.0746, 420.6259
902.5568, 416.3708
903.0389, 414.6946
903.5210, 420.3283
904.0031, 427.9663
904.4852, 422.6212
904.9673, 406.6243
905.4495, 396.0966
905.9316, 396.6364
906.4137, 399.4755
906.8958, 395.8357
907.3779, 387.3400
907.8600, 377.0410
908.3422, 365.5427
908.8243, 362.4052
909.3064, 369.4219
909.7885, 375.8729
910.2706, 375.4791
910.7527, 371.7956
911.2349, 371.3348
911.7170, 374.2105
912.1991, 374.0735
912.6812, 370.4933
913.1633, 365.3571
913.6454, 358.0659
914.1276, 352.0481
914.6097, 350.9960
915.0918, 353.1447
915.5739, 351.7596
916.0560, 344.5004
916.5381, 339.7318
917.0203, 338.9322
917.5024, 338.2697
917.9845, 335.4227
918.4666, 332.7843
918.9487, 334.7832
919.4308, 341.0085
919.9130, 340.9629
920.3951, 326.3204
920.8772, 317.5189
921.3593, 321.3815
921.8414, 326.5636
922.3235, 326.3668
922.8057, 323.5044
923.2878, 323.3030
923.7699, 326.6837
924.2520, 327.6270
924.7341, 323.9462
925.2162, 318.4666
925.6984, 309.0092
926.1805, 300.9772
926.6626, 300.7386
927.1447, 305.9914
927.6268, 309.5008
928.1089, 308.9258
928.5911, 307.8635
929.0732, 307.5965
929.5553, 308.1237
930.0374, 310.6739
930.5195, 313.3403
931.0016, 312.9352
931.4838, 309.6594
931.9659, 306.8109
932.4480, 306.2172
932.9301, 306.1395
933.4122, 305.2936
933.8943, 303.9323
934.3765, 301.5621
934.8586, 299.1337
935.3407, 299.6293
935.8228, 303.3294
936.3049, 305.4566
936.7870, 300.3418
937.2692, 294.9363
937.7513, 303.5351
938.2334, 317.9640
938.7155, 317.3815
939.1976, 303.1099
939.6797, 291.6363
940.1619, 289.9139
940.6440, 291.2551
941.1261, 287.4169
941.6082, 281.5203
942.0903, 283.2260
942.5724, 290.5924
943.0546, 294.0029
943.5367, 292.0224
944.0188, 288.5902
944.5009, 285.8878
944.9830, 284.1122
945.4651, 283.9359
945.9473, 285.1015
946.4294, 285.6256
946.9115, 285.5129
947.3936, 284.8735
947.8757, 283.7021
948.3578, 282.2209
948.8400, 280.2919
949.3221, 279.0301
949.8042, 282.5854
950.2863, 291.5249
950.7684, 292.6182
951.2505, 284.0549
951.7327, 278.1649
952.2148, 279.4915
952.6969, 283.1707
953.1790, 284.8956
953.6611, 284.5793
954.1432, 281.2072
954.6254, 273.5937
955.1075, 268.6992
955.5896, 267.3658
956.0717, 267.3846
956.5538, 267.4593
957.0359, 269.3182
957.5181, 276.2454
958.0002, 287.5094
958.4823, 292.1895
958.9644, 287.4502
959.4465, 283.3277
959.9286, 280.5141
960.4108, 278.8725
960.8929, 278.9394
961.3750, 279.5885
961.8571, 279.0251
962.3392, 277.1466
962.8214, 275.5401
963.3035, 275.3698
963.7856, 273.2740
964.2677, 264.8707
964.7498, 259.2155
965.2319, 264.7363
965.7141, 275.4733
966.1962, 279.3834
966.6783, 274.9507
967.1604, 271.1081
967.6425, 268.9817
968.1246, 265.9336
968.6068, 258.5003
969.0889, 252.8254
969.5710, 255.6294
970.0531, 262.9355
970.5352, 263.7793
971.0173, 253.7782
971.4995, 251.4072
971.9816, 268.2569
972.4637, 279.9127
972.9458, 273.4292
973.4279, 263.6021
973.9100, 264.9312
974.3922, 273.5464
974.8743, 274.5063
975.3564, 261.3430
975.8385, 253.9977
976.3206, 261.8647
976.8027, 268.9646
977.2849, 267.4684
977.7670, 262.9509
978.2491, 262.2563
978.7312, 264.0688
979.2133, 260.5504
979.6954, 245.2521
980.1776, 236.4409
980.6597, 243.1101
981.1418, 252.3630
981.6239, 261.4551
982.1060, 266.7785
982.5881, 261.3024
983.0703, 247.5191
983.5524, 240.4142
984.0345, 246.6414
984.5166, 254.2281
984.9987, 262.6541
985.4808, 267.6075
985.9630, 263.0289
986.4451, 255.3778
986.9272, 254.4415
987.4093, 259.9521
987.8914, 261.6158
988.3735, 253.5658
988.8557, 245.8208
989.3378, 241.6214
989.8199, 239.6336
990.3020, 240.5271
990.7841, 242.1483
991.2662, 241.5381
991.7484, 238.4116
992.2305, 234.5215
992.7126, 228.4350
993.1947, 225.0305
993.6768, 227.3492
994.1589, 232.2847
994.6411, 239.3011
995.1232, 246.3471
995.6053, 250.7825
996.0874, 252.1471
996.5695, 251.5007
997.0516, 246.9479
997.5338, 243.8173
998.0159, 245.4358
998.4980, 248.6313
998.9801, 252.4537
999.4622, 255.2107
999.9443, 253.0560
1000.426, 245.9804
1000.909, 242.2016
1001.391, 248.3652
1001.873, 254.4957
1002.355, 255.9922
1002.837, 255.3095
1003.319, 253.5596
1003.801, 251.5570
1004.283, 249.4657
1004.766, 247.6049
1005.248, 249.3651
1005.730, 262.2993
1006.212, 271.2987
1006.694, 266.8791
1007.176, 257.5808
1007.658, 247.2996
1008.140, 238.8759
1008.622, 237.2006
1009.104, 242.7448
1009.587, 246.8925
1010.069, 246.6920
1010.551, 243.5235
1011.033, 234.0048
1011.515, 225.5447
1011.997, 224.3489
1012.479, 228.8006
1012.961, 237.1799
1013.444, 248.6055
1013.926, 254.4904
1014.408, 246.1691
1014.890, 238.5879
1015.372, 240.1256
1015.854, 243.2048
1016.336, 241.7076
1016.818, 237.3040
1017.300, 232.6329
1017.783, 228.3886
1018.265, 227.9936
1018.747, 237.7803
1019.229, 244.6800
1019.711, 240.7800
1020.193, 234.9738
1020.675, 234.6921
1021.157, 236.8288
1021.640, 235.1805
1022.122, 229.0139
1022.604, 223.7162
1023.086, 221.6425
1023.568, 219.6234
1024.050, 214.0894
1024.532, 210.8824
1025.014, 216.5801
1025.496, 225.9025
1025.979, 230.4621
1026.461, 229.4665
1026.943, 228.4929
1027.425, 227.6804
1027.907, 228.7195
1028.389, 234.2669
1028.871, 239.3643
1029.353, 241.1509
1029.836, 240.5878
1030.318, 238.8545
1030.800, 236.1374
1031.282, 233.3212
1031.764, 230.6171
1032.246, 227.7247
1032.728, 222.2000
1033.210, 219.1991
1033.693, 224.1543
1034.175, 231.3154
1034.657, 232.5024
1035.139, 228.0412
1035.621, 226.7930
1036.103, 230.3087
1036.585, 235.6604
1037.067, 247.4857
1037.549, 255.2944
1038.031, 251.7534
1038.514, 244.2538
1038.996, 240.6255
1039.478, 240.5119
1039.960, 240.7781
1040.442, 239.3720
1040.924, 242.2272
1041.406, 254.6129
1041.888, 263.3371
1042.371, 261.8466
1042.853, 257.0356
1043.335, 255.7711
1043.817, 256.9978
1044.299, 255.2781
1044.781, 247.9859
1045.263, 244.9876
1045.745, 249.3873
1046.228, 251.2847
1046.710, 246.2307
1047.192, 240.2326
1047.674, 238.8432
1048.156, 240.3059
1048.638, 238.4876
1049.120, 231.7887
1049.602, 230.0069
1050.084, 234.8467
1050.567, 238.5258
1051.049, 238.5659
1051.531, 238.6978
1052.013, 242.4112
1052.495, 246.8711
1052.977, 244.0752
1053.459, 233.3250
1053.941, 233.6845
1054.423, 247.0791
1054.906, 254.7453
1055.388, 252.2120
1055.870, 246.7780
1056.352, 242.6682
1056.834, 239.8006
1057.316, 238.1216
1057.798, 237.5431
1058.280, 237.3451
1058.763, 237.5377
1059.245, 238.7405
1059.727, 241.0171
1060.209, 242.2760
1060.691, 241.4574
1061.173, 238.7817
1061.655, 233.4626
1062.137, 227.4028
1062.620, 228.6499
1063.102, 234.6559
1063.584, 231.6712
1064.066, 220.2099
1064.548, 214.7833
1065.030, 220.9452
1065.512, 229.6360
1065.994, 232.7647
1066.476, 231.9209
1066.958, 227.5659
1067.441, 222.2136
1067.923, 222.6055
1068.405, 227.2196
1068.887, 230.3624
1069.369, 230.0593
1069.851, 225.5313
1070.333, 214.3215
1070.815, 203.7752
1071.298, 201.7086
1071.780, 205.0229
1072.262, 212.4313
1072.744, 220.7571
1073.226, 224.5174
1073.708, 223.2246
1074.190, 219.5475
1074.672, 213.2223
1075.155, 210.7690
1075.637, 221.1906
1076.119, 232.3944
1076.601, 233.7003
1077.083, 230.3941
1077.565, 229.2745
1078.047, 230.5126
1078.529, 232.3975
1079.011, 235.6524
1079.494, 232.3426
1079.976, 207.6054
1080.458, 190.7976
1080.940, 203.6482
1081.422, 222.4441
1081.904, 226.1570
1082.386, 220.1656
1082.868, 218.9870
1083.350, 224.9395
1083.833, 229.0013
1084.315, 230.1928
1084.797, 229.1282
1085.279, 223.4064
1085.761, 218.2573
1086.243, 216.3386
1086.725, 216.7273
1087.207, 218.9598
1087.689, 222.8750
1088.172, 223.8920
1088.654, 219.5968
1089.136, 218.4905
1089.618, 223.1874
1090.100, 225.9857
1090.582, 223.0458
1091.064, 218.8683
1091.546, 217.8503
1092.029, 219.3389
1092.511, 221.2413
1092.993, 223.7566
1093.475, 224.6413
1093.957, 223.6048
1094.439, 223.2076
1094.921, 224.1485
1095.403, 225.8203
1095.885, 228.0346
1096.368, 229.5488
1096.850, 227.0129
1097.332, 221.6932
1097.814, 221.2762
1098.296, 224.9357
1098.778, 228.0593
1099.260, 229.6962
1099.742, 228.9746
1100.224, 225.4882
1100.707, 221.0945
1101.189, 216.7144
1101.671, 213.9815
1102.153, 217.4460
1102.635, 223.8353
1103.117, 226.8652
1103.599, 226.7018
1104.081, 225.3786
1104.564, 223.7179
1105.046, 222.6797
1105.528, 223.4110
1106.010, 223.6993
1106.492, 219.7636
1106.974, 216.4146
1107.456, 220.1790
1107.938, 226.6151
1108.421, 229.1802
1108.903, 227.4558
1109.385, 223.6892
1109.867, 217.3001
1110.349, 213.8591
1110.831, 217.7535
1111.313, 221.9048
1111.795, 223.7686
1112.277, 223.9770
1112.760, 222.5027
1113.242, 220.0529
1113.724, 217.7542
1114.206, 215.4779
1114.688, 215.0027
1115.170, 217.2827
1115.652, 219.6653
1116.134, 221.0496
1116.616, 224.2238
1117.099, 233.2324
1117.581, 240.5984
1118.063, 235.4907
1118.545, 220.9801
1119.027, 216.5402
1119.509, 224.1206
1119.991, 229.7075
1120.473, 233.0146
1120.956, 231.1925
1121.438, 222.5662
1121.920, 216.4514
1122.402, 220.7045
1122.884, 228.8642
1123.366, 226.7984
1123.848, 217.8533
1124.330, 219.6680
1124.813, 229.2366
1125.295, 231.4594
1125.777, 225.1345
1126.259, 218.8233
1126.741, 216.4498
1127.223, 217.7195
1127.705, 224.7865
1128.187, 232.1933
1128.669, 233.1033
1129.151, 229.7420
1129.634, 222.3145
1130.116, 214.3747
1130.598, 213.9298
1131.080, 221.0712
1131.562, 225.4810
1132.044, 220.6983
1132.526, 217.4379
1133.008, 224.7719
1133.491, 230.9784
1133.973, 226.5491
1134.455, 219.2303
1134.937, 217.5735
1135.419, 220.1676
1135.901, 220.6316
1136.383, 216.9738
1136.865, 217.9153
1137.348, 230.1832
1137.830, 237.5707
1138.312, 236.1496
1138.794, 232.2540
1139.276, 228.4915
1139.758, 224.5073
1140.240, 219.4537
1140.722, 213.8436
1141.204, 211.3139
1141.687, 212.2542
1142.169, 213.0569
1142.651, 213.5303
1143.133, 214.2453
1143.615, 215.4068
1144.097, 216.2666
1144.579, 216.3581
1145.061, 215.3411
1145.543, 210.4126
1146.026, 204.6992
1146.508, 210.4046
1146.990, 222.8330
1147.472, 227.1572
1147.954, 223.2775
1148.436, 219.6572
1148.918, 219.4769
1149.400, 220.4553
1149.883, 221.8445
1150.365, 222.1488
1150.847, 218.2720
1151.329, 214.3511
1151.811, 215.0019
1152.293, 218.1802
1152.775, 221.1306
1153.257, 223.1934
1153.740, 223.7546
1154.222, 222.0325
1154.704, 221.0259
1155.186, 220.0702
1155.668, 221.7633
1156.150, 232.8868
1156.632, 240.3910
1157.114, 231.6936
1157.596, 217.1881
1158.078, 214.8727
1158.561, 224.0731
1159.043, 225.5785
1159.525, 216.8063
1160.007, 212.2119
1160.489, 213.5511
1160.971, 214.4385
1161.453, 212.3924
1161.935, 212.1545
1162.418, 218.1817
1162.900, 226.3211
1163.382, 228.3012
1163.864, 225.7207
1164.346, 224.0964
1164.828, 223.1199
1165.310, 220.4203
1165.792, 216.8285
1166.275, 218.5426
1166.757, 227.4258
1167.239, 233.3366
1167.721, 225.9654
1168.203, 217.0177
1168.685, 217.4601
1169.167, 220.1629
1169.649, 217.3017
1170.131, 212.6379
1170.614, 212.2818
1171.096, 216.1756
1171.578, 221.1376
1172.060, 228.0937
1172.542, 230.4257
1173.024, 222.0837
1173.506, 216.2261
1173.988, 217.3071
1174.470, 219.6597
1174.953, 220.5777
1175.435, 220.5862
1175.917, 220.3699
1176.399, 219.9276
1176.881, 219.2896
1177.363, 218.4772
1177.845, 216.6367
1178.327, 213.6140
1178.810, 214.2168
1179.292, 219.7250
1179.774, 223.2974
1180.256, 220.2063
1180.738, 214.9073
1181.220, 213.1183
1181.702, 213.5874
1182.184, 214.2929
1182.667, 215.2276
1183.149, 215.8394
1183.631, 216.8123
1184.113, 221.1808
1184.595, 228.7698
1185.077, 232.5229
1185.559, 227.0756
1186.041, 221.8603
1186.523, 222.7341
1187.005, 223.4173
1187.488, 219.0278
1187.970, 214.0020
1188.452, 211.7067
1188.934, 212.5363
1189.416, 218.2825
1189.898, 229.7782
1190.380, 232.8192
1190.862, 222.3638
1191.345, 219.5958
1191.827, 228.7373
1192.309, 236.9444
1192.791, 240.1028
1193.273, 235.8620
1193.755, 220.1673
1194.237, 202.9504
1194.719, 208.2309
1195.202, 227.8941
1195.684, 232.4345
1196.166, 225.7184
1196.648, 219.9076
1197.130, 216.7159
1197.612, 213.3181
1198.094, 209.0743
1198.576, 208.8696
1199.058, 218.8826
1199.541, 228.1257
1200.023, 227.6299
1200.505, 224.9967
1200.987, 227.2417
1201.469, 229.5815
1201.951, 224.6916
1202.433, 214.8988
1202.915, 208.9455
1203.397, 208.5278
1203.880, 206.4347
1204.362, 199.8198
1204.844, 198.6489
1205.326, 206.7410
1205.808, 211.9825
1206.290, 208.3777
1206.772, 204.2294
1207.254, 207.6658
1207.737, 215.4221
1208.219, 220.5766
1208.701, 223.4120
1209.183, 225.1189
1209.665, 225.6579
1210.147, 224.7836
1210.629, 222.4947
1211.111, 218.2290
1211.594, 212.1089
1212.076, 207.6931
1212.558, 206.8237
1213.040, 209.4957
1213.522, 219.9568
1214.004, 229.2341
1214.486, 228.2967
1214.968, 224.3467
1215.450, 226.5247
1215.932, 232.8289
1216.415, 235.4070
1216.897, 233.2910
1217.379, 231.3921
1217.861, 229.6247
1218.343, 228.2523
1218.825, 227.1284
1219.307, 227.1106
1219.789, 228.6756
1220.271, 230.6093
1220.754, 231.8776
1221.236, 232.9130
1221.718, 235.4136
1222.200, 238.0525
1222.682, 235.3875
1223.164, 229.7044
1223.646, 227.2676
1224.128, 227.8146
1224.611, 227.8221
1225.093, 226.3853
1225.575, 225.1620
1226.057, 224.5467
1226.539, 225.4985
1227.021, 231.6879
1227.503, 235.6102
1227.985, 230.0171
1228.468, 223.3657
1228.950, 224.2273
1229.432, 228.7710
1229.914, 229.5881
1230.396, 226.8741
1230.878, 224.4635
1231.360, 221.9674
1231.842, 222.6199
1232.324, 227.1065
1232.807, 228.1578
1233.289, 223.8173
1233.771, 219.0879
1234.253, 217.1143
1234.735, 216.0100
1235.217, 212.9601
1235.699, 209.8791
1236.181, 210.1405
1236.663, 212.0997
1237.146, 214.0466
1237.628, 215.4034
1238.110, 213.2498
1238.592, 209.4832
1239.074, 215.6594
1239.556, 240.5390
1240.038, 250.9517
1240.520, 222.4519
1241.003, 205.5225
1241.485, 219.2667
1241.967, 230.4013
1242.449, 220.4123
1242.931, 207.6027
1243.413, 212.5735
1243.895, 228.0200
1244.377, 232.6460
1244.859, 227.9530
1245.342, 226.6411
1245.824, 228.0667
1246.306, 228.3608
1246.788, 227.1513
1247.270, 225.7726
1247.752, 224.7014
1248.234, 223.5415
1248.716, 221.9084
1249.198, 220.4507
1249.681, 218.1104
1250.163, 217.8830
1250.645, 224.6631
1251.127, 231.9003
1251.609, 233.6823
1252.091, 230.9348
1252.573, 225.0555
1253.055, 216.5391
1253.538, 214.8271
1254.020, 222.5217
1254.502, 223.7774
1254.984, 216.9556
1255.466, 214.6644
1255.948, 220.0321
1256.430, 223.8753
1256.912, 220.8514
1257.395, 217.1300
1257.877, 220.1349
1258.359, 225.3804
1258.841, 226.6226
1259.323, 226.3303
1259.805, 228.1190
1260.287, 230.4188
1260.769, 229.9870
1261.251, 227.4131
1261.734, 226.6823
1262.216, 229.4025
1262.698, 227.1588
1263.180, 211.9430
1263.662, 205.3011
1264.144, 212.5075
1264.626, 219.5827
1265.108, 221.9713
1265.590, 221.5598
1266.073, 219.3113
1266.555, 217.3438
##END=



