##NAMES=Astrophyllite
##RRUFFID=R060202
##IDEAL CHEMISTRY=K_2_NaFe^2+^_7_Ti^4+^_2_(Si_4_O_12_)_2_O_2_(OH)_4_F
##LOCALITY=Demix Quarry, Mont Saint-Hilaire, Rouville County, Quebec, Canada
##OWNER=RRUFF
##SOURCE=Royal Ontario Museum
##DESCRIPTION=Aggregate of brown splintered wafers
##STATUS=The identification of this mineral has been confirmed by X-ray diffraction and chemical analysis
##URL=rruff.info/R060202
##MEASURED CHEMISTRY=(K_0.56_Na_0.38_Ca_0.06_)_3_(Fe^2+^_0.52_Mn_0.44_Mg_0.04_)_7_(Ti_0.75_Zr_0.15_Al_0.15_)_2_Si_8_O_24_(O_0.27_OH_0.73_)_7_
142.9505, 3038.629
143.4326, 3062.923
143.9147, 3098.900
144.3968, 3144.281
144.8789, 3203.295
145.3610, 3260.032
145.8432, 3315.103
146.3253, 3367.877
146.8074, 3414.610
147.2895, 3456.320
147.7716, 3491.456
148.2537, 3519.310
148.7359, 3523.977
149.2180, 3540.724
149.7001, 3580.787
150.1822, 3641.732
150.6643, 3685.071
151.1464, 3688.746
151.6286, 3687.395
152.1107, 3704.926
152.5928, 3763.782
153.0749, 3820.399
153.5570, 3869.570
154.0391, 3911.333
154.5213, 3941.404
155.0034, 3953.060
155.4855, 3954.407
155.9676, 3954.319
156.4497, 3948.794
156.9318, 3946.904
157.4140, 3951.260
157.8961, 3961.709
158.3782, 3979.808
158.8603, 4011.397
159.3424, 4050.399
159.8245, 4086.667
160.3067, 4107.289
160.7888, 4130.162
161.2709, 4168.556
161.7530, 4240.513
162.2351, 4301.041
162.7172, 4323.983
163.1993, 4318.601
163.6815, 4315.083
164.1636, 4330.790
164.6457, 4352.705
165.1278, 4369.465
165.6099, 4374.411
166.0920, 4377.189
166.5742, 4379.994
167.0563, 4383.629
167.5384, 4394.863
168.0205, 4429.996
168.5026, 4472.458
168.9847, 4499.994
169.4669, 4495.156
169.9490, 4478.877
170.4311, 4468.274
170.9132, 4463.969
171.3953, 4457.362
171.8774, 4437.102
172.3596, 4409.976
172.8417, 4388.804
173.3238, 4392.650
173.8059, 4400.320
174.2880, 4382.633
174.7701, 4333.335
175.2523, 4280.359
175.7344, 4249.063
176.2165, 4236.417
176.6986, 4231.635
177.1807, 4238.664
177.6628, 4247.705
178.1449, 4240.643
178.6271, 4211.268
179.1092, 4173.658
179.5913, 4141.376
180.0734, 4114.961
180.5555, 4095.930
181.0376, 4091.626
181.5198, 4096.063
182.0019, 4092.043
182.4840, 4071.593
182.9661, 4046.316
183.4482, 4037.597
183.9303, 4045.144
184.4125, 4057.788
184.8946, 4068.277
185.3767, 4076.552
185.8588, 4082.453
186.3409, 4085.028
186.8230, 4085.594
187.3052, 4087.503
187.7873, 4090.841
188.2694, 4094.578
188.7515, 4096.716
189.2336, 4097.615
189.7157, 4101.115
190.1979, 4112.179
190.6800, 4127.612
191.1621, 4128.650
191.6442, 4112.057
192.1263, 4093.552
192.6084, 4095.437
193.0906, 4117.886
193.5727, 4143.130
194.0548, 4163.008
194.5369, 4178.144
195.0190, 4199.175
195.5011, 4227.829
195.9832, 4258.771
196.4654, 4282.472
196.9475, 4298.429
197.4296, 4311.613
197.9117, 4321.473
198.3938, 4327.794
198.8759, 4344.906
199.3581, 4378.058
199.8402, 4417.208
200.3223, 4435.107
200.8044, 4425.940
201.2865, 4421.491
201.7686, 4448.365
202.2508, 4511.766
202.7329, 4553.237
203.2150, 4561.840
203.6971, 4547.358
204.1792, 4540.543
204.6613, 4541.148
205.1435, 4550.147
205.6256, 4571.248
206.1077, 4607.332
206.5898, 4638.967
207.0719, 4662.865
207.5540, 4680.043
208.0362, 4697.254
208.5183, 4716.429
209.0004, 4731.679
209.4825, 4732.755
209.9646, 4710.869
210.4467, 4709.274
210.9288, 4743.752
211.4110, 4811.080
211.8931, 4856.922
212.3752, 4875.324
212.8573, 4880.750
213.3394, 4885.625
213.8215, 4887.216
214.3037, 4896.055
214.7858, 4915.054
215.2679, 4944.488
215.7500, 4979.618
216.2321, 5025.350
216.7142, 5070.630
217.1964, 5099.899
217.6785, 5105.917
218.1606, 5111.822
218.6427, 5121.526
219.1248, 5133.344
219.6069, 5162.060
220.0891, 5215.415
220.5712, 5279.157
221.0533, 5333.378
221.5354, 5375.246
222.0175, 5412.253
222.4996, 5444.301
222.9818, 5469.096
223.4639, 5501.427
223.9460, 5546.735
224.4281, 5596.392
224.9102, 5634.391
225.3923, 5652.897
225.8745, 5672.881
226.3566, 5702.979
226.8387, 5749.729
227.3208, 5787.694
227.8029, 5809.426
228.2850, 5825.319
228.7672, 5860.381
229.2493, 5926.713
229.7314, 5994.392
230.2135, 6050.523
230.6956, 6090.283
231.1777, 6128.807
231.6599, 6162.235
232.1420, 6195.253
232.6241, 6244.579
233.1062, 6330.517
233.5883, 6403.774
234.0704, 6434.295
234.5526, 6384.218
235.0347, 6374.767
235.5168, 6430.232
235.9989, 6529.195
236.4810, 6588.587
236.9631, 6581.490
237.4453, 6569.313
237.9274, 6588.181
238.4095, 6658.355
238.8916, 6716.444
239.3737, 6762.256
239.8558, 6793.687
240.3380, 6797.914
240.8201, 6754.471
241.3022, 6709.445
241.7843, 6693.503
242.2664, 6725.476
242.7485, 6748.641
243.2307, 6757.968
243.7128, 6754.418
244.1949, 6744.614
244.6770, 6727.845
245.1591, 6705.688
245.6412, 6677.707
246.1233, 6636.794
246.6055, 6604.793
247.0876, 6587.101
247.5697, 6581.924
248.0518, 6570.040
248.5339, 6545.902
249.0160, 6521.783
249.4982, 6509.844
249.9803, 6524.758
250.4624, 6519.439
250.9445, 6476.401
251.4266, 6400.768
251.9087, 6358.716
252.3909, 6365.285
252.8730, 6386.980
253.3551, 6396.743
253.8372, 6390.792
254.3193, 6382.307
254.8014, 6377.886
255.2836, 6376.093
255.7657, 6346.083
256.2478, 6270.216
256.7299, 6188.668
257.2120, 6137.267
257.6941, 6128.046
258.1762, 6121.148
258.6584, 6114.470
259.1405, 6107.220
259.6226, 6075.221
260.1047, 6005.223
260.5868, 5928.721
261.0689, 5877.595
261.5511, 5867.122
262.0332, 5840.792
262.5153, 5782.050
262.9974, 5693.706
263.4795, 5617.451
263.9616, 5558.195
264.4438, 5504.618
264.9259, 5444.145
265.4080, 5373.960
265.8901, 5307.906
266.3722, 5251.520
266.8543, 5203.953
267.3365, 5147.135
267.8186, 5076.894
268.3007, 5005.215
268.7828, 4946.090
269.2649, 4901.983
269.7470, 4858.658
270.2292, 4812.483
270.7113, 4763.346
271.1934, 4720.093
271.6755, 4685.260
272.1576, 4650.405
272.6397, 4603.570
273.1219, 4541.246
273.6040, 4486.851
274.0861, 4447.738
274.5682, 4421.891
275.0503, 4393.896
275.5324, 4362.221
276.0146, 4332.056
276.4967, 4312.383
276.9788, 4305.448
277.4609, 4287.734
277.9430, 4247.925
278.4251, 4191.212
278.9073, 4152.619
279.3894, 4134.659
279.8715, 4127.206
280.3536, 4124.801
280.8357, 4127.979
281.3178, 4121.168
281.8000, 4094.606
282.2821, 4055.229
282.7642, 4037.375
283.2463, 4044.158
283.7284, 4057.237
284.2105, 4058.142
284.6927, 4047.412
285.1747, 4039.865
285.6569, 4044.268
286.1390, 4053.221
286.6211, 4036.956
287.1032, 3992.555
287.5853, 3944.604
288.0674, 3913.449
288.5496, 3898.298
289.0317, 3893.304
289.5138, 3900.035
289.9959, 3914.240
290.4780, 3927.435
290.9601, 3939.878
291.4423, 3946.926
291.9244, 3943.062
292.4065, 3929.905
292.8886, 3913.128
293.3707, 3889.546
293.8528, 3867.007
294.3350, 3865.265
294.8171, 3884.069
295.2992, 3901.632
295.7813, 3894.228
296.2634, 3871.076
296.7455, 3859.376
297.2277, 3869.747
297.7098, 3890.545
298.1919, 3906.484
298.6740, 3917.590
299.1561, 3922.629
299.6382, 3913.783
300.1204, 3898.849
300.6025, 3895.072
301.0846, 3913.570
301.5667, 3934.945
302.0488, 3933.123
302.5309, 3911.372
303.0131, 3889.584
303.4952, 3880.021
303.9773, 3879.123
304.4594, 3883.029
304.9415, 3894.074
305.4236, 3904.298
305.9058, 3902.630
306.3879, 3892.487
306.8700, 3886.957
307.3521, 3899.410
307.8342, 3918.322
308.3163, 3930.521
308.7985, 3930.264
309.2806, 3929.229
309.7627, 3941.721
310.2448, 3961.373
310.7269, 3969.661
311.2090, 3941.139
311.6912, 3905.991
312.1733, 3889.426
312.6554, 3900.147
313.1375, 3919.550
313.6196, 3947.701
314.1017, 3977.801
314.5839, 3994.885
315.0660, 3979.330
315.5481, 3957.928
316.0302, 3946.295
316.5123, 3947.250
316.9944, 3955.829
317.4766, 3976.382
317.9586, 4002.641
318.4408, 4023.796
318.9229, 4033.129
319.4050, 4039.321
319.8871, 4046.435
320.3692, 4055.661
320.8513, 4063.002
321.3335, 4061.042
321.8156, 4058.275
322.2977, 4066.319
322.7798, 4108.714
323.2619, 4142.543
323.7440, 4150.011
324.2262, 4122.351
324.7083, 4105.890
325.1904, 4112.690
325.6725, 4129.939
326.1546, 4143.466
326.6367, 4151.195
327.1189, 4156.461
327.6010, 4157.293
328.0831, 4152.112
328.5652, 4156.062
329.0473, 4177.013
329.5294, 4202.204
330.0116, 4220.162
330.4937, 4225.937
330.9758, 4231.285
331.4579, 4236.322
331.9400, 4241.171
332.4221, 4254.051
332.9043, 4283.637
333.3864, 4311.353
333.8685, 4319.770
334.3506, 4295.154
334.8327, 4284.539
335.3148, 4301.305
335.7970, 4338.325
336.2791, 4351.164
336.7612, 4327.227
337.2433, 4304.342
337.7254, 4313.059
338.2076, 4361.909
338.6897, 4397.333
339.1718, 4408.358
339.6539, 4405.362
340.1360, 4423.901
340.6181, 4469.639
341.1003, 4509.526
341.5824, 4515.523
342.0645, 4487.533
342.5466, 4479.101
343.0287, 4500.182
343.5108, 4533.003
343.9930, 4540.777
344.4751, 4523.352
344.9572, 4507.518
345.4393, 4511.119
345.9214, 4529.440
346.4035, 4539.959
346.8857, 4540.211
347.3678, 4537.153
347.8499, 4540.732
348.3320, 4549.580
348.8141, 4556.652
349.2962, 4558.002
349.7784, 4555.483
350.2605, 4551.701
350.7426, 4546.448
351.2247, 4543.175
351.7068, 4543.968
352.1889, 4549.221
352.6710, 4559.756
353.1531, 4585.581
353.6353, 4611.631
354.1174, 4617.654
354.5995, 4604.479
355.0816, 4591.540
355.5637, 4593.562
356.0458, 4603.875
356.5280, 4614.040
357.0101, 4619.981
357.4922, 4626.218
357.9743, 4638.025
358.4564, 4653.853
358.9385, 4665.344
359.4207, 4661.925
359.9028, 4655.765
360.3849, 4657.242
360.8670, 4677.285
361.3491, 4692.860
361.8312, 4691.336
362.3134, 4678.185
362.7955, 4669.200
363.2776, 4668.525
363.7597, 4673.659
364.2418, 4684.282
364.7239, 4704.404
365.2061, 4721.563
365.6882, 4733.791
366.1703, 4741.740
366.6524, 4746.418
367.1345, 4749.860
367.6166, 4748.195
368.0988, 4737.434
368.5809, 4711.425
369.0630, 4698.343
369.5451, 4707.580
370.0272, 4724.610
370.5093, 4732.363
370.9915, 4725.901
371.4736, 4717.769
371.9557, 4710.749
372.4378, 4704.846
372.9199, 4695.122
373.4020, 4675.941
373.8842, 4660.569
374.3663, 4664.357
374.8484, 4695.414
375.3305, 4716.205
375.8126, 4717.295
376.2947, 4703.778
376.7769, 4696.604
377.2590, 4695.680
377.7411, 4701.227
378.2232, 4717.115
378.7053, 4743.490
379.1874, 4761.192
379.6696, 4765.590
380.1517, 4764.334
380.6338, 4776.917
381.1159, 4802.576
381.5980, 4818.417
382.0801, 4799.852
382.5623, 4760.086
383.0444, 4743.255
383.5265, 4755.223
384.0086, 4776.874
384.4907, 4791.062
384.9728, 4797.510
385.4549, 4794.857
385.9370, 4771.505
386.4192, 4743.607
386.9013, 4736.925
387.3834, 4751.973
387.8655, 4766.133
388.3476, 4759.346
388.8297, 4741.388
389.3119, 4726.296
389.7940, 4724.314
390.2761, 4721.638
390.7582, 4702.971
391.2403, 4672.435
391.7224, 4653.287
392.2046, 4667.043
392.6867, 4690.774
393.1688, 4707.304
393.6509, 4711.690
394.1330, 4710.511
394.6151, 4699.775
395.0973, 4684.458
395.5794, 4677.533
396.0615, 4690.260
396.5436, 4704.917
397.0257, 4714.665
397.5078, 4718.585
397.9900, 4718.585
398.4721, 4713.435
398.9542, 4704.821
399.4363, 4694.536
399.9184, 4676.833
400.4005, 4665.127
400.8827, 4663.051
401.3648, 4671.044
401.8469, 4682.721
402.3290, 4705.851
402.8111, 4723.417
403.2932, 4716.076
403.7754, 4672.208
404.2575, 4641.643
404.7396, 4634.691
405.2217, 4646.112
405.7038, 4655.526
406.1859, 4662.035
406.6681, 4670.263
407.1502, 4686.157
407.6323, 4708.932
408.1144, 4722.623
408.5965, 4723.445
409.0786, 4719.874
409.5608, 4730.137
410.0429, 4752.250
410.5250, 4766.136
411.0071, 4751.838
411.4892, 4723.028
411.9713, 4714.805
412.4535, 4729.442
412.9356, 4748.634
413.4177, 4758.791
413.8998, 4760.547
414.3819, 4754.870
414.8640, 4731.447
415.3462, 4709.263
415.8283, 4709.878
416.3104, 4730.192
416.7925, 4747.748
417.2746, 4744.647
417.7567, 4735.075
418.2388, 4733.283
418.7209, 4751.102
419.2031, 4763.044
419.6852, 4736.997
420.1673, 4750.138
420.6494, 4754.317
421.1315, 4750.017
421.6136, 4711.837
422.0958, 4717.403
422.5779, 4705.438
423.0600, 4692.755
423.5421, 4704.480
424.0242, 4671.227
424.5063, 4682.565
424.9885, 4674.557
425.4706, 4667.964
425.9527, 4647.769
426.4348, 4614.061
426.9169, 4580.090
427.3990, 4541.600
427.8812, 4508.716
428.3633, 4490.139
428.8454, 4491.256
429.3275, 4487.154
429.8096, 4474.912
430.2917, 4456.435
430.7739, 4436.740
431.2560, 4415.802
431.7381, 4393.297
432.2202, 4368.512
432.7023, 4341.650
433.1844, 4312.704
433.6666, 4280.029
434.1487, 4251.183
434.6308, 4237.927
435.1129, 4237.420
435.5950, 4237.356
436.0771, 4235.132
436.5593, 4229.443
437.0414, 4217.203
437.5235, 4198.772
438.0056, 4178.444
438.4877, 4153.558
438.9698, 4130.512
439.4520, 4119.180
439.9341, 4127.645
440.4162, 4137.223
440.8983, 4138.621
441.3804, 4132.180
441.8625, 4118.721
442.3447, 4088.787
442.8268, 4059.434
443.3089, 4038.764
443.7910, 4027.105
444.2731, 4025.699
444.7552, 4045.669
445.2374, 4071.913
445.7195, 4087.532
446.2016, 4080.406
446.6837, 4074.222
447.1658, 4073.727
447.6479, 4078.218
448.1301, 4078.823
448.6122, 4071.317
449.0943, 4065.006
449.5764, 4064.594
450.0585, 4068.991
450.5406, 4085.437
451.0227, 4123.618
451.5049, 4165.060
451.9870, 4164.825
452.4691, 4114.296
452.9512, 4076.283
453.4333, 4082.996
453.9154, 4127.590
454.3976, 4163.212
454.8797, 4189.120
455.3618, 4209.022
455.8439, 4226.436
456.3260, 4240.791
456.8081, 4248.576
457.2903, 4246.827
457.7724, 4240.784
458.2545, 4230.654
458.7366, 4219.720
459.2187, 4223.729
459.7008, 4266.371
460.1830, 4322.054
460.6651, 4364.388
461.1472, 4388.554
461.6293, 4403.286
462.1114, 4403.951
462.5935, 4400.237
463.0757, 4406.209
463.5578, 4443.220
464.0399, 4474.670
464.5220, 4480.957
465.0041, 4462.059
465.4862, 4456.480
465.9684, 4484.635
466.4505, 4518.391
466.9326, 4539.951
467.4147, 4542.157
467.8968, 4542.234
468.3789, 4539.169
468.8611, 4534.553
469.3432, 4531.686
469.8253, 4529.520
470.3074, 4531.646
470.7895, 4543.328
471.2716, 4565.319
471.7538, 4567.711
472.2359, 4545.415
472.7180, 4517.990
473.2001, 4507.384
473.6822, 4512.728
474.1643, 4517.471
474.6465, 4517.294
475.1286, 4515.042
475.6107, 4514.734
476.0928, 4516.691
476.5749, 4523.586
477.0570, 4549.658
477.5392, 4577.646
478.0213, 4574.857
478.5034, 4532.352
478.9855, 4492.042
479.4676, 4488.854
479.9497, 4508.252
480.4319, 4528.181
480.9140, 4543.604
481.3961, 4554.385
481.8782, 4563.737
482.3603, 4570.339
482.8424, 4563.572
483.3245, 4520.545
483.8066, 4476.940
484.2888, 4454.477
484.7709, 4468.960
485.2530, 4481.776
485.7351, 4489.195
486.2172, 4494.864
486.6993, 4506.356
487.1815, 4532.668
487.6636, 4548.281
488.1457, 4541.117
488.6278, 4512.276
489.1099, 4503.300
489.5920, 4520.547
490.0742, 4541.323
490.5563, 4544.839
491.0384, 4531.347
491.5205, 4520.995
492.0026, 4517.866
492.4847, 4516.706
492.9669, 4505.398
493.4490, 4485.978
493.9311, 4472.595
494.4132, 4476.891
494.8953, 4490.110
495.3774, 4501.275
495.8596, 4510.050
496.3417, 4510.509
496.8238, 4493.044
497.3059, 4466.391
497.7880, 4440.863
498.2701, 4413.796
498.7523, 4395.563
499.2344, 4395.788
499.7165, 4408.775
500.1986, 4419.391
500.6807, 4425.388
501.1628, 4426.530
501.6450, 4422.000
502.1271, 4410.347
502.6092, 4397.941
503.0913, 4379.582
503.5734, 4364.561
504.0555, 4362.815
504.5377, 4383.886
505.0198, 4396.788
505.5019, 4394.051
505.9840, 4381.412
506.4661, 4380.636
506.9482, 4394.593
507.4304, 4406.769
507.9125, 4406.318
508.3946, 4394.906
508.8767, 4389.288
509.3588, 4390.793
509.8409, 4392.201
510.3231, 4381.784
510.8052, 4364.387
511.2873, 4354.842
511.7694, 4364.311
512.2515, 4375.668
512.7336, 4365.015
513.2158, 4338.530
513.6979, 4319.756
514.1800, 4328.457
514.6621, 4345.239
515.1442, 4357.497
515.6263, 4364.241
516.1085, 4363.604
516.5906, 4343.008
517.0727, 4319.700
517.5548, 4311.918
518.0369, 4347.805
518.5190, 4369.853
519.0012, 4361.547
519.4833, 4331.266
519.9654, 4320.110
520.4475, 4341.634
520.9296, 4360.597
521.4117, 4357.220
521.8939, 4325.254
522.3760, 4314.018
522.8581, 4329.668
523.3402, 4351.259
523.8223, 4351.602
524.3044, 4331.966
524.7866, 4313.077
525.2687, 4298.000
525.7508, 4289.322
526.2329, 4293.943
526.7150, 4310.439
527.1971, 4329.515
527.6793, 4348.123
528.1614, 4365.027
528.6435, 4377.296
529.1256, 4384.131
529.6077, 4392.276
530.0898, 4412.593
530.5720, 4433.967
531.0541, 4443.644
531.5362, 4423.201
532.0182, 4406.766
532.5004, 4404.543
532.9825, 4414.009
533.4646, 4424.416
533.9467, 4428.782
534.4288, 4440.233
534.9109, 4466.204
535.3931, 4512.216
535.8752, 4544.029
536.3573, 4556.556
536.8394, 4562.416
537.3215, 4569.806
537.8036, 4576.708
538.2858, 4607.259
538.7679, 4674.556
539.2500, 4755.704
539.7321, 4795.201
540.2142, 4796.373
540.6964, 4796.079
541.1785, 4814.680
541.6606, 4845.355
542.1427, 4876.213
542.6248, 4907.198
543.1069, 4940.481
543.5891, 4979.872
544.0712, 5021.676
544.5533, 5060.583
545.0354, 5088.202
545.5175, 5124.702
545.9996, 5185.297
546.4818, 5260.266
546.9639, 5328.485
547.4460, 5387.609
547.9281, 5437.130
548.4102, 5472.662
548.8923, 5492.634
549.3745, 5525.567
549.8566, 5579.761
550.3387, 5636.358
550.8208, 5683.975
551.3029, 5722.551
551.7850, 5751.028
552.2672, 5766.522
552.7493, 5776.701
553.2314, 5793.488
553.7135, 5816.845
554.1956, 5844.601
554.6777, 5880.742
555.1599, 5917.819
555.6420, 5940.878
556.1241, 5950.878
556.6062, 5955.983
557.0883, 5960.029
557.5704, 5963.020
558.0526, 5968.972
558.5347, 5983.881
559.0168, 5979.690
559.4989, 5922.457
559.9810, 5845.528
560.4631, 5789.605
560.9453, 5779.871
561.4274, 5775.331
561.9095, 5776.792
562.3916, 5779.171
562.8737, 5758.063
563.3558, 5695.043
563.8380, 5635.942
564.3201, 5603.275
564.8022, 5600.573
565.2843, 5587.306
565.7664, 5562.851
566.2485, 5529.550
566.7307, 5483.003
567.2128, 5425.927
567.6949, 5385.436
568.1770, 5371.707
568.6591, 5368.344
569.1412, 5352.677
569.6234, 5327.323
570.1055, 5301.203
570.5876, 5277.250
571.0697, 5255.425
571.5518, 5237.039
572.0339, 5221.915
572.5161, 5203.693
572.9982, 5172.822
573.4803, 5142.439
573.9624, 5121.771
574.4445, 5120.031
574.9266, 5114.422
575.4088, 5103.499
575.8909, 5087.627
576.3730, 5064.895
576.8551, 5025.666
577.3372, 5001.208
577.8193, 5003.580
578.3015, 5024.881
578.7836, 5026.190
579.2657, 5003.946
579.7478, 4988.279
580.2299, 5006.335
580.7120, 5047.564
581.1942, 5070.482
581.6763, 5072.780
582.1584, 5064.596
582.6405, 5048.500
583.1226, 5030.009
583.6047, 5018.301
584.0869, 5017.104
584.5690, 5021.312
585.0511, 5032.763
585.5332, 5047.159
586.0153, 5055.298
586.4974, 5045.688
586.9796, 5037.690
587.4617, 5038.976
587.9438, 5050.290
588.4259, 5060.690
588.9080, 5070.352
589.3901, 5078.896
589.8723, 5086.458
590.3544, 5093.481
590.8365, 5095.537
591.3186, 5088.699
591.8007, 5072.194
592.2828, 5098.750
592.7650, 5116.345
593.2471, 5125.458
593.7292, 5100.693
594.2113, 5119.677
594.6934, 5121.127
595.1755, 5121.858
595.6577, 5147.000
596.1398, 5127.162
596.6219, 5151.916
597.1040, 5158.869
597.5861, 5173.969
598.0682, 5171.428
598.5503, 5174.336
599.0324, 5194.891
599.5145, 5205.674
599.9966, 5201.103
600.4788, 5216.722
600.9609, 5196.268
601.4430, 5207.468
601.9251, 5232.325
602.4072, 5228.641
602.8893, 5244.581
603.3715, 5253.048
603.8536, 5227.547
604.3357, 5261.119
604.8178, 5269.144
605.2999, 5250.938
605.7820, 5282.484
606.2642, 5281.162
606.7463, 5297.396
607.2284, 5308.961
607.7105, 5324.171
608.1926, 5358.213
608.6747, 5395.588
609.1569, 5418.203
609.6390, 5410.485
610.1211, 5407.591
610.6032, 5427.166
611.0853, 5458.314
611.5674, 5483.040
612.0496, 5493.282
612.5317, 5503.742
613.0138, 5516.549
613.4959, 5531.451
613.9780, 5547.795
614.4601, 5566.710
614.9423, 5583.542
615.4244, 5591.767
615.9065, 5592.791
616.3886, 5614.767
616.8707, 5660.390
617.3528, 5701.344
617.8350, 5694.323
618.3171, 5663.621
618.7992, 5663.971
619.2813, 5717.399
619.7634, 5777.488
620.2455, 5802.358
620.7277, 5809.317
621.2098, 5828.637
621.6919, 5894.824
622.1740, 5950.129
622.6561, 5967.441
623.1382, 5952.223
623.6204, 5950.695
624.1025, 5976.405
624.5846, 6000.030
625.0667, 6003.623
625.5488, 5982.169
626.0309, 6004.689
626.5131, 6083.552
626.9952, 6168.490
627.4773, 6207.634
627.9594, 6208.348
628.4415, 6216.403
628.9236, 6236.856
629.4058, 6271.300
629.8879, 6330.933
630.3700, 6405.326
630.8521, 6473.003
631.3342, 6519.332
631.8163, 6562.030
632.2985, 6607.739
632.7806, 6657.117
633.2627, 6713.335
633.7448, 6790.646
634.2269, 6862.141
634.7090, 6911.618
635.1912, 6935.336
635.6733, 6983.406
636.1554, 7064.977
636.6375, 7155.415
637.1196, 7235.003
637.6017, 7303.119
638.0839, 7378.217
638.5660, 7460.592
639.0481, 7550.417
639.5302, 7645.708
640.0123, 7747.238
640.4944, 7863.869
640.9766, 8002.611
641.4587, 8150.723
641.9408, 8305.645
642.4229, 8461.546
642.9050, 8608.481
643.3871, 8730.660
643.8693, 8852.044
644.3514, 8982.342
644.8335, 9122.806
645.3156, 9264.948
645.7977, 9413.501
646.2798, 9558.759
646.7620, 9696.507
647.2441, 9823.227
647.7262, 9956.704
648.2083, 10095.25
648.6904, 10239.13
649.1725, 10403.31
649.6547, 10578.62
650.1368, 10713.25
650.6189, 10790.01
651.1010, 10843.29
651.5831, 10912.40
652.0652, 10988.73
652.5474, 11054.23
653.0295, 11112.71
653.5116, 11147.67
653.9937, 11150.96
654.4758, 11123.26
654.9579, 11067.38
655.4401, 10953.86
655.9222, 10842.27
656.4043, 10759.55
656.8864, 10707.80
657.3685, 10622.73
657.8506, 10498.44
658.3328, 10351.52
658.8149, 10183.42
659.2970, 9995.186
659.7791, 9832.118
660.2612, 9698.476
660.7433, 9573.824
661.2255, 9427.780
661.7076, 9275.058
662.1897, 9147.810
662.6718, 9062.718
663.1539, 8989.169
663.6360, 8907.360
664.1181, 8821.652
664.6002, 8739.814
665.0823, 8654.755
665.5645, 8583.808
666.0466, 8539.854
666.5287, 8516.134
667.0108, 8480.905
667.4929, 8425.171
667.9750, 8376.572
668.4572, 8348.667
668.9393, 8339.791
669.4214, 8328.831
669.9035, 8314.831
670.3856, 8308.390
670.8677, 8328.139
671.3499, 8359.898
671.8320, 8366.907
672.3141, 8340.033
672.7962, 8326.760
673.2783, 8387.205
673.7604, 8470.849
674.2426, 8519.381
674.7247, 8478.808
675.2068, 8456.028
675.6889, 8484.621
676.1710, 8542.315
676.6531, 8590.997
677.1353, 8624.739
677.6174, 8661.666
678.0995, 8707.223
678.5816, 8758.470
679.0637, 8802.481
679.5458, 8839.585
680.0280, 8875.594
680.5101, 8914.263
680.9922, 8953.958
681.4743, 8990.220
681.9564, 9023.475
682.4385, 9061.917
682.9207, 9121.300
683.4028, 9180.725
683.8849, 9218.263
684.3670, 9226.549
684.8491, 9241.205
685.3312, 9283.845
685.8134, 9290.303
686.2955, 9329.854
686.7776, 9360.446
687.2597, 9382.559
687.7418, 9370.791
688.2239, 9402.770
688.7061, 9417.223
689.1882, 9430.950
689.6703, 9469.088
690.1524, 9462.248
690.6345, 9499.999
691.1166, 9519.947
691.5988, 9548.050
692.0809, 9558.504
692.5630, 9574.409
693.0451, 9607.961
693.5272, 9631.741
694.0093, 9640.164
694.4915, 9668.784
694.9736, 9661.325
695.4557, 9685.521
695.9378, 9728.291
696.4199, 9726.391
696.9020, 9724.879
697.3842, 9724.615
697.8663, 9722.566
698.3484, 9714.499
698.8305, 9701.681
699.3126, 9698.530
699.7947, 9707.700
700.2769, 9709.395
700.7590, 9671.329
701.2411, 9616.783
701.7232, 9584.258
702.2053, 9591.841
702.6874, 9600.150
703.1696, 9588.780
703.6517, 9566.836
704.1338, 9546.500
704.6159, 9521.425
705.0980, 9510.005
705.5801, 9523.951
706.0623, 9548.520
706.5444, 9548.726
707.0265, 9521.318
707.5086, 9486.505
707.9907, 9449.979
708.4728, 9411.458
708.9550, 9371.301
709.4371, 9328.834
709.9192, 9282.558
710.4013, 9219.249
710.8834, 9159.076
711.3655, 9127.038
711.8477, 9122.047
712.3298, 9110.436
712.8119, 9074.174
713.2940, 9031.518
713.7761, 8994.571
714.2582, 8967.658
714.7404, 8928.900
715.2225, 8879.852
715.7046, 8816.336
716.1867, 8720.729
716.6688, 8593.551
717.1509, 8515.817
717.6331, 8502.495
718.1152, 8504.206
718.5973, 8469.267
719.0794, 8407.515
719.5615, 8338.065
720.0436, 8259.731
720.5258, 8186.794
721.0079, 8134.633
721.4900, 8091.331
721.9721, 8037.167
722.4542, 7961.029
722.9363, 7881.052
723.4185, 7794.184
723.9006, 7706.346
724.3827, 7631.006
724.8648, 7566.796
725.3469, 7519.525
725.8290, 7501.392
726.3112, 7494.382
726.7933, 7440.649
727.2754, 7346.214
727.7575, 7256.464
728.2396, 7209.001
728.7217, 7171.888
729.2039, 7109.070
729.6859, 7022.548
730.1680, 6949.778
730.6501, 6916.782
731.1323, 6891.442
731.6144, 6857.799
732.0965, 6814.760
732.5786, 6767.919
733.0607, 6716.597
733.5428, 6663.619
734.0250, 6608.307
734.5071, 6551.244
734.9892, 6506.816
735.4713, 6476.723
735.9534, 6452.838
736.4355, 6434.500
736.9177, 6414.670
737.3998, 6378.551
737.8819, 6315.718
738.3640, 6257.257
738.8461, 6223.217
739.3282, 6200.968
739.8104, 6175.363
740.2925, 6135.385
740.7746, 6104.017
741.2567, 6084.432
741.7388, 6072.427
742.2209, 6062.313
742.7031, 6054.839
743.1852, 6041.842
743.6673, 6021.690
744.1494, 5993.892
744.6315, 5949.494
745.1136, 5895.677
745.5958, 5856.848
746.0779, 5851.262
746.5600, 5858.974
747.0421, 5880.814
747.5242, 5908.147
748.0063, 5906.614
748.4885, 5830.010
748.9706, 5764.418
749.4527, 5738.342
749.9348, 5747.729
750.4169, 5752.469
750.8990, 5752.093
751.3812, 5748.861
751.8633, 5743.325
752.3454, 5735.974
752.8275, 5729.526
753.3096, 5723.791
753.7917, 5714.112
754.2739, 5694.285
754.7560, 5670.763
755.2381, 5648.262
755.7202, 5626.476
756.2023, 5611.534
756.6844, 5612.097
757.1666, 5614.247
757.6487, 5607.854
758.1308, 5586.999
758.6129, 5580.862
759.0950, 5596.400
759.5771, 5610.282
760.0593, 5593.647
760.5414, 5552.683
761.0235, 5517.144
761.5056, 5489.421
761.9877, 5477.186
762.4698, 5516.104
762.9520, 5565.213
763.4341, 5565.729
763.9162, 5466.527
764.3983, 5380.031
764.8804, 5341.170
765.3625, 5331.669
765.8447, 5327.618
766.3268, 5332.015
766.8089, 5334.272
767.2910, 5331.758
767.7731, 5328.386
768.2552, 5335.773
768.7374, 5351.141
769.2195, 5353.500
769.7016, 5332.486
770.1837, 5301.382
770.6658, 5268.014
771.1479, 5236.511
771.6301, 5215.163
772.1122, 5212.766
772.5943, 5215.045
773.0764, 5223.040
773.5585, 5232.291
774.0406, 5226.233
774.5228, 5192.575
775.0049, 5173.437
775.4870, 5188.597
775.9691, 5223.863
776.4512, 5228.430
776.9333, 5204.769
777.4155, 5179.620
777.8976, 5170.158
778.3797, 5165.413
778.8618, 5151.184
779.3439, 5129.479
779.8260, 5112.508
780.3082, 5119.004
780.7903, 5118.355
781.2724, 5084.720
781.7545, 5020.600
782.2366, 4997.473
782.7188, 5035.157
783.2009, 5067.764
783.6830, 5052.946
784.1651, 5000.566
784.6472, 4972.928
785.1293, 4969.861
785.6115, 4975.043
786.0936, 4982.421
786.5757, 4988.202
787.0578, 4989.604
787.5399, 4986.415
788.0220, 4975.329
788.5042, 4942.081
788.9863, 4911.384
789.4684, 4899.522
789.9505, 4911.536
790.4326, 4915.485
790.9147, 4910.050
791.3969, 4899.884
791.8790, 4890.746
792.3611, 4880.615
792.8432, 4856.804
793.3253, 4817.285
793.8074, 4779.775
794.2896, 4763.010
794.7717, 4754.500
795.2537, 4741.194
795.7358, 4718.779
796.2180, 4698.402
796.7001, 4686.521
797.1822, 4674.997
797.6643, 4658.107
798.1464, 4635.597
798.6285, 4606.040
799.1107, 4564.057
799.5928, 4529.965
800.0749, 4538.041
800.5570, 4573.158
801.0391, 4586.442
801.5212, 4565.578
802.0034, 4539.539
802.4855, 4531.826
802.9676, 4530.540
803.4497, 4522.649
803.9318, 4503.570
804.4139, 4480.058
804.8961, 4447.183
805.3782, 4414.854
805.8603, 4395.150
806.3424, 4389.195
806.8245, 4386.801
807.3066, 4388.155
807.7888, 4388.174
808.2709, 4377.469
808.7530, 4360.494
809.2351, 4347.388
809.7172, 4341.933
810.1993, 4338.872
810.6815, 4336.447
811.1636, 4334.254
811.6457, 4331.790
812.1278, 4330.174
812.6099, 4326.293
813.0920, 4319.146
813.5742, 4310.505
814.0563, 4279.750
814.5384, 4293.713
815.0205, 4298.714
815.5026, 4295.235
815.9847, 4257.878
816.4669, 4264.266
816.9490, 4253.124
817.4311, 4241.262
817.9132, 4253.810
818.3953, 4221.378
818.8774, 4233.539
819.3596, 4227.897
819.8417, 4230.405
820.3238, 4215.271
820.8059, 4205.585
821.2880, 4208.612
821.7701, 4211.169
822.2523, 4216.839
822.7344, 4224.476
823.2165, 4227.800
823.6986, 4223.354
824.1807, 4216.851
824.6628, 4194.431
825.1450, 4212.985
825.6271, 4222.579
826.1092, 4223.691
826.5913, 4190.925
827.0734, 4201.906
827.5555, 4195.356
828.0377, 4188.086
828.5198, 4205.225
829.0019, 4177.386
829.4840, 4194.138
829.9661, 4193.090
830.4482, 4200.189
830.9304, 4189.647
831.4125, 4184.554
831.8946, 4197.107
832.3767, 4199.889
832.8588, 4187.316
833.3409, 4194.933
833.8231, 4166.478
834.3052, 4169.676
834.7873, 4175.830
835.2694, 4173.710
835.7515, 4172.087
836.2336, 4176.307
836.7158, 4185.434
837.1979, 4189.256
837.6800, 4182.677
838.1621, 4174.008
838.6442, 4170.740
839.1263, 4172.001
839.6085, 4176.194
840.0906, 4188.414
840.5727, 4196.574
841.0548, 4196.233
841.5369, 4191.249
842.0190, 4186.499
842.5012, 4181.208
842.9833, 4179.533
843.4654, 4182.200
843.9475, 4188.867
844.4296, 4201.319
844.9117, 4211.622
845.3939, 4238.241
845.8760, 4255.895
846.3581, 4265.070
846.8402, 4240.366
847.3223, 4259.410
847.8044, 4260.920
848.2866, 4261.715
848.7687, 4286.915
849.2508, 4267.139
849.7329, 4291.953
850.2150, 4298.967
850.6971, 4294.701
851.1793, 4328.792
851.6614, 4353.916
852.1435, 4370.561
852.6256, 4353.327
853.1077, 4379.841
853.5898, 4388.821
854.0720, 4397.087
854.5541, 4429.757
855.0362, 4417.450
855.5183, 4449.734
856.0004, 4464.219
856.4825, 4486.848
856.9647, 4491.842
857.4468, 4502.279
857.9289, 4530.364
858.4110, 4548.679
858.8931, 4551.638
859.3752, 4574.785
859.8574, 4561.866
860.3395, 4598.991
860.8216, 4617.814
861.3036, 4632.324
861.7858, 4644.124
862.2679, 4652.097
862.7500, 4659.035
863.2321, 4660.596
863.7142, 4669.482
864.1964, 4708.627
864.6785, 4769.773
865.1606, 4807.928
865.6427, 4815.679
866.1248, 4820.706
866.6069, 4848.311
867.0891, 4884.033
867.5712, 4912.774
868.0533, 4929.216
868.5354, 4948.011
869.0175, 4969.096
869.4996, 4994.524
869.9818, 5026.140
870.4639, 5064.290
870.9460, 5104.572
871.4281, 5147.608
871.9102, 5190.404
872.3923, 5232.490
872.8745, 5271.671
873.3566, 5303.832
873.8387, 5327.978
874.3208, 5354.256
874.8029, 5392.409
875.2850, 5428.589
875.7672, 5453.554
876.2493, 5466.101
876.7314, 5484.232
877.2135, 5506.792
877.6956, 5540.582
878.1777, 5596.899
878.6599, 5665.596
879.1420, 5725.729
879.6241, 5776.868
880.1062, 5821.104
880.5883, 5855.255
881.0704, 5886.701
881.5526, 5918.727
882.0347, 5951.456
882.5168, 5987.704
882.9989, 6030.363
883.4810, 6068.611
883.9631, 6091.330
884.4453, 6108.709
884.9274, 6164.658
885.4095, 6251.523
885.8916, 6326.539
886.3737, 6355.934
886.8558, 6373.740
887.3380, 6394.644
887.8201, 6422.397
888.3022, 6471.898
888.7843, 6566.648
889.2664, 6648.417
889.7485, 6698.947
890.2307, 6730.698
890.7128, 6776.355
891.1949, 6834.721
891.6770, 6888.191
892.1591, 6922.886
892.6412, 6962.431
893.1234, 7039.844
893.6055, 7137.474
894.0876, 7220.752
894.5697, 7273.288
895.0518, 7319.536
895.5339, 7357.059
896.0161, 7394.653
896.4982, 7445.875
896.9803, 7511.775
897.4624, 7580.796
897.9445, 7652.382
898.4266, 7724.854
898.9088, 7799.836
899.3909, 7874.026
899.8730, 7943.360
900.3551, 8003.771
900.8372, 8065.020
901.3193, 8122.964
901.8015, 8187.701
902.2836, 8273.184
902.7657, 8385.979
903.2478, 8473.858
903.7299, 8531.350
904.2120, 8579.819
904.6942, 8631.610
905.1763, 8691.771
905.6584, 8776.667
906.1405, 8890.097
906.6226, 8987.399
907.1047, 9027.095
907.5869, 9061.272
908.0690, 9123.964
908.5511, 9217.727
909.0332, 9303.037
909.5153, 9379.624
909.9974, 9449.014
910.4796, 9510.191
910.9617, 9565.302
911.4438, 9620.619
911.9259, 9674.974
912.4080, 9724.959
912.8901, 9759.545
913.3723, 9798.112
913.8544, 9855.308
914.3365, 9926.581
914.8186, 9987.402
915.3007, 10037.60
915.7828, 10076.75
916.2650, 10098.89
916.7471, 10115.79
917.2292, 10156.31
917.7113, 10213.46
918.1934, 10264.91
918.6755, 10298.02
919.1577, 10326.11
919.6398, 10356.74
920.1219, 10385.98
920.6040, 10404.65
921.0861, 10404.79
921.5682, 10417.04
922.0504, 10448.19
922.5325, 10486.55
923.0146, 10523.05
923.4967, 10552.23
923.9788, 10555.53
924.4609, 10521.35
924.9431, 10490.59
925.4252, 10492.50
925.9073, 10508.11
926.3894, 10520.01
926.8715, 10527.49
927.3536, 10527.91
927.8357, 10517.52
928.3178, 10509.63
928.7999, 10522.01
929.2820, 10545.73
929.7642, 10553.29
930.2463, 10543.14
930.7284, 10514.47
931.2105, 10456.42
931.6926, 10388.38
932.1747, 10318.22
932.6569, 10246.51
933.1390, 10195.64
933.6211, 10173.59
934.1032, 10151.28
934.5853, 10117.88
935.0674, 10074.15
935.5496, 10020.06
936.0317, 9955.798
936.5138, 9881.815
936.9959, 9774.053
937.4780, 9680.739
937.9601, 9652.431
938.4423, 9655.445
938.9244, 9597.709
939.4065, 9445.030
939.8886, 9313.229
940.3707, 9224.068
940.8528, 9158.027
941.3350, 9095.354
941.8171, 9030.340
942.2992, 8945.430
942.7813, 8829.850
943.2634, 8710.647
943.7455, 8587.271
944.2277, 8477.693
944.7098, 8406.036
945.1919, 8397.017
945.6740, 8345.269
946.1561, 8239.649
946.6382, 8126.557
947.1204, 8051.353
947.6025, 7998.631
948.0846, 7924.477
948.5667, 7828.035
949.0488, 7740.514
949.5309, 7697.046
950.0131, 7652.399
950.4952, 7573.953
950.9773, 7465.386
951.4594, 7370.387
951.9415, 7290.225
952.4236, 7218.615
952.9058, 7156.654
953.3879, 7096.869
953.8700, 7021.617
954.3521, 6936.021
954.8342, 6855.783
955.3163, 6798.536
955.7985, 6735.729
956.2806, 6646.197
956.7627, 6547.886
957.2448, 6473.694
957.7269, 6427.689
958.2090, 6383.392
958.6912, 6340.166
959.1733, 6287.623
959.6554, 6205.203
960.1375, 6107.485
960.6196, 6019.182
961.1017, 5946.110
961.5839, 5880.481
962.0660, 5818.704
962.5481, 5763.896
963.0302, 5723.484
963.5123, 5700.058
963.9944, 5639.961
964.4766, 5538.760
964.9587, 5451.377
965.4408, 5438.514
965.9229, 5447.492
966.4050, 5400.195
966.8871, 5308.063
967.3693, 5235.178
967.8514, 5227.624
968.3335, 5213.982
968.8156, 5171.129
969.2977, 5112.039
969.7798, 5076.104
970.2620, 5062.217
970.7441, 5040.475
971.2262, 4999.702
971.7083, 4953.638
972.1904, 4914.277
972.6725, 4880.701
973.1547, 4853.095
973.6368, 4840.928
974.1189, 4816.489
974.6010, 4769.253
975.0831, 4723.228
975.5652, 4700.954
976.0474, 4700.263
976.5295, 4707.476
977.0116, 4721.608
977.4937, 4722.091
977.9758, 4677.571
978.4579, 4625.869
978.9401, 4598.860
979.4222, 4597.847
979.9043, 4586.455
980.3864, 4558.011
980.8685, 4532.145
981.3506, 4516.591
981.8328, 4507.525
982.3149, 4494.847
982.7970, 4480.060
983.2791, 4469.470
983.7612, 4470.485
984.2433, 4469.793
984.7255, 4456.577
985.2076, 4439.634
985.6897, 4432.359
986.1718, 4437.744
986.6539, 4443.594
987.1360, 4450.247
987.6182, 4452.715
988.1003, 4440.135
988.5824, 4421.646
989.0645, 4417.195
989.5466, 4430.196
990.0287, 4432.977
990.5109, 4398.072
990.9930, 4366.637
991.4751, 4359.207
991.9572, 4373.478
992.4393, 4389.319
992.9214, 4406.923
993.4035, 4412.033
993.8856, 4383.633
994.3677, 4352.629
994.8499, 4360.440
995.3320, 4393.043
995.8141, 4420.766
996.2962, 4442.675
996.7783, 4446.855
997.2604, 4423.567
997.7426, 4393.400
998.2247, 4387.132
998.7068, 4400.926
999.1889, 4411.558
999.6710, 4415.592
1000.153, 4418.271
1000.635, 4425.159
1001.117, 4431.236
1001.599, 4430.942
1002.082, 4422.540
1002.564, 4420.256
1003.046, 4426.197
1003.528, 4431.660
1004.010, 4429.104
1004.492, 4424.859
1004.974, 4435.633
1005.456, 4458.685
1005.939, 4483.745
1006.421, 4513.842
1006.903, 4536.486
1007.385, 4542.540
1007.867, 4540.161
1008.349, 4540.341
1008.831, 4543.457
1009.313, 4542.819
1009.795, 4535.009
1010.278, 4537.139
1010.760, 4574.317
1011.242, 4628.469
1011.724, 4680.042
1012.206, 4727.152
1012.688, 4761.530
1013.170, 4775.592
1013.652, 4785.084
1014.135, 4794.407
1014.617, 4805.117
1015.099, 4825.165
1015.581, 4854.079
1016.063, 4888.769
1016.545, 4944.532
1017.027, 4988.195
1017.509, 4984.279
1017.991, 4957.725
1018.474, 4959.821
1018.956, 5008.659
1019.438, 5035.774
1019.920, 5028.353
1020.402, 5018.512
1020.884, 5055.865
1021.366, 5114.840
1021.848, 5141.824
1022.331, 5128.242
1022.813, 5117.993
1023.295, 5132.825
1023.777, 5151.917
1024.259, 5166.101
1024.741, 5175.848
1025.223, 5186.273
1025.705, 5197.295
1026.187, 5202.414
1026.670, 5190.982
1027.152, 5182.405
1027.634, 5202.713
1028.116, 5237.874
1028.598, 5262.251
1029.080, 5265.884
1029.562, 5266.459
1030.044, 5263.827
1030.526, 5259.670
1031.009, 5257.686
1031.491, 5255.563
1031.973, 5245.292
1032.455, 5226.437
1032.937, 5204.765
1033.419, 5181.009
1033.901, 5157.796
1034.383, 5136.696
1034.865, 5117.162
1035.348, 5098.720
1035.830, 5082.229
1036.312, 5055.174
1036.794, 5004.951
1037.276, 4957.505
1037.758, 4955.313
1038.240, 4974.293
1038.722, 4975.832
1039.205, 4938.223
1039.687, 4904.118
1040.169, 4877.406
1040.651, 4853.157
1041.133, 4829.436
1041.615, 4805.061
1042.097, 4774.732
1042.579, 4738.491
1043.062, 4698.678
1043.544, 4652.553
1044.026, 4607.536
1044.508, 4567.063
1044.990, 4530.854
1045.472, 4496.880
1045.954, 4464.223
1046.436, 4439.024
1046.918, 4425.251
1047.401, 4411.556
1047.883, 4377.172
1048.365, 4335.793
1048.847, 4309.077
1049.329, 4307.487
1049.811, 4297.059
1050.293, 4268.950
1050.775, 4238.378
1051.257, 4215.176
1051.740, 4196.839
1052.222, 4165.392
1052.704, 4124.294
1053.186, 4094.380
1053.668, 4100.118
1054.150, 4105.950
1054.632, 4094.997
1055.114, 4070.388
1055.597, 4034.370
1056.079, 3979.082
1056.561, 3959.396
1057.043, 3988.000
1057.525, 4018.425
1058.007, 3987.563
1058.489, 3936.666
1058.971, 3922.300
1059.453, 3951.739
1059.936, 3969.671
1060.418, 3959.840
1060.900, 3947.698
1061.382, 3942.582
1061.864, 3940.557
1062.346, 3928.855
1062.828, 3909.676
1063.310, 3891.115
1063.792, 3870.082
1064.275, 3861.303
1064.757, 3890.162
1065.239, 3923.534
1065.721, 3925.589
1066.203, 3889.630
1066.685, 3857.180
1067.167, 3827.470
1067.649, 3811.258
1068.132, 3829.362
1068.614, 3856.245
1069.096, 3867.007
1069.578, 3862.084
1070.060, 3846.148
1070.542, 3802.869
1071.024, 3784.494
1071.506, 3808.276
1071.989, 3846.106
1072.471, 3854.187
1072.953, 3839.722
1073.435, 3816.182
1073.917, 3782.418
1074.399, 3764.549
1074.881, 3788.510
1075.363, 3818.548
1075.845, 3835.157
1076.328, 3839.555
1076.810, 3846.594
1077.292, 3855.749
1077.774, 3852.908
1078.256, 3823.940
1078.738, 3790.471
1079.220, 3759.562
1079.702, 3740.183
1080.184, 3751.606
1080.667, 3818.055
1081.149, 3850.034
1081.631, 3840.027
1082.113, 3816.014
1082.595, 3800.664
1083.077, 3789.745
1083.559, 3773.984
1084.041, 3754.469
1084.524, 3742.000
1085.006, 3750.576
1085.488, 3752.598
1085.970, 3736.136
1086.452, 3715.335
1086.934, 3726.433
1087.416, 3760.558
1087.898, 3771.799
1088.380, 3746.952
1088.863, 3721.525
1089.345, 3722.927
1089.827, 3728.420
1090.309, 3716.847
1090.791, 3688.738
1091.273, 3688.976
1091.755, 3719.500
1092.237, 3740.394
1092.719, 3726.803
1093.202, 3701.900
1093.684, 3687.865
1094.166, 3680.966
1094.648, 3674.898
1095.130, 3670.702
1095.612, 3662.200
1096.094, 3647.166
1096.576, 3633.903
1097.058, 3633.898
1097.541, 3639.732
1098.023, 3634.371
1098.505, 3618.602
1098.987, 3603.361
1099.469, 3589.904
1099.951, 3582.133
1100.433, 3584.253
1100.915, 3589.047
1101.398, 3580.864
1101.880, 3561.991
1102.362, 3546.029
1102.844, 3535.575
1103.326, 3527.324
1103.808, 3522.468
1104.290, 3516.086
1104.772, 3500.891
1105.255, 3478.664
1105.737, 3476.683
1106.219, 3496.857
1106.701, 3504.393
1107.183, 3475.948
1107.665, 3444.299
1108.147, 3454.031
1108.629, 3480.314
1109.111, 3485.350
1109.594, 3449.190
1110.076, 3423.802
1110.558, 3411.094
1111.040, 3401.946
1111.522, 3388.886
1112.004, 3374.733
1112.486, 3365.217
1112.968, 3359.784
1113.450, 3355.887
1113.933, 3350.169
1114.415, 3350.080
1114.897, 3359.687
1115.379, 3371.333
1115.861, 3374.390
1116.343, 3370.244
1116.825, 3365.775
1117.307, 3361.816
1117.790, 3350.352
1118.272, 3303.449
1118.754, 3273.203
1119.236, 3296.798
1119.718, 3355.338
1120.200, 3377.930
1120.682, 3365.321
1121.164, 3340.971
1121.646, 3308.467
1122.129, 3275.882
1122.611, 3240.842
1123.093, 3215.036
1123.575, 3215.364
1124.057, 3245.424
1124.539, 3268.789
1125.021, 3286.875
1125.503, 3286.053
1125.985, 3238.093
1126.468, 3188.760
1126.950, 3211.647
1127.432, 3274.551
1127.914, 3315.323
1128.396, 3310.651
1128.878, 3295.136
1129.360, 3266.365
1129.842, 3234.453
1130.325, 3200.781
1130.807, 3173.314
1131.289, 3177.607
1131.771, 3207.924
1132.253, 3228.502
1132.735, 3215.088
1133.217, 3204.874
1133.699, 3206.632
1134.182, 3213.573
1134.664, 3217.534
1135.146, 3217.595
1135.628, 3206.787
1136.110, 3183.360
1136.592, 3167.520
1137.074, 3176.996
1137.556, 3189.811
1138.038, 3193.407
1138.521, 3191.779
1139.003, 3203.168
1139.485, 3225.976
1139.967, 3242.236
1140.449, 3246.682
1140.931, 3243.956
1141.413, 3232.435
1141.895, 3219.058
1142.377, 3211.769
1142.860, 3211.428
1143.342, 3197.826
1143.824, 3169.878
1144.306, 3151.041
1144.788, 3161.185
1145.270, 3176.664
1145.752, 3169.249
1146.234, 3152.678
1146.717, 3152.217
1147.199, 3182.045
1147.681, 3192.929
1148.163, 3181.098
1148.645, 3166.611
1149.127, 3168.643
1149.609, 3175.709
1150.091, 3168.732
1150.573, 3152.242
1151.056, 3144.498
1151.538, 3154.285
1152.020, 3164.840
1152.502, 3176.403
1152.984, 3183.365
1153.466, 3176.030
1153.948, 3160.016
1154.430, 3142.562
1154.912, 3125.159
1155.395, 3118.749
1155.877, 3139.518
1156.359, 3155.381
1156.841, 3156.793
1157.323, 3151.989
1157.805, 3161.667
1158.287, 3178.227
1158.769, 3176.314
1159.251, 3147.072
1159.734, 3125.936
1160.216, 3136.835
1160.698, 3150.364
1161.180, 3152.123
1161.662, 3146.147
1162.144, 3149.177
1162.626, 3159.486
1163.108, 3169.391
1163.591, 3179.174
1164.073, 3180.756
1164.555, 3161.422
1165.037, 3139.089
1165.519, 3127.305
1166.001, 3125.861
1166.483, 3127.402
1166.965, 3131.605
1167.448, 3134.546
1167.930, 3139.680
1168.412, 3136.380
1168.894, 3103.392
1169.376, 3066.569
1169.858, 3062.190
1170.340, 3095.964
1170.822, 3119.480
1171.304, 3131.743
1171.786, 3132.866
1172.269, 3109.776
1172.751, 3087.914
1173.233, 3091.053
1173.715, 3110.553
1174.197, 3122.486
1174.679, 3126.351
1175.161, 3122.106
1175.643, 3108.094
1176.126, 3098.281
1176.608, 3112.904
1177.090, 3131.736
1177.572, 3132.969
1178.054, 3118.589
1178.536, 3112.978
1179.018, 3118.477
1179.500, 3126.316
1179.983, 3135.969
1180.465, 3142.660
1180.947, 3132.717
1181.429, 3121.482
1181.911, 3134.631
1182.393, 3176.468
1182.875, 3185.339
1183.357, 3147.597
1183.839, 3114.304
1184.322, 3099.919
1184.804, 3101.221
1185.286, 3123.458
1185.768, 3154.019
1186.250, 3173.776
1186.732, 3176.546
1187.214, 3180.240
1187.696, 3190.804
1188.178, 3187.240
1188.661, 3149.116
1189.143, 3102.485
1189.625, 3095.876
1190.107, 3117.049
1190.589, 3143.979
1191.071, 3185.104
1191.553, 3194.764
1192.035, 3157.877
1192.518, 3121.809
1193.000, 3119.097
1193.482, 3138.599
1193.964, 3160.803
1194.446, 3184.107
1194.928, 3204.753
1195.410, 3224.430
1195.892, 3236.789
1196.375, 3243.316
1196.857, 3239.481
1197.339, 3208.476
1197.821, 3168.529
1198.303, 3172.683
1198.785, 3210.100
1199.267, 3230.040
1199.749, 3190.460
1200.231, 3166.246
1200.714, 3172.363
1201.196, 3187.971
1201.678, 3188.841
1202.160, 3180.417
1202.642, 3173.209
1203.124, 3168.894
1203.606, 3174.390
1204.088, 3209.382
1204.570, 3230.048
1205.053, 3222.535
1205.535, 3205.212
1206.017, 3202.039
1206.499, 3211.481
1206.981, 3238.167
1207.463, 3281.466
1207.945, 3301.748
1208.427, 3258.326
1208.910, 3221.403
1209.392, 3209.776
1209.874, 3214.024
1210.356, 3217.025
1210.838, 3221.894
1211.320, 3240.344
1211.802, 3276.761
1212.284, 3302.610
1212.766, 3302.311
1213.249, 3295.883
1213.731, 3289.087
1214.213, 3280.839
1214.695, 3265.185
1215.177, 3246.469
1215.659, 3235.341
1216.141, 3233.590
1216.623, 3243.899
1217.105, 3284.032
1217.588, 3310.945
1218.070, 3298.935
1218.552, 3265.719
1219.034, 3257.330
1219.516, 3268.995
1219.998, 3290.790
1220.480, 3330.425
1220.962, 3349.121
1221.445, 3326.661
1221.927, 3300.815
1222.409, 3293.690
1222.891, 3297.788
1223.373, 3286.382
1223.855, 3266.940
1224.337, 3260.253
1224.819, 3277.420
1225.301, 3302.009
1225.784, 3338.924
1226.266, 3368.743
1226.748, 3375.890
1227.230, 3366.090
1227.712, 3350.193
1228.194, 3332.281
1228.676, 3324.725
1229.158, 3339.380
1229.641, 3354.956
1230.123, 3370.756
1230.605, 3383.869
1231.087, 3389.716
1231.569, 3391.633
1232.051, 3401.235
1232.533, 3414.832
1233.015, 3419.296
1233.497, 3397.673
1233.979, 3385.094
1234.462, 3386.258
1234.944, 3393.546
1235.426, 3402.424
1235.908, 3410.888
1236.390, 3414.538
1236.872, 3413.858
1237.354, 3411.591
1237.836, 3403.608
1238.319, 3402.752
1238.801, 3411.806
1239.283, 3423.624
1239.765, 3432.800
1240.247, 3438.302
1240.729, 3434.757
1241.211, 3424.529
1241.693, 3422.348
1242.176, 3437.537
1242.658, 3445.468
1243.140, 3441.546
1243.622, 3434.472
1244.104, 3432.210
1244.586, 3434.038
1245.068, 3439.954
1245.550, 3449.393
1246.032, 3459.208
1246.515, 3470.710
1246.997, 3478.051
1247.479, 3480.260
1247.961, 3478.290
1248.443, 3469.538
1248.925, 3459.854
1249.407, 3452.398
1249.889, 3449.421
1250.371, 3465.696
1250.854, 3510.306
1251.336, 3533.530
1251.818, 3521.740
1252.300, 3502.996
1252.782, 3511.070
1253.264, 3525.133
1253.746, 3523.780
1254.228, 3506.908
1254.711, 3489.029
1255.193, 3468.139
1255.675, 3465.212
1256.157, 3487.449
1256.639, 3516.948
1257.121, 3550.169
1257.603, 3572.557
1258.085, 3561.118
1258.568, 3524.385
1259.050, 3508.136
1259.532, 3512.486
1260.014, 3529.287
1260.496, 3560.744
1260.978, 3582.823
1261.460, 3569.145
1261.942, 3545.740
1262.424, 3527.929
1262.906, 3517.418
1263.389, 3526.383
1263.871, 3551.917
1264.353, 3567.210
1264.835, 3562.849
1265.317, 3557.170
1265.799, 3560.509
1266.281, 3567.000
1266.763, 3574.693
1267.246, 3581.856
1267.728, 3582.153
1268.210, 3576.418
1268.692, 3565.780
1269.174, 3546.407
1269.656, 3539.383
1270.138, 3575.201
1270.620, 3600.329
1271.103, 3586.430
1271.585, 3548.907
1272.067, 3526.168
1272.549, 3517.692
1273.031, 3525.598
1273.513, 3556.972
1273.995, 3578.670
1274.477, 3579.083
1274.959, 3577.375
1275.442, 3581.947
1275.924, 3589.952
1276.406, 3600.239
1276.888, 3607.955
1277.370, 3601.273
1277.852, 3570.487
1278.334, 3553.735
1278.816, 3558.142
1279.298, 3559.382
1279.781, 3540.912
1280.263, 3521.747
1280.745, 3535.451
1281.227, 3564.881
1281.709, 3584.083
1282.191, 3588.311
1282.673, 3586.259
1283.155, 3576.537
1283.638, 3571.017
1284.120, 3577.688
1284.602, 3586.300
1285.084, 3587.484
1285.566, 3583.536
1286.048, 3576.154
1286.530, 3565.494
1287.012, 3554.959
1287.495, 3544.698
1287.977, 3546.517
1288.459, 3575.024
1288.941, 3597.653
1289.423, 3579.635
1289.905, 3555.433
1290.387, 3558.246
1290.869, 3584.193
1291.351, 3592.474
1291.833, 3584.258
1292.316, 3564.876
1292.798, 3525.210
1293.280, 3499.445
1293.762, 3504.982
1294.244, 3528.616
1294.726, 3574.464
1295.208, 3629.492
1295.690, 3641.486
1296.172, 3619.141
1296.655, 3584.245
1297.137, 3528.845
1297.619, 3500.427
1298.101, 3513.115
1298.583, 3533.304
1299.065, 3544.929
1299.547, 3549.120
1300.029, 3542.849
1300.512, 3532.196
1300.994, 3528.918
1301.476, 3539.060
1301.958, 3548.997
1302.440, 3561.008
1302.922, 3561.495
1303.404, 3535.670
1303.886, 3506.884
1304.369, 3507.896
1304.851, 3521.239
1305.333, 3522.161
1305.815, 3508.842
1306.297, 3489.312
1306.779, 3463.263
1307.261, 3461.109
1307.743, 3514.962
1308.225, 3560.517
1308.708, 3537.298
1309.190, 3493.953
1309.672, 3474.425
1310.154, 3476.189
1310.636, 3475.303
1311.118, 3473.301
1311.600, 3480.799
1312.082, 3512.660
1312.564, 3527.362
1313.047, 3489.176
1313.529, 3452.671
1314.011, 3451.556
1314.493, 3470.571
1314.975, 3462.057
1315.457, 3437.365
1315.939, 3425.181
1316.421, 3438.398
1316.904, 3448.468
1317.386, 3450.651
1317.868, 3454.316
1318.350, 3463.107
1318.832, 3477.094
##END=



