##NAMES=Aubertite
##RRUFFID=R060751
##IDEAL CHEMISTRY=Cu^2+^Al(S^6+^O_4_)_2_Cl&#183;14H_2_O
##LOCALITY=Quetena mine, Chuquicamata, Chile
##OWNER=RRUFF
##SOURCE=Bob Jenkins
##DESCRIPTION=Light green massive
##STATUS=The identification of this mineral has been made only by X-ray diffraction.
##URL=rruff.info/R060751
125.6485, 232.2217
126.1306, 250.2469
126.6127, 265.8656
127.0948, 281.7217
127.5770, 301.0074
128.0591, 325.2916
128.5412, 353.9959
129.0233, 384.0031
129.5054, 416.3417
129.9875, 448.8240
130.4697, 482.5694
130.9518, 515.8572
131.4339, 546.4733
131.9160, 573.2480
132.3981, 596.0935
132.8802, 614.2198
133.3624, 633.6932
133.8445, 641.4014
134.3266, 628.6121
134.8087, 602.3714
135.2908, 574.4354
135.7729, 552.8539
136.2551, 537.2567
136.7372, 519.8328
137.2193, 493.7674
137.7014, 472.9500
138.1835, 462.8613
138.6656, 461.5737
139.1478, 464.0130
139.6299, 466.6706
140.1120, 469.5488
140.5941, 474.4828
141.0762, 478.5497
141.5583, 486.7568
142.0405, 503.2935
142.5226, 526.5335
143.0047, 550.5035
143.4868, 570.4991
143.9689, 586.3680
144.4510, 605.8484
144.9332, 632.5895
145.4153, 659.3476
145.8974, 681.0338
146.3795, 698.1590
146.8616, 715.8845
147.3438, 739.2790
147.8259, 768.1685
148.3080, 790.7586
148.7901, 805.9039
149.2722, 815.7956
149.7543, 822.0858
150.2365, 824.8644
150.7186, 823.2189
151.2007, 816.0383
151.6828, 803.0610
152.1649, 786.6237
152.6470, 764.8746
153.1292, 740.8978
153.6113, 715.1934
154.0934, 687.6436
154.5755, 664.5516
155.0576, 651.7850
155.5397, 648.1277
156.0219, 648.3723
156.5040, 655.4764
156.9861, 664.2930
157.4682, 667.4630
157.9503, 663.5815
158.4324, 661.2546
158.9146, 669.2875
159.3967, 684.2169
159.8788, 698.1104
160.3609, 711.1371
160.8430, 721.2013
161.3251, 722.9566
161.8073, 713.7395
162.2894, 705.7794
162.7715, 708.6260
163.2536, 718.8714
163.7357, 731.6240
164.2178, 748.5701
164.7000, 766.0453
165.1821, 776.5629
165.6642, 778.3043
166.1463, 778.0371
166.6284, 778.2583
167.1105, 779.5254
167.5927, 783.2155
168.0748, 791.4796
168.5569, 802.0332
169.0390, 809.6467
169.5211, 813.1497
170.0032, 816.3865
170.4854, 820.0053
170.9675, 824.8577
171.4496, 832.7976
171.9317, 846.3684
172.4138, 862.8681
172.8959, 876.2551
173.3781, 887.9417
173.8602, 893.0199
174.3423, 882.8453
174.8244, 866.7271
175.3065, 858.8176
175.7886, 868.4283
176.2708, 889.1360
176.7529, 903.3298
177.2350, 908.5015
177.7171, 911.3293
178.1992, 913.6300
178.6813, 915.7305
179.1634, 918.0002
179.6456, 920.5189
180.1277, 923.4509
180.6098, 927.6068
181.0919, 934.4854
181.5740, 939.8304
182.0561, 941.4952
182.5383, 941.3818
183.0204, 941.5535
183.5025, 942.7351
183.9846, 945.2737
184.4667, 950.7219
184.9488, 962.0099
185.4310, 970.9316
185.9131, 975.9476
186.3952, 977.6240
186.8773, 976.6147
187.3594, 973.1840
187.8415, 967.3176
188.3237, 958.3672
188.8058, 943.6780
189.2879, 930.5941
189.7700, 920.6519
190.2521, 912.9171
190.7342, 906.9617
191.2164, 902.8825
191.6985, 899.1467
192.1806, 891.8926
192.6627, 879.2971
193.1448, 866.1044
193.6269, 852.2573
194.1091, 838.6758
194.5912, 826.2156
195.0733, 815.2189
195.5554, 805.3575
196.0375, 796.2564
196.5196, 788.9948
197.0018, 780.2361
197.4839, 768.9614
197.9660, 756.5995
198.4481, 743.7507
198.9302, 730.6752
199.4123, 718.6700
199.8945, 710.9599
200.3766, 712.2125
200.8587, 708.1623
201.3408, 694.0869
201.8229, 677.3989
202.3050, 662.9785
202.7872, 652.3676
203.2693, 645.4174
203.7514, 642.4764
204.2335, 646.1515
204.7156, 648.0229
205.1977, 648.2630
205.6799, 646.5393
206.1620, 641.8901
206.6441, 634.4442
207.1262, 626.0179
207.6083, 618.4813
208.0904, 610.5652
208.5726, 607.3027
209.0547, 612.8724
209.5368, 619.2791
210.0189, 620.6981
210.5010, 617.1844
210.9831, 614.0027
211.4653, 618.0873
211.9474, 632.4227
212.4295, 642.9466
212.9116, 647.9536
213.3937, 650.8899
213.8758, 652.2697
214.3580, 652.7750
214.8401, 653.7732
215.3222, 656.8696
215.8043, 662.5582
216.2864, 666.9886
216.7685, 667.9361
217.2507, 669.7198
217.7328, 675.4863
218.2149, 683.8244
218.6970, 690.3306
219.1791, 690.3532
219.6612, 683.5320
220.1434, 683.4017
220.6255, 697.3069
221.1076, 711.1346
221.5897, 720.7720
222.0718, 727.4095
222.5539, 734.0818
223.0361, 742.8466
223.5182, 753.5807
224.0003, 764.1915
224.4824, 775.7773
224.9645, 785.9634
225.4466, 791.7492
225.9288, 796.3317
226.4109, 805.1591
226.8930, 821.9465
227.3751, 843.9113
227.8572, 858.8229
228.3393, 857.0117
228.8215, 861.3233
229.3036, 880.0057
229.7857, 904.8131
230.2678, 925.6180
230.7499, 937.7052
231.2320, 945.5256
231.7142, 960.9564
232.1963, 991.6517
232.6784, 1016.631
233.1605, 1028.647
233.6426, 1037.104
234.1247, 1051.201
234.6069, 1073.746
235.0890, 1099.371
235.5711, 1117.913
236.0532, 1124.510
236.5353, 1135.762
237.0174, 1159.089
237.4996, 1182.898
237.9817, 1198.333
238.4638, 1204.245
238.9459, 1207.529
239.4280, 1216.935
239.9101, 1234.231
240.3923, 1251.261
240.8744, 1267.776
241.3565, 1283.930
241.8386, 1299.745
242.3207, 1315.303
242.8028, 1330.693
243.2850, 1345.402
243.7671, 1359.152
244.2492, 1376.082
244.7313, 1403.977
245.2134, 1427.697
245.6955, 1437.916
246.1777, 1438.857
246.6598, 1442.066
247.1419, 1457.983
247.6240, 1484.415
248.1061, 1500.136
248.5882, 1496.665
249.0704, 1493.342
249.5525, 1499.003
250.0346, 1508.993
250.5167, 1515.364
250.9988, 1513.201
251.4809, 1505.436
251.9631, 1500.441
252.4452, 1499.009
252.9273, 1498.869
253.4094, 1502.825
253.8915, 1506.157
254.3736, 1503.102
254.8558, 1490.980
255.3379, 1474.097
255.8200, 1458.701
256.3021, 1444.894
256.7842, 1432.373
257.2664, 1421.335
257.7485, 1411.462
258.2306, 1402.821
258.7127, 1395.483
259.1948, 1388.426
259.6769, 1380.016
260.1591, 1370.101
260.6412, 1362.330
261.1233, 1361.258
261.6054, 1358.882
262.0875, 1347.652
262.5696, 1328.007
263.0518, 1309.430
263.5339, 1300.269
264.0160, 1298.658
264.4981, 1293.269
264.9802, 1280.240
265.4623, 1267.531
265.9445, 1262.454
266.4266, 1262.755
266.9087, 1261.002
267.3908, 1252.931
267.8729, 1240.576
268.3550, 1227.523
268.8372, 1213.208
269.3193, 1200.377
269.8014, 1193.214
270.2835, 1188.735
270.7656, 1181.607
271.2477, 1168.653
271.7299, 1153.974
272.2120, 1142.762
272.6941, 1135.128
273.1762, 1126.122
273.6583, 1111.591
274.1404, 1094.973
274.6226, 1083.141
275.1047, 1078.796
275.5868, 1074.871
276.0689, 1067.511
276.5510, 1056.858
277.0331, 1043.088
277.5153, 1025.537
277.9974, 1005.750
278.4795, 984.9026
278.9616, 961.4246
279.4437, 943.5316
279.9258, 940.3542
280.4080, 943.3638
280.8901, 936.6666
281.3722, 915.8203
281.8543, 890.8988
282.3364, 874.1559
282.8185, 866.5257
283.3007, 856.1910
283.7828, 837.3604
284.2649, 818.1271
284.7470, 805.9516
285.2291, 801.2697
285.7112, 800.3666
286.1934, 801.9692
286.6755, 805.5973
287.1576, 800.5034
287.6397, 776.4430
288.1218, 754.3991
288.6039, 746.1227
289.0861, 748.2653
289.5682, 751.1295
290.0503, 749.3169
290.5324, 744.2001
291.0145, 741.6010
291.4966, 742.0440
291.9788, 744.1246
292.4609, 748.4189
292.9430, 753.9739
293.4251, 760.3444
293.9072, 767.3004
294.3893, 773.2699
294.8715, 775.2203
295.3536, 769.7443
295.8357, 766.5870
296.3178, 765.8515
296.7999, 767.1609
297.2820, 772.0157
297.7642, 779.5328
298.2463, 785.4738
298.7284, 784.9452
299.2105, 776.6121
299.6926, 771.0593
300.1747, 776.7667
300.6569, 776.7582
301.1390, 761.2761
301.6211, 735.4022
302.1032, 710.2579
302.5853, 693.0925
303.0674, 682.5847
303.5495, 672.1290
304.0316, 662.2131
304.5138, 651.5678
304.9959, 637.5001
305.4780, 623.6912
305.9601, 614.4128
306.4422, 611.3166
306.9243, 611.7740
307.4065, 612.4866
307.8886, 614.5726
308.3707, 612.6921
308.8528, 599.2741
309.3349, 586.2064
309.8170, 581.8365
310.2992, 586.4152
310.7813, 592.5718
311.2634, 592.8979
311.7455, 588.2154
312.2276, 588.1016
312.7097, 596.1566
313.1919, 604.6611
313.6740, 608.5638
314.1561, 609.1205
314.6382, 609.4037
315.1203, 608.4330
315.6024, 609.0673
316.0846, 618.9354
316.5667, 640.2599
317.0488, 657.5885
317.5309, 659.1452
318.0130, 652.2838
318.4951, 648.7864
318.9773, 649.5515
319.4594, 654.6915
319.9415, 667.6723
320.4236, 686.2053
320.9057, 700.5905
321.3878, 708.0115
321.8700, 708.9507
322.3521, 702.5029
322.8342, 687.7694
323.3163, 673.8202
323.7984, 662.5978
324.2805, 653.7899
324.7627, 648.2810
325.2448, 646.1566
325.7269, 642.9885
326.2090, 633.9307
326.6911, 618.2318
327.1732, 605.4376
327.6554, 599.4667
328.1375, 592.6481
328.6196, 578.4293
329.1017, 559.3577
329.5838, 543.5092
330.0659, 535.7357
330.5481, 534.4500
331.0302, 532.7292
331.5123, 530.2444
331.9944, 527.7164
332.4765, 526.8757
332.9586, 525.2659
333.4408, 519.9836
333.9229, 510.2463
334.4050, 497.7557
334.8871, 484.2665
335.3692, 467.4189
335.8513, 456.4364
336.3335, 457.1747
336.8156, 457.9019
337.2977, 451.2109
337.7798, 438.7380
338.2619, 427.4878
338.7440, 423.6497
339.2262, 426.1311
339.7083, 425.0241
340.1904, 418.6545
340.6725, 410.9237
341.1546, 401.1825
341.6367, 391.5297
342.1189, 384.9569
342.6010, 382.8739
343.0831, 382.6971
343.5652, 380.6562
344.0473, 376.5175
344.5294, 372.0640
345.0116, 366.6634
345.4937, 361.9801
345.9758, 359.6528
346.4579, 359.6908
346.9400, 359.9244
347.4221, 360.2957
347.9043, 359.8140
348.3864, 354.3677
348.8685, 341.5418
349.3506, 330.0273
349.8327, 329.3003
350.3148, 335.7196
350.7970, 338.5192
351.2791, 332.9294
351.7612, 325.3380
352.2433, 320.7504
352.7254, 318.7584
353.2076, 316.9589
353.6897, 313.9963
354.1718, 310.7919
354.6539, 310.0063
355.1360, 312.4064
355.6181, 314.9719
356.1003, 317.8634
356.5824, 320.2007
357.0645, 320.9679
357.5466, 319.9417
358.0287, 317.1998
358.5108, 312.3511
358.9930, 304.3626
359.4751, 300.3015
359.9572, 302.2141
360.4393, 305.3812
360.9214, 308.7404
361.4035, 311.6574
361.8857, 312.9132
362.3678, 311.5544
362.8499, 308.8412
363.3320, 309.5278
363.8141, 316.1591
364.2962, 322.2432
364.7784, 327.7648
365.2605, 332.0309
365.7426, 334.8689
366.2247, 336.0768
366.7068, 334.8099
367.1889, 326.9047
367.6711, 311.2232
368.1532, 307.7687
368.6353, 325.7443
369.1174, 346.4698
369.5995, 364.4876
370.0816, 377.8581
370.5638, 381.8268
371.0459, 369.4751
371.5280, 350.3311
372.0101, 340.9142
372.4922, 342.0846
372.9743, 344.7769
373.4565, 345.2403
373.9386, 345.1905
374.4207, 347.3504
374.9028, 352.3853
375.3849, 357.5121
375.8670, 361.4594
376.3492, 364.4247
376.8313, 366.6318
377.3134, 368.0642
377.7955, 369.2494
378.2776, 370.9576
378.7597, 373.2785
379.2419, 374.0278
379.7240, 372.0766
380.2061, 369.5343
380.6882, 365.8713
381.1703, 362.5069
381.6524, 363.8998
382.1346, 373.0756
382.6167, 386.4622
383.0988, 393.2588
383.5809, 384.9671
384.0630, 380.9464
384.5451, 385.3828
385.0273, 391.7377
385.5094, 394.4648
385.9915, 392.8613
386.4736, 390.1415
386.9557, 389.8976
387.4378, 392.3588
387.9200, 392.6816
388.4021, 385.6414
388.8842, 382.7426
389.3663, 391.8875
389.8484, 406.4827
390.3305, 415.5918
390.8127, 413.6861
391.2948, 407.1537
391.7769, 403.5472
392.2590, 402.0417
392.7411, 413.0823
393.2232, 455.4305
393.7054, 496.6081
394.1875, 502.5906
394.6696, 473.4569
395.1517, 443.7092
395.6338, 427.5968
396.1159, 422.5073
396.5981, 426.6711
397.0802, 440.4678
397.5623, 454.6641
398.0444, 463.6681
398.5265, 467.4766
399.0086, 468.2985
399.4908, 462.8954
399.9729, 458.1953
400.4550, 455.7851
400.9371, 456.0897
401.4192, 461.1934
401.9013, 471.8509
402.3835, 483.0879
402.8656, 486.8417
403.3477, 477.7843
403.8298, 477.8298
404.3119, 493.5645
404.7940, 510.9544
405.2762, 523.0814
405.7583, 530.7910
406.2404, 537.4944
406.7225, 545.0614
407.2046, 553.8869
407.6867, 565.3104
408.1689, 579.8049
408.6510, 596.0326
409.1331, 615.7755
409.6152, 635.7479
410.0973, 652.6288
410.5794, 666.1678
411.0616, 680.2946
411.5437, 697.2131
412.0258, 717.2859
412.5079, 742.8104
412.9900, 775.7450
413.4721, 809.5612
413.9543, 840.7322
414.4364, 869.4924
414.9185, 894.6017
415.4006, 910.9359
415.8827, 929.7628
416.3648, 960.7745
416.8470, 1001.198
417.3291, 1043.749
417.8112, 1086.957
418.2933, 1127.215
418.7754, 1158.500
419.2575, 1177.822
419.7397, 1197.448
420.2218, 1218.262
420.7039, 1238.905
421.1860, 1260.217
421.6681, 1280.862
422.1502, 1296.834
422.6324, 1305.168
423.1145, 1307.855
423.5966, 1314.189
424.0787, 1334.520
424.5608, 1341.642
425.0429, 1323.160
425.5251, 1298.121
426.0072, 1282.210
426.4893, 1277.399
426.9714, 1275.002
427.4535, 1268.011
427.9356, 1256.428
428.4178, 1240.270
428.8999, 1216.985
429.3820, 1194.052
429.8641, 1173.743
430.3462, 1156.500
430.8283, 1144.080
431.3105, 1138.795
431.7926, 1134.276
432.2747, 1124.019
432.7568, 1109.936
433.2389, 1098.937
433.7210, 1092.969
434.2032, 1089.934
434.6853, 1087.788
435.1674, 1086.626
435.6495, 1085.633
436.1316, 1084.226
436.6137, 1083.478
437.0959, 1083.778
437.5780, 1085.271
438.0601, 1088.837
438.5422, 1095.161
439.0243, 1102.246
439.5064, 1104.658
439.9886, 1097.690
440.4707, 1094.454
440.9528, 1098.596
441.4349, 1103.283
441.9170, 1102.271
442.3991, 1097.099
442.8813, 1095.086
443.3634, 1102.424
443.8455, 1116.951
444.3276, 1130.462
444.8097, 1142.710
445.2918, 1154.675
445.7740, 1168.571
446.2561, 1181.444
446.7382, 1189.666
447.2203, 1192.271
447.7024, 1194.134
448.1845, 1199.024
448.6667, 1205.126
449.1488, 1207.734
449.6309, 1205.938
450.1130, 1205.172
450.5951, 1210.974
451.0772, 1222.143
451.5594, 1226.830
452.0415, 1220.386
452.5236, 1213.422
453.0057, 1208.580
453.4878, 1205.605
453.9699, 1205.472
454.4521, 1208.030
454.9342, 1209.173
455.4163, 1203.149
455.8984, 1188.553
456.3805, 1174.819
456.8626, 1161.702
457.3448, 1149.905
457.8269, 1139.770
458.3090, 1131.106
458.7911, 1124.144
459.2732, 1119.391
459.7553, 1114.338
460.2375, 1104.884
460.7196, 1091.001
461.2017, 1076.703
461.6838, 1061.020
462.1659, 1047.585
462.6480, 1040.532
463.1302, 1038.771
463.6123, 1036.805
464.0944, 1036.955
464.5765, 1033.274
465.0586, 1016.760
465.5407, 990.8561
466.0229, 968.9614
466.5050, 956.8785
466.9871, 951.9643
467.4692, 949.7789
467.9513, 953.9623
468.4334, 952.8744
468.9156, 941.7965
469.3977, 929.6455
469.8798, 920.9691
470.3619, 916.1192
470.8440, 914.5203
471.3261, 916.1008
471.8083, 919.8171
472.2904, 923.5096
472.7725, 929.1968
473.2546, 929.2379
473.7367, 913.7119
474.2188, 897.9405
474.7010, 894.9431
475.1831, 903.6105
475.6652, 907.9896
476.1473, 895.7644
476.6294, 874.7255
477.1115, 857.4378
477.5937, 844.2521
478.0758, 832.6872
478.5579, 821.1069
479.0400, 810.7336
479.5221, 805.4808
480.0042, 809.1887
480.4864, 807.8849
480.9685, 796.2487
481.4506, 780.2629
481.9327, 764.1981
482.4148, 748.9821
482.8969, 735.0126
483.3791, 722.5298
483.8612, 711.4651
484.3433, 701.2855
484.8254, 693.1317
485.3075, 683.9274
485.7896, 671.8909
486.2718, 659.7025
486.7539, 650.9556
487.2360, 645.2415
487.7181, 637.1201
488.2002, 618.5759
488.6823, 594.5125
489.1645, 581.6215
489.6466, 582.1125
490.1287, 581.7411
490.6108, 573.0168
491.0929, 559.0226
491.5750, 546.1288
492.0572, 533.4425
492.5393, 524.2590
493.0214, 521.5582
493.5035, 521.9897
493.9856, 522.7125
494.4677, 522.9925
494.9499, 521.8405
495.4320, 518.4656
495.9141, 513.0336
496.3962, 506.4196
496.8783, 496.4918
497.3604, 488.4772
497.8426, 483.8930
498.3247, 480.5984
498.8068, 476.8106
499.2889, 472.3718
499.7710, 468.3235
500.2531, 465.3209
500.7353, 463.3969
501.2174, 463.1028
501.6995, 464.9384
502.1816, 466.3129
502.6637, 466.2411
503.1458, 464.9164
503.6280, 462.0069
504.1101, 456.3826
504.5922, 454.0225
505.0743, 462.5619
505.5564, 472.4601
506.0385, 470.1206
506.5207, 456.2856
507.0028, 443.8719
507.4849, 441.6104
507.9670, 447.4239
508.4491, 452.1947
508.9312, 453.4660
509.4134, 457.4354
509.8955, 469.2799
510.3776, 480.0948
510.8597, 481.6783
511.3418, 475.1526
511.8239, 468.8233
512.3061, 469.0987
512.7882, 473.5659
513.2703, 475.3586
513.7524, 473.8902
514.2346, 473.2842
514.7167, 475.4530
515.1988, 478.7807
515.6809, 481.6454
516.1630, 484.2018
516.6451, 484.6163
517.1273, 478.7511
517.6094, 473.1450
518.0915, 475.4585
518.5736, 484.0668
519.0557, 491.0228
519.5378, 491.9202
520.0200, 489.4345
520.5021, 490.0029
520.9842, 495.7009
521.4663, 500.5580
521.9484, 504.6273
522.4305, 507.9100
522.9127, 510.4519
523.3948, 512.2147
523.8769, 512.8586
524.3590, 511.8064
524.8411, 510.4587
525.3232, 511.3748
525.8054, 514.5392
526.2875, 517.3292
526.7696, 518.7574
527.2517, 520.2306
527.7338, 523.4319
528.2159, 528.1595
528.6981, 532.8641
529.1802, 537.7537
529.6623, 542.1547
530.1444, 546.8693
530.6265, 550.5936
531.1086, 550.5298
531.5908, 545.7754
532.0729, 538.2222
532.5550, 529.8436
533.0371, 519.8131
533.5192, 514.0597
534.0013, 518.7755
534.4835, 520.6268
534.9656, 513.0935
535.4477, 501.3095
535.9298, 492.4727
536.4119, 488.8038
536.8940, 486.3266
537.3762, 482.7480
537.8583, 477.4486
538.3404, 467.1055
538.8225, 450.6122
539.3046, 434.8955
539.7867, 424.5543
540.2689, 419.2015
540.7510, 416.7789
541.2331, 421.0616
541.7152, 422.7513
542.1973, 419.0304
542.6794, 412.5057
543.1616, 405.1423
543.6437, 397.4312
544.1258, 389.3949
544.6079, 380.8690
545.0900, 372.1902
545.5721, 364.9769
546.0543, 359.7789
546.5364, 354.5299
547.0185, 347.0656
547.5006, 340.6965
547.9827, 338.8430
548.4648, 341.1745
548.9469, 342.8927
549.4290, 342.5942
549.9111, 340.1625
550.3932, 334.0415
550.8754, 325.2811
551.3575, 318.4995
551.8396, 315.6035
552.3217, 314.8440
552.8038, 313.2451
553.2859, 309.8132
553.7681, 308.9919
554.2502, 312.0990
554.7323, 316.0023
555.2144, 321.3574
555.6965, 326.0901
556.1786, 326.5092
556.6608, 321.1509
557.1429, 314.4690
557.6250, 312.5883
558.1071, 314.6974
558.5892, 313.6118
559.0714, 307.5658
559.5535, 301.8440
560.0356, 299.9979
560.5177, 301.2049
560.9998, 302.4268
561.4819, 303.6486
561.9641, 304.8708
562.4462, 307.0724
562.9283, 308.6782
563.4104, 306.7654
563.8925, 302.0180
564.3746, 299.1243
564.8568, 301.9131
565.3389, 308.4610
565.8210, 310.6785
566.3031, 305.7744
566.7852, 303.6075
567.2673, 309.5466
567.7495, 315.7793
568.2316, 316.9523
568.7137, 313.8058
569.1958, 310.8174
569.6779, 309.8957
570.1600, 309.9202
570.6422, 308.8978
571.1243, 307.7453
571.6064, 310.4998
572.0885, 318.7537
572.5706, 327.6016
573.0527, 330.8983
573.5349, 327.9370
574.0170, 326.1704
574.4991, 324.7484
574.9812, 325.4462
575.4633, 331.2534
575.9454, 338.0803
576.4276, 340.7455
576.9097, 338.4120
577.3918, 335.6733
577.8739, 336.9614
578.3560, 341.1745
578.8381, 344.4355
579.3203, 346.4973
579.8024, 349.4239
580.2845, 354.8205
580.7666, 361.0333
581.2487, 364.8648
581.7308, 366.3117
582.2130, 366.2261
582.6951, 362.0871
583.1772, 358.8164
583.6593, 359.1740
584.1414, 363.0702
584.6235, 370.2136
585.1057, 380.4743
585.5878, 392.2238
586.0699, 403.1201
586.5520, 413.1094
587.0341, 422.6754
587.5162, 432.4839
587.9984, 440.9350
588.4805, 445.5707
588.9626, 448.6871
589.4447, 454.1165
589.9268, 462.8993
590.4089, 472.6611
590.8911, 482.5885
591.3732, 492.7001
591.8553, 501.8070
592.3374, 510.5778
592.8195, 522.9410
593.3016, 541.8570
593.7838, 565.0541
594.2659, 585.4293
594.7480, 600.2432
595.2301, 618.5225
595.7122, 646.6384
596.1943, 673.0962
596.6765, 690.1851
597.1586, 700.9700
597.6407, 713.5505
598.1228, 730.9711
598.6049, 750.8643
599.0870, 771.5129
599.5692, 792.9984
600.0513, 816.2491
600.5334, 841.5458
601.0155, 866.1277
601.4976, 887.9708
601.9797, 907.0318
602.4619, 922.9675
602.9440, 935.9196
603.4261, 945.2267
603.9082, 952.0562
604.3903, 954.3469
604.8724, 947.0702
605.3546, 933.0505
605.8367, 922.9037
606.3188, 923.5313
606.8009, 930.1425
607.2830, 939.2817
607.7651, 949.5429
608.2473, 947.5306
608.7294, 927.2828
609.2115, 904.2786
609.6936, 894.3264
610.1757, 897.5034
610.6578, 898.2302
611.1400, 896.4252
611.6221, 892.5513
612.1042, 885.7366
612.5863, 877.5015
613.0684, 867.8294
613.5505, 857.7916
614.0327, 851.5706
614.5148, 854.4431
614.9969, 861.6180
615.4790, 860.3015
615.9611, 850.0784
616.4432, 840.4885
616.9254, 833.8179
617.4075, 829.5902
617.8896, 827.4040
618.3717, 827.3094
618.8538, 829.2216
619.3359, 834.6556
619.8181, 840.3356
620.3002, 843.7339
620.7823, 847.3018
621.2644, 855.4435
621.7465, 868.1569
622.2286, 879.8437
622.7108, 885.2105
623.1929, 885.6440
623.6750, 886.0581
624.1571, 886.2634
624.6392, 887.6281
625.1213, 890.9891
625.6035, 895.2076
626.0856, 899.1060
626.5677, 902.7070
627.0498, 905.8276
627.5319, 908.8845
628.0140, 910.9631
628.4962, 913.2958
628.9783, 913.6457
629.4604, 907.4793
629.9425, 894.5308
630.4246, 880.5405
630.9067, 871.4157
631.3889, 866.0477
631.8710, 858.2249
632.3531, 847.7194
632.8352, 835.3496
633.3173, 819.7112
633.7994, 803.8093
634.2816, 791.6727
634.7637, 783.0663
635.2458, 772.5513
635.7279, 758.4630
636.2100, 742.9492
636.6921, 726.0832
637.1743, 709.0104
637.6564, 694.3273
638.1385, 682.1710
638.6206, 668.6385
639.1027, 649.2421
639.5848, 625.2265
640.0670, 604.5953
640.5491, 587.5701
641.0312, 573.1169
641.5133, 562.8735
641.9954, 553.3610
642.4775, 539.5352
642.9597, 521.9844
643.4418, 508.8026
643.9239, 503.0674
644.4060, 500.5930
644.8881, 502.9715
645.3702, 505.5853
645.8524, 500.7613
646.3345, 487.4218
646.8166, 470.9726
647.2987, 455.2697
647.7808, 441.4087
648.2629, 436.1279
648.7451, 442.3170
649.2272, 445.4949
649.7093, 440.2785
650.1914, 432.6344
650.6735, 428.5910
651.1556, 427.5299
651.6378, 424.9096
652.1199, 417.9668
652.6020, 411.5718
653.0841, 408.8650
653.5662, 407.6211
654.0483, 405.3368
654.5305, 401.3478
655.0126, 395.2914
655.4947, 386.1629
655.9768, 375.7103
656.4589, 370.5598
656.9410, 371.7780
657.4232, 371.5717
657.9053, 367.3819
658.3874, 362.7094
658.8695, 361.6489
659.3516, 363.0841
659.8337, 361.8959
660.3159, 353.5484
660.7980, 347.5784
661.2801, 350.2101
661.7622, 354.9139
662.2443, 354.4069
662.7264, 348.6951
663.2086, 342.5050
663.6907, 339.0387
664.1728, 336.8049
664.6549, 331.3215
665.1370, 322.3311
665.6191, 319.6161
666.1013, 327.5096
666.5834, 335.0446
667.0655, 332.8889
667.5476, 323.5726
668.0297, 318.5692
668.5118, 320.7706
668.9940, 322.5486
669.4761, 322.2170
669.9582, 321.1121
670.4403, 319.4673
670.9224, 318.0089
671.4045, 318.8823
671.8867, 323.5734
672.3688, 327.8586
672.8509, 323.8233
673.3330, 313.1187
673.8151, 308.8301
674.2972, 313.4545
674.7794, 316.6607
675.2615, 311.1822
675.7436, 301.0135
676.2257, 296.7165
676.7078, 301.3631
677.1899, 305.2059
677.6721, 307.5819
678.1542, 309.5395
678.6363, 312.0345
679.1184, 314.3358
679.6005, 314.6035
680.0826, 312.2592
680.5648, 310.5872
681.0469, 313.5447
681.5290, 319.2523
682.0111, 323.8236
682.4932, 327.0020
682.9753, 327.4289
683.4575, 323.9922
683.9396, 319.2472
684.4217, 317.3773
684.9038, 319.3263
685.3859, 319.1710
685.8680, 315.4243
686.3502, 311.3167
686.8323, 307.0427
687.3144, 303.1282
687.7965, 299.5559
688.2786, 296.5380
688.7607, 295.7830
689.2429, 300.9820
689.7250, 306.8537
690.2071, 306.4402
690.6892, 301.6827
691.1713, 298.0028
691.6534, 296.9236
692.1356, 298.0967
692.6177, 301.6076
693.0998, 306.9881
693.5819, 309.9640
694.0640, 309.8019
694.5461, 308.8144
695.0283, 305.5721
695.5104, 303.3222
695.9925, 305.5594
696.4746, 310.8634
696.9567, 313.7876
697.4388, 311.7971
697.9210, 308.9489
698.4031, 306.5938
698.8852, 305.0572
699.3673, 305.1982
699.8494, 306.7024
700.3315, 307.9294
700.8137, 307.7885
701.2958, 307.2422
701.7779, 308.3318
702.2600, 311.1241
702.7421, 314.2187
703.2242, 317.6226
703.7064, 321.0426
704.1885, 324.7673
704.6706, 328.1915
705.1527, 330.0110
705.6348, 330.3341
706.1169, 328.9181
706.5991, 323.9254
707.0812, 318.9774
707.5633, 315.6631
708.0454, 314.0819
708.5275, 314.9590
709.0096, 318.2929
709.4918, 320.7904
709.9739, 317.2877
710.4560, 311.0731
710.9381, 311.7386
711.4202, 318.9302
711.9023, 324.4319
712.3845, 325.2642
712.8666, 323.5938
713.3487, 321.8920
713.8308, 320.1492
714.3129, 318.5956
714.7950, 318.0050
715.2772, 316.5289
715.7593, 310.2349
716.2414, 305.8006
716.7235, 311.4291
717.2056, 324.7098
717.6877, 333.3706
718.1699, 330.4835
718.6520, 324.1993
719.1341, 319.7603
719.6162, 316.8208
720.0983, 315.0260
720.5804, 314.1939
721.0626, 313.7129
721.5447, 313.1046
722.0268, 312.8978
722.5089, 315.2895
722.9910, 321.3087
723.4731, 322.0300
723.9553, 313.1050
724.4374, 306.1770
724.9195, 310.1222
725.4016, 319.5469
725.8837, 322.7514
726.3658, 317.0855
726.8480, 314.3344
727.3301, 321.2072
727.8122, 326.9235
728.2943, 323.5065
728.7764, 315.1517
729.2585, 308.5511
729.7407, 305.6748
730.2228, 305.1047
730.7049, 307.5830
731.1870, 310.6576
731.6691, 307.2296
732.1512, 298.1839
732.6334, 292.2191
733.1155, 292.0836
733.5976, 294.0927
734.0797, 294.4115
734.5618, 293.2968
735.0439, 294.3272
735.5261, 300.2286
736.0082, 303.6962
736.4903, 302.0916
736.9724, 299.6125
737.4545, 298.8490
737.9366, 299.3096
738.4188, 299.4201
738.9009, 299.0168
739.3830, 297.5700
739.8651, 294.5095
740.3472, 290.4286
740.8293, 283.5924
741.3115, 276.2647
741.7936, 276.8628
742.2757, 289.4173
742.7578, 303.4384
743.2399, 301.2706
743.7220, 284.5893
744.2042, 278.2033
744.6863, 284.3871
745.1684, 289.6816
745.6505, 288.2346
746.1326, 284.5234
746.6147, 285.1755
747.0969, 291.0866
747.5790, 292.7285
748.0611, 285.5490
748.5432, 280.2599
749.0253, 282.1636
749.5074, 284.9229
749.9896, 281.7278
750.4717, 273.6151
750.9538, 267.4009
751.4359, 267.0425
751.9180, 268.3077
752.4001, 266.4854
752.8823, 263.7950
753.3644, 265.1607
753.8465, 270.5494
754.3286, 275.8344
754.8107, 278.6358
755.2928, 279.5840
755.7750, 279.9892
756.2571, 279.9783
756.7392, 277.8283
757.2213, 272.4005
757.7034, 267.6252
758.1855, 265.3328
758.6677, 264.4948
759.1498, 263.5239
759.6319, 262.3389
760.1140, 261.8341
760.5961, 262.5613
761.0782, 263.4070
761.5604, 264.5509
762.0425, 265.2141
762.5246, 263.7206
763.0067, 260.6588
763.4888, 259.4986
763.9709, 263.5398
764.4531, 267.9438
764.9352, 266.6633
765.4173, 261.4690
765.8994, 255.9896
766.3815, 251.0211
766.8636, 247.7385
767.3458, 246.8236
767.8279, 248.2766
768.3100, 253.0544
768.7921, 262.3868
769.2742, 267.0199
769.7563, 264.2832
770.2385, 262.2747
770.7206, 265.2519
771.2027, 270.3524
771.6848, 273.9827
772.1669, 276.2646
772.6490, 275.9082
773.1312, 269.8768
773.6133, 264.6217
774.0954, 262.7355
774.5775, 262.8018
775.0596, 263.8448
775.5417, 265.3298
776.0239, 266.2814
776.5060, 266.1457
776.9881, 265.3006
777.4702, 264.0886
777.9523, 262.5098
778.4344, 260.4435
778.9166, 257.9466
779.3987, 254.9821
779.8808, 251.3107
780.3629, 248.8329
780.8450, 252.6646
781.3271, 264.1759
781.8093, 267.1722
782.2914, 258.0179
782.7735, 250.0316
783.2556, 248.6324
783.7377, 250.4734
784.2198, 251.4418
784.7020, 251.4973
785.1841, 252.4300
785.6662, 256.2162
786.1483, 258.4181
786.6304, 256.5810
787.1125, 253.6730
787.5947, 252.3184
788.0768, 252.2711
788.5589, 251.5144
789.0410, 248.5980
789.5231, 246.7399
790.0052, 250.9805
790.4874, 256.8378
790.9695, 255.5603
791.4516, 248.5848
791.9337, 244.5823
792.4158, 247.2745
792.8979, 253.4281
793.3801, 259.6132
793.8622, 265.5138
794.3443, 267.5052
794.8264, 265.0113
795.3085, 261.9945
795.7906, 258.8521
796.2728, 257.1845
796.7549, 259.3087
797.2370, 264.6881
797.7191, 267.4658
798.2012, 267.6725
798.6833, 265.1035
799.1655, 254.8685
799.6476, 246.6864
800.1297, 247.9695
800.6118, 254.7943
801.0939, 259.2000
801.5760, 258.9856
802.0582, 259.0850
802.5403, 263.6640
803.0224, 268.1388
803.5045, 267.5643
803.9866, 263.9921
804.4688, 261.7204
804.9509, 261.7164
805.4330, 261.7570
805.9151, 259.6603
806.3972, 256.7949
806.8793, 256.3623
807.3615, 258.0397
807.8436, 259.5818
808.3257, 260.6488
808.8078, 260.8022
809.2899, 259.5452
809.7720, 257.6155
810.2542, 256.9493
810.7363, 257.9452
811.2184, 258.7074
811.7005, 258.8128
812.1826, 259.3740
812.6647, 260.6939
813.1469, 262.7798
813.6290, 266.3002
814.1111, 271.2164
814.5932, 274.0199
815.0753, 272.5170
815.5574, 270.9515
816.0396, 270.8649
816.5217, 271.2659
817.0038, 271.3743
817.4859, 271.1083
817.9680, 270.2900
818.4501, 268.4586
818.9323, 267.9290
819.4144, 272.0995
819.8965, 278.0314
820.3786, 281.3797
820.8607, 282.2483
821.3428, 282.1393
821.8250, 281.5934
822.3071, 280.0545
822.7892, 276.4272
823.2713, 271.5415
823.7534, 269.0356
824.2355, 268.9781
824.7177, 269.5578
825.1998, 270.4038
825.6819, 271.9323
826.1640, 274.8193
826.6461, 278.3634
827.1282, 280.2427
827.6104, 280.7188
828.0925, 278.8695
828.5746, 271.9139
829.0567, 266.0494
829.5388, 262.8958
830.0209, 262.3430
830.5031, 265.5841
830.9852, 272.5676
831.4673, 276.5940
831.9494, 272.4780
832.4315, 269.4832
832.9136, 273.6375
833.3958, 279.3799
833.8779, 280.8592
834.3600, 278.5384
834.8421, 276.1233
835.3242, 275.2419
835.8063, 274.7814
836.2885, 273.0130
836.7706, 271.3654
837.2527, 272.9731
837.7348, 276.9576
838.2169, 279.6836
838.6990, 279.9373
839.1812, 278.9888
839.6633, 277.6293
840.1454, 276.5937
840.6275, 279.7133
841.1096, 287.1321
841.5917, 290.4198
842.0739, 287.1136
842.5560, 284.9068
843.0381, 290.4069
843.5202, 298.7329
844.0023, 296.3857
844.4844, 276.8723
844.9666, 268.8847
845.4487, 281.9503
845.9308, 292.3304
846.4129, 286.9117
846.8950, 278.7771
847.3771, 282.8197
847.8593, 297.8656
848.3414, 306.8845
848.8235, 302.6635
849.3056, 298.8380
849.7877, 301.2301
850.2698, 303.4775
850.7520, 299.3048
851.2341, 291.3200
851.7162, 285.2169
852.1983, 282.5678
852.6804, 284.0227
853.1625, 293.4644
853.6447, 304.3054
854.1268, 310.0790
854.6089, 311.7256
855.0910, 310.9089
855.5731, 308.4882
856.0552, 305.9117
856.5374, 303.7420
857.0195, 303.4965
857.5016, 310.0907
857.9837, 321.2310
858.4658, 326.3052
858.9479, 324.4141
859.4301, 319.9906
859.9122, 314.6758
860.3943, 310.7727
860.8764, 312.2698
861.3585, 318.8467
861.8406, 321.1528
862.3228, 317.4997
862.8049, 316.5553
863.2870, 321.9386
863.7691, 327.0563
864.2512, 326.1336
864.7333, 321.0018
865.2155, 318.3113
865.6976, 319.2338
866.1797, 320.1543
866.6618, 322.7481
867.1439, 323.3507
867.6260, 316.6540
868.1082, 309.8570
868.5903, 313.1282
869.0724, 326.0714
869.5545, 334.7027
870.0366, 334.2736
870.5187, 330.4351
871.0009, 321.1488
871.4830, 312.8267
871.9651, 312.2793
872.4472, 317.2524
872.9293, 322.0662
873.4114, 324.9024
873.8936, 325.9033
874.3757, 324.7733
874.8578, 322.2105
875.3399, 317.3762
875.8220, 312.1970
876.3041, 311.1957
876.7863, 314.6337
877.2684, 318.9886
877.7505, 322.4976
878.2326, 323.1464
878.7147, 314.4223
879.1968, 300.0641
879.6790, 295.2564
880.1611, 300.3049
880.6432, 306.2299
881.1253, 309.5755
881.6074, 309.5156
882.0895, 303.8446
882.5717, 294.3401
883.0538, 294.0857
883.5359, 305.1853
884.0180, 308.7377
884.5001, 299.1405
884.9822, 290.2180
885.4644, 291.6310
885.9465, 298.6881
886.4286, 301.0454
886.9107, 297.4311
887.3928, 294.6481
887.8749, 290.6459
888.3571, 290.9612
888.8392, 304.3902
889.3213, 316.2181
889.8034, 309.7493
890.2855, 289.9810
890.7676, 279.9574
891.2498, 285.8322
891.7319, 293.1384
892.2140, 304.4294
892.6961, 311.8133
893.1782, 308.6180
893.6603, 300.3758
894.1425, 293.8687
894.6246, 290.1975
895.1067, 288.8261
895.5888, 291.2432
896.0709, 293.8545
896.5530, 295.5371
897.0352, 295.8557
897.5173, 292.9537
897.9994, 288.5009
898.4815, 286.6064
898.9636, 288.7446
899.4457, 292.3963
899.9279, 297.7607
900.4100, 301.7635
900.8921, 298.5709
901.3742, 291.6690
901.8563, 288.1770
902.3384, 289.3008
902.8206, 293.4449
903.3027, 300.1382
903.7848, 306.0303
904.2669, 304.5724
904.7490, 298.5207
905.2311, 296.7203
905.7133, 299.0957
906.1954, 301.9755
906.6775, 304.1469
907.1596, 306.3938
907.6417, 310.2429
908.1238, 313.4118
908.6060, 305.7159
909.0881, 287.0200
909.5702, 279.3933
910.0523, 286.5588
910.5344, 293.6813
911.0165, 293.1636
911.4987, 290.5034
911.9808, 294.5992
912.4629, 305.2520
912.9450, 306.4641
913.4271, 294.1314
913.9092, 285.4139
914.3914, 283.8520
914.8735, 285.2952
915.3556, 287.5379
915.8377, 290.6148
916.3198, 295.2694
916.8019, 303.6259
917.2841, 305.3937
917.7662, 291.7179
918.2483, 284.0079
918.7304, 291.8913
919.2125, 303.4936
919.6946, 311.3398
920.1768, 315.1998
920.6589, 314.4909
921.1410, 306.4142
921.6231, 299.9326
922.1052, 295.4201
922.5873, 293.8056
923.0695, 298.8720
923.5516, 304.8769
924.0337, 304.0591
924.5158, 296.9385
924.9979, 291.9617
925.4800, 291.6231
925.9622, 293.8623
926.4443, 299.1814
926.9264, 305.5012
927.4085, 312.4077
927.8906, 318.5734
928.3727, 322.6729
928.8549, 324.1974
929.3370, 321.7777
929.8191, 310.0885
930.3012, 299.4663
930.7833, 298.6081
931.2654, 302.5812
931.7476, 305.6946
932.2297, 307.8830
932.7118, 311.5159
933.1939, 317.4369
933.6760, 323.0423
934.1581, 326.2549
934.6403, 327.7519
935.1224, 326.9158
935.6045, 325.5279
936.0866, 327.5604
936.5687, 333.0458
937.0508, 339.1680
937.5330, 344.4357
938.0151, 349.5696
938.4972, 356.2253
938.9793, 363.1184
939.4614, 366.8979
939.9435, 368.1962
940.4257, 369.5319
940.9078, 371.5308
941.3899, 373.8800
941.8720, 376.3453
942.3541, 379.1179
942.8362, 383.6106
943.3184, 388.8771
943.8005, 388.1334
944.2826, 381.8793
944.7647, 380.6863
945.2468, 387.8753
945.7289, 398.3687
946.2111, 407.8369
946.6932, 416.6061
947.1753, 426.0649
947.6574, 436.2107
948.1395, 443.9959
948.6216, 449.1967
949.1038, 451.7449
949.5859, 450.9410
950.0680, 450.9647
950.5501, 457.0023
951.0322, 467.5465
951.5143, 474.0299
951.9965, 475.4372
952.4786, 479.7443
952.9607, 488.6443
953.4428, 496.6345
953.9249, 500.7838
954.4070, 503.4788
954.8892, 507.7075
955.3713, 513.4821
955.8534, 522.0988
956.3355, 535.7166
956.8176, 544.9930
957.2997, 546.3482
957.7819, 548.6471
958.2640, 557.7878
958.7461, 569.4357
959.2282, 576.0127
959.7103, 576.9386
960.1924, 581.5568
960.6746, 592.0350
961.1567, 601.8936
961.6388, 610.2328
962.1209, 617.6085
962.6030, 622.7334
963.0851, 627.8961
963.5673, 638.0649
964.0494, 654.3316
964.5315, 669.7727
965.0136, 684.1683
965.4957, 698.0629
965.9778, 709.7977
966.4600, 722.8362
966.9421, 741.2662
967.4242, 762.2975
967.9063, 777.9362
968.3884, 783.9711
968.8705, 800.8931
969.3527, 840.1755
969.8348, 876.5075
970.3169, 901.1686
970.7990, 922.7974
971.2811, 946.8242
971.7632, 973.3202
972.2454, 1001.210
972.7275, 1029.614
973.2096, 1062.323
973.6917, 1102.868
974.1738, 1144.357
974.6559, 1174.285
975.1381, 1212.473
975.6202, 1281.929
976.1023, 1374.255
976.5844, 1457.253
977.0665, 1516.025
977.5486, 1598.198
978.0308, 1722.254
978.5129, 1861.833
978.9950, 1999.952
979.4771, 2151.840
979.9592, 2330.618
980.4413, 2536.719
980.9235, 2769.514
981.4056, 3032.136
981.8877, 3309.345
982.3698, 3585.776
982.8519, 3887.980
983.3340, 4233.986
983.8162, 4613.332
984.2983, 5002.414
984.7804, 5411.837
985.2625, 5886.370
985.7446, 6455.355
986.2267, 7039.152
986.7089, 7630.181
987.1910, 8208.199
987.6731, 8807.419
988.1552, 9356.922
988.6373, 9776.301
989.1194, 10061.43
989.6016, 10249.03
990.0837, 10373.75
990.5658, 10331.44
991.0479, 10063.36
991.5300, 9631.027
992.0121, 9014.213
992.4943, 8296.727
992.9764, 7538.085
993.4585, 6765.375
993.9406, 6019.494
994.4227, 5305.295
994.9048, 4654.613
995.3870, 4084.711
995.8691, 3579.799
996.3512, 3138.035
996.8333, 2752.281
997.3154, 2416.976
997.7975, 2128.217
998.2797, 1878.882
998.7618, 1667.479
999.2439, 1492.042
999.7260, 1362.743
1000.208, 1255.884
1000.690, 1161.286
1001.172, 1076.423
1001.654, 1001.476
1002.137, 934.7718
1002.619, 871.4323
1003.101, 807.8900
1003.583, 753.1814
1004.065, 713.5578
1004.547, 681.6117
1005.029, 655.5300
1005.511, 632.3924
1005.994, 609.0822
1006.476, 585.7792
1006.958, 564.2881
1007.440, 544.9656
1007.922, 528.8918
1008.404, 517.3998
1008.886, 508.4043
1009.368, 502.0841
1009.850, 496.4568
1010.333, 489.0744
1010.815, 480.1780
1011.297, 471.7316
1011.779, 464.3109
1012.261, 457.3027
1012.743, 449.0123
1013.225, 442.6195
1013.707, 441.5324
1014.190, 442.3502
1014.672, 441.6511
1015.154, 439.2658
1015.636, 436.2003
1016.118, 432.6482
1016.600, 428.8277
1017.082, 422.1205
1017.564, 418.3647
1018.046, 424.1180
1018.529, 431.7471
1019.011, 431.0435
1019.493, 425.4129
1019.975, 427.3704
1020.457, 441.2808
1020.939, 455.1662
1021.421, 468.4654
1021.903, 476.8066
1022.385, 475.2943
1022.868, 470.4370
1023.350, 465.2553
1023.832, 462.2977
1024.314, 468.7472
1024.796, 488.8977
1025.278, 498.5955
1025.760, 482.2361
1026.242, 466.5863
1026.725, 463.9790
1027.207, 463.7817
1027.689, 457.4576
1028.171, 446.7999
1028.653, 436.8230
1029.135, 428.4193
1029.617, 418.6420
1030.099, 404.2182
1030.582, 392.1758
1031.064, 388.2031
1031.546, 383.3305
1032.028, 368.3602
1032.510, 349.5185
1032.992, 338.5404
1033.474, 336.7942
1033.956, 335.1735
1034.438, 333.0038
1034.921, 330.5873
1035.403, 326.7484
1035.885, 324.0023
1036.367, 325.2773
1036.849, 327.7014
1037.331, 325.9348
1037.813, 319.6799
1038.295, 318.1478
1038.777, 325.5480
1039.260, 330.9086
1039.742, 330.6130
1040.224, 332.1871
1040.706, 341.3171
1041.188, 351.9212
1041.670, 356.4161
1042.152, 355.3408
1042.634, 354.3861
1043.116, 350.0758
1043.599, 354.1518
1044.081, 373.0435
1044.563, 389.0410
1045.045, 394.9433
1045.527, 396.3275
1046.009, 397.7728
1046.491, 399.8536
1046.973, 405.8737
1047.456, 418.7694
1047.938, 424.8954
1048.420, 420.6680
1048.902, 420.4874
1049.384, 430.2367
1049.866, 441.4848
1050.348, 447.7770
1050.830, 449.3695
1051.313, 445.5959
1051.795, 435.1736
1052.277, 434.1080
1052.759, 445.1101
1053.241, 447.0829
1053.723, 433.3182
1054.205, 419.8372
1054.687, 417.7803
1055.169, 420.9266
1055.651, 417.5195
1056.134, 408.2652
1056.616, 402.5754
1057.098, 400.3741
1057.580, 392.0686
1058.062, 375.9427
1058.544, 360.6557
1059.026, 350.6818
1059.508, 344.6664
1059.991, 341.7865
1060.473, 340.7378
1060.955, 338.7933
1061.437, 334.9124
1061.919, 319.9901
1062.401, 295.2230
1062.883, 277.6743
1063.365, 273.9022
1063.848, 278.1252
1064.330, 286.8924
1064.812, 295.9455
1065.294, 297.4353
1065.776, 293.0488
1066.258, 283.9232
1066.740, 272.8823
1067.222, 269.4756
1067.704, 275.1198
1068.187, 280.2494
1068.669, 277.9972
1069.151, 273.9025
1069.633, 273.8494
1070.115, 276.1084
1070.597, 279.4822
1071.079, 282.7701
1071.561, 283.9391
1072.043, 282.8572
1072.526, 280.0480
1073.008, 275.1522
1073.490, 272.8643
1073.972, 278.6172
1074.454, 286.2005
1074.936, 292.3644
1075.418, 295.9212
1075.900, 293.4028
1076.383, 287.6272
1076.865, 285.8044
1077.347, 289.8825
1077.829, 296.1356
1078.311, 305.7325
1078.793, 313.4601
1079.275, 315.6539
1079.757, 316.3557
1080.240, 318.2846
1080.722, 321.1246
1081.204, 323.4482
1081.686, 325.2643
1082.168, 329.7879
1082.650, 339.7497
1083.132, 349.1913
1083.614, 356.2499
1084.096, 363.7418
1084.578, 373.5323
1085.061, 383.9146
1085.543, 393.0838
1086.025, 401.1103
1086.507, 408.0058
1086.989, 410.4649
1087.471, 420.9644
1087.953, 444.2972
1088.435, 465.8915
1088.918, 481.5187
1089.400, 494.9770
1089.882, 507.4352
1090.364, 521.8032
1090.846, 546.0405
1091.328, 580.8248
1091.810, 602.7521
1092.292, 608.1597
1092.775, 624.9867
1093.257, 659.5535
1093.739, 692.5167
1094.221, 713.2935
1094.703, 734.5369
1095.185, 775.0599
1095.667, 826.2608
1096.149, 854.5266
1096.631, 862.5559
1097.114, 868.9844
1097.596, 875.8519
1098.078, 884.7244
1098.560, 896.2102
1099.042, 913.5524
1099.524, 941.9573
1100.006, 966.1074
1100.488, 956.6031
1100.970, 928.9142
1101.453, 913.5978
1101.935, 907.5291
1102.417, 901.0226
1102.899, 891.4755
1103.381, 878.1964
1103.863, 861.0199
1104.345, 838.7206
1104.827, 808.2087
1105.310, 774.5243
1105.792, 737.5646
1106.274, 703.7645
1106.756, 684.7073
1107.238, 673.8871
1107.720, 655.3264
1108.202, 626.0073
1108.684, 598.9696
1109.167, 578.9345
1109.649, 562.9563
1110.131, 552.4011
1110.613, 542.9299
1111.095, 531.8280
1111.577, 520.4244
1112.059, 509.6110
1112.541, 500.0184
1113.023, 494.5230
1113.505, 496.6353
1113.988, 494.7642
1114.470, 483.7191
1114.952, 476.5973
1115.434, 479.4428
1115.916, 482.3385
1116.398, 477.4135
1116.880, 469.4591
1117.362, 467.7181
1117.845, 472.2286
1118.327, 474.9118
1118.809, 475.3572
1119.291, 476.1599
1119.773, 477.5241
1120.255, 479.7691
1120.737, 482.9417
1121.219, 487.5612
1121.702, 493.9607
1122.184, 502.5752
1122.666, 515.7681
1123.148, 532.2203
1123.630, 545.5292
1124.112, 555.5739
1124.594, 563.2746
1125.076, 569.1292
1125.558, 574.7971
1126.041, 581.1233
1126.523, 588.8738
1127.005, 601.9479
1127.487, 614.2294
1127.969, 615.3468
1128.451, 610.9515
1128.933, 610.1292
1129.415, 612.1052
1129.897, 611.4883
1130.380, 607.1846
1130.862, 603.9402
1131.344, 606.3474
1131.826, 606.3949
1132.308, 598.8731
1132.790, 588.7263
1133.272, 578.7983
1133.754, 568.5486
1134.237, 555.9941
1134.719, 542.2435
1135.201, 532.7617
1135.683, 532.1957
1136.165, 522.2433
1136.647, 490.4896
1137.129, 465.7222
1137.611, 455.2975
1138.094, 449.5340
1138.576, 445.2866
1139.058, 439.5997
1139.540, 427.1605
1140.022, 409.0911
1140.504, 395.9612
1140.986, 388.3885
1141.468, 380.7664
1141.950, 372.7849
1142.432, 363.2946
1142.915, 351.7322
1143.397, 342.8648
1143.879, 340.8474
1144.361, 341.3814
1144.843, 336.5210
1145.325, 328.2678
1145.807, 323.2741
1146.289, 320.1112
1146.772, 313.1579
1147.254, 303.0540
1147.736, 295.4822
1148.218, 292.5593
1148.700, 291.9544
1149.182, 294.1827
1149.664, 294.1927
1150.146, 283.8578
1150.629, 272.5831
1151.111, 272.5042
1151.593, 276.2242
1152.075, 269.7325
1152.557, 255.0158
1153.039, 247.7342
1153.521, 253.5946
1154.003, 259.3158
1154.485, 262.9926
1154.968, 264.5974
1155.450, 262.4513
1155.932, 260.0623
1156.414, 259.7705
1156.896, 260.4044
1157.378, 260.6960
1157.860, 260.4710
1158.342, 257.1673
1158.824, 249.4439
1159.307, 244.9206
1159.789, 244.3080
1160.271, 245.5234
1160.753, 248.3480
1161.235, 249.1836
1161.717, 244.9951
1162.199, 239.5312
1162.681, 239.2123
1163.164, 242.7518
1163.646, 247.1488
1164.128, 251.4136
1164.610, 251.5089
1165.092, 248.0587
1165.574, 245.0771
1166.056, 243.8860
1166.538, 243.5514
1167.021, 243.8831
1167.503, 243.7397
1167.985, 241.4129
1168.467, 238.9895
1168.949, 238.6991
1169.431, 239.1728
1169.913, 239.0197
1170.395, 237.9286
1170.877, 234.8076
1171.359, 228.6978
1171.842, 227.1456
1172.324, 236.8408
1172.806, 242.7723
1173.288, 240.5326
1173.770, 237.3017
1174.252, 236.4236
1174.734, 235.2651
1175.216, 230.3079
1175.699, 223.4527
1176.181, 221.8698
1176.663, 226.0759
1177.145, 228.1309
1177.627, 227.9985
1178.109, 227.3714
1178.591, 226.5984
1179.073, 227.0283
1179.556, 229.3340
1180.038, 229.7591
1180.520, 222.6519
1181.002, 214.4566
1181.484, 217.1060
1181.966, 225.0231
1182.448, 229.4242
1182.930, 230.9856
1183.412, 231.9520
1183.895, 233.1286
1184.377, 236.0021
1184.859, 241.7646
1185.341, 244.0699
1185.823, 236.7782
1186.305, 229.8494
1186.787, 227.0556
1187.269, 226.5069
1187.751, 228.9756
1188.234, 231.4487
1188.716, 228.7278
1189.198, 222.0710
1189.680, 219.4456
1190.162, 222.0066
1190.644, 224.7430
1191.126, 228.0535
1191.608, 229.2536
1192.091, 227.1869
1192.573, 227.5233
1193.055, 233.9658
1193.537, 240.3090
1194.019, 238.0238
1194.501, 231.0987
1194.983, 228.9937
1195.465, 230.2741
1195.948, 232.2538
1196.430, 233.8681
1196.912, 230.0114
1197.394, 222.7867
1197.876, 228.0620
1198.358, 254.9225
1198.840, 272.6341
1199.322, 247.6098
1199.804, 226.5502
1200.286, 246.3923
1200.769, 270.0308
1201.251, 267.1016
1201.733, 249.6429
1202.215, 234.9481
1202.697, 224.3943
1203.179, 218.5952
1203.661, 219.0127
1204.143, 219.5978
1204.626, 220.0839
1205.108, 221.9404
1205.590, 226.0648
1206.072, 228.4784
1206.554, 226.6817
1207.036, 224.7201
1207.518, 227.9850
1208.000, 233.4768
1208.483, 232.8656
1208.965, 228.5749
1209.447, 228.5812
1209.929, 231.0145
1210.411, 228.1644
1210.893, 220.5021
1211.375, 216.4624
1211.857, 219.4616
1212.339, 221.8848
1212.822, 214.6190
1213.304, 211.5523
1213.786, 227.0683
1214.268, 241.5600
1214.750, 239.5925
1215.232, 230.0174
1215.714, 222.1256
1216.196, 216.9884
1216.678, 217.2407
1217.161, 224.7126
1217.643, 225.5303
1218.125, 217.3172
1218.607, 212.8677
1219.089, 214.4499
1219.571, 216.2552
1220.053, 215.8719
1220.535, 215.0087
1221.018, 215.1014
1221.500, 216.1525
1221.982, 220.3487
1222.464, 224.1623
1222.946, 216.4568
1223.428, 204.5055
1223.910, 205.2233
1224.392, 215.6842
1224.875, 221.9832
1225.357, 220.6054
1225.839, 217.4771
1226.321, 212.4024
1226.803, 211.3100
1227.285, 222.1028
1227.767, 229.6278
1228.249, 225.5596
1228.731, 217.1997
1229.214, 206.7958
1229.696, 198.8352
1230.178, 202.4559
1230.660, 216.1015
1231.142, 222.3800
1231.624, 221.0984
1232.106, 216.0547
1232.588, 207.7854
1233.070, 202.0820
1233.553, 200.4497
1234.035, 201.8706
1234.517, 205.8292
1234.999, 211.0805
1235.481, 218.4250
1235.963, 223.9602
1236.445, 222.7465
1236.927, 217.9745
1237.410, 210.5941
1237.892, 203.8097
1238.374, 202.8574
##END=



