##NAMES=Avogadrite
##RRUFFID=R110062
##IDEAL CHEMISTRY=KBF_4_
##LOCALITY=Mount Vesuvius, near Naples, Campania, Italy
##OWNER=RRUFF
##SOURCE=James Shigley
##DESCRIPTION=Colorless consolidated granular. Some of the material consists of transparent gemmy crystals. The unidentified associated yellow material is a thin coating, something like a bubble surface, that turns white under acetone.
##STATUS=The identification of this mineral has been confirmed by single-crystal X-ray diffraction.
##URL=rruff.info/R110062
178.3845, 116.4271
178.8666, 116.5032
179.3488, 116.0676
179.8309, 115.4687
180.3130, 115.1727
180.7951, 115.2676
181.2772, 115.5218
181.7593, 116.2759
182.2415, 116.9543
182.7236, 117.0788
183.2057, 116.5555
183.6878, 115.6926
184.1699, 114.9465
184.6520, 114.3954
185.1342, 113.8207
185.6163, 113.0537
186.0984, 112.3341
186.5805, 111.8815
187.0626, 111.7554
187.5447, 111.9753
188.0269, 112.8345
188.5090, 114.7240
188.9911, 115.6743
189.4732, 114.2657
189.9553, 111.7779
190.4374, 110.5838
190.9196, 111.6276
191.4017, 113.5778
191.8838, 114.5286
192.3659, 114.4698
192.8480, 114.2232
193.3301, 114.0962
193.8123, 114.0673
194.2944, 114.0768
194.7765, 114.1849
195.2586, 114.2235
195.7407, 113.9545
196.2228, 113.3715
196.7050, 112.8960
197.1871, 112.9576
197.6692, 113.5245
198.1513, 113.8778
198.6334, 113.9248
199.1155, 113.6368
199.5977, 112.7546
200.0798, 111.3289
200.5619, 110.1057
201.0440, 110.0090
201.5261, 111.2731
202.0082, 112.0964
202.4904, 111.9302
202.9725, 111.4878
203.4546, 111.0487
203.9367, 110.6703
204.4188, 110.3095
204.9009, 109.8663
205.3831, 109.2150
205.8652, 108.8863
206.3473, 109.1898
206.8294, 109.5705
207.3115, 109.7463
207.7936, 109.6558
208.2758, 109.3777
208.7579, 108.9709
209.2400, 108.1948
209.7221, 107.8564
210.2042, 108.1917
210.6863, 108.7156
211.1685, 109.1699
211.6506, 109.4739
212.1327, 109.6315
212.6148, 109.6532
213.0969, 109.5624
213.5790, 109.2289
214.0612, 108.4041
214.5433, 107.5097
215.0254, 106.8498
215.5075, 106.5054
215.9896, 106.3851
216.4717, 106.3809
216.9539, 106.5653
217.4360, 106.6991
217.9181, 106.7579
218.4002, 106.7749
218.8823, 106.8571
219.3644, 107.0319
219.8466, 107.0516
220.3287, 106.3943
220.8108, 104.8065
221.2929, 103.9956
221.7750, 104.9792
222.2571, 106.5613
222.7393, 107.1414
223.2214, 106.2960
223.7035, 105.0047
224.1856, 104.5205
224.6677, 104.7733
225.1498, 104.9221
225.6320, 104.5657
226.1141, 104.0190
226.5962, 103.8060
227.0783, 104.0454
227.5604, 104.5233
228.0425, 105.2909
228.5247, 106.2269
229.0068, 106.6782
229.4889, 106.1793
229.9710, 105.0356
230.4531, 103.7867
230.9352, 102.2366
231.4174, 101.1460
231.8995, 101.3634
232.3816, 102.4999
232.8637, 103.5329
233.3458, 103.8650
233.8279, 103.7032
234.3101, 103.7848
234.7922, 104.3980
235.2743, 104.7702
235.7564, 104.3235
236.2385, 103.3549
236.7206, 102.4391
237.2028, 101.7902
237.6849, 101.4483
238.1670, 101.6722
238.6491, 103.0454
239.1312, 104.1022
239.6133, 104.1972
240.0955, 103.6302
240.5776, 102.8434
241.0597, 101.9181
241.5418, 101.0256
242.0239, 101.1101
242.5060, 103.1863
242.9882, 104.8688
243.4703, 105.3447
243.9524, 105.0508
244.4345, 104.6089
244.9166, 104.3486
245.3987, 104.2449
245.8809, 104.1863
246.3630, 104.1606
246.8451, 104.2064
247.3272, 104.4801
247.8093, 104.7855
248.2914, 104.8716
248.7736, 104.5987
249.2557, 104.0238
249.7378, 103.3614
250.2199, 102.1431
250.7020, 101.4585
251.1841, 101.8139
251.6663, 102.6454
252.1484, 103.2891
252.6305, 103.4255
253.1126, 103.2093
253.5947, 103.1333
254.0768, 103.5256
254.5590, 103.6551
255.0411, 103.1515
255.5232, 102.4915
256.0053, 102.1747
256.4874, 102.4145
256.9695, 103.1055
257.4517, 103.9940
257.9338, 105.7044
258.4159, 106.8402
258.8980, 107.1525
259.3801, 106.9925
259.8622, 106.6224
260.3444, 106.1445
260.8265, 105.7051
261.3086, 105.5929
261.7907, 106.1873
262.2728, 106.5129
262.7549, 106.4867
263.2371, 106.2214
263.7192, 105.6893
264.2013, 104.9032
264.6834, 104.1954
265.1655, 104.0842
265.6476, 104.8686
266.1298, 105.5936
266.6119, 106.4226
267.0940, 107.0888
267.5761, 107.1851
268.0582, 106.6615
268.5403, 106.1011
269.0225, 106.2936
269.5046, 107.5503
269.9867, 108.0092
270.4688, 106.8543
270.9509, 105.3673
271.4330, 104.7395
271.9152, 105.0853
272.3973, 105.5768
272.8794, 105.3885
273.3615, 104.4575
273.8436, 103.8705
274.3257, 103.9448
274.8079, 104.1536
275.2900, 104.0570
275.7721, 103.6460
276.2542, 103.2335
276.7363, 103.0886
277.2184, 103.1648
277.7006, 103.0293
278.1827, 102.3927
278.6648, 101.7743
279.1469, 101.5560
279.6290, 101.7107
280.1111, 101.9820
280.5933, 102.2478
281.0754, 102.5130
281.5575, 102.8174
282.0396, 103.4411
282.5217, 103.7713
283.0038, 103.1374
283.4860, 101.7493
283.9681, 100.7544
284.4502, 100.8585
284.9323, 101.5184
285.4144, 101.5177
285.8965, 100.5630
286.3787, 99.69144
286.8608, 99.57378
287.3429, 100.0322
287.8250, 100.4871
288.3071, 100.9118
288.7892, 101.0063
289.2714, 100.1691
289.7535, 98.25244
290.2356, 96.70005
290.7177, 96.55728
291.1998, 97.30122
291.6819, 97.41182
292.1641, 96.25397
292.6462, 94.99632
293.1283, 95.11567
293.6104, 96.43376
294.0925, 97.61579
294.5746, 98.15113
295.0568, 98.18979
295.5389, 97.87083
296.0210, 97.01139
296.5031, 96.39099
296.9852, 97.11961
297.4673, 98.70004
297.9495, 99.75302
298.4316, 99.59361
298.9137, 98.74302
299.3958, 97.84213
299.8779, 96.84333
300.3600, 96.10876
300.8422, 96.14899
301.3243, 96.58789
301.8064, 96.78137
302.2885, 96.45114
302.7706, 95.95455
303.2527, 95.66354
303.7349, 95.58079
304.2170, 95.66225
304.6991, 96.04388
305.1812, 96.50570
305.6633, 96.78822
306.1454, 96.90173
306.6276, 96.72441
307.1097, 95.93181
307.5918, 94.57604
308.0739, 93.55730
308.5560, 93.28364
309.0381, 93.41313
309.5203, 93.53323
310.0024, 93.62987
310.4845, 93.76335
310.9666, 94.02235
311.4487, 94.36975
311.9308, 94.61600
312.4130, 94.69932
312.8951, 94.70007
313.3772, 94.75737
313.8593, 94.84328
314.3414, 94.74170
314.8235, 94.04613
315.3057, 93.09410
315.7878, 92.91472
316.2699, 93.96300
316.7520, 94.88705
317.2341, 94.40048
317.7162, 93.04118
318.1984, 91.94099
318.6805, 91.54839
319.1626, 91.62955
319.6447, 91.89553
320.1268, 92.38986
320.6089, 92.85226
321.0911, 93.12608
321.5732, 93.27866
322.0553, 93.40193
322.5374, 93.55416
323.0195, 93.61784
323.5016, 93.34347
323.9838, 92.72437
324.4659, 92.39872
324.9480, 92.89082
325.4301, 93.60296
325.9122, 93.72122
326.3943, 93.08356
326.8765, 92.49236
327.3586, 92.66772
327.8407, 93.45381
328.3228, 93.97181
328.8049, 93.95974
329.2870, 93.69279
329.7692, 93.24661
330.2513, 92.66450
330.7334, 92.61897
331.2155, 93.99390
331.6976, 96.08903
332.1797, 97.16994
332.6619, 96.81855
333.1440, 96.12145
333.6261, 95.73125
334.1082, 95.65071
334.5903, 96.01176
335.0724, 97.29250
335.5546, 98.81686
336.0367, 99.34236
336.5188, 98.69302
337.0009, 98.86953
337.4830, 101.2518
337.9651, 105.2317
338.4473, 109.6384
338.9294, 114.5699
339.4115, 119.5603
339.8936, 124.2692
340.3757, 128.7194
340.8578, 133.0079
341.3400, 137.4967
341.8221, 141.4710
342.3042, 143.9608
342.7863, 144.8617
343.2684, 145.1384
343.7505, 144.4927
344.2327, 143.5957
344.7148, 144.2083
345.1969, 146.9414
345.6790, 150.5963
346.1611, 153.6113
346.6432, 156.1362
347.1254, 159.8202
347.6075, 165.8777
348.0896, 172.9370
348.5717, 179.0351
349.0538, 183.9889
349.5359, 189.1949
350.0181, 195.2001
350.5002, 202.4316
350.9823, 212.0232
351.4644, 224.3207
351.9465, 238.7109
352.4286, 254.5190
352.9108, 271.9300
353.3929, 292.2046
353.8750, 315.9101
354.3571, 342.9093
354.8392, 373.2110
355.3214, 408.7837
355.8035, 442.6919
356.2856, 475.7436
356.7677, 504.7725
357.2498, 525.7581
357.7319, 538.3765
358.2141, 538.1085
358.6962, 515.6109
359.1783, 467.9494
359.6604, 417.3697
360.1425, 360.3934
360.6246, 304.9699
361.1068, 258.2347
361.5889, 220.6266
362.0710, 190.7560
362.5531, 168.0565
363.0352, 152.7193
363.5173, 140.1035
363.9995, 130.5290
364.4816, 122.9742
364.9637, 117.4631
365.4458, 113.6426
365.9279, 110.8688
366.4100, 108.9213
366.8922, 107.5351
367.3743, 105.8823
367.8564, 103.6659
368.3385, 101.6182
368.8206, 99.74897
369.3027, 98.12897
369.7849, 96.88027
370.2670, 96.03436
370.7491, 95.46997
371.2312, 95.02380
371.7133, 94.67878
372.1954, 94.56013
372.6776, 95.03171
373.1597, 95.41086
373.6418, 95.15493
374.1239, 94.36577
374.6060, 93.58443
375.0881, 93.24391
375.5703, 93.33140
376.0524, 93.32476
376.5345, 93.30767
377.0166, 93.10725
377.4987, 92.49602
377.9808, 91.72384
378.4630, 91.10207
378.9451, 90.77299
379.4272, 90.74055
379.9093, 91.07385
380.3914, 92.39063
380.8735, 93.00737
381.3557, 92.56953
381.8378, 91.70557
382.3199, 90.69862
382.8020, 89.68540
383.2841, 88.87595
383.7662, 88.54072
384.2484, 88.74616
384.7305, 88.95108
385.2126, 89.35474
385.6947, 89.55749
386.1768, 89.09888
386.6589, 88.35791
387.1411, 88.12948
387.6232, 88.98946
388.1053, 90.55556
388.5874, 91.42264
389.0695, 91.23483
389.5516, 90.99104
390.0338, 91.06873
390.5159, 91.12836
390.9980, 90.80432
391.4801, 89.99908
391.9622, 89.03333
392.4443, 88.22459
392.9265, 87.55885
393.4086, 87.19824
393.8907, 87.29128
394.3728, 87.60513
394.8549, 88.16841
395.3370, 88.87288
395.8192, 89.35775
396.3013, 89.20478
396.7834, 88.66051
397.2655, 88.60850
397.7476, 89.26057
398.2297, 89.85399
398.7119, 90.00536
399.1940, 89.85446
399.6761, 89.51221
400.1582, 88.93652
400.6403, 88.33256
401.1224, 87.91483
401.6046, 87.67144
402.0867, 87.47182
402.5688, 87.33130
403.0509, 87.15378
403.5330, 86.75330
404.0151, 86.11862
404.4973, 85.67992
404.9794, 85.58993
405.4615, 85.82728
405.9436, 86.54648
406.4257, 87.84951
406.9078, 88.90687
407.3900, 88.85821
407.8721, 87.91758
408.3542, 87.30756
408.8363, 87.24458
409.3184, 87.41454
409.8005, 87.85555
410.2827, 88.41435
410.7648, 88.44868
411.2469, 87.52197
411.7290, 86.21988
412.2111, 86.00963
412.6932, 87.48093
413.1754, 88.39841
413.6575, 87.98304
414.1396, 87.04354
414.6217, 86.34679
415.1038, 86.04628
415.5859, 86.01186
416.0681, 86.15914
416.5502, 86.52090
417.0323, 86.67606
417.5144, 86.41870
417.9965, 86.20403
418.4786, 86.34628
418.9608, 86.65243
419.4429, 86.69120
419.9250, 86.22576
420.4071, 85.48524
420.8892, 85.11178
421.3713, 85.42893
421.8535, 85.64442
422.3356, 85.74975
422.8177, 85.74397
423.2998, 85.53001
423.7819, 85.15437
424.2640, 84.86428
424.7462, 84.93977
425.2283, 85.40927
425.7104, 85.82944
426.1925, 86.35182
426.6746, 86.64054
427.1567, 86.41265
427.6389, 85.93328
428.1210, 85.61685
428.6031, 85.67374
429.0852, 85.93932
429.5673, 86.11355
430.0494, 86.21494
430.5316, 86.16267
431.0137, 85.59769
431.4958, 85.10738
431.9779, 85.14394
432.4600, 85.70729
432.9421, 86.36799
433.4243, 86.99131
433.9064, 87.48211
434.3885, 87.29722
434.8706, 86.06756
435.3527, 84.96523
435.8348, 84.84359
436.3170, 85.33605
436.7991, 85.91146
437.2812, 86.55519
437.7633, 87.07971
438.2454, 87.36900
438.7275, 87.40964
439.2097, 86.98895
439.6918, 85.75899
440.1739, 84.44785
440.6560, 84.31672
441.1381, 85.43643
441.6202, 86.35050
442.1024, 86.55944
442.5845, 86.40700
443.0666, 86.25816
443.5487, 86.15018
444.0308, 85.95818
444.5129, 85.52895
444.9951, 84.92197
445.4772, 84.67265
445.9593, 85.19756
446.4414, 85.54330
446.9235, 85.22401
447.4056, 84.60155
447.8878, 84.30666
448.3699, 84.54430
448.8520, 84.86053
449.3341, 84.48713
449.8162, 82.89707
450.2983, 82.15176
450.7805, 82.82272
451.2626, 83.67579
451.7447, 84.21719
452.2268, 84.39664
452.7089, 84.26344
453.1910, 83.81520
453.6732, 83.15123
454.1553, 82.68389
454.6374, 82.41477
455.1195, 82.36441
455.6016, 82.79262
456.0837, 83.24451
456.5659, 83.21069
457.0480, 82.65129
457.5301, 82.13560
458.0122, 82.41291
458.4943, 83.46062
458.9764, 84.00751
459.4586, 83.77755
459.9407, 83.38207
460.4228, 83.02701
460.9049, 82.76330
461.3870, 82.70168
461.8691, 82.93711
462.3513, 83.29631
462.8334, 83.72200
463.3155, 84.19450
463.7976, 84.10524
464.2797, 82.88608
464.7618, 81.47935
465.2440, 81.26125
465.7261, 82.25523
466.2082, 82.86031
466.6903, 82.02379
467.1724, 80.78742
467.6545, 80.56352
468.1367, 81.40474
468.6188, 82.21141
469.1009, 82.17559
469.5830, 81.52720
470.0651, 81.44148
470.5472, 82.67325
471.0294, 83.43736
471.5115, 82.85777
471.9936, 81.73852
472.4757, 81.13902
472.9578, 81.31299
473.4399, 81.71470
473.9221, 81.68595
474.4042, 81.13704
474.8863, 80.66990
475.3684, 80.30405
475.8505, 79.98392
476.3326, 79.72691
476.8148, 79.49499
477.2969, 79.17148
477.7790, 78.69125
478.2611, 78.25689
478.7432, 78.41819
479.2253, 79.56272
479.7075, 80.19500
480.1896, 79.64241
480.6717, 78.95470
481.1538, 78.70252
481.6359, 78.85467
482.1180, 79.05508
482.6002, 79.13564
483.0823, 79.06920
483.5644, 78.62988
484.0465, 77.60251
484.5286, 77.01765
485.0107, 77.69614
485.4929, 78.88805
485.9750, 79.85748
486.4571, 80.61266
486.9392, 80.69060
487.4213, 79.06860
487.9034, 76.66843
488.3856, 75.72686
488.8677, 76.71700
489.3498, 78.15739
489.8319, 78.87812
490.3140, 78.88515
490.7961, 78.80022
491.2783, 78.58047
491.7604, 78.31469
492.2425, 77.95168
492.7246, 77.58681
493.2067, 77.37295
493.6888, 77.36332
494.1710, 77.57914
494.6531, 78.14131
495.1352, 79.45432
495.6173, 79.76914
496.0994, 78.15958
496.5815, 76.60104
497.0637, 76.14783
497.5458, 76.49561
498.0279, 76.85658
498.5100, 76.79493
498.9921, 76.43604
499.4742, 76.03142
499.9564, 75.41280
500.4385, 75.18913
500.9206, 75.82815
501.4027, 76.58096
501.8848, 77.06059
502.3669, 77.23116
502.8491, 77.17538
503.3312, 76.91097
503.8133, 76.47198
504.2954, 75.85002
504.7775, 74.94579
505.2596, 74.34573
505.7418, 74.42076
506.2239, 74.92539
506.7060, 75.52892
507.1881, 76.25085
507.6702, 76.91759
508.1523, 77.38457
508.6345, 77.75890
509.1166, 78.16591
509.5987, 78.62577
510.0808, 79.29074
510.5629, 80.35789
511.0450, 81.77128
511.5272, 82.91525
512.0093, 83.50032
512.4914, 84.20295
512.9735, 85.39854
513.4556, 86.75465
513.9377, 87.67109
514.4199, 88.04473
514.9020, 88.57734
515.3841, 90.22417
515.8662, 93.20242
516.3483, 95.77744
516.8304, 97.03262
517.3126, 98.85799
517.7947, 101.9893
518.2768, 105.9608
518.7589, 110.0872
519.2410, 114.0989
519.7231, 118.1566
520.2053, 122.5105
520.6874, 127.1597
521.1695, 131.9930
521.6516, 136.9671
522.1337, 142.1770
522.6158, 147.2393
523.0980, 152.5122
523.5801, 159.0748
524.0622, 167.3863
524.5443, 177.0408
525.0264, 188.0703
525.5085, 200.2889
525.9907, 212.2043
526.4728, 223.5934
526.9549, 233.9826
527.4370, 242.5250
527.9191, 249.1667
528.4012, 254.9895
528.8834, 259.1661
529.3655, 263.3578
529.8476, 267.9421
530.3297, 273.4883
530.8118, 281.2123
531.2939, 291.8052
531.7761, 304.7484
532.2582, 318.9857
532.7403, 336.6382
533.2224, 351.5356
533.7045, 367.0146
534.1866, 377.1199
534.6688, 380.2440
535.1509, 375.0546
535.6330, 358.6644
536.1151, 327.5174
536.5972, 286.0822
537.0793, 244.1151
537.5615, 200.1086
538.0436, 162.6032
538.5257, 135.1106
539.0078, 115.2134
539.4899, 101.8959
539.9720, 94.77785
540.4542, 89.93974
540.9363, 86.18557
541.4184, 83.27632
541.9005, 80.99825
542.3826, 79.31850
542.8647, 77.91077
543.3469, 76.60464
543.8290, 75.45257
544.3111, 74.62780
544.7932, 74.27547
545.2753, 73.86005
545.7574, 73.25910
546.2396, 72.59572
546.7217, 71.82624
547.2038, 71.05779
547.6859, 70.68757
548.1680, 71.04776
548.6501, 71.91811
549.1323, 72.31811
549.6144, 72.05734
550.0965, 71.62595
550.5786, 70.75102
551.0607, 69.99737
551.5428, 69.93655
552.0250, 70.48052
552.5071, 70.94016
552.9892, 70.74371
553.4713, 70.11636
553.9534, 69.68119
554.4355, 69.44215
554.9177, 69.40604
555.3998, 69.80627
555.8819, 70.23967
556.3640, 70.12444
556.8461, 69.38245
557.3282, 68.67039
557.8104, 67.94627
558.2925, 67.55556
558.7746, 68.34345
559.2567, 70.12321
559.7388, 71.17547
560.2209, 70.30579
560.7031, 68.23798
561.1852, 67.28451
561.6673, 68.69703
562.1494, 69.47667
562.6315, 68.94043
563.1136, 68.26428
563.5958, 68.41867
564.0779, 69.27940
564.5600, 70.06191
565.0421, 70.20769
565.5242, 69.87801
566.0063, 69.54313
566.4885, 69.08081
566.9706, 68.97816
567.4527, 70.07091
567.9348, 71.01626
568.4169, 70.54121
568.8990, 68.83326
569.3812, 67.54414
569.8633, 67.94217
570.3454, 69.05526
570.8275, 69.51534
571.3096, 69.34188
571.7917, 68.98814
572.2739, 68.58295
572.7560, 68.18921
573.2381, 67.88994
573.7202, 67.62681
574.2023, 67.66608
574.6844, 68.64401
575.1666, 69.40224
575.6487, 68.71249
576.1308, 67.13256
576.6129, 66.23937
577.0950, 66.87593
577.5771, 68.38200
578.0593, 69.32514
578.5414, 69.57314
579.0235, 69.61461
579.5056, 69.53001
579.9877, 69.17604
580.4698, 68.07469
580.9520, 66.67065
581.4341, 66.01316
581.9162, 66.81284
582.3983, 68.05099
582.8804, 68.22218
583.3625, 67.45168
583.8447, 67.14366
584.3268, 67.78837
584.8089, 68.59755
585.2910, 68.65475
585.7731, 68.05470
586.2552, 67.79148
586.7374, 68.46360
587.2195, 68.95606
587.7016, 68.25011
588.1837, 67.08517
588.6658, 66.95019
589.1479, 68.23943
589.6301, 69.79089
590.1122, 70.11513
590.5943, 69.03863
591.0764, 68.39352
591.5585, 68.92838
592.0406, 69.00999
592.5228, 67.66524
593.0049, 65.94096
593.4870, 65.15312
593.9691, 65.62070
594.4512, 66.44441
594.9333, 66.76405
595.4155, 66.71745
595.8976, 66.97349
596.3797, 67.66668
596.8618, 68.21960
597.3439, 68.26451
597.8260, 67.93717
598.3082, 67.56837
598.7903, 67.01506
599.2724, 66.78078
599.7545, 67.46434
600.2366, 68.27729
600.7188, 68.16451
601.2009, 67.21861
601.6830, 66.50126
602.1651, 66.76396
602.6472, 67.71041
603.1293, 68.25425
603.6115, 68.29401
604.0936, 68.09425
604.5757, 67.26064
605.0578, 66.57961
605.5399, 66.74905
606.0220, 67.52597
606.5042, 68.04350
606.9863, 67.72499
607.4684, 67.03224
607.9505, 66.71586
608.4326, 66.76601
608.9147, 66.81583
609.3969, 66.81707
609.8790, 66.69883
610.3611, 66.24669
610.8432, 65.50612
611.3253, 65.13709
611.8074, 65.47689
612.2896, 65.92420
612.7717, 66.24118
613.2538, 66.42915
613.7359, 66.44359
614.2180, 66.29145
614.7001, 66.18684
615.1823, 66.42313
615.6644, 67.02921
616.1465, 67.36477
616.6286, 67.24687
617.1107, 67.09754
617.5928, 67.06419
618.0750, 67.03327
618.5571, 66.86578
619.0392, 66.54092
619.5213, 66.19994
620.0034, 65.95345
620.4855, 65.76681
620.9677, 65.51485
621.4498, 65.18661
621.9319, 65.02893
622.4140, 65.19344
622.8961, 65.57092
623.3782, 65.98569
623.8604, 66.55555
624.3425, 66.79616
624.8246, 66.43021
625.3067, 65.91509
625.7888, 65.35630
626.2709, 64.91784
626.7531, 64.99892
627.2352, 65.81054
627.7173, 66.82389
628.1994, 66.95898
628.6815, 65.98104
629.1636, 65.45065
629.6458, 65.84193
630.1279, 66.18436
630.6100, 65.80059
631.0921, 65.09034
631.5742, 64.82092
632.0563, 65.33816
632.5385, 65.84496
633.0206, 65.64451
633.5027, 65.05836
633.9848, 64.65505
634.4669, 64.52608
634.9490, 64.76479
635.4312, 65.55526
635.9133, 66.69648
636.3954, 67.23629
636.8775, 66.55975
637.3596, 66.08459
637.8417, 66.07885
638.3239, 66.10539
638.8060, 65.74224
639.2881, 65.11297
639.7702, 64.69882
640.2523, 64.81654
640.7344, 65.23232
641.2166, 65.57494
641.6987, 65.85423
642.1808, 65.80296
642.6629, 65.15921
643.1450, 64.51260
643.6271, 64.58369
644.1093, 65.13486
644.5914, 65.27234
645.0735, 64.28008
645.5556, 63.53208
646.0377, 63.97518
646.5198, 64.92716
647.0020, 65.30899
647.4841, 64.98009
647.9662, 64.72534
648.4483, 65.32320
648.9304, 66.57244
649.4125, 67.01786
649.8947, 66.21164
650.3768, 65.42600
650.8589, 64.64162
651.3410, 64.14201
651.8231, 64.33859
652.3052, 65.08298
652.7874, 65.62626
653.2695, 65.49706
653.7516, 65.07449
654.2337, 64.74771
654.7158, 64.51990
655.1979, 64.39626
655.6801, 64.37172
656.1622, 64.51168
656.6443, 64.98804
657.1264, 65.84791
657.6085, 66.08330
658.0906, 64.88874
658.5728, 64.16627
659.0549, 64.78947
659.5370, 65.84762
660.0191, 66.43698
660.5012, 66.40724
660.9833, 66.09954
661.4655, 65.74786
661.9476, 65.35692
662.4297, 64.94743
662.9118, 64.51890
663.3939, 64.04190
663.8760, 63.31117
664.3582, 62.76805
664.8403, 63.14128
665.3224, 64.34293
665.8045, 65.23577
666.2866, 65.52676
666.7687, 65.58498
667.2509, 65.42662
667.7330, 65.23274
668.2151, 65.43525
668.6972, 66.07742
669.1793, 66.49067
669.6614, 65.82044
670.1436, 64.20623
670.6257, 63.76646
671.1078, 65.29832
671.5899, 66.35236
672.0720, 65.78239
672.5541, 64.79984
673.0363, 64.27970
673.5184, 64.26251
674.0005, 64.43413
674.4826, 64.92900
674.9647, 65.33685
675.4468, 65.03700
675.9290, 64.30098
676.4111, 64.05805
676.8932, 64.60757
677.3753, 65.24331
677.8574, 65.08636
678.3395, 64.09139
678.8217, 63.48201
679.3038, 63.41372
679.7859, 63.55838
680.2680, 64.18691
680.7501, 64.78457
681.2322, 64.77219
681.7144, 64.18014
682.1965, 63.64969
682.6786, 63.70477
683.1607, 64.00332
683.6428, 63.92992
684.1249, 63.53767
684.6071, 63.29219
685.0892, 63.34478
685.5713, 63.54195
686.0534, 63.68988
686.5355, 63.77246
687.0176, 64.11752
687.4998, 65.12704
687.9819, 65.86795
688.4640, 65.99345
688.9461, 65.80909
689.4282, 65.52780
689.9103, 65.24370
690.3925, 65.11455
690.8746, 65.37251
691.3567, 65.76009
691.8388, 65.55466
692.3209, 64.72639
692.8030, 64.06754
693.2852, 63.74524
693.7673, 63.74023
694.2494, 64.20248
694.7315, 65.07982
695.2136, 65.54577
695.6957, 65.14265
696.1779, 64.84523
696.6600, 65.18773
697.1421, 65.69205
697.6242, 65.69817
698.1063, 65.22739
698.5884, 64.95275
699.0706, 65.47015
699.5527, 66.40379
700.0348, 66.60532
700.5169, 65.94242
700.9990, 65.38048
701.4811, 65.08154
701.9633, 64.96461
702.4454, 64.87017
702.9275, 64.88317
703.4096, 65.36971
703.8917, 67.00336
704.3738, 68.25543
704.8560, 68.20409
705.3381, 67.59617
705.8202, 67.20499
706.3023, 67.17621
706.7844, 67.48564
707.2665, 68.16570
707.7487, 68.99093
708.2308, 69.24544
708.7129, 68.74040
709.1950, 68.56519
709.6771, 69.04553
710.1592, 69.61810
710.6414, 70.07924
711.1235, 70.34740
711.6056, 70.17490
712.0877, 69.28991
712.5698, 68.51115
713.0519, 68.22906
713.5341, 68.27757
714.0162, 68.61255
714.4983, 69.11928
714.9804, 69.40649
715.4625, 69.22824
715.9446, 68.87867
716.4268, 69.05251
716.9089, 69.94353
717.3910, 70.49100
717.8731, 70.59102
718.3552, 70.43948
718.8373, 69.97762
719.3195, 69.39831
719.8016, 68.97508
720.2837, 68.75474
720.7658, 68.63313
721.2479, 68.52907
721.7300, 68.52031
722.2122, 68.87912
722.6943, 69.43106
723.1764, 69.56393
723.6585, 69.00778
724.1406, 68.06905
724.6227, 67.10003
725.1049, 66.00459
725.5870, 65.80205
726.0691, 67.12363
726.5512, 68.31905
727.0333, 68.91177
727.5154, 69.06246
727.9976, 68.72901
728.4797, 67.93739
728.9618, 67.40559
729.4439, 67.54270
729.9260, 67.97746
730.4081, 68.61131
730.8903, 69.24677
731.3724, 69.38329
731.8545, 68.89578
732.3366, 68.20092
732.8187, 67.73878
733.3008, 67.48101
733.7830, 67.01112
734.2651, 65.98330
734.7472, 65.49516
735.2293, 66.31035
735.7114, 67.32720
736.1935, 67.86247
736.6757, 67.92696
737.1578, 67.71215
737.6399, 67.02502
738.1220, 66.40231
738.6041, 66.28996
739.0862, 66.44131
739.5684, 66.49648
740.0505, 66.39151
740.5326, 66.20325
741.0147, 65.99412
741.4968, 65.71935
741.9789, 65.09838
742.4611, 63.78498
742.9432, 63.45276
743.4253, 64.97282
743.9074, 66.60802
744.3895, 67.48380
744.8716, 67.76576
745.3538, 67.70181
745.8359, 67.24260
746.3180, 66.72700
746.8001, 66.04259
747.2822, 65.57053
747.7643, 65.89950
748.2465, 66.81401
748.7286, 67.59998
749.2107, 67.93061
749.6928, 67.96622
750.1749, 67.92251
750.6570, 67.79760
751.1392, 67.55141
751.6213, 66.90126
752.1034, 66.79240
752.5855, 67.92686
753.0676, 69.58037
753.5497, 70.83537
754.0319, 71.66555
754.5140, 72.64563
754.9961, 73.50150
755.4782, 74.97300
755.9603, 76.89884
756.4424, 79.97416
756.9246, 84.68810
757.4067, 91.47408
757.8888, 101.5490
758.3709, 116.0965
758.8530, 134.7886
759.3351, 158.2368
759.8173, 187.6184
760.2994, 211.4688
760.7815, 228.1375
761.2636, 236.8691
761.7457, 232.8433
762.2278, 219.4122
762.7100, 213.0954
763.1921, 216.2066
763.6742, 223.3917
764.1563, 233.2900
764.6384, 246.8850
765.1205, 265.3214
765.6027, 288.2412
766.0848, 314.2331
766.5669, 342.6683
767.0490, 374.7776
767.5311, 407.4066
768.0132, 443.8790
768.4954, 498.4371
768.9775, 569.9590
769.4596, 681.0696
769.9417, 850.4710
770.4238, 1055.090
770.9059, 1255.314
771.3881, 1445.838
771.8702, 1652.240
772.3523, 1972.755
772.8344, 2193.518
773.3165, 2258.864
773.7986, 2174.485
774.2808, 1897.094
774.7629, 1455.642
775.2450, 1020.770
775.7271, 690.2000
776.2092, 448.3804
776.6913, 290.0726
777.1735, 203.9962
777.6556, 150.8337
778.1377, 122.1474
778.6198, 106.9160
779.1019, 97.05605
779.5840, 91.82380
780.0662, 87.64098
780.5483, 85.10532
781.0304, 82.48840
781.5125, 78.92127
781.9946, 76.03831
782.4767, 74.88935
782.9589, 74.92624
783.4410, 75.20995
783.9231, 75.62638
784.4052, 75.67686
784.8873, 74.73441
785.3694, 73.48094
785.8516, 72.75471
786.3337, 72.49197
786.8158, 72.39100
787.2979, 72.32253
787.7800, 71.91404
788.2621, 70.44819
788.7443, 68.00161
789.2264, 66.92455
789.7085, 67.81957
790.1906, 68.38443
790.6727, 67.58759
791.1548, 66.54843
791.6370, 66.55259
792.1191, 67.41566
792.6012, 67.83102
793.0833, 67.18583
793.5654, 66.58957
794.0475, 66.53568
794.5297, 66.68097
795.0118, 66.62730
795.4939, 66.41810
795.9760, 66.41192
796.4581, 66.83651
796.9402, 67.35288
797.4224, 67.44364
797.9045, 67.15788
798.3866, 66.77212
798.8687, 66.28515
799.3508, 65.91190
799.8329, 65.74069
800.3151, 65.78938
800.7972, 66.17168
801.2793, 67.13586
801.7614, 67.44292
802.2435, 66.31645
802.7256, 65.54980
803.2078, 66.09358
803.6899, 66.97366
804.1720, 67.09974
804.6541, 66.44165
805.1362, 65.81473
805.6183, 65.57368
806.1005, 65.65479
806.5826, 66.25963
807.0647, 67.08192
807.5468, 67.30318
808.0289, 66.85157
808.5110, 66.51148
808.9932, 66.88638
809.4753, 67.59249
809.9574, 67.51708
810.4395, 66.38988
810.9216, 65.72529
811.4037, 65.87484
811.8859, 66.03210
812.3680, 65.79441
812.8501, 65.32133
813.3322, 64.70061
813.8143, 63.83355
814.2964, 63.58920
814.7786, 64.86185
815.2607, 66.06919
815.7428, 66.11393
816.2249, 65.59723
816.7070, 65.39120
817.1891, 65.65397
817.6713, 66.06655
818.1534, 66.53177
818.6355, 66.77174
819.1176, 65.97066
819.5997, 64.30988
820.0818, 63.23922
820.5640, 63.03458
821.0461, 63.24636
821.5282, 63.60388
822.0103, 64.09805
822.4924, 64.72195
822.9745, 65.71159
823.4567, 66.31063
823.9388, 66.46143
824.4209, 66.29463
824.9030, 65.39837
825.3851, 64.44595
825.8672, 64.44747
826.3494, 65.52032
826.8315, 66.42255
827.3136, 66.36709
827.7957, 66.10395
828.2778, 66.41805
828.7599, 66.93029
829.2421, 66.78534
829.7242, 65.92663
830.2063, 65.17045
830.6884, 65.15916
831.1705, 65.60966
831.6526, 65.84477
832.1348, 65.85860
832.6169, 65.77445
833.0990, 65.55075
833.5811, 65.40832
834.0632, 65.48634
834.5453, 65.72478
835.0275, 66.05412
835.5096, 66.67534
835.9917, 66.74474
836.4738, 65.72917
836.9559, 64.78463
837.4380, 64.18444
837.9202, 63.96922
838.4023, 64.46432
838.8844, 65.50293
839.3665, 65.94324
839.8486, 64.55977
840.3307, 63.07845
840.8129, 63.66636
841.2950, 65.31426
841.7771, 65.89626
842.2592, 65.22838
842.7413, 64.51161
843.2234, 64.50969
843.7056, 64.86755
844.1877, 64.86264
844.6698, 64.46535
845.1519, 64.01604
845.6340, 63.36603
846.1161, 63.15769
846.5983, 63.99340
847.0804, 65.09599
847.5625, 65.30780
848.0446, 64.57131
848.5267, 63.97250
849.0089, 63.49498
849.4910, 63.23634
849.9731, 63.37761
850.4552, 63.62909
850.9373, 63.82043
851.4194, 63.88387
851.9016, 63.66720
852.3837, 62.99028
852.8658, 62.43428
853.3479, 62.68058
853.8300, 63.33640
854.3121, 63.74652
854.7943, 63.88607
855.2764, 63.96822
855.7585, 64.08477
856.2406, 64.02856
856.7227, 63.39874
857.2048, 62.29057
857.6870, 62.04543
858.1691, 62.94061
858.6512, 63.62186
859.1333, 63.79604
859.6154, 63.59232
860.0975, 63.02594
860.5797, 62.15406
861.0618, 61.29278
861.5439, 59.95330
862.0260, 59.43630
862.5081, 60.47604
862.9902, 61.76940
863.4724, 62.77784
863.9545, 63.41871
864.4366, 63.60841
864.9187, 63.33890
865.4008, 62.94891
865.8829, 62.49777
866.3651, 62.17535
866.8472, 62.35529
867.3293, 62.80873
867.8114, 62.98510
868.2935, 62.77435
868.7756, 62.38752
869.2578, 61.96783
869.7399, 61.54151
870.2220, 61.17395
870.7041, 60.86661
871.1862, 60.56231
871.6683, 60.19278
872.1505, 60.07761
872.6326, 60.47727
873.1147, 61.12378
873.5968, 61.64767
874.0789, 62.14050
874.5610, 61.99242
875.0432, 60.47262
875.5253, 59.30762
876.0074, 58.95644
876.4895, 59.05791
876.9716, 59.49410
877.4537, 60.10848
877.9359, 60.50095
878.4180, 60.52055
878.9001, 60.34265
879.3822, 59.90138
879.8643, 59.44611
880.3464, 59.40781
880.8286, 59.59346
881.3107, 59.29381
881.7928, 58.30260
882.2749, 57.45140
882.7570, 57.75610
883.2391, 58.85178
883.7213, 59.67242
884.2034, 60.21798
884.6855, 60.41372
885.1676, 60.20961
885.6497, 59.85131
886.1318, 59.47132
886.6140, 59.15114
887.0961, 59.25608
887.5782, 60.31363
888.0603, 60.39935
888.5424, 58.73815
889.0245, 57.16081
889.5067, 56.31364
889.9888, 55.98378
890.4709, 56.02235
890.9530, 56.41494
891.4351, 56.83606
891.9172, 57.50967
892.3994, 57.83910
892.8815, 57.15466
893.3636, 56.33614
893.8457, 56.39728
894.3278, 57.11202
894.8099, 57.53308
895.2921, 57.22970
895.7742, 56.79237
896.2563, 56.78525
896.7384, 57.01250
897.2205, 57.26650
897.7026, 57.45639
898.1848, 57.20935
898.6669, 56.43225
899.1490, 55.65324
899.6311, 55.41236
900.1132, 55.54052
900.5953, 55.27623
901.0775, 54.53041
901.5596, 54.50088
902.0417, 55.56046
902.5238, 56.68126
903.0059, 57.33131
903.4880, 57.57087
903.9702, 57.46515
904.4523, 56.85603
904.9344, 56.53920
905.4165, 56.89653
905.8986, 57.04987
906.3807, 56.55297
906.8629, 55.97308
907.3450, 55.95003
907.8271, 56.31428
908.3092, 56.23466
908.7913, 55.14665
909.2734, 54.31811
909.7556, 54.55042
910.2377, 55.07776
910.7198, 55.28045
911.2019, 55.22160
911.6840, 55.10508
912.1661, 55.00776
912.6483, 54.99052
913.1304, 55.15457
913.6125, 55.38487
914.0946, 55.55360
914.5767, 55.62648
915.0588, 55.29805
915.5410, 54.60350
916.0231, 54.53892
916.5052, 55.84827
916.9873, 57.48381
917.4694, 57.09482
917.9515, 54.56170
918.4337, 53.48039
918.9158, 54.19258
919.3979, 54.87718
919.8800, 54.98631
920.3621, 54.67681
920.8442, 53.94957
921.3264, 52.89330
921.8085, 52.47863
922.2906, 53.11460
922.7727, 53.72750
923.2548, 54.59507
923.7369, 55.08043
924.2191, 54.40801
924.7012, 53.37672
925.1833, 53.29459
925.6654, 54.34916
926.1475, 55.25321
926.6296, 55.48238
927.1118, 55.63533
927.5939, 56.09844
928.0760, 56.58752
928.5581, 56.78721
929.0402, 56.70623
929.5223, 56.48865
930.0045, 56.17394
930.4866, 55.89821
930.9687, 55.85229
931.4508, 55.88192
931.9329, 55.57212
932.4150, 55.12756
932.8972, 55.47359
933.3793, 56.73675
933.8614, 57.52258
934.3435, 56.46244
934.8256, 54.43437
935.3077, 53.65618
935.7899, 54.04130
936.2720, 54.40567
936.7541, 54.65136
937.2362, 54.43828
937.7183, 53.44456
938.2004, 52.40971
938.6826, 52.56359
939.1647, 53.94920
939.6468, 54.44544
940.1289, 53.50129
940.6110, 53.03881
941.0931, 53.85844
941.5753, 54.66742
942.0574, 54.31043
942.5395, 53.30346
943.0216, 53.12414
943.5037, 54.20436
943.9858, 54.79438
944.4680, 54.29025
944.9501, 53.84193
945.4322, 53.90112
945.9143, 54.20900
946.3964, 54.74718
946.8785, 55.31063
947.3607, 55.11077
947.8428, 53.40787
948.3249, 51.93696
948.8070, 51.74627
949.2891, 52.11819
949.7712, 52.75275
950.2534, 53.30335
950.7355, 52.97305
951.2176, 51.71035
951.6997, 50.82826
952.1818, 51.53024
952.6639, 52.87457
953.1461, 53.78820
953.6282, 54.28644
954.1103, 54.27930
954.5924, 53.84216
955.0745, 53.36206
955.5566, 53.02684
956.0388, 52.77916
956.5209, 52.43640
957.0030, 52.11552
957.4851, 52.67852
957.9672, 54.11773
958.4493, 54.65946
958.9315, 53.81209
959.4136, 52.75983
959.8957, 52.35280
960.3778, 52.39042
960.8599, 52.37862
961.3420, 52.32029
961.8242, 52.15041
962.3063, 51.66986
962.7884, 51.62402
963.2705, 52.67920
963.7526, 53.69485
964.2347, 53.28540
964.7169, 51.72549
965.1990, 51.03576
965.6811, 51.95462
966.1632, 52.62260
966.6453, 53.18091
967.1274, 53.32318
967.6096, 52.63980
968.0917, 51.63234
968.5738, 50.82109
969.0559, 50.26559
969.5380, 50.10485
970.0201, 50.47769
970.5023, 51.10557
970.9844, 52.22657
971.4665, 53.25990
971.9486, 53.76033
972.4307, 53.80619
972.9128, 53.56940
973.3950, 53.10522
973.8771, 52.67498
974.3592, 52.45220
974.8413, 52.30668
975.3234, 52.11829
975.8055, 51.93525
976.2877, 51.82479
976.7698, 51.79358
977.2519, 51.84375
977.7340, 51.97993
978.2161, 52.09658
978.6982, 51.99432
979.1804, 51.83874
979.6625, 52.10297
980.1446, 52.59414
980.6267, 52.48768
981.1088, 51.70166
981.5909, 51.18092
982.0731, 51.60917
982.5552, 52.46181
983.0373, 52.76915
983.5194, 52.61577
984.0015, 52.63913
984.4836, 52.85831
984.9658, 53.00920
985.4479, 52.99756
985.9300, 53.01684
986.4121, 53.27683
986.8942, 53.66063
987.3763, 53.75811
987.8585, 53.56284
988.3406, 53.00748
988.8227, 51.83707
989.3048, 51.22782
989.7869, 51.90601
990.2690, 52.91372
990.7512, 53.09324
991.2333, 52.51936
991.7154, 52.12072
992.1975, 51.94358
992.6796, 51.82985
993.1617, 51.52829
993.6439, 51.63202
994.1260, 53.04498
994.6081, 54.66405
995.0902, 54.65611
995.5723, 52.94126
996.0544, 52.04191
996.5366, 52.66747
997.0187, 53.22703
997.5008, 53.56086
997.9829, 53.66242
998.4650, 53.39207
998.9471, 52.94674
999.4293, 52.59089
999.9114, 52.34868
1000.393, 52.42200
1000.876, 53.35110
1001.358, 53.98920
1001.840, 53.57253
1002.322, 52.89665
1002.804, 52.61460
1003.286, 52.67947
1003.768, 52.79039
1004.250, 52.85701
1004.733, 53.13019
1005.215, 54.24226
1005.697, 55.07499
1006.179, 54.35052
1006.661, 53.12307
1007.143, 52.70844
1007.625, 53.13829
1008.107, 53.93976
1008.589, 54.95597
1009.072, 55.76153
1009.554, 56.06021
1010.036, 55.89984
1010.518, 55.04139
1011.000, 53.87299
1011.482, 53.05851
1011.964, 52.73311
1012.446, 52.90321
1012.929, 53.62980
1013.411, 54.29645
1013.893, 53.91632
1014.375, 54.23703
1014.857, 54.11654
1015.339, 53.69876
1015.821, 53.65851
1016.303, 52.80279
1016.785, 52.29465
1017.268, 52.96742
1017.750, 54.15333
1018.232, 54.95371
1018.714, 55.32594
1019.196, 54.82589
1019.678, 53.59410
1020.160, 52.96339
1020.642, 53.29668
1021.125, 53.90075
1021.607, 54.24831
1022.089, 54.39357
1022.571, 54.37318
1023.053, 54.21075
1023.535, 54.46320
1024.017, 55.17518
1024.499, 55.64512
1024.981, 55.63977
1025.464, 55.40175
1025.946, 55.07831
1026.428, 54.82251
1026.910, 55.21960
1027.392, 56.37379
1027.874, 57.17064
1028.356, 57.53310
1028.838, 57.71028
1029.321, 57.73788
1029.803, 57.76971
1030.285, 58.01441
1030.767, 58.35327
1031.249, 58.14172
1031.731, 56.99630
1032.213, 56.90615
1032.695, 58.54801
1033.177, 59.57916
1033.660, 58.79717
1034.142, 57.63593
1034.624, 57.61074
1035.106, 58.52716
1035.588, 59.19301
1036.070, 59.62006
1036.552, 59.72902
1037.034, 59.10572
1037.516, 58.90622
1037.999, 60.00818
1038.481, 61.26252
1038.963, 61.45967
1039.445, 60.69312
1039.927, 59.66241
1040.409, 57.65279
1040.891, 56.64757
1041.373, 57.29898
1041.855, 58.13462
1042.338, 58.80645
1042.820, 59.26825
1043.302, 59.44316
1043.784, 59.35159
1044.266, 59.15114
1044.748, 58.61354
1045.230, 58.36120
1045.712, 58.65482
1046.195, 58.96482
1046.677, 59.04050
1047.159, 59.05787
1047.641, 59.28370
1048.123, 59.66254
1048.605, 59.77624
1049.087, 59.40112
1049.569, 59.08605
1050.052, 58.60387
1050.534, 58.55585
1051.016, 59.71714
1051.498, 61.10555
1051.980, 61.59011
1052.462, 61.23500
1052.944, 60.89564
1053.426, 60.77595
1053.908, 60.57002
1054.391, 60.05875
1054.873, 59.62055
1055.355, 59.52995
1055.837, 59.55647
1056.319, 59.28232
1056.801, 58.83025
1057.283, 58.94413
1057.765, 60.10826
1058.248, 61.10343
1058.730, 61.44013
1059.212, 61.67234
1059.694, 62.38059
1060.176, 62.96368
1060.658, 62.39124
1061.140, 60.97645
1061.622, 60.33890
1062.104, 61.18103
1062.587, 62.06165
1063.069, 62.56044
1063.551, 62.83980
1064.033, 62.82973
1064.515, 62.76619
1064.997, 62.99788
1065.479, 63.42781
1065.961, 63.56451
1066.443, 63.13734
1066.926, 62.87926
1067.408, 63.30932
1067.890, 63.74234
1068.372, 63.62896
1068.854, 63.39784
1069.336, 63.53918
1069.818, 64.03249
1070.300, 64.64890
1070.782, 65.37943
1071.265, 65.95940
1071.747, 66.20706
1072.229, 66.35004
1072.711, 66.45229
1073.193, 66.57892
1073.675, 66.84732
1074.157, 67.18849
1074.639, 67.41642
1075.122, 67.48343
1075.604, 67.40244
1076.086, 66.97231
1076.568, 66.64224
1077.050, 66.71133
1077.532, 66.98441
1078.014, 67.34838
1078.496, 67.71710
1078.979, 67.92269
1079.461, 67.91191
1079.943, 67.95645
1080.425, 68.05470
1080.907, 68.39469
1081.389, 69.47974
1081.871, 70.51205
1082.353, 70.61993
1082.835, 70.09847
1083.318, 69.63303
1083.800, 69.38440
1084.282, 69.33894
1084.764, 69.52950
1085.246, 69.87418
1085.728, 70.45994
1086.210, 71.06480
1086.692, 71.53361
1087.175, 71.86475
1087.657, 72.07776
1088.139, 72.17866
1088.621, 72.18436
1089.103, 71.93874
1089.585, 71.82736
1090.067, 72.02296
1090.549, 72.40939
1091.031, 72.95497
1091.514, 73.59908
1091.996, 74.31776
1092.478, 75.07738
1092.960, 75.70742
1093.442, 76.22414
1093.924, 76.46667
1094.406, 76.16378
1094.888, 75.79919
1095.370, 75.62672
1095.853, 75.62111
1096.335, 75.82301
1096.817, 76.15559
1097.299, 76.31795
1097.781, 76.33768
1098.263, 75.90936
1098.745, 74.04560
1099.227, 72.76174
1099.709, 73.69839
1100.192, 75.30964
1100.674, 75.97780
1101.156, 75.81575
1101.638, 75.74543
1102.120, 76.07628
1102.602, 75.97543
1103.084, 74.68502
1103.566, 73.63645
1104.049, 73.50877
1104.531, 73.74986
1105.013, 74.10288
1105.495, 74.38349
1105.977, 74.13079
1106.459, 73.13459
1106.941, 72.67966
1107.423, 73.41212
1107.906, 74.10618
1108.388, 74.47278
1108.870, 74.66540
1109.352, 74.75277
1109.834, 74.75101
1110.316, 74.60752
1110.798, 74.30234
1111.280, 74.29079
1111.762, 74.78863
1112.245, 75.31091
1112.727, 75.94306
1113.209, 76.42500
1113.691, 76.54220
1114.173, 76.49349
1114.655, 76.42173
1115.137, 76.35631
1115.619, 76.70985
1116.102, 77.97485
1116.584, 78.78048
1117.066, 78.91186
1117.548, 78.86241
1118.030, 78.58214
1118.512, 78.42362
1118.994, 78.72588
1119.476, 79.43018
1119.958, 80.34341
1120.441, 81.67892
1120.923, 82.51511
1121.405, 82.59993
1121.887, 82.73227
1122.369, 83.12197
1122.851, 83.58958
1123.333, 83.98082
1123.815, 84.38723
1124.297, 85.05708
1124.780, 86.03513
1125.262, 86.61906
1125.744, 86.60463
1126.226, 86.99203
1126.708, 88.07465
1127.190, 89.14452
1127.672, 89.76463
1128.154, 90.30247
1128.636, 91.38551
1129.119, 91.77032
1129.601, 93.43520
1130.083, 92.94340
1130.565, 92.97569
1131.047, 93.71960
1131.529, 94.76357
1132.011, 96.00211
1132.493, 97.02710
1132.976, 97.39677
1133.458, 97.29212
1133.940, 97.14666
1134.422, 96.98366
1134.904, 97.19553
1135.386, 97.77183
1135.868, 98.03831
1136.350, 97.82610
1136.833, 97.96703
1137.315, 99.11067
1137.797, 100.5524
1138.279, 101.0155
1138.761, 100.8097
1139.243, 100.8947
1139.725, 101.2868
1140.207, 102.2776
1140.689, 103.7260
1141.172, 104.4107
1141.654, 103.7655
1142.136, 102.8999
1142.618, 103.0362
1143.100, 103.6584
1143.582, 103.8979
1144.064, 103.9589
1144.546, 104.2431
1145.029, 104.7602
1145.511, 105.5054
1145.993, 106.4056
1146.475, 106.9775
1146.957, 106.8381
1147.439, 106.3838
1147.921, 105.7848
1148.403, 105.2745
1148.885, 104.9666
1149.368, 105.0466
1149.850, 106.1873
1150.332, 108.0592
1150.814, 109.0857
1151.296, 108.4827
1151.778, 107.7796
1152.260, 107.9353
1152.742, 108.2542
1153.224, 108.5190
1153.707, 108.4930
1154.189, 107.6967
1154.671, 106.4943
1155.153, 105.6909
1155.635, 105.4474
1156.117, 105.4492
1156.599, 105.6319
1157.081, 105.9959
1157.563, 106.7391
1158.046, 107.4473
1158.528, 108.0720
1159.010, 108.3742
1159.492, 107.7431
1159.974, 106.3639
1160.456, 105.9015
1160.938, 107.5722
1161.420, 108.0482
1161.903, 106.2882
1162.385, 104.6162
1162.867, 103.4901
1163.349, 102.8863
1163.831, 103.0898
1164.313, 103.6235
1164.795, 103.2068
1165.277, 101.6190
1165.760, 101.0278
1166.242, 101.9146
1166.724, 102.2211
1167.206, 101.4900
1167.688, 100.5757
1168.170, 99.82384
1168.652, 99.39511
1169.134, 99.61661
1169.616, 100.2366
1170.099, 99.99344
1170.581, 98.87546
1171.063, 97.64897
1171.545, 96.35291
1172.027, 95.90752
1172.509, 96.60391
1172.991, 97.14193
1173.473, 96.49067
1173.956, 96.47619
1174.438, 94.98840
1174.920, 95.09819
1175.402, 94.36477
1175.884, 93.18417
1176.366, 93.35110
1176.848, 94.75672
1177.330, 95.29884
1177.813, 94.12107
1178.295, 92.84380
1178.777, 93.09456
1179.259, 93.71275
1179.741, 93.22649
1180.223, 92.20291
1180.705, 91.23609
1181.187, 90.48521
1181.669, 90.25036
1182.151, 90.46320
1182.634, 90.55834
1183.116, 90.30750
1183.598, 89.79781
1184.080, 88.36598
1184.562, 87.52137
1185.044, 89.18932
1185.526, 91.19862
1186.008, 90.96635
1186.490, 89.28284
1186.973, 88.52042
1187.455, 89.13210
1187.937, 89.40443
1188.419, 88.63969
1188.901, 88.04955
1189.383, 88.05318
1189.865, 88.06503
1190.347, 87.71134
1190.830, 87.27627
1191.312, 86.98272
1191.794, 86.87355
1192.276, 87.22290
1192.758, 88.38656
1193.240, 88.73619
1193.722, 87.92645
1194.204, 87.33887
1194.687, 87.33095
1195.169, 87.51025
1195.651, 87.71104
1196.133, 87.69863
1196.615, 86.94421
1197.097, 87.09110
1197.579, 87.09316
1198.061, 86.80447
1198.543, 87.46556
1199.026, 87.54401
1199.508, 87.73046
1199.990, 88.23767
1200.472, 88.43945
1200.954, 87.76096
1201.436, 86.88626
1201.918, 86.86904
1202.400, 87.38973
1202.883, 88.04178
1203.365, 88.61502
1203.847, 88.51229
1204.329, 87.89376
1204.811, 87.66284
1205.293, 88.12880
1205.775, 88.38885
1206.257, 87.45939
1206.740, 86.61530
1207.222, 86.79642
1207.704, 87.46420
1208.186, 88.59010
1208.668, 89.59608
1209.150, 89.53873
1209.632, 88.56760
1210.114, 87.78713
1210.596, 87.29684
1211.078, 87.49026
1211.561, 88.90878
1212.043, 90.38230
1212.525, 92.02019
1213.007, 93.09406
1213.489, 92.93092
1213.971, 92.09499
1214.453, 91.36549
1214.935, 90.75244
1215.417, 90.41893
1215.900, 90.27621
1216.382, 90.91254
1216.864, 92.69530
1217.346, 93.66328
1217.828, 93.06888
1218.310, 92.17550
1218.792, 91.87624
1219.274, 92.14794
1219.757, 93.25687
1220.239, 92.91711
1220.721, 94.77264
1221.203, 93.51525
1221.685, 93.47408
1222.167, 94.68797
1222.649, 95.56958
1223.131, 95.56994
1223.614, 95.24108
1224.096, 94.87894
1224.578, 94.74647
1225.060, 95.25018
1225.542, 96.04101
1226.024, 97.00082
1226.506, 97.76938
1226.988, 97.54400
1227.470, 96.68555
1227.953, 96.45852
1228.435, 97.23315
1228.917, 97.99689
1229.399, 98.23692
1229.881, 98.57948
1230.363, 99.42569
1230.845, 100.2140
1231.327, 100.5428
1231.810, 100.6881
1232.292, 101.0798
1232.774, 101.5819
1233.256, 101.5651
1233.738, 100.7637
1234.220, 100.6293
1234.702, 101.3951
1235.184, 102.0928
1235.667, 102.5782
1236.149, 102.8627
1236.631, 102.9569
1237.113, 102.7760
1237.595, 102.0692
1238.077, 101.2749
1238.559, 102.0436
1239.041, 103.9322
1239.523, 104.5290
1240.005, 104.0111
1240.488, 103.8046
1240.970, 104.1478
1241.452, 104.3533
1241.934, 104.0799
1242.416, 103.8570
1242.898, 104.2233
1243.380, 104.8151
1243.862, 105.1629
1244.344, 105.6288
1244.827, 107.1647
1245.309, 108.8364
1245.791, 108.8126
1246.273, 107.2300
1246.755, 106.0169
1247.237, 105.7016
1247.719, 105.6291
1248.201, 105.8432
1248.684, 106.0095
1249.166, 105.7806
1249.648, 105.7934
1250.130, 106.8159
1250.612, 107.8435
1251.094, 107.2848
1251.576, 105.5318
1252.058, 105.2542
1252.541, 106.7314
1253.023, 107.7003
1253.505, 108.1003
1253.987, 107.8062
1254.469, 106.7630
1254.951, 106.3489
1255.433, 107.3757
1255.915, 109.0931
1256.397, 110.9721
1256.880, 112.3916
1257.362, 111.4778
1257.844, 109.5532
1258.326, 109.2652
1258.808, 110.2417
1259.290, 111.3114
1259.772, 112.1236
1260.254, 112.5970
1260.737, 112.7214
1261.219, 112.2965
1261.701, 110.2264
1262.183, 108.9121
1262.665, 110.2377
1263.147, 111.9753
1263.629, 112.6421
1264.111, 112.6180
1264.594, 112.3334
1265.076, 111.9157
1265.558, 111.9522
1266.040, 112.5518
1266.522, 113.2747
1267.004, 114.3120
1267.486, 114.6747
1267.968, 113.9584
1268.450, 113.6662
1268.932, 114.6201
1269.415, 115.9652
1269.897, 116.7997
1270.379, 117.2074
1270.861, 117.2499
1271.343, 117.0884
1271.825, 117.2463
1272.307, 117.6323
1272.789, 117.8871
1273.271, 117.9999
1273.754, 118.1841
1274.236, 118.5244
1274.718, 119.0264
1275.200, 119.6444
1275.682, 120.5002
1276.164, 121.9953
1276.646, 123.3884
1277.128, 124.1582
1277.611, 124.5170
1278.093, 124.5281
1278.575, 124.3850
1279.057, 124.6627
1279.539, 125.4395
1280.021, 126.1495
1280.503, 126.7651
1280.985, 127.2784
1281.468, 127.6233
1281.950, 128.3061
1282.432, 129.5702
1282.914, 130.8761
1283.396, 131.7813
1283.878, 132.4659
1284.360, 133.3190
1284.842, 134.1495
1285.324, 134.4376
##END=



