##NAMES=Awaruite
##RRUFFID=R070671
##IDEAL CHEMISTRY=Ni_3_Fe
##LOCALITY=Heazlewood District, Tasmania, Australia
##OWNER=RRUFF
##SOURCE=James Shigley
##DESCRIPTION=Silver-white metallic massive nodules
##STATUS=The identification of this mineral is not yet confirmed.
##URL=rruff.info/R070671
137.7982, 1748.620
138.2803, 1802.903
138.7624, 1825.573
139.2445, 1809.210
139.7266, 1791.617
140.2088, 1772.166
140.6909, 1752.305
141.1730, 1737.028
141.6551, 1724.768
142.1372, 1714.961
142.6193, 1702.293
143.1015, 1703.029
143.5836, 1703.991
144.0657, 1705.900
144.5478, 1708.863
145.0299, 1700.218
145.5120, 1657.661
145.9942, 1619.317
146.4763, 1625.199
146.9584, 1735.862
147.4405, 1816.319
147.9226, 1830.212
148.4047, 1746.357
148.8869, 1692.932
149.3690, 1685.730
149.8511, 1706.164
150.3332, 1722.491
150.8153, 1738.291
151.2974, 1746.961
151.7796, 1745.173
152.2617, 1714.195
152.7438, 1699.115
153.2259, 1716.147
153.7080, 1755.613
154.1901, 1778.258
154.6722, 1774.947
155.1544, 1755.333
155.6365, 1725.521
156.1186, 1660.030
156.6007, 1610.730
157.0828, 1598.643
157.5649, 1623.406
158.0471, 1640.091
158.5292, 1632.802
159.0113, 1612.134
159.4934, 1589.142
159.9755, 1555.974
160.4576, 1530.409
160.9398, 1521.477
161.4219, 1531.810
161.9040, 1549.066
162.3861, 1576.625
162.8682, 1607.152
163.3503, 1627.592
163.8325, 1629.512
164.3146, 1620.998
164.7967, 1606.766
165.2788, 1585.830
165.7609, 1562.793
166.2430, 1530.996
166.7252, 1496.338
167.2073, 1479.781
167.6894, 1513.180
168.1715, 1563.482
168.6536, 1595.321
169.1357, 1587.581
169.6179, 1567.881
170.1000, 1552.515
170.5821, 1541.977
171.0642, 1544.548
171.5463, 1587.607
172.0284, 1645.914
172.5106, 1676.745
172.9927, 1638.800
173.4748, 1576.632
173.9569, 1538.390
174.4390, 1526.433
174.9211, 1531.623
175.4033, 1557.507
175.8854, 1596.316
176.3675, 1625.786
176.8496, 1624.640
177.3317, 1609.113
177.8138, 1608.282
178.2959, 1627.940
178.7781, 1654.562
179.2602, 1672.342
179.7423, 1682.206
180.2244, 1688.385
180.7065, 1695.368
181.1886, 1701.063
181.6708, 1698.850
182.1529, 1684.419
182.6350, 1665.169
183.1171, 1651.411
183.5992, 1643.247
184.0813, 1642.908
184.5635, 1659.255
185.0456, 1687.804
185.5277, 1705.994
186.0098, 1699.865
186.4919, 1681.599
186.9740, 1696.275
187.4562, 1750.123
187.9383, 1794.306
188.4204, 1750.673
188.9025, 1628.564
189.3846, 1542.203
189.8667, 1555.935
190.3489, 1650.890
190.8310, 1707.088
191.3131, 1719.799
191.7952, 1708.933
192.2773, 1700.568
192.7594, 1694.724
193.2416, 1690.402
193.7237, 1683.755
194.2058, 1675.389
194.6879, 1682.696
195.1700, 1712.066
195.6521, 1750.177
196.1343, 1766.623
196.6164, 1758.480
197.0985, 1746.906
197.5806, 1745.480
198.0627, 1754.705
198.5448, 1765.202
199.0270, 1779.641
199.5091, 1792.902
199.9912, 1782.989
200.4733, 1744.624
200.9554, 1702.647
201.4375, 1680.148
201.9196, 1680.913
202.4018, 1675.650
202.8839, 1657.559
203.3660, 1628.190
203.8481, 1597.916
204.3302, 1562.542
204.8123, 1534.778
205.2945, 1530.281
205.7766, 1554.106
206.2587, 1581.183
206.7408, 1609.605
207.2229, 1640.261
207.7050, 1644.486
208.1872, 1611.774
208.6693, 1566.518
209.1514, 1543.322
209.6335, 1547.785
210.1156, 1557.958
210.5977, 1567.010
211.0799, 1574.818
211.5620, 1582.473
212.0441, 1590.332
212.5262, 1597.787
213.0083, 1603.489
213.4904, 1607.544
213.9726, 1609.752
214.4547, 1609.990
214.9368, 1608.183
215.4189, 1603.491
215.9010, 1591.169
216.3831, 1577.255
216.8653, 1581.749
217.3474, 1612.600
217.8295, 1647.979
218.3116, 1678.406
218.7937, 1708.986
219.2758, 1720.627
219.7580, 1706.900
220.2401, 1672.125
220.7222, 1639.772
221.2043, 1606.699
221.6864, 1580.057
222.1685, 1565.938
222.6507, 1570.694
223.1328, 1573.704
223.6149, 1569.896
224.0970, 1559.952
224.5791, 1561.271
225.0612, 1582.691
225.5434, 1605.495
226.0255, 1612.192
226.5076, 1596.084
226.9897, 1576.517
227.4718, 1554.836
227.9539, 1530.556
228.4361, 1514.119
228.9182, 1510.094
229.4003, 1510.245
229.8824, 1504.466
230.3645, 1488.074
230.8466, 1473.849
231.3288, 1463.420
231.8109, 1455.444
232.2930, 1460.002
232.7751, 1485.387
233.2572, 1517.990
233.7393, 1537.280
234.2215, 1538.991
234.7036, 1534.451
235.1857, 1526.686
235.6678, 1515.426
236.1499, 1501.486
236.6320, 1481.347
237.1142, 1460.168
237.5963, 1447.571
238.0784, 1446.461
238.5605, 1449.864
239.0426, 1455.420
239.5247, 1463.705
240.0069, 1472.534
240.4890, 1480.546
240.9711, 1489.279
241.4532, 1503.981
241.9353, 1529.633
242.4174, 1554.173
242.8996, 1573.002
243.3817, 1589.828
243.8638, 1591.936
244.3459, 1571.451
244.8280, 1535.649
245.3101, 1514.140
245.7922, 1513.438
246.2744, 1517.983
246.7565, 1519.029
247.2386, 1514.454
247.7207, 1510.690
248.2028, 1506.626
248.6849, 1503.332
249.1671, 1508.622
249.6492, 1529.847
250.1313, 1550.107
250.6134, 1558.249
251.0955, 1552.846
251.5776, 1537.176
252.0598, 1504.209
252.5419, 1457.179
253.0240, 1435.960
253.5061, 1453.162
253.9882, 1480.579
254.4703, 1495.176
254.9525, 1488.487
255.4346, 1488.468
255.9167, 1504.034
256.3988, 1534.302
256.8809, 1545.466
257.3630, 1528.139
257.8452, 1503.668
258.3273, 1492.290
258.8094, 1498.119
259.2915, 1507.364
259.7736, 1520.635
260.2557, 1538.266
260.7379, 1539.038
261.2200, 1513.093
261.7021, 1483.117
262.1842, 1476.220
262.6663, 1503.824
263.1484, 1523.444
263.6306, 1519.995
264.1127, 1491.853
264.5948, 1484.283
265.0769, 1505.447
265.5590, 1536.403
266.0411, 1555.846
266.5233, 1562.245
267.0054, 1560.929
267.4875, 1549.859
267.9696, 1527.987
268.4517, 1518.135
268.9338, 1523.989
269.4160, 1536.883
269.8981, 1546.987
270.3802, 1555.130
270.8623, 1556.712
271.3444, 1545.791
271.8265, 1520.643
272.3087, 1514.017
272.7908, 1532.054
273.2729, 1559.084
273.7550, 1569.179
274.2371, 1558.333
274.7192, 1550.600
275.2014, 1556.808
275.6835, 1577.878
276.1656, 1595.189
276.6477, 1610.448
277.1298, 1619.141
277.6119, 1606.846
278.0940, 1568.842
278.5761, 1544.168
279.0583, 1559.841
279.5404, 1616.950
280.0225, 1641.340
280.5046, 1624.894
280.9867, 1591.147
281.4688, 1577.730
281.9510, 1585.554
282.4331, 1599.021
282.9152, 1615.755
283.3973, 1634.808
283.8794, 1638.074
284.3615, 1620.714
284.8437, 1597.347
285.3258, 1591.182
285.8079, 1602.352
286.2900, 1620.942
286.7721, 1647.832
287.2542, 1680.313
287.7364, 1699.575
288.2185, 1703.363
288.7006, 1697.701
289.1827, 1688.061
289.6648, 1674.968
290.1469, 1666.530
290.6291, 1669.079
291.1112, 1680.133
291.5933, 1691.499
292.0754, 1703.912
292.5575, 1712.842
293.0396, 1704.661
293.5218, 1682.536
294.0039, 1672.283
294.4860, 1698.130
294.9681, 1746.006
295.4502, 1778.798
295.9323, 1791.333
296.4145, 1794.178
296.8966, 1799.548
297.3787, 1806.550
297.8608, 1811.330
298.3429, 1810.236
298.8250, 1805.665
299.3072, 1801.299
299.7893, 1796.877
300.2714, 1794.810
300.7535, 1796.436
301.2356, 1802.323
301.7177, 1814.316
302.1999, 1839.372
302.6820, 1869.077
303.1641, 1894.113
303.6462, 1914.460
304.1283, 1925.312
304.6104, 1915.260
305.0926, 1890.984
305.5747, 1869.976
306.0568, 1870.945
306.5389, 1875.290
307.0210, 1860.485
307.5031, 1819.463
307.9853, 1778.119
308.4674, 1749.847
308.9495, 1735.816
309.4316, 1738.563
309.9137, 1778.896
310.3958, 1824.535
310.8780, 1847.661
311.3601, 1839.119
311.8422, 1830.183
312.3243, 1846.085
312.8064, 1873.732
313.2885, 1889.225
313.7707, 1861.019
314.2528, 1832.302
314.7349, 1835.551
315.2170, 1884.906
315.6991, 1922.702
316.1812, 1911.510
316.6634, 1875.021
317.1455, 1850.441
317.6276, 1858.382
318.1097, 1874.804
318.5918, 1890.487
319.0739, 1904.979
319.5561, 1916.212
320.0382, 1922.852
320.5203, 1926.083
321.0024, 1927.566
321.4845, 1924.574
321.9666, 1922.633
322.4488, 1923.378
322.9308, 1926.917
323.4130, 1933.245
323.8951, 1952.686
324.3772, 1971.850
324.8593, 1974.072
325.3414, 1930.360
325.8235, 1895.653
326.3057, 1886.455
326.7878, 1911.193
327.2699, 1928.525
327.7520, 1936.420
328.2341, 1937.508
328.7162, 1934.510
329.1984, 1924.437
329.6805, 1913.871
330.1626, 1904.443
330.6447, 1896.568
331.1268, 1885.646
331.6089, 1868.362
332.0911, 1850.471
332.5732, 1836.972
333.0553, 1824.013
333.5374, 1823.246
334.0195, 1840.521
334.5016, 1875.986
334.9838, 1906.885
335.4659, 1936.078
335.9480, 1956.909
336.4301, 1960.149
336.9122, 1938.806
337.3943, 1922.934
337.8765, 1918.531
338.3586, 1924.879
338.8407, 1937.568
339.3228, 1958.232
339.8049, 1980.533
340.2870, 1999.765
340.7692, 2015.897
341.2513, 2025.976
341.7334, 2023.812
342.2155, 2016.845
342.6976, 2039.014
343.1797, 2094.490
343.6619, 2147.661
344.1440, 2161.577
344.6261, 2140.780
345.1082, 2129.593
345.5903, 2139.281
346.0724, 2160.478
346.5546, 2173.136
347.0367, 2177.570
347.5188, 2181.593
348.0009, 2195.149
348.4830, 2213.428
348.9651, 2222.084
349.4473, 2218.737
349.9294, 2204.503
350.4115, 2180.120
350.8936, 2145.846
351.3757, 2103.235
351.8578, 2035.654
352.3400, 1964.512
352.8221, 1929.056
353.3042, 1949.065
353.7863, 1972.163
354.2684, 1943.379
354.7505, 1877.526
355.2327, 1816.904
355.7148, 1778.803
356.1969, 1759.613
356.6790, 1762.942
357.1611, 1798.637
357.6432, 1823.373
358.1254, 1800.793
358.6075, 1749.995
359.0896, 1706.083
359.5717, 1689.899
360.0538, 1680.075
360.5359, 1664.804
361.0181, 1641.677
361.5002, 1617.963
361.9823, 1582.519
362.4644, 1551.242
362.9465, 1545.184
363.4286, 1607.956
363.9108, 1661.843
364.3929, 1673.899
364.8750, 1634.704
365.3571, 1608.011
365.8392, 1618.938
366.3214, 1640.334
366.8035, 1645.210
367.2856, 1610.490
367.7677, 1581.766
368.2498, 1567.766
368.7319, 1569.162
369.2140, 1569.579
369.6961, 1570.819
370.1783, 1569.576
370.6604, 1562.083
371.1425, 1539.955
371.6246, 1527.143
372.1067, 1529.525
372.5888, 1544.984
373.0710, 1556.708
373.5531, 1565.534
374.0352, 1569.285
374.5173, 1563.719
374.9994, 1544.542
375.4815, 1535.988
375.9637, 1544.808
376.4458, 1563.460
376.9279, 1567.791
377.4100, 1555.270
377.8921, 1540.890
378.3742, 1533.694
378.8564, 1533.422
379.3385, 1532.454
379.8206, 1530.434
380.3027, 1527.003
380.7848, 1517.858
381.2669, 1503.624
381.7491, 1497.301
382.2312, 1512.699
382.7133, 1541.181
383.1954, 1558.361
383.6775, 1561.999
384.1596, 1558.261
384.6418, 1550.764
385.1239, 1540.977
385.6060, 1533.343
386.0881, 1532.002
386.5702, 1532.947
387.0523, 1531.120
387.5345, 1526.314
388.0166, 1521.068
388.4987, 1516.524
388.9808, 1512.868
389.4629, 1510.382
389.9450, 1509.301
390.4272, 1509.252
390.9093, 1509.582
391.3914, 1510.423
391.8735, 1513.335
392.3556, 1519.447
392.8377, 1527.766
393.3199, 1537.410
393.8020, 1554.260
394.2841, 1565.756
394.7662, 1568.473
395.2483, 1563.021
395.7304, 1551.973
396.2126, 1520.913
396.6947, 1495.382
397.1768, 1490.546
397.6589, 1548.362
398.1410, 1565.593
398.6231, 1499.113
399.1053, 1391.968
399.5874, 1342.865
400.0695, 1393.122
400.5516, 1452.460
401.0337, 1490.313
401.5158, 1500.328
401.9980, 1513.686
402.4801, 1537.943
402.9622, 1558.710
403.4443, 1549.722
403.9264, 1497.052
404.4085, 1457.615
404.8907, 1453.784
405.3728, 1483.730
405.8549, 1496.249
406.3370, 1487.905
406.8191, 1474.041
407.3012, 1470.984
407.7834, 1478.609
408.2655, 1485.376
408.7476, 1488.588
409.2297, 1489.133
409.7118, 1488.199
410.1939, 1485.838
410.6761, 1485.026
411.1582, 1489.582
411.6403, 1497.494
412.1224, 1503.503
412.6045, 1506.002
413.0866, 1507.528
413.5687, 1514.516
414.0508, 1524.185
414.5330, 1526.309
415.0151, 1503.352
415.4972, 1475.762
415.9793, 1466.893
416.4614, 1483.847
416.9435, 1501.970
417.4257, 1505.334
417.9078, 1499.496
418.3899, 1493.408
418.8720, 1494.090
419.3541, 1492.388
419.8362, 1482.036
420.3184, 1461.880
420.8005, 1444.151
421.2826, 1430.480
421.7647, 1421.847
422.2468, 1419.432
422.7289, 1423.810
423.2111, 1433.958
423.6932, 1458.527
424.1753, 1494.892
424.6574, 1507.033
425.1395, 1469.055
425.6216, 1431.260
426.1038, 1423.819
426.5859, 1466.089
427.0680, 1497.232
427.5501, 1512.036
428.0322, 1514.706
428.5143, 1515.982
428.9965, 1516.419
429.4786, 1513.761
429.9607, 1505.520
430.4428, 1491.126
430.9249, 1481.468
431.4070, 1478.767
431.8892, 1475.303
432.3713, 1452.104
432.8534, 1410.798
433.3355, 1389.165
433.8176, 1411.699
434.2997, 1460.814
434.7819, 1494.449
435.2640, 1512.646
435.7461, 1516.118
436.2282, 1494.064
436.7103, 1458.537
437.1924, 1435.832
437.6746, 1440.829
438.1567, 1450.793
438.6388, 1436.847
439.1209, 1406.448
439.6030, 1389.556
440.0851, 1414.495
440.5673, 1453.675
441.0494, 1483.400
441.5315, 1496.458
442.0136, 1508.960
442.4957, 1529.057
442.9778, 1552.754
443.4600, 1573.300
443.9421, 1604.334
444.4242, 1617.533
444.9063, 1594.615
445.3884, 1525.224
445.8705, 1473.391
446.3527, 1446.516
446.8348, 1437.880
447.3169, 1444.270
447.7990, 1488.281
448.2811, 1511.707
448.7632, 1499.395
449.2454, 1457.654
449.7275, 1429.808
450.2096, 1418.066
450.6917, 1415.281
451.1738, 1419.090
451.6559, 1430.777
452.1381, 1439.133
452.6202, 1442.459
453.1023, 1443.301
453.5844, 1446.760
454.0665, 1452.830
454.5486, 1458.228
455.0308, 1461.774
455.5129, 1463.373
455.9950, 1459.661
456.4771, 1449.304
456.9592, 1444.447
457.4413, 1465.500
457.9234, 1500.887
458.4055, 1525.226
458.8877, 1523.370
459.3698, 1511.485
459.8519, 1504.959
460.3340, 1502.442
460.8161, 1495.354
461.2982, 1477.362
461.7804, 1453.680
462.2625, 1425.799
462.7446, 1382.568
463.2267, 1357.455
463.7088, 1376.612
464.1909, 1421.694
464.6731, 1454.254
465.1552, 1464.612
465.6373, 1463.760
466.1194, 1451.526
466.6015, 1422.563
467.0836, 1405.590
467.5658, 1407.672
468.0479, 1416.963
468.5300, 1421.475
469.0121, 1416.753
469.4942, 1417.094
469.9763, 1427.128
470.4585, 1444.364
470.9406, 1455.451
471.4227, 1460.305
471.9048, 1459.384
472.3869, 1450.459
472.8690, 1434.118
473.3512, 1420.718
473.8333, 1410.449
474.3154, 1405.503
474.7975, 1417.340
475.2796, 1441.726
475.7617, 1452.350
476.2439, 1419.046
476.7260, 1370.065
477.2081, 1352.583
477.6902, 1367.883
478.1723, 1393.820
478.6544, 1424.984
479.1366, 1452.470
479.6187, 1463.359
480.1008, 1436.658
480.5829, 1411.860
481.0650, 1414.896
481.5471, 1438.352
482.0293, 1455.369
482.5114, 1451.503
482.9935, 1442.447
483.4756, 1436.345
483.9577, 1436.320
484.4398, 1434.157
484.9220, 1424.618
485.4041, 1414.151
485.8862, 1411.613
486.3683, 1424.393
486.8504, 1433.599
487.3326, 1431.882
487.8147, 1420.090
488.2968, 1426.768
488.7789, 1462.974
489.2610, 1493.124
489.7431, 1480.220
490.2253, 1420.774
490.7074, 1381.968
491.1895, 1374.082
491.6716, 1386.560
492.1537, 1405.035
492.6358, 1428.449
493.1180, 1445.237
493.6001, 1444.275
494.0822, 1433.827
494.5643, 1429.005
495.0464, 1430.590
495.5285, 1436.209
496.0107, 1450.092
496.4928, 1465.251
496.9749, 1471.224
497.4570, 1459.430
497.9391, 1442.741
498.4212, 1422.368
498.9034, 1401.161
499.3855, 1391.473
499.8676, 1408.228
500.3497, 1429.771
500.8318, 1444.480
501.3139, 1449.482
501.7961, 1451.556
502.2782, 1454.003
502.7603, 1452.841
503.2424, 1440.936
503.7245, 1404.338
504.2066, 1380.554
504.6887, 1381.470
505.1708, 1405.194
505.6530, 1420.502
506.1351, 1426.438
506.6172, 1426.377
507.0993, 1420.294
507.5814, 1408.226
508.0635, 1400.363
508.5457, 1397.067
509.0278, 1400.406
509.5099, 1418.337
509.9920, 1448.033
510.4741, 1474.550
510.9562, 1491.638
511.4384, 1500.141
511.9205, 1499.938
512.4026, 1491.089
512.8847, 1477.938
513.3668, 1454.490
513.8489, 1431.947
514.3311, 1424.006
514.8132, 1451.704
515.2953, 1473.253
515.7774, 1465.862
516.2595, 1438.105
516.7416, 1416.893
517.2238, 1406.736
517.7059, 1405.182
518.1880, 1414.418
518.6701, 1440.643
519.1522, 1454.667
519.6343, 1448.447
520.1165, 1436.615
520.5986, 1435.887
521.0807, 1451.886
521.5628, 1461.403
522.0449, 1458.920
522.5270, 1447.357
523.0092, 1436.768
523.4913, 1426.920
523.9734, 1419.263
524.4555, 1413.055
524.9376, 1409.453
525.4197, 1414.286
525.9019, 1428.948
526.3840, 1447.156
526.8661, 1463.920
527.3482, 1479.297
527.8303, 1492.936
528.3124, 1514.389
528.7946, 1526.661
529.2767, 1510.578
529.7588, 1470.629
530.2409, 1434.139
530.7230, 1411.256
531.2051, 1397.024
531.6873, 1387.227
532.1694, 1376.569
532.6515, 1380.488
533.1336, 1420.960
533.6157, 1471.300
534.0978, 1491.357
534.5800, 1454.821
535.0621, 1429.095
535.5442, 1434.536
536.0263, 1466.702
536.5084, 1474.307
536.9905, 1451.871
537.4727, 1420.301
537.9548, 1390.001
538.4369, 1361.086
538.9190, 1344.915
539.4011, 1342.680
539.8832, 1352.985
540.3654, 1382.666
540.8475, 1425.726
541.3296, 1458.598
541.8117, 1468.242
542.2938, 1464.042
542.7759, 1454.919
543.2581, 1441.258
543.7402, 1425.199
544.2223, 1403.038
544.7044, 1381.966
545.1865, 1368.119
545.6686, 1364.057
546.1508, 1364.586
546.6329, 1364.649
547.1150, 1369.034
547.5971, 1386.455
548.0792, 1442.384
548.5613, 1482.341
549.0435, 1488.520
549.5256, 1461.904
550.0077, 1452.928
550.4898, 1471.221
550.9719, 1488.972
551.4540, 1482.023
551.9362, 1448.387
552.4183, 1424.519
552.9004, 1412.484
553.3825, 1413.574
553.8646, 1439.436
554.3467, 1484.834
554.8289, 1518.681
555.3110, 1523.416
555.7931, 1510.363
556.2752, 1490.860
556.7573, 1465.721
557.2394, 1443.439
557.7216, 1423.706
558.2037, 1412.452
558.6858, 1418.947
559.1679, 1459.055
559.6500, 1484.672
560.1321, 1467.308
560.6143, 1428.431
561.0964, 1402.517
561.5785, 1404.875
562.0606, 1408.400
562.5427, 1405.719
563.0248, 1397.901
563.5070, 1403.344
563.9891, 1431.182
564.4712, 1455.422
564.9533, 1455.671
565.4354, 1429.097
565.9175, 1416.896
566.3997, 1425.840
566.8818, 1437.666
567.3639, 1419.920
567.8460, 1379.271
568.3281, 1348.322
568.8102, 1340.010
569.2924, 1347.616
569.7744, 1372.126
570.2565, 1409.116
570.7386, 1432.403
571.2208, 1406.907
571.7029, 1373.222
572.1850, 1367.403
572.6671, 1404.378
573.1492, 1437.043
573.6313, 1445.307
574.1135, 1443.538
574.5956, 1449.244
575.0777, 1479.605
575.5598, 1496.920
576.0419, 1490.491
576.5240, 1466.394
577.0062, 1454.360
577.4883, 1460.038
577.9704, 1463.906
578.4525, 1453.105
578.9346, 1427.975
579.4167, 1412.995
579.8989, 1410.247
580.3810, 1408.078
580.8631, 1384.151
581.3452, 1349.101
581.8273, 1338.958
582.3094, 1378.255
582.7916, 1424.272
583.2737, 1429.321
583.7558, 1404.651
584.2379, 1382.946
584.7200, 1374.386
585.2021, 1377.781
585.6843, 1400.726
586.1664, 1448.342
586.6485, 1473.392
587.1306, 1451.431
587.6127, 1413.353
588.0948, 1381.565
588.5770, 1354.419
589.0591, 1336.642
589.5412, 1328.881
590.0233, 1330.332
590.5054, 1342.823
590.9875, 1369.192
591.4697, 1388.407
591.9518, 1387.516
592.4339, 1374.208
592.9160, 1380.404
593.3981, 1406.162
593.8802, 1429.489
594.3624, 1428.964
594.8445, 1416.266
595.3266, 1410.890
595.8087, 1418.194
596.2908, 1424.495
596.7729, 1415.552
597.2551, 1401.045
597.7372, 1394.828
598.2193, 1414.033
598.7014, 1428.836
599.1835, 1428.259
599.6656, 1414.119
600.1478, 1401.509
600.6299, 1385.707
601.1120, 1378.052
601.5941, 1388.311
602.0762, 1422.077
602.5583, 1429.123
603.0405, 1399.563
603.5226, 1367.289
604.0047, 1377.216
604.4868, 1423.635
604.9689, 1452.303
605.4510, 1448.838
605.9332, 1427.741
606.4153, 1401.317
606.8974, 1373.112
607.3795, 1353.752
607.8616, 1355.631
608.3438, 1363.783
608.8259, 1364.536
609.3080, 1357.643
609.7901, 1359.204
610.2722, 1383.774
610.7543, 1412.882
611.2365, 1434.266
611.7186, 1445.137
612.2007, 1451.219
612.6828, 1452.652
613.1649, 1449.214
613.6470, 1439.001
614.1292, 1419.293
614.6113, 1403.618
615.0934, 1395.644
615.5755, 1393.936
616.0576, 1394.182
616.5397, 1396.398
617.0219, 1401.416
617.5040, 1417.871
617.9861, 1434.746
618.4682, 1427.879
618.9503, 1394.066
619.4324, 1364.640
619.9146, 1371.157
620.3967, 1389.813
620.8788, 1393.885
621.3609, 1353.314
621.8430, 1329.873
622.3251, 1356.750
622.8073, 1410.267
623.2894, 1436.672
623.7715, 1413.895
624.2536, 1394.202
624.7357, 1390.929
625.2178, 1402.521
625.7000, 1412.954
626.1821, 1423.703
626.6642, 1427.673
627.1463, 1414.040
627.6284, 1387.419
628.1105, 1376.155
628.5927, 1384.525
629.0748, 1393.729
629.5569, 1381.089
630.0390, 1356.141
630.5211, 1335.665
631.0032, 1317.253
631.4854, 1314.450
631.9675, 1354.137
632.4496, 1416.719
632.9317, 1450.277
633.4138, 1408.443
633.8959, 1367.427
634.3781, 1353.723
634.8602, 1368.148
635.3423, 1383.319
635.8244, 1401.520
636.3065, 1416.523
636.7886, 1421.824
637.2708, 1416.435
637.7529, 1418.719
638.2350, 1431.895
638.7171, 1445.891
639.1992, 1449.781
639.6813, 1444.053
640.1635, 1429.443
640.6456, 1399.709
641.1277, 1369.520
641.6098, 1347.019
642.0919, 1334.913
642.5740, 1341.950
643.0562, 1399.880
643.5383, 1453.263
644.0204, 1470.750
644.5025, 1446.016
644.9846, 1430.904
645.4667, 1434.255
645.9489, 1442.044
646.4310, 1446.951
646.9131, 1450.217
647.3952, 1444.716
647.8773, 1427.408
648.3594, 1406.989
648.8416, 1398.088
649.3237, 1398.968
649.8058, 1395.134
650.2879, 1378.333
650.7700, 1360.408
651.2521, 1358.231
651.7343, 1369.213
652.2164, 1384.592
652.6985, 1408.224
653.1806, 1428.017
653.6627, 1434.736
654.1448, 1427.700
654.6270, 1419.353
655.1091, 1409.406
655.5912, 1401.426
656.0733, 1396.596
656.5554, 1391.589
657.0375, 1400.347
657.5197, 1431.153
658.0018, 1464.070
658.4839, 1473.293
658.9660, 1458.747
659.4481, 1429.661
659.9302, 1378.090
660.4123, 1328.448
660.8944, 1332.656
661.3765, 1377.325
661.8586, 1412.698
662.3408, 1398.228
662.8229, 1374.918
663.3050, 1380.732
663.7871, 1414.339
664.2692, 1435.136
664.7513, 1415.894
665.2335, 1390.091
665.7156, 1378.128
666.1977, 1385.122
666.6798, 1391.022
667.1619, 1393.555
667.6440, 1397.771
668.1262, 1415.656
668.6083, 1450.612
669.0904, 1454.670
669.5725, 1410.370
670.0546, 1350.437
670.5367, 1327.939
671.0189, 1337.313
671.5010, 1356.514
671.9831, 1389.274
672.4652, 1416.731
672.9473, 1416.700
673.4294, 1394.036
673.9116, 1375.166
674.3937, 1368.909
674.8758, 1370.522
675.3579, 1377.994
675.8400, 1391.374
676.3221, 1411.373
676.8043, 1448.019
677.2864, 1478.815
677.7685, 1481.445
678.2506, 1451.534
678.7327, 1429.846
679.2148, 1419.923
679.6970, 1419.522
680.1791, 1432.802
680.6612, 1454.442
681.1433, 1464.176
681.6254, 1449.341
682.1075, 1426.942
682.5897, 1407.820
683.0718, 1393.553
683.5539, 1387.507
684.0360, 1403.628
684.5181, 1416.728
685.0002, 1413.506
685.4824, 1392.164
685.9645, 1377.915
686.4466, 1372.366
686.9287, 1371.907
687.4108, 1376.302
687.8929, 1386.638
688.3751, 1391.315
688.8572, 1389.651
689.3393, 1384.725
689.8214, 1375.783
690.3035, 1366.113
690.7856, 1366.850
691.2678, 1384.004
691.7499, 1403.539
692.2320, 1416.582
692.7141, 1422.980
693.1962, 1422.562
693.6783, 1410.161
694.1605, 1396.215
694.6426, 1376.645
695.1247, 1356.423
695.6068, 1360.436
696.0889, 1409.291
696.5710, 1445.597
697.0532, 1441.807
697.5353, 1401.596
698.0174, 1388.340
698.4995, 1405.522
698.9816, 1420.302
699.4637, 1400.859
699.9459, 1361.356
700.4280, 1331.203
700.9101, 1313.471
701.3922, 1306.354
701.8743, 1318.715
702.3564, 1336.499
702.8386, 1343.854
703.3207, 1321.436
703.8028, 1309.990
704.2849, 1327.823
704.7670, 1357.479
705.2491, 1370.301
705.7313, 1355.766
706.2134, 1350.462
706.6955, 1365.673
707.1776, 1393.203
707.6597, 1410.393
708.1418, 1417.234
708.6240, 1413.929
709.1061, 1388.367
709.5882, 1358.292
710.0703, 1356.676
710.5524, 1380.839
711.0345, 1400.038
711.5167, 1388.069
711.9988, 1371.088
712.4809, 1365.312
712.9630, 1371.658
713.4451, 1394.988
713.9272, 1465.919
714.4094, 1526.534
714.8915, 1524.226
715.3736, 1437.812
715.8557, 1384.319
716.3378, 1378.452
716.8199, 1393.653
717.3021, 1395.964
717.7842, 1386.521
718.2663, 1368.498
718.7484, 1332.992
719.2305, 1304.419
719.7126, 1313.888
720.1948, 1349.472
720.6769, 1382.223
721.1590, 1409.748
721.6411, 1423.553
722.1232, 1411.645
722.6053, 1377.370
723.0875, 1361.868
723.5696, 1377.987
724.0517, 1390.107
724.5338, 1377.698
725.0159, 1342.570
725.4980, 1327.844
725.9802, 1335.486
726.4623, 1346.234
726.9444, 1338.680
727.4265, 1324.366
727.9086, 1328.482
728.3907, 1357.454
728.8729, 1384.023
729.3550, 1391.134
729.8371, 1386.359
730.3192, 1376.884
730.8013, 1353.978
731.2834, 1341.102
731.7656, 1345.540
732.2477, 1357.083
732.7298, 1358.681
733.2119, 1346.070
733.6940, 1342.672
734.1761, 1355.262
734.6583, 1377.797
735.1404, 1404.123
735.6225, 1431.311
736.1046, 1443.464
736.5867, 1416.215
737.0688, 1382.330
737.5510, 1374.608
738.0331, 1388.622
738.5152, 1399.857
738.9973, 1398.416
739.4794, 1392.563
739.9615, 1386.066
740.4437, 1379.315
740.9258, 1366.879
741.4079, 1342.449
741.8900, 1324.772
742.3721, 1333.785
742.8542, 1366.611
743.3364, 1374.464
743.8185, 1352.446
744.3006, 1329.298
744.7827, 1338.743
745.2648, 1364.529
745.7469, 1381.894
746.2291, 1384.258
746.7112, 1380.940
747.1933, 1370.665
747.6754, 1359.480
748.1575, 1355.497
748.6396, 1371.175
749.1218, 1376.107
749.6038, 1363.727
750.0859, 1342.349
750.5681, 1328.443
751.0502, 1322.417
751.5323, 1319.259
752.0144, 1317.615
752.4965, 1317.715
752.9786, 1318.767
753.4608, 1321.599
753.9429, 1329.511
754.4250, 1347.816
754.9071, 1368.679
755.3892, 1393.435
755.8713, 1419.969
756.3535, 1426.078
756.8356, 1385.890
757.3177, 1348.172
757.7998, 1331.102
758.2819, 1335.214
758.7640, 1346.873
759.2462, 1369.058
759.7283, 1385.211
760.2104, 1376.342
760.6925, 1351.380
761.1746, 1334.135
761.6567, 1326.801
762.1389, 1325.502
762.6210, 1333.283
763.1031, 1342.466
763.5852, 1345.079
764.0673, 1338.014
764.5494, 1327.288
765.0316, 1308.312
765.5137, 1289.489
765.9958, 1277.522
766.4779, 1269.527
766.9600, 1282.751
767.4421, 1328.128
767.9243, 1379.609
768.4064, 1389.922
768.8885, 1367.767
769.3706, 1350.716
769.8527, 1353.726
770.3348, 1363.968
770.8170, 1374.991
771.2991, 1384.359
771.7812, 1386.282
772.2633, 1369.673
772.7454, 1355.544
773.2275, 1349.214
773.7097, 1350.054
774.1918, 1357.593
774.6739, 1375.277
775.1560, 1389.153
775.6381, 1394.176
776.1202, 1390.738
776.6024, 1376.104
777.0845, 1351.258
777.5666, 1329.953
778.0487, 1324.464
778.5308, 1324.524
779.0129, 1318.488
779.4951, 1305.661
779.9772, 1299.148
780.4593, 1314.077
780.9414, 1327.366
781.4235, 1323.720
781.9056, 1296.437
782.3878, 1285.984
782.8699, 1294.798
783.3520, 1314.011
783.8341, 1345.343
784.3162, 1382.532
784.7983, 1390.865
785.2805, 1363.771
785.7626, 1332.401
786.2447, 1321.771
786.7268, 1324.048
787.2089, 1329.608
787.6910, 1335.710
788.1732, 1346.022
788.6553, 1377.268
789.1374, 1404.521
789.6195, 1395.046
790.1016, 1327.950
790.5837, 1293.415
791.0659, 1310.890
791.5480, 1349.456
792.0301, 1360.423
792.5122, 1347.879
792.9943, 1327.969
793.4764, 1297.217
793.9586, 1274.696
794.4407, 1287.787
794.9228, 1320.955
795.4049, 1343.109
795.8870, 1332.610
796.3691, 1324.229
796.8513, 1331.738
797.3334, 1346.714
797.8155, 1339.125
798.2976, 1300.280
798.7797, 1276.663
799.2618, 1289.791
799.7440, 1325.521
800.2261, 1352.562
800.7082, 1370.773
801.1903, 1379.330
801.6724, 1364.886
802.1545, 1351.090
802.6367, 1365.204
803.1188, 1402.850
803.6009, 1416.771
804.0830, 1363.123
804.5651, 1319.202
805.0472, 1318.566
805.5294, 1359.700
806.0115, 1361.384
806.4936, 1316.671
806.9757, 1276.073
807.4578, 1284.862
807.9399, 1320.385
808.4221, 1327.286
808.9042, 1304.315
809.3863, 1284.374
809.8684, 1287.787
810.3505, 1302.508
810.8326, 1323.267
811.3148, 1354.266
811.7969, 1368.884
812.2790, 1357.591
812.7611, 1340.643
813.2432, 1333.046
813.7253, 1335.560
814.2075, 1328.719
814.6896, 1310.157
815.1717, 1293.893
815.6538, 1300.935
816.1359, 1317.575
816.6180, 1320.823
817.1002, 1304.441
817.5823, 1283.574
818.0644, 1248.342
818.5465, 1221.121
819.0286, 1227.405
819.5107, 1298.900
819.9929, 1337.156
820.4750, 1330.542
820.9571, 1307.085
821.4392, 1298.041
821.9213, 1302.470
822.4034, 1316.484
822.8856, 1343.780
823.3677, 1364.944
823.8498, 1352.110
824.3319, 1322.810
824.8140, 1304.052
825.2961, 1310.730
825.7783, 1317.841
826.2604, 1317.463
826.7425, 1315.529
827.2246, 1321.015
827.7067, 1337.411
828.1888, 1348.032
828.6710, 1349.781
829.1531, 1345.288
829.6352, 1333.220
830.1173, 1317.791
830.5994, 1314.009
831.0815, 1338.458
831.5637, 1359.319
832.0458, 1342.491
832.5279, 1308.450
833.0100, 1296.295
833.4921, 1347.695
833.9742, 1376.906
834.4564, 1362.860
834.9385, 1325.985
835.4206, 1319.211
835.9027, 1344.121
836.3848, 1356.538
836.8669, 1336.557
837.3491, 1305.310
837.8312, 1291.617
838.3133, 1292.002
838.7954, 1297.267
839.2775, 1311.433
839.7596, 1321.294
840.2417, 1315.688
840.7238, 1301.069
841.2059, 1301.733
841.6880, 1328.423
842.1702, 1342.740
842.6523, 1327.833
843.1344, 1298.017
843.6165, 1297.015
844.0986, 1320.339
844.5807, 1339.808
845.0629, 1333.680
845.5450, 1323.885
846.0271, 1330.884
846.5092, 1350.173
846.9913, 1364.864
847.4734, 1370.486
847.9556, 1370.338
848.4377, 1364.424
848.9198, 1353.525
849.4019, 1341.050
849.8840, 1327.194
850.3661, 1309.029
850.8483, 1272.180
851.3304, 1238.780
851.8125, 1260.719
852.2946, 1324.056
852.7767, 1374.102
853.2589, 1379.125
853.7410, 1368.840
854.2231, 1352.157
854.7052, 1330.813
855.1873, 1315.764
855.6694, 1308.197
856.1516, 1304.544
856.6337, 1306.523
857.1158, 1310.442
857.5979, 1297.541
858.0800, 1270.465
858.5621, 1252.629
859.0443, 1263.767
859.5264, 1285.113
860.0085, 1304.791
860.4906, 1321.750
860.9727, 1333.847
861.4548, 1339.253
861.9370, 1340.554
862.4191, 1336.922
862.9012, 1329.410
863.3833, 1325.592
863.8654, 1325.715
864.3475, 1324.782
864.8297, 1319.038
865.3118, 1311.048
865.7939, 1301.887
866.2760, 1293.081
866.7581, 1291.555
867.2402, 1313.185
867.7224, 1330.531
868.2045, 1323.049
868.6866, 1296.367
869.1687, 1294.833
869.6508, 1328.294
870.1329, 1354.826
870.6151, 1351.698
871.0972, 1329.750
871.5793, 1317.709
872.0614, 1314.667
872.5435, 1315.930
873.0256, 1324.278
873.5078, 1331.184
873.9899, 1330.177
874.4720, 1321.942
874.9541, 1313.342
875.4362, 1305.125
875.9183, 1295.906
876.4005, 1281.348
876.8826, 1266.004
877.3647, 1276.341
877.8468, 1310.959
878.3289, 1341.461
878.8110, 1355.223
879.2932, 1355.407
879.7753, 1335.838
880.2574, 1302.968
880.7395, 1283.851
881.2216, 1299.828
881.7037, 1316.793
882.1859, 1322.718
882.6680, 1321.495
883.1501, 1334.901
883.6322, 1365.404
884.1143, 1385.991
884.5964, 1381.012
885.0786, 1362.330
885.5607, 1342.527
886.0428, 1325.074
886.5249, 1320.916
887.0070, 1354.312
887.4891, 1382.177
887.9713, 1383.104
888.4534, 1363.492
888.9355, 1344.184
889.4176, 1321.762
889.8997, 1313.070
890.3818, 1329.666
890.8640, 1356.618
891.3461, 1357.988
891.8282, 1339.607
892.3103, 1323.262
892.7924, 1316.770
893.2745, 1318.149
893.7567, 1332.327
894.2388, 1353.510
894.7209, 1365.438
895.2030, 1362.909
895.6851, 1359.890
896.1672, 1359.080
896.6494, 1359.180
897.1315, 1354.082
897.6136, 1345.925
898.0957, 1348.109
898.5778, 1372.982
899.0599, 1398.518
899.5421, 1407.016
900.0242, 1402.616
900.5063, 1392.783
900.9884, 1370.505
901.4705, 1354.441
901.9526, 1345.952
902.4348, 1345.084
902.9169, 1357.050
903.3990, 1380.771
903.8811, 1393.326
904.3632, 1388.832
904.8453, 1371.714
905.3275, 1329.782
905.8096, 1283.200
906.2917, 1263.281
906.7738, 1303.771
907.2559, 1336.452
907.7380, 1347.878
908.2202, 1349.432
908.7023, 1354.622
909.1844, 1364.045
909.6665, 1368.453
910.1486, 1366.380
910.6307, 1359.952
911.1129, 1344.848
911.5950, 1329.358
912.0771, 1328.121
912.5592, 1351.482
913.0413, 1369.617
913.5234, 1370.479
914.0056, 1363.915
914.4877, 1356.255
914.9698, 1345.338
915.4519, 1345.001
915.9340, 1357.223
916.4161, 1372.663
916.8983, 1386.300
917.3804, 1395.040
917.8625, 1390.006
918.3446, 1368.352
918.8267, 1351.287
919.3088, 1349.100
919.7910, 1355.085
920.2731, 1367.826
920.7552, 1390.834
921.2373, 1392.834
921.7194, 1368.610
922.2015, 1345.162
922.6837, 1348.648
923.1658, 1366.173
923.6479, 1367.675
924.1300, 1352.913
924.6121, 1339.326
925.0942, 1334.172
925.5764, 1334.895
926.0585, 1344.858
926.5406, 1363.276
927.0227, 1364.423
927.5048, 1343.226
927.9869, 1322.393
928.4691, 1310.344
928.9511, 1308.096
929.4332, 1324.557
929.9153, 1355.402
930.3975, 1379.340
930.8796, 1383.383
931.3617, 1379.262
931.8438, 1366.527
932.3259, 1349.408
932.8080, 1346.895
933.2902, 1365.136
933.7723, 1380.830
934.2544, 1387.908
934.7365, 1387.186
935.2186, 1373.412
935.7007, 1352.238
936.1829, 1342.089
936.6650, 1358.565
937.1471, 1379.264
937.6292, 1393.605
938.1113, 1404.076
938.5934, 1418.346
939.0756, 1447.350
939.5577, 1448.930
940.0398, 1409.070
940.5219, 1356.666
941.0040, 1333.887
941.4861, 1335.446
941.9683, 1348.960
942.4504, 1378.083
942.9325, 1398.920
943.4146, 1390.325
943.8967, 1369.869
944.3788, 1356.587
944.8610, 1353.404
945.3431, 1353.941
945.8252, 1360.791
946.3073, 1364.539
946.7894, 1351.524
947.2715, 1328.235
947.7537, 1311.650
948.2358, 1303.394
948.7179, 1305.267
949.2000, 1324.536
949.6821, 1349.668
950.1642, 1377.083
950.6464, 1409.443
951.1285, 1411.807
951.6106, 1373.535
952.0927, 1337.916
952.5748, 1336.393
953.0569, 1357.412
953.5391, 1372.016
954.0212, 1379.994
954.5033, 1381.347
954.9854, 1368.211
955.4675, 1355.929
955.9496, 1354.307
956.4318, 1361.448
956.9139, 1365.591
957.3960, 1367.276
957.8781, 1363.391
958.3602, 1349.682
958.8423, 1333.549
959.3245, 1331.476
959.8066, 1339.555
960.2887, 1346.262
960.7708, 1339.897
961.2529, 1339.024
961.7350, 1355.678
962.2172, 1380.603
962.6993, 1399.108
963.1814, 1410.872
963.6635, 1415.728
964.1456, 1411.577
964.6277, 1406.426
965.1099, 1415.050
965.5920, 1429.195
966.0741, 1431.587
966.5562, 1413.102
967.0383, 1399.195
967.5204, 1403.270
968.0026, 1413.267
968.4847, 1422.738
968.9668, 1435.716
969.4489, 1418.711
969.9310, 1366.112
970.4131, 1320.341
970.8953, 1325.721
971.3774, 1355.849
971.8595, 1373.966
972.3416, 1377.401
972.8237, 1380.747
973.3058, 1396.420
973.7880, 1404.865
974.2701, 1395.345
974.7522, 1371.001
975.2343, 1356.854
975.7164, 1353.101
976.1985, 1353.597
976.6807, 1357.167
977.1628, 1361.816
977.6449, 1365.964
978.1270, 1369.369
978.6091, 1371.277
979.0912, 1364.764
979.5734, 1366.649
980.0555, 1385.863
980.5376, 1408.959
981.0197, 1406.197
981.5018, 1380.350
981.9839, 1366.630
982.4661, 1377.285
982.9482, 1389.354
983.4303, 1371.190
983.9124, 1347.450
984.3945, 1349.362
984.8766, 1409.884
985.3588, 1441.215
985.8409, 1432.633
986.3230, 1412.132
986.8051, 1400.194
987.2872, 1396.935
987.7693, 1408.361
988.2515, 1434.471
988.7336, 1453.460
989.2157, 1443.043
989.6978, 1426.010
990.1799, 1418.724
990.6620, 1422.189
991.1442, 1423.671
991.6263, 1425.091
992.1084, 1417.668
992.5905, 1389.345
993.0726, 1355.542
993.5547, 1358.406
994.0369, 1388.821
994.5190, 1416.669
995.0011, 1434.576
995.4832, 1440.028
995.9653, 1425.553
996.4474, 1400.016
996.9296, 1374.092
997.4117, 1342.841
997.8938, 1345.382
998.3759, 1396.306
998.8580, 1453.933
999.3401, 1463.640
999.8223, 1445.950
1000.304, 1432.389
1000.786, 1430.727
1001.269, 1430.512
1001.751, 1429.022
1002.233, 1428.366
1002.715, 1429.617
1003.197, 1432.739
1003.679, 1442.846
1004.161, 1460.080
1004.643, 1466.188
1005.126, 1430.842
1005.608, 1391.002
1006.090, 1383.326
1006.572, 1405.740
1007.054, 1421.520
1007.536, 1427.812
1008.018, 1423.436
1008.500, 1401.161
1008.982, 1374.098
1009.465, 1384.221
1009.947, 1420.958
1010.429, 1438.634
1010.911, 1403.934
1011.393, 1370.683
1011.875, 1368.750
1012.357, 1388.491
1012.839, 1417.328
1013.322, 1462.867
1013.804, 1490.585
1014.286, 1497.447
1014.768, 1489.280
1015.250, 1464.902
1015.732, 1432.369
1016.214, 1403.423
1016.696, 1378.511
1017.178, 1369.487
1017.661, 1389.864
1018.143, 1420.068
1018.625, 1458.924
1019.107, 1502.509
1019.589, 1496.217
1020.071, 1439.482
1020.553, 1388.084
1021.035, 1374.448
1021.517, 1378.210
1022.000, 1382.807
1022.482, 1388.473
1022.964, 1396.062
1023.446, 1415.540
1023.928, 1418.884
1024.410, 1392.814
1024.892, 1364.386
1025.374, 1386.729
1025.857, 1444.539
1026.339, 1476.938
1026.821, 1468.606
1027.303, 1451.325
1027.785, 1440.066
1028.267, 1432.670
1028.749, 1429.258
1029.231, 1431.672
1029.714, 1419.302
1030.196, 1386.833
1030.678, 1366.783
1031.160, 1395.734
1031.642, 1443.736
1032.124, 1461.894
1032.606, 1454.508
1033.088, 1445.201
1033.570, 1436.839
1034.052, 1435.884
1034.535, 1449.404
1035.017, 1467.248
1035.499, 1463.308
1035.981, 1439.504
1036.463, 1420.839
1036.945, 1414.716
1037.427, 1411.366
1037.909, 1396.175
1038.392, 1382.124
1038.874, 1385.024
1039.356, 1414.304
1039.838, 1441.219
1040.320, 1468.032
1040.802, 1485.848
1041.284, 1480.406
1041.766, 1462.171
1042.249, 1458.582
1042.731, 1468.704
1043.213, 1478.139
1043.695, 1489.372
1044.177, 1487.303
1044.659, 1453.571
1045.141, 1405.143
1045.623, 1400.706
1046.105, 1441.219
1046.588, 1475.425
1047.070, 1488.919
1047.552, 1488.304
1048.034, 1472.851
1048.516, 1451.046
1048.998, 1433.891
1049.480, 1424.186
1049.962, 1419.125
1050.444, 1418.138
1050.927, 1422.457
1051.409, 1439.670
1051.891, 1462.737
1052.373, 1461.049
1052.855, 1436.038
1053.337, 1421.656
1053.819, 1452.067
1054.301, 1482.822
1054.784, 1489.224
1055.266, 1477.623
1055.748, 1471.167
1056.230, 1471.149
1056.712, 1458.776
1057.194, 1420.621
1057.676, 1385.021
1058.158, 1394.654
1058.641, 1425.002
1059.123, 1439.194
1059.605, 1410.909
1060.087, 1401.893
1060.569, 1421.940
1061.051, 1448.755
1061.533, 1462.093
1062.015, 1466.511
1062.497, 1485.768
1062.979, 1518.214
1063.462, 1533.199
1063.944, 1489.833
1064.426, 1446.870
1064.908, 1441.678
1065.390, 1460.630
1065.872, 1455.979
1066.354, 1423.946
1066.836, 1412.921
1067.318, 1444.330
1067.801, 1484.617
1068.283, 1499.101
1068.765, 1493.720
1069.247, 1473.471
1069.729, 1419.968
1070.211, 1397.669
1070.693, 1421.398
1071.175, 1452.225
1071.658, 1460.973
1072.140, 1451.747
1072.622, 1433.365
1073.104, 1408.088
1073.586, 1392.536
1074.068, 1400.296
1074.550, 1414.813
1075.032, 1431.469
1075.515, 1448.408
1075.997, 1467.213
1076.479, 1488.929
1076.961, 1480.041
1077.443, 1421.791
1077.925, 1364.383
1078.407, 1363.491
1078.889, 1393.066
1079.371, 1424.689
1079.854, 1460.654
1080.336, 1474.041
1080.818, 1458.393
1081.300, 1435.849
1081.782, 1417.449
1082.264, 1404.294
1082.746, 1403.948
1083.228, 1412.956
1083.710, 1415.402
1084.193, 1385.533
1084.675, 1371.145
1085.157, 1395.617
1085.639, 1437.731
1086.121, 1457.986
1086.603, 1457.271
1087.085, 1455.681
1087.567, 1456.958
1088.050, 1456.692
1088.532, 1449.396
1089.014, 1439.979
1089.496, 1432.644
1089.978, 1427.769
1090.460, 1424.511
1090.942, 1422.024
1091.424, 1424.997
1091.906, 1443.167
1092.389, 1462.824
1092.871, 1452.201
1093.353, 1423.299
1093.835, 1408.926
1094.317, 1438.713
1094.799, 1456.862
1095.281, 1451.544
1095.763, 1438.420
1096.245, 1435.849
1096.728, 1442.791
1097.210, 1456.798
1097.692, 1477.832
1098.174, 1494.848
1098.656, 1505.443
1099.138, 1504.977
1099.620, 1483.206
1100.102, 1445.662
1100.585, 1431.442
1101.067, 1441.699
1101.549, 1453.141
1102.031, 1455.918
1102.513, 1457.915
1102.995, 1472.441
1103.477, 1490.024
1103.959, 1495.716
1104.442, 1474.974
1104.924, 1465.972
1105.406, 1471.916
1105.888, 1481.170
1106.370, 1489.876
1106.852, 1492.462
1107.334, 1468.503
1107.816, 1422.346
1108.298, 1390.189
1108.781, 1397.745
1109.263, 1408.468
1109.745, 1411.401
1110.227, 1411.840
1110.709, 1423.654
1111.191, 1444.668
1111.673, 1460.960
1112.155, 1468.791
1112.637, 1472.874
1113.120, 1478.576
1113.602, 1479.726
1114.084, 1468.290
1114.566, 1443.119
1115.048, 1434.616
1115.530, 1444.188
1116.012, 1450.280
1116.494, 1434.101
1116.977, 1413.120
1117.459, 1404.197
1117.941, 1404.861
1118.423, 1410.066
1118.905, 1424.146
1119.387, 1431.322
1119.869, 1429.143
1120.351, 1423.082
1120.833, 1418.214
1121.316, 1414.312
1121.798, 1410.375
1122.280, 1406.375
1122.762, 1405.204
1123.244, 1405.188
1123.726, 1412.766
1124.208, 1434.790
1124.690, 1462.580
1125.172, 1470.533
1125.655, 1461.428
1126.137, 1447.155
1126.619, 1430.033
1127.101, 1411.998
1127.583, 1382.026
1128.065, 1361.013
1128.547, 1371.010
1129.029, 1416.797
1129.512, 1440.611
1129.994, 1442.259
1130.476, 1444.195
1130.958, 1467.773
1131.440, 1492.505
1131.922, 1507.181
1132.404, 1508.330
1132.886, 1484.101
1133.369, 1419.361
1133.851, 1380.770
1134.333, 1379.691
1134.815, 1397.682
1135.297, 1423.078
1135.779, 1448.446
1136.261, 1462.279
1136.743, 1462.171
1137.225, 1462.002
1137.708, 1463.940
1138.190, 1465.408
1138.672, 1463.934
1139.154, 1462.896
1139.636, 1471.757
1140.118, 1487.649
1140.600, 1504.337
1141.082, 1530.497
1141.564, 1535.955
1142.047, 1497.856
1142.529, 1452.494
1143.011, 1427.119
1143.493, 1420.280
1143.975, 1420.022
1144.457, 1425.834
1144.939, 1434.405
1145.421, 1451.878
1145.904, 1462.749
1146.386, 1452.078
1146.868, 1431.586
1147.350, 1425.907
1147.832, 1436.188
1148.314, 1429.925
1148.796, 1399.063
1149.278, 1373.016
1149.760, 1387.017
1150.243, 1412.171
1150.725, 1419.012
1151.207, 1405.783
1151.689, 1416.226
1152.171, 1457.616
1152.653, 1482.442
1153.135, 1462.055
1153.617, 1433.386
1154.099, 1457.961
1154.582, 1502.760
1155.064, 1514.847
1155.546, 1450.474
1156.028, 1417.828
1156.510, 1424.552
1156.992, 1444.310
1157.474, 1461.888
1157.956, 1476.765
1158.438, 1489.766
1158.921, 1499.511
1159.403, 1500.452
1159.885, 1480.287
1160.367, 1465.526
1160.849, 1462.698
1161.331, 1463.363
1161.813, 1453.205
1162.295, 1437.019
1162.778, 1431.036
1163.260, 1437.544
1163.742, 1443.295
1164.224, 1438.607
1164.706, 1435.843
1165.188, 1441.908
1165.670, 1452.697
1166.152, 1448.633
1166.635, 1434.365
1167.117, 1440.658
1167.599, 1488.562
1168.081, 1527.777
1168.563, 1516.726
1169.045, 1494.666
1169.527, 1498.623
1170.009, 1529.284
1170.491, 1533.473
1170.974, 1511.797
1171.456, 1487.498
1171.938, 1468.854
1172.420, 1457.644
1172.902, 1462.736
1173.384, 1473.226
1173.866, 1467.979
1174.348, 1442.632
1174.830, 1422.633
1175.313, 1408.832
1175.795, 1409.158
1176.277, 1447.333
1176.759, 1489.970
1177.241, 1500.672
1177.723, 1482.949
1178.205, 1479.898
1178.687, 1498.962
1179.170, 1505.286
1179.652, 1488.024
1180.134, 1464.582
1180.616, 1453.585
1181.098, 1451.049
1181.580, 1452.909
1182.062, 1459.608
1182.544, 1463.212
1183.026, 1461.577
1183.509, 1462.840
1183.991, 1474.059
1184.473, 1486.229
1184.955, 1478.914
1185.437, 1461.258
1185.919, 1451.261
1186.401, 1458.636
1186.883, 1465.967
1187.365, 1473.646
1187.848, 1478.069
1188.330, 1474.722
1188.812, 1466.540
1189.294, 1459.154
1189.776, 1453.245
1190.258, 1451.201
1190.740, 1457.934
1191.222, 1462.767
1191.705, 1462.019
1192.187, 1461.881
1192.669, 1474.079
1193.151, 1492.926
1193.633, 1500.306
1194.115, 1494.930
1194.597, 1493.708
1195.079, 1512.989
1195.562, 1526.152
1196.044, 1522.008
1196.526, 1508.931
1197.008, 1509.190
1197.490, 1517.719
1197.972, 1514.017
1198.454, 1488.995
1198.936, 1471.946
1199.418, 1484.971
1199.901, 1502.170
1200.383, 1511.741
1200.865, 1513.581
1201.347, 1502.066
1201.829, 1480.534
1202.311, 1465.745
1202.793, 1462.009
1203.275, 1471.164
1203.757, 1514.410
1204.240, 1554.391
1204.722, 1555.077
1205.204, 1517.534
1205.686, 1494.470
1206.168, 1485.680
1206.650, 1488.061
1207.132, 1521.171
1207.614, 1541.135
1208.097, 1504.875
1208.579, 1454.364
1209.061, 1455.838
1209.543, 1507.233
1210.025, 1517.355
1210.507, 1477.224
1210.989, 1442.267
1211.471, 1463.249
1211.953, 1490.925
1212.436, 1487.132
1212.918, 1467.454
1213.400, 1481.275
1213.882, 1527.521
1214.364, 1545.930
1214.846, 1519.985
1215.328, 1485.764
1215.810, 1458.691
1216.292, 1446.023
1216.775, 1464.074
1217.257, 1505.344
1217.739, 1497.144
1218.221, 1440.957
1218.703, 1416.072
1219.185, 1466.821
1219.667, 1522.196
1220.149, 1514.135
1220.632, 1491.378
1221.114, 1510.230
1221.596, 1577.467
1222.078, 1598.812
1222.560, 1574.748
1223.042, 1550.139
1223.524, 1555.336
1224.006, 1564.589
1224.489, 1554.908
1224.971, 1539.923
1225.453, 1544.207
1225.935, 1573.701
1226.417, 1572.904
1226.899, 1539.055
1227.381, 1508.974
1227.863, 1518.542
1228.345, 1533.866
1228.828, 1524.091
1229.310, 1502.054
1229.792, 1504.090
1230.274, 1534.124
1230.756, 1540.944
1231.238, 1516.592
1231.720, 1488.290
1232.202, 1476.224
1232.684, 1472.679
1233.167, 1469.382
1233.649, 1469.350
1234.131, 1492.843
1234.613, 1541.825
1235.095, 1566.595
1235.577, 1551.134
1236.059, 1529.031
1236.541, 1525.277
1237.024, 1531.916
1237.506, 1548.333
1237.988, 1571.538
1238.470, 1566.488
1238.952, 1533.094
1239.434, 1518.147
1239.916, 1549.299
1240.398, 1580.417
1240.880, 1569.804
1241.363, 1543.005
1241.845, 1522.860
1242.327, 1509.267
1242.809, 1522.117
1243.291, 1560.896
1243.773, 1587.674
1244.255, 1571.012
1244.737, 1551.244
1245.219, 1559.022
1245.702, 1577.554
1246.184, 1586.526
1246.666, 1586.197
1247.148, 1568.628
1247.630, 1534.716
1248.112, 1508.619
1248.594, 1508.685
1249.076, 1519.089
1249.558, 1537.645
1250.041, 1557.069
1250.523, 1565.993
1251.005, 1564.397
1251.487, 1558.229
1251.969, 1547.900
1252.451, 1539.219
1252.933, 1532.753
1253.415, 1532.908
1253.898, 1547.193
1254.380, 1567.294
1254.862, 1574.880
1255.344, 1571.717
1255.826, 1578.912
1256.308, 1600.594
1256.790, 1618.035
1257.272, 1618.932
1257.755, 1611.752
1258.237, 1598.974
1258.719, 1583.516
1259.201, 1572.210
1259.683, 1565.408
1260.165, 1568.034
1260.647, 1584.902
1261.129, 1591.895
1261.611, 1552.515
1262.094, 1526.919
1262.576, 1554.807
1263.058, 1615.012
1263.540, 1629.380
1264.022, 1608.009
1264.504, 1588.139
1264.986, 1581.493
1265.468, 1577.309
1265.950, 1567.915
1266.433, 1565.455
1266.915, 1584.500
1267.397, 1613.365
1267.879, 1597.781
1268.361, 1552.713
1268.843, 1527.087
1269.325, 1556.202
1269.807, 1575.770
1270.290, 1569.585
1270.772, 1562.910
1271.254, 1578.987
1271.736, 1608.244
1272.218, 1622.904
1272.700, 1625.941
1273.182, 1627.373
1273.664, 1636.136
1274.146, 1632.638
1274.629, 1609.399
1275.111, 1588.371
1275.593, 1595.864
1276.075, 1617.391
1276.557, 1627.879
1277.039, 1628.144
1277.521, 1625.551
1278.003, 1616.509
1278.485, 1616.690
1278.968, 1629.830
1279.450, 1645.356
1279.932, 1654.078
1280.414, 1657.152
1280.896, 1655.843
1281.378, 1650.134
1281.860, 1639.032
1282.342, 1619.691
1282.825, 1605.616
1283.307, 1598.414
1283.789, 1600.443
1284.271, 1625.102
1284.753, 1651.994
1285.235, 1656.194
1285.717, 1639.722
1286.199, 1638.757
1286.682, 1656.440
1287.164, 1658.031
1287.646, 1631.143
1288.128, 1607.307
1288.610, 1620.555
1289.092, 1646.027
1289.574, 1666.873
1290.056, 1681.032
1290.538, 1673.526
1291.021, 1645.660
1291.503, 1625.870
1291.985, 1622.695
1292.467, 1628.311
1292.949, 1652.342
1293.431, 1668.082
1293.913, 1650.133
1294.395, 1609.173
1294.877, 1611.422
1295.360, 1648.658
1295.842, 1676.484
1296.324, 1677.230
1296.806, 1672.992
1297.288, 1675.079
##END=



