##NAMES=Bahianite
##RRUFFID=R060433
##IDEAL CHEMISTRY=Al_5_Sb^5+^_3_O_14_(OH)_2_
##LOCALITY=Paramirim Region, Bahia, Brazil
##OWNER=RRUFF
##SOURCE=Michael Scott
##DESCRIPTION=Tan colored water-worn polycrystalline pebble
##STATUS=The identification of this mineral is confirmed by single-crystal X-ray diffraction and chemical analysis.
##URL=rruff.info/R060433
##MEASURED CHEMISTRY=lighter phase: (Al_4.89_Fe^3+^_0.10_[box]_0.01_)_Σ=5_(Sb^5+^_2.97_W_0.03_)_Σ=3_O_14_(OH)_2_ ; darker phase: (Al_4.91_Fe^3+^_0.09_)_Σ=5_Sb^5+^_3.00_O_14_(OH)_2_
134.4781, 41.21638
134.9602, 41.10286
135.4423, 41.44708
135.9244, 42.05721
136.4065, 42.69599
136.8886, 43.23225
137.3708, 43.66738
137.8529, 43.97691
138.3350, 44.03990
138.8171, 44.09039
139.2992, 44.10242
139.7813, 44.13755
140.2635, 44.29946
140.7456, 44.67060
141.2277, 45.26209
141.7098, 46.06311
142.1919, 47.12324
142.6740, 48.29814
143.1561, 49.55341
143.6383, 50.86772
144.1204, 52.18560
144.6025, 53.44276
145.0846, 54.62366
145.5667, 55.85352
146.0488, 57.31462
146.5310, 58.74323
147.0131, 59.88081
147.4952, 60.68715
147.9773, 61.18365
148.4594, 61.22403
148.9415, 60.89333
149.4237, 60.62394
149.9058, 60.54081
150.3879, 60.63475
150.8700, 60.90384
151.3521, 61.43715
151.8342, 62.03657
152.3164, 62.48657
152.7985, 62.81237
153.2806, 63.22683
153.7627, 63.87795
154.2448, 64.76823
154.7269, 65.80672
155.2091, 67.18140
155.6912, 68.55449
156.1733, 69.73730
156.6554, 70.72590
157.1375, 71.64281
157.6196, 72.56442
158.1018, 73.34483
158.5839, 74.59412
159.0660, 76.25842
159.5481, 78.37922
160.0302, 81.11195
160.5123, 84.44966
160.9945, 88.13384
161.4766, 91.67041
161.9587, 94.81985
162.4408, 98.24719
162.9229, 102.7967
163.4050, 107.2063
163.8871, 110.5763
164.3693, 112.5651
164.8514, 112.9405
165.3335, 110.9799
165.8156, 105.7400
166.2977, 99.50031
166.7798, 91.58093
167.2620, 82.92311
167.7441, 74.90775
168.2262, 68.09924
168.7083, 62.37376
169.1904, 57.52311
169.6725, 53.53094
170.1547, 50.13457
170.6368, 47.25278
171.1189, 44.89888
171.6010, 43.16089
172.0831, 42.21596
172.5652, 41.87178
173.0474, 41.58506
173.5295, 41.37703
174.0116, 41.18660
174.4937, 40.92749
174.9758, 40.59941
175.4579, 40.38092
175.9401, 40.26382
176.4222, 40.36203
176.9043, 40.85389
177.3864, 41.86582
177.8685, 43.06007
178.3506, 43.98249
178.8328, 44.53236
179.3149, 45.17940
179.7970, 46.14000
180.2791, 47.24165
180.7612, 48.36817
181.2433, 49.49817
181.7255, 50.57947
182.2076, 51.50227
182.6897, 52.22540
183.1718, 52.84300
183.6539, 53.30761
184.1360, 53.72569
184.6181, 54.23127
185.1003, 54.89868
185.5824, 55.64235
186.0645, 56.14259
186.5466, 56.05022
187.0287, 56.13686
187.5108, 56.43123
187.9930, 56.97155
188.4751, 57.88691
188.9572, 59.27222
189.4393, 60.98188
189.9214, 62.17283
190.4035, 62.05580
190.8857, 62.29429
191.3678, 63.19430
191.8499, 64.65730
192.3320, 66.54967
192.8141, 68.84428
193.2962, 71.46329
193.7784, 73.82778
194.2605, 75.48347
194.7426, 77.41793
195.2247, 80.07168
195.7068, 83.30087
196.1889, 86.73186
196.6711, 90.22328
197.1532, 93.69313
197.6353, 96.81015
198.1174, 100.2397
198.5995, 102.7924
199.0816, 103.5550
199.5638, 102.7032
200.0459, 101.4822
200.5280, 100.8982
201.0101, 100.2727
201.4922, 98.02470
201.9743, 93.63657
202.4565, 88.06345
202.9386, 81.56914
203.4207, 74.09560
203.9028, 67.25472
204.3849, 61.90596
204.8670, 57.83149
205.3492, 54.84044
205.8313, 53.09427
206.3134, 52.17749
206.7955, 51.67199
207.2776, 51.60376
207.7597, 51.83248
208.2419, 52.59197
208.7240, 53.50792
209.2061, 54.17920
209.6882, 54.40460
210.1703, 54.48284
210.6524, 54.91877
211.1346, 55.76412
211.6167, 56.84975
212.0988, 58.20793
212.5809, 59.70708
213.0630, 61.22821
213.5451, 62.70780
214.0273, 64.21467
214.5094, 65.92917
214.9915, 68.04562
215.4736, 70.01743
215.9557, 71.67941
216.4378, 73.19978
216.9200, 74.77926
217.4021, 76.50205
217.8842, 78.27684
218.3663, 79.83412
218.8484, 81.16474
219.3305, 82.24162
219.8127, 83.47419
220.2948, 84.32812
220.7769, 84.22265
221.2590, 82.89335
221.7411, 80.55486
222.2232, 77.82363
222.7054, 74.05674
223.1875, 70.65897
223.6696, 67.78760
224.1517, 65.29100
224.6338, 62.99934
225.1159, 60.82656
225.5980, 58.82696
226.0802, 57.16647
226.5623, 55.98309
227.0444, 55.00125
227.5265, 54.20515
228.0086, 53.60149
228.4907, 53.26369
228.9729, 53.23354
229.4550, 53.37830
229.9371, 53.34896
230.4192, 52.95877
230.9013, 52.69534
231.3834, 52.53365
231.8656, 52.56612
232.3477, 52.98132
232.8298, 53.88189
233.3119, 55.07037
233.7940, 56.09861
234.2761, 56.76524
234.7583, 57.76591
235.2404, 59.21580
235.7225, 61.11909
236.2046, 63.48028
236.6867, 66.30869
237.1688, 69.62782
237.6510, 73.71232
238.1331, 78.63448
238.6152, 83.47903
239.0973, 88.32249
239.5794, 92.85816
240.0615, 96.32618
240.5437, 98.39893
241.0258, 99.61359
241.5079, 100.5691
241.9900, 101.2764
242.4721, 101.9680
242.9542, 102.6159
243.4364, 103.3160
243.9185, 104.3288
244.4006, 105.7477
244.8827, 107.4264
245.3648, 109.1614
245.8469, 110.9607
246.3290, 113.0007
246.8112, 115.4261
247.2933, 118.1540
247.7754, 120.9873
248.2575, 123.8701
248.7396, 126.9154
249.2217, 130.1599
249.7039, 133.5967
250.1860, 137.2175
250.6681, 140.6460
251.1502, 144.1794
251.6323, 148.9639
252.1144, 155.0032
252.5966, 162.4936
253.0787, 171.0822
253.5608, 180.9028
254.0429, 192.5169
254.5250, 207.0691
255.0071, 223.6457
255.4893, 239.3333
255.9714, 255.9409
256.4535, 268.1388
256.9356, 275.8580
257.4177, 278.2350
257.8998, 273.5260
258.3820, 259.7570
258.8641, 238.6725
259.3462, 215.7984
259.8283, 188.6786
260.3104, 164.0027
260.7925, 142.8172
261.2747, 124.9969
261.7568, 110.6198
262.2389, 99.85889
262.7210, 92.10684
263.2031, 85.55607
263.6852, 80.47983
264.1674, 76.29176
264.6495, 72.99494
265.1316, 70.28817
265.6137, 67.90141
266.0958, 65.72280
266.5779, 63.77187
267.0601, 62.10251
267.5422, 60.72628
268.0243, 59.67190
268.5064, 59.02903
268.9885, 58.59886
269.4706, 58.21117
269.9528, 57.80562
270.4349, 57.44263
270.9170, 57.23870
271.3991, 57.23169
271.8812, 57.33015
272.3633, 57.40204
272.8455, 57.62965
273.3276, 58.18729
273.8097, 59.10192
274.2918, 60.22506
274.7739, 61.33399
275.2560, 62.38063
275.7382, 63.52539
276.2202, 64.99256
276.7024, 66.37505
277.1845, 67.42093
277.6666, 68.09992
278.1487, 68.53454
278.6308, 68.83482
279.1129, 68.88992
279.5951, 69.20533
280.0772, 69.83925
280.5593, 70.62855
281.0414, 71.55343
281.5235, 72.57174
282.0056, 73.58730
282.4878, 74.48898
282.9699, 75.24110
283.4520, 76.18919
283.9341, 77.49938
284.4162, 78.81869
284.8983, 79.80362
285.3805, 80.64869
285.8626, 81.93379
286.3447, 84.20479
286.8268, 87.42409
287.3089, 89.74881
287.7910, 90.02450
288.2732, 90.71143
288.7553, 92.56722
289.2374, 95.34246
289.7195, 98.51186
290.2016, 101.7860
290.6837, 105.1336
291.1659, 108.4781
291.6480, 112.5533
292.1301, 115.7461
292.6122, 117.9058
293.0943, 118.9898
293.5764, 119.0169
294.0586, 118.0020
294.5407, 115.2425
295.0228, 112.1969
295.5049, 106.1748
295.9870, 99.66936
296.4691, 91.98289
296.9513, 84.17106
297.4334, 77.22598
297.9155, 71.51537
298.3976, 66.93672
298.8797, 63.38005
299.3618, 61.34515
299.8440, 59.56163
300.3261, 58.09925
300.8082, 56.84946
301.2903, 55.64766
301.7724, 54.49648
302.2545, 53.61479
302.7367, 53.30109
303.2188, 53.76757
303.7009, 54.01986
304.1830, 54.00221
304.6651, 53.84103
305.1472, 53.49788
305.6294, 53.04113
306.1115, 52.71734
306.5936, 52.76122
307.0757, 53.19977
307.5578, 53.51628
308.0399, 53.42681
308.5221, 53.51412
309.0042, 54.13766
309.4863, 55.15938
309.9684, 56.21276
310.4505, 57.07827
310.9326, 57.76328
311.4148, 58.27489
311.8969, 58.37415
312.3790, 58.60543
312.8611, 59.12395
313.3432, 59.85426
313.8253, 60.64494
314.3075, 61.41518
314.7896, 62.27060
315.2717, 63.51303
315.7538, 65.70818
316.2359, 67.47682
316.7180, 68.59945
317.2001, 69.29240
317.6823, 69.76682
318.1644, 70.08933
318.6465, 70.23240
319.1286, 70.14462
319.6107, 69.72334
320.0928, 69.28251
320.5750, 69.09336
321.0571, 68.69979
321.5392, 67.62228
322.0213, 65.87857
322.5034, 63.98346
322.9855, 62.50126
323.4677, 61.53432
323.9498, 60.07402
324.4319, 57.53590
324.9140, 55.11895
325.3961, 53.40527
325.8782, 52.33379
326.3604, 51.55888
326.8425, 50.85857
327.3246, 50.23677
327.8067, 49.72833
328.2888, 49.42231
328.7709, 49.11160
329.2531, 48.72745
329.7352, 48.30873
330.2173, 47.90123
330.6994, 47.52200
331.1815, 47.20574
331.6636, 47.04674
332.1458, 47.08911
332.6279, 47.25207
333.1100, 47.60781
333.5921, 48.04538
334.0742, 48.43550
334.5563, 48.74626
335.0385, 49.08512
335.5206, 49.62165
336.0027, 50.50604
336.4848, 51.19995
336.9669, 51.70039
337.4490, 52.04350
337.9312, 52.17727
338.4133, 52.14867
338.8954, 52.10630
339.3775, 52.16188
339.8596, 52.29707
340.3417, 52.78129
340.8239, 54.12262
341.3060, 55.23927
341.7881, 55.61211
342.2702, 55.47182
342.7523, 55.28108
343.2344, 55.30671
343.7166, 55.55647
344.1987, 56.07236
344.6808, 57.20913
345.1629, 58.22335
345.6450, 58.90831
346.1271, 59.48903
346.6093, 60.19857
347.0914, 61.12086
347.5735, 62.22583
348.0556, 63.44338
348.5377, 64.81197
349.0198, 66.24915
349.5020, 67.72546
349.9841, 69.28036
350.4662, 71.12344
350.9483, 73.15487
351.4304, 74.91403
351.9125, 75.88392
352.3947, 75.99426
352.8768, 75.76494
353.3589, 75.40321
353.8410, 74.50628
354.3231, 72.63071
354.8052, 70.10600
355.2874, 67.58085
355.7695, 65.50666
356.2516, 63.79735
356.7337, 61.87779
357.2158, 59.17059
357.6979, 57.08046
358.1800, 56.16677
358.6621, 55.81921
359.1443, 55.39632
359.6264, 54.64822
360.1085, 53.74519
360.5906, 52.95832
361.0727, 52.24973
361.5548, 51.77089
362.0370, 51.60432
362.5191, 51.60253
363.0012, 51.73006
363.4833, 51.95754
363.9654, 52.20636
364.4475, 52.38762
364.9297, 52.49408
365.4118, 52.65268
365.8939, 52.86998
366.3760, 53.13903
366.8581, 53.34329
367.3402, 53.59734
367.8224, 54.15196
368.3045, 55.23025
368.7866, 56.64057
369.2687, 57.81795
369.7508, 58.68307
370.2329, 59.47664
370.7151, 60.25593
371.1972, 61.02401
371.6793, 61.77308
372.1614, 62.48579
372.6435, 63.24958
373.1256, 64.28185
373.6078, 65.62468
374.0899, 66.59780
374.5720, 66.80371
375.0541, 66.80238
375.5362, 66.99214
376.0183, 67.37535
376.5005, 67.78897
376.9826, 68.13030
377.4647, 68.41733
377.9468, 68.70492
378.4289, 68.96519
378.9110, 69.29600
379.3932, 69.79301
379.8753, 70.40107
380.3574, 71.01759
380.8395, 71.52546
381.3216, 72.10767
381.8037, 73.00650
382.2859, 74.22739
382.7680, 75.56461
383.2501, 76.96983
383.7322, 78.42156
384.2143, 79.89009
384.6964, 81.36662
385.1786, 82.86356
385.6607, 84.47143
386.1428, 86.09483
386.6249, 87.44598
387.1070, 88.39090
387.5891, 89.22899
388.0713, 90.45551
388.5534, 92.02353
389.0355, 93.13149
389.5176, 93.03723
389.9997, 92.77065
390.4818, 93.38762
390.9640, 94.92345
391.4461, 96.77310
391.9282, 98.52864
392.4103, 100.2745
392.8924, 102.4033
393.3745, 105.1153
393.8567, 107.9547
394.3388, 110.8280
394.8209, 113.6912
395.3030, 116.4199
395.7851, 118.9917
396.2672, 121.4259
396.7494, 123.7586
397.2315, 125.8260
397.7136, 128.1836
398.1957, 131.0917
398.6778, 134.1610
399.1599, 137.0246
399.6420, 139.6821
400.1241, 142.4328
400.6063, 145.5431
401.0884, 149.0345
401.5705, 152.5768
402.0526, 156.0332
402.5347, 159.6851
403.0168, 163.8586
403.4990, 168.2442
403.9811, 172.2162
404.4632, 175.4494
404.9453, 178.3917
405.4274, 182.1587
405.9095, 187.4084
406.3917, 192.3652
406.8738, 196.8518
407.3559, 201.1303
407.8380, 205.5321
408.3201, 210.0104
408.8022, 214.1945
409.2844, 217.8886
409.7665, 221.1238
410.2486, 223.0305
410.7307, 223.5742
411.2128, 222.6342
411.6949, 220.3067
412.1771, 216.4609
412.6592, 210.7986
413.1413, 203.0798
413.6234, 193.7835
414.1055, 183.7786
414.5876, 172.7652
415.0698, 161.8058
415.5519, 150.6319
416.0340, 139.9940
416.5161, 130.3930
416.9982, 121.8571
417.4803, 114.4057
417.9625, 108.2285
418.4446, 103.2159
418.9267, 98.39587
419.4088, 93.56973
419.8909, 89.25144
420.3730, 85.90588
420.8552, 83.27512
421.3373, 80.94991
421.8194, 78.96145
422.3015, 77.04597
422.7836, 74.78452
423.2657, 72.18900
423.7479, 69.83493
424.2300, 67.90379
424.7121, 66.41003
425.1942, 65.34200
425.6763, 64.76591
426.1584, 64.26264
426.6406, 63.66118
427.1227, 63.01311
427.6048, 62.38288
428.0869, 61.77060
428.5690, 61.26451
429.0511, 60.99500
429.5333, 60.95919
430.0154, 60.76867
430.4975, 60.20235
430.9796, 59.68745
431.4617, 59.54051
431.9438, 59.64193
432.4260, 59.66241
432.9081, 59.44063
433.3902, 59.07521
433.8723, 58.79667
434.3544, 58.63632
434.8365, 58.51875
435.3187, 58.49908
435.8008, 58.48273
436.2829, 58.36638
436.7650, 58.15551
437.2471, 57.94595
437.7292, 57.81311
438.2114, 57.75404
438.6935, 57.87704
439.1756, 58.38946
439.6577, 58.85703
440.1398, 59.21844
440.6219, 59.46482
441.1040, 59.55929
441.5862, 59.48735
442.0683, 59.34942
442.5504, 59.31422
443.0325, 59.37424
443.5146, 59.56368
443.9967, 59.84533
444.4789, 60.29317
444.9610, 61.07178
445.4431, 62.08513
445.9252, 63.01809
446.4073, 63.59584
446.8894, 63.91386
447.3716, 64.35225
447.8537, 64.97193
448.3358, 65.55790
448.8179, 66.03115
449.3000, 66.41619
449.7821, 66.72854
450.2643, 66.96854
450.7464, 67.14818
451.2285, 67.15650
451.7106, 67.07203
452.1927, 67.33451
452.6748, 68.13005
453.1570, 69.08186
453.6391, 69.85155
454.1212, 70.46513
454.6033, 70.98558
455.0854, 71.25218
455.5675, 71.55746
456.0497, 72.22126
456.5318, 73.19604
457.0139, 74.16245
457.4960, 74.92884
457.9781, 75.62088
458.4602, 76.61020
458.9424, 78.02493
459.4245, 79.41035
459.9066, 80.61337
460.3887, 81.78704
460.8708, 83.12309
461.3529, 84.63123
461.8351, 86.14680
462.3172, 87.54117
462.7993, 88.80811
463.2814, 89.87766
463.7635, 90.51424
464.2456, 91.23707
464.7278, 92.20570
465.2099, 93.33662
465.6920, 94.46426
466.1741, 95.53567
466.6562, 96.69798
467.1383, 98.23611
467.6205, 100.3112
468.1026, 102.3034
468.5847, 103.6049
469.0668, 105.3601
469.5489, 108.2821
470.0310, 112.1237
470.5132, 116.0888
470.9953, 119.5996
471.4774, 122.9997
471.9595, 127.1257
472.4416, 131.9711
472.9237, 137.5490
473.4059, 144.3901
473.8880, 151.6593
474.3701, 158.8664
474.8522, 165.9479
475.3343, 172.2276
475.8164, 177.4114
476.2986, 181.4096
476.7807, 184.2670
477.2628, 186.1325
477.7449, 186.0210
478.2270, 183.0910
478.7091, 177.3649
479.1913, 169.6874
479.6734, 158.7738
480.1555, 147.4035
480.6376, 136.3061
481.1197, 125.8654
481.6018, 116.8654
482.0839, 109.5717
482.5660, 103.6525
483.0482, 98.60197
483.5303, 94.39989
484.0124, 91.55794
484.4945, 90.68663
484.9766, 90.51186
485.4587, 90.70033
485.9409, 91.01841
486.4230, 90.98477
486.9051, 90.27499
487.3872, 89.37481
487.8693, 89.74782
488.3514, 92.14686
488.8336, 94.45810
489.3157, 96.55167
489.7978, 98.50048
490.2799, 100.2333
490.7620, 101.8265
491.2441, 103.5300
491.7263, 105.5496
492.2084, 107.8395
492.6905, 110.1442
493.1726, 112.3456
493.6547, 114.8363
494.1368, 118.0184
494.6190, 121.4362
495.1011, 124.7485
495.5832, 127.9377
496.0653, 130.6638
496.5474, 132.5433
497.0295, 133.7319
497.5117, 134.6677
497.9938, 135.4074
498.4759, 135.9213
498.9580, 136.1715
499.4401, 136.1589
499.9222, 135.9560
500.4044, 135.5760
500.8865, 134.9970
501.3686, 134.2179
501.8507, 133.2281
502.3328, 131.9163
502.8149, 130.2357
503.2971, 128.4779
503.7792, 127.0970
504.2613, 126.2938
504.7434, 125.0846
505.2255, 122.8583
505.7076, 120.8743
506.1898, 119.9379
506.6719, 119.6825
507.1540, 119.3136
507.6361, 118.4113
508.1182, 117.1926
508.6003, 116.1518
509.0825, 115.3152
509.5646, 114.5842
510.0467, 113.6437
510.5288, 113.0695
511.0109, 113.4294
511.4930, 114.5017
511.9752, 115.4673
512.4573, 115.7942
512.9394, 115.6874
513.4215, 115.5272
513.9036, 115.2609
514.3857, 115.2824
514.8679, 115.8813
515.3500, 116.7577
515.8321, 117.4375
516.3142, 117.8591
516.7963, 118.5695
517.2784, 120.1185
517.7606, 121.9523
518.2427, 123.1541
518.7248, 123.6867
519.2069, 124.4674
519.6890, 126.2507
520.1711, 128.7291
520.6533, 130.2836
521.1354, 130.2148
521.6175, 130.3226
522.0996, 130.9795
522.5817, 131.9013
523.0638, 132.6068
523.5460, 133.1342
524.0281, 134.2266
524.5102, 136.7538
524.9923, 140.6423
525.4744, 143.5377
525.9565, 144.3018
526.4387, 145.5118
526.9208, 147.7075
527.4029, 150.5770
527.8850, 153.9459
528.3671, 157.7286
528.8492, 161.4796
529.3314, 164.5668
529.8135, 167.0904
530.2956, 170.2941
530.7777, 174.8309
531.2598, 178.8102
531.7419, 180.9381
532.2241, 181.7496
532.7062, 182.0813
533.1883, 182.4470
533.6704, 181.5911
534.1525, 178.2879
534.6346, 173.1620
535.1168, 167.5714
535.5989, 161.8084
536.0810, 155.7238
536.5631, 149.1273
537.0452, 141.9652
537.5273, 135.0229
538.0095, 128.1838
538.4916, 121.6482
538.9737, 115.2708
539.4558, 109.2869
539.9379, 104.0230
540.4200, 99.58854
540.9022, 95.81393
541.3843, 92.53275
541.8664, 89.78303
542.3485, 87.30976
542.8306, 85.19217
543.3127, 83.30652
543.7948, 81.71122
544.2769, 80.30187
544.7590, 78.92958
545.2411, 77.53020
545.7233, 76.19751
546.2054, 75.06234
546.6875, 74.11556
547.1696, 73.31432
547.6517, 72.72607
548.1339, 72.14293
548.6160, 71.26095
549.0981, 70.22892
549.5802, 69.49373
550.0623, 69.39742
550.5444, 69.34768
551.0266, 68.95374
551.5087, 68.31851
551.9908, 67.62541
552.4729, 66.92173
552.9550, 66.33259
553.4371, 66.03292
553.9193, 66.07848
554.4014, 66.08260
554.8835, 66.10429
555.3656, 66.02781
555.8477, 65.73743
556.3298, 65.34618
556.8120, 64.95295
557.2941, 64.60561
557.7762, 64.46247
558.2583, 64.89726
558.7404, 66.03661
559.2225, 66.66216
559.7047, 66.48980
560.1868, 66.10048
560.6689, 65.61835
561.1510, 65.16379
561.6331, 64.94804
562.1152, 65.07168
562.5974, 65.34589
563.0795, 65.73026
563.5616, 66.13875
564.0437, 66.20650
564.5258, 65.80928
565.0079, 65.30733
565.4901, 65.03395
565.9722, 64.97757
566.4543, 64.81656
566.9364, 64.71658
567.4185, 64.32760
567.9006, 63.23638
568.3828, 61.88290
568.8649, 60.96058
569.3470, 60.61813
569.8291, 60.34240
570.3112, 59.52180
570.7933, 58.11280
571.2755, 56.88704
571.7576, 55.86728
572.2397, 55.01459
572.7218, 54.54858
573.2039, 54.12026
573.6860, 53.23846
574.1682, 51.79339
574.6503, 50.37201
575.1324, 49.57571
575.6145, 49.28276
576.0966, 48.97874
576.5787, 48.64988
577.0609, 48.23779
577.5430, 47.65637
578.0251, 46.98384
578.5072, 46.39317
578.9893, 45.83566
579.4714, 45.47790
579.9536, 45.45483
580.4357, 45.62947
580.9178, 45.97820
581.3999, 46.42115
581.8820, 46.55440
582.3641, 46.01274
582.8463, 44.94720
583.3284, 44.23362
583.8105, 44.05541
584.2926, 43.98496
584.7747, 44.07936
585.2568, 44.19511
585.7390, 44.21103
586.2211, 44.13491
586.7032, 44.07092
587.1853, 44.12077
587.6674, 44.21601
588.1495, 44.17549
588.6317, 43.99376
589.1138, 43.69195
589.5959, 43.15951
590.0780, 42.61998
590.5601, 42.42624
591.0422, 42.57019
591.5244, 42.46827
592.0065, 41.72883
592.4886, 40.83603
592.9707, 40.16442
593.4528, 39.72066
593.9349, 39.48241
594.4171, 39.45565
594.8992, 39.52296
595.3813, 39.47480
595.8634, 39.25357
596.3455, 39.08532
596.8276, 39.05627
597.3098, 38.98238
597.7919, 38.79920
598.2740, 38.51416
598.7561, 38.08612
599.2382, 37.48542
599.7203, 36.96919
600.2025, 36.99934
600.6846, 37.55441
601.1667, 37.80463
601.6488, 37.58278
602.1309, 37.21881
602.6130, 36.77003
603.0952, 36.36209
603.5773, 36.33948
604.0594, 37.07442
604.5415, 37.57412
605.0236, 37.07915
605.5057, 36.12523
605.9879, 35.48427
606.4700, 35.29412
606.9521, 35.42918
607.4342, 35.84795
607.9163, 36.47987
608.3984, 36.78538
608.8806, 36.37523
609.3627, 36.16672
609.8448, 36.50600
610.3269, 36.86723
610.8090, 36.77916
611.2911, 36.27930
611.7733, 35.76319
612.2554, 35.46435
612.7375, 35.37045
613.2196, 35.54271
613.7017, 36.02675
614.1838, 36.28783
614.6660, 36.09381
615.1481, 35.69812
615.6302, 35.36297
616.1123, 35.08442
616.5944, 34.85161
617.0765, 34.50568
617.5587, 34.35207
618.0408, 34.82904
618.5229, 35.62781
619.0050, 36.02094
619.4871, 35.76098
619.9692, 35.27742
620.4514, 35.13829
620.9335, 35.37685
621.4156, 35.70837
621.8977, 36.38371
622.3798, 36.84740
622.8619, 36.79894
623.3441, 36.54479
623.8262, 36.45026
624.3083, 36.59906
624.7904, 36.76597
625.2725, 36.76296
625.7546, 36.63157
626.2367, 36.45102
626.7188, 36.21352
627.2009, 36.06938
627.6830, 36.12580
