##NAMES=Barrerite
##RRUFFID=R050135
##IDEAL CHEMISTRY=Na_2_(Al_2_Si_7_)O_18_&#183;6H_2_O
##LOCALITY=Kuiu Island, Alaska, USA
##OWNER=RRUFF
##SOURCE=Ben Norton
##DESCRIPTION=Colorless laminar crystals
##STATUS=The identification of this mineral has been confirmed by X-ray diffraction and chemical analysis
##URL=rruff.info/R050135
##MEASURED CHEMISTRY=(Na_4.49_K_1.30_Ca_1.23_[box]_0.98_)_Σ=8_(Si_27.75_Al_8.25_)O_72_·19H_2_O
93.56738, 244.1636
94.04950, 242.7810
94.53162, 243.7485
95.01373, 244.7262
95.49585, 246.8286
95.97797, 248.7741
96.46008, 248.9893
96.94220, 247.5851
97.42432, 246.2227
97.90643, 245.5536
98.38855, 244.6569
98.87067, 242.8691
99.35278, 240.0951
99.83490, 236.9315
100.3170, 234.5568
100.7991, 233.4119
101.2813, 231.8297
101.7634, 229.2168
102.2455, 226.3120
102.7276, 224.0357
103.2097, 222.9117
103.6918, 222.6939
104.1740, 221.9895
104.6561, 220.0997
105.1382, 218.5471
105.6203, 218.1260
106.1024, 218.6381
106.5845, 219.1300
107.0667, 218.9008
107.5488, 218.0535
108.0309, 217.2494
108.5130, 216.5527
108.9951, 215.8916
109.4772, 215.1847
109.9594, 214.4125
110.4415, 213.6140
110.9236, 212.6326
111.4057, 211.6201
111.8878, 210.9257
112.3699, 210.8536
112.8521, 211.3228
113.3342, 211.7413
113.8163, 212.2000
114.2984, 212.4874
114.7805, 212.2281
115.2626, 211.6313
115.7447, 211.3338
116.2269, 212.2105
116.7090, 214.9169
117.1911, 216.4357
117.6732, 215.7911
118.1553, 214.8647
118.6374, 214.6993
119.1196, 215.4887
119.6017, 216.7196
120.0838, 217.5600
120.5659, 217.7440
121.0480, 217.8756
121.5301, 217.8991
122.0123, 217.8887
122.4944, 217.8973
122.9765, 217.9354
123.4586, 218.0474
123.9407, 218.4791
124.4228, 219.7954
124.9050, 220.3746
125.3871, 219.2020
125.8692, 216.7343
126.3513, 214.4078
126.8334, 212.8254
127.3155, 211.9108
127.7977, 211.3311
128.2798, 211.2872
128.7619, 211.2608
129.2440, 210.8308
129.7261, 209.9968
130.2083, 208.7682
130.6904, 206.6790
131.1725, 204.3665
131.6546, 202.4180
132.1367, 201.1107
132.6188, 200.2468
133.1010, 199.4234
133.5831, 198.9272
134.0652, 197.9519
134.5473, 195.9036
135.0294, 193.3741
135.5115, 191.1898
135.9936, 189.9606
136.4758, 189.5956
136.9579, 188.7075
137.4400, 186.6348
137.9221, 184.6469
138.4042, 183.0024
138.8863, 181.7054
139.3685, 180.6851
139.8506, 179.9360
140.3327, 179.5503
140.8148, 178.6819
141.2969, 177.0039
141.7790, 175.2126
142.2612, 173.6723
142.7433, 172.4230
143.2254, 171.3404
143.7075, 170.3222
144.1896, 169.3885
144.6717, 168.3836
145.1539, 167.2918
145.6360, 166.1251
146.1181, 164.8502
146.6002, 163.4171
147.0823, 162.0561
147.5644, 161.2103
148.0466, 160.8050
148.5287, 160.1676
149.0108, 158.7690
149.4929, 156.8836
149.9750, 155.4472
150.4571, 154.8739
150.9393, 154.5198
151.4214, 153.7906
151.9035, 152.7089
152.3856, 151.6217
152.8677, 150.8305
153.3498, 150.3602
153.8320, 149.8460
154.3141, 149.2823
154.7962, 148.6163
155.2783, 147.7841
155.7604, 146.7851
156.2425, 145.7158
156.7247, 144.7310
157.2068, 143.9373
157.6889, 142.9287
158.1710, 141.4468
158.6531, 139.9257
159.1352, 138.7698
159.6174, 138.0696
160.0995, 137.4937
160.5816, 136.3492
161.0637, 133.6693
161.5458, 131.7300
162.0279, 131.0306
162.5101, 130.8700
162.9922, 130.5691
163.4743, 129.8350
163.9564, 128.7829
164.4385, 127.7193
164.9206, 126.5308
165.4028, 125.4711
165.8849, 124.5821
166.3670, 123.8525
166.8491, 123.3146
167.3312, 123.0640
167.8133, 122.9077
168.2955, 122.2624
168.7776, 120.9555
169.2597, 119.5110
169.7418, 118.0913
170.2239, 116.7157
170.7060, 115.5015
171.1882, 114.5611
171.6703, 113.7920
172.1524, 112.9396
172.6345, 111.8886
173.1166, 110.9068
173.5987, 110.2769
174.0809, 110.0267
174.5630, 109.8462
175.0451, 109.7271
175.5272, 109.5477
176.0093, 109.1241
176.4914, 108.3093
176.9736, 107.3999
177.4557, 106.9516
177.9378, 107.2316
178.4199, 107.3078
178.9020, 106.8280
179.3841, 106.0330
179.8663, 105.1283
180.3484, 104.1964
180.8305, 103.2451
181.3126, 102.3055
181.7947, 101.3272
182.2768, 100.4392
182.7590, 99.55635
183.2411, 98.79261
183.7232, 98.35042
184.2053, 98.38089
184.6874, 98.75745
185.1695, 98.69453
185.6517, 97.61904
186.1338, 96.66600
186.6159, 96.05918
187.0980, 95.68949
187.5801, 95.34852
188.0622, 94.88895
188.5444, 94.33571
189.0265, 94.02523
189.5086, 94.14316
189.9907, 94.26872
190.4728, 94.32052
190.9549, 94.28087
191.4371, 94.12901
191.9192, 93.83962
192.4013, 93.41804
192.8834, 92.97917
193.3655, 92.55502
193.8476, 92.08916
194.3298, 91.50632
194.8119, 90.83002
195.2940, 90.19260
195.7761, 89.64639
196.2582, 89.23568
196.7403, 89.03091
197.2225, 89.35494
197.7046, 89.65572
198.1867, 89.37060
198.6688, 88.48168
199.1509, 87.68129
199.6330, 87.48956
200.1152, 87.72909
200.5973, 88.00866
201.0794, 88.39333
201.5615, 88.70609
202.0436, 88.68241
202.5257, 88.26090
203.0079, 87.77370
203.4900, 87.32459
203.9721, 86.94788
204.4542, 86.71314
204.9363, 86.67281
205.4184, 86.76762
205.9006, 86.90174
206.3827, 87.10040
206.8648, 87.27721
207.3469, 87.39377
207.8290, 87.47143
208.3111, 87.55112
208.7933, 87.68365
209.2754, 87.79994
209.7575, 87.67610
210.2396, 87.16374
210.7217, 86.63296
211.2038, 86.06214
211.6860, 85.57285
212.1681, 85.32407
212.6502, 85.42004
213.1323, 85.80212
213.6144, 86.22115
214.0965, 86.92786
214.5787, 87.33405
215.0608, 87.15771
215.5429, 86.66943
216.0250, 86.19998
216.5071, 85.92715
216.9892, 85.85439
217.4713, 85.99963
217.9535, 86.74556
218.4356, 87.31319
218.9177, 87.46241
219.3998, 87.37771
219.8819, 87.34473
220.3640, 87.53311
220.8462, 87.90408
221.3283, 88.20142
221.8104, 88.41064
222.2925, 88.56788
222.7746, 88.62060
223.2567, 88.63039
223.7389, 88.69438
224.2210, 88.86476
224.7031, 89.13825
225.1852, 89.50447
225.6673, 90.29794
226.1494, 90.80479
226.6316, 90.63244
227.1137, 90.01527
227.5958, 89.44672
228.0779, 89.17278
228.5600, 89.15803
229.0421, 89.26324
229.5243, 89.55628
230.0064, 89.85863
230.4885, 90.10320
230.9706, 90.30347
231.4527, 90.48905
231.9348, 90.64898
232.4170, 90.83193
232.8991, 91.17677
233.3812, 91.83591
233.8633, 92.36848
234.3454, 92.44231
234.8275, 92.15958
235.3097, 91.94884
235.7918, 91.98839
236.2739, 92.19553
236.7560, 92.40611
237.2381, 92.62444
237.7202, 92.83254
238.2024, 93.00155
238.6845, 93.14053
239.1666, 93.30412
239.6487, 93.48428
240.1308, 93.73006
240.6129, 94.15046
241.0951, 94.79348
241.5772, 95.30370
242.0593, 95.29492
242.5414, 94.81009
243.0235, 94.50370
243.5056, 94.55016
243.9878, 94.84666
244.4699, 95.38517
244.9520, 96.16199
245.4341, 96.85471
245.9162, 97.16576
246.3983, 97.09722
246.8805, 96.96230
247.3626, 96.53338
247.8447, 96.32121
248.3268, 96.77608
248.8089, 97.83965
249.2910, 98.95535
249.7732, 99.60984
250.2553, 99.78682
250.7374, 99.99123
251.2195, 100.4587
251.7016, 100.7654
252.1837, 100.5718
252.6659, 99.98464
253.1480, 99.43620
253.6301, 99.35229
254.1122, 99.76765
254.5943, 100.1007
255.0764, 100.0346
255.5586, 100.1876
256.0407, 101.0949
256.5228, 102.4734
257.0049, 103.5258
257.4870, 103.4302
257.9691, 102.1466
258.4513, 101.5990
258.9334, 102.6904
259.4155, 103.7327
259.8976, 104.2701
260.3797, 104.3918
260.8618, 104.3578
261.3440, 104.3271
261.8261, 104.3060
262.3082, 104.4659
262.7903, 105.0536
263.2724, 105.5856
263.7545, 105.8446
264.2367, 105.9824
264.7188, 106.3069
265.2009, 107.0495
265.6830, 108.1263
266.1651, 108.8242
266.6472, 108.5998
267.1294, 108.5634
267.6115, 109.1078
268.0936, 109.9137
268.5757, 110.4242
269.0578, 110.3048
269.5399, 109.7890
270.0221, 109.9086
270.5042, 111.6412
270.9863, 112.9270
271.4684, 113.2130
271.9505, 113.0390
272.4326, 113.1037
272.9148, 113.7293
273.3969, 114.7207
273.8790, 115.5300
274.3611, 116.1425
274.8432, 116.5672
275.3253, 116.6694
275.8075, 116.6386
276.2896, 116.6516
276.7717, 116.7745
277.2538, 117.0197
277.7359, 117.4266
278.2180, 118.3584
278.7002, 118.8643
279.1823, 118.7815
279.6644, 118.3508
280.1465, 117.6494
280.6286, 116.7329
281.1107, 115.9011
281.5929, 115.6168
282.0750, 116.2389
282.5571, 116.5494
283.0392, 116.4623
283.5213, 116.1254
284.0034, 115.5338
284.4856, 114.7303
284.9677, 114.0230
285.4498, 113.8325
285.9319, 114.3672
286.4140, 114.1864
286.8961, 112.5815
287.3783, 110.8278
287.8604, 109.8435
288.3425, 109.6392
288.8246, 109.6610
289.3067, 109.4656
289.7888, 109.0434
290.2710, 108.6872
290.7531, 108.6293
291.2352, 108.4268
291.7173, 107.6712
292.1994, 106.4875
292.6815, 105.4363
293.1637, 104.9062
293.6458, 104.8181
294.1279, 104.6106
294.6100, 104.3605
295.0921, 103.9352
295.5742, 103.1333
296.0564, 102.0952
296.5385, 101.2068
297.0206, 100.6784
297.5027, 100.3930
297.9848, 99.97862
298.4669, 99.30859
298.9491, 98.74905
299.4312, 98.52294
299.9133, 98.47293
300.3954, 98.25520
300.8775, 97.70992
301.3596, 97.06419
301.8418, 96.85448
302.3239, 97.29660
302.8060, 97.30383
303.2881, 96.18300
303.7702, 94.62167
304.2523, 93.64143
304.7345, 93.51244
305.2166, 93.71209
305.6987, 93.56585
306.1808, 93.03089
306.6629, 92.72465
307.1451, 92.97530
307.6272, 93.36195
308.1093, 93.40353
308.5914, 93.04066
309.0735, 92.62202
309.5556, 92.50557
310.0378, 92.66398
310.5199, 92.54961
311.0020, 91.83794
311.4841, 91.07010
311.9662, 90.70402
312.4483, 90.71675
312.9305, 90.73519
313.4126, 90.50260
313.8947, 90.08138
314.3768, 89.78645
314.8589, 89.74828
315.3410, 89.69717
315.8232, 89.42372
316.3053, 89.00204
316.7874, 88.72177
317.2695, 88.77051
317.7516, 88.97305
318.2337, 88.86885
318.7159, 88.28593
319.1980, 87.83474
319.6801, 87.84775
320.1622, 88.13682
320.6443, 88.34460
321.1264, 88.36771
321.6086, 88.25344
322.0907, 88.02502
322.5728, 87.65735
323.0549, 87.37741
323.5370, 87.17745
324.0191, 87.11490
324.5013, 87.40244
324.9834, 88.10325
325.4655, 88.67822
325.9476, 88.44808
326.4297, 87.40706
326.9118, 86.75111
327.3940, 86.84694
327.8761, 87.17623
328.3582, 87.37194
328.8403, 87.40652
329.3224, 87.30514
329.8045, 87.05774
330.2867, 86.67875
330.7688, 86.30796
331.2509, 85.81324
331.7330, 85.45277
332.2151, 85.40348
332.6972, 85.60451
333.1794, 85.89658
333.6615, 86.25718
334.1436, 86.58669
334.6257, 86.58794
335.1078, 86.15407
335.5899, 85.68736
336.0721, 85.26660
336.5542, 84.89594
337.0363, 84.61874
337.5184, 84.46030
338.0005, 84.29591
338.4826, 83.85560
338.9648, 82.98162
339.4469, 82.55321
339.9290, 83.02881
340.4111, 83.79322
340.8932, 84.33624
341.3753, 84.56634
341.8574, 84.45107
342.3395, 83.83729
342.8217, 82.66880
343.3038, 82.09334
343.7859, 82.49395
344.2680, 83.12326
344.7501, 83.66019
345.2322, 84.06186
345.7144, 84.27346
346.1965, 84.23171
346.6786, 83.98558
347.1607, 83.82274
347.6428, 83.61559
348.1249, 83.61375
348.6071, 83.96810
349.0892, 84.55833
349.5713, 85.25211
350.0534, 86.02012
350.5355, 86.70309
351.0176, 86.95921
351.4998, 86.44657
351.9819, 86.14683
352.4640, 86.13351
352.9461, 86.34123
353.4282, 86.75609
353.9103, 87.35960
354.3925, 88.05928
354.8746, 88.77604
355.3567, 89.54555
355.8388, 90.10149
356.3209, 90.23821
356.8030, 90.37596
357.2852, 90.77905
357.7673, 91.39229
358.2494, 91.96485
358.7315, 92.28943
359.2136, 92.41985
359.6957, 92.89840
360.1779, 94.17094
360.6600, 95.25138
361.1421, 95.81959
361.6242, 96.11470
362.1063, 96.43393
362.5884, 96.90385
363.0706, 97.53885
363.5527, 98.36596
364.0348, 99.45734
364.5169, 100.6662
364.9990, 102.1250
365.4811, 103.5976
365.9633, 104.9344
366.4454, 106.0984
366.9275, 107.1177
367.4096, 108.0111
367.8917, 108.7410
368.3738, 109.5364
368.8560, 110.2041
369.3381, 111.1171
369.8202, 112.6292
370.3023, 114.5130
370.7844, 116.2256
371.2665, 117.3739
371.7487, 118.1038
372.2308, 119.2668
372.7129, 121.2307
373.1950, 123.1649
373.6771, 124.8334
374.1592, 126.4437
374.6414, 128.2516
375.1235, 130.3476
375.6056, 132.5244
376.0877, 134.3883
376.5698, 135.8039
377.0519, 137.3132
377.5341, 138.9136
378.0162, 140.6474
378.4983, 142.5426
378.9804, 144.5994
379.4625, 146.8136
379.9446, 149.2192
380.4268, 151.8061
380.9089, 154.3640
381.3910, 156.8153
381.8731, 159.3354
382.3552, 161.9094
382.8373, 164.5895
383.3195, 167.4754
383.8016, 170.6288
384.2837, 173.9709
384.7658, 177.4111
385.2479, 180.9782
385.7300, 184.4874
386.2122, 187.7058
386.6943, 190.9175
387.1764, 194.3027
387.6585, 197.9021
388.1406, 201.7088
388.6227, 205.8275
389.1049, 210.2355
389.5870, 214.3196
390.0691, 217.6150
390.5512, 221.0903
391.0333, 225.5157
391.5154, 230.7192
391.9976, 236.1109
392.4797, 241.5235
392.9618, 246.9172
393.4439, 252.1931
393.9260, 257.3531
394.4081, 262.4982
394.8903, 267.6776
395.3724, 272.8837
395.8545, 278.1473
396.3366, 283.5758
396.8187, 288.9240
397.3008, 293.6818
397.7830, 298.1036
398.2651, 303.5765
398.7472, 310.8216
399.2293, 318.7430
399.7114, 325.6006
400.1935, 331.3613
400.6757, 337.2564
401.1578, 344.1310
401.6399, 351.0844
402.1220, 356.8263
402.6041, 361.2108
403.0862, 365.1561
403.5684, 369.4343
404.0505, 373.9395
404.5326, 377.7830
405.0147, 380.5829
405.4968, 383.1146
405.9789, 385.8905
406.4611, 388.6992
406.9432, 391.1274
407.4253, 393.0920
407.9074, 394.2864
408.3895, 393.9182
408.8716, 391.0877
409.3538, 388.3901
409.8359, 386.4109
410.3180, 384.3779
410.8001, 381.6601
411.2822, 378.1517
411.7643, 374.0245
412.2465, 369.4986
412.7286, 364.5919
413.2107, 358.8070
413.6928, 351.4820
414.1749, 344.0792
414.6570, 337.1601
415.1392, 330.4800
415.6213, 323.6380
416.1034, 316.4227
416.5855, 308.9019
417.0676, 301.2213
417.5497, 293.1180
418.0319, 285.3304
418.5140, 277.7840
418.9961, 270.6085
419.4782, 263.9890
419.9603, 257.9122
420.4424, 252.0436
420.9246, 245.9522
421.4067, 239.5831
421.8888, 234.0525
422.3709, 230.2188
422.8530, 226.2229
423.3351, 221.3382
423.8173, 215.8757
424.2994, 210.2508
424.7815, 204.5665
425.2636, 199.0783
425.7457, 194.3712
426.2278, 190.5412
426.7100, 186.9893
427.1921, 183.7155
427.6742, 180.5655
428.1563, 177.4238
428.6384, 174.2730
429.1205, 171.2310
429.6027, 168.3633
430.0848, 165.6729
430.5669, 163.1254
431.0490, 160.7150
431.5311, 158.4570
432.0132, 156.4917
432.4954, 154.6754
432.9775, 152.7297
433.4596, 150.3966
433.9417, 148.1189
434.4238, 146.3996
434.9059, 145.1442
435.3881, 143.7660
435.8702, 141.9235
436.3523, 140.0311
436.8344, 138.9082
437.3165, 138.6606
437.7986, 138.3152
438.2808, 137.5766
438.7629, 136.6350
439.2450, 135.5869
439.7271, 134.4789
440.2092, 133.6282
440.6913, 133.3459
441.1735, 133.6043
441.6556, 133.7212
442.1377, 133.8611
442.6198, 133.7021
443.1019, 132.6722
443.5840, 131.3839
444.0662, 130.8959
444.5483, 131.6078
445.0304, 132.9511
445.5125, 133.9792
445.9946, 134.7450
446.4767, 134.9988
446.9589, 134.0509
447.4410, 133.2610
447.9231, 133.5683
448.4052, 134.7793
448.8873, 136.0647
449.3694, 136.7986
449.8516, 137.1075
450.3337, 137.7560
450.8158, 139.0582
451.2979, 140.2163
451.7800, 141.1222
452.2621, 141.8114
452.7443, 142.2022
453.2264, 142.3033
453.7085, 142.4544
454.1906, 143.1035
454.6727, 144.2680
455.1548, 145.3655
455.6370, 146.4529
456.1191, 147.3278
456.6012, 147.9176
457.0833, 148.2384
457.5654, 148.3220
458.0475, 148.1794
458.5297, 147.8069
459.0118, 147.0980
459.4939, 146.0415
459.9760, 145.1555
460.4581, 144.9471
460.9402, 144.6974
461.4224, 143.3374
461.9045, 140.7429
462.3866, 138.2185
462.8687, 136.5441
463.3508, 135.1636
463.8329, 133.1825
464.3151, 130.4895
464.7972, 127.5941
465.2793, 124.8062
465.7614, 122.1552
466.2435, 119.8597
466.7256, 118.1579
467.2078, 116.5282
467.6899, 114.7915
468.1720, 113.0028
468.6541, 111.2253
469.1362, 109.4860
469.6183, 107.8340
470.1005, 106.3172
470.5826, 104.9039
471.0647, 103.7917
471.5468, 103.0435
472.0289, 102.4887
472.5110, 102.0885
472.9932, 101.8107
473.4753, 101.5957
473.9574, 101.3984
474.4395, 101.2761
474.9216, 101.4678
475.4037, 102.3493
475.8859, 102.7732
476.3680, 101.8935
476.8501, 101.0731
477.3322, 101.3991
477.8143, 102.8754
478.2964, 104.6325
478.7786, 105.9312
479.2607, 106.8651
479.7428, 107.9533
480.2249, 109.2090
480.7070, 110.6019
481.1891, 112.2476
481.6713, 113.9817
482.1534, 115.5203
482.6355, 116.6942
483.1176, 118.0629
483.5997, 120.3154
484.0818, 123.1992
484.5640, 125.6339
485.0461, 127.1976
485.5282, 128.7944
486.0103, 131.5274
486.4924, 135.2490
486.9745, 138.7122
487.4567, 141.6885
487.9388, 144.4059
488.4209, 146.8230
488.9030, 149.0810
489.3851, 151.6252
489.8672, 154.6555
490.3494, 158.0558
490.8315, 161.6290
491.3136, 165.4542
491.7957, 169.3219
492.2778, 173.4467
492.7599, 177.4471
493.2421, 181.1325
493.7242, 184.4669
494.2063, 187.4724
494.6884, 190.2459
495.1705, 192.6335
495.6526, 193.8288
496.1348, 193.4517
496.6169, 192.3940
497.0990, 190.8824
497.5811, 188.7782
498.0632, 185.9901
498.5453, 182.4845
499.0275, 178.2592
499.5096, 173.1577
499.9917, 167.2229
500.4738, 161.0680
500.9559, 154.6118
501.4380, 148.1561
501.9202, 141.7513
502.4023, 135.4715
502.8844, 129.4097
503.3665, 123.5985
503.8486, 118.0471
504.3307, 112.8344
504.8129, 107.9172
505.2950, 103.1584
505.7771, 98.52060
506.2592, 94.12083
506.7413, 90.05642
507.2234, 86.34651
507.7055, 82.92568
508.1877, 79.68132
508.6698, 76.84701
509.1519, 74.70707
509.6340, 73.07338
510.1161, 71.57813
510.5982, 70.07262
511.0804, 68.50231
511.5625, 66.72433
512.0446, 64.52305
512.5267, 62.68569
513.0089, 61.45244
513.4910, 60.31442
513.9731, 58.94091
514.4552, 57.44529
514.9373, 56.12638
515.4194, 55.17208
515.9016, 54.48617
516.3837, 53.82570
516.8658, 53.17433
517.3479, 52.60015
517.8300, 52.29234
518.3121, 51.92147
518.7943, 51.19952
519.2764, 50.18554
519.7585, 49.24635
520.2406, 48.60554
520.7227, 48.19903
521.2048, 47.95124
521.6870, 47.89618
522.1691, 47.72143
522.6512, 47.24231
523.1333, 46.59116
523.6154, 45.95496
524.0975, 45.29944
524.5797, 44.82076
525.0618, 44.76298
525.5439, 44.83287
526.0260, 44.63952
526.5081, 44.15632
526.9902, 43.61446
527.4724, 43.16195
527.9545, 42.79621
528.4366, 42.51757
528.9187, 42.37818
529.4008, 42.24965
529.8829, 42.15409
530.3651, 42.03969
530.8472, 41.85949
531.3293, 41.60516
531.8114, 41.28635
532.2935, 40.88249
532.7756, 40.40600
533.2578, 40.13874
533.7399, 40.27997
534.2220, 40.32816
534.7041, 40.09679
535.1862, 39.74831
535.6683, 39.42849
536.1505, 39.17429
536.6326, 38.98362
537.1147, 38.89428
537.5968, 38.87807
538.0789, 38.79401
538.5610, 38.60837
539.0432, 38.42956
539.5253, 38.38869
540.0074, 38.39312
540.4895, 38.20940
540.9716, 37.66463
541.4537, 37.20188
541.9359, 37.07166
542.4180, 37.17454
542.9001, 37.39421
543.3822, 37.70009
543.8643, 37.94508
544.3464, 37.95281
544.8286, 37.71076
545.3107, 37.69904
545.7928, 38.31091
546.2749, 38.65163
546.7570, 38.26929
547.2391, 37.59487
547.7213, 37.14245
548.2034, 37.05427
548.6855, 37.13768
549.1676, 37.18670
549.6497, 37.20227
550.1318, 37.15155
550.6140, 36.92126
551.0961, 36.78985
551.5782, 36.92766
552.0603, 37.18781
552.5424, 37.40178
553.0245, 37.53661
553.5067, 37.54072
553.9888, 37.31374
554.4709, 36.90958
554.9530, 36.46842
555.4351, 35.94998
555.9172, 35.65977
556.3994, 35.96011
556.8815, 36.73238
557.3636, 37.27160
557.8457, 37.58629
558.3278, 37.63159
558.8099, 37.07559
559.2921, 36.35332
559.7742, 36.14558
560.2563, 36.59181
560.7384, 37.30389
561.2205, 37.91304
561.7026, 38.42993
562.1848, 38.62209
562.6669, 38.12285
563.1490, 37.71249
563.6311, 37.59277
564.1132, 37.60761
564.5953, 37.63252
565.0775, 37.61780
565.5596, 37.46908
566.0417, 36.95243
566.5238, 36.13165
567.0059, 35.71161
567.4880, 35.82044
567.9702, 36.06319
568.4523, 36.30047
568.9344, 36.51876
569.4165, 36.70515
569.8986, 36.87504
570.3807, 36.95674
570.8629, 36.91706
571.3450, 36.75848
571.8271, 36.42494
572.3092, 35.91759
572.7913, 35.45741
573.2734, 35.19860
573.7556, 35.13169
574.2377, 35.18594
574.7198, 35.50388
575.2019, 35.74535
575.6840, 35.69619
576.1661, 35.66363
576.6483, 36.09731
577.1304, 36.91973
577.6125, 37.50544
578.0946, 37.25972
578.5767, 36.35849
579.0588, 35.78040
579.5410, 35.56788
580.0231, 35.58521
580.5052, 35.98586
580.9873, 36.47599
581.4694, 36.79643
581.9515, 36.93867
582.4337, 37.15266
582.9158, 37.72581
583.3979, 38.39254
583.8800, 38.66292
584.3621, 38.54300
584.8442, 38.44575
585.3264, 38.58685
585.8085, 38.83186
586.2906, 38.88927
586.7727, 38.66234
587.2548, 38.55625
587.7369, 38.67767
588.2190, 38.86983
588.7011, 39.06416
589.1832, 39.23737
589.6653, 39.33793
590.1475, 39.33091
590.6296, 39.31520
591.1117, 39.54575
591.5938, 40.14950
592.0759, 40.58981
592.5580, 40.66541
593.0402, 40.72332
593.5223, 40.93536
594.0044, 41.25307
594.4865, 41.54397
594.9686, 41.74041
595.4507, 41.92375
595.9329, 42.15868
596.4150, 42.45493
596.8971, 42.87231
597.3792, 43.44640
597.8613, 44.06710
598.3434, 44.65819
598.8256, 45.21257
599.3077, 45.66241
599.7898, 45.96043
600.2719, 46.20940
600.7540, 46.41182
601.2361, 46.60391
601.7183, 46.83543
602.2004, 47.11463
602.6825, 47.40541
603.1646, 47.65928
603.6467, 47.87978
604.1288, 48.20993
604.6110, 48.79054
605.0931, 49.25198
605.5752, 49.37853
606.0573, 49.43427
606.5394, 49.69231
607.0215, 50.18206
607.5037, 50.67974
607.9858, 50.97984
608.4679, 51.19577
608.9500, 51.62148
609.4321, 52.27155
609.9142, 52.72258
610.3964, 52.67571
610.8785, 52.43006
611.3606, 52.65565
611.8427, 53.57018
612.3248, 54.16059
612.8069, 54.16765
613.2891, 53.95198
613.7712, 53.62952
614.2533, 53.29416
614.7354, 53.08897
615.2175, 53.08449
615.6996, 53.25375
616.1818, 53.62371
616.6639, 54.31468
617.1460, 54.65344
617.6281, 54.40322
618.1102, 54.02131
618.5923, 53.67824
619.0745, 53.36737
619.5566, 53.07084
620.0387, 52.79021
620.5208, 52.49982
621.0029, 52.10860
621.4850, 51.69665
621.9672, 51.55988
622.4493, 51.76404
622.9314, 51.82143
623.4135, 51.28048
623.8956, 50.27709
624.3777, 49.66343
624.8599, 49.77929
625.3420, 49.77537
625.8241, 49.47282
626.3062, 49.06252
626.7883, 48.67273
627.2704, 48.33100
627.7526, 48.06183
628.2347, 47.90678
628.7168, 47.78249
629.1989, 47.42060
629.6810, 46.76324
630.1631, 46.15056
630.6453, 45.66867
631.1274, 45.24518
631.6095, 44.74907
632.0916, 44.23905
632.5737, 43.95939
633.0558, 44.21318
633.5380, 44.49792
634.0201, 44.42177
634.5022, 44.08178
634.9843, 43.69587
635.4664, 43.32014
635.9485, 42.90206
636.4307, 42.33845
636.9128, 41.62207
637.3949, 41.31455
637.8770, 41.99747
638.3591, 42.37776
638.8412, 42.17012
639.3234, 41.63327
639.8055, 40.88821
640.2876, 40.02393
640.7697, 39.28931
641.2518, 38.91494
641.7339, 38.78847
642.2161, 38.63395
642.6982, 38.44674
643.1803, 38.29223
643.6624, 38.20118
644.1445, 38.14201
644.6266, 38.08123
645.1088, 38.01964
645.5909, 37.93814
646.0730, 37.91407
646.5551, 37.78901
647.0372, 37.35910
647.5193, 36.79274
648.0015, 36.40326
648.4836, 36.28297
648.9657, 36.28399
649.4478, 36.24112
649.9299, 36.15430
650.4120, 36.04016
650.8942, 36.01815
651.3763, 35.75711
651.8584, 34.77500
652.3405, 33.74736
652.8226, 33.44223
653.3047, 33.93020
653.7869, 34.34875
654.2690, 34.15553
654.7511, 33.66423
655.2332, 33.17335
655.7153, 32.73454
656.1974, 32.62017
656.6796, 32.99547
657.1617, 33.51369
657.6438, 33.62062
658.1259, 33.20717
658.6080, 32.81639
659.0901, 32.40794
659.5723, 32.06710
660.0544, 31.80474
660.5365, 31.63604
661.0186, 31.58426
661.5007, 31.65345
661.9828, 31.81107
662.4650, 32.14164
662.9471, 32.54685
663.4292, 32.54323
663.9113, 32.05222
664.3934, 31.62076
664.8755, 31.53932
665.3577, 31.60426
665.8398, 31.40349
666.3219, 30.85933
666.8040, 30.60504
667.2861, 31.10010
667.7682, 31.57340
668.2504, 31.43939
668.7325, 30.92946
669.2146, 30.53590
669.6967, 30.44403
670.1788, 30.51292
670.6609, 30.59335
671.1431, 30.69055
671.6252, 30.63851
672.1073, 30.33781
672.5894, 30.07445
673.0715, 29.98495
673.5536, 29.97791
674.0358, 29.97780
674.5179, 29.97848
675.0000, 29.95330
675.4821, 29.84830
675.9642, 29.74188
676.4464, 29.79850
676.9285, 29.94181
677.4106, 29.83125
677.8927, 29.31343
678.3748, 28.72519
678.8569, 28.56404
679.3391, 28.88033
679.8212, 29.33230
680.3033, 30.36948
680.7854, 30.99002
681.2675, 30.67626
681.7496, 29.98165
682.2318, 29.47430
682.7139, 29.26330
683.1960, 29.21050
683.6781, 29.31991
684.1602, 29.48047
684.6423, 29.49434
685.1245, 29.36522
685.6066, 29.14834
686.0887, 28.83656
686.5708, 28.54259
687.0529, 28.43739
687.5350, 28.55559
688.0172, 28.67941
688.4993, 28.89633
688.9814, 29.01564
689.4635, 28.86161
689.9456, 28.63764
690.4277, 28.60490
690.9099, 28.79820
691.3920, 29.01661
691.8741, 29.06454
692.3562, 29.01829
692.8383, 29.17640
693.3204, 29.56289
693.8026, 29.61337
694.2847, 28.97565
694.7668, 28.20244
695.2489, 28.03447
695.7310, 28.50642
696.2131, 28.77829
696.6953, 28.52244
697.1774, 28.40118
697.6595, 28.92105
698.1416, 29.59263
698.6237, 29.71595
699.1058, 29.24056
699.5880, 28.76337
700.0701, 28.82423
700.5522, 29.26273
701.0343, 29.52017
701.5164, 29.57729
701.9985, 29.58066
702.4807, 29.56004
702.9628, 29.50611
703.4449, 29.40031
703.9270, 29.25064
704.4091, 29.09171
704.8912, 28.79511
705.3734, 28.64691
705.8555, 28.94706
706.3376, 29.37547
706.8197, 29.45500
707.3018, 29.18180
707.7839, 28.98141
708.2661, 29.19959
708.7482, 29.67353
709.2303, 29.87095
709.7124, 29.71692
710.1945, 29.60781
710.6766, 29.57084
711.1588, 29.63698
711.6409, 29.96777
712.1230, 30.40871
712.6051, 30.53219
713.0872, 30.06399
713.5693, 29.64682
714.0515, 29.64710
714.5336, 29.83561
715.0157, 29.97479
715.4978, 30.02154
715.9799, 29.95698
716.4620, 29.75884
716.9442, 29.51244
717.4263, 29.43007
717.9084, 29.55248
718.3905, 29.66485
718.8726, 29.76307
719.3547, 29.84062
719.8369, 29.87797
720.3190, 29.89939
720.8011, 29.96468
721.2832, 30.11268
721.7653, 30.15985
722.2474, 29.84029
722.7296, 29.49572
723.2117, 29.60687
723.6938, 30.05919
724.1759, 30.36149
724.6580, 30.29030
725.1401, 30.01402
725.6223, 29.75511
726.1044, 29.48392
726.5865, 29.49784
727.0686, 29.99311
727.5507, 30.46101
728.0328, 30.88541
728.5150, 31.10275
728.9971, 30.80120
729.4792, 29.96968
729.9613, 29.34800
730.4434, 29.35262
730.9255, 29.60596
731.4077, 29.86825
731.8898, 30.09232
732.3719, 30.15663
732.8540, 30.03607
733.3361, 29.90663
733.8182, 29.97883
734.3004, 30.21735
734.7825, 30.20865
735.2646, 29.79681
735.7467, 29.47153
736.2288, 29.36917
736.7109, 29.36210
737.1931, 29.41492
737.6752, 29.49778
738.1573, 29.51095
738.6394, 29.44013
739.1215, 29.26842
739.6036, 28.78659
740.0858, 28.28072
740.5679, 28.34958
741.0500, 28.97050
741.5321, 29.41381
742.0142, 29.14497
742.4963, 28.46276
742.9785, 28.25677
743.4606, 28.71137
743.9427, 28.95327
744.4248, 28.78353
744.9069, 28.56748
745.3890, 28.42453
745.8712, 28.38743
746.3533, 28.58382
746.8354, 29.14248
747.3175, 29.46388
747.7996, 28.99283
748.2817, 28.36544
748.7639, 28.28858
749.2460, 28.63453
749.7281, 28.88813
750.2102, 28.83707
750.6923, 28.68855
751.1744, 28.74221
751.6566, 29.00051
752.1387, 29.17093
752.6208, 29.24699
753.1029, 29.24294
753.5850, 29.02316
754.0671, 28.83529
754.5493, 29.01466
755.0314, 29.53961
755.5135, 29.89596
755.9956, 29.90671
756.4777, 29.77389
756.9598, 29.48060
757.4420, 29.17552
757.9241, 29.10470
758.4062, 29.27772
758.8883, 29.46606
759.3704, 29.48329
759.8525, 29.41175
760.3347, 29.50206
760.8168, 29.77778
761.2989, 30.00657
761.7810, 30.15104
762.2631, 30.24323
762.7452, 30.31129
763.2274, 30.34175
763.7095, 30.29416
764.1916, 30.12048
764.6737, 29.97028
765.1558, 29.84134
765.6379, 29.78090
766.1201, 29.84540
766.6022, 30.00325
767.0843, 30.18799
767.5664, 30.37270
768.0485, 30.57479
768.5306, 30.84472
769.0128, 31.15598
769.4949, 31.37090
769.9770, 31.48265
770.4591, 31.54194
770.9412, 31.54922
771.4233, 31.54873
771.9055, 31.62167
772.3876, 31.78891
772.8697, 31.81829
773.3518, 31.39095
773.8339, 31.23252
774.3160, 31.85829
774.7982, 32.62216
775.2803, 32.85602
775.7624, 32.58191
776.2445, 32.28460
776.7266, 32.24490
777.2087, 32.30913
777.6909, 32.28811
778.1730, 32.19505
778.6551, 32.04919
779.1372, 31.85031
779.6193, 31.73648
780.1014, 31.81024
780.5836, 32.01884
781.0657, 32.22182
781.5478, 32.50437
782.0299, 32.58653
782.5120, 32.08971
782.9941, 31.81946
783.4763, 32.34192
783.9584, 33.14891
784.4405, 33.53566
784.9226, 33.36889
785.4047, 33.05096
785.8868, 32.62437
786.3690, 32.31110
786.8511, 32.46605
787.3332, 32.94135
787.8153, 33.31889
788.2974, 33.47628
788.7795, 33.52561
789.2617, 33.58485
789.7438, 33.63125
790.2259, 33.48612
790.7080, 33.03743
791.1901, 32.74332
791.6722, 32.80386
792.1544, 32.89450
792.6365, 32.72865
793.1186, 32.41909
793.6007, 32.27902
794.0828, 32.48494
794.5649, 32.55828
795.0471, 32.16490
795.5292, 31.69617
796.0113, 31.51578
796.4934, 31.55571
796.9755, 31.56207
797.4576, 31.43573
797.9398, 31.33229
798.4219, 31.57717
798.9040, 32.04567
799.3861, 31.93482
799.8682, 31.17598
800.3503, 30.55185
800.8325, 30.38189
801.3146, 30.34375
801.7967, 30.02035
802.2788, 29.39678
802.7609, 29.09275
803.2430, 29.44542
803.7252, 29.62623
804.2073, 29.27155
804.6894, 28.88214
805.1715, 28.94866
805.6536, 29.32580
806.1357, 29.49310
806.6179, 29.18646
807.1000, 28.79809
807.5821, 28.69290
808.0642, 28.77109
808.5463, 28.87570
809.0284, 28.97781
809.5106, 29.02043
809.9927, 28.98201
810.4748, 28.82505
810.9569, 28.46347
811.4390, 27.87182
811.9211, 27.39312
812.4033, 27.04313
812.8854, 26.76932
813.3675, 26.58148
813.8496, 26.44699
814.3317, 26.38754
814.8138, 26.37572
815.2960, 26.24908
815.7781, 25.90429
816.2602, 25.52036
816.7423, 25.07619
817.2244, 24.70230
817.7065, 24.59133
818.1887, 24.69559
818.6708, 24.81765
819.1529, 24.85743
819.6350, 24.84107
820.1171, 24.81859
820.5992, 24.77760
821.0814, 24.61923
821.5635, 24.32785
822.0456, 24.04734
822.5277, 23.83955
823.0098, 23.66402
823.4919, 23.43284
823.9741, 23.11432
824.4562, 23.04733
824.9383, 23.55361
825.4204, 23.88040
825.9025, 23.73178
826.3846, 23.49267
826.8668, 23.51386
827.3489, 23.72802
827.8310, 23.81121
828.3131, 23.57810
828.7952, 23.33785
829.2773, 23.36371
829.7595, 23.50617
830.2416, 23.55912
830.7237, 23.51195
831.2058, 23.40072
831.6879, 23.24124
832.1700, 23.12047
832.6522, 23.22645
833.1343, 23.53971
833.6164, 23.46747
834.0985, 22.86867
834.5806, 22.45930
835.0627, 22.57273
835.5449, 22.80510
836.0270, 22.67915
836.5091, 22.23369
836.9912, 22.04518
837.4733, 22.47525
837.9554, 22.66883
838.4376, 22.13849
838.9197, 21.61300
839.4018, 21.69673
839.8839, 22.20714
840.3660, 22.68719
840.8481, 22.98436
841.3303, 23.08094
841.8124, 22.86200
842.2945, 22.48446
842.7766, 22.13379
843.2587, 21.85829
843.7408, 21.88436
844.2230, 22.28276
844.7051, 22.69102
845.1872, 22.71300
845.6693, 22.39477
846.1514, 21.99607
846.6335, 21.40168
847.1157, 21.14811
847.5978, 21.53153
848.0799, 21.97726
848.5620, 22.08945
849.0441, 21.96744
849.5262, 21.84472
850.0084, 21.72279
850.4905, 21.61704
850.9726, 21.47690
851.4547, 21.40940
851.9368, 21.46691
852.4189, 21.64169
852.9011, 22.04014
853.3832, 22.61122
853.8653, 22.90121
854.3474, 22.40742
854.8295, 21.64149
855.3116, 21.34360
855.7938, 21.40408
856.2759, 21.52765
856.7580, 21.65001
857.2401, 21.67233
857.7222, 21.50788
858.2043, 21.26862
858.6865, 21.25119
859.1686, 21.52836
859.6507, 21.64472
860.1328, 21.53991
860.6149, 21.38496
861.0970, 21.21005
861.5792, 21.04851
862.0613, 20.94146
862.5434, 20.88838
863.0255, 20.86143
863.5076, 20.90669
863.9897, 20.91430
864.4719, 20.82285
864.9540, 20.69940
865.4361, 20.55551
865.9182, 20.43756
866.4003, 20.47033
866.8824, 20.73048
867.3646, 20.98750
867.8467, 21.00550
868.3288, 20.88246
868.8109, 20.77284
869.2930, 20.68810
869.7751, 20.63263
870.2573, 20.60793
870.7394, 20.59875
871.2215, 20.59754
871.7036, 20.59241
872.1857, 20.49818
872.6678, 20.28918
873.1500, 20.10101
873.6321, 19.92204
874.1142, 19.83994
874.5963, 20.02027
875.0784, 20.31478
875.5605, 20.23674
876.0427, 19.51246
876.5248, 19.22779
877.0069, 19.85956
877.4890, 20.47636
877.9711, 20.80695
878.4532, 20.82735
878.9354, 20.37133
879.4175, 19.53265
879.8996, 18.90320
880.3817, 18.85850
880.8638, 19.01921
881.3459, 19.13173
881.8281, 19.19361
882.3102, 19.18784
882.7923, 19.12295
883.2744, 19.03104
883.7565, 18.92772
884.2386, 18.82633
884.7208, 18.75606
885.2029, 18.70945
885.6850, 18.57229
886.1671, 18.31788
886.6492, 18.33636
887.1313, 18.84855
887.6135, 19.34030
888.0956, 19.23792
888.5777, 18.67588
889.0598, 18.57331
889.5419, 19.45026
890.0240, 19.86352
890.5062, 19.39540
890.9883, 18.86411
891.4704, 18.58059
891.9525, 18.46902
892.4346, 18.44664
892.9167, 18.50751
893.3989, 18.47635
893.8810, 18.22190
894.3631, 17.93794
894.8452, 17.56850
895.3273, 17.33908
895.8094, 17.72490
896.2916, 18.56219
896.7737, 19.06240
897.2558, 18.77011
897.7379, 18.21124
898.2200, 18.05627
898.7021, 18.12122
899.1843, 17.84296
899.6664, 17.26942
900.1485, 17.06076
900.6306, 17.47211
901.1127, 17.94340
901.5948, 17.80412
902.0770, 17.18505
902.5591, 16.95504
903.0412, 17.20171
903.5233, 17.45194
904.0054, 17.67917
904.4875, 17.81510
904.9697, 17.79444
905.4518, 17.66382
905.9339, 17.51111
906.4160, 17.29272
906.8981, 17.20485
907.3802, 17.43370
907.8624, 17.56535
908.3445, 17.36284
908.8266, 17.08262
909.3087, 16.95823
909.7908, 16.99070
910.2729, 17.08251
910.7551, 17.23444
911.2372, 17.35692
911.7193, 17.37659
912.2014, 17.35252
912.6835, 17.38408
913.1656, 17.41884
913.6478, 17.28080
914.1299, 16.93572
914.6120, 16.63332
915.0941, 16.65716
915.5762, 16.82915
916.0583, 16.72360
916.5404, 16.41754
917.0225, 16.34167
917.5046, 16.56466
917.9868, 16.77152
918.4689, 16.76197
918.9510, 16.63644
919.4331, 16.59908
919.9152, 16.66285
920.3973, 16.64583
920.8795, 16.45696
921.3616, 16.49016
921.8437, 17.08885
922.3258, 17.63385
922.8079, 17.39477
923.2900, 16.52256
923.7722, 16.11094
924.2543, 16.59632
924.7364, 16.82514
925.2185, 16.60053
925.7006, 16.27398
926.1827, 15.76595
926.6649, 15.38639
927.1470, 15.68217
927.6291, 16.67263
928.1112, 17.42936
928.5933, 17.48955
929.0754, 17.32768
929.5576, 17.12538
930.0397, 16.92716
930.5218, 16.77711
931.0039, 16.67788
931.4860, 16.65049
931.9681, 16.70587
932.4503, 16.67403
932.9324, 16.22671
933.4145, 15.65319
933.8966, 15.58546
934.3787, 15.90046
934.8608, 16.07721
935.3430, 16.00301
935.8251, 15.93762
936.3072, 16.08900
936.7893, 16.34194
937.2714, 16.42556
937.7535, 16.33883
938.2357, 16.21285
938.7178, 16.04263
939.1999, 15.88360
939.6820, 15.73431
940.1641, 15.66330
940.6462, 15.78437
941.1284, 16.07437
941.6105, 16.20164
942.0926, 16.06442
942.5747, 15.96283
943.0568, 15.89847
943.5389, 15.90173
944.0211, 16.09696
944.5032, 16.31615
944.9853, 16.26713
945.4674, 15.90761
945.9495, 15.64041
946.4316, 15.46271
946.9138, 15.47750
947.3959, 15.97577
947.8780, 16.47144
948.3601, 16.46883
948.8422, 16.10489
949.3243, 15.82115
949.8065, 15.76045
950.2886, 15.75572
950.7707, 15.71080
951.2528, 15.66616
951.7349, 15.62850
952.2170, 15.63259
952.6992, 15.78425
953.1813, 16.05934
953.6634, 16.25993
954.1455, 16.25505
954.6276, 16.15320
955.1097, 16.12927
955.5919, 16.11829
956.0740, 15.86913
956.5561, 15.43043
957.0382, 15.19864
957.5203, 15.30655
958.0024, 15.50586
958.4846, 15.54581
958.9667, 15.48529
959.4488, 15.51712
959.9309, 15.64193
960.4130, 15.89199
960.8951, 16.32667
961.3773, 16.57317
961.8594, 16.40242
962.3415, 16.05464
962.8236, 15.87533
963.3057, 15.86670
963.7878, 15.83143
964.2700, 15.67273
964.7521, 15.71736
965.2342, 16.27779
965.7163, 16.70664
966.1984, 16.44925
966.6805, 15.84036
967.1627, 15.56897
967.6448, 15.69384
968.1269, 15.84707
968.6090, 15.99492
969.0911, 16.17933
969.5732, 16.53294
970.0554, 16.82609
970.5375, 16.81528
971.0196, 16.58821
971.5017, 16.39674
971.9838, 16.28767
972.4659, 16.26768
972.9481, 16.47375
973.4302, 16.62829
973.9123, 16.39993
974.3944, 16.08503
974.8765, 16.15666
975.3586, 16.57345
975.8408, 16.85615
976.3229, 16.73861
976.8050, 16.55112
977.2871, 16.60522
977.7692, 16.74538
978.2513, 16.70772
978.7335, 16.58294
979.2156, 16.67436
979.6977, 17.02419
980.1798, 17.33097
980.6619, 17.35385
981.1440, 17.23703
981.6262, 17.22035
982.1083, 17.26545
982.5904, 17.19565
983.0725, 17.02998
983.5546, 17.04295
984.0367, 17.33783
984.5189, 17.72511
985.0010, 18.02764
985.4831, 18.21820
985.9652, 18.14376
986.4473, 17.80161
986.9294, 17.57323
987.4116, 17.50735
987.8937, 17.51254
988.3758, 17.54223
988.8579, 17.62806
989.3400, 17.81160
989.8221, 18.09379
990.3043, 18.53784
990.7864, 19.32686
991.2685, 19.63632
991.7506, 19.10198
992.2327, 18.57606
992.7148, 18.60280
993.1970, 18.89368
993.6791, 18.91313
994.1612, 18.59360
994.6433, 18.52430
995.1254, 18.97274
995.6075, 19.26489
996.0897, 19.22221
996.5718, 19.07810
997.0539, 18.87252
997.5360, 18.69296
998.0181, 18.74379
998.5002, 19.09218
998.9824, 19.33731
999.4645, 19.38548
999.9466, 19.37011
1000.429, 19.21454
1000.911, 19.11749
1001.393, 19.31068
1001.875, 19.68281
1002.357, 19.93638
1002.839, 19.99088
1003.321, 20.03518
1003.804, 20.05918
1004.286, 20.19114
1004.768, 20.74809
1005.250, 21.28601
1005.732, 21.13185
1006.214, 20.48871
1006.696, 20.18190
1007.178, 20.56350
1007.660, 21.01390
1008.143, 21.10719
1008.625, 21.08502
1009.107, 21.13669
1009.589, 21.25685
1010.071, 21.50825
1010.553, 21.81456
1011.035, 21.84174
1011.517, 21.37087
1012.000, 20.92548
1012.482, 21.21204
1012.964, 21.74684
1013.446, 21.71022
1013.928, 21.30590
1014.410, 21.11717
1014.892, 21.24744
1015.374, 21.46377
1015.856, 21.62992
1016.339, 21.73519
1016.821, 21.67502
1017.303, 21.56665
1017.785, 21.82278
1018.267, 22.35055
1018.749, 22.64247
1019.231, 22.57972
1019.713, 22.41710
1020.195, 22.33909
1020.678, 22.29421
1021.160, 22.13526
1021.642, 21.90770
1022.124, 21.93662
1022.606, 22.22015
1023.088, 22.52840
1023.570, 22.80038
1024.052, 22.95236
1024.535, 22.88465
1025.017, 22.74760
1025.499, 23.00687
1025.981, 23.67462
1026.463, 23.85855
1026.945, 23.48591
1027.427, 23.08378
1027.909, 22.78894
1028.391, 22.62562
1028.874, 22.62530
1029.356, 22.75706
1029.838, 22.96489
1030.320, 23.30705
1030.802, 23.33521
1031.284, 22.90537
1031.766, 22.70041
1032.248, 23.04560
1032.731, 23.40261
1033.213, 23.21607
1033.695, 22.69474
1034.177, 22.63605
1034.659, 23.28088
1035.141, 23.54379
1035.623, 23.23830
1036.105, 22.96130
1036.588, 22.91959
1037.070, 22.93057
1037.552, 22.81877
1038.034, 22.62634
1038.516, 22.52353
1038.998, 22.55577
1039.480, 22.54574
1039.962, 22.32194
1040.444, 22.33481
1040.927, 22.98318
1041.409, 23.64648
1041.891, 23.72426
1042.373, 23.36378
1042.855, 23.14784
1043.337, 23.18780
1043.819, 23.10586
1044.301, 22.67914
1044.783, 22.42204
1045.266, 22.64967
1045.748, 22.95029
1046.230, 22.99256
1046.712, 22.82622
1047.194, 22.60849
1047.676, 22.28115
1048.158, 22.10157
1048.640, 22.17967
1049.123, 22.29795
1049.605, 22.49562
1050.087, 22.61388
1050.569, 22.42448
1051.051, 22.05821
1051.533, 21.90215
1052.015, 22.05324
1052.497, 22.21099
1052.979, 22.35602
1053.462, 22.45552
1053.944, 22.59557
1054.426, 22.59939
1054.908, 22.19492
1055.390, 21.55371
1055.872, 21.09115
1056.354, 20.86894
1056.836, 20.85525
1057.318, 21.31440
1057.801, 21.63286
1058.283, 21.38106
1058.765, 21.05087
1059.247, 21.10524
1059.729, 21.40930
1060.211, 21.58795
1060.693, 21.55967
1061.175, 21.52425
1061.658, 21.52234
1062.140, 21.55422
1062.622, 21.70379
1063.104, 21.81178
1063.586, 21.69922
1064.068, 21.45530
1064.550, 21.27918
1065.032, 21.21068
1065.515, 21.13054
1065.997, 20.90565
1066.479, 20.77608
1066.961, 20.91449
1067.443, 21.13290
1067.925, 21.34331
1068.407, 21.48746
1068.889, 21.46128
1069.371, 21.25591
1069.854, 21.07211
1070.336, 20.99726
1070.818, 20.95331
1071.300, 20.84988
1071.782, 20.81647
1072.264, 20.99656
1072.746, 21.30114
1073.228, 21.61901
1073.710, 21.91243
1074.193, 22.10200
1074.675, 22.13213
1075.157, 22.09208
1075.639, 21.96548
1076.121, 21.84316
1076.603, 21.75948
1077.085, 21.74727
1077.567, 21.83983
1078.050, 22.04301
1078.532, 22.36414
1079.014, 22.87293
1079.496, 23.33945
1079.978, 23.70201
1080.460, 23.93634
1080.942, 23.89971
1081.424, 23.80187
1081.906, 23.93112
1082.389, 24.26692
1082.871, 24.59446
1083.353, 24.87078
1083.835, 25.02033
1084.317, 24.79303
1084.799, 24.66937
1085.281, 25.12790
1085.763, 25.73193
1086.245, 25.90401
1086.728, 25.75968
1087.210, 25.82713
1087.692, 26.27934
1088.174, 26.74827
1088.656, 27.09439
1089.138, 27.39035
1089.620, 27.64400
1090.102, 27.89352
1090.584, 28.31374
1091.067, 28.72297
1091.549, 28.57836
1092.031, 27.73731
1092.513, 27.30017
1092.995, 28.03329
1093.477, 28.81461
1093.959, 29.13089
1094.441, 29.30268
1094.924, 29.61114
1095.406, 29.96768
1095.888, 30.14870
1096.370, 30.13350
1096.852, 30.18690
1097.334, 30.45272
1097.816, 30.71915
1098.298, 31.02188
1098.781, 31.18762
1099.263, 30.88841
1099.745, 30.50987
1100.227, 30.67635
1100.709, 31.33550
1101.191, 31.72289
1101.673, 31.44453
1102.155, 31.32074
1102.637, 31.78747
1103.120, 32.21112
1103.602, 32.17621
1104.084, 32.00188
1104.566, 31.98048
1105.048, 32.13342
1105.530, 32.45642
1106.012, 33.04706
1106.494, 33.46485
1106.976, 33.46722
1107.459, 33.49782
1107.941, 33.85386
1108.423, 34.17202
1108.905, 33.99262
1109.387, 33.59652
1109.869, 33.70636
1110.351, 34.49856
1110.833, 34.97135
1111.316, 34.68934
1111.798, 34.55642
1112.280, 34.98975
1112.762, 35.36637
1113.244, 35.19649
1113.726, 34.80518
1114.208, 34.68583
1114.690, 34.85321
1115.172, 35.03868
1115.655, 35.30586
1116.137, 35.47739
1116.619, 35.35470
1117.101, 35.38677
1117.583, 35.84966
1118.065, 36.45805
1118.547, 36.93799
1119.029, 37.30089
1119.511, 37.63534
1119.994, 38.05012
1120.476, 38.13944
1120.958, 37.67334
1121.440, 37.31557
1121.922, 37.21315
1122.404, 37.35567
1122.886, 37.91411
1123.368, 38.57069
1123.851, 38.46138
1124.333, 37.42529
1124.815, 36.94088
1125.297, 37.16401
1125.779, 37.47503
1126.261, 37.84553
1126.743, 38.05803
1127.225, 37.94934
1127.708, 37.69783
1128.190, 37.55788
1128.672, 37.52236
1129.154, 37.49566
1129.636, 37.45464
1130.118, 37.61479
1130.600, 38.02856
1131.082, 38.46486
1131.564, 38.85632
1132.047, 39.09385
1132.529, 39.03909
1133.011, 38.80536
1133.493, 38.77212
1133.975, 38.92698
1134.457, 38.81569
1134.939, 38.42797
1135.421, 37.94294
1135.903, 37.40105
1136.386, 37.18234
1136.868, 37.57951
1137.350, 38.15406
1137.832, 38.09023
1138.314, 37.62717
1138.796, 37.89868
1139.278, 38.70290
1139.760, 38.89954
1140.243, 38.41168
1140.725, 38.01598
1141.207, 38.04871
1141.689, 38.23959
1142.171, 38.36126
1142.653, 38.39604
1143.135, 38.24735
1143.617, 38.01263
1144.099, 37.97413
1144.582, 38.05781
1145.064, 37.91506
1145.546, 37.50489
1146.028, 37.15582
1146.510, 37.04682
1146.992, 37.20664
1147.474, 38.03170
1147.956, 38.83667
1148.438, 38.48856
1148.921, 37.61272
1149.403, 37.35418
1149.885, 37.68325
1150.367, 37.90846
1150.849, 37.77966
1151.331, 37.49065
1151.813, 36.96436
1152.295, 36.56380
1152.778, 36.65837
1153.260, 36.90730
1153.742, 37.02360
1154.224, 37.00924
1154.706, 36.93819
1155.188, 36.81280
1155.670, 36.53967
1156.152, 36.00678
1156.635, 35.49242
1157.117, 35.00908
1157.599, 34.67719
1158.081, 34.71178
1158.563, 34.81151
1159.045, 34.63226
1159.527, 34.25394
1160.009, 33.99590
1160.491, 33.93693
1160.974, 33.79647
1161.456, 33.43230
1161.938, 33.14402
1162.420, 32.97369
1162.902, 32.91877
1163.384, 33.16306
1163.866, 33.38785
1164.348, 33.08894
1164.830, 32.30291
1165.313, 31.60860
1165.795, 30.82118
1166.277, 30.69039
1166.759, 31.71644
1167.241, 32.15697
1167.723, 31.25506
1168.205, 30.03809
1168.687, 29.36449
1169.170, 29.02633
1169.652, 28.46038
1170.134, 27.65740
1170.616, 27.53292
1171.098, 28.16640
1171.580, 28.21090
1172.062, 27.40284
1172.544, 26.66729
1173.026, 26.47764
1173.509, 26.42583
1173.991, 26.02610
1174.473, 25.41205
1174.955, 24.89354
1175.437, 24.48257
1175.919, 24.32838
1176.401, 24.35864
1176.883, 24.10908
1177.365, 23.51844
1177.848, 23.13439
1178.330, 23.33724
1178.812, 23.58965
1179.294, 23.18506
1179.776, 22.49804
1180.258, 22.02230
1180.740, 21.71628
1181.222, 21.55541
1181.705, 21.46744
1182.187, 21.27840
1182.669, 20.94510
1183.151, 20.62723
1183.633, 20.43950
1184.115, 20.25864
1184.597, 19.91135
1185.079, 19.33367
1185.562, 19.27253
1186.044, 19.15723
1186.526, 18.99023
1187.008, 18.61690
1187.490, 18.51006
1187.972, 18.29638
1188.454, 18.07838
1188.936, 18.00899
1189.418, 17.66571
1189.901, 17.59359
1190.383, 17.41343
1190.865, 17.28293
1191.347, 17.45007
1191.829, 17.24009
1192.311, 16.80581
1192.793, 16.57807
1193.275, 16.71055
1193.757, 16.64927
1194.240, 16.26996
1194.722, 15.96967
1195.204, 15.85719
1195.686, 15.90356
1196.168, 16.14728
1196.650, 16.40664
1197.132, 16.28192
1197.614, 15.80645
1198.097, 15.41681
1198.579, 15.11408
1199.061, 15.12456
1199.543, 15.46487
1200.025, 15.70549
1200.507, 15.67718
1200.989, 15.51576
1201.471, 15.33091
1201.953, 15.12592
1202.436, 14.85491
1202.918, 14.59512
1203.400, 14.62604
1203.882, 14.78949
1204.364, 14.57029
1204.846, 14.01217
1205.328, 13.63233
1205.810, 13.63720
1206.292, 13.78364
1206.775, 13.93144
1207.257, 14.09365
1207.739, 14.41235
1208.221, 14.62639
1208.703, 14.33022
1209.185, 13.83444
1209.667, 13.66442
1210.149, 13.80491
1210.632, 13.82365
1211.114, 13.54462
1211.596, 13.38987
1212.078, 13.59181
1212.560, 13.75530
1213.042, 13.74866
1213.524, 13.66848
1214.006, 13.54348
1214.489, 13.41158
1214.971, 13.35150
1215.453, 13.34744
1215.935, 13.18724
1216.417, 12.79235
1216.899, 12.49378
1217.381, 12.29949
1217.863, 12.20134
1218.345, 12.19456
1218.828, 12.32224
1219.310, 12.65509
1219.792, 12.96843
1220.274, 12.83136
1220.756, 12.37063
1221.238, 12.14953
1221.720, 12.15215
1222.202, 12.39902
1222.684, 12.80955
1223.167, 12.88358
1223.649, 12.51311
1224.131, 12.18060
1224.613, 12.22650
1225.095, 12.36901
1225.577, 12.30852
1226.059, 12.15432
1226.541, 11.96605
1227.024, 11.82301
1227.506, 11.83987
1227.988, 11.99704
1228.470, 12.29010
1228.952, 12.68474
1229.434, 12.85657
1229.916, 12.58781
1230.398, 12.24250
1230.880, 11.79720
1231.363, 11.49043
1231.845, 11.50651
1232.327, 11.66483
1232.809, 11.90420
1233.291, 12.11632
1233.773, 11.98258
1234.255, 11.44252
1234.737, 11.44949
1235.219, 12.35340
1235.702, 12.73291
1236.184, 12.29947
1236.666, 11.89739
1237.148, 11.83368
1237.630, 11.91612
1238.112, 12.00077
1238.594, 12.05255
1239.076, 11.97237
1239.559, 11.79453
1240.041, 11.68443
1240.523, 11.64833
1241.005, 11.78138
1241.487, 12.03575
1241.969, 12.08496
1242.451, 11.84590
1242.933, 11.66443
1243.416, 11.82121
1243.898, 12.00434
1244.380, 11.93375
1244.862, 11.69948
1245.344, 11.18495
1245.826, 10.71790
1246.308, 10.86771
1246.790, 11.38034
1247.272, 11.48892
1247.755, 11.06562
1248.237, 10.89268
1248.719, 11.48478
1249.201, 11.86951
1249.683, 11.72350
1250.165, 11.54940
1250.647, 11.48920
1251.129, 11.53311
1251.611, 11.76868
1252.094, 12.01394
1252.576, 11.84730
1253.058, 11.28637
1253.540, 11.09982
1254.022, 11.33544
1254.504, 11.44940
1254.986, 11.39076
1255.468, 11.18471
1255.951, 10.83979
1256.433, 10.65467
1256.915, 10.86150
1257.397, 11.20561
1257.879, 11.33645
1258.361, 11.33629
1258.843, 11.27520
1259.325, 11.24729
1259.807, 11.54674
1260.290, 12.00650
1260.772, 12.15976
1261.254, 11.94420
1261.736, 11.68170
1262.218, 11.47964
1262.700, 11.36064
1263.182, 11.33533
1263.664, 11.39530
1264.146, 11.65858
1264.629, 11.88187
1265.111, 11.79284
1265.593, 11.59215
1266.075, 11.64850
1266.557, 11.91464
1267.039, 11.99259
1267.521, 11.84679
1268.003, 11.61251
1268.486, 11.24421
1268.968, 10.98868
1269.450, 10.89929
1269.932, 10.94166
1270.414, 11.11045
1270.896, 11.26578
1271.378, 11.21943
1271.860, 11.09810
1272.343, 11.25812
1272.825, 11.53363
1273.307, 11.42984
1273.789, 11.10397
1274.271, 11.01317
1274.753, 11.18834
1275.235, 11.47110
1275.717, 11.79585
1276.199, 11.92227
1276.682, 11.53559
1277.164, 11.19000
1277.646, 11.20782
1278.128, 11.29223
1278.610, 11.32653
1279.092, 11.27186
1279.574, 10.98473
1280.056, 10.61489
1280.538, 10.56255
1281.021, 10.84242
1281.503, 11.18782
1281.985, 11.69778
1282.467, 11.86174
1282.949, 11.56893
1283.431, 11.31177
1283.913, 11.24483
1284.395, 11.25260
1284.878, 11.25307
1285.360, 11.28316
1285.842, 11.41471
1286.324, 11.59877
1286.806, 11.74785
1287.288, 11.86557
##END=



