##NAMES=Barytolamprophyllite
##RRUFFID=R120087
##IDEAL CHEMISTRY=(BaK)Ti^4+^_2_Na_3_Ti^4+^(Si_2_O_7_)_2_O_2_(OH)_2_
##LOCALITY=Coyote Peak, Orick, Humboldt County, California, USA
##OWNER=RRUFF
##SOURCE=Michael Scott
##DESCRIPTION=Tabular reddish brown massive, associated with phlogopite, bartonite and R070139 erdite
##STATUS=The identification of this mineral has been confirmed only by single crystal X-ray diffraction.
##URL=rruff.info/R120087
9.112140e+001, 0.000000e+000
9.160352e+001, 3.990177e+002
9.208563e+001, 3.951320e+002
9.256775e+001, 3.947831e+002
9.304987e+001, 4.001472e+002
9.353198e+001, 4.060780e+002
9.401410e+001, 4.063639e+002
9.449622e+001, 4.015991e+002
9.497833e+001, 3.942105e+002
9.546045e+001, 3.860846e+002
9.594257e+001, 3.772383e+002
9.642468e+001, 3.677347e+002
9.690680e+001, 3.567162e+002
9.738892e+001, 3.464083e+002
9.787103e+001, 3.376137e+002
9.835315e+001, 3.298587e+002
9.883527e+001, 3.223070e+002
9.931738e+001, 3.149928e+002
9.979950e+001, 3.078711e+002
1.002816e+002, 3.015593e+002
1.007637e+002, 2.961816e+002
1.012458e+002, 2.912825e+002
1.017280e+002, 2.863643e+002
1.022101e+002, 2.811777e+002
1.026922e+002, 2.763010e+002
1.031743e+002, 2.728751e+002
1.036564e+002, 2.708381e+002
1.041385e+002, 2.688857e+002
1.046207e+002, 2.663875e+002
1.051028e+002, 2.635518e+002
1.055849e+002, 2.610844e+002
1.060670e+002, 2.592187e+002
1.065491e+002, 2.577434e+002
1.070313e+002, 2.564709e+002
1.075134e+002, 2.554304e+002
1.079955e+002, 2.543026e+002
1.084776e+002, 2.526224e+002
1.089597e+002, 2.501753e+002
1.094418e+002, 2.480812e+002
1.099240e+002, 2.470987e+002
1.104061e+002, 2.463388e+002
1.108882e+002, 2.450842e+002
1.113703e+002, 2.430303e+002
1.118524e+002, 2.405278e+002
1.123345e+002, 2.385196e+002
1.128167e+002, 2.373117e+002
1.132988e+002, 2.362604e+002
1.137809e+002, 2.352790e+002
1.142630e+002, 2.343774e+002
1.147451e+002, 2.335868e+002
1.152272e+002, 2.329422e+002
1.157094e+002, 2.324259e+002
1.161915e+002, 2.318176e+002
1.166736e+002, 2.309756e+002
1.171557e+002, 2.301856e+002
1.176378e+002, 2.295640e+002
1.181199e+002, 2.290847e+002
1.186021e+002, 2.286324e+002
1.190842e+002, 2.280886e+002
1.195663e+002, 2.274508e+002
1.200484e+002, 2.270280e+002
1.205305e+002, 2.269579e+002
1.210126e+002, 2.270072e+002
1.214948e+002, 2.270483e+002
1.219769e+002, 2.270847e+002
1.224590e+002, 2.269429e+002
1.229411e+002, 2.262817e+002
1.234232e+002, 2.252428e+002
1.239053e+002, 2.242652e+002
1.243875e+002, 2.235185e+002
1.248696e+002, 2.229449e+002
1.253517e+002, 2.224008e+002
1.258338e+002, 2.218935e+002
1.263159e+002, 2.213780e+002
1.267980e+002, 2.208474e+002
1.272802e+002, 2.202932e+002
1.277623e+002, 2.196833e+002
1.282444e+002, 2.189201e+002
1.287265e+002, 2.179738e+002
1.292086e+002, 2.172288e+002
1.296907e+002, 2.170778e+002
1.301729e+002, 2.168755e+002
1.306550e+002, 2.162954e+002
1.311371e+002, 2.153120e+002
1.316192e+002, 2.141418e+002
1.321013e+002, 2.130854e+002
1.325834e+002, 2.122144e+002
1.330656e+002, 2.113025e+002
1.335477e+002, 2.101733e+002
1.340298e+002, 2.091067e+002
1.345119e+002, 2.083214e+002
1.349940e+002, 2.078905e+002
1.354761e+002, 2.077265e+002
1.359583e+002, 2.076434e+002
1.364404e+002, 2.077447e+002
1.369225e+002, 2.078052e+002
1.374046e+002, 2.076417e+002
1.378867e+002, 2.074643e+002
1.383688e+002, 2.076326e+002
1.388510e+002, 2.083652e+002
1.393331e+002, 2.094388e+002
1.398152e+002, 2.100880e+002
1.402973e+002, 2.099106e+002
1.407794e+002, 2.099680e+002
1.412615e+002, 2.109119e+002
1.417437e+002, 2.125543e+002
1.422258e+002, 2.140269e+002
1.427079e+002, 2.146572e+002
1.431900e+002, 2.149439e+002
1.436721e+002, 2.159429e+002
1.441542e+002, 2.180240e+002
1.446364e+002, 2.204368e+002
1.451185e+002, 2.223988e+002
1.456006e+002, 2.238151e+002
1.460827e+002, 2.253532e+002
1.465648e+002, 2.275314e+002
1.470469e+002, 2.299733e+002
1.475291e+002, 2.323083e+002
1.480112e+002, 2.343666e+002
1.484933e+002, 2.362861e+002
1.489754e+002, 2.383927e+002
1.494575e+002, 2.408529e+002
1.499396e+002, 2.432392e+002
1.504218e+002, 2.452423e+002
1.509039e+002, 2.471470e+002
1.513860e+002, 2.492914e+002
1.518681e+002, 2.518590e+002
1.523502e+002, 2.548627e+002
1.528323e+002, 2.582506e+002
1.533145e+002, 2.626931e+002
1.537966e+002, 2.668939e+002
1.542787e+002, 2.703989e+002
1.547608e+002, 2.734679e+002
1.552429e+002, 2.766512e+002
1.557250e+002, 2.804050e+002
1.562072e+002, 2.847579e+002
1.566893e+002, 2.891592e+002
1.571714e+002, 2.931222e+002
1.576535e+002, 2.975631e+002
1.581356e+002, 3.033936e+002
1.586177e+002, 3.102928e+002
1.590999e+002, 3.169023e+002
1.595820e+002, 3.218228e+002
1.600641e+002, 3.246894e+002
1.605462e+002, 3.285848e+002
1.610283e+002, 3.341404e+002
1.615104e+002, 3.402102e+002
1.619926e+002, 3.461134e+002
1.624747e+002, 3.517341e+002
1.629568e+002, 3.570102e+002
1.634389e+002, 3.620596e+002
1.639210e+002, 3.668521e+002
1.644031e+002, 3.700526e+002
1.648853e+002, 3.712632e+002
1.653674e+002, 3.707845e+002
1.658495e+002, 3.689731e+002
1.663316e+002, 3.658143e+002
1.668137e+002, 3.614024e+002
1.672958e+002, 3.558959e+002
1.677780e+002, 3.493777e+002
1.682601e+002, 3.416041e+002
1.687422e+002, 3.319179e+002
1.692243e+002, 3.207315e+002
1.697064e+002, 3.098546e+002
1.701885e+002, 2.995016e+002
1.706707e+002, 2.895169e+002
1.711528e+002, 2.795306e+002
1.716349e+002, 2.696685e+002
1.721170e+002, 2.603599e+002
1.725991e+002, 2.518927e+002
1.730812e+002, 2.442692e+002
1.735634e+002, 2.374533e+002
1.740455e+002, 2.320033e+002
1.745276e+002, 2.269581e+002
1.750097e+002, 2.219397e+002
1.754918e+002, 2.169509e+002
1.759739e+002, 2.122449e+002
1.764561e+002, 2.081309e+002
1.769382e+002, 2.046449e+002
1.774203e+002, 2.015757e+002
1.779024e+002, 1.989289e+002
1.783845e+002, 1.966373e+002
1.788666e+002, 1.947873e+002
1.793488e+002, 1.933412e+002
1.798309e+002, 1.920905e+002
1.803130e+002, 1.907602e+002
1.807951e+002, 1.891803e+002
1.812772e+002, 1.879486e+002
1.817593e+002, 1.873654e+002
1.822415e+002, 1.868932e+002
1.827236e+002, 1.860307e+002
1.832057e+002, 1.846961e+002
1.836878e+002, 1.833276e+002
1.841699e+002, 1.826175e+002
1.846520e+002, 1.830777e+002
1.851342e+002, 1.832269e+002
1.856163e+002, 1.826048e+002
1.860984e+002, 1.818468e+002
1.865805e+002, 1.817389e+002
1.870626e+002, 1.825435e+002
1.875447e+002, 1.836899e+002
1.880269e+002, 1.841406e+002
1.885090e+002, 1.836835e+002
1.889911e+002, 1.835201e+002
1.894732e+002, 1.841797e+002
1.899553e+002, 1.852649e+002
1.904374e+002, 1.860128e+002
1.909196e+002, 1.860966e+002
1.914017e+002, 1.860340e+002
1.918838e+002, 1.865935e+002
1.923659e+002, 1.877674e+002
1.928480e+002, 1.891059e+002
1.933301e+002, 1.905199e+002
1.938123e+002, 1.919583e+002
1.942944e+002, 1.931965e+002
1.947765e+002, 1.939673e+002
1.952586e+002, 1.947852e+002
1.957407e+002, 1.962130e+002
1.962228e+002, 1.982566e+002
1.967050e+002, 2.003839e+002
1.971871e+002, 2.021627e+002
1.976692e+002, 2.036147e+002
1.981513e+002, 2.052354e+002
1.986334e+002, 2.072499e+002
1.991155e+002, 2.093666e+002
1.995977e+002, 2.113681e+002
2.000798e+002, 2.132520e+002
2.005619e+002, 2.151596e+002
2.010440e+002, 2.171808e+002
2.015261e+002, 2.193031e+002
2.020082e+002, 2.217220e+002
2.024904e+002, 2.246281e+002
2.029725e+002, 2.277491e+002
2.034546e+002, 2.309337e+002
2.039367e+002, 2.341836e+002
2.044188e+002, 2.376666e+002
2.049009e+002, 2.417462e+002
2.053831e+002, 2.468596e+002
2.058652e+002, 2.511758e+002
2.063473e+002, 2.539948e+002
2.068294e+002, 2.565477e+002
2.073115e+002, 2.593548e+002
2.077936e+002, 2.625735e+002
2.082758e+002, 2.662350e+002
2.087579e+002, 2.704988e+002
2.092400e+002, 2.761154e+002
2.097221e+002, 2.805976e+002
2.102042e+002, 2.838853e+002
2.106863e+002, 2.863023e+002
2.111685e+002, 2.878099e+002
2.116506e+002, 2.885191e+002
2.121327e+002, 2.889320e+002
2.126148e+002, 2.898026e+002
2.130969e+002, 2.915342e+002
2.135790e+002, 2.928557e+002
2.140612e+002, 2.937229e+002
2.145433e+002, 2.942438e+002
2.150254e+002, 2.944990e+002
2.155075e+002, 2.945069e+002
2.159896e+002, 2.942612e+002
2.164717e+002, 2.937545e+002
2.169539e+002, 2.929537e+002
2.174360e+002, 2.918627e+002
2.179181e+002, 2.904701e+002
2.184002e+002, 2.887912e+002
2.188823e+002, 2.867535e+002
2.193644e+002, 2.843420e+002
2.198466e+002, 2.817805e+002
2.203287e+002, 2.794108e+002
2.208108e+002, 2.773006e+002
2.212929e+002, 2.749230e+002
2.217750e+002, 2.720072e+002
2.222571e+002, 2.688625e+002
2.227393e+002, 2.658685e+002
2.232214e+002, 2.631169e+002
2.237035e+002, 2.604703e+002
2.241856e+002, 2.578139e+002
2.246677e+002, 2.551584e+002
2.251498e+002, 2.524416e+002
2.256320e+002, 2.494389e+002
2.261141e+002, 2.464166e+002
2.265962e+002, 2.438753e+002
2.270783e+002, 2.419916e+002
2.275604e+002, 2.403066e+002
2.280425e+002, 2.383575e+002
2.285247e+002, 2.362118e+002
2.290068e+002, 2.340451e+002
2.294889e+002, 2.318793e+002
2.299710e+002, 2.297606e+002
2.304531e+002, 2.277337e+002
2.309352e+002, 2.257271e+002
2.314174e+002, 2.240152e+002
2.318995e+002, 2.230183e+002
2.323816e+002, 2.224969e+002
2.328637e+002, 2.217984e+002
2.333458e+002, 2.204096e+002
2.338279e+002, 2.185800e+002
2.343101e+002, 2.170542e+002
2.347922e+002, 2.157714e+002
2.352743e+002, 2.150064e+002
2.357564e+002, 2.151005e+002
2.362385e+002, 2.157445e+002
2.367206e+002, 2.163218e+002
2.372028e+002, 2.164691e+002
2.376849e+002, 2.162696e+002
2.381670e+002, 2.160786e+002
2.386491e+002, 2.159079e+002
2.391312e+002, 2.157277e+002
2.396133e+002, 2.154124e+002
2.400955e+002, 2.150907e+002
2.405776e+002, 2.149834e+002
2.410597e+002, 2.152571e+002
2.415418e+002, 2.158407e+002
2.420239e+002, 2.163891e+002
2.425060e+002, 2.169104e+002
2.429882e+002, 2.173797e+002
2.434703e+002, 2.177905e+002
2.439524e+002, 2.181523e+002
2.444345e+002, 2.184919e+002
2.449166e+002, 2.188367e+002
2.453987e+002, 2.191571e+002
2.458809e+002, 2.192916e+002
2.463630e+002, 2.189710e+002
2.468451e+002, 2.188125e+002
2.473272e+002, 2.191928e+002
2.478093e+002, 2.197324e+002
2.482914e+002, 2.198824e+002
2.487736e+002, 2.193163e+002
2.492557e+002, 2.182617e+002
2.497378e+002, 2.176633e+002
2.502199e+002, 2.180565e+002
2.507020e+002, 2.182635e+002
2.511841e+002, 2.181646e+002
2.516663e+002, 2.177922e+002
2.521484e+002, 2.171563e+002
2.526305e+002, 2.162547e+002
2.531126e+002, 2.151741e+002
2.535947e+002, 2.141598e+002
2.540768e+002, 2.131275e+002
2.545590e+002, 2.123017e+002
2.550411e+002, 2.118762e+002
2.555232e+002, 2.115913e+002
2.560053e+002, 2.111536e+002
2.564874e+002, 2.104408e+002
2.569695e+002, 2.095482e+002
2.574517e+002, 2.087071e+002
2.579338e+002, 2.078400e+002
2.584159e+002, 2.071317e+002
2.588980e+002, 2.067692e+002
2.593801e+002, 2.064838e+002
2.598622e+002, 2.059570e+002
2.603444e+002, 2.050829e+002
2.608265e+002, 2.040425e+002
2.613086e+002, 2.031772e+002
2.617907e+002, 2.025785e+002
2.622728e+002, 2.020244e+002
2.627549e+002, 2.013024e+002
2.632371e+002, 2.007214e+002
2.637192e+002, 2.007028e+002
2.642013e+002, 2.013409e+002
2.646834e+002, 2.022047e+002
2.651655e+002, 2.026248e+002
2.656476e+002, 2.022462e+002
2.661298e+002, 2.023039e+002
2.666119e+002, 2.031985e+002
2.670940e+002, 2.043342e+002
2.675761e+002, 2.050186e+002
2.680582e+002, 2.051453e+002
2.685403e+002, 2.053775e+002
2.690225e+002, 2.066333e+002
2.695046e+002, 2.093101e+002
2.699867e+002, 2.110971e+002
2.704688e+002, 2.111163e+002
2.709509e+002, 2.107347e+002
2.714330e+002, 2.110257e+002
2.719152e+002, 2.121313e+002
2.723973e+002, 2.137888e+002
2.728794e+002, 2.158746e+002
2.733615e+002, 2.184330e+002
2.738436e+002, 2.207382e+002
2.743257e+002, 2.226108e+002
2.748079e+002, 2.243569e+002
2.752900e+002, 2.261153e+002
2.757721e+002, 2.279198e+002
2.762542e+002, 2.299043e+002
2.767363e+002, 2.322739e+002
2.772184e+002, 2.349486e+002
2.777006e+002, 2.373444e+002
2.781827e+002, 2.391420e+002
2.786648e+002, 2.408940e+002
2.791469e+002, 2.429297e+002
2.796290e+002, 2.452425e+002
2.801111e+002, 2.478175e+002
2.805933e+002, 2.508924e+002
2.810754e+002, 2.541228e+002
2.815575e+002, 2.564665e+002
2.820396e+002, 2.571942e+002
2.825217e+002, 2.579246e+002
2.830038e+002, 2.596417e+002
2.834860e+002, 2.622348e+002
2.839681e+002, 2.651702e+002
2.844502e+002, 2.683360e+002
2.849323e+002, 2.716057e+002
2.854144e+002, 2.746967e+002
2.858965e+002, 2.775143e+002
2.863787e+002, 2.803866e+002
2.868608e+002, 2.836015e+002
2.873429e+002, 2.870383e+002
2.878250e+002, 2.902521e+002
2.883071e+002, 2.929390e+002
2.887892e+002, 2.955620e+002
2.892714e+002, 2.988947e+002
2.897535e+002, 3.030222e+002
2.902356e+002, 3.069930e+002
2.907177e+002, 3.100974e+002
2.911998e+002, 3.126993e+002
2.916819e+002, 3.158892e+002
2.921641e+002, 3.201129e+002
2.926462e+002, 3.245819e+002
2.931283e+002, 3.282721e+002
2.936104e+002, 3.312850e+002
2.940925e+002, 3.346595e+002
2.945746e+002, 3.391363e+002
2.950568e+002, 3.441858e+002
2.955389e+002, 3.486010e+002
2.960210e+002, 3.519858e+002
2.965031e+002, 3.554975e+002
2.969852e+002, 3.605597e+002
2.974673e+002, 3.666308e+002
2.979495e+002, 3.722867e+002
2.984316e+002, 3.767555e+002
2.989137e+002, 3.806455e+002
2.993958e+002, 3.847977e+002
2.998779e+002, 3.892441e+002
3.003600e+002, 3.939035e+002
3.008422e+002, 3.987365e+002
3.013243e+002, 4.037461e+002
3.018064e+002, 4.089078e+002
3.022885e+002, 4.143747e+002
3.027706e+002, 4.199073e+002
3.032527e+002, 4.250770e+002
3.037349e+002, 4.298471e+002
3.042170e+002, 4.351115e+002
3.046991e+002, 4.417826e+002
3.051812e+002, 4.489717e+002
3.056633e+002, 4.554706e+002
3.061454e+002, 4.610292e+002
3.066276e+002, 4.660971e+002
3.071097e+002, 4.708655e+002
3.075918e+002, 4.753538e+002
3.080739e+002, 4.801290e+002
3.085560e+002, 4.855914e+002
3.090381e+002, 4.911743e+002
3.095203e+002, 4.962208e+002
3.100024e+002, 5.007041e+002
3.104845e+002, 5.049740e+002
3.109666e+002, 5.095174e+002
3.114487e+002, 5.141364e+002
3.119308e+002, 5.176751e+002
3.124130e+002, 5.193652e+002
3.128951e+002, 5.206492e+002
3.133772e+002, 5.230941e+002
3.138593e+002, 5.264897e+002
3.143414e+002, 5.293443e+002
3.148235e+002, 5.307682e+002
3.153057e+002, 5.311135e+002
3.157878e+002, 5.314031e+002
3.162699e+002, 5.319528e+002
3.167520e+002, 5.318511e+002
3.172341e+002, 5.302310e+002
3.177162e+002, 5.275005e+002
3.181984e+002, 5.243879e+002
3.186805e+002, 5.213406e+002
3.191626e+002, 5.179862e+002
3.196447e+002, 5.134882e+002
3.201268e+002, 5.075928e+002
3.206089e+002, 5.018609e+002
3.210911e+002, 4.979570e+002
3.215732e+002, 4.945077e+002
3.220553e+002, 4.894686e+002
3.225374e+002, 4.818640e+002
3.230195e+002, 4.734488e+002
3.235016e+002, 4.659273e+002
3.239838e+002, 4.592578e+002
3.244659e+002, 4.530846e+002
3.249480e+002, 4.477549e+002
3.254301e+002, 4.425370e+002
3.259122e+002, 4.365100e+002
3.263943e+002, 4.294186e+002
3.268765e+002, 4.223296e+002
3.273586e+002, 4.159279e+002
3.278407e+002, 4.101410e+002
3.283228e+002, 4.047057e+002
3.288049e+002, 3.995240e+002
3.292870e+002, 3.947752e+002
3.297692e+002, 3.907300e+002
3.302513e+002, 3.873388e+002
3.307334e+002, 3.840006e+002
3.312155e+002, 3.801226e+002
3.316976e+002, 3.761302e+002
3.321797e+002, 3.731536e+002
3.326619e+002, 3.715705e+002
3.331440e+002, 3.702775e+002
3.336261e+002, 3.680961e+002
3.341082e+002, 3.654707e+002
3.345903e+002, 3.635319e+002
3.350724e+002, 3.629472e+002
3.355546e+002, 3.630817e+002
3.360367e+002, 3.633513e+002
3.365188e+002, 3.638089e+002
3.370009e+002, 3.637694e+002
3.374830e+002, 3.624512e+002
3.379651e+002, 3.604736e+002
3.384473e+002, 3.590267e+002
3.389294e+002, 3.584176e+002
3.394115e+002, 3.580786e+002
3.398936e+002, 3.576043e+002
3.403757e+002, 3.570125e+002
3.408578e+002, 3.564587e+002
3.413400e+002, 3.560322e+002
3.418221e+002, 3.556331e+002
3.423042e+002, 3.550762e+002
3.427863e+002, 3.543139e+002
3.432684e+002, 3.536439e+002
3.437505e+002, 3.535254e+002
3.442327e+002, 3.535963e+002
3.447148e+002, 3.528809e+002
3.451969e+002, 3.510087e+002
3.456790e+002, 3.487567e+002
3.461611e+002, 3.468692e+002
3.466432e+002, 3.453029e+002
3.471254e+002, 3.441177e+002
3.476075e+002, 3.438210e+002
3.480896e+002, 3.436784e+002
3.485717e+002, 3.426175e+002
3.490538e+002, 3.405096e+002
3.495359e+002, 3.384589e+002
3.500181e+002, 3.374482e+002
3.505002e+002, 3.371913e+002
3.509823e+002, 3.363320e+002
3.514644e+002, 3.340233e+002
3.519465e+002, 3.317611e+002
3.524286e+002, 3.307820e+002
3.529108e+002, 3.308286e+002
3.533929e+002, 3.306245e+002
3.538750e+002, 3.295103e+002
3.543571e+002, 3.278059e+002
3.548392e+002, 3.263161e+002
3.553214e+002, 3.250922e+002
3.558035e+002, 3.239283e+002
3.562856e+002, 3.227503e+002
3.567677e+002, 3.215883e+002
3.572498e+002, 3.204634e+002
3.577319e+002, 3.193633e+002
3.582141e+002, 3.184023e+002
3.586962e+002, 3.177817e+002
3.591783e+002, 3.175644e+002
3.596604e+002, 3.172848e+002
3.601425e+002, 3.168160e+002
3.606246e+002, 3.163080e+002
3.611068e+002, 3.159625e+002
3.615889e+002, 3.157757e+002
3.620710e+002, 3.154797e+002
3.625531e+002, 3.147791e+002
3.630352e+002, 3.136923e+002
3.635173e+002, 3.130463e+002
3.639995e+002, 3.132338e+002
3.644816e+002, 3.134260e+002
3.649637e+002, 3.132133e+002
3.654458e+002, 3.126881e+002
3.659279e+002, 3.121346e+002
3.664100e+002, 3.117101e+002
3.668922e+002, 3.113340e+002
3.673743e+002, 3.107331e+002
3.678564e+002, 3.094019e+002
3.683385e+002, 3.085658e+002
3.688206e+002, 3.089239e+002
3.693027e+002, 3.096269e+002
3.697849e+002, 3.095674e+002
3.702670e+002, 3.084662e+002
3.707491e+002, 3.070660e+002
3.712312e+002, 3.064163e+002
3.717133e+002, 3.068661e+002
3.721954e+002, 3.070605e+002
3.726776e+002, 3.063709e+002
3.731597e+002, 3.059618e+002
3.736418e+002, 3.068262e+002
3.741239e+002, 3.087447e+002
3.746060e+002, 3.105791e+002
3.750881e+002, 3.113434e+002
3.755703e+002, 3.110962e+002
3.760524e+002, 3.119840e+002
3.765345e+002, 3.154120e+002
3.770166e+002, 3.183525e+002
3.774987e+002, 3.196854e+002
3.779808e+002, 3.202289e+002
3.784630e+002, 3.212029e+002
3.789451e+002, 3.231707e+002
3.794272e+002, 3.258101e+002
3.799093e+002, 3.283347e+002
3.803914e+002, 3.304117e+002
3.808735e+002, 3.329877e+002
3.813557e+002, 3.362809e+002
3.818378e+002, 3.398877e+002
3.823199e+002, 3.437321e+002
3.828020e+002, 3.476959e+002
3.832841e+002, 3.513719e+002
3.837662e+002, 3.541080e+002
3.842484e+002, 3.556364e+002
3.847305e+002, 3.581695e+002
3.852126e+002, 3.629676e+002
3.856947e+002, 3.676056e+002
3.861768e+002, 3.713418e+002
3.866589e+002, 3.743252e+002
3.871411e+002, 3.769972e+002
3.876232e+002, 3.796317e+002
3.881053e+002, 3.821603e+002
3.885874e+002, 3.842991e+002
3.890695e+002, 3.858969e+002
3.895516e+002, 3.873611e+002
3.900338e+002, 3.891040e+002
3.905159e+002, 3.906229e+002
3.909980e+002, 3.914405e+002
3.914801e+002, 3.914268e+002
3.919622e+002, 3.908125e+002
3.924443e+002, 3.899320e+002
3.929265e+002, 3.888361e+002
3.934086e+002, 3.870262e+002
3.938907e+002, 3.842429e+002
3.943728e+002, 3.808441e+002
3.948549e+002, 3.767483e+002
3.953370e+002, 3.721645e+002
3.958192e+002, 3.678185e+002
3.963013e+002, 3.645822e+002
3.967834e+002, 3.619228e+002
3.972655e+002, 3.578484e+002
3.977476e+002, 3.516757e+002
3.982297e+002, 3.458853e+002
3.987119e+002, 3.420820e+002
3.991940e+002, 3.393392e+002
3.996761e+002, 3.365604e+002
4.001582e+002, 3.334007e+002
4.006403e+002, 3.302844e+002
4.011224e+002, 3.275915e+002
4.016046e+002, 3.252999e+002
4.020867e+002, 3.234567e+002
4.025688e+002, 3.223511e+002
4.030509e+002, 3.213958e+002
4.035330e+002, 3.196768e+002
4.040151e+002, 3.171595e+002
4.044973e+002, 3.152058e+002
4.049794e+002, 3.147992e+002
4.054615e+002, 3.152347e+002
4.059436e+002, 3.152439e+002
4.064257e+002, 3.146316e+002
4.069078e+002, 3.140097e+002
4.073900e+002, 3.139218e+002
4.078721e+002, 3.142745e+002
4.083542e+002, 3.145122e+002
4.088363e+002, 3.145935e+002
4.093184e+002, 3.145559e+002
4.098005e+002, 3.143265e+002
4.102827e+002, 3.139772e+002
4.107648e+002, 3.138011e+002
4.112469e+002, 3.139895e+002
4.117290e+002, 3.143024e+002
4.122111e+002, 3.141494e+002
4.126932e+002, 3.133589e+002
4.131754e+002, 3.126155e+002
4.136575e+002, 3.121770e+002
4.141396e+002, 3.117656e+002
4.146217e+002, 3.109798e+002
4.151038e+002, 3.097918e+002
4.155859e+002, 3.086693e+002
4.160681e+002, 3.081474e+002
4.165502e+002, 3.083297e+002
4.170323e+002, 3.079049e+002
4.175144e+002, 3.062913e+002
4.179965e+002, 3.047784e+002
4.184786e+002, 3.039909e+002
4.189608e+002, 3.036787e+002
4.194429e+002, 3.033192e+002
4.199250e+002, 3.026476e+002
4.204071e+002, 3.017329e+002
4.208892e+002, 3.007712e+002
4.213713e+002, 2.999459e+002
4.218535e+002, 2.987731e+002
4.223356e+002, 2.970130e+002
4.228177e+002, 2.950822e+002
4.232998e+002, 2.933915e+002
4.237819e+002, 2.919335e+002
4.242640e+002, 2.903556e+002
4.247462e+002, 2.883582e+002
4.252283e+002, 2.859511e+002
4.257104e+002, 2.828355e+002
4.261925e+002, 2.782601e+002
4.266746e+002, 2.737505e+002
4.271567e+002, 2.698588e+002
4.276389e+002, 2.662884e+002
4.281210e+002, 2.625996e+002
4.286031e+002, 2.585859e+002
4.290852e+002, 2.543135e+002
4.295673e+002, 2.499253e+002
4.300494e+002, 2.453998e+002
4.305316e+002, 2.408161e+002
4.310137e+002, 2.363502e+002
4.314958e+002, 2.317440e+002
4.319779e+002, 2.268520e+002
4.324600e+002, 2.216551e+002
4.329421e+002, 2.162392e+002
4.334243e+002, 2.102833e+002
4.339064e+002, 2.040817e+002
4.343885e+002, 1.989832e+002
4.348706e+002, 1.953603e+002
4.353527e+002, 1.920811e+002
4.358348e+002, 1.883590e+002
4.363170e+002, 1.844789e+002
4.367991e+002, 1.809068e+002
4.372812e+002, 1.778720e+002
4.377633e+002, 1.750384e+002
4.382454e+002, 1.719468e+002
4.387275e+002, 1.686853e+002
4.392097e+002, 1.660124e+002
4.396918e+002, 1.643538e+002
4.401739e+002, 1.631751e+002
4.406560e+002, 1.616288e+002
4.411381e+002, 1.596541e+002
4.416202e+002, 1.579772e+002
4.421024e+002, 1.569775e+002
4.425845e+002, 1.562860e+002
4.430666e+002, 1.554782e+002
4.435487e+002, 1.545208e+002
4.440308e+002, 1.536457e+002
4.445129e+002, 1.530125e+002
4.449951e+002, 1.526221e+002
4.454772e+002, 1.524116e+002
4.459593e+002, 1.522773e+002
4.464414e+002, 1.524102e+002
4.469235e+002, 1.530276e+002
4.474056e+002, 1.539047e+002
4.478878e+002, 1.547636e+002
4.483699e+002, 1.555036e+002
4.488520e+002, 1.560620e+002
4.493341e+002, 1.562938e+002
4.498162e+002, 1.559082e+002
4.502983e+002, 1.560469e+002
4.507805e+002, 1.569993e+002
4.512626e+002, 1.581234e+002
4.517447e+002, 1.592232e+002
4.522268e+002, 1.602166e+002
4.527089e+002, 1.610127e+002
4.531910e+002, 1.615341e+002
4.536732e+002, 1.618354e+002
4.541553e+002, 1.621470e+002
4.546374e+002, 1.625466e+002
4.551195e+002, 1.628146e+002
4.556016e+002, 1.628966e+002
4.560837e+002, 1.628653e+002
4.565659e+002, 1.627394e+002
4.570480e+002, 1.625382e+002
4.575301e+002, 1.623550e+002
4.580122e+002, 1.623924e+002
4.584943e+002, 1.626391e+002
4.589764e+002, 1.624788e+002
4.594586e+002, 1.617588e+002
4.599407e+002, 1.608084e+002
4.604228e+002, 1.595281e+002
4.609049e+002, 1.582078e+002
4.613870e+002, 1.574316e+002
4.618691e+002, 1.576265e+002
4.623513e+002, 1.580786e+002
4.628334e+002, 1.579188e+002
4.633155e+002, 1.571658e+002
4.637976e+002, 1.562935e+002
4.642797e+002, 1.553690e+002
4.647618e+002, 1.544798e+002
4.652440e+002, 1.536902e+002
4.657261e+002, 1.529882e+002
4.662082e+002, 1.525063e+002
4.666903e+002, 1.525061e+002
4.671724e+002, 1.526319e+002
4.676545e+002, 1.524532e+002
4.681367e+002, 1.519434e+002
4.686188e+002, 1.512820e+002
4.691009e+002, 1.505801e+002
4.695830e+002, 1.498294e+002
4.700651e+002, 1.489678e+002
4.705472e+002, 1.479331e+002
4.710294e+002, 1.468909e+002
4.715115e+002, 1.458574e+002
4.719936e+002, 1.448515e+002
4.724757e+002, 1.438798e+002
4.729578e+002, 1.429500e+002
4.734399e+002, 1.420928e+002
4.739221e+002, 1.413647e+002
4.744042e+002, 1.408129e+002
4.748863e+002, 1.401127e+002
4.753684e+002, 1.394870e+002
4.758505e+002, 1.384947e+002
4.763326e+002, 1.367464e+002
4.768148e+002, 1.345657e+002
4.772969e+002, 1.324411e+002
4.777790e+002, 1.306157e+002
4.782611e+002, 1.290706e+002
4.787432e+002, 1.278282e+002
4.792253e+002, 1.269972e+002
4.797075e+002, 1.261779e+002
4.801896e+002, 1.253181e+002
4.806717e+002, 1.244711e+002
4.811538e+002, 1.236562e+002
4.816359e+002, 1.228808e+002
4.821180e+002, 1.221484e+002
4.826002e+002, 1.214347e+002
4.830823e+002, 1.207764e+002
4.835644e+002, 1.203361e+002
4.840465e+002, 1.202228e+002
4.845286e+002, 1.199225e+002
4.850107e+002, 1.188948e+002
4.854929e+002, 1.177219e+002
4.859750e+002, 1.171629e+002
4.864571e+002, 1.174090e+002
4.869392e+002, 1.176900e+002
4.874213e+002, 1.173864e+002
4.879034e+002, 1.168033e+002
4.883856e+002, 1.167230e+002
4.888677e+002, 1.173321e+002
4.893498e+002, 1.179274e+002
4.898319e+002, 1.178348e+002
4.903140e+002, 1.171113e+002
4.907961e+002, 1.167159e+002
4.912783e+002, 1.170756e+002
4.917604e+002, 1.173062e+002
4.922425e+002, 1.169050e+002
4.927246e+002, 1.161093e+002
4.932067e+002, 1.153071e+002
4.936888e+002, 1.146367e+002
4.941710e+002, 1.141609e+002
4.946531e+002, 1.140393e+002
4.951352e+002, 1.145352e+002
4.956173e+002, 1.145332e+002
4.960994e+002, 1.137840e+002
4.965815e+002, 1.128559e+002
4.970637e+002, 1.119270e+002
4.975458e+002, 1.110443e+002
4.980279e+002, 1.102556e+002
4.985100e+002, 1.095965e+002
4.989921e+002, 1.089953e+002
4.994742e+002, 1.082516e+002
4.999564e+002, 1.073207e+002
5.004385e+002, 1.063583e+002
5.009206e+002, 1.052464e+002
5.014027e+002, 1.042128e+002
5.018848e+002, 1.034563e+002
5.023669e+002, 1.029429e+002
5.028491e+002, 1.024619e+002
5.033312e+002, 1.019807e+002
5.038133e+002, 1.014020e+002
5.042954e+002, 1.003188e+002
5.047775e+002, 9.856824e+001
5.052596e+002, 9.710772e+001
5.057418e+002, 9.649576e+001
5.062239e+002, 9.639349e+001
5.067060e+002, 9.632310e+001
5.071881e+002, 9.627859e+001
5.076702e+002, 9.619698e+001
5.081523e+002, 9.606355e+001
5.086345e+002, 9.586723e+001
5.091166e+002, 9.555307e+001
5.095987e+002, 9.511128e+001
5.100808e+002, 9.468929e+001
5.105629e+002, 9.439912e+001
5.110450e+002, 9.423922e+001
5.115272e+002, 9.414824e+001
5.120093e+002, 9.421414e+001
5.124914e+002, 9.423418e+001
5.129735e+002, 9.401136e+001
5.134556e+002, 9.376402e+001
5.139377e+002, 9.379472e+001
5.144199e+002, 9.417670e+001
5.149020e+002, 9.474680e+001
5.153841e+002, 9.531041e+001
5.158662e+002, 9.586814e+001
5.163483e+002, 9.641006e+001
5.168304e+002, 9.689481e+001
5.173126e+002, 9.740703e+001
5.177947e+002, 9.787782e+001
5.182768e+002, 9.841851e+001
5.187589e+002, 9.923390e+001
5.192410e+002, 1.004176e+002
5.197231e+002, 1.017064e+002
5.202053e+002, 1.027246e+002
5.206874e+002, 1.034531e+002
5.211695e+002, 1.041178e+002
5.216516e+002, 1.045096e+002
5.221337e+002, 1.051643e+002
5.226158e+002, 1.065944e+002
5.230980e+002, 1.085586e+002
5.235801e+002, 1.103606e+002
5.240622e+002, 1.115934e+002
5.245443e+002, 1.127123e+002
5.250264e+002, 1.142397e+002
5.255085e+002, 1.161115e+002
5.259907e+002, 1.178369e+002
5.264728e+002, 1.191947e+002
5.269549e+002, 1.204732e+002
5.274370e+002, 1.221293e+002
5.279191e+002, 1.242429e+002
5.284012e+002, 1.262957e+002
5.288834e+002, 1.281684e+002
5.293655e+002, 1.300254e+002
5.298476e+002, 1.320048e+002
5.303297e+002, 1.340727e+002
5.308118e+002, 1.361396e+002
5.312939e+002, 1.381772e+002
5.317761e+002, 1.400677e+002
5.322582e+002, 1.414643e+002
5.327403e+002, 1.418459e+002
5.332224e+002, 1.426916e+002
5.337045e+002, 1.448081e+002
5.341866e+002, 1.466488e+002
5.346688e+002, 1.471414e+002
5.351509e+002, 1.465141e+002
5.356330e+002, 1.457047e+002
5.361151e+002, 1.453309e+002
5.365972e+002, 1.451806e+002
5.370793e+002, 1.446714e+002
5.375615e+002, 1.437519e+002
5.380436e+002, 1.426993e+002
5.385257e+002, 1.416101e+002
5.390078e+002, 1.404033e+002
5.394899e+002, 1.389782e+002
5.399720e+002, 1.373419e+002
5.404542e+002, 1.356857e+002
5.409363e+002, 1.340435e+002
5.414184e+002, 1.324723e+002
5.419005e+002, 1.310390e+002
5.423826e+002, 1.297482e+002
5.428647e+002, 1.286336e+002
5.433469e+002, 1.277416e+002
5.438290e+002, 1.269990e+002
5.443111e+002, 1.261629e+002
5.447932e+002, 1.249406e+002
5.452753e+002, 1.243054e+002
5.457574e+002, 1.251970e+002
5.462396e+002, 1.261549e+002
5.467217e+002, 1.257961e+002
5.472038e+002, 1.242119e+002
5.476859e+002, 1.223296e+002
5.481680e+002, 1.207200e+002
5.486501e+002, 1.194776e+002
5.491323e+002, 1.190896e+002
5.496144e+002, 1.202415e+002
5.500965e+002, 1.210769e+002
5.505786e+002, 1.210245e+002
5.510607e+002, 1.209055e+002
5.515428e+002, 1.213434e+002
5.520250e+002, 1.223380e+002
5.525071e+002, 1.234558e+002
5.529892e+002, 1.243501e+002
5.534713e+002, 1.251467e+002
5.539534e+002, 1.262900e+002
5.544355e+002, 1.278680e+002
5.549177e+002, 1.293323e+002
5.553998e+002, 1.303286e+002
5.558819e+002, 1.312032e+002
5.563640e+002, 1.323853e+002
5.568461e+002, 1.338846e+002
5.573282e+002, 1.356631e+002
5.578104e+002, 1.376893e+002
5.582925e+002, 1.400073e+002
5.587746e+002, 1.428219e+002
5.592567e+002, 1.460758e+002
5.597388e+002, 1.491087e+002
5.602209e+002, 1.514455e+002
5.607031e+002, 1.534448e+002
5.611852e+002, 1.562559e+002
5.616673e+002, 1.605147e+002
5.621494e+002, 1.647868e+002
5.626315e+002, 1.692764e+002
5.631136e+002, 1.736011e+002
5.635958e+002, 1.771725e+002
5.640779e+002, 1.802714e+002
5.645600e+002, 1.837908e+002
5.650421e+002, 1.884034e+002
5.655242e+002, 1.938482e+002
5.660063e+002, 1.992777e+002
5.664885e+002, 2.046157e+002
5.669706e+002, 2.100684e+002
5.674527e+002, 2.155779e+002
5.679348e+002, 2.212844e+002
5.684169e+002, 2.273474e+002
5.688990e+002, 2.337072e+002
5.693812e+002, 2.401920e+002
5.698633e+002, 2.465427e+002
5.703454e+002, 2.529866e+002
5.708275e+002, 2.598568e+002
5.713096e+002, 2.671326e+002
5.717917e+002, 2.746489e+002
5.722739e+002, 2.824657e+002
5.727560e+002, 2.904227e+002
5.732381e+002, 2.982210e+002
5.737202e+002, 3.057665e+002
5.742023e+002, 3.136709e+002
5.746844e+002, 3.225627e+002
5.751666e+002, 3.313823e+002
5.756487e+002, 3.395195e+002
5.761308e+002, 3.469778e+002
5.766129e+002, 3.539557e+002
5.770950e+002, 3.605944e+002
5.775771e+002, 3.667557e+002
5.780593e+002, 3.722403e+002
5.785414e+002, 3.772694e+002
5.790235e+002, 3.809937e+002
5.795056e+002, 3.831773e+002
5.799877e+002, 3.841711e+002
5.804698e+002, 3.840717e+002
5.809520e+002, 3.828689e+002
5.814341e+002, 3.804875e+002
5.819162e+002, 3.768022e+002
5.823983e+002, 3.721031e+002
5.828804e+002, 3.668358e+002
5.833625e+002, 3.609483e+002
5.838447e+002, 3.540103e+002
5.843268e+002, 3.457422e+002
5.848089e+002, 3.368335e+002
5.852910e+002, 3.278913e+002
5.857731e+002, 3.189383e+002
5.862552e+002, 3.102921e+002
5.867374e+002, 3.021398e+002
5.872195e+002, 2.941378e+002
5.877016e+002, 2.859306e+002
5.881837e+002, 2.778344e+002
5.886658e+002, 2.705266e+002
5.891479e+002, 2.641770e+002
5.896301e+002, 2.581474e+002
5.901122e+002, 2.515498e+002
5.905943e+002, 2.442564e+002
5.910764e+002, 2.376464e+002
5.915585e+002, 2.318389e+002
5.920406e+002, 2.266107e+002
5.925228e+002, 2.223957e+002
5.930049e+002, 2.184929e+002
5.934870e+002, 2.140034e+002
5.939691e+002, 2.086950e+002
5.944512e+002, 2.034232e+002
5.949333e+002, 1.988827e+002
5.954155e+002, 1.950191e+002
5.958976e+002, 1.917899e+002
5.963797e+002, 1.893724e+002
5.968618e+002, 1.868103e+002
5.973439e+002, 1.835579e+002
5.978260e+002, 1.797702e+002
5.983082e+002, 1.759076e+002
5.987903e+002, 1.719123e+002
5.992724e+002, 1.679950e+002
5.997545e+002, 1.641637e+002
6.002366e+002, 1.604783e+002
6.007188e+002, 1.570633e+002
6.012009e+002, 1.538931e+002
6.016830e+002, 1.508982e+002
6.021651e+002, 1.480746e+002
6.026472e+002, 1.452425e+002
6.031293e+002, 1.416474e+002
6.036115e+002, 1.363907e+002
6.040936e+002, 1.320387e+002
6.045757e+002, 1.295276e+002
6.050578e+002, 1.272154e+002
6.055399e+002, 1.240685e+002
6.060220e+002, 1.202247e+002
6.065042e+002, 1.163562e+002
6.069863e+002, 1.128067e+002
6.074684e+002, 1.095150e+002
6.079505e+002, 1.063597e+002
6.084326e+002, 1.033378e+002
6.089147e+002, 1.005545e+002
6.093969e+002, 9.808298e+001
6.098790e+002, 9.577245e+001
6.103611e+002, 9.346506e+001
6.108432e+002, 9.115782e+001
6.113253e+002, 8.898167e+001
6.118074e+002, 8.683743e+001
6.122896e+002, 8.494498e+001
6.127717e+002, 8.364445e+001
6.132538e+002, 8.261109e+001
6.137359e+002, 8.124635e+001
6.142180e+002, 7.938840e+001
6.147001e+002, 7.742176e+001
6.151823e+002, 7.577634e+001
6.156644e+002, 7.446049e+001
6.161465e+002, 7.328877e+001
6.166286e+002, 7.222625e+001
6.171107e+002, 7.138000e+001
6.175928e+002, 7.103811e+001
6.180750e+002, 7.076596e+001
6.185571e+002, 6.999299e+001
6.190392e+002, 6.864270e+001
6.195213e+002, 6.742875e+001
6.200034e+002, 6.715725e+001
6.204855e+002, 6.734500e+001
6.209677e+002, 6.678599e+001
6.214498e+002, 6.540620e+001
6.219319e+002, 6.410531e+001
6.224140e+002, 6.329930e+001
6.228961e+002, 6.287051e+001
6.233782e+002, 6.262352e+001
6.238604e+002, 6.264906e+001
6.243425e+002, 6.254836e+001
6.248246e+002, 6.227700e+001
6.253067e+002, 6.186724e+001
6.257888e+002, 6.120705e+001
6.262709e+002, 6.043423e+001
6.267531e+002, 5.982340e+001
6.272352e+002, 5.951180e+001
6.277173e+002, 5.944751e+001
6.281994e+002, 5.963680e+001
6.286815e+002, 6.019666e+001
6.291636e+002, 6.034451e+001
6.296458e+002, 5.975378e+001
6.301279e+002, 5.910423e+001
6.306100e+002, 5.875965e+001
6.310921e+002, 5.858628e+001
6.315742e+002, 5.831766e+001
6.320563e+002, 5.781160e+001
6.325385e+002, 5.743346e+001
6.330206e+002, 5.761266e+001
6.335027e+002, 5.806482e+001
6.339848e+002, 5.813657e+001
6.344669e+002, 5.774527e+001
6.349490e+002, 5.747095e+001
6.354312e+002, 5.778735e+001
6.359133e+002, 5.853209e+001
6.363954e+002, 5.893441e+001
6.368775e+002, 5.853265e+001
6.373596e+002, 5.840096e+001
6.378417e+002, 5.888850e+001
6.383239e+002, 5.939909e+001
6.388060e+002, 5.944239e+001
6.392881e+002, 5.910921e+001
6.397702e+002, 5.882714e+001
6.402523e+002, 5.886579e+001
6.407344e+002, 5.906266e+001
6.412166e+002, 5.906524e+001
6.416987e+002, 5.885761e+001
6.421808e+002, 5.883504e+001
6.426629e+002, 5.915398e+001
6.431450e+002, 5.954754e+001
6.436271e+002, 5.967159e+001
6.441093e+002, 5.964643e+001
6.445914e+002, 5.995170e+001
6.450735e+002, 6.100763e+001
6.455556e+002, 6.199879e+001
6.460377e+002, 6.249216e+001
6.465198e+002, 6.271052e+001
6.470020e+002, 6.296124e+001
6.474841e+002, 6.330220e+001
6.479662e+002, 6.359844e+001
6.484483e+002, 6.368896e+001
6.489304e+002, 6.364699e+001
6.494125e+002, 6.403477e+001
6.498947e+002, 6.510703e+001
6.503768e+002, 6.613152e+001
6.508589e+002, 6.697200e+001
6.513410e+002, 6.772814e+001
6.518231e+002, 6.843834e+001
6.523052e+002, 6.911874e+001
6.527874e+002, 6.980996e+001
6.532695e+002, 7.044954e+001
6.537516e+002, 7.118869e+001
6.542337e+002, 7.228053e+001
6.547158e+002, 7.365331e+001
6.551979e+002, 7.499573e+001
6.556801e+002, 7.622990e+001
6.561622e+002, 7.733379e+001
6.566443e+002, 7.823341e+001
6.571264e+002, 7.890025e+001
6.576085e+002, 7.988581e+001
6.580906e+002, 8.148124e+001
6.585728e+002, 8.298264e+001
6.590549e+002, 8.404237e+001
6.595370e+002, 8.504507e+001
6.600191e+002, 8.643040e+001
6.605012e+002, 8.824046e+001
6.609833e+002, 9.017948e+001
6.614655e+002, 9.202998e+001
6.619476e+002, 9.381738e+001
6.624297e+002, 9.553530e+001
6.629118e+002, 9.715634e+001
6.633939e+002, 9.890289e+001
6.638760e+002, 1.008444e+002
6.643582e+002, 1.029282e+002
6.648403e+002, 1.051195e+002
6.653224e+002, 1.074080e+002
6.658045e+002, 1.096807e+002
6.662866e+002, 1.117470e+002
6.667687e+002, 1.139732e+002
6.672509e+002, 1.166914e+002
6.677330e+002, 1.196545e+002
6.682151e+002, 1.224212e+002
6.686972e+002, 1.248987e+002
6.691793e+002, 1.273410e+002
6.696614e+002, 1.300041e+002
6.701436e+002, 1.328991e+002
6.706257e+002, 1.362118e+002
6.711078e+002, 1.402893e+002
6.715899e+002, 1.440851e+002
6.720720e+002, 1.470425e+002
6.725541e+002, 1.498237e+002
6.730363e+002, 1.528697e+002
6.735184e+002, 1.562242e+002
6.740005e+002, 1.599408e+002
6.744826e+002, 1.645088e+002
6.749647e+002, 1.691170e+002
6.754468e+002, 1.727020e+002
6.759290e+002, 1.756518e+002
6.764111e+002, 1.792009e+002
6.768932e+002, 1.837319e+002
6.773753e+002, 1.886959e+002
6.778574e+002, 1.934680e+002
6.783395e+002, 1.980477e+002
6.788217e+002, 2.024429e+002
6.793038e+002, 2.064381e+002
6.797859e+002, 2.105265e+002
6.802680e+002, 2.148288e+002
6.807501e+002, 2.191967e+002
6.812322e+002, 2.235573e+002
6.817144e+002, 2.278445e+002
6.821965e+002, 2.319707e+002
6.826786e+002, 2.357302e+002
6.831607e+002, 2.393475e+002
6.836428e+002, 2.433418e+002
6.841249e+002, 2.476246e+002
6.846071e+002, 2.512119e+002
6.850892e+002, 2.537158e+002
6.855713e+002, 2.558371e+002
6.860534e+002, 2.584911e+002
6.865355e+002, 2.617429e+002
6.870176e+002, 2.640475e+002
6.874998e+002, 2.652708e+002
6.879819e+002, 2.658064e+002
6.884640e+002, 2.653951e+002
6.889461e+002, 2.645661e+002
6.894282e+002, 2.639099e+002
6.899103e+002, 2.634400e+002
6.903925e+002, 2.626930e+002
6.908746e+002, 2.614130e+002
6.913567e+002, 2.595313e+002
6.918388e+002, 2.568022e+002
6.923209e+002, 2.532084e+002
6.928030e+002, 2.492233e+002
6.932852e+002, 2.448876e+002
6.937673e+002, 2.403530e+002
6.942494e+002, 2.358058e+002
6.947315e+002, 2.312040e+002
6.952136e+002, 2.261879e+002
6.956957e+002, 2.205037e+002
6.961779e+002, 2.146625e+002
6.966600e+002, 2.087579e+002
6.971421e+002, 2.028370e+002
6.976242e+002, 1.969805e+002
6.981063e+002, 1.911844e+002
6.985884e+002, 1.852930e+002
6.990706e+002, 1.791327e+002
6.995527e+002, 1.728976e+002
7.000348e+002, 1.671538e+002
7.005169e+002, 1.619888e+002
7.009990e+002, 1.567388e+002
7.014811e+002, 1.510362e+002
7.019633e+002, 1.455300e+002
7.024454e+002, 1.407774e+002
7.029275e+002, 1.366660e+002
7.034096e+002, 1.327939e+002
7.038917e+002, 1.291781e+002
7.043738e+002, 1.257039e+002
7.048560e+002, 1.223919e+002
7.053381e+002, 1.191256e+002
7.058202e+002, 1.156615e+002
7.063023e+002, 1.120404e+002
7.067844e+002, 1.085643e+002
7.072665e+002, 1.054671e+002
7.077487e+002, 1.025913e+002
7.082308e+002, 9.945094e+001
7.087129e+002, 9.581213e+001
7.091950e+002, 9.306958e+001
7.096771e+002, 9.202792e+001
7.101592e+002, 9.107298e+001
7.106414e+002, 8.893941e+001
7.111235e+002, 8.618316e+001
7.116056e+002, 8.404860e+001
7.120877e+002, 8.306417e+001
7.125698e+002, 8.195152e+001
7.130519e+002, 7.989745e+001
7.135341e+002, 7.751202e+001
7.140162e+002, 7.541675e+001
7.144983e+002, 7.370132e+001
7.149804e+002, 7.232345e+001
7.154625e+002, 7.126475e+001
7.159446e+002, 7.044317e+001
7.164268e+002, 6.971319e+001
7.169089e+002, 6.912268e+001
7.173910e+002, 6.839367e+001
7.178731e+002, 6.743703e+001
7.183552e+002, 6.643913e+001
7.188373e+002, 6.532298e+001
7.193195e+002, 6.428301e+001
7.198016e+002, 6.366013e+001
7.202837e+002, 6.356798e+001
7.207658e+002, 6.348758e+001
7.212479e+002, 6.311400e+001
7.217300e+002, 6.266779e+001
7.222122e+002, 6.238904e+001
7.226943e+002, 6.225698e+001
7.231764e+002, 6.212713e+001
7.236585e+002, 6.193559e+001
7.241406e+002, 6.177293e+001
7.246227e+002, 6.183611e+001
7.251049e+002, 6.219216e+001
7.255870e+002, 6.210335e+001
7.260691e+002, 6.119481e+001
7.265512e+002, 6.044912e+001
7.270333e+002, 6.040220e+001
7.275154e+002, 6.055007e+001
7.279976e+002, 6.031988e+001
7.284797e+002, 5.967687e+001
7.289618e+002, 5.923615e+001
7.294439e+002, 5.938565e+001
7.299260e+002, 5.973801e+001
7.304081e+002, 5.999389e+001
7.308903e+002, 6.016742e+001
7.313724e+002, 6.031735e+001
7.318545e+002, 6.046096e+001
7.323366e+002, 6.058983e+001
7.328187e+002, 6.071663e+001
7.333008e+002, 6.082401e+001
7.337830e+002, 6.068208e+001
7.342651e+002, 6.014378e+001
7.347472e+002, 5.967204e+001
7.352293e+002, 5.920264e+001
7.357114e+002, 5.897957e+001
7.361935e+002, 5.945530e+001
7.366757e+002, 6.040536e+001
7.371578e+002, 6.081961e+001
7.376399e+002, 5.988833e+001
7.381220e+002, 5.898889e+001
7.386041e+002, 5.923725e+001
7.390862e+002, 6.003910e+001
7.395684e+002, 6.042527e+001
7.400505e+002, 6.028637e+001
7.405326e+002, 6.009452e+001
7.410147e+002, 6.018323e+001
7.414968e+002, 6.049019e+001
7.419789e+002, 6.086294e+001
7.424611e+002, 6.137031e+001
7.429432e+002, 6.167194e+001
7.434253e+002, 6.152505e+001
7.439074e+002, 6.143221e+001
7.443895e+002, 6.177681e+001
7.448716e+002, 6.234361e+001
7.453538e+002, 6.270149e+001
7.458359e+002, 6.268321e+001
7.463180e+002, 6.278839e+001
7.468001e+002, 6.346205e+001
7.472822e+002, 6.420795e+001
7.477643e+002, 6.436705e+001
7.482465e+002, 6.411916e+001
7.487286e+002, 6.416630e+001
7.492107e+002, 6.482836e+001
7.496928e+002, 6.579694e+001
7.501749e+002, 6.671705e+001
7.506570e+002, 6.761115e+001
7.511392e+002, 6.789520e+001
7.516213e+002, 6.719542e+001
7.521034e+002, 6.674574e+001
7.525855e+002, 6.710008e+001
7.530676e+002, 6.791782e+001
7.535497e+002, 6.887532e+001
7.540319e+002, 6.997567e+001
7.545140e+002, 7.084455e+001
7.549961e+002, 7.102209e+001
7.554782e+002, 7.132854e+001
7.559603e+002, 7.258437e+001
7.564424e+002, 7.415733e+001
7.569246e+002, 7.494212e+001
7.574067e+002, 7.480044e+001
7.578888e+002, 7.460779e+001
7.583709e+002, 7.513380e+001
7.588530e+002, 7.617604e+001
7.593351e+002, 7.705367e+001
7.598173e+002, 7.774407e+001
7.602994e+002, 7.843774e+001
7.607815e+002, 7.916022e+001
7.612636e+002, 7.990514e+001
7.617457e+002, 8.056209e+001
7.622278e+002, 8.122112e+001
7.627100e+002, 8.228599e+001
7.631921e+002, 8.383015e+001
7.636742e+002, 8.567648e+001
7.641563e+002, 8.854771e+001
7.646384e+002, 9.107494e+001
7.651205e+002, 9.186134e+001
7.656027e+002, 9.133564e+001
7.660848e+002, 9.078843e+001
7.665669e+002, 9.080215e+001
7.670490e+002, 9.125210e+001
7.675311e+002, 9.205994e+001
7.680132e+002, 9.318088e+001
7.684954e+002, 9.444580e+001
7.689775e+002, 9.589028e+001
7.694596e+002, 9.707087e+001
7.699417e+002, 9.770730e+001
7.704238e+002, 9.806333e+001
7.709059e+002, 9.858864e+001
7.713881e+002, 9.932057e+001
7.718702e+002, 1.000776e+002
7.723523e+002, 1.008024e+002
7.728344e+002, 1.016216e+002
7.733165e+002, 1.025775e+002
7.737986e+002, 1.036466e+002
7.742808e+002, 1.048795e+002
7.747629e+002, 1.062323e+002
7.752450e+002, 1.074696e+002
7.757271e+002, 1.083219e+002
7.762092e+002, 1.090717e+002
7.766913e+002, 1.101815e+002
7.771735e+002, 1.115633e+002
7.776556e+002, 1.128878e+002
7.781377e+002, 1.140904e+002
7.786198e+002, 1.150458e+002
7.791019e+002, 1.155738e+002
7.795840e+002, 1.158120e+002
7.800662e+002, 1.164790e+002
7.805483e+002, 1.178440e+002
7.810304e+002, 1.191315e+002
7.815125e+002, 1.200551e+002
7.819946e+002, 1.211296e+002
7.824767e+002, 1.228550e+002
7.829589e+002, 1.248558e+002
7.834410e+002, 1.263855e+002
7.839231e+002, 1.272132e+002
7.844052e+002, 1.278526e+002
7.848873e+002, 1.284244e+002
7.853694e+002, 1.291047e+002
7.858516e+002, 1.301873e+002
7.863337e+002, 1.315814e+002
7.868158e+002, 1.329164e+002
7.872979e+002, 1.340464e+002
7.877800e+002, 1.352021e+002
7.882621e+002, 1.367782e+002
7.887443e+002, 1.387390e+002
7.892264e+002, 1.401334e+002
7.897085e+002, 1.407308e+002
7.901906e+002, 1.413932e+002
7.906727e+002, 1.422688e+002
7.911548e+002, 1.434225e+002
7.916370e+002, 1.451722e+002
7.921191e+002, 1.473742e+002
7.926012e+002, 1.489243e+002
7.930833e+002, 1.491937e+002
7.935654e+002, 1.493761e+002
7.940475e+002, 1.495943e+002
7.945297e+002, 1.501634e+002
7.950118e+002, 1.516663e+002
7.954939e+002, 1.538662e+002
7.959760e+002, 1.558590e+002
7.964581e+002, 1.571372e+002
7.969402e+002, 1.580478e+002
7.974224e+002, 1.589937e+002
7.979045e+002, 1.600077e+002
7.983866e+002, 1.613911e+002
7.988687e+002, 1.632247e+002
7.993508e+002, 1.648406e+002
7.998329e+002, 1.658288e+002
8.003151e+002, 1.665068e+002
8.007972e+002, 1.674719e+002
8.012793e+002, 1.688852e+002
8.017614e+002, 1.699572e+002
8.022435e+002, 1.702966e+002
8.027256e+002, 1.708107e+002
8.032078e+002, 1.719264e+002
8.036899e+002, 1.732411e+002
8.041720e+002, 1.742925e+002
8.046541e+002, 1.750741e+002
8.051362e+002, 1.759899e+002
8.056183e+002, 1.773546e+002
8.061005e+002, 1.788296e+002
8.065826e+002, 1.802023e+002
8.070647e+002, 1.813811e+002
8.075468e+002, 1.819742e+002
8.080289e+002, 1.820036e+002
8.085110e+002, 1.822406e+002
8.089932e+002, 1.832540e+002
8.094753e+002, 1.847801e+002
8.099574e+002, 1.861359e+002
8.104395e+002, 1.872849e+002
8.109216e+002, 1.884671e+002
8.114037e+002, 1.897931e+002
8.118859e+002, 1.909776e+002
8.123680e+002, 1.917540e+002
8.128501e+002, 1.923569e+002
8.133322e+002, 1.930945e+002
8.138143e+002, 1.939727e+002
8.142964e+002, 1.950229e+002
8.147786e+002, 1.963814e+002
8.152607e+002, 1.977825e+002
8.157428e+002, 1.989370e+002
8.162249e+002, 2.000970e+002
8.167070e+002, 2.016706e+002
8.171891e+002, 2.036816e+002
8.176713e+002, 2.057784e+002
8.181534e+002, 2.076859e+002
8.186355e+002, 2.095055e+002
8.191176e+002, 2.115647e+002
8.195997e+002, 2.137804e+002
8.200818e+002, 2.154028e+002
8.205640e+002, 2.162374e+002
8.210461e+002, 2.169888e+002
8.215282e+002, 2.180782e+002
8.220103e+002, 2.195329e+002
8.224924e+002, 2.214409e+002
8.229745e+002, 2.240368e+002
8.234567e+002, 2.265980e+002
8.239388e+002, 2.293364e+002
8.244209e+002, 2.318122e+002
8.249030e+002, 2.336002e+002
8.253851e+002, 2.351909e+002
8.258672e+002, 2.371793e+002
8.263494e+002, 2.396617e+002
8.268315e+002, 2.423758e+002
8.273136e+002, 2.454885e+002
8.277957e+002, 2.485163e+002
8.282778e+002, 2.508519e+002
8.287599e+002, 2.528601e+002
8.292421e+002, 2.551514e+002
8.297242e+002, 2.578716e+002
8.302063e+002, 2.609440e+002
8.306884e+002, 2.643457e+002
8.311705e+002, 2.680122e+002
8.316526e+002, 2.718477e+002
8.321348e+002, 2.758370e+002
8.326169e+002, 2.797980e+002
8.330990e+002, 2.837102e+002
8.335811e+002, 2.875596e+002
8.340632e+002, 2.913631e+002
8.345453e+002, 2.950882e+002
8.350275e+002, 2.987042e+002
8.355096e+002, 3.020757e+002
8.359917e+002, 3.056948e+002
8.364738e+002, 3.098386e+002
8.369559e+002, 3.139167e+002
8.374380e+002, 3.174425e+002
8.379202e+002, 3.209668e+002
8.384023e+002, 3.252579e+002
8.388844e+002, 3.303012e+002
8.393665e+002, 3.353010e+002
8.398486e+002, 3.397671e+002
8.403307e+002, 3.441321e+002
8.408129e+002, 3.489335e+002
8.412950e+002, 3.539168e+002
8.417771e+002, 3.584235e+002
8.422592e+002, 3.624487e+002
8.427413e+002, 3.667711e+002
8.432234e+002, 3.718941e+002
8.437056e+002, 3.772566e+002
8.441877e+002, 3.813727e+002
8.446698e+002, 3.839877e+002
8.451519e+002, 3.884694e+002
8.456340e+002, 3.956515e+002
8.461161e+002, 4.025038e+002
8.465983e+002, 4.075604e+002
8.470804e+002, 4.118437e+002
8.475625e+002, 4.168996e+002
8.480446e+002, 4.228148e+002
8.485267e+002, 4.281836e+002
8.490089e+002, 4.323326e+002
8.494910e+002, 4.367111e+002
8.499731e+002, 4.419345e+002
8.504552e+002, 4.474200e+002
8.509373e+002, 4.525887e+002
8.514194e+002, 4.575315e+002
8.519016e+002, 4.628233e+002
8.523837e+002, 4.689434e+002
8.528658e+002, 4.747568e+002
8.533479e+002, 4.792140e+002
8.538300e+002, 4.827206e+002
8.543121e+002, 4.859292e+002
8.547943e+002, 4.888665e+002
8.552764e+002, 4.912968e+002
8.557585e+002, 4.930989e+002
8.562406e+002, 4.945517e+002
8.567227e+002, 4.959851e+002
8.572048e+002, 4.973985e+002
8.576870e+002, 4.989733e+002
8.581691e+002, 5.008207e+002
8.586512e+002, 5.023812e+002
8.591333e+002, 5.036742e+002
8.596154e+002, 5.043813e+002
8.600975e+002, 5.041328e+002
8.605797e+002, 5.030210e+002
8.610618e+002, 5.016092e+002
8.615439e+002, 4.988495e+002
8.620260e+002, 4.975443e+002
8.625081e+002, 4.991876e+002
8.629902e+002, 5.011546e+002
8.634724e+002, 5.018153e+002
8.639545e+002, 5.017621e+002
8.644366e+002, 5.021276e+002
8.649187e+002, 5.031902e+002
8.654008e+002, 5.043979e+002
8.658829e+002, 5.049486e+002
8.663651e+002, 5.058075e+002
8.668472e+002, 5.084494e+002
8.673293e+002, 5.122399e+002
8.678114e+002, 5.154063e+002
8.682935e+002, 5.177183e+002
8.687756e+002, 5.207660e+002
8.692578e+002, 5.258032e+002
8.697399e+002, 5.322361e+002
8.702220e+002, 5.385448e+002
8.707041e+002, 5.446749e+002
8.711862e+002, 5.515106e+002
8.716683e+002, 5.590091e+002
8.721505e+002, 5.676469e+002
8.726326e+002, 5.779229e+002
8.731147e+002, 5.891290e+002
8.735968e+002, 6.000156e+002
8.740789e+002, 6.102012e+002
8.745610e+002, 6.220702e+002
8.750432e+002, 6.368370e+002
8.755253e+002, 6.514631e+002
8.760074e+002, 6.645099e+002
8.764895e+002, 6.777105e+002
8.769716e+002, 6.928502e+002
8.774537e+002, 7.096194e+002
8.779359e+002, 7.265782e+002
8.784180e+002, 7.433136e+002
8.789001e+002, 7.601567e+002
8.793822e+002, 7.771028e+002
8.798643e+002, 7.945059e+002
8.803464e+002, 8.133486e+002
8.808286e+002, 8.330623e+002
8.813107e+002, 8.519918e+002
8.817928e+002, 8.695701e+002
8.822749e+002, 8.872346e+002
8.827570e+002, 9.068396e+002
8.832391e+002, 9.275065e+002
8.837213e+002, 9.461081e+002
8.842034e+002, 9.627587e+002
8.846855e+002, 9.794806e+002
8.851676e+002, 9.968098e+002
8.856497e+002, 1.013700e+003
8.861318e+002, 1.029655e+003
8.866140e+002, 1.044326e+003
8.870961e+002, 1.056312e+003
8.875782e+002, 1.064201e+003
8.880603e+002, 1.073094e+003
8.885424e+002, 1.083958e+003
8.890245e+002, 1.094489e+003
8.895067e+002, 1.104073e+003
8.899888e+002, 1.112659e+003
8.904709e+002, 1.120313e+003
8.909530e+002, 1.127051e+003
8.914351e+002, 1.132209e+003
8.919172e+002, 1.135977e+003
8.923994e+002, 1.137766e+003
8.928815e+002, 1.136361e+003
8.933636e+002, 1.133602e+003
8.938457e+002, 1.131177e+003
8.943278e+002, 1.129064e+003
8.948099e+002, 1.126711e+003
8.952921e+002, 1.124001e+003
8.957742e+002, 1.120013e+003
8.962563e+002, 1.113157e+003
8.967384e+002, 1.104831e+003
8.972205e+002, 1.097666e+003
8.977026e+002, 1.091389e+003
8.981848e+002, 1.084585e+003
8.986669e+002, 1.076776e+003
8.991490e+002, 1.068440e+003
8.996311e+002, 1.060129e+003
9.001132e+002, 1.051437e+003
9.005953e+002, 1.040580e+003
9.010775e+002, 1.027349e+003
9.015596e+002, 1.014591e+003
9.020417e+002, 1.002902e+003
9.025238e+002, 9.910927e+002
9.030059e+002, 9.783354e+002
9.034880e+002, 9.651386e+002
9.039702e+002, 9.524866e+002
9.044523e+002, 9.405883e+002
9.049344e+002, 9.284804e+002
9.054165e+002, 9.163193e+002
9.058986e+002, 9.037304e+002
9.063807e+002, 8.904955e+002
9.068629e+002, 8.767629e+002
9.073450e+002, 8.626445e+002
9.078271e+002, 8.481383e+002
9.083092e+002, 8.334992e+002
9.087913e+002, 8.189356e+002
9.092734e+002, 8.036759e+002
9.097556e+002, 7.865280e+002
9.102377e+002, 7.691580e+002
9.107198e+002, 7.530103e+002
9.112019e+002, 7.378083e+002
9.116840e+002, 7.228659e+002
9.121661e+002, 7.079895e+002
9.126483e+002, 6.932098e+002
9.131304e+002, 6.786329e+002
9.136125e+002, 6.640953e+002
9.140946e+002, 6.490646e+002
9.145767e+002, 6.339283e+002
9.150588e+002, 6.202499e+002
9.155410e+002, 6.081596e+002
9.160231e+002, 5.964055e+002
9.165052e+002, 5.840970e+002
9.169873e+002, 5.717869e+002
9.174694e+002, 5.603127e+002
9.179515e+002, 5.496536e+002
9.184337e+002, 5.400538e+002
9.189158e+002, 5.316542e+002
9.193979e+002, 5.235297e+002
9.198800e+002, 5.153161e+002
9.203621e+002, 5.074271e+002
9.208442e+002, 5.003494e+002
9.213264e+002, 4.940309e+002
9.218085e+002, 4.882163e+002
9.222906e+002, 4.836610e+002
9.227727e+002, 4.783305e+002
9.232548e+002, 4.708347e+002
9.237369e+002, 4.639918e+002
9.242191e+002, 4.595260e+002
9.247012e+002, 4.563891e+002
9.251833e+002, 4.529801e+002
9.256654e+002, 4.490887e+002
9.261475e+002, 4.455898e+002
9.266296e+002, 4.425054e+002
9.271118e+002, 4.401776e+002
9.275939e+002, 4.394593e+002
9.280760e+002, 4.390958e+002
9.285581e+002, 4.375321e+002
9.290402e+002, 4.350016e+002
9.295223e+002, 4.329081e+002
9.300045e+002, 4.319274e+002
9.304866e+002, 4.310512e+002
9.309687e+002, 4.290856e+002
9.314508e+002, 4.267885e+002
9.319329e+002, 4.255964e+002
9.324150e+002, 4.251342e+002
9.328972e+002, 4.238377e+002
9.333793e+002, 4.213934e+002
9.338614e+002, 4.192470e+002
9.343435e+002, 4.186853e+002
9.348256e+002, 4.192503e+002
9.353077e+002, 4.201098e+002
9.357899e+002, 4.211949e+002
9.362720e+002, 4.213193e+002
9.367541e+002, 4.202674e+002
9.372362e+002, 4.192721e+002
9.377183e+002, 4.188983e+002
9.382004e+002, 4.190482e+002
9.386826e+002, 4.196920e+002
9.391647e+002, 4.208561e+002
9.396468e+002, 4.212658e+002
9.401289e+002, 4.204295e+002
9.406110e+002, 4.200632e+002
9.410931e+002, 4.209090e+002
9.415753e+002, 4.217556e+002
9.420574e+002, 4.216713e+002
9.425395e+002, 4.209594e+002
9.430216e+002, 4.205170e+002
9.435037e+002, 4.206281e+002
9.439858e+002, 4.201480e+002
9.444680e+002, 4.191182e+002
9.449501e+002, 4.173290e+002
9.454322e+002, 4.140480e+002
9.459143e+002, 4.104301e+002
9.463964e+002, 4.079814e+002
9.468785e+002, 4.063983e+002
9.473607e+002, 4.038499e+002
9.478428e+002, 3.996649e+002
9.483249e+002, 3.944918e+002
9.488070e+002, 3.882347e+002
9.492891e+002, 3.815388e+002
9.497712e+002, 3.754644e+002
9.502534e+002, 3.693089e+002
9.507355e+002, 3.614597e+002
9.512176e+002, 3.516828e+002
9.516997e+002, 3.417384e+002
9.521818e+002, 3.331681e+002
9.526639e+002, 3.249505e+002
9.531461e+002, 3.156211e+002
9.536282e+002, 3.056307e+002
9.541103e+002, 2.960536e+002
9.545924e+002, 2.870222e+002
9.550745e+002, 2.784088e+002
9.555566e+002, 2.701058e+002
9.560388e+002, 2.618815e+002
9.565209e+002, 2.530997e+002
9.570030e+002, 2.440691e+002
9.574851e+002, 2.365182e+002
9.579672e+002, 2.304036e+002
9.584493e+002, 2.245582e+002
9.589315e+002, 2.187177e+002
9.594136e+002, 2.128812e+002
9.598957e+002, 2.069908e+002
9.603778e+002, 2.011441e+002
9.608599e+002, 1.955434e+002
9.613420e+002, 1.901460e+002
9.618242e+002, 1.853352e+002
9.623063e+002, 1.812563e+002
9.627884e+002, 1.774717e+002
9.632705e+002, 1.740242e+002
9.637526e+002, 1.705936e+002
9.642347e+002, 1.667419e+002
9.647169e+002, 1.625852e+002
9.651990e+002, 1.589240e+002
9.656811e+002, 1.559946e+002
9.661632e+002, 1.532220e+002
9.666453e+002, 1.506159e+002
9.671274e+002, 1.481597e+002
9.676096e+002, 1.459958e+002
9.680917e+002, 1.438753e+002
9.685738e+002, 1.413886e+002
9.690559e+002, 1.385393e+002
9.695380e+002, 1.360347e+002
9.700201e+002, 1.341841e+002
9.705023e+002, 1.324881e+002
9.709844e+002, 1.309051e+002
9.714665e+002, 1.292768e+002
9.719486e+002, 1.273712e+002
9.724307e+002, 1.253363e+002
9.729128e+002, 1.234091e+002
9.733950e+002, 1.216585e+002
9.738771e+002, 1.202087e+002
9.743592e+002, 1.193625e+002
9.748413e+002, 1.185990e+002
9.753234e+002, 1.173270e+002
9.758055e+002, 1.159117e+002
9.762877e+002, 1.149409e+002
9.767698e+002, 1.143842e+002
9.772519e+002, 1.138688e+002
9.777340e+002, 1.132261e+002
9.782161e+002, 1.124301e+002
9.786982e+002, 1.114143e+002
9.791804e+002, 1.102501e+002
9.796625e+002, 1.090449e+002
9.801446e+002, 1.078249e+002
9.806267e+002, 1.065524e+002
9.811088e+002, 1.052736e+002
9.815909e+002, 1.044243e+002
9.820731e+002, 1.043654e+002
9.825552e+002, 1.045422e+002
9.830373e+002, 1.037542e+002
9.835194e+002, 1.022056e+002
9.840015e+002, 1.014607e+002
9.844836e+002, 1.015620e+002
9.849658e+002, 1.016777e+002
9.854479e+002, 1.015533e+002
9.859300e+002, 1.013093e+002
9.864121e+002, 1.010440e+002
9.868942e+002, 1.007676e+002
9.873763e+002, 1.005571e+002
9.878585e+002, 1.004588e+002
9.883406e+002, 1.000745e+002
9.888227e+002, 9.927528e+001
9.893048e+002, 9.854237e+001
9.897869e+002, 9.801791e+001
9.902690e+002, 9.775462e+001
9.907512e+002, 9.783789e+001
9.912333e+002, 9.825166e+001
9.917154e+002, 9.884251e+001
9.921975e+002, 1.000269e+002
9.926796e+002, 1.004843e+002
9.931617e+002, 9.970596e+001
9.936439e+002, 9.876579e+001
9.941260e+002, 9.783550e+001
9.946081e+002, 9.722602e+001
9.950902e+002, 9.764621e+001
9.955723e+002, 9.915960e+001
9.960544e+002, 9.981601e+001
9.965366e+002, 9.867641e+001
9.970187e+002, 9.792136e+001
9.975008e+002, 9.820773e+001
9.979829e+002, 9.866239e+001
9.984650e+002, 9.868495e+001
9.989471e+002, 9.853584e+001
9.994293e+002, 9.876167e+001
9.999114e+002, 9.945906e+001
1.000393e+003, 9.994956e+001
1.000876e+003, 9.996122e+001
1.001358e+003, 9.983620e+001
1.001840e+003, 9.959405e+001
1.002322e+003, 9.937891e+001
1.002804e+003, 9.926509e+001
1.003286e+003, 9.929208e+001
1.003768e+003, 9.953496e+001
1.004250e+003, 1.000216e+002
1.004733e+003, 1.005780e+002
1.005215e+003, 1.012414e+002
1.005697e+003, 1.017990e+002
1.006179e+003, 1.020708e+002
1.006661e+003, 1.021509e+002
1.007143e+003, 1.021037e+002
1.007625e+003, 1.019889e+002
1.008107e+003, 1.018841e+002
1.008589e+003, 1.018107e+002
1.009072e+003, 1.019113e+002
1.009554e+003, 1.023574e+002
1.010036e+003, 1.029980e+002
1.010518e+003, 1.038688e+002
1.011000e+003, 1.047164e+002
1.011482e+003, 1.049707e+002
1.011964e+003, 1.046535e+002
1.012446e+003, 1.042452e+002
1.012929e+003, 1.039639e+002
1.013411e+003, 1.041056e+002
1.013893e+003, 1.054263e+002
1.014375e+003, 1.072269e+002
1.014857e+003, 1.080451e+002
1.015339e+003, 1.080609e+002
1.015821e+003, 1.079653e+002
1.016303e+003, 1.079536e+002
1.016785e+003, 1.080958e+002
1.017268e+003, 1.084447e+002
1.017750e+003, 1.089432e+002
1.018232e+003, 1.095712e+002
1.018714e+003, 1.102717e+002
1.019196e+003, 1.108020e+002
1.019678e+003, 1.111661e+002
1.020160e+003, 1.114556e+002
1.020642e+003, 1.116991e+002
1.021125e+003, 1.120300e+002
1.021607e+003, 1.125779e+002
1.022089e+003, 1.132116e+002
1.022571e+003, 1.135986e+002
1.023053e+003, 1.137592e+002
1.023535e+003, 1.140421e+002
1.024017e+003, 1.144627e+002
1.024499e+003, 1.149245e+002
1.024981e+003, 1.153991e+002
1.025464e+003, 1.159235e+002
1.025946e+003, 1.165670e+002
1.026428e+003, 1.172175e+002
1.026910e+003, 1.174050e+002
1.027392e+003, 1.170208e+002
1.027874e+003, 1.172847e+002
1.028356e+003, 1.183655e+002
1.028838e+003, 1.194875e+002
1.029321e+003, 1.204133e+002
1.029803e+003, 1.211938e+002
1.030285e+003, 1.218513e+002
1.030767e+003, 1.224356e+002
1.031249e+003, 1.231672e+002
1.031731e+003, 1.240627e+002
1.032213e+003, 1.250699e+002
1.032695e+003, 1.262676e+002
1.033177e+003, 1.273880e+002
1.033660e+003, 1.283885e+002
1.034142e+003, 1.291451e+002
1.034624e+003, 1.293181e+002
1.035106e+003, 1.291328e+002
1.035588e+003, 1.300366e+002
1.036070e+003, 1.326657e+002
1.036552e+003, 1.348526e+002
1.037034e+003, 1.363721e+002
1.037516e+003, 1.377680e+002
1.037999e+003, 1.392187e+002
1.038481e+003, 1.406378e+002
1.038963e+003, 1.418487e+002
1.039445e+003, 1.429128e+002
1.039927e+003, 1.443102e+002
1.040409e+003, 1.462701e+002
1.040891e+003, 1.481639e+002
1.041373e+003, 1.499507e+002
1.041855e+003, 1.517112e+002
1.042338e+003, 1.532731e+002
1.042820e+003, 1.549526e+002
1.043302e+003, 1.571399e+002
1.043784e+003, 1.597733e+002
1.044266e+003, 1.624329e+002
1.044748e+003, 1.651958e+002
1.045230e+003, 1.678208e+002
1.045712e+003, 1.701891e+002
1.046195e+003, 1.725318e+002
1.046677e+003, 1.749473e+002
1.047159e+003, 1.773905e+002
1.047641e+003, 1.797767e+002
1.048123e+003, 1.821265e+002
1.048605e+003, 1.846199e+002
1.049087e+003, 1.870108e+002
1.049569e+003, 1.900552e+002
1.050052e+003, 1.947258e+002
1.050534e+003, 1.990350e+002
1.051016e+003, 2.018842e+002
1.051498e+003, 2.040283e+002
1.051980e+003, 2.061106e+002
1.052462e+003, 2.082631e+002
1.052944e+003, 2.108483e+002
1.053426e+003, 2.142518e+002
1.053908e+003, 2.174516e+002
1.054391e+003, 2.199469e+002
1.054873e+003, 2.224804e+002
1.055355e+003, 2.257393e+002
1.055837e+003, 2.290321e+002
1.056319e+003, 2.318970e+002
1.056801e+003, 2.341020e+002
1.057283e+003, 2.348596e+002
1.057765e+003, 2.330574e+002
1.058248e+003, 2.320051e+002
1.058730e+003, 2.333627e+002
1.059212e+003, 2.349331e+002
1.059694e+003, 2.358262e+002
1.060176e+003, 2.360337e+002
1.060658e+003, 2.354661e+002
1.061140e+003, 2.342710e+002
1.061622e+003, 2.330445e+002
1.062104e+003, 2.322036e+002
1.062587e+003, 2.306126e+002
1.063069e+003, 2.272449e+002
1.063551e+003, 2.237258e+002
1.064033e+003, 2.213741e+002
1.064515e+003, 2.191249e+002
1.064997e+003, 2.157495e+002
1.065479e+003, 2.112725e+002
1.065961e+003, 2.062480e+002
1.066443e+003, 2.006762e+002
1.066926e+003, 1.951853e+002
1.067408e+003, 1.898911e+002
1.067890e+003, 1.849185e+002
1.068372e+003, 1.806701e+002
1.068854e+003, 1.765189e+002
1.069336e+003, 1.717821e+002
1.069818e+003, 1.664849e+002
1.070300e+003, 1.609245e+002
1.070782e+003, 1.551221e+002
1.071265e+003, 1.492371e+002
1.071747e+003, 1.429947e+002
1.072229e+003, 1.370392e+002
1.072711e+003, 1.317835e+002
1.073193e+003, 1.269879e+002
1.073675e+003, 1.227928e+002
1.074157e+003, 1.188291e+002
1.074639e+003, 1.139972e+002
1.075122e+003, 1.077910e+002
1.075604e+003, 1.022590e+002
1.076086e+003, 9.885530e+001
1.076568e+003, 9.577637e+001
1.077050e+003, 9.193791e+001
1.077532e+003, 8.791183e+001
1.078014e+003, 8.429910e+001
1.078496e+003, 8.105759e+001
1.078979e+003, 7.788577e+001
1.079461e+003, 7.468725e+001
1.079943e+003, 7.184092e+001
1.080425e+003, 6.981901e+001
1.080907e+003, 6.786321e+001
1.081389e+003, 6.546433e+001
1.081871e+003, 6.302898e+001
1.082353e+003, 6.082512e+001
1.082835e+003, 5.894240e+001
1.083318e+003, 5.755814e+001
1.083800e+003, 5.670545e+001
1.084282e+003, 5.588103e+001
1.084764e+003, 5.501331e+001
1.085246e+003, 5.393452e+001
1.085728e+003, 5.245864e+001
1.086210e+003, 5.082901e+001
1.086692e+003, 4.894630e+001
1.087175e+003, 4.719448e+001
1.087657e+003, 4.637925e+001
1.088139e+003, 4.656501e+001
1.088621e+003, 4.655334e+001
1.089103e+003, 4.562437e+001
1.089585e+003, 4.474586e+001
1.090067e+003, 4.444516e+001
1.090549e+003, 4.424281e+001
1.091031e+003, 4.379089e+001
1.091514e+003, 4.318157e+001
1.091996e+003, 4.262478e+001
1.092478e+003, 4.212119e+001
1.092960e+003, 4.142738e+001
1.093442e+003, 4.022845e+001
1.093924e+003, 3.926674e+001
1.094406e+003, 3.887410e+001
1.094888e+003, 3.873885e+001
1.095370e+003, 3.888484e+001
1.095853e+003, 3.901788e+001
1.096335e+003, 3.869931e+001
1.096817e+003, 3.800116e+001
1.097299e+003, 3.750365e+001
1.097781e+003, 3.750672e+001
1.098263e+003, 3.734008e+001
1.098745e+003, 3.653012e+001
1.099227e+003, 3.580666e+001
1.099709e+003, 3.560846e+001
1.100192e+003, 3.564951e+001
1.100674e+003, 3.567995e+001
1.101156e+003, 3.566109e+001
1.101638e+003, 3.556373e+001
1.102120e+003, 3.535103e+001
1.102602e+003, 3.517872e+001
1.103084e+003, 3.517821e+001
1.103566e+003, 3.510312e+001
1.104049e+003, 3.470222e+001
1.104531e+003, 3.432238e+001
1.105013e+003, 3.430548e+001
1.105495e+003, 3.453209e+001
1.105977e+003, 3.473392e+001
1.106459e+003, 3.491774e+001
1.106941e+003, 3.480674e+001
1.107423e+003, 3.401706e+001
1.107906e+003, 3.339733e+001
1.108388e+003, 3.334221e+001
1.108870e+003, 3.335496e+001
1.109352e+003, 3.304359e+001
1.109834e+003, 3.260776e+001
1.110316e+003, 3.241633e+001
1.110798e+003, 3.249785e+001
1.111280e+003, 3.261157e+001
1.111762e+003, 3.285601e+001
1.112245e+003, 3.295528e+001
1.112727e+003, 3.274625e+001
1.113209e+003, 3.253447e+001
1.113691e+003, 3.246394e+001
1.114173e+003, 3.247555e+001
1.114655e+003, 3.253047e+001
1.115137e+003, 3.261765e+001
1.115619e+003, 3.259100e+001
1.116102e+003, 3.241889e+001
1.116584e+003, 3.217992e+001
1.117066e+003, 3.166800e+001
1.117548e+003, 3.140051e+001
1.118030e+003, 3.166983e+001
1.118512e+003, 3.213614e+001
1.118994e+003, 3.250888e+001
1.119476e+003, 3.280671e+001
1.119958e+003, 3.313114e+001
1.120441e+003, 3.362611e+001
1.120923e+003, 3.366750e+001
1.121405e+003, 3.307966e+001
1.121887e+003, 3.239717e+001
1.122369e+003, 3.161512e+001
1.122851e+003, 3.104653e+001
1.123333e+003, 3.099691e+001
1.123815e+003, 3.124700e+001
1.124297e+003, 3.130059e+001
1.124780e+003, 3.113234e+001
1.125262e+003, 3.109946e+001
1.125744e+003, 3.123313e+001
1.126226e+003, 3.142290e+001
1.126708e+003, 3.172966e+001
1.127190e+003, 3.178721e+001
1.127672e+003, 3.130076e+001
1.128154e+003, 3.069549e+001
1.128636e+003, 3.062684e+001
1.129119e+003, 3.101081e+001
1.129601e+003, 3.109393e+001
1.130083e+003, 3.082714e+001
1.130565e+003, 3.087689e+001
1.131047e+003, 3.136695e+001
1.131529e+003, 3.158843e+001
1.132011e+003, 3.121790e+001
1.132493e+003, 3.075723e+001
1.132976e+003, 3.071886e+001
1.133458e+003, 3.096923e+001
1.133940e+003, 3.117043e+001
1.134422e+003, 3.131436e+001
1.134904e+003, 3.123529e+001
1.135386e+003, 3.094206e+001
1.135868e+003, 3.078442e+001
1.136350e+003, 3.085364e+001
1.136833e+003, 3.090171e+001
1.137315e+003, 3.075430e+001
1.137797e+003, 3.047563e+001
1.138279e+003, 3.007965e+001
1.138761e+003, 2.966191e+001
1.139243e+003, 2.955778e+001
1.139725e+003, 2.973920e+001
1.140207e+003, 3.019867e+001
1.140689e+003, 3.085139e+001
1.141172e+003, 3.118348e+001
1.141654e+003, 3.095733e+001
1.142136e+003, 3.068484e+001
1.142618e+003, 3.104880e+001
1.143100e+003, 3.155917e+001
1.143582e+003, 3.076386e+001
1.144064e+003, 2.975747e+001
1.144546e+003, 3.181000e+001
1.145029e+003, 3.575317e+001
1.145511e+003, 3.692717e+001
1.145993e+003, 3.428149e+001
1.146475e+003, 3.134672e+001
1.146957e+003, 3.039129e+001
1.147439e+003, 3.043576e+001
1.147921e+003, 3.108165e+001
1.148403e+003, 3.170947e+001
1.148885e+003, 3.142786e+001
1.149368e+003, 3.063294e+001
1.149850e+003, 2.993829e+001
1.150332e+003, 2.952146e+001
1.150814e+003, 2.952524e+001
1.151296e+003, 3.009177e+001
1.151778e+003, 3.058527e+001
1.152260e+003, 3.051496e+001
1.152742e+003, 3.036688e+001
1.153224e+003, 3.062464e+001
1.153707e+003, 3.085274e+001
1.154189e+003, 3.037970e+001
1.154671e+003, 2.954273e+001
1.155153e+003, 2.922888e+001
1.155635e+003, 2.962130e+001
1.156117e+003, 2.994038e+001
1.156599e+003, 2.987718e+001
1.157081e+003, 2.979544e+001
1.157563e+003, 2.985108e+001
1.158046e+003, 2.987510e+001
1.158528e+003, 2.970878e+001
1.159010e+003, 2.948178e+001
1.159492e+003, 2.941210e+001
1.159974e+003, 2.947393e+001
1.160456e+003, 2.935081e+001
1.160938e+003, 2.871393e+001
1.161420e+003, 2.848551e+001
1.161903e+003, 2.915204e+001
1.162385e+003, 2.958446e+001
1.162867e+003, 2.934008e+001
1.163349e+003, 2.890986e+001
1.163831e+003, 2.862414e+001
1.164313e+003, 2.845617e+001
1.164795e+003, 2.831545e+001
1.165277e+003, 2.816067e+001
1.165760e+003, 2.843271e+001
1.166242e+003, 2.935134e+001
1.166724e+003, 2.999541e+001
1.167206e+003, 3.020400e+001
1.167688e+003, 3.017355e+001
1.168170e+003, 2.997273e+001
1.168652e+003, 2.965490e+001
1.169134e+003, 2.926056e+001
1.169616e+003, 2.883508e+001
1.170099e+003, 2.860656e+001
1.170581e+003, 2.857670e+001
1.171063e+003, 2.862968e+001
1.171545e+003, 2.875948e+001
1.172027e+003, 2.872471e+001
1.172509e+003, 2.844675e+001
1.172991e+003, 2.840072e+001
1.173473e+003, 2.901287e+001
1.173956e+003, 2.968908e+001
1.174438e+003, 2.919446e+001
1.174920e+003, 2.797848e+001
1.175402e+003, 2.742273e+001
1.175884e+003, 2.746949e+001
1.176366e+003, 2.804762e+001
1.176848e+003, 2.898771e+001
1.177330e+003, 2.963499e+001
1.177813e+003, 2.971292e+001
1.178295e+003, 2.949569e+001
1.178777e+003, 2.906145e+001
1.179259e+003, 2.870760e+001
1.179741e+003, 2.904125e+001
1.180223e+003, 2.952267e+001
1.180705e+003, 2.916327e+001
1.181187e+003, 2.839099e+001
1.181669e+003, 2.834921e+001
1.182151e+003, 2.907974e+001
1.182634e+003, 2.948131e+001
1.183116e+003, 2.892727e+001
1.183598e+003, 2.845887e+001
1.184080e+003, 2.894432e+001
1.184562e+003, 2.942014e+001
1.185044e+003, 2.908293e+001
1.185526e+003, 2.853852e+001
1.186008e+003, 2.843167e+001
1.186490e+003, 2.865817e+001
1.186973e+003, 2.887094e+001
1.187455e+003, 2.902046e+001
1.187937e+003, 2.901395e+001
1.188419e+003, 2.865518e+001
1.188901e+003, 2.840458e+001
1.189383e+003, 2.845242e+001
1.189865e+003, 2.850878e+001
1.190347e+003, 2.831158e+001
1.190830e+003, 2.814566e+001
1.191312e+003, 2.844525e+001
1.191794e+003, 2.905160e+001
1.192276e+003, 2.914654e+001
1.192758e+003, 2.849270e+001
1.193240e+003, 2.812101e+001
1.193722e+003, 2.802872e+001
1.194204e+003, 2.828648e+001
1.194687e+003, 2.905050e+001
1.195169e+003, 2.974195e+001
1.195651e+003, 3.003868e+001
1.196133e+003, 2.991231e+001
1.196615e+003, 2.918925e+001
1.197097e+003, 2.805555e+001
1.197579e+003, 2.770412e+001
1.198061e+003, 2.809510e+001
1.198543e+003, 2.857149e+001
1.199026e+003, 2.904234e+001
1.199508e+003, 2.909621e+001
1.199990e+003, 2.861743e+001
1.200472e+003, 2.812216e+001
1.200954e+003, 2.798669e+001
1.201436e+003, 2.823326e+001
1.201918e+003, 2.932163e+001
1.202400e+003, 3.057032e+001
1.202883e+003, 3.042982e+001
1.203365e+003, 2.937974e+001
1.203847e+003, 2.839698e+001
1.204329e+003, 2.772725e+001
1.204811e+003, 2.755433e+001
1.205293e+003, 2.792712e+001
1.205775e+003, 2.831878e+001
1.206257e+003, 2.838539e+001
1.206740e+003, 2.832012e+001
1.207222e+003, 2.813684e+001
1.207704e+003, 2.800732e+001
1.208186e+003, 2.819021e+001
1.208668e+003, 2.847033e+001
1.209150e+003, 2.852277e+001
1.209632e+003, 2.834464e+001
1.210114e+003, 2.808580e+001
1.210596e+003, 2.762390e+001
1.211078e+003, 2.760243e+001
1.211561e+003, 2.869859e+001
1.212043e+003, 2.949231e+001
1.212525e+003, 2.955547e+001
1.213007e+003, 2.916628e+001
1.213489e+003, 2.810650e+001
1.213971e+003, 2.701786e+001
1.214453e+003, 2.703514e+001
1.214935e+003, 2.807265e+001
1.215417e+003, 2.852970e+001
1.215900e+003, 2.824184e+001
1.216382e+003, 2.797104e+001
1.216864e+003, 2.773035e+001
1.217346e+003, 2.764823e+001
1.217828e+003, 2.779432e+001
1.218310e+003, 2.793522e+001
1.218792e+003, 2.786901e+001
1.219274e+003, 2.779286e+001
1.219757e+003, 2.821718e+001
1.220239e+003, 2.892572e+001
1.220721e+003, 2.867288e+001
1.221203e+003, 2.771874e+001
1.221685e+003, 2.743699e+001
1.222167e+003, 2.786675e+001
1.222649e+003, 2.817649e+001
1.223131e+003, 2.808038e+001
1.223614e+003, 2.791903e+001
1.224096e+003, 2.796437e+001
1.224578e+003, 2.801229e+001
1.225060e+003, 2.766943e+001
1.225542e+003, 2.735303e+001
1.226024e+003, 2.781995e+001
1.226506e+003, 2.850588e+001
1.226988e+003, 2.835038e+001
1.227470e+003, 2.758516e+001
1.227953e+003, 2.734837e+001
1.228435e+003, 2.798437e+001
1.228917e+003, 2.823747e+001
1.229399e+003, 2.707297e+001
1.229881e+003, 2.624675e+001
1.230363e+003, 2.666301e+001
1.230845e+003, 2.719989e+001
1.231327e+003, 2.717212e+001
1.231810e+003, 2.692441e+001
1.232292e+003, 2.682229e+001
1.232774e+003, 2.687788e+001
1.233256e+003, 2.717765e+001
1.233738e+003, 2.791466e+001
1.234220e+003, 2.800889e+001
1.234702e+003, 2.719991e+001
1.235184e+003, 2.657772e+001
1.235667e+003, 2.632453e+001
1.236149e+003, 2.636984e+001
1.236631e+003, 2.672038e+001
1.237113e+003, 2.716542e+001
1.237595e+003, 2.747126e+001
1.238077e+003, 2.764474e+001
1.238559e+003, 2.767031e+001
1.239041e+003, 2.758445e+001
1.239523e+003, 2.760064e+001
1.240005e+003, 2.769209e+001
1.240488e+003, 2.769438e+001
1.240970e+003, 2.756968e+001
1.241452e+003, 2.730289e+001
1.241934e+003, 2.688242e+001
1.242416e+003, 2.652630e+001
1.242898e+003, 2.628532e+001
1.243380e+003, 2.637475e+001
1.243862e+003, 2.754534e+001
1.244344e+003, 2.870263e+001
1.244827e+003, 2.829635e+001
1.245309e+003, 2.713214e+001
1.245791e+003, 2.670758e+001
1.246273e+003, 2.708887e+001
1.246755e+003, 2.736710e+001
1.247237e+003, 2.727546e+001
1.247719e+003, 2.720142e+001
1.248201e+003, 2.742737e+001
1.248684e+003, 2.740802e+001
1.249166e+003, 2.677094e+001
1.249648e+003, 2.608034e+001
1.250130e+003, 2.553368e+001
1.250612e+003, 2.523523e+001
1.251094e+003, 2.537425e+001
1.251576e+003, 2.588427e+001
1.252058e+003, 2.642592e+001
1.252541e+003, 2.711090e+001
1.253023e+003, 2.679834e+001
1.253505e+003, 2.531699e+001
1.253987e+003, 2.461683e+001
1.254469e+003, 2.516031e+001
1.254951e+003, 2.605615e+001
1.255433e+003, 2.681284e+001
1.255915e+003, 2.731210e+001
1.256397e+003, 2.734443e+001
1.256880e+003, 2.711394e+001
1.257362e+003, 2.694928e+001
1.257844e+003, 2.686003e+001
1.258326e+003, 2.692487e+001
1.258808e+003, 2.706318e+001
1.259290e+003, 2.711722e+001
1.259772e+003, 2.704309e+001
1.260254e+003, 2.678499e+001
1.260737e+003, 2.627740e+001
1.261219e+003, 2.593955e+001
1.261701e+003, 2.610991e+001
1.262183e+003, 2.634666e+001
1.262665e+003, 2.655354e+001
1.263147e+003, 2.662490e+001
1.263629e+003, 2.625101e+001
1.264111e+003, 2.584707e+001
1.264594e+003, 2.614260e+001
1.265076e+003, 2.698083e+001
1.265558e+003, 2.735899e+001
1.266040e+003, 2.714987e+001
1.266522e+003, 2.693308e+001
1.267004e+003, 2.670975e+001
1.267486e+003, 2.646507e+001
1.267968e+003, 2.618361e+001
1.268450e+003, 2.593712e+001
1.268932e+003, 2.575928e+001
1.269415e+003, 2.565223e+001
1.269897e+003, 2.562510e+001
1.270379e+003, 2.565225e+001
1.270861e+003, 2.565221e+001
1.271343e+003, 2.566024e+001
1.271825e+003, 2.585837e+001
1.272307e+003, 2.614537e+001
1.272789e+003, 2.614911e+001
1.273271e+003, 2.589881e+001
1.273754e+003, 2.580143e+001
1.274236e+003, 2.600281e+001
1.274718e+003, 2.615267e+001
1.275200e+003, 2.598843e+001
1.275682e+003, 2.576000e+001
1.276164e+003, 2.547843e+001
1.276646e+003, 2.533764e+001
1.277128e+003, 2.559194e+001
1.277611e+003, 2.597589e+001
1.278093e+003, 2.615036e+001
1.278575e+003, 2.619129e+001
1.279057e+003, 2.645554e+001
1.279539e+003, 2.702580e+001
1.280021e+003, 2.719868e+001
1.280503e+003, 2.673449e+001
1.280985e+003, 2.660005e+001
1.281468e+003, 2.707400e+001
1.281950e+003, 2.713832e+001
1.282432e+003, 2.631863e+001
1.282914e+003, 2.556748e+001
1.283396e+003, 2.570667e+001
1.283878e+003, 2.627294e+001
1.284360e+003, 2.648415e+001
1.284842e+003, 2.638842e+001
1.285324e+003, 2.612784e+001
##END=



