##NAMES=Bastnasite-(Ce)
##RRUFFID=R060550
##IDEAL CHEMISTRY=CeCO_3_F
##LOCALITY=Zagni Mountains, Pakistan
##OWNER=RRUFF
##SOURCE=Gemological Institute of America
##DESCRIPTION=Brown water worn pebble
##STATUS=The identification of this mineral has been confirmed by X-ray diffraction and chemical analysis
##URL=rruff.info/R060550
##MEASURED CHEMISTRY=(Ce_0.56_(La,Pr)_0.26_Nd_0.18_)_Î£=1_CO_3_F_1.00_
98.380, 530.627
98.862, 532.791
99.344, 542.268
99.826, 559.109
100.309, 582.931
100.791, 615.180
101.273, 654.158
101.755, 693.026
102.237, 729.157
102.719, 769.461
103.201, 819.156
103.683, 875.699
104.165, 945.362
104.648, 1026.250
105.130, 1117.784
105.612, 1232.914
106.094, 1363.112
106.576, 1523.041
107.058, 1731.072
107.540, 1975.021
108.022, 2283.050
108.505, 2665.829
108.987, 3106.770
109.469, 3648.259
109.951, 4272.212
110.433, 4988.696
110.915, 5838.015
111.397, 6832.406
111.879, 7941.078
112.362, 9168.727
112.844, 10720.750
113.326, 12161.420
113.808, 13563.320
114.290, 14887.260
114.772, 15737.430
115.254, 15825.240
115.736, 15486.650
116.218, 14998.700
116.701, 14170.230
117.183, 13433.620
117.665, 12957.320
118.147, 12754.510
118.629, 12741.560
119.111, 12927.380
119.593, 13275.290
120.075, 13725.330
120.558, 14327.850
121.040, 14980.950
121.522, 15648.620
122.004, 16374.170
122.486, 16954.211
122.968, 17287.760
123.450, 17362.670
123.932, 17144.619
124.414, 16504.850
124.897, 15586.480
125.379, 14562.900
125.861, 13416.830
126.343, 12272.630
126.825, 11267.100
127.307, 10398.840
127.789, 9647.994
128.271, 9016.309
128.753, 8495.606
129.236, 8074.132
129.718, 7763.441
130.200, 7544.540
130.682, 7380.061
131.164, 7272.917
131.646, 7208.891
132.128, 7175.700
132.610, 7173.493
133.093, 7200.968
133.575, 7269.800
134.057, 7374.225
134.539, 7466.479
135.021, 7540.650
135.503, 7613.719
135.985, 7715.014
136.467, 7847.860
136.949, 7992.390
137.432, 8133.767
137.914, 8269.789
138.396, 8432.248
138.878, 8622.337
139.360, 8839.125
139.842, 9074.712
140.324, 9320.275
140.806, 9602.028
141.288, 9938.924
141.771, 10341.820
142.253, 10774.110
142.735, 11224.590
143.217, 11698.820
143.699, 12212.760
144.181, 12773.880
144.663, 13372.100
145.145, 14014.530
145.628, 14693.390
146.110, 15421.330
146.592, 16210.510
147.074, 17086.680
147.556, 17911.510
148.038, 18734.770
148.520, 19492.900
149.002, 20096.980
149.484, 20578.051
149.967, 20884.949
150.449, 20989.270
150.931, 20813.240
151.413, 20600.650
151.895, 20270.570
152.377, 19906.109
152.859, 19684.939
153.342, 19582.900
153.824, 19648.660
154.306, 19901.500
154.788, 20342.180
155.270, 20969.250
155.752, 21799.141
156.234, 22822.289
156.716, 24015.859
157.198, 25340.881
157.680, 26848.359
158.163, 28554.350
158.645, 30419.641
159.127, 32530.529
159.609, 35006.949
160.091, 37812.328
160.573, 40630.840
161.055, 43676.270
161.538, 46529.820
162.020, 48780.422
162.502, 50700.012
162.984, 51649.340
163.466, 51211.129
163.948, 49350.191
164.430, 46756.930
164.912, 43363.012
165.394, 39542.941
165.876, 35789.129
166.359, 32100.420
166.841, 28680.420
167.323, 25671.369
167.805, 23099.689
168.287, 20845.840
168.769, 18895.600
169.251, 17231.670
169.733, 15798.930
170.216, 14633.570
170.698, 13659.650
171.180, 12817.810
171.662, 12107.690
172.144, 11498.950
172.626, 10968.420
173.108, 10516.420
173.590, 10128.020
174.072, 9809.999
174.555, 9547.852
175.037, 9316.953
175.519, 9110.277
176.001, 8936.946
176.483, 8808.458
176.965, 8722.946
177.447, 8677.470
177.929, 8686.038
178.412, 8731.189
178.894, 8782.874
179.376, 8842.340
179.858, 8895.049
180.340, 8927.225
180.822, 8937.875
181.304, 8912.995
181.786, 8842.536
182.268, 8727.629
182.751, 8568.123
183.233, 8340.260
183.715, 8078.412
184.197, 7857.011
184.679, 7675.067
185.161, 7520.418
185.643, 7387.000
186.125, 7273.141
186.607, 7156.884
187.090, 7031.382
187.572, 6898.674
188.054, 6764.293
188.536, 6630.724
189.018, 6488.776
189.500, 6322.118
189.982, 6135.061
190.464, 5951.042
190.947, 5779.180
191.429, 5618.746
191.911, 5476.973
192.393, 5356.396
192.875, 5248.455
193.357, 5135.721
193.839, 5019.274
194.321, 4915.104
194.803, 4834.218
195.286, 4775.842
195.768, 4716.723
196.250, 4654.128
196.732, 4593.412
197.214, 4542.179
197.696, 4500.202
198.178, 4471.162
198.661, 4460.347
199.143, 4468.245
199.625, 4476.783
200.107, 4486.041
200.589, 4493.985
201.071, 4493.256
201.553, 4481.433
202.035, 4470.967
202.517, 4470.000
202.999, 4479.204
203.482, 4490.607
203.964, 4501.400
204.446, 4514.314
204.928, 4543.641
205.410, 4596.173
205.892, 4645.203
206.374, 4669.206
206.857, 4664.664
207.339, 4653.852
207.821, 4638.244
208.303, 4618.719
208.785, 4598.630
209.267, 4574.271
209.749, 4557.175
210.231, 4559.417
210.713, 4586.325
211.195, 4612.179
211.678, 4632.329
212.160, 4647.506
212.642, 4663.601
213.124, 4679.749
213.606, 4698.961
214.088, 4721.664
214.570, 4743.956
215.052, 4783.313
215.535, 4849.934
216.017, 4943.939
216.499, 5018.443
216.981, 5065.105
217.463, 5103.727
217.945, 5155.765
218.427, 5222.714
218.909, 5296.133
219.391, 5372.555
219.874, 5451.787
220.356, 5542.257
220.838, 5651.310
221.320, 5762.875
221.802, 5853.270
222.284, 5910.259
222.766, 5972.546
223.248, 6050.543
223.731, 6147.136
224.213, 6243.659
224.695, 6337.470
225.177, 6434.517
225.659, 6546.590
226.141, 6681.485
226.623, 6815.604
227.105, 6939.625
227.587, 7048.333
228.070, 7170.924
228.552, 7301.937
229.034, 7449.842
229.516, 7626.295
229.998, 7836.838
230.480, 8065.696
230.962, 8306.389
231.444, 8553.785
231.926, 8829.032
232.409, 9130.969
232.891, 9458.112
233.373, 9813.395
233.855, 10197.000
234.337, 10605.850
234.819, 11038.810
235.301, 11497.480
235.783, 11989.150
236.266, 12512.090
236.748, 13069.010
237.230, 13661.020
237.712, 14287.340
238.194, 14964.030
238.676, 15688.580
239.158, 16458.539
239.640, 17297.221
240.122, 18215.340
240.605, 19198.180
241.087, 20208.850
241.569, 21242.420
242.051, 22335.301
242.533, 23495.061
243.015, 24740.820
243.497, 26020.850
243.980, 27333.811
244.462, 28681.699
244.944, 30072.891
245.426, 31527.789
245.908, 32993.078
246.390, 34450.961
246.872, 35874.500
247.354, 37324.801
247.836, 38804.898
248.318, 40296.852
248.801, 41746.930
249.283, 43152.160
249.765, 44515.949
250.247, 45835.602
250.729, 47066.211
251.211, 48343.180
251.693, 49684.988
252.176, 51058.379
252.658, 52376.512
253.140, 53669.070
253.622, 54866.762
254.104, 55967.969
254.586, 57001.238
255.068, 57862.070
255.550, 58610.359
256.032, 59160.031
256.514, 59298.238
256.997, 59026.230
257.479, 58339.961
257.961, 57211.570
258.443, 55553.820
258.925, 53648.238
259.407, 51416.199
259.889, 48955.191
260.371, 46417.172
260.854, 43729.398
261.336, 41091.930
261.818, 38550.641
262.300, 36106.051
262.782, 33803.672
263.264, 31656.391
263.746, 29640.350
264.228, 27757.330
264.711, 25987.789
265.193, 24360.650
265.675, 22874.449
266.157, 21552.039
266.639, 20330.160
267.121, 19233.131
267.603, 18244.881
268.085, 17327.010
268.567, 16487.789
269.050, 15719.300
269.532, 15034.630
270.014, 14447.760
270.496, 13876.440
270.978, 13319.830
271.460, 12793.170
271.942, 12329.700
272.424, 11943.450
272.906, 11582.130
273.389, 11215.410
273.871, 10840.500
274.353, 10497.610
274.835, 10196.060
275.317, 9920.906
275.799, 9643.626
276.281, 9363.489
276.763, 9091.178
277.246, 8834.882
277.728, 8596.623
278.210, 8347.533
278.692, 8080.566
279.174, 7815.717
279.656, 7584.226
280.138, 7388.757
280.620, 7202.855
281.103, 7011.760
281.585, 6815.958
282.067, 6641.370
282.549, 6490.416
283.031, 6354.260
283.513, 6218.615
283.995, 6083.425
284.477, 5951.289
284.959, 5818.134
285.441, 5686.294
285.924, 5581.214
286.406, 5508.557
286.888, 5444.087
287.370, 5349.468
287.852, 5226.590
288.334, 5116.443
288.816, 5041.354
289.298, 4994.493
289.781, 4941.145
290.263, 4879.484
290.745, 4820.833
291.227, 4786.601
291.709, 4771.915
292.191, 4745.898
292.673, 4681.161
293.155, 4597.998
293.638, 4559.120
294.120, 4568.207
294.602, 4587.405
295.084, 4573.537
295.566, 4535.041
296.048, 4505.084
296.530, 4499.324
297.012, 4508.172
297.494, 4514.671
297.977, 4519.000
298.459, 4520.781
298.941, 4516.595
299.423, 4509.528
299.905, 4506.998
300.387, 4509.892
300.869, 4519.744
301.351, 4542.436
301.833, 4577.319
302.316, 4611.509
302.798, 4630.649
303.280, 4642.324
303.762, 4660.591
304.244, 4694.288
304.726, 4731.129
305.208, 4754.977
305.690, 4767.696
306.173, 4783.080
306.655, 4813.099
307.137, 4850.303
307.619, 4885.369
308.101, 4916.291
308.583, 4943.744
309.065, 4964.445
309.547, 4980.829
310.030, 5001.599
310.512, 5030.676
310.994, 5067.331
311.476, 5111.358
311.958, 5164.727
312.440, 5221.773
312.922, 5277.811
313.404, 5334.924
313.886, 5399.598
314.369, 5479.267
314.851, 5565.349
315.333, 5648.188
315.815, 5720.711
316.297, 5804.441
316.779, 5909.694
317.261, 6031.987
317.743, 6164.427
318.225, 6304.737
318.708, 6453.978
319.190, 6608.730
319.672, 6764.688
320.154, 6942.018
320.636, 7155.122
321.118, 7391.501
321.600, 7632.155
322.082, 7854.559
322.565, 8097.613
323.047, 8377.678
323.529, 8705.281
324.011, 9033.519
324.493, 9349.739
324.975, 9665.208
325.457, 9992.741
325.939, 10319.570
326.422, 10672.300
326.904, 11072.050
327.386, 11528.310
327.868, 11948.970
328.350, 12296.360
328.832, 12630.550
329.314, 13003.600
329.796, 13463.280
330.278, 13901.330
330.760, 14286.170
331.243, 14618.750
331.725, 14987.960
332.207, 15392.130
332.689, 15836.820
333.171, 16322.100
333.653, 16857.939
334.135, 17422.490
334.617, 18007.131
335.100, 18618.730
335.582, 19258.250
336.064, 19905.949
336.546, 20612.551
337.028, 21419.721
337.510, 22341.320
337.992, 23280.740
338.474, 24235.900
338.957, 25203.939
339.439, 26184.391
339.921, 27168.400
340.403, 28184.000
340.885, 29255.801
341.367, 30399.279
341.849, 31459.189
342.331, 32423.750
342.813, 33335.871
343.296, 34303.039
343.778, 35326.512
344.260, 36265.871
344.742, 37038.020
345.224, 37663.379
345.706, 38222.699
346.188, 38723.301
346.670, 39155.879
347.152, 39515.770
347.635, 39802.422
348.117, 40009.738
348.599, 40154.160
349.081, 40211.898
349.563, 40115.020
350.045, 39862.309
350.527, 39503.891
351.009, 39091.160
351.491, 38611.129
351.974, 38037.660
352.456, 37332.410
352.938, 36549.570
353.420, 35746.039
353.902, 34924.109
354.384, 34069.539
354.866, 33150.602
355.349, 32212.891
355.831, 31301.609
356.313, 30432.711
356.795, 29587.721
357.277, 28749.180
357.759, 27919.391
358.241, 27127.561
358.723, 26391.490
359.205, 25697.820
359.688, 25026.141
360.170, 24368.529
360.652, 23748.869
361.134, 23191.520
361.616, 22677.289
362.098, 22173.850
362.580, 21664.660
363.062, 21168.061
363.544, 20698.930
364.027, 20268.039
364.509, 19803.869
364.991, 19264.740
365.473, 18690.730
365.955, 18131.789
366.437, 17619.631
366.919, 17091.051
367.401, 16524.039
367.884, 15914.110
368.366, 15339.300
368.848, 14826.370
369.330, 14334.320
369.812, 13830.330
370.294, 13279.890
370.776, 12763.370
371.258, 12299.590
371.741, 11879.270
372.223, 11481.910
372.705, 11117.060
373.187, 10760.920
373.669, 10393.230
374.151, 9994.741
374.633, 9638.130
375.115, 9328.733
375.597, 9055.369
376.079, 8793.985
376.562, 8542.769
377.044, 8303.508
377.526, 8082.780
378.008, 7879.234
378.490, 7670.494
378.972, 7449.149
379.454, 7236.443
379.936, 7057.131
380.419, 6912.163
380.901, 6767.905
381.383, 6612.962
381.865, 6451.923
382.347, 6300.642
382.829, 6157.590
383.311, 6031.421
383.793, 5938.859
384.276, 5870.526
384.758, 5794.727
385.240, 5699.059
385.722, 5600.840
386.204, 5524.441
386.686, 5466.833
387.168, 5412.059
387.650, 5346.390
388.132, 5277.439
388.615, 5204.440
389.097, 5112.658
389.579, 5064.260
390.061, 5015.274
390.543, 5005.850
391.025, 4986.823
391.507, 4958.701
391.989, 4894.283
392.471, 4876.744
392.954, 4840.417
393.436, 4803.321
393.918, 4792.380
394.400, 4750.671
394.882, 4669.753
395.364, 4599.833
395.846, 4538.546
396.328, 4490.058
396.810, 4453.037
397.293, 4408.577
397.775, 4342.153
398.257, 4275.120
398.739, 4219.390
399.221, 4192.368
399.703, 4156.484
400.185, 4108.570
400.668, 4051.724
401.150, 3993.967
401.632, 3934.641
402.114, 3875.071
402.596, 3813.460
403.078, 3744.966
403.560, 3695.269
404.042, 3672.766
404.524, 3659.387
405.007, 3628.528
405.489, 3575.152
405.971, 3524.595
406.453, 3485.141
406.935, 3454.898
407.417, 3419.467
407.899, 3378.075
408.381, 3335.854
408.863, 3296.937
409.346, 3261.094
409.828, 3227.243
410.310, 3193.716
410.792, 3163.604
411.274, 3145.603
411.756, 3138.589
412.238, 3132.192
412.720, 3120.574
413.203, 3105.057
413.685, 3086.837
414.167, 3065.226
414.649, 3044.864
415.131, 3030.425
415.613, 3020.409
416.095, 3012.096
416.577, 3007.697
417.060, 3001.953
417.542, 2989.047
418.024, 2969.268
418.506, 2949.917
418.988, 2933.869
419.470, 2920.939
419.952, 2911.449
420.434, 2909.327
420.916, 2905.856
421.398, 2897.520
421.881, 2885.557
422.363, 2873.731
422.845, 2864.122
423.327, 2854.090
423.809, 2842.698
424.291, 2830.487
424.773, 2815.668
425.255, 2794.439
425.738, 2772.237
426.220, 2756.386
426.702, 2752.003
427.184, 2746.753
427.666, 2738.838
428.148, 2728.254
428.630, 2711.460
429.112, 2686.872
429.595, 2658.739
430.077, 2629.829
430.559, 2599.368
431.041, 2572.000
431.523, 2548.445
432.005, 2527.527
432.487, 2506.073
432.969, 2484.014
433.451, 2462.380
433.934, 2443.122
434.416, 2425.147
434.898, 2402.525
435.380, 2374.340
435.862, 2345.169
436.344, 2319.510
436.826, 2297.123
437.308, 2277.330
437.790, 2262.594
438.273, 2248.471
438.755, 2227.874
439.237, 2201.708
439.719, 2177.796
440.201, 2165.558
440.683, 2156.337
441.165, 2139.939
441.647, 2108.857
442.129, 2080.267
442.612, 2067.812
443.094, 2064.418
443.576, 2055.145
444.058, 2029.415
444.540, 2001.599
445.022, 1976.982
445.504, 1955.769
445.987, 1938.762
446.469, 1930.761
446.951, 1924.598
447.433, 1913.279
447.915, 1890.146
448.397, 1871.192
448.879, 1859.825
449.361, 1854.571
449.843, 1847.158
450.326, 1837.826
450.808, 1825.805
451.290, 1809.384
451.772, 1786.544
452.254, 1768.750
452.736, 1756.286
453.218, 1748.985
453.700, 1749.995
454.182, 1759.951
454.665, 1763.601
455.147, 1752.869
455.629, 1732.221
456.111, 1715.992
456.593, 1704.413
457.075, 1694.039
457.557, 1683.923
458.039, 1672.740
458.522, 1656.987
459.004, 1633.606
459.486, 1609.940
459.968, 1591.801
460.450, 1579.190
460.932, 1572.634
461.414, 1578.089
461.896, 1585.757
462.379, 1588.106
462.861, 1584.264
463.343, 1578.242
463.825, 1570.774
464.307, 1562.403
464.789, 1553.684
465.271, 1546.544
465.753, 1536.994
466.235, 1521.661
466.717, 1502.308
467.200, 1487.274
467.682, 1479.841
468.164, 1474.330
468.646, 1468.497
469.128, 1461.508
469.610, 1456.582
470.092, 1455.497
470.574, 1454.850
471.057, 1448.700
471.539, 1434.278
472.021, 1425.020
472.503, 1426.896
472.985, 1436.625
473.467, 1435.859
473.949, 1423.536
474.431, 1408.065
474.914, 1393.213
475.396, 1380.018
475.878, 1375.413
476.360, 1382.275
476.842, 1391.420
477.324, 1390.312
477.806, 1381.503
478.288, 1373.121
478.770, 1369.891
479.253, 1368.423
479.735, 1366.215
480.217, 1363.120
480.699, 1357.285
481.181, 1342.715
481.663, 1327.300
482.145, 1318.466
482.627, 1321.415
483.109, 1325.818
483.592, 1330.352
484.074, 1333.893
484.556, 1333.910
485.038, 1323.618
485.520, 1315.558
486.002, 1315.521
486.484, 1325.272
486.966, 1329.710
487.448, 1325.210
487.931, 1318.761
488.413, 1316.684
488.895, 1321.231
489.377, 1320.263
489.859, 1308.328
490.341, 1315.742
490.823, 1318.458
491.306, 1316.731
491.788, 1297.248
492.270, 1300.693
492.752, 1294.949
493.234, 1288.829
493.716, 1295.500
494.198, 1287.127
494.680, 1286.778
495.162, 1289.544
495.645, 1288.323
496.127, 1278.708
496.609, 1267.490
497.091, 1261.930
497.573, 1260.731
498.055, 1259.295
498.537, 1252.789
499.019, 1246.822
499.501, 1246.203
499.984, 1252.501
500.466, 1257.933
500.948, 1259.882
501.430, 1259.594
501.912, 1258.325
502.394, 1255.038
502.876, 1252.286
503.358, 1252.413
503.841, 1253.835
504.323, 1249.033
504.805, 1231.786
505.287, 1217.026
505.769, 1212.796
506.251, 1221.925
506.733, 1223.031
507.215, 1212.638
507.698, 1200.892
508.180, 1202.627
508.662, 1217.997
509.144, 1228.390
509.626, 1228.669
510.108, 1221.918
510.590, 1214.148
511.072, 1205.354
511.554, 1195.618
512.036, 1179.774
512.519, 1164.882
513.001, 1164.217
513.483, 1180.544
513.965, 1197.475
514.447, 1205.335
514.929, 1205.957
515.411, 1201.694
515.893, 1188.676
516.375, 1175.574
516.858, 1165.446
517.340, 1157.870
517.822, 1151.422
518.304, 1144.215
518.786, 1139.302
519.268, 1139.286
519.750, 1147.027
520.232, 1148.862
520.715, 1141.638
521.197, 1131.270
521.679, 1123.610
522.161, 1119.150
522.643, 1116.171
523.125, 1114.899
523.607, 1114.608
524.089, 1113.263
524.571, 1110.877
525.054, 1107.584
525.536, 1102.364
526.018, 1096.212
526.500, 1093.926
526.982, 1096.006
527.464, 1096.334
527.946, 1085.338
528.429, 1069.135
528.911, 1058.922
529.393, 1060.259
529.875, 1065.227
530.357, 1067.877
530.839, 1069.620
531.321, 1073.930
531.803, 1089.348
532.286, 1101.674
532.768, 1101.608
533.250, 1086.366
533.732, 1075.613
534.214, 1076.342
534.696, 1079.639
535.178, 1078.658
535.660, 1067.026
536.142, 1063.309
536.625, 1071.646
537.107, 1086.778
537.589, 1097.487
538.071, 1103.545
538.553, 1106.143
539.035, 1104.787
539.517, 1100.199
539.999, 1095.975
540.481, 1091.981
540.964, 1089.654
541.446, 1091.419
541.928, 1095.698
542.410, 1098.069
542.892, 1096.892
543.374, 1096.672
543.856, 1103.250
544.338, 1113.757
544.820, 1122.636
545.303, 1124.885
545.785, 1127.047
546.267, 1133.792
546.749, 1144.444
547.231, 1152.378
547.713, 1157.170
548.195, 1157.697
548.677, 1151.565
549.159, 1129.344
549.642, 1122.671
550.124, 1141.963
550.606, 1168.673
551.088, 1178.784
551.570, 1165.225
552.052, 1157.221
552.534, 1162.136
553.016, 1175.880
553.499, 1184.395
553.981, 1187.459
554.463, 1190.109
554.945, 1194.340
555.427, 1200.429
555.909, 1210.805
556.391, 1225.928
556.873, 1239.017
557.356, 1240.555
557.838, 1236.992
558.320, 1238.409
558.802, 1251.620
559.284, 1263.847
559.766, 1263.703
560.248, 1257.392
560.730, 1258.429
561.213, 1272.656
561.695, 1293.311
562.177, 1295.736
562.659, 1289.705
563.141, 1314.473
563.623, 1331.764
564.105, 1341.984
564.587, 1323.938
565.069, 1342.388
565.552, 1346.212
566.034, 1349.437
566.516, 1373.023
566.998, 1359.091
567.480, 1382.354
567.962, 1390.769
568.444, 1405.980
568.926, 1403.434
569.408, 1406.058
569.891, 1414.461
570.373, 1427.828
570.855, 1448.285
571.337, 1472.094
571.819, 1496.909
572.301, 1522.844
572.783, 1544.801
573.265, 1555.796
573.747, 1563.567
574.230, 1575.354
574.712, 1594.957
575.194, 1616.295
575.676, 1640.447
576.158, 1665.676
576.640, 1686.348
577.122, 1693.287
577.604, 1711.205
578.086, 1752.486
578.569, 1814.551
579.051, 1855.572
579.533, 1870.254
580.015, 1883.099
580.497, 1911.279
580.979, 1977.284
581.461, 2034.119
581.943, 2082.252
582.426, 2095.686
582.908, 2153.933
583.390, 2194.216
583.872, 2233.767
584.354, 2298.333
584.836, 2316.809
585.318, 2380.967
585.800, 2426.891
586.282, 2481.155
586.765, 2517.354
587.247, 2559.147
587.729, 2618.997
588.211, 2668.845
588.693, 2693.780
589.175, 2739.506
589.657, 2793.643
590.140, 2842.023
590.622, 2882.858
591.104, 2923.266
591.586, 2963.260
592.068, 3003.661
592.550, 3047.911
593.032, 3096.250
593.514, 3135.106
593.996, 3155.301
594.479, 3168.019
594.961, 3193.546
595.443, 3231.086
595.925, 3275.900
596.407, 3335.770
596.889, 3394.446
597.371, 3432.751
597.853, 3447.432
598.335, 3464.764
598.818, 3501.875
599.300, 3544.306
599.782, 3580.323
600.264, 3603.817
600.746, 3625.368
601.228, 3642.628
601.710, 3659.683
602.192, 3686.181
602.674, 3733.333
603.157, 3762.952
603.639, 3761.822
604.121, 3735.755
604.603, 3710.929
605.085, 3688.080
605.567, 3659.632
606.049, 3620.678
606.531, 3572.422
607.013, 3518.723
607.496, 3459.226
607.978, 3395.675
608.460, 3333.637
608.942, 3267.027
609.424, 3185.743
609.906, 3080.225
610.388, 2974.071
610.870, 2880.005
611.353, 2791.799
611.835, 2702.102
612.317, 2604.595
612.799, 2508.739
613.281, 2415.530
613.763, 2324.749
614.245, 2241.040
614.727, 2166.615
615.209, 2094.757
615.692, 2020.738
616.174, 1945.645
616.656, 1881.317
617.138, 1828.951
617.620, 1782.258
618.102, 1735.286
618.584, 1688.901
619.067, 1647.177
619.549, 1612.774
620.031, 1578.974
620.513, 1538.581
620.995, 1494.841
621.477, 1454.087
621.959, 1415.715
622.441, 1383.689
622.923, 1363.354
623.406, 1352.340
623.888, 1336.214
624.370, 1308.108
624.852, 1281.015
625.334, 1259.601
625.816, 1244.295
626.298, 1229.352
626.780, 1215.346
627.263, 1200.192
627.745, 1180.115
628.227, 1156.061
628.709, 1139.590
629.191, 1133.263
629.673, 1129.356
630.155, 1117.768
630.637, 1101.445
631.119, 1087.385
631.602, 1079.311
632.084, 1072.550
632.566, 1064.536
633.048, 1055.392
633.530, 1045.234
634.012, 1032.945
634.494, 1020.773
634.976, 1009.428
635.458, 999.118
635.941, 989.203
636.423, 978.822
636.905, 970.005
637.387, 964.317
637.869, 962.099
638.351, 960.108
638.833, 958.446
639.315, 956.526
639.797, 955.162
640.280, 953.258
640.762, 945.469
641.244, 927.880
641.726, 910.328
642.208, 903.321
642.690, 903.963
643.172, 905.936
643.654, 907.885
644.137, 909.443
644.619, 909.812
645.101, 909.397
645.583, 910.555
646.065, 916.458
646.547, 921.141
647.029, 921.955
647.511, 918.418
647.994, 917.016
648.476, 918.156
648.958, 920.316
649.440, 921.265
649.922, 921.446
650.404, 926.255
650.886, 936.507
651.368, 949.392
651.851, 962.312
652.333, 975.238
652.815, 988.266
653.297, 1000.758
653.779, 1014.157
654.261, 1028.365
654.743, 1044.224
655.225, 1063.522
655.707, 1088.584
656.190, 1115.146
656.672, 1139.695
657.154, 1163.485
657.636, 1198.288
658.118, 1245.505
658.600, 1301.331
659.082, 1366.996
659.564, 1442.627
660.046, 1510.099
660.529, 1568.097
661.011, 1628.078
661.493, 1698.951
661.975, 1780.087
662.457, 1872.974
662.939, 1982.480
663.421, 2083.853
663.903, 2170.239
664.385, 2232.948
664.868, 2260.785
665.350, 2242.194
665.832, 2197.756
666.314, 2122.867
666.796, 2025.761
667.278, 1926.281
667.760, 1816.119
668.242, 1717.423
668.724, 1635.014
669.207, 1568.893
669.689, 1525.103
670.171, 1505.623
670.653, 1490.541
671.135, 1469.150
671.617, 1443.392
672.099, 1418.341
672.581, 1394.000
673.064, 1366.383
673.546, 1328.023
674.028, 1287.879
674.510, 1254.230
674.992, 1228.800
675.474, 1208.702
675.956, 1194.243
676.438, 1183.937
676.920, 1176.287
677.403, 1169.709
677.885, 1168.006
678.367, 1170.302
678.849, 1178.594
679.331, 1197.050
679.813, 1226.188
680.295, 1259.693
680.778, 1294.252
681.260, 1334.341
681.742, 1381.524
682.224, 1439.402
682.706, 1521.030
683.188, 1640.623
683.670, 1782.900
684.152, 1947.159
684.634, 2130.655
685.117, 2294.309
685.599, 2489.277
686.081, 2607.068
686.563, 2575.127
687.045, 2368.430
687.527, 2143.295
688.009, 1876.120
688.491, 1623.534
688.973, 1430.427
689.456, 1297.286
689.938, 1205.060
690.420, 1157.268
690.902, 1129.470
691.384, 1096.175
691.866, 1059.403
692.348, 1023.420
692.830, 988.230
693.312, 956.359
693.795, 930.720
694.277, 909.463
694.759, 889.263
695.241, 870.664
695.723, 851.384
696.205, 825.793
696.687, 798.283
697.169, 787.871
697.652, 802.932
698.134, 813.772
698.616, 806.469
699.098, 785.384
699.580, 775.153
700.062, 775.830
700.544, 778.340
701.026, 776.320
701.508, 772.071
701.991, 768.233
702.473, 764.979
702.955, 764.344
703.437, 771.947
703.919, 779.871
704.401, 781.323
704.883, 771.619
705.365, 763.707
705.847, 758.454
706.330, 755.230
706.812, 753.664
707.294, 754.091
707.776, 754.842
708.258, 755.980
708.740, 756.871
709.222, 755.298
709.705, 752.198
710.187, 752.054
710.669, 756.513
711.151, 764.204
711.633, 776.150
712.115, 790.256
712.597, 801.567
713.079, 803.689
713.561, 807.299
714.044, 818.776
714.526, 836.703
715.008, 848.114
715.490, 848.428
715.972, 849.859
716.454, 857.238
716.936, 870.132
717.418, 882.186
717.901, 893.218
718.383, 906.664
718.865, 927.748
719.347, 952.309
719.829, 973.344
720.311, 990.034
720.793, 1002.475
721.275, 1006.104
721.757, 1008.032
722.240, 1014.953
722.722, 1030.752
723.204, 1044.053
723.686, 1052.613
724.168, 1058.343
724.650, 1060.505
725.132, 1053.717
725.614, 1064.563
726.096, 1098.700
726.579, 1144.225
727.061, 1187.580
727.543, 1227.827
728.025, 1260.767
728.507, 1286.350
728.989, 1302.007
729.471, 1297.852
729.953, 1282.562
730.435, 1273.570
730.918, 1278.543
731.400, 1289.845
731.882, 1301.916
732.364, 1318.028
732.846, 1350.022
733.328, 1405.159
733.810, 1462.212
734.292, 1514.734
734.775, 1564.000
735.257, 1623.683
735.739, 1693.557
736.221, 1741.963
736.703, 1755.945
737.185, 1733.762
737.667, 1660.338
738.149, 1539.864
738.631, 1416.808
739.114, 1308.233
739.596, 1212.204
740.078, 1125.022
740.560, 1044.823
741.042, 984.485
741.524, 951.561
742.006, 929.645
742.489, 908.244
742.971, 886.327
743.453, 872.217
743.935, 866.330
744.417, 866.381
744.899, 874.225
745.381, 885.808
745.863, 890.019
746.345, 883.492
746.828, 875.584
747.310, 869.010
747.792, 866.808
748.274, 872.816
748.756, 899.552
749.238, 918.378
749.720, 923.170
750.202, 919.989
750.684, 916.672
751.167, 913.731
751.649, 908.123
752.131, 897.189
752.613, 886.928
753.095, 892.363
753.577, 909.410
754.059, 919.813
754.541, 911.495
755.023, 899.235
755.506, 894.383
755.988, 895.737
756.470, 900.482
756.952, 913.956
757.434, 923.892
757.916, 926.412
758.398, 922.339
758.880, 914.148
759.362, 900.556
759.845, 886.393
760.327, 872.001
760.809, 858.766
761.291, 853.429
761.773, 855.330
762.255, 856.738
762.737, 852.041
763.219, 844.967
763.702, 840.224
764.184, 837.613
764.666, 832.094
765.148, 816.670
765.630, 802.128
766.112, 792.900
766.594, 788.546
767.076, 796.751
767.558, 826.341
768.041, 848.956
768.523, 839.708
769.005, 803.216
769.487, 776.937
769.969, 762.025
770.451, 754.623
770.933, 754.820
771.416, 758.742
771.898, 762.661
772.380, 766.586
772.862, 767.000
773.344, 756.843
773.826, 746.433
774.308, 744.875
774.790, 759.607
775.272, 764.392
775.755, 755.438
776.237, 743.620
776.719, 741.819
777.201, 748.700
777.683, 754.091
778.165, 756.841
778.647, 756.084
779.129, 746.192
779.612, 733.674
780.094, 728.636
780.576, 738.067
781.058, 747.373
781.540, 752.915
782.022, 755.141
782.504, 754.534
782.986, 748.988
783.468, 745.765
783.951, 746.157
784.433, 748.443
784.915, 750.093
785.397, 751.106
785.879, 751.359
786.361, 750.203
786.843, 749.550
787.325, 752.182
787.807, 756.650
788.290, 760.183
788.772, 761.553
789.254, 762.239
789.736, 762.179
790.218, 761.819
790.700, 762.144
791.182, 763.542
791.664, 764.355
792.146, 763.807
792.629, 762.847
793.111, 763.344
793.593, 765.321
794.075, 769.127
794.557, 778.648
795.039, 786.355
795.521, 782.781
796.003, 771.851
796.485, 764.443
796.968, 766.917
797.450, 769.842
797.932, 764.060
798.414, 756.596
798.896, 778.678
799.378, 837.911
799.860, 894.158
800.343, 939.850
800.825, 966.480
801.307, 938.891
801.789, 868.587
802.271, 809.390
802.753, 799.236
803.235, 805.227
803.717, 809.647
804.199, 810.901
804.682, 804.321
805.164, 771.399
805.646, 750.726
806.128, 758.253
806.610, 788.538
807.092, 802.629
807.574, 798.956
808.056, 792.981
808.539, 793.229
809.021, 796.736
809.503, 796.690
809.985, 794.063
810.467, 794.178
810.949, 803.664
811.431, 813.595
811.913, 818.621
812.395, 818.578
812.878, 817.469
813.360, 814.206
813.842, 811.972
814.324, 811.917
814.806, 813.994
815.288, 818.867
815.770, 826.569
816.252, 833.105
816.734, 835.062
817.217, 834.936
817.699, 836.385
818.181, 839.169
818.663, 840.200
819.145, 833.721
819.627, 829.215
820.109, 832.439
820.591, 843.171
821.073, 853.412
821.556, 864.660
822.038, 871.431
822.520, 868.084
823.002, 857.592
823.484, 852.863
823.966, 853.697
824.448, 856.537
824.930, 858.165
825.413, 861.355
825.895, 870.014
826.377, 884.072
826.859, 895.121
827.341, 898.049
827.823, 900.418
828.305, 905.265
828.787, 912.406
829.269, 916.772
829.752, 917.937
830.234, 919.432
830.716, 925.193
831.198, 932.248
831.680, 933.106
832.162, 928.642
832.644, 927.245
833.127, 937.309
833.609, 948.657
834.091, 955.804
834.573, 958.079
835.055, 957.978
835.537, 951.898
836.019, 950.586
836.501, 961.151
836.983, 981.164
837.466, 996.237
837.948, 1006.499
838.430, 1001.979
838.912, 1019.998
839.394, 1032.544
839.876, 1039.914
840.358, 1026.602
840.840, 1039.996
841.322, 1042.688
841.805, 1044.942
842.287, 1062.094
842.769, 1051.791
843.251, 1067.246
843.733, 1063.371
844.215, 1062.833
844.697, 1057.331
845.179, 1050.843
845.661, 1054.506
846.144, 1066.324
846.626, 1075.386
847.108, 1073.301
847.590, 1068.893
848.072, 1065.346
848.554, 1063.319
849.036, 1066.581
849.518, 1077.013
850.000, 1089.206
850.483, 1101.415
850.965, 1113.792
851.447, 1126.342
851.929, 1139.155
852.411, 1152.531
852.893, 1168.735
853.375, 1184.134
853.857, 1191.819
854.340, 1194.808
854.822, 1203.992
855.304, 1229.015
855.786, 1253.474
856.268, 1271.920
856.750, 1286.588
857.232, 1305.996
857.714, 1330.273
858.196, 1356.931
858.679, 1383.616
859.161, 1413.263
859.643, 1452.610
860.125, 1498.902
860.607, 1543.984
861.089, 1569.381
861.571, 1607.805
862.054, 1653.926
862.536, 1732.133
863.018, 1802.556
863.500, 1865.609
863.982, 1899.202
864.464, 1970.848
864.946, 2027.239
865.428, 2082.996
865.910, 2159.980
866.393, 2197.865
866.875, 2274.504
867.357, 2335.693
867.839, 2403.948
868.321, 2456.862
868.803, 2514.115
869.285, 2570.202
869.767, 2583.719
870.250, 2533.014
870.732, 2428.593
871.214, 2266.987
871.696, 2052.608
872.178, 1879.662
872.660, 1774.384
873.142, 1707.792
873.624, 1658.790
874.106, 1624.531
874.589, 1600.553
875.071, 1587.619
875.553, 1582.001
876.035, 1585.065
876.517, 1593.753
876.999, 1604.267
877.481, 1614.785
877.963, 1640.149
878.445, 1684.545
878.928, 1731.691
879.410, 1766.457
879.892, 1789.606
880.374, 1800.983
880.856, 1799.413
881.338, 1793.284
881.820, 1782.552
882.302, 1771.830
882.784, 1764.879
883.267, 1762.000
883.749, 1761.813
884.231, 1764.335
884.713, 1769.535
885.195, 1778.192
885.677, 1789.496
886.159, 1801.543
886.641, 1814.170
887.123, 1825.390
887.606, 1827.409
888.088, 1832.444
888.570, 1854.742
889.052, 1898.863
889.534, 1920.862
890.016, 1908.566
890.498, 1894.728
890.981, 1894.281
891.463, 1906.454
891.945, 1929.978
892.427, 1963.707
892.909, 1992.938
893.391, 2001.629
893.873, 2006.572
894.355, 2020.651
894.837, 2043.614
895.320, 2071.245
895.802, 2113.701
896.284, 2144.927
896.766, 2152.579
897.248, 2145.931
897.730, 2160.467
898.212, 2195.317
898.694, 2229.373
899.177, 2252.865
899.659, 2271.672
900.141, 2290.836
900.623, 2310.265
901.105, 2329.299
901.587, 2341.956
902.069, 2362.331
902.551, 2398.739
903.033, 2440.129
903.516, 2465.721
903.998, 2474.257
904.480, 2488.996
904.962, 2515.943
905.444, 2545.274
905.926, 2560.307
906.408, 2570.992
906.890, 2595.030
907.372, 2644.784
907.855, 2691.068
908.337, 2727.029
908.819, 2754.276
909.301, 2772.402
909.783, 2779.083
910.265, 2788.939
910.747, 2802.129
911.229, 2819.977
911.711, 2848.466
912.194, 2880.632
912.676, 2905.634
913.158, 2921.956
913.640, 2932.299
914.122, 2927.587
914.604, 2926.224
915.086, 2941.713
915.568, 2975.183
916.050, 2997.010
916.533, 3005.822
917.015, 3009.797
917.497, 3010.070
917.979, 3010.475
918.461, 3023.725
918.943, 3046.408
919.425, 3060.445
919.907, 3048.623
920.390, 3034.251
920.872, 3030.008
921.354, 3032.343
921.836, 3024.429
922.318, 2999.875
922.800, 2991.677
923.282, 3015.262
923.765, 3052.500
924.247, 3076.859
924.729, 3087.317
925.211, 3080.155
925.693, 3034.373
926.175, 2997.799
926.657, 2999.164
927.139, 3019.184
927.621, 3027.883
928.104, 3021.309
928.586, 3015.182
929.068, 3011.038
929.550, 3007.420
930.032, 3003.270
930.514, 2998.197
930.996, 2991.168
931.478, 2982.139
931.960, 2971.094
932.443, 2952.056
932.925, 2935.539
933.407, 2932.021
933.889, 2944.357
934.371, 2950.171
934.853, 2949.054
935.335, 2942.967
935.817, 2931.032
936.299, 2915.613
936.782, 2902.416
937.264, 2891.349
937.746, 2880.550
938.228, 2866.982
938.710, 2855.529
939.192, 2848.804
939.674, 2846.427
940.156, 2847.146
940.638, 2852.623
941.121, 2854.488
941.603, 2848.966
942.085, 2839.870
942.567, 2835.740
943.049, 2834.142
943.531, 2828.549
944.013, 2812.990
944.495, 2797.500
944.978, 2783.429
945.460, 2773.028
945.942, 2770.748
946.424, 2781.525
946.906, 2780.503
947.388, 2763.399
947.870, 2741.766
948.352, 2728.619
948.834, 2720.962
949.317, 2712.842
949.799, 2702.963
950.281, 2696.312
950.763, 2695.519
951.245, 2698.605
951.727, 2705.138
952.209, 2715.370
952.692, 2722.560
953.174, 2726.775
953.656, 2727.215
954.138, 2719.871
954.620, 2710.124
955.102, 2709.041
955.584, 2714.309
956.066, 2715.783
956.548, 2697.382
957.031, 2688.619
957.513, 2706.523
957.995, 2737.809
958.477, 2747.198
958.959, 2732.447
959.441, 2723.221
959.923, 2728.529
960.405, 2738.543
960.888, 2742.695
961.370, 2742.450
961.852, 2740.002
962.334, 2734.992
962.816, 2729.667
963.298, 2726.889
963.780, 2721.675
964.262, 2706.969
964.744, 2682.279
965.227, 2670.706
965.709, 2673.832
966.191, 2678.513
966.673, 2675.292
967.155, 2666.869
967.637, 2655.188
968.119, 2640.598
968.601, 2624.807
969.083, 2608.542
969.566, 2590.763
970.048, 2570.843
970.530, 2549.254
971.012, 2527.916
971.494, 2506.980
971.976, 2490.512
972.458, 2487.130
972.940, 2479.666
973.422, 2448.082
973.905, 2403.889
974.387, 2369.496
974.869, 2352.666
975.351, 2336.389
975.833, 2318.942
976.315, 2303.236
976.797, 2297.461
977.279, 2296.753
977.761, 2280.019
978.244, 2243.512
978.726, 2206.448
979.208, 2177.457
979.690, 2156.442
980.172, 2147.775
980.654, 2152.765
981.136, 2142.725
981.619, 2114.438
982.101, 2081.659
982.583, 2047.937
983.065, 2016.376
983.547, 1995.473
984.029, 1983.129
984.511, 1971.959
984.993, 1961.818
985.475, 1948.464
985.958, 1924.288
986.440, 1898.162
986.922, 1887.994
987.404, 1897.460
987.886, 1892.930
988.368, 1866.237
988.850, 1835.705
989.332, 1825.746
989.815, 1824.062
990.297, 1812.212
990.779, 1783.568
991.261, 1760.651
991.743, 1754.954
992.225, 1749.007
992.707, 1731.993
993.189, 1705.444
993.671, 1684.668
994.154, 1669.571
994.636, 1658.137
995.118, 1651.054
995.600, 1645.444
996.082, 1640.456
996.564, 1634.982
997.046, 1624.837
997.528, 1603.389
998.010, 1590.245
998.493, 1591.966
998.975, 1597.927
999.457, 1589.407
999.939, 1570.066
1000.421, 1551.506
1000.903, 1535.168
1001.385, 1523.948
1001.867, 1523.680
1002.349, 1526.219
1002.832, 1524.705
1003.314, 1518.661
1003.796, 1510.731
1004.278, 1500.582
1004.760, 1490.933
1005.242, 1484.973
1005.724, 1480.109
1006.206, 1471.118
1006.689, 1459.079
1007.171, 1448.720
1007.653, 1443.023
1008.135, 1437.849
1008.617, 1432.031
1009.099, 1425.978
1009.581, 1420.609
1010.063, 1415.937
1010.545, 1411.810
1011.028, 1408.630
1011.510, 1404.179
1011.992, 1394.809
1012.474, 1383.740
1012.956, 1374.076
1013.438, 1365.923
1013.920, 1361.610
1014.402, 1363.350
1014.885, 1364.537
1015.367, 1360.274
1015.849, 1352.392
1016.331, 1346.295
1016.813, 1342.320
1017.295, 1342.066
1017.777, 1353.152
1018.259, 1361.026
1018.741, 1355.673
1019.224, 1342.729
1019.706, 1334.469
1020.188, 1332.059
1020.670, 1327.541
1021.152, 1318.808
1021.634, 1311.101
1022.116, 1316.618
1022.598, 1324.661
1023.081, 1315.295
1023.563, 1279.934
1024.045, 1260.813
1024.527, 1280.231
1025.009, 1302.673
1025.491, 1312.174
1025.973, 1310.084
1026.455, 1304.118
1026.938, 1294.771
1027.420, 1285.869
1027.902, 1277.955
1028.384, 1272.766
1028.866, 1272.570
1029.348, 1275.811
1029.830, 1278.940
1030.312, 1280.270
1030.794, 1286.701
1031.276, 1301.243
1031.759, 1313.937
1032.241, 1312.310
1032.723, 1300.341
1033.205, 1283.476
1033.687, 1261.930
1034.169, 1246.225
1034.651, 1242.675
1035.133, 1244.566
1035.616, 1250.876
1036.098, 1259.982
1036.580, 1260.284
1037.062, 1252.103
1037.544, 1245.952
1038.026, 1244.855
1038.508, 1249.896
1038.990, 1270.618
1039.473, 1295.487
1039.955, 1305.144
1040.437, 1284.469
1040.919, 1271.418
1041.401, 1267.903
1041.883, 1269.090
1042.365, 1270.677
1042.847, 1273.309
1043.329, 1280.013
1043.812, 1290.464
1044.294, 1298.402
1044.776, 1299.125
1045.258, 1298.152
1045.740, 1298.428
1046.222, 1298.904
1046.704, 1294.903
1047.186, 1286.273
1047.668, 1280.342
1048.151, 1279.820
1048.633, 1281.022
1049.115, 1279.955
1049.597, 1278.400
1050.079, 1279.034
1050.561, 1284.793
1051.043, 1284.787
1051.525, 1274.407
1052.008, 1268.500
1052.490, 1282.799
1052.972, 1308.970
1053.454, 1322.981
1053.936, 1325.644
1054.418, 1321.655
1054.900, 1320.792
1055.382, 1342.994
1055.865, 1359.617
1056.347, 1370.923
1056.829, 1361.058
1057.311, 1378.530
1057.793, 1385.045
1058.275, 1391.114
1058.757, 1412.431
1059.239, 1415.813
1059.721, 1430.535
1060.203, 1434.662
1060.686, 1420.992
1061.168, 1424.886
1061.650, 1453.567
1062.132, 1483.958
1062.614, 1507.196
1063.096, 1524.934
1063.578, 1535.907
1064.060, 1544.214
1064.543, 1560.609
1065.025, 1594.298
1065.507, 1629.264
1065.989, 1660.696
1066.471, 1691.935
1066.953, 1724.086
1067.435, 1756.584
1067.917, 1802.228
1068.400, 1861.801
1068.882, 1930.298
1069.364, 2012.921
1069.846, 2096.095
1070.328, 2171.466
1070.810, 2238.863
1071.292, 2299.743
1071.774, 2357.510
1072.256, 2400.418
1072.739, 2424.039
1073.221, 2437.148
1073.703, 2451.257
1074.185, 2464.868
1074.667, 2470.835
1075.149, 2460.162
1075.631, 2475.917
1076.113, 2526.032
1076.596, 2609.263
1077.078, 2732.815
1077.560, 2890.033
1078.042, 3039.804
1078.524, 3187.125
1079.006, 3374.991
1079.488, 3625.159
1079.970, 3924.814
1080.453, 4259.695
1080.935, 4647.846
1081.417, 5096.524
1081.899, 5598.214
1082.381, 6196.880
1082.863, 6899.814
1083.345, 7722.288
1083.827, 8657.094
1084.309, 9735.882
1084.792, 10968.100
1085.274, 12377.570
1085.756, 14034.090
1086.238, 15937.320
1086.720, 18103.650
1087.202, 20564.641
1087.684, 23250.840
1088.166, 26093.490
1088.648, 29048.779
1089.131, 31994.119
1089.613, 34835.961
1090.095, 37814.020
1090.577, 40785.660
1091.059, 44165.801
1091.541, 48079.352
1092.023, 52561.730
1092.505, 58023.211
1092.988, 64502.609
1093.470, 72127.750
1093.952, 81866.500
1094.434, 91864.359
1094.916, 103295.797
1095.398, 113179.297
1095.880, 116469.797
1096.362, 112901.398
1096.844, 103095.398
1097.327, 86250.383
1097.809, 67782.648
1098.291, 51033.859
1098.773, 36825.000
1099.255, 26358.070
1099.737, 19472.529
1100.219, 14416.420
1100.701, 11564.280
1101.183, 9446.351
1101.666, 7888.053
1102.148, 6763.709
1102.630, 5847.677
1103.112, 5148.458
1103.594, 4755.588
1104.076, 4744.783
1104.558, 4703.768
1105.040, 4453.218
1105.523, 4097.250
1106.005, 3659.532
1106.487, 3162.431
1106.969, 2844.322
1107.451, 2692.714
1107.933, 2583.461
1108.415, 2465.642
1108.897, 2359.079
1109.380, 2281.807
1109.862, 2222.057
1110.344, 2162.511
1110.826, 2102.999
1111.308, 2040.923
1111.790, 1975.186
1112.272, 1914.327
1112.754, 1871.226
1113.236, 1832.474
1113.719, 1774.809
1114.201, 1706.027
1114.683, 1660.185
1115.165, 1662.717
1115.647, 1652.312
1116.129, 1617.250
1116.611, 1572.703
1117.093, 1536.958
1117.575, 1508.341
1118.058, 1484.914
1118.540, 1466.361
1119.022, 1445.736
1119.504, 1414.914
1119.986, 1387.654
1120.468, 1369.173
1120.950, 1357.619
1121.432, 1351.674
1121.915, 1348.601
1122.397, 1331.989
1122.879, 1289.144
1123.361, 1252.963
1123.843, 1250.943
1124.325, 1257.922
1124.807, 1251.445
1125.289, 1230.638
1125.771, 1217.012
1126.254, 1210.591
1126.736, 1206.663
1127.218, 1204.713
1127.700, 1201.808
1128.182, 1193.316
1128.664, 1182.703
1129.146, 1177.463
1129.628, 1182.759
1130.110, 1175.962
1130.593, 1153.109
1131.075, 1132.454
1131.557, 1136.443
1132.039, 1149.034
1132.521, 1149.857
1133.003, 1139.240
1133.485, 1125.421
1133.967, 1104.293
1134.450, 1092.496
1134.932, 1095.584
1135.414, 1103.917
1135.896, 1105.530
1136.378, 1101.075
1136.860, 1090.026
1137.342, 1071.755
1137.824, 1056.922
1138.307, 1048.116
1138.789, 1046.146
1139.271, 1055.082
1139.753, 1068.801
1140.235, 1066.477
1140.717, 1051.795
1141.199, 1038.824
1141.681, 1030.900
1142.163, 1028.441
1142.646, 1039.353
1143.128, 1049.112
1143.610, 1045.560
1144.092, 1029.485
1144.574, 1020.238
1145.056, 1017.713
1145.538, 1018.674
1146.020, 1023.702
1146.502, 1029.127
1146.985, 1033.750
1147.467, 1036.823
1147.949, 1037.362
1148.431, 1035.000
1148.913, 1032.160
1149.395, 1028.856
1149.877, 1026.363
1150.359, 1026.924
1150.842, 1027.740
1151.324, 1024.249
1151.806, 1018.593
1152.288, 1020.018
1152.770, 1032.589
1153.252, 1038.261
1153.734, 1033.169
1154.216, 1026.235
1154.698, 1027.669
1155.181, 1033.160
1155.663, 1037.850
1156.145, 1041.216
1156.627, 1041.628
1157.109, 1036.396
1157.591, 1035.053
1158.073, 1041.478
1158.555, 1050.695
1159.037, 1055.140
1159.520, 1055.985
1160.002, 1054.424
1160.484, 1049.621
1160.966, 1048.236
1161.448, 1053.931
1161.930, 1058.916
1162.412, 1059.657
1162.894, 1057.184
1163.377, 1053.368
1163.859, 1048.916
1164.341, 1045.646
1164.823, 1042.706
1165.305, 1044.342
1165.787, 1057.132
1166.269, 1068.515
1166.751, 1068.825
1167.234, 1060.068
1167.716, 1052.273
1168.198, 1046.149
1168.680, 1045.004
1169.162, 1056.994
1169.644, 1066.425
1170.126, 1064.609
1170.608, 1059.606
1171.090, 1059.509
1171.573, 1064.032
1172.055, 1069.958
1172.537, 1076.925
1173.019, 1082.769
1173.501, 1087.040
1173.983, 1088.626
1174.465, 1083.655
1174.947, 1076.864
1175.430, 1077.327
1175.912, 1085.047
1176.394, 1093.392
1176.876, 1101.928
1177.358, 1104.594
1177.840, 1088.187
1178.322, 1071.717
1178.804, 1070.634
1179.286, 1081.440
1179.769, 1089.364
1180.251, 1094.084
1180.733, 1102.292
1181.215, 1117.328
1181.697, 1128.144
1182.179, 1118.375
1182.661, 1103.779
1183.143, 1100.486
1183.625, 1108.809
1184.108, 1112.441
1184.590, 1110.728
1185.072, 1110.033
1185.554, 1112.568
1186.036, 1117.193
1186.518, 1126.120
1187.000, 1134.626
1187.482, 1134.954
1187.965, 1123.539
1188.447, 1124.035
1188.929, 1138.650
1189.411, 1150.875
1189.893, 1150.728
1190.375, 1145.489
1190.857, 1139.031
1191.339, 1135.392
1191.822, 1143.224
1192.304, 1175.314
1192.786, 1185.386
1193.268, 1168.652
1193.750, 1152.277
1194.232, 1159.308
1194.714, 1175.480
1195.196, 1182.516
1195.678, 1182.997
1196.161, 1183.493
1196.643, 1184.280
1197.125, 1188.133
1197.607, 1196.977
1198.089, 1202.133
1198.571, 1189.506
1199.053, 1171.964
1199.535, 1169.512
1200.017, 1179.336
1200.500, 1185.969
1200.982, 1184.800
1201.464, 1185.048
1201.946, 1188.142
1202.428, 1192.038
1202.910, 1194.247
1203.392, 1195.709
1203.874, 1198.701
1204.357, 1202.904
1204.839, 1199.845
1205.321, 1190.067
1205.803, 1203.404
1206.285, 1211.130
1206.767, 1213.547
1207.249, 1194.752
1207.731, 1203.347
1208.214, 1200.967
1208.696, 1198.135
1209.178, 1210.586
1209.660, 1194.876
1210.142, 1205.585
1210.624, 1207.270
1211.106, 1215.042
1211.588, 1216.106
1212.070, 1212.988
1212.552, 1209.441
1213.035, 1205.706
1213.517, 1204.204
1213.999, 1204.252
1214.481, 1208.768
1214.963, 1221.526
1215.445, 1235.498
1215.927, 1235.116
1216.409, 1227.056
1216.892, 1223.326
1217.374, 1228.126
1217.856, 1233.743
1218.338, 1242.379
1218.820, 1244.095
1219.302, 1228.438
1219.784, 1207.918
1220.266, 1207.065
1220.749, 1220.036
1221.231, 1235.618
1221.713, 1257.037
1222.195, 1266.286
1222.677, 1258.946
1223.159, 1249.946
1223.641, 1249.944
1224.123, 1254.042
1224.605, 1252.280
1225.088, 1247.189
1225.570, 1244.557
1226.052, 1248.028
1226.534, 1251.199
1227.016, 1254.466
1227.498, 1256.116
1227.980, 1252.705
1228.462, 1248.030
1228.944, 1250.254
1229.427, 1256.555
1229.909, 1258.506
1230.391, 1248.816
1230.873, 1245.790
1231.355, 1252.388
1231.837, 1258.965
1232.319, 1254.364
1232.801, 1245.735
1233.284, 1245.699
1233.766, 1251.208
1234.248, 1248.322
1234.730, 1228.256
1235.212, 1216.486
1235.694, 1216.351
1236.176, 1221.423
1236.658, 1226.693
1237.141, 1232.502
1237.623, 1242.103
1238.105, 1253.366
1238.587, 1253.276
1239.069, 1234.592
1239.551, 1226.552
1240.033, 1234.865
1240.515, 1246.492
1240.997, 1246.964
1241.479, 1243.736
1241.962, 1246.664
1242.444, 1254.708
1242.926, 1255.158
1243.408, 1245.070
1243.890, 1239.693
1244.372, 1242.643
1244.854, 1246.820
1245.336, 1242.426
1245.819, 1237.122
1246.301, 1239.986
1246.783, 1250.213
1247.265, 1254.513
1247.747, 1251.486
1248.229, 1253.202
1248.711, 1263.788
1249.193, 1272.338
1249.676, 1263.788
1250.158, 1251.508
1250.640, 1249.076
1251.122, 1255.237
1251.604, 1258.644
1252.086, 1259.316
1252.568, 1257.843
1253.050, 1253.653
1253.532, 1250.923
1254.015, 1255.282
1254.497, 1260.940
1254.979, 1262.709
1255.461, 1261.403
1255.943, 1262.545
1256.425, 1265.879
1256.907, 1266.680
1257.389, 1262.847
1257.871, 1258.880
1258.354, 1256.264
1258.836, 1256.443
1259.318, 1262.621
1259.800, 1272.026
1260.282, 1267.407
1260.764, 1250.972
1261.246, 1237.223
1261.728, 1230.562
1262.211, 1227.154
1262.693, 1226.679
1263.175, 1227.489
1263.657, 1229.629
1264.139, 1232.027
1264.621, 1228.604
1265.103, 1221.022
1265.585, 1215.363
1266.068, 1214.431
1266.550, 1213.151
1267.032, 1205.701
1267.514, 1203.222
1267.996, 1215.229
1268.478, 1234.393
1268.960, 1235.060
1269.442, 1223.324
1269.924, 1215.815
1270.407, 1221.155
1270.889, 1220.621
1271.371, 1207.174
1271.853, 1196.724
1272.335, 1199.543
1272.817, 1210.373
1273.299, 1220.246
1273.781, 1228.928
1274.264, 1236.737
1274.746, 1246.970
1275.228, 1245.747
1275.710, 1229.283
1276.192, 1212.911
1276.674, 1205.707
1277.156, 1203.638
1277.638, 1202.595
1278.120, 1201.861
1278.603, 1199.603
1279.085, 1192.934
1279.567, 1195.557
1280.049, 1209.116
1280.531, 1219.238
1281.013, 1213.721
1281.495, 1205.069
1281.977, 1206.602
1282.459, 1213.094
1282.942, 1217.332
1283.424, 1219.466
1283.906, 1213.957
1284.388, 1200.820
1284.870, 1193.793
1285.352, 1208.234
1285.834, 1222.315
1286.316, 1219.118
1286.799, 1208.943
1287.281, 1202.485
1287.763, 1199.790
##END=



