##NAMES=Benitoite
##RRUFFID=R050320
##IDEAL CHEMISTRY=BaTi^4+^Si_3_O_9_
##LOCALITY=San Benito County, California, USA
##OWNER=RRUFF
##SOURCE=American Museum of Natural History
##DESCRIPTION=Blue fragment
##STATUS=The identification of this mineral has been confirmed by X-ray diffraction and chemical analysis
##URL=rruff.info/R050320
##MEASURED CHEMISTRY=Ba_1.00_Ti_1.00_(Si_2.99_Al_0.01_)_Î£=3_O_9_
100.7194, 55.65886
101.2015, 55.97907
101.6837, 57.56224
102.1658, 59.20837
102.6479, 59.81015
103.1300, 59.24929
103.6121, 58.81694
104.0942, 59.86805
104.5764, 61.68580
105.0585, 63.17591
105.5406, 63.76941
106.0227, 63.74110
106.5048, 63.83752
106.9869, 63.73919
107.4691, 64.25220
107.9512, 66.01317
108.4333, 68.65675
108.9154, 71.27156
109.3975, 72.93987
109.8796, 73.40936
110.3618, 74.58447
110.8439, 77.22717
111.3260, 79.93403
111.8081, 82.23600
112.2902, 83.99523
112.7723, 85.26537
113.2544, 86.14895
113.7366, 86.94130
114.2187, 86.58043
114.7008, 84.19218
115.1829, 81.19215
115.6650, 78.75043
116.1471, 77.27139
116.6293, 76.58809
117.1114, 76.43129
117.5935, 76.90359
118.0756, 77.58535
118.5577, 78.39404
119.0398, 79.34164
119.5220, 80.53126
120.0041, 82.16545
120.4862, 83.91299
120.9683, 85.20029
121.4504, 86.25753
121.9325, 86.52205
122.4147, 85.43130
122.8968, 82.92820
123.3789, 79.75679
123.8610, 75.69196
124.3431, 71.32188
124.8252, 67.13766
125.3074, 63.19757
125.7895, 59.63683
126.2716, 56.76258
126.7537, 54.77346
127.2358, 53.24269
127.7179, 51.97671
128.2001, 50.99136
128.6822, 50.32690
129.1643, 50.05872
129.6464, 50.14671
130.1285, 50.09105
130.6107, 49.31637
131.0928, 48.95250
131.5749, 49.50886
132.0570, 50.73691
132.5391, 52.05669
133.0212, 52.94706
133.5034, 53.32667
133.9855, 53.83200
134.4676, 54.28785
134.9497, 54.97081
135.4318, 55.89569
135.9139, 57.11419
136.3960, 58.88462
136.8782, 61.56014
137.3603, 65.32157
137.8424, 69.33231
138.3245, 73.49673
138.8066, 77.89973
139.2887, 82.78941
139.7709, 88.33709
140.2530, 93.82900
140.7351, 98.41051
141.2172, 102.1757
141.6993, 105.3324
142.1814, 107.8246
142.6636, 109.7189
143.1457, 111.1768
143.6278, 111.7042
144.1099, 112.4087
144.5920, 114.2887
145.0741, 117.3327
145.5563, 120.6687
146.0384, 123.4365
146.5205, 125.5123
147.0026, 128.0335
147.4847, 131.3854
147.9668, 135.1471
148.4490, 139.1128
148.9311, 143.2296
149.4132, 147.6501
149.8953, 152.5628
150.3774, 157.9602
150.8595, 164.0393
151.3417, 171.0950
151.8238, 178.5024
152.3059, 185.6873
152.7880, 192.4020
153.2701, 199.0131
153.7522, 206.3450
154.2344, 214.4170
154.7165, 223.3049
155.1986, 232.6158
155.6807, 242.8530
156.1628, 254.5689
156.6449, 267.9756
157.1271, 283.1297
157.6092, 300.5318
158.0913, 320.9551
158.5734, 342.3302
159.0555, 368.4632
159.5376, 395.7850
160.0198, 415.6687
160.5019, 424.6021
160.9840, 420.3666
161.4661, 401.6407
161.9482, 361.5921
162.4303, 315.1794
162.9125, 269.1492
163.3946, 223.6816
163.8767, 183.8324
164.3588, 154.0379
164.8409, 132.2372
165.3230, 114.6059
165.8052, 101.4715
166.2873, 91.56206
166.7694, 83.79120
167.2515, 78.43087
167.7336, 74.25475
168.2157, 70.97255
168.6979, 68.34057
169.1800, 66.16210
169.6621, 64.44241
170.1442, 63.06138
170.6263, 61.64065
171.1084, 59.96612
171.5906, 58.63524
172.0727, 57.87714
172.5548, 57.50912
173.0369, 57.27837
173.5190, 57.03376
174.0011, 56.79140
174.4833, 56.68716
174.9654, 56.69087
175.4475, 56.89345
175.9296, 57.33092
176.4117, 57.98228
176.8938, 58.80265
177.3760, 59.75035
177.8581, 60.82125
178.3402, 62.20519
178.8223, 63.59605
179.3044, 65.53426
179.7865, 68.59583
180.2687, 72.46663
180.7508, 76.26410
181.2329, 79.21428
181.7150, 81.23644
182.1971, 83.25960
182.6792, 85.90289
183.1614, 88.05577
183.6435, 88.71919
184.1256, 87.99656
184.6077, 87.16936
185.0898, 87.36527
185.5719, 88.69339
186.0541, 90.05141
186.5362, 91.25999
187.0183, 92.58295
187.5004, 94.22849
187.9825, 96.22020
188.4646, 98.53363
188.9468, 101.3013
189.4289, 104.4221
189.9110, 107.5880
190.3931, 110.5623
190.8752, 113.5877
191.3573, 117.0298
191.8395, 120.8947
192.3216, 125.2662
192.8037, 130.3202
193.2858, 135.8781
193.7679, 141.6531
194.2500, 147.1711
194.7322, 152.7549
195.2143, 159.5189
195.6964, 167.4841
196.1785, 176.7996
196.6606, 187.3601
197.1427, 199.0796
197.6249, 211.6929
198.1070, 225.1719
198.5891, 239.4704
199.0712, 254.3020
199.5533, 271.8296
200.0354, 287.3199
200.5176, 301.5695
200.9997, 312.6417
201.4818, 316.5089
201.9639, 308.9958
202.4460, 289.8630
202.9281, 270.1575
203.4103, 246.4554
203.8924, 225.5214
204.3745, 209.1542
204.8566, 197.3198
205.3387, 189.7535
205.8208, 186.4315
206.3030, 187.6749
206.7851, 190.3011
207.2672, 194.8904
207.7493, 200.1392
208.2314, 205.4282
208.7135, 210.8667
209.1957, 216.9717
209.6778, 224.2225
210.1599, 232.6952
210.6420, 241.8512
211.1241, 250.9046
211.6062, 261.0955
212.0884, 273.4392
212.5705, 287.6816
213.0526, 302.6121
213.5347, 317.1481
214.0168, 331.1823
214.4989, 346.5341
214.9811, 364.1157
215.4632, 382.2144
215.9453, 400.5785
216.4274, 418.9399
216.9095, 435.7542
217.3916, 450.6006
217.8737, 462.7989
218.3559, 468.0351
218.8380, 466.3203
219.3201, 457.6232
219.8022, 440.4352
220.2843, 414.6627
220.7664, 385.2367
221.2486, 354.5614
221.7307, 323.0320
222.2128, 293.5525
222.6949, 265.4805
223.1770, 240.1363
223.6591, 219.4421
224.1413, 203.6568
224.6234, 190.7983
225.1055, 180.4443
225.5876, 172.0908
226.0697, 165.1917
226.5518, 159.6602
227.0340, 155.5167
227.5161, 152.8911
227.9982, 151.8847
228.4803, 152.0891
228.9624, 153.4086
229.4445, 155.7127
229.9267, 159.1341
230.4088, 164.1036
230.8909, 169.8800
231.3730, 175.5969
231.8551, 182.3802
232.3372, 186.0285
232.8194, 185.1104
233.3015, 180.3872
233.7836, 171.9222
234.2657, 158.9302
234.7478, 143.5055
235.2299, 130.2094
235.7121, 119.0797
236.1942, 110.1731
236.6763, 103.4981
237.1584, 98.60435
237.6405, 95.17814
238.1227, 93.16061
238.6048, 92.20423
239.0869, 91.44972
239.5690, 90.88264
240.0511, 90.57750
240.5332, 90.24618
241.0154, 90.25456
241.4975, 91.08284
241.9796, 92.94233
242.4617, 95.44727
242.9438, 97.59706
243.4259, 99.03131
243.9081, 100.6877
244.3902, 102.4864
244.8723, 104.6035
245.3544, 107.2989
245.8365, 110.6724
246.3186, 114.4223
246.8008, 117.9186
247.2829, 121.1577
247.7650, 124.0675
248.2471, 126.3826
248.7292, 128.5259
249.2113, 130.7802
249.6935, 133.2653
250.1756, 136.0782
250.6577, 139.4341
251.1398, 143.7904
251.6219, 148.0474
252.1040, 152.4350
252.5862, 156.5782
253.0683, 159.9035
253.5504, 162.2931
254.0325, 164.4520
254.5146, 167.5029
254.9967, 171.5986
255.4789, 176.5259
255.9610, 182.8500
256.4431, 189.6371
256.9252, 196.1298
257.4073, 202.1553
257.8894, 207.9378
258.3716, 213.7020
258.8537, 219.1307
259.3358, 225.6251
259.8179, 234.3185
260.3000, 243.4252
260.7821, 251.5319
261.2643, 258.3857
261.7464, 264.3467
262.2285, 269.8298
262.7106, 274.8226
263.1927, 279.0675
263.6748, 283.3107
264.1570, 286.3095
264.6391, 286.9512
265.1212, 285.1475
265.6033, 281.5640
266.0854, 276.8623
266.5675, 270.8515
267.0497, 262.8521
267.5318, 251.7270
268.0139, 239.4207
268.4960, 227.3478
268.9781, 215.6197
269.4602, 203.7111
269.9424, 190.9406
270.4245, 177.6101
270.9066, 165.4818
271.3887, 154.7536
271.8708, 145.0893
272.3529, 136.3839
272.8351, 128.5918
273.3172, 121.5203
273.7993, 115.1190
274.2814, 109.3918
274.7635, 104.0287
275.2456, 99.18648
275.7278, 94.56194
276.2099, 89.76612
276.6920, 84.88466
277.1741, 80.64950
277.6562, 77.57300
278.1383, 75.33555
278.6205, 73.08857
279.1026, 70.66972
279.5847, 68.54242
280.0668, 67.24700
280.5489, 66.61990
281.0310, 65.69482
281.5132, 63.99589
281.9953, 61.97047
282.4774, 60.27390
282.9595, 58.93819
283.4416, 57.72680
283.9237, 56.53087
284.4059, 55.35267
284.8880, 54.16422
285.3701, 52.88197
285.8522, 51.71474
286.3343, 50.97088
286.8164, 50.62539
287.2986, 50.12778
287.7807, 48.82731
288.2628, 47.09676
288.7449, 46.31099
289.2270, 47.12857
289.7091, 48.05640
290.1913, 47.73007
290.6734, 46.44784
291.1555, 45.23521
291.6376, 44.73219
292.1197, 44.62632
292.6018, 44.06849
293.0840, 42.76778
293.5661, 41.63595
294.0482, 41.46170
294.5303, 41.85524
295.0124, 42.13292
295.4945, 41.99849
295.9767, 41.61200
296.4588, 41.23325
296.9409, 40.85060
297.4230, 40.51597
297.9051, 40.30654
298.3872, 40.14304
298.8694, 39.90485
299.3515, 39.48529
299.8336, 39.10408
300.3157, 39.13540
300.7978, 39.66975
301.2799, 40.07206
301.7621, 40.09521
302.2442, 39.86486
302.7263, 39.40712
303.2084, 38.68670
303.6905, 37.97041
304.1726, 37.53582
304.6548, 37.39327
305.1369, 37.31919
305.6190, 37.33551
306.1011, 37.34208
306.5832, 37.14239
307.0653, 36.74558
307.5475, 36.59307
308.0296, 37.31757
308.5117, 38.80547
308.9938, 39.65426
309.4759, 39.35948
309.9580, 38.73230
310.4402, 38.30465
310.9223, 38.04113
311.4044, 37.76760
311.8865, 37.23539
312.3686, 36.57107
312.8507, 36.39004
313.3329, 37.00800
313.8150, 37.58141
314.2971, 37.52366
314.7792, 37.12117
315.2613, 36.91209
315.7434, 37.23281
316.2256, 37.83666
316.7077, 38.18430
317.1898, 38.20727
317.6719, 38.16741
318.1540, 38.12284
318.6361, 38.10120
319.1183, 38.14811
319.6004, 38.29411
320.0825, 38.46545
320.5646, 38.52872
321.0467, 38.44978
321.5288, 38.48117
322.0110, 38.76102
322.4931, 39.15562
322.9752, 39.54912
323.4573, 39.92039
323.9394, 40.37905
324.4215, 41.10113
324.9037, 42.07478
325.3858, 42.87271
325.8679, 43.04348
326.3500, 43.42778
326.8321, 44.65012
327.3142, 46.63973
327.7964, 48.86914
328.2785, 51.25132
328.7606, 53.65456
329.2427, 55.43900
329.7248, 56.43837
330.2069, 57.00386
330.6891, 57.09316
331.1712, 56.95765
331.6533, 57.14809
332.1354, 58.03450
332.6175, 59.33989
333.0996, 60.45700
333.5818, 61.27156
334.0639, 62.28862
334.5460, 63.89624
335.0281, 65.80082
335.5102, 67.64937
335.9923, 69.26495
336.4745, 71.02821
336.9566, 73.63197
337.4387, 77.14137
337.9208, 80.16975
338.4029, 81.68479
338.8850, 82.94078
339.3671, 85.08672
339.8492, 88.24126
340.3314, 91.99684
340.8135, 95.99709
341.2956, 100.3277
341.7777, 105.2582
342.2598, 110.6234
342.7419, 117.0038
343.2241, 124.7695
343.7062, 133.8375
344.1883, 143.8303
344.6704, 155.2061
345.1525, 167.2877
345.6346, 179.1877
346.1168, 191.5463
346.5989, 201.4643
347.0810, 206.9159
347.5631, 208.4159
348.0452, 205.6627
348.5273, 195.5044
349.0095, 183.8209
349.4916, 176.7979
349.9737, 174.4940
350.4558, 175.3701
350.9379, 179.9844
351.4200, 186.8622
351.9022, 193.4947
352.3843, 199.7669
352.8664, 205.7464
353.3485, 211.5476
353.8306, 217.0932
354.3127, 221.9687
354.7949, 225.8422
355.2770, 229.3948
355.7591, 233.3825
356.2412, 237.7524
356.7233, 242.7234
357.2054, 248.4526
357.6876, 254.8057
358.1697, 261.1622
358.6518, 267.2274
359.1339, 274.8806
359.6160, 286.2862
360.0981, 300.9651
360.5803, 315.7901
361.0624, 330.2274
361.5445, 344.7724
362.0266, 360.4282
362.5087, 376.9145
362.9908, 391.8457
363.4730, 403.8341
363.9551, 413.2542
364.4372, 421.8853
364.9193, 430.0129
365.4014, 436.9597
365.8835, 442.2826
366.3657, 446.2083
366.8478, 448.6621
367.3299, 449.2233
367.8120, 449.8997
368.2941, 454.4916
368.7762, 464.2003
369.2584, 472.1781
369.7405, 479.2851
370.2226, 483.1879
370.7047, 481.5663
371.1868, 474.1244
371.6689, 461.9852
372.1511, 445.8261
372.6332, 425.3331
373.1153, 402.3672
373.5974, 374.9212
374.0795, 347.0586
374.5616, 319.5453
375.0438, 293.0789
375.5259, 268.5746
376.0080, 246.6171
376.4901, 227.1905
376.9722, 210.5600
377.4543, 198.3797
377.9365, 186.8284
378.4186, 174.9502
378.9007, 163.7614
379.3828, 154.6938
379.8649, 148.0653
380.3470, 142.7433
380.8292, 137.1048
381.3113, 130.5541
381.7934, 125.5683
382.2755, 122.3428
382.7576, 120.2654
383.2397, 119.3560
383.7219, 119.3477
384.2040, 119.6989
384.6861, 120.0079
385.1682, 120.2793
385.6503, 120.5681
386.1324, 120.2598
386.6146, 120.6855
387.0967, 122.4230
387.5788, 124.9138
388.0609, 127.4402
388.5430, 129.6909
389.0251, 131.9326
389.5073, 134.7095
389.9894, 138.1005
390.4715, 141.9288
390.9536, 146.2466
391.4357, 150.8671
391.9178, 156.0577
392.4000, 161.6030
392.8821, 166.7097
393.3642, 170.7331
393.8463, 173.6823
394.3284, 175.3481
394.8105, 176.3274
395.2927, 175.0849
395.7748, 170.6491
396.2569, 163.8514
396.7390, 155.9613
397.2211, 147.5439
397.7032, 138.5326
398.1854, 128.5770
398.6675, 117.0468
399.1496, 106.3891
399.6317, 97.20332
400.1138, 89.14612
400.5959, 82.20784
401.0781, 76.37926
401.5602, 71.25703
402.0423, 66.53234
402.5244, 62.22475
403.0065, 58.46857
403.4886, 55.34600
403.9708, 52.75393
404.4529, 50.67260
404.9350, 49.00854
405.4171, 47.49884
405.8992, 46.06604
406.3813, 44.71568
406.8635, 43.43877
407.3456, 42.23021
407.8277, 41.12167
408.3098, 40.07550
408.7919, 39.16813
409.2740, 38.52848
409.7562, 38.23299
410.2383, 38.01633
410.7204, 37.77783
411.2025, 37.49339
411.6846, 37.07933
412.1667, 36.49527
412.6489, 35.82444
413.1310, 35.11490
413.6131, 34.36120
414.0952, 33.76063
414.5773, 33.42818
415.0594, 33.20815
415.5416, 32.99609
416.0237, 32.77556
416.5058, 32.50690
416.9879, 32.15766
417.4700, 31.74013
417.9521, 31.32264
418.4343, 30.72346
418.9164, 30.33623
419.3985, 30.34874
419.8806, 30.61428
420.3627, 30.97401
420.8448, 31.37448
421.3270, 31.71604
421.8091, 31.84265
422.2912, 31.67150
422.7733, 31.49954
423.2554, 31.50473
423.7375, 31.35898
424.2197, 30.65586
424.7018, 29.58882
425.1839, 28.77919
425.6660, 28.69937
426.1481, 29.23715
426.6302, 29.63089
427.1124, 29.77720
427.5945, 29.88932
428.0766, 30.07705
428.5587, 30.20194
429.0408, 30.04650
429.5229, 29.57164
430.0051, 29.05592
430.4872, 28.93731
430.9693, 29.34729
431.4514, 29.60490
431.9335, 29.38809
432.4156, 29.29254
432.8978, 29.78109
433.3799, 30.60153
433.8620, 31.09375
434.3441, 30.74745
434.8262, 29.87031
435.3083, 29.29304
435.7905, 28.97731
436.2726, 29.08090
436.7547, 30.04696
437.2368, 31.25765
437.7189, 32.24860
438.2010, 32.94537
438.6832, 33.27737
439.1653, 32.89009
439.6474, 31.97973
440.1295, 31.65703
440.6116, 32.25013
441.0938, 33.15683
441.5759, 34.02848
442.0580, 34.82036
442.5401, 35.33361
443.0222, 35.19636
443.5043, 34.97100
443.9865, 35.30424
444.4686, 36.13517
444.9507, 36.89972
445.4328, 37.31128
445.9149, 37.51885
446.3970, 37.86749
446.8792, 38.40347
447.3613, 38.91541
447.8434, 39.13297
448.3255, 39.39456
448.8076, 40.22785
449.2897, 41.69395
449.7719, 43.25296
450.2540, 44.38953
450.7361, 45.08163
451.2182, 45.86178
451.7003, 46.77247
452.1824, 47.70959
452.6646, 48.43598
453.1467, 49.20920
453.6288, 50.50619
454.1109, 52.54107
454.5930, 54.99121
455.0751, 57.23805
455.5573, 59.17907
456.0394, 61.10466
456.5215, 62.99326
457.0036, 64.88515
457.4857, 66.92724
457.9678, 69.01958
458.4500, 70.91468
458.9321, 72.46425
459.4142, 73.63770
459.8963, 74.33070
460.3784, 74.81792
460.8605, 74.25542
461.3427, 71.87345
461.8248, 68.77431
462.3069, 65.84820
462.7890, 63.32077
463.2711, 61.33535
463.7532, 60.19122
464.2354, 59.83170
464.7175, 59.52883
465.1996, 59.05700
465.6817, 58.88177
466.1638, 59.53587
466.6459, 60.72590
467.1281, 61.70773
467.6102, 61.94795
468.0923, 62.13221
468.5744, 63.10101
469.0565, 64.78665
469.5386, 66.43343
470.0208, 67.75330
470.5029, 68.87379
470.9850, 69.93211
471.4671, 70.85786
471.9492, 72.07626
472.4313, 74.06981
472.9135, 76.19659
473.3956, 77.79933
473.8777, 78.81603
474.3598, 79.47556
474.8419, 79.91408
475.3240, 80.14539
475.8062, 80.28802
476.2883, 80.61171
476.7704, 80.53574
477.2525, 79.66940
477.7346, 78.45897
478.2167, 77.47408
478.6989, 76.84840
479.1810, 76.26143
479.6631, 75.27242
480.1452, 73.79851
480.6273, 72.37366
481.1094, 70.83065
481.5916, 69.51839
482.0737, 68.58466
482.5558, 67.95994
483.0379, 67.51256
483.5200, 67.17765
484.0021, 66.98495
484.4843, 67.03117
484.9664, 67.37801
485.4485, 67.67473
485.9306, 67.69277
486.4127, 67.78609
486.8948, 68.31779
487.3770, 69.20001
487.8591, 69.90256
488.3412, 70.05420
488.8233, 69.84541
489.3054, 69.57633
489.7875, 69.23250
490.2697, 69.02251
490.7518, 69.12320
491.2339, 69.39345
491.7160, 69.59250
492.1981, 69.81686
492.6802, 69.68785
493.1624, 68.64526
493.6445, 67.29710
494.1266, 66.54366
494.6087, 66.53398
495.0908, 66.97237
495.5729, 67.68880
496.0551, 68.67407
496.5372, 69.37660
497.0193, 69.58897
497.5014, 69.80499
497.9835, 70.14577
498.4656, 70.59313
498.9478, 71.11913
499.4299, 71.71265
499.9120, 72.37099
500.3941, 73.11484
500.8762, 74.02858
501.3583, 74.70734
501.8405, 75.46345
502.3226, 75.66164
502.8047, 74.88401
503.2868, 73.40026
503.7689, 71.66440
504.2510, 69.85381
504.7331, 68.04685
505.2152, 66.40181
505.6974, 64.94278
506.1795, 63.47230
506.6616, 61.96061
507.1437, 60.42140
507.6258, 58.75781
508.1079, 57.02514
508.5901, 55.57862
509.0722, 54.54397
509.5543, 53.91508
510.0364, 53.77919
510.5185, 54.12809
511.0006, 54.55341
511.4828, 54.88160
511.9649, 55.15714
512.4470, 55.40458
512.9291, 55.47688
513.4113, 55.98280
513.8934, 57.27988
514.3755, 58.96204
514.8576, 60.58287
515.3397, 62.12792
515.8218, 63.84161
516.3040, 65.91199
516.7861, 68.32188
517.2682, 70.91200
517.7503, 73.87736
518.2324, 76.77660
518.7145, 79.76630
519.1967, 82.57890
519.6788, 84.78521
520.1609, 86.42994
520.6430, 88.16095
521.1251, 90.65328
521.6072, 93.90105
522.0894, 97.17177
522.5715, 100.5697
523.0536, 103.8317
523.5357, 106.6862
524.0178, 109.4587
524.4999, 112.4801
524.9821, 115.8292
525.4642, 119.5415
525.9463, 123.6041
526.4284, 128.0391
526.9105, 133.2214
527.3926, 139.3876
527.8748, 145.6459
528.3569, 151.1476
528.8390, 156.1720
529.3211, 161.7686
529.8032, 168.2263
530.2853, 175.0396
530.7675, 182.2635
531.2496, 189.5698
531.7317, 196.3401
532.2138, 202.4236
532.6959, 207.9781
533.1780, 213.4395
533.6602, 219.3083
534.1423, 221.7667
534.6244, 220.2851
535.1065, 216.5955
535.5886, 210.9027
536.0707, 203.5710
536.5529, 194.8138
537.0350, 184.8044
537.5171, 174.0141
537.9992, 163.3084
538.4813, 152.7521
538.9634, 141.9806
539.4456, 130.0004
539.9277, 118.9947
540.4098, 110.3074
540.8919, 103.3158
541.3740, 96.71053
541.8561, 89.88582
542.3383, 83.46014
542.8204, 78.34181
543.3025, 74.43831
543.7846, 70.87654
544.2667, 67.46227
544.7488, 64.29552
545.2310, 61.52604
545.7131, 59.12054
546.1952, 56.87559
546.6773, 54.67162
547.1594, 52.71862
547.6415, 51.19102
548.1237, 50.02362
548.6058, 49.02485
549.0879, 48.12412
549.5700, 47.36196
550.0521, 46.82439
550.5342, 46.60646
551.0164, 46.33483
551.4985, 45.79396
551.9806, 45.42717
552.4627, 45.31312
552.9448, 45.53620
553.4269, 46.13866
553.9091, 47.12197
554.3912, 48.68623
554.8733, 51.18966
555.3554, 54.68148
555.8375, 58.85023
556.3196, 63.67033
556.8018, 69.21596
557.2839, 75.95076
557.7660, 83.42470
558.2481, 90.33209
558.7302, 96.22960
559.2123, 101.3156
559.6945, 105.7700
560.1766, 109.5670
560.6587, 112.3294
561.1408, 113.7082
561.6229, 114.7985
562.1050, 116.8390
562.5872, 119.8996
563.0693, 123.9688
563.5514, 129.2545
564.0335, 135.3309
564.5156, 142.3083
564.9977, 149.8218
565.4799, 157.0466
565.9620, 163.6654
566.4441, 170.7447
566.9262, 180.0743
567.4083, 192.0993
567.8904, 204.5630
568.3726, 216.9330
568.8547, 230.3698
569.3368, 243.7430
569.8189, 258.8715
570.3010, 278.8863
570.7831, 305.5506
571.2653, 335.1736
571.7474, 364.4764
572.2295, 393.2719
572.7116, 422.2358
573.1937, 453.7742
573.6758, 479.5490
574.1580, 494.5836
574.6401, 498.0251
575.1222, 486.1698
575.6043, 453.4432
576.0864, 411.3107
576.5685, 359.6818
577.0507, 304.2236
577.5328, 253.0487
578.0149, 208.4753
578.4970, 171.4328
578.9791, 143.4329
579.4612, 124.7384
579.9434, 108.4792
580.4255, 94.73447
580.9076, 83.48691
581.3897, 75.47292
581.8718, 69.48469
582.3539, 64.46126
582.8361, 60.05526
583.3182, 56.23093
583.8003, 53.02098
584.2824, 50.37192
584.7645, 47.88590
585.2466, 45.43151
585.7288, 43.49834
586.2108, 42.75005
586.6929, 42.47743
587.1750, 41.63479
587.6572, 40.01548
588.1393, 38.41662
588.6214, 37.08016
589.1035, 36.03173
589.5856, 35.48223
590.0677, 35.36911
590.5499, 35.11460
591.0320, 34.32830
591.5141, 33.13871
591.9962, 32.02728
592.4783, 30.84715
592.9604, 29.98323
593.4426, 29.53563
593.9247, 29.31957
594.4068, 29.32026
594.8889, 29.44614
595.3710, 29.50132
595.8531, 29.35769
596.3353, 29.06811
596.8174, 28.67762
597.2995, 28.11831
597.7816, 27.90058
598.2637, 28.49193
598.7458, 29.07553
599.2280, 28.88844
599.7101, 28.05611
600.1922, 27.26252
600.6743, 26.69122
601.1564, 26.27000
601.6385, 25.97331
602.1207, 25.77763
602.6028, 25.62798
603.0849, 25.51073
603.5670, 25.38122
604.0491, 25.15791
604.5313, 24.78977
605.0134, 24.65464
605.4955, 24.99166
605.9776, 25.25422
606.4597, 25.18958
606.9418, 24.98570
607.4240, 24.93998
607.9061, 25.11957
608.3882, 25.25722
608.8703, 24.96476
609.3524, 24.28905
609.8345, 23.86997
610.3167, 23.78879
610.7988, 23.78256
611.2809, 23.76604
611.7630, 23.72994
612.2451, 23.65729
612.7272, 23.54121
613.2094, 23.41498
613.6915, 23.24143
614.1736, 23.09483
614.6557, 23.12369
615.1378, 23.30247
615.6199, 23.39650
616.1021, 23.24611
616.5842, 22.95925
617.0663, 22.85188
617.5484, 23.12241
618.0305, 23.23419
618.5126, 23.10479
618.9948, 22.90874
619.4769, 22.71745
619.9590, 22.54227
620.4411, 22.38875
620.9232, 22.26379
621.4053, 22.14159
621.8875, 21.96323
622.3696, 21.73084
622.8517, 21.55159
623.3338, 21.43879
623.8159, 21.39364
624.2980, 21.47234
624.7802, 21.62592
625.2623, 21.68970
625.7444, 21.61880
626.2265, 21.48929
626.7086, 21.24928
627.1907, 21.00828
627.6729, 20.94288
628.1550, 21.07386
628.6371, 21.27068
629.1192, 21.42004
629.6013, 21.53132
630.0834, 21.68975
630.5656, 22.04685
631.0477, 22.19079
631.5298, 21.93964
632.0119, 21.57743
632.4940, 21.30440
632.9761, 21.12630
633.4583, 20.93442
633.9404, 20.58342
634.4225, 20.24966
634.9046, 20.29012
635.3867, 20.67157
635.8688, 20.95376
636.3510, 20.98787
636.8331, 20.90211
637.3152, 20.84023
637.7973, 20.80536
638.2794, 20.75439
638.7615, 20.71549
639.2437, 20.62847
639.7258, 20.39855
640.2079, 20.13333
640.6900, 19.99994
641.1721, 20.03075
641.6542, 20.10092
642.1364, 20.05338
642.6185, 19.90841
643.1006, 19.96607
643.5827, 20.35808
644.0648, 20.66018
644.5469, 20.64263
645.0291, 20.51659
645.5112, 20.46840
645.9933, 20.51100
646.4754, 20.53675
646.9575, 20.46132
647.4396, 20.37125
647.9218, 20.35785
648.4039, 20.41495
648.8860, 20.52063
649.3681, 20.67492
649.8502, 20.80548
650.3323, 20.78986
650.8145, 20.57716
651.2966, 20.45247
651.7787, 20.50866
652.2608, 20.54209
652.7429, 20.44415
653.2250, 20.31029
653.7072, 20.31418
654.1893, 20.48550
654.6714, 20.57434
655.1535, 20.23973
655.6356, 19.63553
656.1177, 19.26347
656.5999, 19.14209
657.0820, 19.26761
657.5641, 19.82772
658.0462, 20.45999
658.5283, 20.35376
659.0104, 19.31709
659.4926, 18.67307
659.9747, 18.86783
660.4568, 19.25972
660.9389, 19.53089
661.4210, 19.67136
661.9031, 19.70981
662.3853, 19.66150
662.8674, 19.57968
663.3495, 19.53794
663.8316, 19.53875
664.3137, 19.54054
664.7958, 19.55014
665.2780, 19.54798
665.7601, 19.56433
666.2422, 19.54511
666.7243, 19.42401
667.2064, 19.19138
667.6885, 18.87971
668.1707, 18.25787
668.6528, 17.72783
669.1349, 17.91218
669.6170, 18.66388
670.0991, 19.25211
670.5812, 19.32786
671.0634, 19.14382
671.5455, 19.14047
672.0276, 19.38327
672.5097, 19.55820
672.9918, 19.63956
673.4739, 19.67785
673.9561, 19.68858
674.4382, 19.66275
674.9203, 19.57177
675.4024, 19.40935
675.8845, 19.25064
676.3666, 19.10298
676.8488, 19.01767
677.3309, 19.22742
677.8130, 19.72907
678.2951, 19.88915
678.7772, 19.26815
679.2593, 18.40673
679.7415, 18.34833
680.2236, 19.52765
680.7057, 20.17041
681.1878, 19.91346
681.6699, 19.52571
682.1520, 19.29525
682.6342, 19.18157
683.1163, 19.11870
683.5984, 19.07598
684.0805, 18.97973
684.5626, 18.65268
685.0447, 18.17827
685.5269, 18.06447
686.0090, 18.39006
686.4911, 18.66088
686.9732, 18.59978
687.4553, 18.42617
687.9374, 18.57465
688.4196, 19.11411
688.9017, 19.32986
689.3838, 18.78267
689.8659, 18.21208
690.3480, 18.05437
690.8301, 18.18587
691.3123, 18.39716
691.7944, 18.60593
692.2765, 18.76036
692.7586, 18.79064
693.2407, 18.70502
693.7228, 18.61609
694.2050, 18.51246
694.6871, 18.43571
695.1692, 18.43231
695.6513, 18.43826
696.1334, 18.39061
696.6155, 18.28813
697.0977, 18.14815
697.5798, 17.88339
698.0619, 17.66923
698.5440, 17.69493
699.0261, 17.85535
699.5082, 17.91035
699.9904, 17.79960
700.4725, 17.69546
700.9546, 17.80616
701.4367, 18.10871
701.9188, 18.23397
702.4009, 18.04659
702.8831, 17.95134
703.3652, 18.14996
703.8473, 18.40242
704.3294, 18.58655
704.8115, 18.67742
705.2936, 18.59865
705.7758, 18.17732
706.2579, 17.71452
706.7400, 17.34858
707.2221, 17.14648
707.7042, 17.38516
708.1863, 18.09429
708.6685, 18.70728
709.1506, 18.67150
709.6327, 18.09260
710.1148, 17.76368
710.5969, 17.78374
711.0790, 17.87993
711.5612, 18.24645
712.0433, 18.47492
712.5254, 18.07087
713.0075, 17.28975
713.4896, 16.97019
713.9717, 17.67048
714.4539, 18.49090
714.9360, 18.54004
715.4181, 18.12334
715.9002, 17.96092
716.3823, 18.15705
716.8644, 18.34836
717.3466, 18.25974
717.8287, 17.97771
718.3108, 17.81480
718.7929, 17.76189
719.2750, 17.85266
719.7571, 18.29487
720.2393, 18.66467
720.7214, 18.70263
721.2035, 18.52422
721.6856, 18.36413
722.1677, 18.30106
722.6498, 18.25542
723.1320, 18.11682
723.6141, 17.96154
724.0962, 17.91845
724.5783, 18.00479
725.0604, 18.33657
725.5425, 19.05655
726.0247, 19.81207
726.5068, 19.81183
726.9889, 18.58283
727.4710, 18.04577
727.9531, 18.73257
728.4352, 19.49035
728.9174, 20.01362
729.3995, 20.35585
729.8816, 20.58379
730.3637, 20.71591
730.8458, 20.79227
731.3279, 20.80289
731.8101, 20.79542
732.2922, 20.82923
732.7743, 20.91161
733.2564, 21.07750
733.7385, 21.34242
734.2206, 21.68001
734.7028, 22.07050
735.1849, 22.52193
735.6670, 22.90314
736.1491, 23.06811
736.6312, 23.35248
737.1133, 24.02696
737.5955, 24.68730
738.0776, 24.88631
738.5597, 24.68695
739.0418, 24.60085
739.5239, 24.95944
740.0060, 25.47298
740.4882, 25.80824
740.9703, 26.02240
741.4524, 26.29968
741.9345, 26.67755
742.4166, 27.04873
742.8987, 27.32920
743.3809, 27.52244
743.8630, 27.65611
744.3451, 27.84644
744.8272, 27.75659
745.3093, 26.81893
745.7914, 26.15150
746.2736, 26.62076
746.7557, 27.75466
747.2378, 28.58542
747.7199, 28.81672
748.2020, 28.66061
748.6841, 28.01199
749.1663, 27.19852
749.6484, 26.90879
750.1305, 27.09547
750.6126, 27.02872
751.0947, 26.30307
751.5768, 25.33504
752.0590, 24.88559
752.5411, 25.07245
753.0232, 25.22372
753.5053, 25.31925
753.9874, 25.40522
754.4695, 25.52998
754.9517, 25.63263
755.4338, 25.66338
755.9159, 25.61318
756.3980, 25.45135
756.8801, 24.98468
757.3622, 24.54965
757.8444, 24.56466
758.3265, 24.85610
758.8086, 25.03524
759.2907, 24.99165
759.7728, 24.73912
760.2549, 24.23430
760.7371, 23.56874
761.2192, 23.41214
761.7013, 24.14352
762.1834, 24.34112
762.6655, 23.21325
763.1476, 22.05565
763.6298, 21.87376
764.1119, 22.34114
764.5940, 22.51191
765.0761, 22.03730
765.5582, 21.56811
766.0403, 21.43741
766.5225, 21.46461
767.0046, 21.50368
767.4867, 21.51013
767.9688, 21.39870
768.4509, 21.12096
768.9330, 20.82096
769.4152, 20.81393
769.8973, 21.12246
770.3794, 21.05585
770.8615, 20.43119
771.3436, 19.89889
771.8257, 19.80319
772.3079, 19.91324
772.7900, 19.88134
773.2721, 19.69364
773.7542, 19.55638
774.2363, 19.49912
774.7184, 19.50226
775.2006, 19.66182
775.6827, 19.82297
776.1648, 19.70018
776.6469, 19.31045
777.1290, 19.03089
777.6111, 19.19576
778.0933, 19.60752
778.5754, 19.85065
779.0575, 19.92720
779.5396, 19.83604
780.0217, 19.52028
780.5038, 19.24608
780.9860, 19.24424
781.4681, 19.44658
781.9502, 19.55462
782.4323, 19.49421
782.9144, 19.46430
783.3965, 19.46056
783.8787, 19.50162
784.3608, 19.57619
784.8429, 19.71011
785.3250, 19.95375
785.8071, 20.32335
786.2892, 20.75373
786.7714, 21.40452
787.2535, 21.98532
787.7356, 21.81643
788.2177, 20.98667
788.6998, 20.19695
789.1819, 19.68823
789.6641, 19.43952
790.1462, 19.45867
790.6283, 19.74425
791.1104, 19.95788
791.5925, 20.08939
792.0746, 20.16284
792.5568, 20.20918
793.0389, 20.17841
793.5210, 19.95746
794.0031, 19.62206
794.4852, 19.43146
794.9673, 19.53333
795.4495, 19.65307
795.9316, 19.53984
796.4137, 19.39157
796.8958, 19.51507
797.3779, 19.87243
797.8600, 20.20796
798.3422, 20.39170
798.8243, 20.44093
799.3064, 20.34754
799.7885, 20.10389
800.2706, 19.93292
800.7527, 19.84056
801.2349, 19.81226
801.7170, 19.88584
802.1991, 19.98202
802.6812, 19.98293
803.1633, 19.88928
803.6454, 19.80703
804.1276, 19.71244
804.6097, 19.67199
805.0918, 19.79418
805.5739, 19.92696
806.0560, 19.87931
806.5381, 19.67617
807.0203, 19.50336
807.5024, 19.47270
807.9845, 19.51077
808.4666, 19.50653
808.9487, 19.48254
809.4308, 19.56250
809.9130, 19.76339
810.3951, 19.87516
810.8772, 19.75720
811.3593, 19.52451
811.8414, 19.40664
812.3235, 19.41933
812.8057, 19.48992
813.2878, 19.85670
813.7699, 19.97723
814.2520, 19.46153
814.7341, 18.79633
815.2162, 18.46191
815.6984, 18.48968
816.1805, 18.63853
816.6626, 18.92460
817.1447, 19.17931
817.6268, 19.28183
818.1089, 19.26888
818.5911, 19.12076
819.0732, 18.89150
819.5553, 18.82344
820.0374, 19.08990
820.5195, 19.53157
821.0016, 19.82629
821.4838, 19.97064
821.9659, 20.10276
822.4480, 20.25500
822.9301, 20.32101
823.4122, 20.25398
823.8943, 20.06110
824.3765, 19.67650
824.8586, 18.98540
825.3407, 18.71511
825.8228, 19.21229
826.3049, 19.74353
826.7870, 20.14335
827.2692, 20.39866
827.7513, 20.46330
828.2334, 20.37032
828.7155, 20.25951
829.1976, 20.20832
829.6797, 20.16643
830.1619, 20.00322
830.6440, 19.82193
831.1261, 19.92988
831.6082, 20.32943
832.0903, 20.70365
832.5724, 20.87684
833.0546, 20.88621
833.5367, 20.78300
834.0188, 20.54281
834.5009, 20.35966
834.9830, 20.24776
835.4651, 20.16264
835.9473, 20.05552
836.4294, 19.99562
836.9115, 20.04009
837.3936, 20.19072
837.8757, 20.46659
838.3578, 21.11816
838.8400, 21.58681
839.3221, 21.60706
839.8042, 21.38886
840.2863, 21.05947
840.7684, 20.69296
841.2505, 20.37725
841.7327, 20.14083
842.2148, 20.06422
842.6969, 20.33419
843.1790, 20.82503
843.6611, 21.17755
844.1432, 21.37822
844.6254, 21.59011
845.1075, 21.89492
845.5896, 22.15859
846.0717, 22.20500
846.5538, 22.03402
847.0359, 21.70523
847.5181, 20.86893
848.0002, 20.57594
848.4823, 21.59914
848.9644, 22.70094
849.4465, 22.99588
849.9286, 22.68484
850.4108, 22.39751
850.8929, 22.22515
851.3750, 22.10476
851.8571, 21.97907
852.3392, 21.92681
852.8214, 22.06757
853.3035, 22.31840
853.7856, 22.55886
854.2677, 22.73398
854.7498, 22.72544
855.2319, 22.19392
855.7141, 21.51511
856.1962, 21.65576
856.6783, 22.50422
857.1604, 23.33587
857.6425, 23.98458
858.1246, 24.37048
858.6068, 24.39622
859.0889, 24.13910
859.5710, 23.87015
860.0531, 23.53008
860.5352, 23.34214
861.0173, 23.45977
861.4995, 23.53831
861.9816, 23.29266
862.4637, 22.98744
862.9458, 23.00538
863.4279, 23.39218
863.9100, 23.75073
864.3922, 24.00853
864.8743, 24.18489
865.3564, 24.34484
865.8385, 24.39467
866.3206, 24.04436
866.8027, 23.43422
867.2849, 23.20670
867.7670, 23.80517
868.2491, 24.63414
868.7312, 24.88516
869.2133, 24.74994
869.6954, 24.79351
870.1776, 25.04593
870.6597, 25.22630
871.1418, 25.19373
871.6239, 25.15724
872.1060, 25.44109
872.5881, 26.04125
873.0703, 26.43343
873.5524, 26.60440
874.0345, 26.58036
874.5166, 26.10812
874.9987, 25.73553
875.4808, 26.01600
875.9630, 26.74736
876.4451, 27.36187
876.9272, 27.89950
877.4093, 28.16262
877.8914, 27.86689
878.3735, 27.53866
878.8557, 27.42500
879.3378, 27.52716
879.8199, 27.84396
880.3020, 28.35632
880.7841, 28.92191
881.2662, 29.46992
881.7484, 29.99935
882.2305, 30.53861
882.7126, 31.05342
883.1947, 31.46356
883.6768, 31.75654
884.1589, 31.90820
884.6411, 31.87168
885.1232, 31.88097
885.6053, 32.52046
886.0874, 33.81661
886.5695, 34.63091
887.0516, 34.79086
887.5338, 35.08524
888.0159, 35.88640
888.4980, 36.82400
888.9801, 37.41698
889.4622, 37.66810
889.9443, 38.16765
890.4265, 39.04667
890.9086, 39.98179
891.3907, 40.94684
891.8728, 41.95930
892.3549, 43.11244
892.8370, 44.29893
893.3192, 45.29723
893.8013, 46.04414
894.2834, 46.76923
894.7655, 47.38498
895.2476, 48.21568
895.7297, 49.67270
896.2119, 51.48097
896.6940, 53.24202
897.1761, 54.83964
897.6582, 56.19382
898.1403, 57.17831
898.6224, 58.12835
899.1046, 59.70237
899.5867, 61.74970
900.0688, 63.51204
900.5509, 64.94279
901.0330, 66.83377
901.5151, 69.62749
901.9973, 72.71993
902.4794, 75.16887
902.9615, 76.97313
903.4436, 79.16057
903.9257, 81.77891
904.4078, 84.70724
904.8900, 88.17040
905.3721, 91.62365
905.8542, 94.52454
906.3363, 97.09093
906.8184, 99.90350
907.3005, 102.8562
907.7827, 106.3131
908.2648, 110.3809
908.7469, 114.8932
909.2290, 120.3910
909.7111, 125.9226
910.1932, 130.2982
910.6754, 133.4457
911.1575, 136.3046
911.6396, 139.1313
912.1217, 142.1333
912.6038, 145.7804
913.0859, 149.5302
913.5681, 152.6826
914.0502, 155.1966
914.5323, 157.1405
915.0144, 158.5619
915.4965, 160.0839
915.9786, 162.3423
916.4607, 165.3475
916.9428, 168.9825
917.4249, 173.2949
917.9070, 179.0683
918.3892, 186.5776
918.8713, 194.5775
919.3534, 201.9282
919.8355, 209.2260
920.3176, 218.2009
920.7997, 229.2074
921.2819, 240.9572
921.7640, 253.9721
922.2461, 266.6382
922.7282, 277.7756
923.2103, 288.6487
923.6924, 300.7526
924.1746, 314.0337
924.6567, 327.5685
925.1388, 343.1789
925.6209, 356.3947
926.1030, 364.7616
926.5851, 372.0256
927.0673, 380.8347
927.5494, 390.2899
928.0315, 397.9418
928.5136, 403.0629
928.9957, 409.7436
929.4778, 421.7984
929.9600, 434.5700
930.4421, 443.9305
930.9242, 451.7650
931.4063, 461.1851
931.8884, 472.4389
932.3705, 484.2399
932.8527, 496.1740
933.3348, 506.6093
933.8169, 514.2573
934.2990, 518.5950
934.7811, 517.7648
935.2632, 511.9625
935.7454, 502.8091
936.2275, 490.8308
936.7096, 476.5929
937.1917, 460.6296
937.6738, 442.9140
938.1559, 422.6019
938.6381, 399.3362
939.1202, 377.1014
939.6023, 356.0660
940.0844, 337.1121
940.5665, 320.7694
941.0486, 306.6625
941.5308, 294.2975
942.0129, 283.6163
942.4950, 274.8629
942.9771, 268.2731
943.4592, 263.2368
943.9413, 259.8497
944.4235, 257.7451
944.9056, 256.9302
945.3877, 257.1646
945.8698, 258.2169
946.3519, 260.4547
946.8340, 261.6833
947.3162, 261.6002
947.7983, 260.0822
948.2804, 257.8045
948.7625, 253.5638
949.2446, 245.4884
949.7267, 234.0191
950.2089, 221.4283
950.6910, 208.5186
951.1731, 195.3042
951.6552, 181.2191
952.1373, 167.2465
952.6194, 154.5680
953.1016, 143.1106
953.5837, 132.1904
954.0658, 121.7271
954.5479, 112.4956
955.0300, 105.3019
955.5121, 99.27473
955.9943, 92.57528
956.4764, 85.60204
956.9585, 80.01231
957.4406, 75.91344
957.9227, 72.64288
958.4048, 69.91185
958.8870, 67.40437
959.3691, 64.67860
959.8512, 61.79214
960.3333, 59.26310
960.8154, 57.16935
961.2975, 54.85829
961.7797, 52.08998
962.2618, 49.56031
962.7439, 47.79750
963.2260, 46.51039
963.7081, 45.03324
964.1902, 43.20170
964.6724, 42.08162
965.1545, 42.44736
965.6366, 42.23211
966.1187, 40.43711
966.6008, 38.40088
967.0829, 37.15174
967.5651, 36.48026
968.0472, 35.75114
968.5293, 34.90114
969.0114, 34.06132
969.4935, 33.36239
969.9756, 32.53864
970.4578, 31.23088
970.9399, 29.90108
971.4220, 29.06813
971.9041, 28.70781
972.3862, 28.44873
972.8683, 28.23504
973.3505, 27.94782
973.8326, 27.47683
974.3147, 26.94833
974.7968, 26.37019
975.2789, 25.86140
975.7610, 25.70277
976.2432, 25.88447
976.7253, 25.94861
977.2074, 25.57924
977.6895, 24.99825
978.1716, 24.32431
978.6537, 23.66895
979.1359, 23.23053
979.6180, 22.99045
980.1001, 22.81600
980.5822, 22.65505
981.0643, 22.54742
981.5464, 22.62057
982.0286, 22.68127
982.5107, 22.07188
982.9928, 21.00621
983.4749, 20.61042
983.9570, 21.00444
984.4391, 21.44819
984.9213, 21.56458
985.4034, 21.43129
985.8855, 21.12989
986.3676, 20.67929
986.8497, 20.21427
987.3318, 19.71610
987.8140, 19.42140
988.2961, 19.37431
988.7782, 19.58251
989.2603, 20.15189
989.7424, 20.79737
990.2245, 20.87514
990.7067, 20.26822
991.1888, 20.09245
991.6709, 20.61999
992.1530, 20.88980
992.6351, 20.48626
993.1172, 20.05164
993.5994, 20.11171
994.0815, 20.51275
994.5636, 20.78790
995.0457, 20.90637
995.5278, 20.98455
996.0099, 20.97580
996.4921, 20.98816
996.9742, 20.99304
997.4563, 21.07621
997.9384, 21.34758
998.4205, 21.76019
998.9026, 22.11981
999.3848, 22.27353
999.8669, 22.70606
1000.349, 23.92954
1000.831, 24.96275
1001.313, 25.13293
1001.795, 25.00913
1002.277, 25.29045
1002.760, 25.91836
1003.242, 26.26934
1003.724, 25.89543
1004.206, 25.86172
1004.688, 27.00701
1005.170, 28.33309
1005.652, 29.14814
1006.134, 29.59375
1006.617, 30.00910
1007.099, 30.39489
1007.581, 30.38694
1008.063, 29.63343
1008.545, 28.86489
1009.027, 28.85301
1009.509, 29.00262
1009.991, 28.46465
1010.473, 27.54819
1010.956, 27.04708
1011.438, 27.11350
1011.920, 27.30109
1012.402, 27.32345
1012.884, 27.28349
1013.366, 27.38620
1013.848, 27.47984
1014.330, 27.05185
1014.813, 26.33625
1015.295, 26.35575
1015.777, 27.34798
1016.259, 28.28756
1016.741, 28.24426
1017.223, 27.72033
1017.705, 27.67611
1018.187, 27.94271
1018.669, 27.92065
1019.152, 27.58651
1019.634, 27.20661
1020.116, 26.87949
1020.598, 26.47443
1021.080, 25.82973
1021.562, 25.06628
1022.044, 24.52714
1022.526, 24.20085
1023.008, 24.04601
1023.491, 24.05902
1023.973, 23.87733
1024.455, 23.33015
1024.937, 22.72520
1025.419, 22.45065
1025.901, 22.38545
1026.383, 21.88148
1026.865, 20.88651
1027.348, 20.31594
1027.830, 20.33919
1028.312, 20.24807
1028.794, 19.66031
1029.276, 19.04486
1029.758, 19.06093
1030.240, 19.57539
1030.722, 19.46787
1031.204, 18.54134
1031.687, 17.89602
1032.169, 17.70280
1032.651, 17.59508
1033.133, 17.40418
1033.615, 17.21523
1034.097, 17.13954
1034.579, 17.17241
1035.061, 17.26392
1035.544, 17.51574
1036.026, 17.54252
1036.508, 17.17076
1036.990, 16.85138
1037.472, 16.95035
1037.954, 17.03536
1038.436, 16.35804
1038.918, 14.97195
1039.401, 14.49897
1039.883, 15.67654
1040.365, 16.39022
1040.847, 16.20985
1041.329, 15.95453
1041.811, 15.99585
1042.293, 16.14806
1042.775, 16.16243
1043.257, 16.04382
1043.740, 15.98633
1044.222, 15.98997
1044.704, 16.05476
1045.186, 16.33546
1045.668, 16.49790
1046.150, 16.24565
1046.632, 15.89244
1047.114, 15.91114
1047.596, 16.26455
1048.079, 16.28690
1048.561, 15.41818
1049.043, 14.98280
1049.525, 15.40876
1050.007, 15.98563
1050.489, 16.44262
1050.971, 16.81918
1051.453, 17.18981
1051.936, 17.54929
1052.418, 17.81114
1052.900, 17.88622
1053.382, 17.99467
1053.864, 18.26800
1054.346, 18.48475
1054.828, 18.58128
1055.310, 18.52403
1055.792, 18.11412
1056.275, 17.46637
1056.757, 17.27160
1057.239, 17.98717
1057.721, 18.52683
1058.203, 18.54673
1058.685, 18.37101
1059.167, 18.14721
1059.649, 17.84559
1060.131, 17.33710
1060.614, 16.69098
1061.096, 16.22431
1061.578, 16.06477
1062.060, 15.97780
1062.542, 15.99069
1063.024, 15.93364
1063.506, 15.62491
1063.988, 15.25365
1064.471, 15.06298
1064.953, 15.01935
1065.435, 14.90279
1065.917, 14.62739
1066.399, 14.36779
1066.881, 14.25788
1067.363, 14.10807
1067.845, 13.70181
1068.328, 13.27602
1068.810, 13.17253
1069.292, 13.28725
1069.774, 13.18643
1070.256, 12.69638
1070.738, 12.30958
1071.220, 12.17012
1071.702, 12.27759
1072.184, 12.93151
1072.667, 13.59816
1073.149, 13.63668
1073.631, 13.21765
1074.113, 12.90958
1074.595, 12.86858
1075.077, 12.85700
1075.559, 12.69729
1076.041, 12.62647
1076.523, 12.89977
1077.006, 13.22211
1077.488, 13.22599
1077.970, 13.06520
1078.452, 13.17772
1078.934, 13.66575
1079.416, 14.03206
1079.898, 13.96384
1080.380, 13.83773
1080.862, 13.86139
1081.345, 13.90438
1081.827, 13.87039
1082.309, 13.75607
1082.791, 13.43009
1083.273, 12.92545
1083.755, 12.93892
1084.237, 14.27348
1084.719, 15.46986
1085.202, 15.75444
1085.684, 15.70030
1086.166, 15.66740
1086.648, 15.66489
1087.130, 15.56928
1087.612, 15.41514
1088.094, 15.54868
1088.576, 16.24323
1089.058, 16.95356
1089.541, 17.47371
1090.023, 17.89905
1090.505, 18.32557
1090.987, 18.68069
1091.469, 18.81743
1091.951, 18.77626
1092.433, 18.79230
1092.915, 18.94312
1093.397, 19.13881
1093.880, 19.46344
1094.362, 19.68463
1094.844, 19.44519
1095.326, 19.19283
1095.808, 19.52397
1096.290, 20.27769
1096.772, 20.81226
1097.254, 20.92421
1097.737, 21.06315
1098.219, 21.52513
1098.701, 21.86136
1099.183, 21.81675
1099.665, 21.60335
1100.147, 21.30985
1100.629, 21.03374
1101.111, 20.97448
1101.594, 21.18612
1102.076, 21.31133
1102.558, 21.40012
1103.040, 21.19152
1103.522, 20.29683
1104.004, 19.38188
1104.486, 18.88913
1104.968, 18.70443
1105.450, 18.68620
1105.932, 18.80368
1106.415, 18.74802
1106.897, 18.19151
1107.379, 17.86048
1107.861, 18.12039
1108.343, 18.37879
1108.825, 18.33602
1109.307, 18.11862
1109.789, 17.85358
1110.272, 17.56216
1110.754, 17.30848
1111.236, 17.10709
1111.718, 16.92853
1112.200, 16.87442
1112.682, 16.70916
1113.164, 16.14756
1113.646, 15.61115
1114.129, 15.58982
1114.611, 15.90217
1115.093, 15.91133
1115.575, 15.47056
1116.057, 15.15733
1116.539, 15.00651
1117.021, 14.93481
1117.503, 15.07339
1117.985, 15.10978
1118.468, 14.76815
1118.950, 14.22803
1119.432, 13.79191
1119.914, 13.44572
1120.396, 13.39364
1120.878, 13.83132
1121.360, 14.14390
1121.842, 14.25115
1122.324, 14.23793
1122.807, 14.11886
1123.289, 13.92662
1123.771, 13.65328
1124.253, 13.33799
1124.735, 13.34649
1125.217, 13.85122
1125.699, 14.05029
1126.181, 13.80979
1126.664, 13.55187
1127.146, 13.38148
1127.628, 13.37658
1128.110, 13.70217
1128.592, 14.12409
1129.074, 13.86218
1129.556, 12.81376
1130.038, 12.20890
1130.521, 12.09189
1131.003, 12.14900
1131.485, 12.33811
1131.967, 12.49405
1132.449, 12.50133
1132.931, 12.46049
1133.413, 12.57818
1133.895, 12.79445
1134.377, 12.60485
1134.859, 12.02870
1135.342, 11.73480
1135.824, 11.80760
1136.306, 11.91482
1136.788, 11.91494
1137.270, 11.79241
1137.752, 11.49291
1138.234, 11.13934
1138.716, 11.07553
1139.199, 11.22604
1139.681, 11.27982
1140.163, 11.22273
1140.645, 11.08158
1141.127, 10.87867
1141.609, 10.73347
1142.091, 10.73647
1142.573, 10.77870
1143.056, 10.62677
1143.538, 10.45006
1144.020, 10.69680
1144.502, 11.18079
1144.984, 11.40138
1145.466, 11.33138
1145.948, 11.26726
1146.430, 11.33157
1146.912, 11.26185
1147.395, 10.64337
1147.877, 9.983702
1148.359, 9.909071
1148.841, 10.11896
1149.323, 10.31603
1149.805, 10.39216
1150.287, 10.10969
1150.769, 9.501857
1151.251, 9.110009
1151.734, 9.251553
1152.216, 9.592657
1152.698, 10.13852
1153.180, 10.55963
1153.662, 10.45513
1154.144, 10.13972
1154.626, 10.01337
1155.108, 10.07781
1155.591, 10.17072
1156.073, 10.26659
1156.555, 10.27513
1157.037, 10.15399
1157.519, 9.953993
1158.001, 9.560985
1158.483, 9.229013
1158.965, 9.167901
1159.448, 9.290623
1159.930, 9.469542
1160.412, 9.690321
1160.894, 9.833054
1161.376, 9.889089
1161.858, 9.858765
1162.340, 9.648639
1162.822, 9.470377
1163.304, 9.387672
1163.786, 9.387333
1164.269, 9.531387
1164.751, 9.730145
1165.233, 9.642763
1165.715, 9.144335
1166.197, 8.923738
1166.679, 9.064963
1167.161, 9.257022
1167.643, 9.463723
1168.126, 9.659575
1168.608, 9.867748
1169.090, 9.958094
1169.572, 9.679761
1170.054, 9.118265
1170.536, 8.983227
1171.018, 9.299131
1171.500, 9.449634
1171.983, 9.377184
1172.465, 9.348153
1172.947, 9.460052
1173.429, 9.492086
1173.911, 9.234427
1174.393, 8.894329
1174.875, 8.881014
1175.357, 9.118471
1175.839, 9.340546
1176.322, 9.540960
1176.804, 9.753952
1177.286, 9.958835
1177.768, 10.01035
1178.250, 9.844248
1178.732, 9.534200
1179.214, 8.990355
1179.696, 8.558311
1180.178, 8.870768
1180.661, 9.484812
1181.143, 9.722912
1181.625, 9.675694
1182.107, 9.679143
1182.589, 9.784820
1183.071, 9.816414
1183.553, 9.685095
1184.035, 9.488688
1184.518, 9.204033
1185.000, 8.973742
1185.482, 8.878353
1185.964, 8.906341
1186.446, 9.078874
1186.928, 9.350354
1187.410, 9.702070
1187.892, 10.13723
1188.375, 10.24217
1188.857, 9.491890
1189.339, 9.045118
1189.821, 9.533572
1190.303, 9.909948
1190.785, 9.423571
1191.267, 8.765649
1191.749, 8.740037
1192.231, 9.173437
1192.714, 9.376302
1193.196, 9.237034
1193.678, 9.328932
1194.160, 9.826139
1194.642, 10.04323
1195.124, 9.722245
1195.606, 9.476702
1196.088, 9.695559
1196.570, 10.07329
1197.053, 10.18262
1197.535, 10.07816
1198.017, 10.02858
1198.499, 10.03222
1198.981, 9.977788
1199.463, 9.867911
1199.945, 9.977134
1200.427, 10.37395
1200.910, 10.75159
1201.392, 10.91047
1201.874, 10.85010
1202.356, 10.41388
1202.838, 9.849649
1203.320, 9.766833
1203.802, 9.952555
1204.284, 9.867318
1204.766, 9.570547
1205.249, 9.507960
1205.731, 9.789169
1206.213, 10.05161
1206.695, 10.04476
1207.177, 10.01294
1207.659, 10.23406
1208.141, 10.41712
1208.623, 10.22886
1209.105, 9.904263
1209.588, 9.745220
1210.070, 9.732798
1210.552, 9.687841
1211.034, 9.563914
1211.516, 9.506340
1211.998, 9.572076
1212.480, 9.673758
1212.962, 9.908754
1213.445, 10.03653
1213.927, 9.804500
1214.409, 9.503180
1214.891, 9.453171
1215.373, 9.603935
1215.855, 9.736757
1216.337, 9.862282
1216.819, 9.919697
1217.302, 9.903491
1217.784, 9.812956
1218.266, 9.607088
1218.748, 9.538203
1219.230, 9.768148
1219.712, 10.10093
1220.194, 10.31026
1220.676, 10.38209
1221.158, 10.22897
1221.641, 9.893894
1222.123, 9.543713
1222.605, 9.230244
1223.087, 9.177875
1223.569, 9.403191
1224.051, 9.661337
1224.533, 9.822390
1225.015, 9.841540
1225.497, 9.526785
1225.980, 9.191454
1226.462, 9.314241
1226.944, 9.554706
1227.426, 9.383734
1227.908, 8.997058
1228.390, 8.853105
1228.872, 9.017551
1229.354, 9.310105
1229.837, 9.803655
1230.319, 10.02531
1230.801, 9.525565
1231.283, 9.098051
1231.765, 9.222723
1232.247, 9.410364
1232.729, 9.178680
1233.211, 8.792513
1233.693, 8.779590
1234.176, 9.122526
1234.658, 9.303892
1235.140, 9.293659
1235.622, 9.203434
1236.104, 9.009789
1236.586, 8.849600
1237.068, 8.785490
1237.550, 8.620907
1238.032, 8.168450
1238.515, 7.742912
1238.997, 7.948577
1239.479, 8.584394
1239.961, 8.837458
1240.443, 8.776386
1240.925, 8.626013
1241.407, 8.467942
1241.889, 8.580727
1242.372, 8.993139
1242.854, 9.308652
1243.336, 9.270164
1243.818, 9.138407
1244.300, 9.138333
1244.782, 9.182781
1245.264, 9.232294
1245.746, 9.239622
1246.229, 9.136282
1246.711, 8.955065
1247.193, 8.738104
1247.675, 8.507466
1248.157, 8.374304
1248.639, 8.406631
1249.121, 8.455294
1249.603, 8.528029
1250.085, 8.565677
1250.568, 8.460584
1251.050, 8.435774
1251.532, 8.748950
1252.014, 9.115825
1252.496, 9.014077
1252.978, 8.506056
1253.460, 8.282118
1253.942, 8.352904
1254.424, 8.660700
1254.907, 9.216172
1255.389, 9.509605
1255.871, 9.402950
1256.353, 9.171515
1256.835, 8.984558
1257.317, 8.842174
1257.799, 8.731882
1258.281, 8.676801
1258.764, 8.801010
1259.246, 8.961461
1259.728, 8.852775
1260.210, 8.574677
1260.692, 8.366900
1261.174, 8.294469
1261.656, 8.381792
1262.138, 8.674962
1262.620, 8.931276
1263.103, 9.086174
1263.585, 9.114054
1264.067, 8.759905
1264.549, 8.534842
1265.031, 9.049153
1265.513, 9.740851
1265.995, 9.756212
1266.477, 9.227643
1266.959, 8.851617
1267.442, 8.608994
1267.924, 8.648981
1268.406, 9.092733
1268.888, 9.212928
1269.370, 8.825087
1269.852, 8.484817
1270.334, 8.470106
1270.816, 8.614917
1271.299, 8.754754
1271.781, 8.899454
1272.263, 9.140383
1272.745, 9.369575
1273.227, 9.239248
1273.709, 8.903265
1274.191, 8.755656
1274.673, 8.810676
1275.156, 8.860380
1275.638, 8.839881
1276.120, 8.888533
1276.602, 9.191408
1277.084, 9.388881
1277.566, 9.182078
1278.048, 8.959715
1278.530, 8.997863
1279.012, 9.095712
1279.495, 9.060972
1279.977, 8.917627
1280.459, 8.706914
1280.941, 8.422606
1281.423, 8.429187
1281.905, 8.879203
1282.387, 9.018019
1282.869, 8.727773
1283.351, 8.520695
1283.834, 8.545791
1284.316, 8.736157
1284.798, 9.070738
1285.280, 9.339834
1285.762, 9.292533
1286.244, 8.932285
##END=



