##NAMES=Berthierite
##RRUFFID=R070177
##IDEAL CHEMISTRY=Fe^2+^Sb^3+^_2_S^2-^_4_
##LOCALITY=Baia Sprie mine (Felsöbánya mine), Baia Sprie (Felsöbánya), Maramures County, Romania
##OWNER=RRUFF
##SOURCE=Michael Scott
##DESCRIPTION=A mass of parallel silver gray metallic prismatic striated crystals
##STATUS=The identification of this mineral has been confirmed by X-ray diffraction and chemical analysis
##URL=rruff.info/R070177
##MEASURED CHEMISTRY=darker phase: (Fe_0.97_Mn_0.03_)_Σ=1_(Sb_1.99_As_0.01_)_Σ=2_S_4.00_ ; lighter phase (bottom): Sb_2.00_S_3.00_ (stibnite)
132.3981, 1956.289
132.8802, 2085.598
133.3624, 2185.295
133.8445, 2296.325
134.3266, 2433.056
134.8087, 2578.346
135.2908, 2717.387
135.7729, 2844.688
136.2551, 2951.467
136.7372, 3006.490
137.2193, 2948.666
137.7014, 2918.091
138.1835, 2966.218
138.6656, 3054.390
139.1478, 3121.793
139.6299, 3142.504
140.1120, 3118.523
140.5941, 3051.406
141.0762, 2928.219
141.5583, 2791.135
142.0405, 2633.533
142.5226, 2470.530
143.0047, 2340.466
143.4868, 2262.525
143.9689, 2231.559
144.4510, 2222.534
144.9332, 2234.859
145.4153, 2265.887
145.8974, 2316.216
146.3795, 2384.860
146.8616, 2468.236
147.3438, 2566.420
147.8259, 2678.749
148.3080, 2798.288
148.7901, 2923.745
149.2722, 3057.679
149.7543, 3206.854
150.2365, 3370.535
150.7186, 3532.473
151.2007, 3692.930
151.6828, 3841.893
152.1649, 3972.298
152.6470, 4109.026
153.1292, 4191.500
153.6113, 4149.287
154.0934, 3980.945
154.5755, 3791.401
155.0576, 3616.203
155.5397, 3452.942
156.0219, 3297.987
156.5040, 3148.308
156.9861, 3010.822
157.4682, 2894.333
157.9503, 2800.141
158.4324, 2716.465
158.9146, 2628.061
159.3967, 2553.103
159.8788, 2515.419
160.3609, 2527.398
160.8430, 2565.648
161.3251, 2608.336
161.8073, 2659.953
162.2894, 2693.859
162.7715, 2684.808
163.2536, 2658.004
163.7357, 2633.901
164.2178, 2618.338
164.7000, 2608.252
165.1821, 2600.167
165.6642, 2595.040
166.1463, 2588.679
166.6284, 2579.542
167.1105, 2568.585
167.5927, 2555.583
168.0748, 2539.617
168.5569, 2524.182
169.0390, 2515.500
169.5211, 2515.304
170.0032, 2517.422
170.4854, 2515.094
170.9675, 2516.270
171.4496, 2532.250
171.9317, 2569.091
172.4138, 2611.361
172.8959, 2628.305
173.3781, 2607.572
173.8602, 2589.736
174.3423, 2583.686
174.8244, 2584.267
175.3065, 2588.319
175.7886, 2594.886
176.2708, 2602.381
176.7529, 2607.979
177.2350, 2611.740
177.7171, 2613.183
178.1992, 2611.449
178.6813, 2608.194
179.1635, 2604.020
179.6456, 2599.081
180.1277, 2595.088
180.6098, 2595.675
181.0919, 2603.029
181.5740, 2610.857
182.0562, 2619.707
182.5383, 2627.845
183.0204, 2632.444
183.5025, 2632.708
183.9846, 2632.569
184.4667, 2638.843
184.9489, 2650.034
185.4310, 2671.844
185.9131, 2707.902
186.3952, 2750.642
186.8773, 2797.700
187.3594, 2847.590
187.8416, 2893.870
188.3237, 2925.731
188.8058, 2938.969
189.2879, 2943.577
189.7700, 2933.521
190.2521, 2920.874
190.7343, 2916.120
191.2164, 2921.688
191.6985, 2930.150
192.1806, 2927.231
192.6627, 2897.293
193.1448, 2888.048
193.6270, 2914.573
194.1091, 2949.030
194.5912, 2973.939
195.0733, 2984.448
195.5554, 2984.015
196.0375, 2977.045
196.5197, 2960.958
197.0018, 2943.065
197.4839, 2919.173
197.9660, 2896.733
198.4481, 2881.086
198.9302, 2872.839
199.4124, 2868.755
199.8945, 2864.098
200.3766, 2855.486
200.8587, 2855.923
201.3408, 2870.465
201.8229, 2888.110
202.3051, 2904.858
202.7872, 2918.928
203.2693, 2927.583
203.7514, 2925.889
204.2335, 2907.273
204.7156, 2902.769
205.1978, 2928.109
205.6799, 2951.778
206.1620, 2953.977
206.6441, 2936.547
207.1262, 2916.164
207.6083, 2909.747
208.0905, 2920.314
208.5726, 2928.688
209.0547, 2934.213
209.5368, 2938.516
210.0189, 2941.320
210.5010, 2943.291
210.9832, 2946.254
211.4653, 2952.330
211.9474, 2962.090
212.4295, 2966.877
212.9116, 2954.353
213.3937, 2949.214
213.8759, 2965.069
214.3580, 2996.045
214.8401, 3027.106
215.3222, 3046.436
215.8043, 3054.378
216.2864, 3069.490
216.7686, 3102.534
217.2507, 3131.434
217.7328, 3149.055
218.2149, 3158.526
218.6970, 3164.425
219.1791, 3168.396
219.6613, 3172.735
220.1434, 3194.709
220.6255, 3259.131
221.1076, 3315.074
221.5897, 3350.658
222.0718, 3373.626
222.5540, 3397.362
223.0361, 3429.323
223.5182, 3464.079
224.0003, 3479.504
224.4824, 3446.060
224.9645, 3428.371
225.4467, 3436.509
225.9288, 3461.356
226.4109, 3495.659
226.8930, 3536.152
227.3751, 3578.161
227.8572, 3610.065
228.3394, 3623.754
228.8215, 3638.731
229.3036, 3660.725
229.7857, 3681.868
230.2678, 3692.390
230.7499, 3690.115
231.2321, 3684.406
231.7142, 3692.141
232.1963, 3724.242
232.6784, 3749.632
233.1605, 3767.937
233.6426, 3780.582
234.1248, 3786.196
234.6069, 3785.740
235.0890, 3784.717
235.5711, 3791.714
236.0532, 3813.311
236.5353, 3822.891
237.0175, 3811.006
237.4996, 3796.741
237.9817, 3787.271
238.4638, 3784.535
238.9459, 3789.107
239.4280, 3803.008
239.9102, 3828.185
240.3923, 3848.902
240.8744, 3869.064
241.3565, 3881.025
241.8386, 3875.407
242.3207, 3858.368
242.8029, 3844.813
243.2850, 3847.024
243.7671, 3864.300
244.2492, 3878.737
244.7313, 3890.502
245.2134, 3898.904
245.6956, 3902.256
246.1777, 3902.366
246.6598, 3900.348
247.1419, 3895.156
247.6240, 3890.766
248.1061, 3905.551
248.5883, 3955.148
249.0704, 4001.800
249.5525, 4042.742
250.0346, 4074.988
250.5167, 4091.074
250.9988, 4086.492
251.4810, 4075.170
251.9631, 4089.841
252.4452, 4146.870
252.9273, 4193.512
253.4094, 4207.972
253.8915, 4216.597
254.3737, 4241.165
254.8558, 4287.402
255.3379, 4343.293
255.8200, 4393.172
256.3021, 4435.092
256.7842, 4478.722
257.2664, 4533.438
257.7485, 4584.198
258.2306, 4619.594
258.7127, 4640.062
259.1948, 4659.247
259.6769, 4696.257
260.1591, 4752.211
260.6412, 4784.790
261.1233, 4772.778
261.6054, 4755.394
262.0875, 4755.551
262.5696, 4769.003
263.0518, 4778.701
263.5339, 4773.415
264.0160, 4754.852
264.4981, 4729.512
264.9802, 4688.734
265.4623, 4656.692
265.9445, 4650.499
266.4266, 4659.888
266.9087, 4666.835
267.3908, 4660.535
267.8729, 4649.445
268.3550, 4649.395
268.8372, 4661.726
269.3193, 4680.045
269.8014, 4707.305
270.2835, 4736.895
270.7656, 4760.322
271.2477, 4772.171
271.7299, 4784.554
272.2120, 4815.257
272.6941, 4864.597
273.1762, 4902.861
273.6583, 4911.778
274.1404, 4910.260
274.6226, 4924.002
275.1047, 4957.578
275.5868, 4988.332
276.0689, 5000.043
276.5510, 4996.520
277.0331, 4992.599
277.5153, 4993.399
277.9974, 4991.625
278.4795, 4976.597
278.9616, 4949.136
279.4437, 4923.132
279.9258, 4911.862
280.4080, 4902.635
280.8901, 4872.391
281.3722, 4816.106
281.8543, 4753.312
282.3364, 4699.447
282.8185, 4654.241
283.3007, 4612.248
283.7828, 4579.754
284.2649, 4545.392
284.7470, 4496.844
285.2291, 4435.160
285.7112, 4373.149
286.1934, 4318.678
286.6755, 4271.157
287.1576, 4225.063
287.6397, 4175.036
288.1218, 4131.736
288.6039, 4103.189
289.0861, 4084.586
289.5682, 4065.207
290.0503, 4040.117
290.5324, 4012.290
291.0145, 3988.825
291.4966, 3962.729
291.9788, 3952.300
292.4609, 3968.189
292.9430, 3997.300
293.4251, 4026.357
293.9072, 4051.744
294.3893, 4075.539
294.8715, 4100.015
295.3536, 4124.281
295.8357, 4152.763
296.3178, 4190.847
296.7999, 4228.271
297.2820, 4254.808
297.7642, 4273.031
298.2463, 4296.305
298.7284, 4338.398
299.2105, 4400.409
299.6926, 4440.910
300.1747, 4443.548
300.6569, 4443.060
301.1390, 4443.563
301.6211, 4448.068
302.1032, 4461.434
302.5853, 4487.033
303.0674, 4519.951
303.5496, 4544.135
304.0317, 4558.809
304.5138, 4564.603
304.9959, 4558.323
305.4780, 4546.218
305.9601, 4533.599
306.4423, 4522.016
306.9244, 4509.749
307.4065, 4496.129
307.8886, 4483.799
308.3707, 4459.617
308.8528, 4418.040
309.3350, 4367.325
309.8171, 4313.217
310.2992, 4254.194
310.7813, 4183.405
311.2634, 4095.717
311.7455, 3991.402
312.2277, 3871.967
312.7098, 3728.758
313.1919, 3584.062
313.6740, 3449.872
314.1561, 3321.304
314.6382, 3189.699
315.1204, 3045.640
315.6025, 2902.880
316.0846, 2786.638
316.5667, 2700.625
317.0488, 2617.189
317.5309, 2520.748
318.0131, 2424.304
318.4952, 2343.858
318.9773, 2283.339
319.4594, 2232.536
319.9415, 2187.232
320.4236, 2146.673
320.9058, 2106.063
321.3879, 2062.599
321.8700, 2022.226
322.3521, 1992.187
322.8342, 1971.850
323.3163, 1956.976
323.7985, 1948.169
324.2806, 1943.258
324.7627, 1940.181
325.2448, 1938.670
325.7269, 1937.468
326.2090, 1934.677
326.6912, 1930.878
327.1733, 1932.701
327.6554, 1942.975
328.1375, 1955.837
328.6196, 1968.363
329.1017, 1981.148
329.5839, 1995.808
330.0660, 2013.128
330.5481, 2032.995
331.0302, 2054.755
331.5123, 2081.700
331.9944, 2106.235
332.4766, 2125.322
332.9587, 2143.228
333.4408, 2164.530
333.9229, 2190.065
334.4050, 2217.021
334.8871, 2242.015
335.3693, 2264.271
335.8514, 2287.178
336.3335, 2313.098
336.8156, 2337.327
337.2977, 2355.901
337.7798, 2370.797
338.2620, 2387.980
338.7441, 2412.790
339.2262, 2442.300
339.7083, 2458.858
340.1904, 2448.158
340.6725, 2446.789
341.1547, 2471.724
341.6368, 2504.924
342.1189, 2527.472
342.6010, 2533.191
343.0831, 2528.710
343.5652, 2521.013
344.0474, 2509.332
344.5295, 2500.769
345.0116, 2504.044
345.4937, 2503.617
345.9758, 2488.814
346.4579, 2460.235
346.9401, 2425.923
347.4222, 2393.226
347.9043, 2358.433
348.3864, 2307.854
348.8685, 2235.323
349.3506, 2164.980
349.8328, 2118.554
350.3149, 2085.530
350.7970, 2044.449
351.2791, 1990.442
351.7612, 1928.333
352.2433, 1856.105
352.7255, 1776.838
353.2076, 1705.248
353.6897, 1647.527
354.1718, 1600.047
354.6539, 1557.085
355.1360, 1520.002
355.6182, 1482.232
356.1003, 1442.806
356.5824, 1401.790
357.0645, 1358.142
357.5466, 1311.992
358.0287, 1268.226
358.5109, 1231.421
358.9930, 1201.824
359.4751, 1177.526
359.9572, 1164.733
360.4393, 1150.077
360.9214, 1126.374
361.4036, 1097.033
361.8857, 1069.207
362.3678, 1046.609
362.8499, 1027.434
363.3320, 1005.715
363.8141, 974.8068
364.2963, 952.9858
364.7784, 946.8014
365.2605, 945.4553
365.7426, 941.8952
366.2247, 934.4966
366.7068, 924.3278
367.1890, 911.3879
367.6711, 895.3202
368.1532, 882.7728
368.6353, 877.2079
369.1174, 870.8052
369.5995, 858.7818
370.0817, 843.6646
370.5638, 830.1615
371.0459, 819.7564
371.5280, 812.7969
372.0101, 811.2349
372.4922, 815.6744
372.9744, 819.2877
373.4565, 820.8176
373.9386, 819.1547
374.4207, 812.0448
374.9028, 798.2031
375.3849, 786.5221
375.8671, 784.0062
376.3492, 786.3984
376.8313, 785.2268
377.3134, 778.8307
377.7955, 771.0183
378.2776, 764.6495
378.7598, 759.9429
379.2419, 757.3904
379.7240, 759.5803
380.2061, 761.5282
380.6882, 760.5056
381.1703, 756.9943
381.6525, 751.7347
382.1346, 744.6980
382.6167, 737.8947
383.0988, 736.3997
383.5809, 746.4333
384.0630, 753.5242
384.5452, 757.8624
385.0273, 759.2017
385.5094, 756.3371
385.9915, 749.7765
386.4736, 742.0374
386.9557, 735.1167
387.4379, 729.0124
387.9200, 726.0281
388.4021, 733.5454
388.8842, 734.9957
389.3663, 719.1712
389.8484, 696.6463
390.3306, 683.0115
390.8127, 685.2278
391.2948, 694.4055
391.7769, 697.0860
392.2590, 692.5457
392.7411, 688.7422
393.2233, 687.7417
393.7054, 687.8046
394.1875, 687.3235
394.6696, 686.3492
395.1517, 685.8942
395.6339, 688.1138
396.1160, 690.5568
396.5981, 687.9774
397.0802, 679.7314
397.5623, 672.6829
398.0444, 671.8358
398.5266, 675.6411
399.0087, 677.3470
399.4908, 676.5927
399.9729, 674.2773
400.4550, 669.9653
400.9371, 664.5162
401.4193, 658.5297
401.9014, 652.1646
402.3835, 647.5613
402.8656, 648.0111
403.3477, 655.7249
403.8298, 660.5486
404.3120, 662.1595
404.7941, 661.6891
405.2762, 658.7202
405.7583, 654.1508
406.2404, 649.4897
406.7225, 645.5175
407.2047, 642.4856
407.6868, 641.7253
408.1689, 645.6324
408.6510, 646.7125
409.1331, 639.8677
409.6152, 632.6289
410.0974, 631.6179
410.5795, 637.2079
411.0616, 643.0916
411.5437, 642.9145
412.0258, 638.1669
412.5079, 636.8065
412.9901, 640.5147
413.4722, 644.3181
413.9543, 645.2694
414.4364, 644.0535
414.9185, 641.3010
415.4006, 635.2457
415.8828, 630.3410
416.3649, 631.2010
416.8470, 635.9741
417.3291, 638.7212
417.8112, 637.2237
418.2933, 634.3489
418.7755, 634.1638
419.2576, 637.5124
419.7397, 640.3573
420.2218, 643.8738
420.7039, 645.7327
421.1860, 642.6182
421.6682, 636.2654
422.1503, 632.4233
422.6324, 635.0978
423.1145, 641.7376
423.5966, 642.0055
424.0787, 628.5764
424.5609, 620.3609
425.0430, 621.2394
425.5251, 625.8992
426.0072, 631.7466
426.4893, 637.6079
426.9714, 641.2520
427.4536, 639.6378
427.9357, 633.3539
428.4178, 629.0974
428.8999, 628.8188
429.3820, 626.7316
429.8641, 616.6774
430.3463, 604.0302
430.8284, 596.3459
431.3105, 595.6151
431.7926, 599.5288
432.2747, 609.7309
432.7568, 623.5815
433.2390, 630.9240
433.7211, 628.2542
434.2032, 622.0363
434.6853, 619.7472
435.1674, 621.8678
435.6495, 621.3802
436.1317, 614.9059
436.6138, 608.4611
437.0959, 605.6334
437.5780, 605.8088
438.0601, 607.1443
438.5422, 608.7955
439.0244, 610.4954
439.5065, 611.5771
439.9886, 611.8528
440.4707, 611.7950
440.9528, 612.1711
441.4349, 611.6537
441.9171, 608.3203
442.3992, 603.0477
442.8813, 599.1891
443.3634, 600.1923
443.8455, 604.1466
444.3276, 602.4808
444.8098, 591.6287
445.2919, 585.2255
445.7740, 593.8360
446.2561, 606.6055
446.7382, 613.4128
447.2203, 612.7744
447.7025, 593.2479
448.1846, 606.8419
448.6667, 614.1005
449.1488, 615.3640
449.6309, 592.6768
450.1130, 600.9169
450.5952, 596.7626
451.0773, 592.1003
451.5594, 604.6933
452.0415, 585.4896
452.5236, 597.8090
453.0057, 603.3879
453.4879, 598.0951
453.9700, 593.7733
454.4521, 593.4688
454.9342, 594.6946
455.4163, 594.5056
455.8984, 593.0344
456.3806, 589.4191
456.8627, 577.5519
457.3448, 569.9106
457.8269, 573.6066
458.3090, 583.3176
458.7911, 590.3317
459.2733, 590.7995
459.7554, 588.0749
460.2375, 586.5450
460.7196, 586.2254
461.2017, 586.4589
461.6838, 587.2158
462.1660, 588.3862
462.6481, 590.7249
463.1302, 593.7711
463.6123, 594.6134
464.0944, 590.4202
464.5765, 585.2885
465.0587, 583.1862
465.5408, 583.4667
466.0229, 583.1936
466.5050, 581.0084
466.9871, 577.8086
467.4692, 575.3754
467.9514, 573.7670
468.4335, 572.9334
468.9156, 573.2682
469.3977, 574.0197
469.8798, 575.1126
470.3619, 576.2288
470.8441, 576.5479
471.3262, 575.3506
471.8083, 573.4568
472.2904, 573.4658
472.7725, 576.0229
473.2546, 578.7433
473.7368, 583.5046
474.2189, 586.4723
474.7010, 583.0509
475.1831, 573.8384
475.6652, 566.8731
476.1473, 567.7424
476.6295, 573.4440
477.1116, 580.1160
477.5937, 587.6417
478.0758, 592.4384
478.5579, 592.1520
479.0400, 588.2817
479.5222, 584.2642
480.0043, 578.5512
480.4864, 576.0591
480.9685, 581.3875
481.4506, 587.9363
481.9327, 588.3975
482.4149, 583.1799
482.8970, 578.9403
483.3791, 581.2675
483.8612, 588.6172
484.3433, 591.2614
484.8254, 586.6223
485.3076, 581.2282
485.7897, 573.9451
486.2718, 567.8985
486.7539, 565.6322
487.2360, 567.4666
487.7181, 572.2047
488.2003, 582.6466
488.6824, 595.1545
489.1645, 597.2628
489.6466, 587.2515
490.1287, 574.9064
490.6108, 562.5677
491.0930, 552.7797
491.5751, 550.9583
492.0572, 560.2412
492.5393, 569.5195
493.0214, 576.3531
493.5035, 580.4565
493.9857, 580.5209
494.4678, 576.9214
494.9499, 572.6514
495.4320, 570.1437
495.9141, 569.0790
496.3962, 566.6066
496.8784, 558.6152
497.3605, 555.1292
497.8426, 564.7318
498.3247, 574.2530
498.8068, 568.7637
499.2889, 548.3170
499.7711, 529.7113
500.2532, 529.5274
500.7353, 543.1434
501.2174, 552.2024
501.6995, 556.4268
502.1816, 556.9846
502.6638, 551.8853
503.1459, 544.6873
503.6280, 542.3207
504.1101, 547.0367
504.5922, 549.6440
505.0743, 542.0531
505.5565, 533.0521
506.0386, 535.6234
506.5207, 549.3290
507.0028, 561.4238
507.4849, 562.5314
507.9670, 554.7543
508.4492, 549.3697
508.9313, 547.5877
509.4134, 546.6057
509.8955, 546.1011
510.3776, 546.3329
510.8597, 548.6837
511.3419, 552.4414
511.8240, 554.1458
512.3061, 543.7011
512.7882, 551.2626
513.2703, 555.3111
513.7524, 556.0353
514.2346, 543.4788
514.7167, 548.0717
515.1988, 545.7917
515.6809, 543.2301
516.1630, 550.2366
516.6451, 539.6118
517.1273, 546.4664
517.6094, 546.3438
518.0915, 549.4144
518.5736, 545.5700
519.0557, 543.8614
519.5378, 546.8900
520.0200, 548.9291
520.5021, 549.0143
520.9842, 546.5200
521.4663, 543.1318
521.9484, 539.3854
522.4305, 534.4705
522.9127, 525.9610
523.3948, 515.6907
523.8769, 508.9613
524.3590, 509.4118
524.8411, 513.9039
525.3232, 517.2955
525.8054, 519.5863
526.2875, 522.6697
526.7696, 528.3907
527.2517, 533.0743
527.7338, 530.6191
528.2159, 521.4163
528.6981, 515.2997
529.1802, 515.6818
529.6623, 517.5776
530.1444, 518.5945
530.6265, 518.6791
531.1086, 518.0463
531.5908, 516.7784
532.0729, 514.8409
532.5550, 511.7646
533.0371, 506.6642
533.5192, 504.4720
534.0013, 507.6171
534.4835, 511.1067
534.9656, 513.4241
535.4477, 514.8740
535.9298, 516.2855
536.4119, 518.1619
536.8940, 518.8901
537.3762, 517.0894
537.8583, 512.8973
538.3404, 505.3751
538.8225, 493.6099
539.3046, 484.4889
539.7867, 484.5868
540.2689, 492.6148
540.7510, 497.4194
541.2331, 495.0501
541.7152, 494.9028
542.1973, 504.0532
542.6794, 513.5140
543.1616, 509.4734
543.6437, 493.1667
544.1258, 478.3440
544.6079, 494.3764
545.0900, 504.0599
545.5721, 507.7354
546.0543, 487.4095
546.5364, 498.0766
547.0185, 496.3231
547.5006, 490.1736
547.9827, 496.9492
548.4648, 512.6803
548.9470, 521.5423
549.4291, 508.8697
549.9112, 490.7336
550.3933, 486.6061
550.8754, 494.5600
551.3575, 501.9536
551.8397, 503.1193
552.3218, 500.0353
552.8039, 496.3696
553.2860, 491.6128
553.7681, 487.5554
554.2502, 482.3594
554.7324, 470.7050
555.2145, 482.1225
555.6966, 488.2545
556.1787, 489.3852
556.6608, 470.5347
557.1429, 477.4858
557.6251, 474.0966
558.1072, 470.2836
558.5893, 480.8660
559.0714, 464.9218
559.5535, 475.2759
560.0356, 475.1323
560.5178, 479.7931
560.9999, 474.0502
561.4820, 471.5206
561.9641, 479.3983
562.4462, 481.5135
562.9283, 474.5729
563.4105, 469.6628
563.8926, 479.4794
564.3747, 487.6340
564.8568, 484.8042
565.3389, 473.7325
565.8210, 470.1638
566.3032, 478.4574
566.7853, 483.7166
567.2674, 477.9151
567.7495, 471.0706
568.2316, 471.8140
568.7137, 479.5443
569.1959, 485.0456
569.6780, 482.2218
570.1601, 476.8386
570.6422, 474.5676
571.1243, 475.0045
571.6064, 476.3950
572.0886, 478.1481
572.5707, 480.2388
573.0528, 482.8705
573.5349, 486.6644
574.0170, 487.9099
574.4991, 484.9357
574.9813, 481.4552
575.4634, 478.0863
575.9455, 475.1037
576.4276, 473.2023
576.9097, 472.5309
577.3918, 471.1179
577.8740, 465.0179
578.3561, 456.5272
578.8382, 454.5686
579.3203, 460.2813
579.8024, 467.3905
580.2845, 473.4459
580.7667, 477.9540
581.2488, 479.2647
581.7309, 476.5966
582.2130, 473.3094
582.6951, 467.0247
583.1772, 462.6611
583.6594, 467.2739
584.1415, 476.8575
584.6236, 480.2583
585.1057, 471.0233
585.5878, 455.9889
586.0699, 447.8120
586.5521, 447.1798
587.0342, 446.4108
587.5163, 443.9524
587.9984, 442.3315
588.4805, 443.9475
588.9626, 447.6487
589.4448, 450.7963
589.9269, 452.0142
590.4090, 454.3096
590.8911, 462.6750
591.3732, 471.3158
591.8553, 471.1360
592.3375, 461.8371
592.8196, 450.1395
593.3017, 440.7700
593.7838, 434.0586
594.2659, 431.5114
594.7480, 434.1833
595.2302, 438.6673
595.7123, 447.1387
596.1944, 455.0392
596.6765, 460.0721
597.1586, 462.1333
597.6407, 461.3768
598.1229, 456.2213
598.6050, 450.1121
599.0871, 446.3501
599.5692, 444.2264
600.0513, 441.6976
600.5334, 438.2216
601.0156, 434.5047
601.4977, 430.8603
601.9798, 427.3367
602.4619, 427.5333
602.9440, 437.5213
603.4261, 443.3155
603.9083, 441.2412
604.3904, 435.4253
604.8725, 427.4545
605.3546, 418.6619
605.8367, 413.4921
606.3188, 417.0051
606.8010, 424.4583
607.2831, 428.2970
607.7652, 428.7903
608.2473, 428.6524
608.7294, 429.0715
609.2115, 428.0013
609.6937, 422.1447
610.1758, 410.3551
610.6579, 402.7490
611.1400, 400.5406
611.6221, 400.6534
612.1042, 404.2104
612.5864, 408.5308
613.0685, 410.5841
613.5506, 409.8119
614.0327, 407.7783
614.5148, 405.6287
614.9969, 403.3058
615.4791, 400.5237
615.9612, 397.2448
616.4433, 393.8165
616.9254, 389.5129
617.4075, 386.4913
617.8896, 389.0981
618.3718, 399.1247
618.8539, 404.0977
619.3360, 399.9181
619.8181, 394.5058
620.3002, 391.9003
620.7823, 390.1824
621.2645, 385.1294
621.7466, 376.0181
622.2287, 368.1362
622.7108, 367.7751
623.1929, 373.6960
623.6750, 379.7601
624.1572, 386.6626
624.6393, 389.6957
625.1214, 384.8038
625.6035, 376.9541
626.0856, 374.8253
626.5677, 379.2850
627.0499, 381.3276
627.5320, 375.8815
628.0141, 371.5460
628.4962, 377.0869
628.9783, 386.1312
629.4604, 386.0175
629.9426, 373.2277
630.4247, 357.8561
630.9068, 351.8480
631.3889, 354.3988
631.8710, 356.7122
632.3531, 358.6787
632.8353, 360.9813
633.3174, 365.2668
633.7995, 368.9969
634.2816, 367.1023
634.7637, 358.3642
635.2458, 353.9463
635.7280, 360.6562
636.2101, 367.8896
636.6922, 368.8361
637.1743, 365.3842
637.6564, 359.9934
638.1385, 353.9960
638.6207, 343.5182
639.1028, 353.4621
639.5849, 358.8776
640.0670, 360.0081
640.5491, 344.0199
641.0313, 350.1369
641.5134, 347.3952
641.9955, 344.2903
642.4776, 352.6806
642.9597, 362.3223
643.4418, 367.5729
643.9240, 362.6023
644.4061, 356.2524
644.8882, 353.9335
645.3703, 354.2744
645.8524, 354.3104
646.3345, 353.1360
646.8167, 352.1058
647.2988, 353.4087
647.7809, 356.5099
648.2630, 356.0382
648.7451, 350.7455
649.2272, 346.4605
649.7094, 345.7813
650.1915, 346.7576
650.6736, 346.4549
651.1557, 344.7196
651.6378, 344.8479
652.1199, 349.7704
652.6021, 354.2041
653.0842, 355.9620
653.5663, 355.0461
654.0484, 350.3374
654.5305, 342.2238
655.0126, 335.1980
655.4948, 334.5478
655.9769, 338.6970
656.4590, 339.4900
656.9411, 336.2289
657.4232, 333.0881
657.9053, 329.8748
658.3875, 329.1592
658.8696, 337.6503
659.3517, 355.1055
659.8338, 361.8343
660.3159, 345.5858
660.7980, 330.3909
661.2802, 327.2234
661.7623, 330.3081
662.2444, 332.5754
662.7265, 332.5979
663.2086, 332.6266
663.6907, 334.7847
664.1729, 338.0463
664.6550, 339.3366
665.1371, 338.5461
665.6192, 338.3058
666.1013, 339.9410
666.5834, 340.8772
667.0656, 338.0815
667.5477, 331.7094
668.0298, 326.7154
668.5119, 322.6816
668.9940, 320.5523
669.4761, 323.4867
669.9583, 326.3664
670.4404, 322.0053
670.9225, 312.2668
671.4046, 307.5071
671.8867, 316.0737
672.3688, 329.0033
672.8510, 329.5643
673.3331, 319.6184
673.8152, 315.7209
674.2973, 321.8279
674.7794, 329.2923
675.2615, 331.4485
675.7437, 329.2066
676.2258, 327.4936
676.7079, 326.0887
677.1900, 325.5332
677.6721, 326.2836
678.1542, 327.5001
678.6364, 324.4832
679.1185, 319.4953
679.6006, 324.6870
680.0827, 326.9818
680.5648, 326.5357
681.0469, 315.1394
681.5291, 317.8828
682.0112, 314.9597
682.4933, 311.8045
682.9754, 316.5383
683.4575, 306.7346
683.9396, 311.3435
684.4218, 310.1987
684.9039, 309.5718
685.3860, 312.2334
685.8681, 314.1820
686.3502, 315.4357
686.8323, 315.9941
687.3145, 315.8569
687.7966, 314.4204
688.2787, 311.3545
688.7608, 309.9747
689.2429, 315.0690
689.7250, 321.0900
690.2072, 320.0365
690.6893, 313.4772
691.1714, 308.2692
691.6535, 307.0957
692.1356, 307.4628
692.6177, 305.7799
693.0999, 301.9337
693.5820, 300.6227
694.0641, 303.2748
694.5462, 305.5817
695.0283, 305.8943
695.5104, 305.4760
695.9926, 305.3302
696.4747, 305.5026
696.9568, 306.1695
697.4389, 307.3589
697.9210, 309.0744
698.4031, 311.8997
698.8853, 314.9914
699.3674, 318.3299
699.8495, 321.1428
700.3316, 319.5339
700.8137, 308.7495
701.2958, 293.6239
701.7780, 288.9639
702.2601, 295.4704
702.7422, 302.5700
703.2243, 310.2327
703.7064, 313.2972
704.1885, 305.0594
704.6707, 288.1133
705.1528, 277.3170
705.6349, 274.0835
706.1170, 274.5310
706.5991, 280.8097
707.0812, 288.2636
707.5634, 295.0867
708.0455, 300.0816
708.5276, 300.8968
709.0097, 296.1218
709.4918, 289.9360
709.9739, 286.0393
710.4561, 284.4324
710.9382, 286.3424
711.4203, 291.6285
711.9024, 294.5546
712.3845, 291.6481
712.8666, 286.5457
713.3488, 286.3119
713.8309, 292.7232
714.3130, 296.6481
714.7951, 296.9539
715.2772, 296.0605
715.7593, 293.1404
716.2415, 290.2729
716.7236, 290.2587
717.2057, 293.2861
717.6878, 295.6848
718.1699, 296.3185
718.6520, 295.1795
719.1342, 289.6466
719.6163, 282.9970
720.0984, 283.0609
720.5805, 290.9218
721.0626, 299.3500
721.5447, 302.0899
722.0269, 299.7793
722.5090, 293.9471
722.9911, 283.6213
723.4732, 275.2447
723.9553, 268.8936
724.4374, 266.8390
724.9196, 273.4370
725.4017, 286.3041
725.8838, 293.9648
726.3659, 293.5577
726.8480, 292.3074
727.3301, 289.9348
727.8123, 288.5524
728.2944, 291.0994
728.7765, 295.6742
729.2586, 298.3040
729.7407, 297.4696
730.2228, 293.4056
730.7050, 282.1292
731.1871, 268.7278
731.6692, 268.4277
732.1513, 280.9649
732.6334, 292.2683
733.1155, 296.4930
733.5977, 295.3070
734.0798, 290.4505
734.5619, 281.1701
735.0440, 275.6274
735.5261, 276.2231
736.0082, 276.9287
736.4904, 274.4259
736.9725, 272.7032
737.4546, 277.0543
737.9367, 286.5405
738.4188, 292.1658
738.9009, 286.9405
739.3831, 281.6866
739.8652, 284.9557
740.3473, 290.8385
740.8294, 289.7697
741.3115, 282.2743
741.7936, 277.6075
742.2758, 282.4277
742.7579, 291.0827
743.2400, 292.3293
743.7221, 286.5805
744.2042, 282.1837
744.6863, 279.9762
745.1685, 279.3815
745.6506, 280.3032
746.1327, 282.4108
746.6148, 285.2515
747.0969, 290.5085
747.5790, 291.8679
748.0612, 284.5599
748.5433, 279.0984
749.0254, 282.1303
749.5075, 287.6642
749.9896, 287.2513
750.4717, 280.0099
750.9539, 274.1638
751.4360, 276.2033
751.9181, 280.2083
752.4002, 280.5498
752.8823, 278.1829
753.3644, 274.2711
753.8466, 269.5722
754.3287, 267.3774
754.8108, 270.9253
755.2929, 277.9740
755.7750, 281.3291
756.2571, 280.4326
756.7393, 280.1295
757.2214, 281.3542
757.7035, 282.6415
758.1856, 283.4351
758.6677, 283.4786
759.1498, 281.5487
759.6320, 275.1042
760.1141, 272.9406
760.5962, 281.6884
761.0783, 288.5995
761.5604, 284.1484
762.0425, 275.0021
762.5247, 271.2758
763.0068, 275.1939
763.4889, 280.9799
763.9710, 288.2657
764.4531, 292.6032
764.9352, 284.6617
765.4174, 269.0417
765.8995, 259.3260
766.3816, 258.8641
766.8637, 263.0701
767.3458, 268.6329
767.8279, 274.5782
768.3101, 276.1513
768.7922, 271.7746
769.2743, 271.9162
769.7564, 281.3688
770.2385, 289.0618
770.7206, 285.3540
771.2028, 274.9054
771.6849, 271.2487
772.1670, 277.4255
772.6491, 282.3702
773.1312, 284.7268
773.6133, 285.6811
774.0955, 285.3951
774.5776, 284.3171
775.0597, 282.6508
775.5418, 280.5627
776.0239, 279.1832
776.5060, 279.9359
776.9882, 281.3386
777.4703, 281.3551
777.9524, 280.4987
778.4345, 281.1183
778.9166, 283.3629
779.3987, 282.5913
779.8809, 274.2096
780.3630, 261.7412
780.8451, 256.5971
781.3272, 259.6623
781.8093, 264.1248
782.2914, 270.4017
782.7736, 275.3932
783.2557, 277.6825
783.7378, 277.1875
784.2199, 273.2453
784.7020, 264.4183
785.1841, 256.7143
785.6663, 246.4003
786.1484, 241.8562
786.6305, 252.4747
787.1126, 267.2580
787.5947, 271.9477
788.0768, 265.6336
788.5590, 261.0169
789.0411, 268.6570
789.5232, 277.0545
790.0053, 273.6973
790.4874, 264.2759
790.9695, 258.5685
791.4517, 258.1822
791.9338, 261.2483
792.4159, 266.9862
792.8980, 273.3581
793.3801, 276.7634
793.8622, 277.2014
794.3444, 273.6786
794.8265, 265.0042
795.3086, 258.3290
795.7907, 257.0360
796.2728, 259.6087
796.7549, 264.6971
797.2371, 273.7899
797.7192, 275.9988
798.2013, 262.3920
798.6834, 253.3797
799.1655, 254.8512
799.6476, 260.5847
800.1298, 268.6229
800.6119, 276.6801
801.0940, 277.1039
801.5761, 262.1096
802.0582, 248.8622
802.5403, 247.6935
803.0225, 251.8650
803.5046, 255.3448
803.9867, 257.5397
804.4688, 259.6210
804.9509, 262.0540
805.4330, 263.1054
805.9152, 258.6572
806.3973, 251.7246
806.8794, 252.3053
807.3615, 259.7113
807.8436, 265.0741
808.3257, 265.5915
808.8079, 263.6316
809.2900, 260.8082
809.7721, 257.9284
810.2542, 261.9356
810.7363, 278.1690
811.2184, 285.0727
811.7006, 273.1197
812.1827, 261.1061
812.6648, 263.2768
813.1469, 273.1744
813.6290, 276.3470
814.1111, 269.9151
814.5933, 265.2531
815.0754, 266.3812
815.5575, 267.0066
816.0396, 261.1099
816.5217, 254.6019
817.0038, 256.9021
817.4860, 267.9596
817.9681, 276.3360
818.4502, 273.9581
818.9323, 268.2705
819.4144, 266.6002
819.8965, 266.4681
820.3787, 262.1616
820.8608, 254.2167
821.3429, 249.3525
821.8250, 251.4973
822.3071, 256.4281
822.7892, 257.6423
823.2714, 255.4200
823.7535, 251.2763
824.2356, 244.8354
824.7177, 242.0343
825.1998, 245.7125
825.6819, 252.0149
826.1641, 256.8977
826.6462, 260.3143
827.1283, 260.1136
827.6104, 252.3282
828.0925, 248.6054
828.5746, 255.5578
829.0568, 261.7822
829.5389, 258.2451
830.0210, 249.3181
830.5031, 245.3071
830.9852, 248.9612
831.4673, 251.8517
831.9495, 250.3905
832.4316, 249.2511
832.9137, 250.9395
833.3958, 254.8010
833.8779, 261.7152
834.3600, 270.6008
834.8422, 274.4130
835.3243, 265.4560
835.8064, 253.9034
836.2885, 249.8376
836.7706, 251.0597
837.2527, 254.9157
837.7349, 260.0549
838.2170, 262.5728
838.6991, 260.1729
839.1812, 256.6178
839.6633, 259.1743
840.1454, 266.5139
840.6276, 268.3369
841.1097, 264.3145
841.5918, 256.3244
842.0739, 243.3707
842.5560, 233.4062
843.0381, 236.3279
843.5203, 250.1513
844.0024, 256.1566
844.4845, 249.5913
844.9666, 246.3618
845.4487, 250.0676
845.9308, 254.9441
846.4130, 259.1678
846.8951, 261.8217
847.3772, 260.4724
847.8593, 253.6541
848.3414, 249.0465
848.8235, 247.9114
849.3057, 248.9145
849.7878, 252.5578
850.2699, 257.3286
850.7520, 263.2523
851.2341, 269.1329
851.7162, 269.9190
852.1984, 259.0573
852.6805, 251.2754
853.1626, 263.2146
853.6447, 280.1945
854.1268, 282.9894
854.6089, 273.9228
855.0911, 263.8447
855.5732, 257.1155
856.0553, 254.1506
856.5374, 257.4753
857.0195, 263.9911
857.5016, 266.6653
857.9838, 265.6313
858.4659, 260.3584
858.9480, 250.7916
859.4301, 242.4689
859.9122, 239.4649
860.3943, 240.6213
860.8765, 243.4607
861.3586, 248.2343
861.8407, 252.6230
862.3228, 257.2537
862.8049, 258.7573
863.2870, 254.2699
863.7692, 248.1996
864.2513, 246.5541
864.7334, 249.4616
865.2155, 250.7104
865.6976, 246.0341
866.1797, 246.3094
866.6619, 260.0987
867.1440, 271.7284
867.6261, 269.9362
868.1082, 259.6736
868.5903, 251.3715
869.0724, 246.2450
869.5546, 243.3956
870.0367, 243.5660
870.5188, 244.8800
871.0009, 247.3294
871.4830, 249.7503
871.9651, 250.4374
872.4473, 249.5960
872.9294, 249.2829
873.4115, 250.7416
873.8936, 252.5073
874.3757, 253.8377
874.8578, 254.4903
875.3400, 254.6928
875.8221, 253.8957
876.3042, 249.8938
876.7863, 242.1324
877.2684, 234.5814
877.7505, 230.4841
878.2327, 229.9118
878.7148, 234.6903
879.1969, 243.4641
879.6790, 250.7194
880.1611, 255.2689
880.6432, 255.2318
881.1254, 248.6723
881.6075, 240.0462
882.0896, 239.4724
882.5717, 247.2115
883.0538, 250.1264
883.5359, 246.8788
884.0181, 245.8842
884.5002, 250.6300
884.9823, 256.9984
885.4644, 261.0157
885.9465, 262.6819
886.4286, 261.8779
886.9108, 257.7544
887.3929, 252.9986
887.8750, 246.1083
888.3571, 240.9392
888.8392, 238.9786
889.3214, 240.1764
889.8035, 246.3961
890.2856, 259.2379
890.7677, 263.3243
891.2498, 246.0891
891.7319, 235.2502
892.2141, 241.9510
892.6962, 254.1028
893.1783, 266.7680
893.6604, 276.1859
894.1425, 273.2433
894.6246, 251.7375
895.1068, 234.8523
895.5889, 236.4128
896.0710, 241.7608
896.5531, 240.6689
897.0352, 236.7303
897.5173, 235.2665
897.9995, 237.2776
898.4816, 241.9481
898.9637, 250.3633
899.4458, 257.8041
899.9279, 259.4186
900.4100, 257.5960
900.8922, 255.0347
901.3743, 252.2836
901.8564, 249.2913
902.3385, 246.2312
902.8206, 245.0764
903.3027, 247.9517
903.7849, 253.7585
904.2670, 263.5639
904.7491, 274.5193
905.2312, 273.1367
905.7133, 258.6474
906.1954, 245.0462
906.6776, 240.1543
907.1597, 240.6311
907.6418, 242.1594
908.1239, 244.4925
908.6060, 244.6315
909.0881, 242.4337
909.5703, 241.8765
910.0524, 244.3053
910.5345, 246.7364
911.0166, 246.6944
911.4987, 244.8572
911.9808, 243.1681
912.4630, 241.5349
912.9451, 240.4072
913.4272, 239.4934
913.9093, 239.9899
914.3914, 242.9029
914.8735, 246.6575
915.3557, 249.9611
915.8378, 252.6700
916.3199, 252.7968
916.8020, 246.9120
917.2841, 244.7453
917.7662, 250.1920
918.2484, 255.5050
918.7305, 257.3806
919.2126, 256.7784
919.6947, 254.9120
920.1768, 251.7938
920.6589, 247.6700
921.1411, 239.2114
921.6232, 234.3066
922.1053, 236.9338
922.5874, 241.7657
923.0695, 246.6242
923.5516, 250.3125
924.0338, 250.3618
924.5159, 245.6862
924.9980, 241.8125
925.4801, 239.2467
925.9622, 239.4878
926.4443, 247.3153
926.9265, 255.5660
927.4086, 255.0994
927.8907, 247.5358
928.3728, 241.1980
928.8549, 238.9619
929.3370, 239.3793
929.8192, 243.9946
930.3013, 248.6048
930.7834, 250.7527
931.2655, 249.4762
931.7476, 239.7444
932.2297, 223.8346
932.7119, 217.2367
933.1940, 232.6203
933.6761, 250.7081
934.1582, 249.8430
934.6403, 240.0609
935.1224, 236.1172
935.6046, 237.2001
936.0867, 237.3614
936.5688, 234.8334
937.0509, 231.7680
937.5330, 229.1332
938.0151, 228.4433
938.4973, 234.5490
938.9794, 244.1292
939.4615, 248.0111
939.9436, 245.8435
940.4257, 240.7387
940.9078, 234.0998
941.3900, 229.8370
941.8721, 233.3653
942.3542, 242.0458
942.8363, 249.0685
943.3184, 254.1960
943.8005, 254.7823
944.2827, 250.6353
944.7648, 247.4753
945.2469, 248.6493
945.7290, 250.9528
946.2111, 249.0566
946.6932, 243.5911
947.1754, 239.3364
947.6575, 236.2557
948.1396, 235.7133
948.6217, 238.0524
949.1038, 243.2694
949.5859, 252.5062
950.0681, 261.2966
950.5502, 257.9372
951.0323, 241.0957
951.5144, 236.6368
951.9965, 247.7711
952.4786, 254.2419
952.9608, 249.2671
953.4429, 242.5020
953.9250, 241.9459
954.4071, 245.5715
954.8892, 246.9094
955.3713, 244.7409
955.8535, 246.0443
956.3356, 254.0456
956.8177, 256.4788
957.2998, 246.3518
957.7819, 234.3553
958.2640, 230.5993
958.7462, 233.7508
959.2283, 237.4639
959.7104, 243.0078
960.1925, 245.8623
960.6746, 243.3362
961.1567, 242.8783
961.6389, 250.1739
962.1210, 257.6882
962.6031, 255.7609
963.0852, 245.7099
963.5673, 240.4787
964.0494, 243.9652
964.5316, 245.5283
965.0137, 243.0177
965.4958, 240.8805
965.9779, 241.3514
966.4600, 242.8555
966.9421, 243.2451
967.4243, 242.6159
967.9064, 243.5833
968.3885, 250.4425
968.8706, 252.5148
969.3527, 243.7874
969.8348, 235.8177
970.3170, 234.2489
970.7991, 236.7128
971.2812, 240.8444
971.7633, 246.4491
972.2454, 249.8543
972.7275, 247.9454
973.2097, 247.6804
973.6918, 254.5146
974.1739, 258.9548
974.6560, 252.8226
975.1381, 241.8232
975.6202, 234.1317
976.1024, 230.5387
976.5845, 231.0832
977.0666, 241.0649
977.5487, 247.8300
978.0308, 243.7582
978.5129, 239.3507
978.9951, 243.3190
979.4772, 251.5060
979.9593, 256.6040
980.4414, 257.5390
980.9235, 255.3920
981.4056, 245.7848
981.8878, 239.3602
982.3699, 242.3501
982.8520, 247.6747
983.3341, 250.6172
983.8162, 251.5029
984.2983, 252.1030
984.7805, 252.7957
985.2626, 251.2916
985.7447, 243.0913
986.2268, 237.3458
986.7089, 242.0882
987.1910, 247.2136
987.6732, 242.4037
988.1553, 231.6922
988.6374, 224.1961
989.1195, 221.8867
989.6016, 222.1244
990.0837, 223.7260
990.5659, 227.8445
991.0480, 240.3072
991.5301, 251.0018
992.0122, 248.1320
992.4943, 236.8173
992.9764, 228.7506
993.4586, 226.6677
993.9407, 228.1832
994.4228, 235.3348
994.9049, 242.0614
995.3870, 244.5764
995.8691, 245.7070
996.3513, 248.0774
996.8334, 251.3515
997.3155, 254.0648
997.7976, 255.8311
998.2797, 258.0250
998.7618, 266.2486
999.2440, 268.9455
999.7261, 252.5263
1000.208, 233.7036
1000.690, 230.0703
1001.172, 237.2806
1001.655, 242.9766
1002.137, 244.1420
1002.619, 244.0901
1003.101, 243.7279
1003.583, 243.2785
1004.065, 242.7398
1004.547, 242.2732
1005.029, 242.0647
1005.511, 242.0477
1005.994, 241.7281
1006.476, 240.9694
1006.958, 241.7315
1007.440, 249.0306
1007.922, 252.9072
1008.404, 244.4806
1008.886, 233.4536
1009.368, 228.0550
1009.851, 227.4857
1010.333, 228.6742
1010.815, 230.9190
1011.297, 233.2236
1011.779, 234.7105
1012.261, 236.7696
1012.743, 241.4237
1013.225, 245.7405
1013.707, 247.2932
1014.190, 246.4976
1014.672, 244.2676
1015.154, 240.8238
1015.636, 236.9619
1016.118, 231.4219
1016.600, 227.6171
1017.082, 227.2917
1017.564, 229.0066
1018.047, 233.9923
1018.529, 239.1389
1019.011, 237.7323
1019.493, 229.1332
1019.975, 225.0385
1020.457, 234.2576
1020.939, 241.7687
1021.421, 240.6025
1021.903, 237.5862
1022.386, 236.2977
1022.868, 237.1335
1023.350, 241.1847
1023.832, 248.1741
1024.314, 252.8757
1024.796, 254.2687
1025.278, 252.6342
1025.760, 243.8065
1026.242, 236.5329
1026.725, 237.5134
1027.207, 242.5740
1027.689, 247.3036
1028.171, 250.7690
1028.653, 249.4263
1029.135, 235.6832
1029.617, 228.0806
1030.099, 234.5878
1030.582, 242.7360
1031.064, 246.8966
1031.546, 248.9503
1032.028, 252.7403
1032.510, 257.4180
1032.992, 255.6230
1033.474, 239.8549
1033.956, 229.8925
1034.438, 231.4247
1034.921, 234.5731
1035.403, 236.9309
1035.885, 238.0772
1036.367, 236.4430
1036.849, 233.0322
1037.331, 233.0006
1037.813, 238.9990
1038.295, 242.8870
1038.778, 243.6694
1039.260, 243.6124
1039.742, 243.4154
1040.224, 242.4712
1040.706, 239.0992
1041.188, 234.8042
1041.670, 234.6297
1042.152, 240.1815
1042.635, 244.3923
1043.117, 248.9683
1043.599, 248.4272
1044.081, 236.8984
1044.563, 227.1740
1045.045, 230.0380
1045.527, 239.6566
1046.009, 242.8295
1046.491, 238.6525
1046.974, 235.2812
1047.456, 232.4180
1047.938, 231.5258
1048.420, 234.2140
1048.902, 235.1911
1049.384, 230.2225
1049.866, 223.5901
1050.348, 222.3574
1050.830, 226.4283
1051.313, 234.2908
1051.795, 247.9402
1052.277, 252.5533
1052.759, 244.7116
1053.241, 234.6196
1053.723, 226.5726
1054.205, 220.8503
1054.687, 217.7091
1055.169, 217.1688
1055.652, 219.4867
1056.134, 224.6741
1056.616, 232.6615
1057.098, 243.7534
1057.580, 246.9983
1058.062, 237.8232
1058.544, 226.2289
1059.026, 221.4921
1059.509, 222.2264
1059.991, 226.2216
1060.473, 232.7688
1060.955, 238.9538
1061.437, 244.0468
1061.919, 242.0129
1062.401, 231.8294
1062.883, 223.6695
1063.365, 224.9131
1063.848, 231.7115
1064.330, 241.1239
1064.812, 250.1326
1065.294, 248.9563
1065.776, 240.6801
1066.258, 234.8605
1066.740, 233.5394
1067.222, 236.3823
1067.705, 243.4637
1068.187, 249.4975
1068.669, 246.2661
1069.151, 240.6693
1069.633, 244.4340
1070.115, 251.9353
1070.597, 253.2336
1071.079, 248.2685
1071.562, 239.7361
1072.044, 229.0533
1072.526, 224.0477
1073.008, 237.4901
1073.490, 250.3523
1073.972, 243.0317
1074.454, 229.9761
1074.936, 226.9877
1075.418, 230.9383
1075.901, 232.7429
1076.383, 230.9268
1076.865, 231.2953
1077.347, 239.5218
1077.829, 244.4701
1078.311, 235.7935
1078.793, 227.6765
1079.275, 232.3206
1079.757, 241.5330
1080.240, 244.3736
1080.722, 241.1433
1081.204, 238.8784
1081.686, 238.6000
1082.168, 240.2989
1082.650, 248.5524
1083.132, 252.8619
1083.614, 243.9140
1084.096, 234.4380
1084.579, 236.9373
1085.061, 246.8743
1085.543, 252.5141
1086.025, 254.2679
1086.507, 248.6098
1086.989, 226.1783
1087.471, 214.4650
1087.953, 223.0783
1088.436, 233.9135
1088.918, 237.2334
1089.400, 237.2119
1089.882, 240.3784
1090.364, 246.1787
1090.846, 246.3509
1091.328, 239.0279
1091.810, 236.2968
1092.292, 240.3508
1092.775, 242.4909
1093.257, 238.9857
1093.739, 234.5530
1094.221, 233.7243
1094.703, 235.2919
1095.185, 236.3215
1095.667, 236.7514
1096.149, 235.2880
1096.632, 232.1336
1097.114, 230.7850
1097.596, 231.8987
1098.078, 231.0764
1098.560, 225.2085
1099.042, 220.3397
1099.524, 226.7617
1100.006, 239.4963
1100.489, 249.5625
1100.971, 255.8271
1101.453, 254.0481
1101.935, 245.4394
1102.417, 234.9095
1102.899, 224.7612
1103.381, 218.6407
1103.863, 220.9959
1104.345, 226.3561
1104.828, 230.7586
1105.310, 233.9130
1105.792, 233.9816
1106.274, 233.1864
1106.756, 236.6839
1107.238, 244.1236
1107.720, 248.5239
1108.202, 246.3986
1108.684, 243.0901
1109.167, 240.0198
1109.649, 237.6435
1110.131, 235.5992
1110.613, 234.9047
1111.095, 238.4569
1111.577, 243.9122
1112.059, 244.1384
1112.541, 236.8776
1113.023, 232.7615
1113.506, 237.3943
1113.988, 238.4066
1114.470, 229.4077
1114.952, 222.3549
1115.434, 224.8727
1115.916, 231.0067
1116.398, 232.2246
1116.880, 229.4457
1117.363, 232.3626
1117.845, 244.4183
1118.327, 246.9433
1118.809, 236.6064
1119.291, 227.6353
1119.773, 224.3924
1120.255, 224.8754
1120.737, 227.9667
1121.219, 232.0835
1121.702, 233.2545
1122.184, 232.1336
1122.666, 234.8882
1123.148, 240.6077
1123.630, 242.0287
1124.112, 238.4811
1124.594, 234.8175
1125.076, 233.3789
1125.559, 234.5605
1126.041, 240.7270
1126.523, 246.8528
1127.005, 242.9035
1127.487, 234.8956
1127.969, 232.1535
1128.451, 234.5718
1128.933, 242.2366
1129.416, 253.0757
1129.898, 257.2348
1130.380, 247.9799
1130.862, 238.1946
1131.344, 237.0506
1131.826, 236.6900
1132.308, 229.2241
1132.790, 221.5972
1133.272, 221.5790
1133.755, 227.7000
1134.237, 236.1915
1134.719, 247.3456
1135.201, 251.6813
1135.683, 241.0728
1136.165, 233.5864
1136.647, 234.2123
1137.129, 236.0672
1137.611, 236.1845
1138.094, 236.2086
1138.576, 238.5976
1139.058, 242.3965
1139.540, 242.6438
1140.022, 238.5187
1140.504, 235.1329
1140.986, 232.9389
1141.468, 228.3266
1141.950, 219.8710
1142.433, 212.8756
1142.915, 210.5453
1143.397, 212.8111
1143.879, 221.2351
1144.361, 233.0441
1144.843, 237.9465
1145.325, 237.9465
1145.807, 242.6062
1146.290, 250.4193
1146.772, 247.8160
1147.254, 232.3806
1147.736, 221.7309
1148.218, 230.1516
1148.700, 241.0070
1149.182, 236.9876
1149.664, 227.4018
1150.146, 219.7601
1150.629, 215.0248
1151.111, 214.6436
1151.593, 217.5710
1152.075, 220.8629
1152.557, 223.7542
1153.039, 226.9603
1153.521, 233.4854
1154.003, 236.3486
1154.486, 229.1604
1154.968, 222.5839
1155.450, 223.8755
1155.932, 228.5639
1156.414, 231.2575
1156.896, 232.2833
1157.378, 233.5471
1157.860, 236.0503
1158.343, 234.7586
1158.825, 228.1086
1159.307, 223.5880
1159.789, 223.1528
1160.271, 224.3368
1160.753, 225.9718
1161.235, 226.8708
1161.717, 225.0167
1162.199, 221.3402
1162.682, 219.4501
1163.164, 218.7179
1163.646, 215.2782
1164.128, 210.0185
1164.610, 209.6868
1165.092, 215.1037
1165.574, 217.7466
1166.056, 211.7275
1166.538, 204.9421
1167.021, 202.9339
1167.503, 205.8831
1167.985, 219.0496
1168.467, 233.4211
1168.949, 236.6118
1169.431, 231.8708
1169.913, 228.6531
1170.395, 228.8206
1170.877, 230.2819
1171.360, 233.4295
1171.842, 236.3322
1172.324, 239.1392
1172.806, 241.0197
1173.288, 242.7843
1173.770, 242.1165
1174.252, 235.0397
1174.734, 225.4128
1175.217, 223.5090
1175.699, 229.8881
1176.181, 233.6711
1176.663, 234.6138
1177.145, 235.3057
1177.627, 236.1810
1178.109, 234.5983
1178.591, 229.2962
1179.073, 225.5211
1179.556, 228.6289
1180.038, 234.7556
1180.520, 236.7993
1181.002, 236.7407
1181.484, 240.1477
1181.966, 244.4382
1182.448, 241.1855
1182.930, 232.2663
1183.413, 229.4799
1183.895, 236.9074
1184.377, 242.2166
1184.859, 234.6124
1185.341, 228.0378
1185.823, 231.0836
1186.305, 235.8118
1186.787, 235.7623
1187.270, 234.9602
1187.752, 241.0302
1188.234, 251.3996
1188.716, 252.7298
1189.198, 241.6895
1189.680, 235.0546
1190.162, 233.6583
1190.644, 234.8286
1191.126, 239.4549
1191.609, 241.2662
1192.091, 236.5159
1192.573, 231.2227
1193.055, 232.7233
1193.537, 237.3032
1194.019, 233.8815
1194.501, 225.4058
1194.983, 223.8361
1195.465, 227.7834
1195.948, 231.0694
1196.430, 232.4273
1196.912, 231.9415
1197.394, 229.7054
1197.876, 229.2089
1198.358, 236.0935
1198.840, 241.5372
1199.322, 236.2593
1199.804, 230.0568
1200.287, 234.0475
1200.769, 240.1727
1201.251, 233.8979
1201.733, 218.9191
1202.215, 215.7016
1202.697, 230.6713
1203.179, 240.9548
1203.661, 246.2768
1204.144, 247.0659
1204.626, 242.5477
1205.108, 235.1043
1205.590, 224.4519
1206.072, 215.9777
1206.554, 215.6094
1207.036, 221.1502
1207.518, 229.4727
1208.000, 238.7119
1208.483, 237.1128
1208.965, 228.3130
1209.447, 228.8141
1209.929, 238.4693
1210.411, 242.9532
1210.893, 237.2749
1211.375, 233.1391
1211.857, 240.5728
1212.340, 248.5440
1212.822, 250.6293
1213.304, 248.7033
1213.786, 242.7246
1214.268, 234.7427
1214.750, 224.3931
1215.232, 214.3464
1215.714, 212.6512
1216.197, 221.0448
1216.679, 228.0960
1217.161, 236.2235
1217.643, 235.1543
1218.125, 219.3988
1218.607, 211.4155
1219.089, 220.6809
1219.571, 232.9841
1220.053, 236.5954
1220.536, 236.0746
1221.018, 240.8255
1221.500, 247.9142
1221.982, 247.2240
1222.464, 241.4675
1222.946, 237.3157
1223.428, 234.9824
1223.910, 231.6898
1224.392, 227.2324
1224.875, 225.6886
1225.357, 230.2709
##END=



