##NAMES=Berthierite
##RRUFFID=R070177
##IDEAL CHEMISTRY=Fe^2+^Sb^3+^_2_S^2-^_4_
##LOCALITY=Baia Sprie mine (Felsöbánya mine), Baia Sprie (Felsöbánya), Maramures County, Romania
##OWNER=RRUFF
##SOURCE=Michael Scott
##DESCRIPTION=A mass of parallel silver gray metallic prismatic striated crystals
##STATUS=The identification of this mineral has been confirmed by X-ray diffraction and chemical analysis
##URL=rruff.info/R070177
##MEASURED CHEMISTRY=darker phase: (Fe_0.97_Mn_0.03_)_Σ=1_(Sb_1.99_As_0.01_)_Σ=2_S_4.00_ ; lighter phase (bottom): Sb_2.00_S_3.00_ (stibnite)
132.3981, 1956.289
132.8802, 2085.598
133.3624, 2185.295
133.8445, 2296.325
134.3266, 2433.056
134.8087, 2578.346
135.2908, 2717.387
135.7729, 2844.688
136.2551, 2951.467
136.7372, 3006.490
137.2193, 2948.666
137.7014, 2918.091
138.1835, 2966.218
138.6656, 3054.390
139.1478, 3121.793
139.6299, 3142.504
140.1120, 3118.523
140.5941, 3051.406
141.0762, 2928.219
141.5583, 2791.135
142.0405, 2633.533
142.5226, 2470.530
143.0047, 2340.466
143.4868, 2262.525
143.9689, 2231.559
144.4510, 2222.534
144.9332, 2234.859
145.4153, 2265.887
145.8974, 2316.216
146.3795, 2384.860
146.8616, 2468.236
147.3438, 2566.420
147.8259, 2678.749
148.3080, 2798.288
148.7901, 2923.745
149.2722, 3057.679
149.7543, 3206.854
150.2365, 3370.535
150.7186, 3532.473
151.2007, 3692.930
151.6828, 3841.893
152.1649, 3972.298
152.6470, 4109.026
153.1292, 4191.500
153.6113, 4149.287
154.0934, 3980.945
154.5755, 3791.401
155.0576, 3616.203
155.5397, 3452.942
156.0219, 3297.987
156.5040, 3148.308
156.9861, 3010.822
157.4682, 2894.333
157.9503, 2800.141
158.4324, 2716.465
158.9146, 2628.061
159.3967, 2553.103
159.8788, 2515.419
160.3609, 2527.398
160.8430, 2565.648
161.3251, 2608.336
161.8073, 2659.953
162.2894, 2693.859
162.7715, 2684.808
163.2536, 2658.004
163.7357, 2633.901
164.2178, 2618.338
164.7000, 2608.252
165.1821, 2600.167
165.6642, 2595.040
166.1463, 2588.679
166.6284, 2579.542
167.1105, 2568.585
167.5927, 2555.583
168.0748, 2539.617
168.5569, 2524.182
169.0390, 2515.500
169.5211, 2515.304
170.0032, 2517.422
170.4854, 2515.094
170.9675, 2516.270
171.4496, 2532.250
171.9317, 2569.091
172.4138, 2611.361
172.8959, 2628.305
173.3781, 2607.572
173.8602, 2589.736
174.3423, 2583.686
174.8244, 2584.267
175.3065, 2588.319
175.7886, 2594.886
176.2708, 2602.381
176.7529, 2607.979
177.2350, 2611.740
177.7171, 2613.183
178.1992, 2611.449
178.6813, 2608.194
179.1635, 2604.020
179.6456, 2599.081
180.1277, 2595.088
180.6098, 2595.675
181.0919, 2603.029
181.5740, 2610.857
182.0562, 2619.707
182.5383, 2627.845
183.0204, 2632.444
183.5025, 2632.708
183.9846, 2632.569
184.4667, 2638.843
184.9489, 2650.034
185.4310, 2671.844
185.9131, 2707.902
186.3952, 2750.642
186.8773, 2797.700
187.3594, 2847.590
187.8416, 2893.870
188.3237, 2925.731
188.8058, 2938.969
189.2879, 2943.577
189.7700, 2933.521
190.2521, 2920.874
190.7343, 2916.120
191.2164, 2921.688
191.6985, 2930.150
192.1806, 2927.231
192.6627, 2897.293
193.1448, 2888.048
193.6270, 2914.573
194.1091, 2949.030
194.5912, 2973.939
195.0733, 2984.448
195.5554, 2984.015
196.0375, 2977.045
196.5197, 2960.958
197.0018, 2943.065
197.4839, 2919.173
197.9660, 2896.733
198.4481, 2881.086
198.9302, 2872.839
199.4124, 2868.755
199.8945, 2864.098
200.3766, 2855.486
200.8587, 2855.923
201.3408, 2870.465
201.8229, 2888.110
202.3051, 2904.858
202.7872, 2918.928
203.2693, 2927.583
203.7514, 2925.889
204.2335, 2907.273
204.7156, 2902.769
205.1978, 2928.109
205.6799, 2951.778
206.1620, 2953.977
206.6441, 2936.547
207.1262, 2916.164
207.6083, 2909.747
208.0905, 2920.314
208.5726, 2928.688
209.0547, 2934.213
209.5368, 2938.516
210.0189, 2941.320
210.5010, 2943.291
210.9832, 2946.254
211.4653, 2952.330
211.9474, 2962.090
212.4295, 2966.877
212.9116, 2954.353
213.3937, 2949.214
213.8759, 2965.069
214.3580, 2996.045
214.8401, 3027.106
215.3222, 3046.436
215.8043, 3054.378
216.2864, 3069.490
216.7686, 3102.534
217.2507, 3131.434
217.7328, 3149.055
218.2149, 3158.526
218.6970, 3164.425
219.1791, 3168.396
219.6613, 3172.735
220.1434, 3194.709
220.6255, 3259.131
221.1076, 3315.074
221.5897, 3350.658
222.0718, 3373.626
222.5540, 3397.362
223.0361, 3429.323
223.5182, 3464.079
224.0003, 3479.504
224.4824, 3446.060
224.9645, 3428.371
225.4467, 3436.509
225.9288, 3461.356
226.4109, 3495.659
226.8930, 3536.152
227.3751, 3578.161
227.8572, 3610.065
228.3394, 3623.754
228.8215, 3638.731
229.3036, 3660.725
229.7857, 3681.868
230.2678, 3692.390
230.7499, 3690.115
231.2321, 3684.406
231.7142, 3692.141
232.1963, 3724.242
232.6784, 3749.632
233.1605, 3767.937
233.6426, 3780.582
234.1248, 3786.196
234.6069, 3785.740
235.0890, 3784.717
235.5711, 3791.714
236.0532, 3813.311
236.5353, 3822.891
237.0175, 3811.006
237.4996, 3796.741
237.9817, 3787.271
238.4638, 3784.535
238.9459, 3789.107
239.4280, 3803.008
239.9102, 3828.185
240.3923, 3848.902
240.8744, 3869.064
241.3565, 3881.025
241.8386, 3875.407
242.3207, 3858.368
242.8029, 3844.813
243.2850, 3847.024
243.7671, 3864.300
244.2492, 3878.737
244.7313, 3890.502
245.2134, 3898.904
245.6956, 3902.256
246.1777, 3902.366
246.6598, 3900.348
247.1419, 3895.156
247.6240, 3890.766
248.1061, 3905.551
248.5883, 3955.148
249.0704, 4001.800
249.5525, 4042.742
250.0346, 4074.988
250.5167, 4091.074
250.9988, 4086.492
251.4810, 4075.170
251.9631, 4089.841
252.4452, 4146.870
252.9273, 4193.512
253.4094, 4207.972
253.8915, 4216.597
254.3737, 4241.165
254.8558, 4287.402
255.3379, 4343.293
255.8200, 4393.172
256.3021, 4435.092
256.7842, 4478.722
257.2664, 4533.438
257.7485, 4584.198
258.2306, 4619.594
258.7127, 4640.062
259.1948, 4659.247
259.6769, 4696.257
260.1591, 4752.211
260.6412, 4784.790
261.1233, 4772.778
261.6054, 4755.394
262.0875, 4755.551
262.5696, 4769.003
263.0518, 4778.701
263.5339, 4773.415
264.0160, 4754.852
264.4981, 4729.512
264.9802, 4688.734
265.4623, 4656.692
265.9445, 4650.499
266.4266, 4659.888
266.9087, 4666.835
267.3908, 4660.535
267.8729, 4649.445
268.3550, 4649.395
268.8372, 4661.726
269.3193, 4680.045
269.8014, 4707.305
270.2835, 4736.895
270.7656, 4760.322
271.2477, 4772.171
271.7299, 4784.554
272.2120, 4815.257
272.6941, 4864.597
273.1762, 4902.861
273.6583, 4911.778
274.1404, 4910.260
274.6226, 4924.002
275.1047, 4957.578
275.5868, 4988.332
276.0689, 5000.043
276.5510, 4996.520
277.0331, 4992.599
277.5153, 4993.399
277.9974, 4991.625
278.4795, 4976.597
278.9616, 4949.136
279.4437, 4923.132
279.9258, 4911.862
280.4080, 4902.635
280.8901, 4872.391
281.3722, 4816.106
281.8543, 4753.312
282.3364, 4699.447
282.8185, 4654.241
283.3007, 4612.248
283.7828, 4579.754
284.2649, 4545.392
284.7470, 4496.844
285.2291, 4435.160
285.7112, 4373.149
286.1934, 4318.678
286.6755, 4271.157
287.1576, 4225.063
287.6397, 4175.036
288.1218, 4131.736
288.6039, 4103.189
289.0861, 4084.586
289.5682, 4065.207
290.0503, 4040.117
290.5324, 4012.290
291.0145, 3988.825
291.4966, 3962.729
291.9788, 3952.300
292.4609, 3968.189
292.9430, 3997.300
293.4251, 4026.357
293.9072, 4051.744
294.3893, 4075.539
294.8715, 4100.015
295.3536, 4124.281
295.8357, 4152.763
296.3178, 4190.847
296.7999, 4228.271
297.2820, 4254.808
297.7642, 4273.031
298.2463, 4296.305
298.7284, 4338.398
299.2105, 4400.409
299.6926, 4440.910
300.1747, 4443.548
300.6569, 4443.060
301.1390, 4443.563
301.6211, 4448.068
302.1032, 4461.434
302.5853, 4487.033
303.0674, 4519.951
303.5496, 4544.135
304.0317, 4558.809
304.5138, 4564.603
304.9959, 4558.323
305.4780, 4546.218
305.9601, 4533.599
306.4423, 4522.016
306.9244, 4509.749
307.4065, 4496.129
307.8886, 4483.799
308.3707, 4459.617
308.8528, 4418.040
309.3350, 4367.325
309.8171, 4313.217
310.2992, 4254.194
310.7813, 4183.405
311.2634, 4095.717
311.7455, 3991.402
312.2277, 3871.967
312.7098, 3728.758
313.1919, 3584.062
313.6740, 3449.872
314.1561, 3321.304
314.6382, 3189.699
315.1204, 3045.640
315.6025, 2902.880
316.0846, 2786.638
316.5667, 2700.625
317.0488, 2617.189
317.5309, 2520.748
318.0131, 2424.304
318.4952, 2343.858
318.9773, 2283.339
319.4594, 2232.536
319.9415, 2187.232
320.4236, 2146.673
320.9058, 2106.063
321.3879, 2062.599
321.8700, 2022.226
322.3521, 1992.187
322.8342, 1971.850
323.3163, 1956.976
323.7985, 1948.169
324.2806, 1943.258
324.7627, 1940.181
325.2448, 1938.670
325.7269, 1937.468
326.2090, 1934.677
326.6912, 1930.878
327.1733, 1932.701
327.6554, 1942.975
328.1375, 1955.837
328.6196, 1968.363
329.1017, 1981.148
329.5839, 1995.808
330.0660, 2013.128
330.5481, 2032.995
331.0302, 2054.755
331.5123, 2081.700
331.9944, 2106.235
332.4766, 2125.322
332.9587, 2143.228
333.4408, 2164.530
333.9229, 2190.065
334.4050, 2217.021
334.8871, 2242.015
335.3693, 2264.271
335.8514, 2287.178
336.3335, 2313.098
336.8156, 2337.327
337.2977, 2355.901
337.7798, 2370.797
338.2620, 2387.980
338.7441, 2412.790
339.2262, 2442.300
339.7083, 2458.858
340.1904, 2448.158
340.6725, 2446.789
341.1547, 2471.724
341.6368, 2504.924
342.1189, 2527.472
342.6010, 2533.191
343.0831, 2528.710
343.5652, 2521.013
344.0474, 2509.332
344.5295, 2500.769
345.0116, 2504.044
345.4937, 2503.617
345.9758, 2488.814
346.4579, 2460.235
346.9401, 2425.923
347.4222, 2393.226
347.9043, 2358.433
348.3864, 2307.854
348.8685, 2235.323
349.3506, 2164.980
349.8328, 2118.554
350.3149, 2085.530
350.7970, 2044.449
351.2791, 1990.442
351.7612, 1928.333
352.2433, 1856.105
352.7255, 1776.838
353.2076, 1705.248
353.6897, 1647.527
354.1718, 1600.047
354.6539, 1557.085
355.1360, 1520.002
355.6182, 1482.232
356.1003, 1442.806
356.5824, 1401.790
357.0645, 1358.142
357.5466, 1311.992
358.0287, 1268.226
358.5109, 1231.421
358.9930, 1201.824
359.4751, 1177.526
359.9572, 1164.733
360.4393, 1150.077
360.9214, 1126.374
361.4036, 1097.033
361.8857, 1069.207
362.3678, 1046.609
362.8499, 1027.434
363.3320, 1005.715
363.8141, 974.8068
364.2963, 952.9858
364.7784, 946.8014
365.2605, 945.4553
365.7426, 941.8952
366.2247, 934.4966
366.7068, 924.3278
367.1890, 911.3879
367.6711, 895.3202
368.1532, 882.7728
368.6353, 877.2079
369.1174, 870.8052
369.5995, 858.7818
370.0817, 843.6646
370.5638, 830.1615
371.0459, 819.7564
371.5280, 812.7969
372.0101, 811.2349
372.4922, 815.6744
372.9744, 819.2877
373.4565, 820.8176
373.9386, 819.1547
374.4207, 812.0448
374.9028, 798.2031
375.3849, 786.5221
375.8671, 784.0062
376.3492, 786.3984
376.8313, 785.2268
377.3134, 778.8307
377.7955, 771.0183
378.2776, 764.6495
378.7598, 759.9429
379.2419, 757.3904
379.7240, 759.5803
380.2061, 761.5282
380.6882, 760.5056
381.1703, 756.9943
381.6525, 751.7347
382.1346, 744.6980
382.6167, 737.8947
383.0988, 736.3997
383.5809, 746.4333
384.0630, 753.5242
384.5452, 757.8624
385.0273, 759.2017
385.5094, 756.3371
385.9915, 749.7765
386.4736, 742.0374
386.9557, 735.1167
387.4379, 729.0124
387.9200, 726.0281
388.4021, 733.5454
388.8842, 734.9957
389.3663, 719.1712
389.8484, 696.6463
390.3306, 683.0115
390.8127, 685.2278
391.2948, 694.4055
391.7769, 697.0860
392.2590, 692.5457
392.7411, 688.7422
393.2233, 687.7417
393.7054, 687.8046
394.1875, 687.3235
394.6696, 686.3492
395.1517, 685.8942
395.6339, 688.1138
396.1160, 690.5568
396.5981, 687.9774
397.0802, 679.7314
397.5623, 672.6829
398.0444, 671.8358
398.5266, 675.6411
399.0087, 677.3470
399.4908, 676.5927
399.9729, 674.2773
400.4550, 669.9653
400.9371, 664.5162
401.4193, 658.5297
401.9014, 652.1646
402.3835, 647.5613
402.8656, 648.0111
403.3477, 655.7249
403.8298, 660.5486
404.3120, 662.1595
404.7941, 661.6891
405.2762, 658.7202
405.7583, 654.1508
406.2404, 649.4897
406.7225, 645.5175
407.2047, 642.4856
407.6868, 641.7253
408.1689, 645.6324
408.6510, 646.7125
409.1331, 639.8677
409.6152, 632.6289
410.0974, 631.6179
410.5795, 637.2079
411.0616, 643.0916
411.5437, 642.9145
412.0258, 638.1669
412.5079, 636.8065
412.9901, 640.5147
413.4722, 644.3181
413.9543, 645.2694
414.4364, 644.0535
414.9185, 641.3010
415.4006, 635.2457
415.8828, 630.3410
416.3649, 631.2010
416.8470, 635.9741
417.3291, 638.7212
417.8112, 637.2237
418.2933, 634.3489
418.7755, 634.1638
419.2576, 637.5124
419.7397, 640.3573
420.2218, 643.8738
420.7039, 645.7327
421.1860, 642.6182
421.6682, 636.2654
422.1503, 632.4233
422.6324, 635.0978
423.1145, 641.7376
423.5966, 642.0055
424.0787, 628.5764
424.5609, 620.3609
425.0430, 621.2394
425.5251, 625.8992
426.0072, 631.7466
426.4893, 637.6079
426.9714, 641.2520
427.4536, 639.6378
427.9357, 633.3539
428.4178, 629.0974
428.8999, 628.8188
429.3820, 626.7316
429.8641, 616.6774
430.3463, 604.0302
430.8284, 596.3459
431.3105, 595.6151
431.7926, 599.5288
432.2747, 609.7309
432.7568, 623.5815
433.2390, 630.9240
433.7211, 628.2542
434.2032, 622.0363
434.6853, 619.7472
435.1674, 621.8678
435.6495, 621.3802
436.1317, 614.9059
436.6138, 608.4611
437.0959, 605.6334
437.5780, 605.8088
438.0601, 607.1443
438.5422, 608.7955
439.0244, 610.4954
439.5065, 611.5771
439.9886, 611.8528
440.4707, 611.7950
440.9528, 612.1711
441.4349, 611.6537
441.9171, 608.3203
442.3992, 603.0477
442.8813, 599.1891
443.3634, 600.1923
443.8455, 604.1466
444.3276, 602.4808
444.8098, 591.6287
445.2919, 585.2255
445.7740, 593.8360
446.2561, 606.6055
446.7382, 613.4128
447.2203, 612.7744
447.7025, 593.2479
448.1846, 606.8419
448.6667, 614.1005
449.1488, 615.3640
449.6309, 592.6768
450.1130, 600.9169
450.5952, 596.7626
451.0773, 592.1003
451.5594, 604.6933
452.0415, 585.4896
452.5236, 597.8090
453.0057, 603.3879
453.4879, 598.0951
453.9700, 593.7733
454.4521, 593.4688
454.9342, 594.6946
455.4163, 594.5056
455.8984, 593.0344
456.3806, 589.4191
456.8627, 577.5519
457.3448, 569.9106
457.8269, 573.6066
458.3090, 583.3176
458.7911, 590.3317
459.2733, 590.7995
459.7554, 588.0749
460.2375, 586.5450
460.7196, 586.2254
461.2017, 586.4589
461.6838, 587.2158
462.1660, 588.3862
462.6481, 590.7249
463.1302, 593.7711
463.6123, 594.6134
464.0944, 590.4202
464.5765, 585.2885
465.0587, 583.1862
465.5408, 583.4667
466.0229, 583.1936
466.5050, 581.0084
466.9871, 577.8086
467.4692, 575.3754
467.9514, 573.7670
468.4335, 572.9334
468.9156, 573.2682
469.3977, 574.0197
469.8798, 575.1126
470.3619, 576.2288
470.8441, 576.5479
471.3262, 575.3506
471.8083, 573.4568
472.2904, 573.4658
472.7725, 576.0229
473.2546, 578.7433
473.7368, 583.5046
474.2189, 586.4723
474.7010, 583.0509
475.1831, 573.8384
475.6652, 566.8731
476.1473, 567.7424
476.6295, 573.4440
477.1116, 580.1160
477.5937, 587.6417
478.0758, 592.4384
478.5579, 592.1520
479.0400, 588.2817
479.5222, 584.2642
480.0043, 578.5512
480.4864, 576.0591
480.9685, 581.3875
481.4506, 587.9363
481.9327, 588.3975
482.4149, 583.1799
482.8970, 578.9403
483.3791, 581.2675
483.8612, 588.6172
484.3433, 591.2614
484.8254, 586.6223
485.3076, 581.2282
485.7897, 573.9451
486.2718, 567.8985
486.7539, 565.6322
487.2360, 567.4666
487.7181, 572.2047
488.2003, 582.6466
488.6824, 595.1545
489.1645, 597.2628
489.6466, 587.2515
490.1287, 574.9064
490.6108, 562.5677
491.0930, 552.7797
491.5751, 550.9583
492.0572, 560.2412
492.5393, 569.5195
493.0214, 576.3531
493.5035, 580.4565
493.9857, 580.5209
494.4678, 576.9214
494.9499, 572.6514
495.4320, 570.1437
495.9141, 569.0790
496.3962, 566.6066
496.8784, 558.6152
497.3605, 555.1292
497.8426, 564.7318
498.3247, 574.2530
498.8068, 568.7637
499.2889, 548.3170
499.7711, 529.7113
500.2532, 529.5274
500.7353, 543.1434
501.2174, 552.2024
501.6995, 556.4268
502.1816, 556.9846
502.6638, 551.8853
503.1459, 544.6873
503.6280, 542.3207
504.1101, 547.0367
504.5922, 549.6440
505.0743, 542.0531
505.5565, 533.0521
506.0386, 535.6234
506.5207, 549.3290
507.0028, 561.4238
507.4849, 562.5314
507.9670, 554.7543
508.4492, 549.3697
508.9313, 547.5877
509.4134, 546.6057
509.8955, 546.1011
510.3776, 546.3329
510.8597, 548.6837
511.3419, 552.4414
511.8240, 554.1458
512.3061, 543.7011
512.7882, 551.2626
513.2703, 555.3111
513.7524, 556.0353
514.2346, 543.4788
514.7167, 548.0717
515.1988, 545.7917
515.6809, 543.2301
516.1630, 550.2366
516.6451, 539.6118
517.1273, 546.4664
517.6094, 546.3438
518.0915, 549.4144
518.5736, 545.5700
519.0557, 543.8614
519.5378, 546.8900
520.0200, 548.9291
520.5021, 549.0143
520.9842, 546.5200
521.4663, 543.1318
521.9484, 539.3854
522.4305, 534.4705
522.9127, 525.9610
523.3948, 515.6907
523.8769, 508.9613
524.3590, 509.4118
524.8411, 513.9039
525.3232, 517.2955
525.8054, 519.5863
526.2875, 522.6697
526.7696, 528.3907
527.2517, 533.0743
527.7338, 530.6191
528.2159, 521.4163
528.6981, 515.2997
529.1802, 515.6818
529.6623, 517.5776
530.1444, 518.5945
530.6265, 518.6791
531.1086, 518.0463
531.5908, 516.7784
532.0729, 514.8409
532.5550, 511.7646
533.0371, 506.6642
533.5192, 504.4720
534.0013, 507.6171
534.4835, 511.1067
534.9656, 513.4241
535.4477, 514.8740
535.9298, 516.2855
536.4119, 518.1619
536.8940, 518.8901
537.3762, 517.0894
537.8583, 512.8973
538.3404, 505.3751
538.8225, 493.6099
539.3046, 484.4889
539.7867, 484.5868
540.2689, 492.6148
540.7510, 497.4194
541.2331, 495.0501
541.7152, 494.9028
542.1973, 504.0532
542.6794, 513.5140
543.1616, 509.4734
543.6437, 493.1667
544.1258, 478.3440
544.6079, 494.3764
545.0900, 504.0599
545.5721, 507.7354
546.0543, 487.4095
546.5364, 498.0766
547.0185, 496.3231
547.5006, 490.1736
547.9827, 496.9492
548.4648, 512.6803
548.9470, 521.5423
549.4291, 508.8697
549.9112, 490.7336
550.3933, 486.6061
550.8754, 494.5600
551.3575, 501.9536
551.8397, 503.1193
552.3218, 500.0353
552.8039, 496.3696
553.2860, 491.6128
553.7681, 487.5554
554.2502, 482.3594
554.7324, 470.7050
555.2145, 482.1225
555.6966, 488.2545
556.1787, 489.3852
556.6608, 470.5347
557.1429, 477.4858
557.6251, 474.0966
558.1072, 470.2836
558.5893, 480.8660
559.0714, 464.9218
559.5535, 475.2759
560.0356, 475.1323
560.5178, 479.7931
560.9999, 474.0502
561.4820, 471.5206
561.9641, 479.3983
562.4462, 481.5135
562.9283, 474.5729
563.4105, 469.6628
563.8926, 479.4794
564.3747, 487.6340
564.8568, 484.8042
565.3389, 473.7325
565.8210, 470.1638
566.3032, 478.4574
566.7853, 483.7166
567.2674, 477.9151
567.7495, 471.0706
568.2316, 471.8140
568.7137, 479.5443
569.1959, 485.0456
569.6780, 482.2218
570.1601, 476.8386
570.6422, 474.5676
571.1243, 475.0045
571.6064, 476.3950
572.0886, 478.1481
572.5707, 480.2388
573.0528, 482.8705
573.5349, 486.6644
574.0170, 487.9099
574.4991, 484.9357
574.9813, 481.4552
575.4634, 478.0863
575.9455, 475.1037
576.4276, 473.2023
576.9097, 472.5309
577.3918, 471.1179
577.8740, 465.0179
578.3561, 456.5272
578.8382, 454.5686
579.3203, 460.2813
579.8024, 467.3905
580.2845, 473.4459
580.7667, 477.9540
581.2488, 479.2647
581.7309, 476.5966
582.2130, 473.3094
582.6951, 467.0247
583.1772, 462.6611
583.6594, 467.2739
584.1415, 476.8575
584.6236, 480.2583
585.1057, 471.0233
585.5878, 455.9889
586.0699, 447.8120
586.5521, 447.1798
587.0342, 446.4108
587.5163, 443.9524
587.9984, 442.3315
588.4805, 443.9475
588.9626, 447.6487
589.4448, 450.7963
589.9269, 452.0142
590.4090, 454.3096
590.8911, 462.6750
591.3732, 471.3158
591.8553, 471.1360
592.3375, 461.8371
592.8196, 450.1395
593.3017, 440.7700
593.7838, 434.0586
594.2659, 431.5114
594.7480, 434.1833
595.2302, 438.6673
595.7123, 447.1387
596.1944, 455.0392
596.6765, 460.0721
597.1586, 462.1333
597.6407, 461.3768
598.1229, 456.2213
598.6050, 450.1121
599.0871, 446.3501
599.5692, 444.2264
600.0513, 441.6976
600.5334, 438.2216
601.0156, 434.5047
601.4977, 430.8603
601.9798, 427.3367
602.4619, 427.5333
602.9440, 437.5213
603.4261, 443.3155
603.9083, 441.2412
604.3904, 435.4253
604.8725, 427.4545
605.3546, 418.6619
605.8367, 413.4921
606.3188, 417.0051
606.8010, 424.4583
607.2831, 428.2970
607.7652, 428.7903
608.2473, 428.6524
608.7294, 429.0715
609.2115, 428.0013
609.6937, 422.1447
610.1758, 410.3551
610.6579, 402.7490
611.1400, 400.5406
611.6221, 400.6534
612.1042, 404.2104
612.5864, 408.5308
613.0685, 410.5841
613.5506, 409.8119
614.0327, 407.7783
614.5148, 405.6287
614.9969, 403.3058
615.4791, 400.5237
615.9612, 397.2448
616.4433, 393.8165
616.9254, 389.5129
617.4075, 386.4913
617.8896, 389.0981
618.3718, 399.1247
618.8539, 404.0977
619.3360, 399.9181
619.8181, 394.5058
620.3002, 391.9003
620.7823, 390.1824
621.2645, 385.1294
621.7466, 376.0181
622.2287, 368.1362
622.7108, 367.7751
623.1929, 373.6960
623.6750, 379.7601
624.1572, 386.6626
624.6393, 389.6957
