##NAMES=Beryllonite
##RRUFFID=R100219
##IDEAL CHEMISTRY=NaBePO_4_
##LOCALITY=Telirio mine, Linopolis, Minas Gerais, Brazil
##OWNER=RRUFF
##SOURCE=Luiz Menezes
##DESCRIPTION=Colorless tabular crystal fragments
##STATUS=The identification of this mineral is not yet confirmed.
##URL=rruff.info/R100219
136.8363, 12.73504
137.3184, 11.59517
137.8005, 11.47783
138.2826, 12.53736
138.7648, 13.45357
139.2469, 13.92715
139.7290, 14.04741
140.2111, 14.52668
140.6932, 15.58505
141.1753, 16.60169
141.6575, 16.89536
142.1396, 16.16023
142.6217, 15.52684
143.1038, 15.15377
143.5859, 15.02822
144.0681, 15.47038
144.5502, 16.93102
145.0323, 18.56191
145.5144, 19.31702
145.9965, 18.38313
146.4786, 17.81750
146.9608, 18.13326
147.4429, 19.46989
147.9250, 21.14975
148.4071, 23.74368
148.8892, 26.47446
149.3713, 28.12263
149.8535, 27.39703
150.3356, 26.88226
150.8177, 27.35337
151.2998, 29.45455
151.7819, 31.14955
152.2640, 32.44862
152.7462, 33.34714
153.2283, 33.80634
153.7104, 32.94367
154.1925, 32.35719
154.6746, 32.65405
155.1567, 34.33073
155.6389, 36.09575
156.1210, 37.55616
156.6031, 38.98553
157.0852, 41.06638
157.5673, 43.59777
158.0495, 47.03381
158.5316, 51.75741
159.0137, 59.05566
159.4958, 65.85220
159.9779, 71.44539
160.4600, 75.96070
160.9422, 79.80837
161.4243, 83.56515
161.9064, 86.44838
162.3885, 87.91967
162.8706, 87.61743
163.3527, 86.17454
163.8349, 82.99810
164.3170, 78.54288
164.7991, 74.98232
165.2812, 72.80791
165.7633, 72.21662
166.2454, 73.40938
166.7276, 77.24000
167.2097, 82.15376
167.6918, 87.67250
168.1739, 93.67444
168.6560, 99.56204
169.1381, 106.5094
169.6203, 112.6625
170.1024, 115.0883
170.5845, 114.0038
171.0666, 109.4676
171.5487, 99.45191
172.0309, 84.45725
172.5130, 70.33961
172.9951, 61.12592
173.4772, 55.39247
173.9593, 50.94378
174.4414, 47.29779
174.9236, 44.30249
175.4057, 41.90863
175.8878, 40.08255
176.3699, 38.69698
176.8520, 37.72211
177.3341, 37.08309
177.8163, 36.62267
178.2984, 36.45007
178.7805, 36.35636
179.2626, 36.01814
179.7447, 35.42828
180.2268, 34.70958
180.7090, 33.75126
181.1911, 32.71275
181.6732, 32.11420
182.1553, 32.60587
182.6374, 33.64510
183.1195, 33.97292
183.6017, 33.47430
184.0838, 32.79347
184.5659, 32.48970
185.0480, 32.57931
185.5301, 33.15802
186.0123, 34.75010
186.4944, 36.91426
186.9765, 37.98171
187.4586, 37.67788
187.9407, 37.13713
188.4228, 38.02065
188.9050, 40.21367
189.3871, 42.63712
189.8692, 45.04739
190.3513, 47.30891
190.8334, 48.63818
191.3155, 48.83659
191.7977, 48.50665
192.2798, 48.52320
192.7619, 48.88440
193.2440, 49.39698
193.7261, 50.26494
194.2082, 51.39085
194.6904, 51.66085
195.1725, 51.01294
195.6546, 49.52715
196.1367, 47.07863
196.6188, 43.57283
197.1009, 40.22043
197.5831, 37.55839
198.0652, 35.55962
198.5473, 34.38334
199.0294, 34.22980
199.5115, 34.62108
199.9937, 34.64020
200.4758, 34.27409
200.9579, 33.64403
201.4400, 32.57742
201.9221, 30.98740
202.4042, 30.23569
202.8864, 30.60809
203.3685, 31.64310
203.8506, 32.21507
204.3327, 32.19145
204.8148, 32.22074
205.2969, 32.69730
205.7791, 33.68872
206.2612, 34.63353
206.7433, 35.50187
207.2254, 36.30413
207.7075, 37.04090
208.1896, 37.67586
208.6718, 38.35701
209.1539, 39.17432
209.6360, 40.13149
210.1181, 41.13764
210.6002, 42.10659
211.0823, 43.16428
211.5645, 44.84855
212.0466, 47.59173
212.5287, 49.95815
213.0108, 51.02456
213.4929, 50.39968
213.9750, 50.07754
214.4572, 50.29831
214.9393, 50.83635
215.4214, 50.94860
215.9035, 50.35062
216.3856, 49.90593
216.8678, 50.00061
217.3499, 50.53843
217.8320, 51.99761
218.3141, 54.79203
218.7962, 58.39498
219.2783, 61.05243
219.7605, 62.29038
220.2426, 63.40117
220.7247, 65.07101
221.2068, 67.49853
221.6889, 69.84641
222.1710, 71.81083
222.6532, 73.73048
223.1353, 76.78105
223.6174, 81.85925
224.0995, 86.62889
224.5816, 89.82446
225.0637, 90.83887
225.5459, 91.77623
226.0280, 92.07759
226.5101, 92.48148
226.9922, 95.44990
227.4743, 102.3808
227.9564, 109.7050
228.4386, 115.7835
228.9207, 119.9938
229.4028, 124.3021
229.8849, 129.3675
230.3670, 134.4131
230.8492, 137.3291
231.3313, 137.5085
231.8134, 136.4484
232.2955, 134.7051
232.7776, 132.0568
233.2597, 129.3676
233.7419, 127.0022
234.2240, 124.4986
234.7061, 120.5987
235.1882, 114.5533
235.6703, 108.2838
236.1524, 102.4835
236.6346, 97.12788
237.1167, 92.33326
237.5988, 87.94744
238.0809, 84.15071
238.5630, 81.44043
239.0451, 80.58752
239.5273, 79.69150
240.0094, 78.02500
240.4915, 75.50294
240.9736, 72.31128
241.4557, 67.87801
241.9378, 63.00555
242.4200, 59.44506
242.9021, 57.82777
243.3842, 56.48137
243.8663, 54.76989
244.3484, 52.50936
244.8306, 50.39459
245.3127, 48.28992
245.7948, 46.41838
246.2769, 45.22924
246.7590, 44.90818
247.2411, 44.97932
247.7233, 45.41407
248.2054, 46.46912
248.6875, 46.90609
249.1696, 46.50868
249.6517, 45.63891
250.1338, 44.87362
250.6160, 44.27671
251.0981, 43.66219
251.5802, 42.92009
252.0623, 41.95165
252.5444, 41.36263
253.0265, 41.30597
253.5087, 41.50755
253.9908, 41.51575
254.4729, 41.01868
254.9550, 40.97776
255.4371, 41.88700
255.9192, 43.95650
256.4014, 45.12960
256.8835, 44.96848
257.3656, 44.34432
257.8477, 44.32464
258.3298, 45.12276
258.8120, 46.05487
259.2941, 46.98579
259.7762, 47.92049
260.2583, 48.80023
260.7404, 49.53175
261.2225, 50.33266
261.7047, 51.49202
262.1868, 53.14927
262.6689, 54.83241
263.1510, 56.60226
263.6331, 58.42388
264.1152, 59.41581
264.5974, 59.18811
265.0795, 58.72163
265.5616, 58.93725
266.0437, 59.94926
266.5258, 61.29650
267.0079, 63.00523
267.4901, 65.02768
267.9722, 66.78367
268.4543, 68.24049
268.9364, 69.53776
269.4185, 70.76833
269.9006, 71.91110
270.3828, 73.06950
270.8649, 74.23592
271.3470, 75.43825
271.8291, 76.75574
272.3112, 78.09460
272.7933, 79.83602
273.2755, 82.39680
273.7576, 85.92901
274.2397, 89.20261
274.7218, 91.98601
275.2039, 94.44176
275.6860, 97.02039
276.1682, 99.73399
276.6503, 102.6155
277.1324, 105.8827
277.6145, 109.5800
278.0966, 112.7241
278.5787, 115.2412
279.0609, 117.1660
279.5430, 118.5366
280.0251, 119.3109
280.5072, 119.7684
280.9893, 120.2939
281.4715, 120.8808
281.9536, 120.0773
282.4357, 117.4700
282.9178, 114.1377
283.3999, 112.0587
283.8820, 111.3070
284.3642, 110.4307
284.8463, 108.6903
285.3284, 106.1421
285.8105, 103.5218
286.2926, 100.7603
286.7747, 98.10802
287.2569, 95.77952
287.7390, 93.78497
288.2211, 92.42622
288.7032, 92.12361
289.1853, 92.60667
289.6674, 92.55260
290.1496, 91.87525
290.6317, 91.22749
291.1138, 91.52297
291.5959, 92.61735
292.0780, 93.45608
292.5602, 93.41051
293.0423, 92.98658
293.5244, 93.76059
294.0065, 95.78689
294.4886, 97.68504
294.9707, 97.99758
295.4529, 97.09753
295.9350, 96.32840
296.4171, 96.07944
296.8992, 96.10902
297.3813, 95.90503
297.8634, 95.50547
298.3456, 95.34483
298.8277, 95.94080
299.3098, 97.01134
299.7919, 97.86749
300.2740, 98.17222
300.7561, 98.54900
301.2383, 100.0901
301.7204, 102.5499
302.2025, 104.7071
302.6846, 105.3574
303.1667, 105.3567
303.6488, 106.2282
304.1310, 108.5349
304.6131, 110.6609
305.0952, 111.2446
305.5773, 110.3820
306.0594, 108.3416
306.5415, 105.4097
307.0237, 101.2979
307.5058, 95.09705
307.9879, 86.42866
308.4700, 77.97457
308.9521, 71.45586
309.4343, 66.55968
309.9164, 62.55848
310.3985, 59.47076
310.8806, 56.89549
311.3627, 54.46763
311.8448, 52.14547
312.3270, 50.32221
312.8091, 49.50328
313.2912, 49.22381
313.7733, 48.93473
314.2554, 48.26376
314.7375, 47.68786
315.2197, 47.39716
315.7018, 47.39504
316.1839, 47.71476
316.6660, 48.98394
317.1481, 50.26592
317.6302, 50.74322
318.1124, 49.31771
318.5945, 48.19550
319.0766, 48.22644
319.5587, 49.17956
320.0408, 50.24365
320.5229, 51.38729
321.0051, 52.41587
321.4872, 53.18951
321.9693, 53.46670
322.4514, 53.88750
322.9335, 54.90946
323.4156, 56.13652
323.8978, 56.80518
324.3799, 55.89320
324.8620, 55.17654
325.3441, 55.38334
325.8262, 56.91402
326.3083, 58.25581
326.7905, 59.03333
327.2726, 59.64967
327.7547, 60.58939
328.2368, 62.03112
328.7189, 63.63512
329.2010, 65.31939
329.6832, 67.05080
330.1653, 69.06633
330.6474, 71.61039
331.1295, 74.26012
331.6116, 76.67690
332.0938, 78.52624
332.5759, 80.69742
333.0580, 83.42406
333.5401, 86.62534
334.0222, 89.43533
334.5043, 91.43759
334.9865, 93.65330
335.4686, 96.81055
335.9507, 101.3828
336.4328, 105.5351
336.9149, 108.7329
337.3970, 111.7247
337.8792, 116.4213
338.3613, 123.2339
338.8434, 130.7562
339.3255, 138.5873
339.8076, 146.8421
340.2898, 154.7071
340.7719, 162.1514
341.2540, 169.3809
341.7361, 176.6981
342.2182, 183.9085
342.7003, 191.8604
343.1825, 200.7527
343.6646, 210.6214
344.1467, 221.1079
344.6288, 232.2916
345.1109, 244.1398
345.5930, 256.8017
346.0752, 270.1428
346.5573, 284.2974
347.0394, 299.1815
347.5215, 315.0933
348.0036, 333.5267
348.4857, 354.3657
348.9679, 375.8178
349.4500, 396.6764
349.9321, 417.3220
350.4142, 438.9293
350.8963, 462.1193
351.3784, 485.4369
351.8606, 507.3654
352.3427, 527.6249
352.8248, 545.6378
353.3069, 562.6042
353.7890, 576.2767
354.2711, 584.1688
354.7533, 586.1426
355.2354, 581.9244
355.7175, 570.0988
356.1996, 552.0139
356.6817, 530.0153
357.1638, 503.0635
357.6460, 474.0629
358.1281, 444.5211
358.6102, 414.6293
359.0923, 384.4924
359.5744, 352.8178
360.0565, 321.8422
360.5387, 293.7351
361.0208, 269.4362
361.5029, 247.5921
361.9850, 228.2766
362.4671, 211.1473
362.9492, 195.4428
363.4314, 180.9466
363.9135, 167.7661
364.3956, 155.9967
364.8777, 145.7390
365.3598, 136.5806
365.8419, 128.5208
366.3241, 121.4770
366.8062, 115.3882
367.2883, 110.6666
367.7704, 106.4903
368.2526, 102.7927
368.7347, 99.67029
369.2168, 96.35042
369.6989, 92.46110
370.1810, 88.57572
370.6631, 85.09837
371.1453, 81.82966
371.6274, 79.28466
372.1095, 77.76310
372.5916, 77.08515
373.0737, 76.09823
373.5558, 74.66028
374.0380, 73.11225
374.5201, 71.56450
375.0022, 69.92297
375.4843, 68.67519
375.9664, 67.96404
376.4485, 67.54359
376.9307, 66.87521
377.4128, 65.88644
377.8949, 64.98361
378.3770, 64.39018
378.8591, 64.08662
379.3412, 63.63394
379.8234, 63.02966
380.3055, 62.29839
380.7876, 61.11827
381.2697, 59.55872
381.7518, 59.14242
382.2339, 60.73468
382.7161, 63.35682
383.1982, 64.44108
383.6803, 64.04120
384.1624, 64.00065
384.6445, 66.24319
385.1266, 69.87350
385.6088, 72.64896
386.0909, 74.14204
386.5730, 74.99549
387.0551, 75.31945
387.5372, 75.48412
388.0193, 76.57433
388.5015, 79.65614
388.9836, 83.67953
389.4657, 87.59636
389.9478, 91.34701
390.4299, 95.10538
390.9120, 98.64778
391.3942, 102.3829
391.8763, 106.7655
392.3584, 112.0851
392.8405, 117.9680
393.3226, 124.0016
393.8047, 130.3507
394.2869, 137.7706
394.7690, 146.8905
395.2511, 156.9438
395.7332, 167.5084
396.2154, 178.6447
396.6975, 189.9780
397.1796, 202.6503
397.6617, 215.3982
398.1438, 225.9757
398.6259, 235.5266
399.1081, 241.6110
399.5902, 243.8143
400.0723, 242.3182
400.5544, 235.7629
401.0365, 221.7635
401.5186, 204.4043
402.0008, 186.9585
402.4829, 168.5306
402.9650, 151.4561
403.4471, 135.8350
403.9292, 121.7085
404.4113, 109.6679
404.8935, 99.91979
405.3756, 91.59255
405.8577, 84.14606
406.3398, 77.54392
406.8219, 72.71717
407.3040, 69.96736
407.7862, 68.42638
408.2683, 67.09377
408.7504, 65.99162
409.2325, 64.37121
409.7146, 61.59705
410.1967, 58.21392
410.6789, 55.94391
411.1610, 54.81263
411.6431, 54.10539
412.1252, 53.24795
412.6073, 52.33240
413.0894, 51.65224
413.5716, 51.32996
414.0537, 51.14694
414.5358, 50.70902
415.0179, 50.16016
415.5000, 49.95761
415.9821, 50.71964
416.4643, 51.75581
416.9464, 52.25479
417.4285, 52.11399
417.9106, 52.06832
418.3927, 52.87056
418.8748, 53.94514
419.3570, 54.59520
419.8391, 53.82286
420.3212, 53.32515
420.8033, 54.00146
421.2854, 55.63307
421.7675, 57.18741
422.2497, 58.38137
422.7318, 59.39426
423.2139, 60.19826
423.6960, 60.31620
424.1781, 61.26808
424.6602, 63.95087
425.1424, 67.36724
425.6245, 70.00349
426.1066, 70.70158
426.5887, 72.03305
427.0709, 74.59754
427.5530, 78.39405
428.0351, 82.40838
428.5172, 86.67455
428.9993, 91.17539
429.4814, 95.96826
429.9636, 101.1606
430.4457, 106.3145
430.9278, 111.6258
431.4099, 116.6494
431.8920, 120.8399
432.3741, 124.4384
432.8563, 125.5714
433.3384, 122.8752
433.8205, 116.7573
434.3026, 109.7228
434.7847, 101.5950
435.2668, 93.69566
435.7490, 87.11559
436.2311, 81.80549
436.7132, 77.89248
437.1953, 75.66468
437.6774, 74.47192
438.1595, 73.45132
438.6417, 72.67093
439.1238, 72.41316
439.6059, 73.09895
440.0880, 74.26575
440.5701, 75.40466
441.0522, 76.43478
441.5344, 77.66158
442.0165, 79.14318
442.4986, 80.97253
442.9807, 83.25942
443.4628, 86.14724
443.9449, 89.39384
444.4271, 92.88701
444.9092, 96.64746
445.3913, 100.8370
445.8734, 105.2078
446.3555, 110.1404
446.8376, 115.8139
447.3198, 122.3228
447.8019, 129.4368
448.2840, 136.6356
448.7661, 144.5694
449.2482, 154.1509
449.7303, 165.5627
450.2125, 178.2114
450.6946, 192.3808
451.1767, 208.0067
451.6588, 222.9775
452.1409, 236.9585
452.6230, 251.3302
453.1052, 267.0242
453.5873, 284.2696
454.0694, 301.6576
454.5515, 319.0802
455.0337, 336.5356
455.5158, 353.3695
455.9979, 369.7948
456.4800, 386.7240
456.9621, 403.9553
457.4442, 422.3044
457.9264, 443.4746
458.4085, 467.3769
458.8906, 494.7968
459.3727, 526.2685
459.8548, 561.5296
460.3369, 599.3517
460.8191, 639.5492
461.3012, 683.1520
461.7833, 732.6755
462.2654, 786.2775
462.7475, 839.8978
463.2296, 895.7047
463.7118, 948.5224
464.1939, 998.1799
464.6760, 1045.181
465.1581, 1079.007
465.6402, 1096.287
466.1223, 1099.039
466.6045, 1088.275
467.0866, 1057.194
467.5687, 1021.232
468.0508, 980.5133
468.5329, 935.3762
469.0150, 885.7174
469.4972, 830.9831
469.9793, 773.4547
470.4614, 713.1852
470.9435, 649.8709
471.4256, 589.7962
471.9077, 532.3731
472.3899, 479.3859
472.8720, 432.7413
473.3541, 392.0438
473.8362, 356.0730
474.3183, 324.6264
474.8004, 297.2661
475.2826, 273.5802
475.7647, 253.4822
476.2468, 235.7887
476.7289, 220.6543
477.2110, 207.2916
477.6931, 194.0366
478.1753, 180.8171
478.6574, 168.6965
479.1395, 158.9260
479.6216, 150.7091
480.1037, 142.8038
480.5858, 134.5228
481.0680, 127.1323
481.5501, 121.8700
482.0322, 118.0996
482.5143, 114.5503
482.9964, 110.6284
483.4786, 106.8987
483.9607, 103.5909
484.4428, 100.7550
484.9249, 98.28152
485.4070, 96.78788
485.8892, 95.28068
486.3713, 93.01252
486.8534, 88.77201
487.3355, 85.58723
487.8176, 83.79469
488.2997, 83.01491
488.7819, 82.47970
489.2640, 82.33363
489.7461, 82.11277
490.2282, 81.76674
490.7103, 81.26513
491.1924, 80.06315
491.6746, 78.03759
492.1567, 75.78883
492.6388, 73.89738
493.1209, 72.28378
493.6030, 70.44413
494.0851, 68.21941
494.5673, 65.92518
495.0494, 63.86057
495.5315, 62.07996
496.0136, 60.85467
496.4957, 60.89709
496.9778, 61.19931
497.4600, 60.37857
497.9421, 58.56672
498.4242, 57.07741
498.9063, 57.17422
499.3884, 57.65849
499.8705, 57.42809
500.3527, 55.97376
500.8348, 54.53851
501.3169, 53.49333
501.7990, 52.76893
502.2811, 52.26497
502.7632, 51.98788
503.2454, 51.91615
503.7275, 52.13347
504.2096, 52.60529
504.6917, 52.98149
505.1738, 53.27107
505.6559, 53.44915
506.1381, 53.33162
506.6202, 52.58021
507.1023, 53.03662
507.5844, 55.02692
508.0665, 57.63303
508.5486, 59.56972
509.0308, 60.82662
509.5129, 62.18813
509.9950, 63.86881
510.4771, 65.77618
510.9592, 67.81039
511.4413, 69.94678
511.9235, 72.03890
512.4056, 73.44943
512.8877, 74.95463
513.3698, 77.95588
513.8519, 82.63036
514.3340, 87.61494
514.8162, 91.78371
515.2983, 95.73649
515.7804, 100.1677
516.2625, 104.9916
516.7446, 110.7282
517.2267, 117.8077
517.7089, 125.9330
518.1910, 134.3130
518.6731, 142.5085
519.1552, 151.2268
519.6373, 160.6404
520.1194, 170.7980
520.6016, 181.6162
521.0837, 193.6825
521.5658, 205.6110
522.0479, 216.7508
522.5300, 227.5749
523.0121, 235.6588
523.4943, 241.1007
523.9764, 243.3801
524.4585, 240.0640
524.9406, 231.0577
525.4227, 223.3263
525.9048, 219.1952
526.3870, 218.1688
526.8691, 219.1952
527.3513, 222.2520
527.8334, 226.7795
528.3155, 234.2394
528.7976, 242.2875
529.2797, 248.0152
529.7618, 251.3217
530.2440, 250.9494
530.7261, 245.1629
531.2082, 235.4127
531.6903, 223.6742
532.1724, 208.5336
532.6545, 193.5583
533.1367, 178.7734
533.6188, 164.7825
534.1009, 153.1460
534.5830, 144.2077
535.0651, 137.7656
535.5472, 134.2239
536.0294, 133.9591
536.5115, 133.5764
536.9936, 132.4070
537.4757, 132.0530
537.9578, 133.8677
538.4399, 138.0270
538.9221, 143.3415
539.4042, 149.7348
539.8863, 157.2663
540.3684, 166.1694
540.8505, 176.4094
541.3326, 187.5611
541.8148, 199.2087
542.2969, 211.7492
542.7790, 225.9928
543.2611, 241.8921
543.7432, 259.4593
544.2253, 279.4186
544.7075, 300.6700
545.1896, 323.7316
545.6717, 350.0558
546.1538, 370.2124
546.6359, 381.6110
547.1180, 383.6453
547.6002, 375.4637
548.0823, 352.3357
548.5644, 324.1808
549.0465, 288.1025
549.5286, 247.8919
550.0107, 214.4968
550.4929, 189.5488
550.9750, 168.9676
551.4571, 151.4793
551.9392, 137.0324
552.4213, 127.4298
552.9034, 123.4506
553.3856, 121.6625
553.8677, 119.2501
554.3498, 116.3828
554.8319, 115.1523
555.3140, 115.8250
555.7961, 117.9524
556.2783, 121.3373
556.7604, 125.7246
557.2425, 130.3354
557.7246, 134.5004
558.2067, 139.1886
558.6888, 144.8375
559.1710, 151.6601
559.6531, 160.3777
560.1352, 172.1304
560.6173, 185.1976
561.0994, 198.0568
561.5815, 210.3631
562.0637, 225.0080
562.5458, 242.8667
563.0279, 263.0930
563.5100, 285.1793
563.9921, 309.2111
564.4742, 335.2646
564.9564, 364.1271
565.4385, 394.2971
565.9206, 424.5635
566.4027, 456.0835
566.8848, 480.7739
567.3669, 496.5733
567.8491, 503.5572
568.3312, 501.1423
568.8133, 489.4470
569.2954, 469.7964
569.7775, 441.3763
570.2596, 406.1146
570.7418, 366.4565
571.2239, 322.0401
571.7060, 278.9426
572.1881, 239.4640
572.6702, 204.8387
573.1523, 176.2694
573.6345, 156.0576
574.1166, 138.8857
574.5987, 122.7598
575.0808, 108.6270
575.5629, 97.81374
576.0450, 93.15611
576.5272, 89.26541
577.0093, 85.20129
577.4914, 81.10195
577.9735, 77.78045
578.4556, 75.36354
578.9377, 73.51875
579.4199, 72.07396
579.9020, 71.04731
580.3841, 70.50510
580.8662, 70.45958
581.3483, 70.83005
581.8304, 71.51488
582.3126, 72.54677
582.7947, 74.09688
583.2768, 76.28625
583.7589, 78.72763
584.2410, 80.94224
584.7231, 83.11089
585.2053, 85.59147
585.6874, 88.58244
586.1696, 91.87951
586.6517, 95.05348
587.1338, 98.33537
587.6159, 102.7471
588.0980, 109.4889
588.5801, 116.5774
589.0623, 123.2833
589.5444, 129.6044
590.0265, 135.6006
590.5086, 142.0801
590.9907, 147.2025
591.4728, 149.3736
591.9550, 148.2692
592.4371, 146.2619
592.9192, 143.6299
593.4013, 139.9582
593.8834, 133.7918
594.3655, 125.6446
594.8477, 118.6997
595.3298, 114.0182
595.8119, 111.0939
596.2940, 109.5163
596.7761, 109.2075
597.2582, 109.8540
597.7404, 112.0086
598.2225, 114.5073
598.7046, 116.8910
599.1867, 119.0892
599.6688, 120.1448
600.1509, 120.5363
600.6331, 119.1534
601.1152, 115.0528
601.5973, 106.9454
602.0794, 99.14480
602.5615, 91.73545
603.0436, 84.61710
603.5258, 77.65182
604.0079, 70.71261
604.4900, 64.77286
604.9721, 60.18549
605.4542, 56.49174
605.9363, 52.77628
606.4185, 49.12405
606.9006, 45.98873
607.3827, 43.75451
607.8648, 42.11140
608.3469, 40.85826
608.8290, 39.91362
609.3112, 38.88787
609.7933, 37.03550
610.2754, 35.36013
610.7575, 34.83590
611.2396, 35.77047
611.7217, 36.27974
612.2039, 35.35604
612.6860, 34.11370
613.1681, 33.40691
613.6502, 33.68689
614.1323, 33.77774
614.6144, 33.70628
615.0966, 33.40945
615.5787, 32.66865
616.0608, 31.37350
616.5429, 30.39923
617.0250, 30.06163
617.5071, 30.03559
617.9893, 29.52283
618.4714, 28.58991
618.9535, 27.77752
619.4356, 27.35951
619.9177, 27.21180
620.3998, 27.29045
620.8820, 27.55477
621.3641, 27.67686
621.8462, 26.94778
622.3283, 26.36953
622.8104, 26.99315
623.2925, 29.54665
623.7747, 30.85782
624.2568, 28.91946
624.7389, 26.41178
625.2210, 25.61445
625.7031, 27.89550
626.1852, 28.77147
626.6674, 27.49424
627.1495, 25.29608
627.6316, 24.14348
628.1137, 24.06140
628.5958, 24.48161
629.0779, 25.50739
629.5601, 26.63525
630.0422, 26.73187
630.5243, 25.97634
631.0064, 25.21852
631.4885, 24.91166
631.9706, 24.83449
632.4528, 24.72785
632.9349, 24.61162
633.4170, 24.77530
633.8991, 25.94732
634.3812, 26.98363
634.8633, 27.08391
635.3455, 25.72641
635.8276, 24.84111
636.3097, 24.59263
636.7918, 24.72347
637.2739, 25.13402
637.7560, 26.01157
638.2382, 26.32211
638.7203, 25.80862
639.2024, 25.03306
639.6845, 24.87375
640.1666, 25.26511
640.6487, 25.69067
641.1309, 26.06651
641.6130, 26.30280
642.0951, 26.16664
642.5772, 25.77173
643.0594, 25.44430
643.5415, 25.34144
644.0236, 25.35305
644.5057, 25.54336
644.9879, 25.86172
645.4700, 25.87703
645.9521, 25.08845
646.4342, 24.34369
646.9163, 24.06742
647.3984, 24.36848
647.8806, 24.33584
648.3627, 23.75514
648.8448, 23.24285
649.3269, 23.55157
649.8090, 24.67731
650.2911, 24.69222
650.7733, 23.23065
651.2554, 21.64448
651.7375, 21.66432
652.2196, 22.80436
652.7017, 23.92466
653.1838, 24.85646
653.6660, 25.38287
654.1481, 25.00332
654.6302, 24.15499
655.1123, 23.60513
655.5944, 23.81777
656.0765, 24.14911
656.5587, 24.56911
657.0408, 24.98337
657.5229, 24.95875
658.0050, 24.15029
658.4871, 23.49892
658.9692, 23.41973
659.4514, 23.83790
659.9335, 23.85661
660.4156, 23.42553
660.8977, 23.01126
661.3798, 22.96603
661.8619, 23.19613
662.3441, 23.57703
662.8262, 24.11332
663.3083, 24.34517
663.7904, 23.47752
664.2725, 22.31507
664.7546, 21.79203
665.2368, 22.31626
665.7189, 22.88291
666.2010, 23.13436
666.6831, 23.26529
667.1652, 23.49932
667.6473, 23.90796
668.1295, 24.32491
668.6116, 24.77503
669.0937, 25.20575
669.5758, 25.56104
670.0579, 25.86780
670.5400, 25.81598
671.0222, 25.12057
671.5043, 24.22016
671.9864, 24.09855
672.4685, 24.63021
672.9506, 25.19578
673.4327, 25.51599
673.9149, 25.66282
674.3970, 25.68060
674.8791, 25.57625
675.3612, 25.39050
675.8433, 25.09174
676.3254, 24.75420
676.8076, 24.37709
677.2897, 23.92761
677.7718, 23.68048
678.2539, 23.68086
678.7360, 23.82421
679.2181, 24.10656
679.7003, 24.56000
680.1824, 24.79649
680.6645, 24.79756
681.1466, 24.60749
681.6287, 23.84064
682.1108, 22.91728
682.5930, 23.30006
683.0751, 25.72647
683.5572, 27.93918
684.0393, 27.69214
684.5214, 26.13102
685.0035, 24.90022
685.4857, 24.56714
685.9678, 24.56879
686.4499, 25.00696
686.9320, 25.66248
687.4141, 26.03839
687.8962, 25.90743
688.3784, 25.94680
688.8605, 26.43680
689.3426, 27.14833
689.8247, 27.18740
690.3068, 26.52728
690.7889, 25.92353
691.2711, 25.75231
691.7532, 25.87951
692.2353, 26.06344
692.7174, 26.30762
693.1995, 26.64371
693.6816, 27.21813
694.1638, 27.79760
694.6459, 28.17368
695.1280, 28.32245
695.6101, 28.50024
696.0922, 28.81283
696.5743, 29.13640
697.0565, 29.42211
697.5386, 29.69648
698.0207, 29.83627
698.5028, 29.84449
698.9849, 29.71286
699.4670, 29.38619
699.9492, 28.88446
700.4313, 28.39842
700.9135, 27.94304
701.3956, 27.56152
701.8777, 27.27192
702.3598, 27.09678
702.8419, 27.16347
703.3240, 27.87864
703.8062, 28.07326
704.2883, 26.36979
704.7704, 23.98950
705.2525, 22.74681
705.7346, 24.06473
706.2167, 25.08715
706.6989, 25.35632
707.1810, 25.25223
707.6631, 25.72213
708.1452, 26.90017
708.6273, 27.79420
709.1094, 28.03763
709.5916, 27.87812
710.0737, 27.93271
710.5558, 28.12707
711.0379, 28.07803
711.5200, 27.03795
712.0021, 26.07217
712.4843, 26.31693
712.9664, 27.56308
713.4485, 28.65486
713.9306, 28.90967
714.4127, 29.13278
714.8948, 29.89229
715.3770, 31.22051
715.8591, 31.56414
716.3412, 30.35451
716.8233, 29.28170
717.3054, 29.43436
717.7875, 30.75720
718.2697, 31.81980
718.7518, 32.62925
719.2339, 33.20603
719.7160, 33.47257
720.1981, 33.55611
720.6802, 33.62888
721.1624, 33.70263
721.6445, 33.86937
722.1266, 34.31578
722.6087, 34.80009
723.0908, 35.10415
723.5729, 35.09323
724.0551, 35.10351
724.5372, 35.24620
725.0193, 35.32985
725.5014, 35.13593
725.9835, 34.61907
726.4656, 34.07201
726.9478, 33.47784
727.4299, 32.97154
727.9120, 32.93067
728.3941, 33.15619
728.8762, 32.93243
729.3583, 31.77715
729.8405, 30.73390
730.3226, 30.72562
730.8047, 31.40853
731.2868, 32.21285
731.7689, 33.51031
732.2510, 34.27821
732.7332, 33.79820
733.2153, 32.74181
733.6974, 32.46582
734.1795, 33.22301
734.6616, 34.07312
735.1437, 34.73447
735.6259, 35.37685
736.1080, 36.59889
736.5901, 38.31504
737.0722, 39.76102
737.5543, 40.23400
738.0364, 40.50344
738.5186, 41.58287
739.0007, 43.25446
739.4828, 44.77483
739.9649, 45.60482
740.4470, 46.41985
740.9291, 47.68536
741.4113, 49.33118
741.8934, 50.32996
742.3755, 50.16414
742.8576, 50.31437
743.3397, 51.65088
743.8218, 53.92451
744.3040, 55.11360
744.7861, 55.20257
745.2682, 54.50467
745.7503, 52.96533
746.2324, 50.86890
746.7145, 48.49006
747.1967, 45.87726
747.6788, 43.71938
748.1609, 43.36904
748.6430, 42.85728
749.1251, 40.24908
749.6072, 34.43642
750.0894, 31.88824
750.5715, 34.93515
751.0536, 38.42736
751.5357, 38.82401
752.0178, 35.76649
752.4999, 34.18258
752.9821, 34.21879
753.4642, 34.74253
753.9463, 34.97992
754.4284, 34.86481
754.9105, 34.05392
755.3926, 32.40023
755.8748, 31.06932
756.3569, 31.07095
756.8390, 31.57021
757.3211, 31.81383
757.8032, 31.51891
758.2853, 31.32374
758.7675, 31.33395
759.2496, 31.38732
759.7318, 31.28982
760.2139, 30.98997
760.6960, 30.97178
761.1781, 31.31717
761.6602, 31.79580
762.1423, 32.20288
762.6245, 32.51874
763.1066, 32.63881
763.5887, 32.44505
764.0708, 32.38339
764.5529, 32.89614
765.0350, 33.66358
765.5172, 34.30648
765.9993, 34.54553
766.4814, 34.93146
766.9635, 35.63814
767.4456, 36.39297
767.9277, 36.78612
768.4099, 36.74272
768.8920, 36.89886
769.3741, 37.44069
769.8562, 38.00178
770.3383, 37.79427
770.8204, 37.16862
771.3026, 37.16674
771.7847, 38.58348
772.2668, 39.81687
772.7489, 39.39204
773.2310, 38.17379
773.7131, 37.52531
774.1953, 38.28241
774.6774, 38.94695
775.1595, 39.49579
775.6416, 39.78451
776.1237, 39.48932
776.6058, 38.55143
777.0880, 37.39807
777.5701, 35.96165
778.0522, 34.68898
778.5343, 34.55778
779.0164, 35.24192
779.4985, 35.82066
779.9807, 36.21616
780.4628, 36.02396
780.9449, 34.24297
781.4270, 31.77829
781.9091, 30.47544
782.3912, 32.09258
782.8734, 33.14894
783.3555, 32.91754
783.8376, 31.95308
784.3197, 31.70981
784.8018, 32.26266
785.2839, 32.62502
785.7661, 32.49377
786.2482, 32.00695
786.7303, 31.08345
787.2124, 29.97138
787.6945, 29.35169
788.1766, 29.79049
788.6588, 30.55498
789.1409, 31.73764
789.6230, 32.96968
790.1051, 33.17961
790.5872, 31.33603
791.0693, 29.95112
791.5515, 29.61889
792.0336, 30.01929
792.5157, 30.27450
792.9978, 30.38381
793.4799, 30.53687
793.9620, 30.88296
794.4442, 31.22012
794.9263, 31.18065
795.4084, 30.88340
795.8905, 30.66030
796.3726, 30.44616
796.8547, 30.55935
797.3369, 31.35144
797.8190, 32.60405
798.3011, 33.56231
798.7832, 34.16694
799.2653, 34.57952
799.7474, 34.81251
800.2296, 34.89836
800.7117, 34.85383
801.1938, 34.70195
801.6759, 34.68365
802.1580, 34.79911
802.6401, 35.20663
803.1223, 36.65230
803.6044, 38.55751
804.0865, 39.39585
804.5686, 37.47466
805.0507, 35.66124
805.5328, 34.97146
806.0150, 35.05314
806.4971, 35.00143
806.9792, 34.75097
807.4613, 34.58828
807.9434, 34.63195
808.4255, 34.76716
808.9077, 34.84993
809.3898, 34.82311
809.8719, 34.40774
810.3540, 32.92256
810.8361, 31.59381
811.3182, 31.67852
811.8004, 32.64938
812.2825, 33.25701
812.7646, 32.82603
813.2467, 32.43323
813.7288, 32.28741
814.2109, 32.30655
814.6931, 32.22723
815.1752, 32.00680
815.6573, 32.15611
816.1394, 33.05777
816.6215, 34.02318
817.1037, 33.74623
817.5858, 32.58870
818.0679, 31.49291
818.5500, 30.59501
819.0322, 30.14468
819.5143, 30.77623
819.9964, 31.87601
820.4785, 32.10598
820.9606, 30.87566
821.4427, 29.73572
821.9249, 28.75807
822.4070, 28.15164
822.8891, 28.67254
823.3712, 30.18258
823.8533, 31.15913
824.3354, 31.14703
824.8176, 30.49616
825.2997, 28.98525
825.7818, 27.24487
826.2639, 26.38602
826.7460, 27.47218
827.2281, 28.62441
827.7103, 29.70270
828.1924, 30.49190
828.6745, 30.62971
829.1566, 29.94978
829.6387, 29.22495
830.1208, 28.48446
830.6030, 27.93937
831.0851, 28.10790
831.5672, 28.74628
832.0493, 29.20457
832.5314, 29.32463
833.0135, 29.17689
833.4957, 28.44056
833.9778, 27.62381
834.4599, 27.31536
834.9420, 28.31443
835.4241, 28.85071
835.9063, 28.78537
836.3884, 28.41895
836.8705, 27.99643
837.3526, 27.52749
837.8347, 27.43876
838.3168, 27.84632
838.7990, 28.28130
839.2811, 28.04438
839.7632, 27.61442
840.2453, 27.77260
840.7274, 28.96616
841.2095, 29.72469
841.6917, 29.14279
842.1738, 28.21251
842.6559, 27.69486
843.1380, 27.67584
843.6201, 27.76852
844.1022, 27.96997
844.5844, 28.29314
845.0665, 28.91317
845.5486, 29.65112
846.0307, 29.93540
846.5128, 29.70899
846.9949, 29.45598
847.4771, 29.72222
847.9592, 29.93228
848.4413, 29.46152
848.9234, 27.97613
849.4055, 27.42118
849.8876, 28.41623
850.3698, 29.42356
850.8519, 29.45920
851.3340, 28.61731
851.8161, 27.95572
852.2982, 27.47660
852.7803, 27.49456
853.2625, 28.95434
853.7446, 30.55842
854.2267, 30.61120
854.7088, 29.21944
855.1909, 28.42348
855.6730, 29.75323
856.1552, 30.89346
856.6373, 30.81216
857.1194, 29.70793
857.6015, 29.30205
858.0836, 29.70276
858.5657, 29.95483
859.0479, 29.45220
859.5300, 28.61774
860.0121, 28.29765
860.4942, 28.37073
860.9763, 28.41812
861.4584, 28.15644
861.9406, 27.89823
862.4227, 27.65772
862.9048, 27.54009
863.3869, 27.92971
863.8690, 29.28539
864.3511, 29.92536
864.8333, 29.14641
865.3154, 27.83595
865.7975, 28.09353
866.2796, 29.54603
866.7617, 30.56665
867.2438, 30.50567
867.7260, 29.98289
868.2081, 28.94586
868.6902, 27.91025
869.1723, 27.65448
869.6544, 29.48006
870.1365, 30.43386
870.6187, 29.94977
871.1008, 29.00859
871.5829, 29.01393
872.0650, 29.91505
872.5471, 30.72653
873.0292, 31.33646
873.5114, 31.64326
873.9935, 31.34503
874.4756, 30.77127
874.9577, 30.34738
875.4399, 30.20388
875.9220, 30.04598
876.4041, 29.56247
876.8862, 29.24937
877.3683, 29.55863
877.8505, 30.67152
878.3326, 31.07349
878.8147, 30.68268
879.2968, 30.17602
879.7789, 30.09854
880.2610, 30.31159
880.7432, 30.59689
881.2253, 30.93990
881.7074, 31.39436
882.1895, 32.19389
882.6716, 32.92480
883.1537, 33.50051
883.6359, 33.89799
884.1180, 33.29314
884.6001, 31.31311
885.0822, 29.90351
885.5643, 30.31083
886.0464, 31.75417
886.5286, 32.43617
887.0107, 32.47996
887.4928, 32.39160
887.9749, 32.31097
888.4570, 32.29520
888.9391, 32.50074
889.4213, 32.79702
889.9034, 32.76365
890.3855, 32.25116
890.8676, 31.69574
891.3497, 31.01988
891.8318, 30.58155
892.3140, 31.53176
892.7961, 33.39245
893.2782, 34.11838
893.7603, 32.52556
894.2424, 30.98411
894.7245, 31.68309
895.2067, 33.26974
895.6888, 34.08413
896.1709, 32.96043
896.6530, 32.53011
897.1351, 33.03996
897.6172, 33.86248
898.0994, 34.40734
898.5815, 34.69222
899.0636, 34.75273
899.5457, 34.57469
900.0278, 34.46133
900.5099, 34.73851
900.9921, 35.14453
901.4742, 35.48383
901.9563, 35.74472
902.4384, 35.77313
902.9205, 35.30530
903.4026, 34.98177
903.8848, 35.22683
904.3669, 35.92512
904.8490, 35.94224
905.3311, 35.31301
905.8132, 34.97268
906.2953, 35.78638
906.7775, 36.93372
907.2596, 37.73109
907.7417, 38.18179
908.2238, 38.35913
908.7059, 38.14994
909.1880, 37.79048
909.6702, 37.18233
910.1523, 36.54633
910.6344, 36.52601
911.1165, 37.10504
911.5986, 37.46041
912.0807, 37.29036
912.5629, 37.00645
913.0450, 37.11620
913.5271, 37.40810
914.0092, 37.54422
914.4913, 37.14446
914.9734, 37.12672
915.4556, 37.96989
915.9377, 38.91462
916.4198, 39.19954
916.9019, 38.77031
917.3840, 38.63743
917.8661, 38.85965
918.3483, 39.31777
918.8304, 40.21612
919.3125, 41.11657
919.7946, 41.37480
920.2767, 40.91882
920.7589, 40.56377
921.2410, 40.38703
921.7231, 40.56802
922.2052, 41.33160
922.6873, 42.56593
923.1694, 43.25032
923.6516, 43.36773
924.1337, 43.34047
924.6158, 43.37217
925.0979, 43.37920
925.5800, 43.04395
926.0621, 42.59921
926.5443, 42.62449
927.0264, 44.10364
927.5085, 45.05358
927.9906, 44.67643
928.4727, 43.85911
928.9548, 44.25716
929.4370, 45.93120
929.9191, 46.97573
930.4012, 46.97319
930.8833, 46.61890
931.3654, 46.49956
931.8475, 46.59324
932.3297, 46.89946
932.8118, 47.47535
933.2939, 48.04901
933.7761, 48.88689
934.2582, 49.36303
934.7403, 48.91729
935.2224, 47.51054
935.7045, 46.79205
936.1866, 46.76912
936.6688, 47.07112
937.1509, 47.52464
937.6330, 48.10019
938.1151, 48.85237
938.5972, 49.72900
939.0793, 50.44382
939.5615, 50.89145
940.0436, 51.18141
940.5257, 51.24564
941.0078, 51.22730
941.4899, 51.63699
941.9720, 52.44610
942.4542, 52.78048
942.9363, 52.13011
943.4184, 51.56591
943.9005, 52.59297
944.3826, 54.30471
944.8647, 55.42443
945.3469, 55.06205
945.8290, 55.24010
946.3111, 56.51475
946.7932, 57.85164
947.2753, 58.16437
947.7574, 57.53634
948.2396, 57.79999
948.7217, 59.02429
949.2038, 60.19970
949.6859, 60.26961
950.1680, 60.13923
950.6501, 60.82610
951.1323, 62.30248
951.6144, 63.04893
952.0965, 62.46165
952.5786, 61.86136
953.0607, 61.57398
953.5428, 61.59550
954.0250, 61.96067
954.5071, 62.64187
954.9892, 63.49573
955.4713, 64.53704
955.9534, 65.59580
956.4355, 66.58605
956.9177, 67.49266
957.3998, 68.30204
957.8819, 68.94595
958.3640, 69.60027
958.8461, 70.20444
959.3282, 70.95743
959.8104, 72.26376
960.2925, 73.88414
960.7746, 74.84131
961.2567, 75.06403
961.7388, 75.33836
962.2209, 76.26279
962.7031, 77.34682
963.1852, 78.27621
963.6673, 79.03699
964.1494, 79.69697
964.6315, 80.09245
965.1136, 80.98643
965.5958, 82.96654
966.0779, 85.29052
966.5600, 86.16746
967.0421, 86.12277
967.5242, 86.57833
968.0063, 88.68826
968.4885, 90.57975
968.9706, 91.38217
969.4527, 91.68234
969.9348, 92.12601
970.4169, 92.62919
970.8990, 93.75533
971.3812, 95.58879
971.8633, 97.71886
972.3454, 99.85535
972.8275, 101.9380
973.3096, 103.8836
973.7917, 105.6768
974.2739, 107.4571
974.7560, 109.2279
975.2381, 111.0342
975.7202, 112.8720
976.2023, 114.7665
976.6844, 116.8050
977.1666, 119.0073
977.6487, 121.6941
978.1308, 125.3088
978.6129, 128.9113
979.0950, 131.1060
979.5771, 132.7413
980.0593, 135.2226
980.5414, 139.7967
981.0235, 143.8991
981.5056, 147.1574
981.9877, 150.3678
982.4698, 154.6532
982.9520, 159.7511
983.4341, 163.7361
983.9162, 166.5029
984.3983, 169.6501
984.8804, 174.3159
985.3625, 179.8171
985.8447, 185.6816
986.3268, 191.9221
986.8089, 198.5284
987.2910, 205.4460
987.7731, 212.8411
988.2552, 220.6700
988.7374, 229.1781
989.2195, 239.1445
989.7016, 250.0931
990.1837, 260.5600
990.6658, 269.1908
991.1479, 278.9962
991.6301, 291.5688
992.1122, 305.7618
992.5944, 320.2077
993.0765, 334.1413
993.5586, 351.4369
994.0407, 372.3622
994.5228, 394.7800
995.0049, 416.3135
995.4871, 438.6415
995.9692, 464.0772
996.4513, 492.7920
996.9334, 524.2294
997.4155, 557.6583
997.8976, 594.5526
998.3798, 635.1519
998.8619, 679.3357
999.3440, 727.5774
999.8261, 780.1462
1000.308, 837.4235
1000.790, 899.6248
1001.272, 966.0497
1001.755, 1036.260
1002.237, 1111.186
1002.719, 1190.862
1003.201, 1275.975
1003.683, 1366.404
1004.165, 1462.639
1004.647, 1565.352
1005.129, 1677.410
1005.612, 1797.344
1006.094, 1925.664
1006.576, 2060.632
1007.058, 2199.751
1007.540, 2345.902
1008.022, 2489.140
1008.504, 2630.865
1008.986, 2766.880
1009.468, 2896.655
1009.951, 3023.092
1010.433, 3115.373
1010.915, 3170.628
1011.397, 3185.597
1011.879, 3153.489
1012.361, 3081.302
1012.843, 2973.170
1013.325, 2827.964
1013.807, 2663.515
1014.290, 2473.452
1014.772, 2279.429
1015.254, 2088.108
1015.736, 1902.987
1016.218, 1730.236
1016.700, 1570.208
1017.182, 1425.404
1017.664, 1296.079
1018.147, 1181.057
1018.629, 1081.094
1019.111, 994.6918
1019.593, 917.5653
1020.075, 849.8138
1020.557, 789.2835
1021.039, 736.0870
1021.521, 689.3015
1022.003, 649.4372
1022.486, 614.6613
1022.968, 582.2641
1023.450, 552.0073
1023.932, 525.1541
1024.414, 503.4866
1024.896, 484.0516
1025.378, 466.1230
1025.860, 449.4715
1026.343, 433.1448
1026.825, 417.4677
1027.307, 403.4974
1027.789, 391.8312
1028.271, 381.0630
1028.753, 369.9329
1029.235, 358.9712
1029.717, 348.9228
1030.199, 339.9215
1030.682, 331.3686
1031.164, 323.0679
1031.646, 315.5673
1032.128, 308.8410
1032.610, 303.1906
1033.092, 299.7187
1033.574, 298.1141
1034.056, 297.3509
1034.539, 296.9847
1035.021, 297.3662
1035.503, 298.6939
1035.985, 300.7654
1036.467, 303.4557
1036.949, 306.7491
1037.431, 310.2705
1037.913, 313.9071
1038.396, 318.3449
1038.878, 324.8353
1039.360, 332.0013
1039.842, 338.4805
1040.324, 344.1485
1040.806, 350.7068
1041.288, 358.4541
1041.770, 366.7316
1042.252, 375.5973
1042.734, 384.7357
1043.217, 393.5338
1043.699, 402.2311
1044.181, 411.5674
1044.663, 422.1924
1045.145, 432.7567
1045.627, 444.0104
1046.109, 454.0245
1046.591, 461.5515
1047.074, 466.6254
1047.556, 468.0957
1048.038, 465.9691
1048.520, 461.4600
1049.002, 455.2962
1049.484, 447.2751
1049.966, 436.7464
1050.448, 424.1785
1050.931, 410.6312
1051.413, 395.5531
1051.895, 381.2833
1052.377, 368.4434
1052.859, 355.5428
1053.341, 339.5036
1053.823, 321.9897
1054.305, 306.7154
1054.787, 294.1149
1055.270, 281.9621
1055.752, 268.4008
1056.234, 256.0606
1056.716, 246.2090
1057.198, 236.7769
1057.680, 230.7138
1058.162, 223.2986
1058.644, 218.0777
1059.126, 215.8200
1059.609, 215.5695
1060.091, 216.2351
1060.573, 218.5824
1061.055, 223.6064
1061.537, 231.4490
1062.019, 241.5722
1062.501, 254.1517
1062.983, 268.4330
1063.466, 284.5633
1063.948, 301.5453
1064.430, 318.9002
1064.912, 335.7558
1065.394, 349.5360
1065.876, 360.9106
1066.358, 366.2597
1066.840, 364.7416
1067.323, 358.0078
1067.805, 347.8134
1068.287, 334.1225
1068.769, 316.3296
1069.251, 294.3637
1069.733, 272.8944
1070.215, 255.3602
1070.697, 239.3952
1071.179, 223.9265
1071.661, 208.9441
1072.144, 195.2246
1072.626, 182.8548
1073.108, 171.8730
1073.590, 162.3547
1074.072, 154.3880
1074.554, 148.8560
1075.036, 144.7299
1075.518, 140.9286
1076.001, 137.6312
1076.483, 132.8057
1076.965, 125.7443
1077.447, 118.5180
1077.929, 112.2775
1078.411, 106.6583
1078.893, 100.4974
1079.375, 94.02725
1079.858, 88.00980
1080.340, 82.31094
1080.822, 77.64565
1081.304, 74.88914
1081.786, 72.82994
1082.268, 70.44778
1082.750, 67.74876
1083.232, 65.41366
1083.714, 63.43964
1084.197, 61.70579
1084.679, 59.86983
1085.161, 58.46831
1085.643, 58.45606
1086.125, 59.21247
1086.607, 58.59961
1087.089, 56.00616
1087.571, 54.16743
1088.054, 53.61164
1088.536, 53.40813
1089.018, 52.42988
1089.500, 51.11404
1089.982, 50.13223
1090.464, 49.55879
1090.946, 48.88277
1091.428, 47.58579
1091.911, 46.91290
1092.393, 47.56936
1092.875, 48.75513
1093.357, 48.41756
1093.839, 46.97807
1094.321, 45.69378
1094.803, 44.83738
1095.285, 44.42064
1095.767, 44.90356
1096.250, 45.43653
1096.732, 45.45377
1097.214, 44.97857
1097.696, 44.43859
1098.178, 43.83373
1098.660, 43.21152
1099.142, 42.62441
1099.624, 41.98779
1100.106, 40.96734
1100.589, 39.96580
1101.071, 39.67959
1101.553, 40.46610
1102.035, 40.77111
1102.517, 40.50879
1102.999, 40.08044
1103.481, 39.78784
1103.963, 39.55202
1104.446, 39.42043
1104.928, 39.28472
1105.410, 38.68164
1105.892, 36.79097
1106.374, 35.67985
1106.856, 35.71700
1107.338, 36.43747
1107.820, 37.60622
1108.302, 38.87414
1108.785, 39.32206
1109.267, 38.84416
1109.749, 38.38440
1110.231, 37.96903
1110.713, 38.17256
1111.195, 39.61141
1111.677, 41.52652
1112.159, 41.68045
1112.641, 40.30759
1113.124, 38.82941
1113.606, 37.56833
1114.088, 36.35587
1114.570, 34.60647
1115.052, 33.25845
1115.534, 33.23386
1116.016, 34.44846
1116.498, 35.37961
1116.981, 36.03619
1117.463, 36.32617
1117.945, 36.04299
1118.427, 35.64501
1118.909, 35.76809
1119.391, 35.20207
1119.873, 35.64397
1120.355, 34.33677
1120.838, 33.44308
1121.320, 32.97179
1121.802, 32.87516
1122.284, 33.38889
1122.766, 34.08411
1123.248, 34.28453
1123.730, 34.13065
1124.212, 34.01409
1124.694, 34.21559
1125.177, 34.18113
1125.659, 33.78203
1126.141, 33.32097
1126.623, 33.10943
1127.105, 33.08901
1127.587, 33.14462
1128.069, 33.25302
1128.551, 33.30875
1129.033, 33.14608
1129.516, 33.08114
1129.998, 33.23068
1130.480, 33.48413
1130.962, 33.74332
1131.444, 33.95839
1131.926, 33.81181
1132.408, 33.24332
1132.890, 32.69629
1133.373, 32.07098
1133.855, 31.95353
1134.337, 32.83845
1134.819, 34.42817
1135.301, 35.87210
1135.783, 37.14948
1136.265, 37.81157
1136.747, 37.53025
1137.229, 37.48612
1137.712, 38.96065
1138.194, 40.92510
1138.676, 42.50860
1139.158, 43.68782
1139.640, 44.57377
1140.122, 45.09706
1140.604, 46.08768
1141.086, 48.01503
1141.569, 50.34381
1142.051, 52.84241
1142.533, 55.24043
1143.015, 57.09779
1143.497, 57.94458
1143.979, 59.73118
1144.461, 62.62922
1144.943, 65.76311
1145.426, 68.85072
1145.908, 71.56628
1146.390, 73.45571
1146.872, 74.48341
1147.354, 74.59208
1147.836, 73.04648
1148.318, 71.70430
1148.800, 70.92445
1149.282, 69.63120
1149.765, 66.39120
1150.247, 62.18163
1150.729, 59.20933
1151.211, 57.28004
1151.693, 55.32177
1152.175, 53.14283
1152.657, 50.47829
1153.139, 46.81727
1153.621, 43.41729
1154.104, 42.35600
1154.586, 42.75381
1155.068, 41.29131
1155.550, 37.95358
1156.032, 35.26344
1156.514, 34.92791
1156.996, 34.86592
1157.478, 34.44128
1157.961, 33.82744
1158.443, 33.27503
1158.925, 32.79955
1159.407, 32.53508
1159.889, 32.50922
1160.371, 32.44906
1160.853, 31.96937
1161.335, 31.66647
1161.818, 32.09435
1162.300, 31.44242
1162.782, 32.39642
1163.264, 30.93411
1163.746, 30.07133
1164.228, 30.25741
1164.710, 30.47715
1165.192, 29.89905
1165.674, 29.15188
1166.156, 28.66393
1166.639, 28.42199
1167.121, 28.39619
1167.603, 28.58499
1168.085, 28.64185
1168.567, 28.35606
1169.049, 28.20745
1169.531, 28.95930
1170.013, 29.81336
1170.496, 29.92884
1170.978, 29.29529
1171.460, 28.44006
1171.942, 27.33148
1172.424, 26.50382
1172.906, 26.28608
1173.388, 26.29898
1173.870, 25.99442
1174.353, 26.56488
1174.835, 26.32804
1175.317, 27.84733
1175.799, 29.02570
1176.281, 29.89032
1176.763, 30.26023
1177.245, 29.84995
1177.727, 29.10123
1178.209, 28.24265
1178.692, 27.49084
1179.174, 27.27974
1179.656, 28.02850
1180.138, 28.17744
1180.620, 27.60022
1181.102, 27.07697
1181.584, 27.24405
1182.066, 27.72842
1182.548, 28.23171
1183.031, 28.65124
1183.513, 28.72660
1183.995, 28.12271
1184.477, 27.93059
1184.959, 28.30389
1185.441, 28.65927
1185.923, 28.35710
1186.405, 27.81033
1186.888, 27.49841
1187.370, 27.44048
1187.852, 27.68486
1188.334, 28.61419
1188.816, 28.98068
1189.298, 28.54130
1189.780, 27.96100
1190.262, 27.96899
1190.745, 28.25249
1191.227, 28.42695
1191.709, 28.44882
1192.191, 28.20895
1192.673, 27.40116
1193.155, 26.90158
1193.637, 26.84884
1194.119, 27.07165
1194.601, 27.64328
1195.084, 28.21162
1195.566, 27.97304
1196.048, 26.99563
1196.530, 26.65684
1197.012, 27.81970
1197.494, 28.35864
1197.976, 27.71086
1198.458, 26.68494
1198.941, 26.24713
1199.423, 26.29798
1199.905, 26.99626
1200.387, 28.31058
1200.869, 28.58758
1201.351, 26.78386
1201.833, 25.42189
1202.315, 25.10567
1202.797, 25.52828
1203.280, 26.74381
1203.762, 28.12461
1204.244, 28.33997
1204.726, 27.11534
1205.208, 26.61930
1205.690, 27.78387
1206.172, 28.48565
1206.654, 27.90769
1207.136, 26.88675
1207.619, 26.98829
1208.101, 27.66063
1208.583, 27.96365
1209.065, 27.71342
1209.547, 27.16947
1210.029, 26.00517
1210.511, 25.41800
1210.993, 26.09558
1211.476, 27.15804
1211.958, 26.66781
1212.440, 25.50654
1212.922, 25.48466
1213.404, 27.36305
1213.886, 28.04563
1214.368, 26.70432
1214.850, 25.43210
1215.333, 25.11607
1215.815, 25.33686
1216.297, 25.39050
1216.779, 25.39696
1217.261, 25.62635
1217.743, 26.27593
1218.225, 26.55467
1218.707, 26.31660
1219.189, 25.94804
1219.672, 25.55496
1220.154, 25.22949
1220.636, 25.22594
1221.118, 25.38305
1221.600, 25.38280
1222.082, 25.01579
1222.564, 24.97504
1223.046, 25.39264
1223.528, 25.83082
1224.011, 26.12286
1224.493, 26.22923
1224.975, 25.99572
1225.457, 25.55632
1225.939, 25.08808
1226.421, 24.39913
1226.903, 24.56959
1227.385, 25.99349
1227.868, 26.86770
1228.350, 25.83814
1228.832, 24.07096
1229.314, 22.98813
1229.796, 22.57235
1230.278, 22.92630
1230.760, 24.63597
1231.242, 25.38021
1231.724, 24.97580
1232.207, 24.49407
1232.689, 24.51571
1233.171, 24.86686
1233.653, 25.70119
1234.135, 26.57068
1234.617, 26.65209
1235.099, 25.55898
1235.581, 24.63764
1236.063, 23.86287
1236.546, 23.49179
1237.028, 24.03832
1237.510, 24.70579
1237.992, 24.70262
1238.474, 24.22385
1238.956, 23.46618
1239.438, 22.13640
1239.920, 22.06667
1240.403, 23.35184
1240.885, 24.59112
1241.367, 24.85424
1241.849, 24.71450
1242.331, 24.30767
1242.813, 23.99221
1243.295, 24.42881
1243.777, 25.94144
1244.260, 26.19518
1244.742, 25.19349
1245.224, 24.31126
1245.706, 24.77879
1246.188, 25.24695
1246.670, 24.40173
1247.152, 23.24677
1247.634, 23.20850
1248.116, 24.39329
1248.599, 25.14509
1249.081, 25.47393
1249.563, 25.72276
1250.045, 26.12903
1250.527, 26.46519
1251.009, 26.62664
1251.491, 26.63639
1251.973, 26.36581
1252.455, 25.85276
1252.938, 26.43548
1253.420, 27.90675
1253.902, 28.58179
1254.384, 26.50781
1254.866, 24.79226
1255.348, 24.70694
1255.830, 25.30572
1256.313, 26.05494
1256.795, 26.83176
1257.277, 26.56222
1257.759, 25.49379
1258.241, 24.90482
1258.723, 25.96165
1259.205, 26.73536
1259.687, 26.76191
1260.169, 26.54865
1260.651, 26.51953
1261.134, 26.60960
1261.616, 26.65680
1262.098, 26.64037
1262.580, 26.50040
1263.062, 26.07080
1263.544, 25.71172
1264.026, 25.38585
1264.508, 25.28405
1264.991, 25.78905
1265.473, 26.50730
1265.955, 26.64975
1266.437, 26.37355
1266.919, 26.10678
1267.401, 25.94501
1267.883, 25.81120
1268.365, 25.68369
1268.848, 25.66186
1269.330, 25.98580
1269.812, 26.33133
1270.294, 26.16295
1270.776, 25.71928
1271.258, 25.54755
1271.740, 25.78351
1272.222, 26.05867
1272.704, 26.40771
1273.187, 26.40510
1273.669, 25.33909
1274.151, 24.20673
1274.633, 23.90853
1275.115, 24.12977
1275.597, 24.34169
1276.079, 24.52369
1276.561, 24.73741
1277.043, 24.97979
1277.526, 25.16201
1278.008, 25.15049
1278.490, 25.15226
1278.972, 25.60544
1279.454, 25.88111
1279.936, 25.10083
1280.418, 23.34283
1280.900, 22.72160
1281.383, 23.12125
1281.865, 23.77141
1282.347, 24.63167
1282.829, 25.20649
1283.311, 25.37728
1283.793, 25.14589
1284.275, 24.15608
1284.757, 22.78879
1285.240, 22.82377
1285.722, 23.89897
1286.204, 24.84769
1286.686, 25.28401
1287.168, 25.42195
1287.650, 25.19068
1288.132, 24.94795
1288.614, 24.97012
1289.096, 25.12678
1289.578, 25.16529
1290.061, 25.12730
1290.543, 25.11897
1291.025, 25.35424
1291.507, 25.00726
1291.989, 23.88555
1292.471, 23.09752
1292.953, 23.52021
1293.435, 24.29364
1293.918, 24.52649
1294.400, 24.37410
1294.882, 23.94718
1295.364, 23.18320
1295.846, 23.00238
1296.328, 23.41055
1296.810, 24.13011
1297.292, 25.33515
1297.775, 26.25162
1298.257, 26.00810
1298.739, 25.40795
1299.221, 25.32949
1299.703, 24.64441
1300.185, 24.99779
1300.667, 23.54587
1301.149, 22.45621
1301.631, 22.17737
1302.114, 22.30287
1302.596, 22.77820
##END=



