##NAMES=Bikitaite
##RRUFFID=R050160
##IDEAL CHEMISTRY=LiAlSi_2_O_6_&#183;H_2_O
##LOCALITY=Foote mine, Kings Mountain, Cleveland County, North Carolina, USA
##OWNER=RRUFF
##SOURCE=Jim McGlasson
##DESCRIPTION=Colorless prismatic crystals
##STATUS=The identification of this mineral has been confirmed by X-ray diffraction and chemical analysis
##URL=rruff.info/R050160
##MEASURED CHEMISTRY=Li_1.00_Si_2.00_O_6_Â·1.25H_2_O ; Li not measured but estimated by stoichiometry
93.46680, 691.4222
93.94891, 675.6312
94.43103, 677.6674
94.91315, 692.9941
95.39526, 709.3467
95.87738, 723.6267
96.35950, 737.0958
96.84161, 749.8824
97.32373, 762.8573
97.80585, 775.2496
98.28796, 786.9928
98.77008, 798.5114
99.25220, 809.2590
99.73431, 818.6943
100.2164, 827.5148
100.6985, 831.5733
101.1807, 832.2067
101.6628, 830.8473
102.1449, 828.0969
102.6270, 823.8491
103.1091, 818.4733
103.5912, 815.0657
104.0734, 812.4449
104.5555, 813.0437
105.0376, 818.6266
105.5197, 827.8380
106.0018, 838.0632
106.4839, 847.0844
106.9661, 854.7004
107.4482, 862.8906
107.9303, 871.9836
108.4124, 881.0204
108.8945, 890.1405
109.3766, 899.1458
109.8588, 906.7114
110.3409, 911.2333
110.8230, 912.6771
111.3051, 910.7628
111.7872, 905.2579
112.2693, 896.4111
112.7515, 884.3132
113.2336, 868.7775
113.7157, 850.3504
114.1978, 828.8997
114.6799, 804.5477
115.1620, 781.0477
115.6442, 760.6539
116.1263, 743.2405
116.6084, 728.2507
117.0905, 718.0445
117.5726, 708.5686
118.0547, 697.9308
118.5369, 685.8475
119.0190, 670.9299
119.5011, 650.8678
119.9832, 624.4014
120.4653, 595.3895
120.9474, 562.5170
121.4296, 528.6829
121.9117, 495.6732
122.3938, 464.2585
122.8759, 434.8903
123.3580, 408.7763
123.8401, 387.4104
124.3223, 368.4633
124.8044, 351.9219
125.2865, 337.6471
125.7686, 325.6729
126.2507, 315.9537
126.7328, 308.4624
127.2150, 302.6075
127.6971, 298.3102
128.1792, 295.2003
128.6613, 293.2663
129.1434, 292.4435
129.6255, 292.4769
130.1077, 293.1851
130.5898, 294.7053
131.0719, 297.0995
131.5540, 299.8885
132.0361, 303.8187
132.5182, 309.9489
133.0004, 318.6083
133.4825, 328.2867
133.9646, 337.3109
134.4467, 346.3229
134.9288, 356.9419
135.4109, 370.2372
135.8931, 385.7204
136.3752, 401.8266
136.8573, 417.9971
137.3394, 435.6615
137.8215, 455.7339
138.3036, 477.7925
138.7858, 500.3567
139.2679, 522.8562
139.7500, 545.5223
140.2321, 566.2214
140.7142, 585.6779
141.1963, 602.4910
141.6785, 616.4368
142.1606, 627.2135
142.6427, 634.4149
143.1248, 637.3299
143.6069, 634.8463
144.0890, 629.8703
144.5712, 622.0537
145.0533, 612.5605
145.5354, 601.9156
146.0175, 590.3691
146.4996, 577.9735
146.9817, 564.7728
147.4639, 550.0768
147.9460, 535.6243
148.4281, 521.3914
148.9102, 507.4129
149.3923, 493.4600
149.8744, 479.2754
150.3566, 465.6022
150.8387, 454.3486
151.3208, 445.8576
151.8029, 437.8684
152.2850, 429.3506
152.7671, 420.6140
153.2493, 412.7658
153.7314, 406.1334
154.2135, 400.8850
154.6956, 396.8781
155.1777, 394.4560
155.6598, 392.5146
156.1420, 390.4459
156.6241, 388.2854
157.1062, 385.4942
157.5883, 381.8808
158.0704, 377.4591
158.5525, 372.1485
159.0347, 365.9016
159.5168, 358.8369
159.9989, 350.9261
160.4810, 341.8086
160.9631, 332.7680
161.4452, 323.9048
161.9274, 315.3955
162.4095, 307.4037
162.8916, 300.0562
163.3737, 293.2277
163.8558, 286.5708
164.3379, 279.9257
164.8201, 273.7007
165.3022, 268.0365
165.7843, 262.7758
166.2664, 257.8068
166.7485, 253.0555
167.2306, 248.4921
167.7128, 243.6800
168.1949, 238.0915
168.6770, 232.8085
169.1591, 228.3077
169.6412, 224.2954
170.1233, 220.0693
170.6055, 215.0824
171.0876, 209.3428
171.5697, 204.5597
172.0518, 201.1832
172.5339, 198.1185
173.0160, 194.7682
173.4982, 191.2189
173.9803, 187.9948
174.4624, 185.5613
174.9445, 183.9502
175.4266, 182.3334
175.9087, 180.3691
176.3909, 178.6143
176.8730, 177.5150
177.3551, 177.0976
177.8372, 177.1948
178.3193, 177.9125
178.8014, 179.0835
179.2836, 180.2119
179.7657, 180.9510
180.2478, 181.6741
180.7299, 182.9652
181.2120, 184.9119
181.6941, 187.2263
182.1763, 190.1985
182.6584, 193.3804
183.1405, 195.8232
183.6226, 196.4271
184.1047, 195.9345
184.5868, 196.9220
185.0690, 200.2048
185.5511, 203.8474
186.0332, 207.0949
186.5153, 209.9713
186.9974, 212.5460
187.4795, 214.7660
187.9617, 216.6667
188.4438, 218.6623
188.9259, 220.1394
189.4080, 222.4388
189.8901, 226.3110
190.3722, 231.3554
190.8544, 236.6788
191.3365, 241.4798
191.8186, 245.7028
192.3007, 250.5268
192.7828, 256.1775
193.2649, 262.2423
193.7471, 268.4145
194.2292, 274.8275
194.7113, 281.8951
195.1934, 289.9230
195.6755, 298.9462
196.1576, 309.1151
196.6398, 320.7916
197.1219, 333.0018
197.6040, 344.7389
198.0861, 356.2821
198.5682, 369.1315
199.0503, 384.7494
199.5325, 403.6308
200.0146, 423.3307
200.4967, 445.1307
200.9788, 466.7108
201.4609, 487.5052
201.9430, 507.1790
202.4252, 523.9907
202.9073, 536.8349
203.3894, 545.2043
203.8715, 546.8854
204.3536, 539.9573
204.8357, 527.2802
205.3179, 510.4230
205.8000, 489.3645
206.2821, 466.9543
206.7642, 444.8903
207.2463, 423.3131
207.7284, 404.0467
208.2106, 387.1766
208.6927, 372.9225
209.1748, 361.6635
209.6569, 353.4674
210.1390, 348.0314
210.6211, 345.6158
211.1033, 345.6790
211.5854, 347.6790
212.0675, 351.6618
212.5496, 357.4261
213.0317, 364.5982
213.5138, 373.2327
213.9960, 383.1859
214.4781, 394.7877
214.9602, 407.4839
215.4423, 420.2393
215.9244, 432.6587
216.4065, 444.7231
216.8886, 456.3121
217.3708, 468.3392
217.8529, 478.2960
218.3350, 485.9662
218.8171, 491.1079
219.2992, 493.3085
219.7813, 492.1642
220.2635, 487.8430
220.7456, 481.3745
221.2277, 472.1945
221.7098, 461.2182
222.1919, 448.1347
222.6740, 433.6968
223.1562, 418.9099
223.6383, 404.3592
224.1204, 390.1021
224.6025, 376.8128
225.0846, 364.2850
225.5667, 353.2542
226.0489, 344.0315
226.5310, 336.3858
227.0131, 329.9878
227.4952, 324.6320
227.9773, 320.3043
228.4594, 316.3037
228.9416, 312.1168
229.4237, 308.8432
229.9058, 306.7527
230.3879, 305.7823
230.8700, 305.8580
231.3521, 306.9732
231.8343, 309.0827
232.3164, 311.4443
232.7985, 313.7301
233.2806, 316.5774
233.7627, 320.0059
234.2448, 324.1362
234.7270, 329.3766
235.2091, 336.1530
235.6912, 344.1886
236.1733, 350.7511
236.6554, 353.9692
237.1375, 358.0598
237.6197, 364.9169
238.1018, 373.6717
238.5839, 382.2310
239.0660, 389.2159
239.5481, 395.1546
240.0302, 403.0795
240.5124, 413.9134
240.9945, 425.2270
241.4766, 435.7787
241.9587, 446.0841
242.4408, 457.5072
242.9229, 470.9439
243.4051, 485.8680
243.8872, 500.5033
244.3693, 514.3263
244.8514, 528.5883
245.3335, 543.8880
245.8156, 559.9908
246.2978, 576.5069
246.7799, 593.9678
247.2620, 610.8210
247.7441, 624.2490
248.2262, 634.1918
248.7083, 641.4437
249.1905, 645.5334
249.6726, 647.0228
250.1547, 647.8410
250.6368, 648.1896
251.1189, 648.7801
251.6010, 650.3984
252.0832, 652.9064
252.5653, 656.7982
253.0474, 663.2791
253.5295, 671.6851
254.0116, 679.4176
254.4937, 686.3187
254.9759, 691.3611
255.4580, 694.6759
255.9401, 696.4563
256.4222, 693.9161
256.9043, 685.1039
257.3864, 670.4025
257.8686, 651.4881
258.3507, 627.4877
258.8328, 600.4375
259.3149, 572.3287
259.7970, 543.2363
260.2791, 513.7087
260.7613, 483.0690
261.2434, 451.9335
261.7255, 423.4735
262.2076, 398.7433
262.6897, 376.2601
263.1718, 354.4640
263.6540, 333.5574
264.1361, 314.2755
264.6182, 297.1108
265.1003, 282.0358
265.5824, 268.5130
266.0645, 257.0604
266.5467, 246.7075
267.0288, 236.5479
267.5109, 226.9116
267.9930, 218.6175
268.4751, 212.4451
268.9572, 208.0218
269.4394, 203.5903
269.9215, 198.9561
270.4036, 194.6308
270.8857, 190.6389
271.3678, 187.0561
271.8499, 184.0548
272.3321, 181.8570
272.8142, 180.1982
273.2963, 178.0827
273.7784, 174.7481
274.2605, 172.3158
274.7426, 171.5166
275.2248, 171.7434
275.7069, 172.3076
276.1890, 172.8937
276.6711, 173.6204
277.1532, 174.8253
277.6353, 176.7727
278.1175, 178.7379
278.5996, 180.3957
279.0817, 182.0821
279.5638, 184.0370
280.0459, 186.3583
280.5280, 189.1363
281.0102, 192.5980
281.4923, 196.8714
281.9744, 201.6026
282.4565, 206.5061
282.9386, 211.8936
283.4207, 217.9485
283.9029, 224.7331
284.3850, 232.2396
284.8671, 240.4930
285.3492, 249.6216
285.8313, 259.2469
286.3134, 269.3984
286.7956, 279.9337
287.2777, 291.0113
287.7598, 302.4866
288.2419, 313.9311
288.7240, 325.0232
289.2061, 335.8965
289.6883, 345.5662
290.1704, 354.3384
290.6525, 361.7436
291.1346, 367.6364
291.6167, 371.9434
292.0988, 374.5720
292.5810, 375.4952
293.0631, 374.7594
293.5452, 371.7600
294.0273, 365.9192
294.5094, 358.4278
294.9915, 349.1644
295.4737, 338.5101
295.9558, 326.8848
296.4379, 314.3754
296.9200, 301.1201
297.4021, 290.1705
297.8842, 283.0272
298.3664, 276.7258
298.8485, 270.7034
299.3306, 265.1715
299.8127, 260.7997
300.2948, 258.0530
300.7769, 256.3911
301.2591, 253.6182
301.7412, 248.3595
302.2233, 243.5939
302.7054, 240.1633
303.1875, 237.1649
303.6696, 233.3524
304.1518, 228.2580
304.6339, 222.7439
305.1160, 218.6074
305.5981, 216.4933
306.0802, 215.0366
306.5623, 213.9637
307.0445, 213.6096
307.5266, 214.4403
308.0087, 216.4880
308.4908, 219.1743
308.9729, 221.6936
309.4550, 223.9571
309.9372, 226.2632
310.4193, 229.0621
310.9014, 231.5647
311.3835, 233.3533
311.8656, 234.3691
312.3477, 234.7528
312.8299, 234.7253
313.3120, 234.4519
313.7941, 232.5103
314.2762, 228.0827
314.7583, 223.0509
315.2404, 217.8515
315.7226, 212.6417
316.2047, 207.4236
316.6868, 202.1085
317.1689, 196.7933
317.6510, 193.0800
318.1331, 192.1550
318.6153, 191.4968
319.0974, 190.4190
319.5795, 189.3127
320.0616, 188.7893
320.5437, 189.1638
321.0258, 190.3584
321.5080, 192.1460
321.9901, 194.9020
322.4722, 197.8314
322.9543, 200.8848
323.4364, 204.0800
323.9185, 207.8494
324.4007, 212.2080
324.8828, 216.2049
325.3649, 218.0875
325.8470, 216.7921
326.3291, 215.2331
326.8112, 213.9922
327.2934, 212.1156
327.7755, 208.6385
328.2576, 203.6282
328.7397, 198.0967
329.2218, 193.0249
329.7039, 188.2885
330.1861, 184.6786
330.6682, 182.9737
331.1503, 181.4849
331.6324, 179.0944
332.1145, 176.2507
332.5966, 174.2702
333.0788, 174.1992
333.5609, 175.9405
334.0430, 177.8474
334.5251, 179.7724
335.0072, 182.0630
335.4893, 184.8487
335.9715, 188.0254
336.4536, 191.4153
336.9357, 194.8983
337.4178, 198.6058
337.8999, 202.8702
338.3820, 208.3408
338.8642, 213.4370
339.3463, 217.7414
339.8284, 221.8343
340.3105, 226.2740
340.7926, 231.2120
341.2747, 236.2603
341.7568, 240.8250
342.2390, 244.6828
342.7211, 248.5690
343.2032, 252.3820
343.6853, 256.2793
344.1674, 260.6104
344.6495, 265.2041
345.1317, 269.4128
345.6138, 272.5642
346.0959, 274.5941
346.5780, 276.6577
347.0601, 278.5127
347.5422, 280.6613
348.0244, 283.7337
348.5065, 287.1530
348.9886, 289.8174
349.4707, 290.9287
349.9528, 290.9879
350.4349, 292.0967
350.9171, 295.5302
351.3992, 298.0273
351.8813, 299.0216
352.3634, 298.8922
352.8455, 297.9059
353.3276, 296.1646
353.8098, 293.8574
354.2919, 291.2892
354.7740, 288.4640
355.2561, 285.3512
355.7382, 281.3130
356.2203, 277.4721
356.7025, 274.3323
357.1846, 272.0218
357.6667, 270.6039
358.1488, 270.3794
358.6309, 271.3968
359.1130, 272.2195
359.5952, 272.0224
360.0773, 272.6171
360.5594, 274.8062
361.0415, 278.2906
361.5236, 282.4532
362.0057, 287.0648
362.4879, 292.0126
362.9700, 296.9593
363.4521, 301.6481
363.9342, 306.8804
364.4163, 313.0114
364.8984, 319.7447
365.3806, 326.8385
365.8627, 334.2641
366.3448, 341.9738
366.8269, 349.8434
367.3090, 357.8659
367.7911, 366.3970
368.2733, 375.3767
368.7554, 385.0908
369.2375, 395.6242
369.7196, 407.0389
370.2017, 419.4182
370.6838, 433.2598
371.1660, 448.2343
371.6481, 462.2663
372.1302, 473.9076
372.6123, 487.0526
373.0944, 505.1061
373.5765, 526.4397
374.0587, 547.8290
374.5408, 567.4667
375.0229, 586.7822
375.5050, 607.9887
375.9871, 631.1615
376.4692, 654.9065
376.9514, 678.7111
377.4335, 702.4862
377.9156, 726.1828
378.3977, 749.8355
378.8798, 773.4122
379.3619, 797.7514
379.8441, 822.2679
380.3262, 844.3964
380.8083, 863.4836
381.2904, 879.9650
381.7725, 894.4738
382.2546, 907.1236
382.7368, 917.6996
383.2189, 926.7061
383.7010, 933.4058
384.1831, 936.3431
384.6652, 935.2847
385.1473, 932.2729
385.6295, 928.5693
386.1116, 924.1179
386.5937, 918.9611
387.0758, 911.9010
387.5579, 905.2549
388.0400, 900.2433
388.5222, 896.7986
389.0043, 894.5380
389.4864, 893.2825
389.9685, 893.1434
390.4506, 894.6436
390.9327, 898.1914
391.4149, 902.0654
391.8970, 905.8175
392.3791, 909.7560
392.8612, 914.8480
393.3433, 921.1826
393.8254, 926.8432
394.3076, 929.6914
394.7897, 929.3799
395.2718, 927.0266
395.7539, 924.4870
396.2360, 918.4438
396.7181, 906.8651
397.2003, 890.1680
397.6824, 869.9698
398.1645, 847.0974
398.6466, 821.7167
399.1287, 793.6701
399.6108, 760.2650
400.0930, 727.6547
400.5751, 695.8367
401.0572, 665.3431
401.5393, 636.4142
402.0214, 609.2292
402.5035, 583.7249
402.9857, 559.7702
403.4678, 537.1921
403.9499, 516.9073
404.4320, 499.4273
404.9141, 483.2989
405.3962, 467.7780
405.8784, 452.9603
406.3605, 439.3606
406.8426, 427.5196
407.3247, 417.2229
407.8068, 407.4227
408.2889, 397.8382
408.7711, 389.3490
409.2532, 382.4083
409.7353, 376.4198
410.2174, 370.6719
410.6995, 364.9321
411.1816, 359.6597
411.6638, 355.6048
412.1459, 352.9731
412.6280, 350.5206
413.1101, 347.9603
413.5922, 345.6901
414.0743, 343.7232
414.5565, 342.1939
415.0386, 341.5332
415.5207, 342.5280
416.0028, 344.6500
416.4849, 345.8218
416.9670, 345.5384
417.4492, 345.5744
417.9313, 347.6883
418.4134, 350.4153
418.8955, 351.7341
419.3776, 350.7719
419.8597, 349.2236
420.3419, 348.9868
420.8240, 349.8506
421.3061, 349.8240
421.7882, 348.2918
422.2703, 345.6952
422.7524, 342.3670
423.2346, 338.3080
423.7167, 334.4844
424.1988, 331.7572
424.6809, 329.2333
425.1630, 325.4432
425.6451, 320.2548
426.1273, 315.0866
426.6094, 311.0641
427.0915, 307.9735
427.5736, 304.4230
428.0557, 300.1193
428.5378, 295.6903
429.0200, 291.2036
429.5021, 286.8133
429.9842, 282.8633
430.4663, 279.4647
430.9484, 276.5397
431.4305, 274.0187
431.9127, 272.2058
432.3948, 270.0376
432.8769, 266.5847
433.3590, 263.4902
433.8411, 262.3334
434.3232, 262.8282
434.8054, 263.2694
435.2875, 262.2840
435.7696, 260.0628
436.2517, 258.6084
436.7338, 258.5963
437.2159, 258.5851
437.6981, 258.2218
438.1802, 257.8190
438.6623, 257.8831
439.1444, 258.5359
439.6265, 259.2294
440.1086, 258.9861
440.5908, 257.2873
441.0729, 256.3668
441.5550, 256.7427
442.0371, 257.4330
442.5192, 258.3601
443.0013, 259.2769
443.4835, 259.7154
443.9656, 259.3386
444.4477, 258.3067
444.9298, 257.1539
445.4119, 255.9838
445.8940, 254.4075
446.3762, 251.8963
446.8583, 249.1487
447.3404, 246.8826
447.8225, 245.2489
448.3046, 243.5185
448.7867, 240.6190
449.2689, 236.9244
449.7510, 234.5733
450.2331, 234.2269
450.7152, 234.5036
451.1973, 234.4645
451.6794, 234.1825
452.1616, 233.8007
452.6437, 232.7589
453.1258, 232.1066
453.6079, 232.8246
454.0900, 234.8397
454.5721, 237.8342
455.0543, 241.9843
455.5364, 246.6310
456.0185, 250.2519
456.5006, 252.3976
456.9827, 255.3575
457.4648, 259.8026
457.9470, 265.2243
458.4291, 271.1615
458.9112, 277.5351
459.3933, 284.4912
459.8754, 292.2740
460.3575, 300.8687
460.8397, 309.1177
461.3218, 316.4858
461.8039, 324.2062
462.2860, 332.6731
462.7681, 341.6709
463.2502, 351.1469
463.7324, 361.0184
464.2145, 370.5252
464.6966, 378.4265
465.1787, 384.2657
465.6608, 389.7002
466.1429, 394.8404
466.6251, 399.4886
467.1072, 403.1856
467.5893, 406.3301
468.0714, 409.8082
468.5535, 414.2248
469.0356, 419.2462
469.5178, 423.7478
469.9999, 427.1684
470.4820, 431.6146
470.9641, 437.9129
471.4462, 445.2977
471.9283, 453.4902
472.4105, 462.3941
472.8926, 471.4556
473.3747, 479.9836
473.8568, 488.3110
474.3389, 497.7734
474.8210, 508.8975
475.3032, 519.8508
475.7853, 529.6001
476.2674, 538.2961
476.7495, 546.0035
477.2316, 552.5891
477.7137, 558.3467
478.1959, 563.3644
478.6780, 567.6822
479.1601, 571.2519
479.6422, 573.8029
480.1243, 576.5027
480.6064, 580.9291
481.0886, 587.3546
481.5707, 593.9545
482.0528, 599.8997
482.5349, 606.6080
483.0170, 615.1585
483.4991, 625.2746
483.9813, 636.2059
484.4634, 647.7094
484.9455, 659.2897
485.4276, 669.4967
485.9097, 676.6808
486.3918, 684.8593
486.8740, 694.9157
487.3561, 705.3605
487.8382, 714.7055
488.3203, 723.1857
488.8024, 732.4167
489.2845, 744.0494
489.7667, 757.8233
490.2488, 770.8444
490.7309, 781.7492
491.2130, 794.2802
491.6951, 810.2697
492.1772, 827.7496
492.6594, 844.7010
493.1415, 860.5891
493.6236, 876.1758
494.1057, 892.1331
494.5878, 908.4501
495.0699, 924.9203
495.5521, 942.7079
496.0342, 958.2521
496.5163, 968.6240
496.9984, 974.8386
497.4805, 978.4580
497.9626, 980.7838
498.4448, 979.5447
498.9269, 973.2538
499.4090, 961.9373
499.8911, 945.0881
500.3732, 922.0343
500.8553, 894.9316
501.3375, 866.3727
501.8196, 836.2522
502.3017, 804.9098
502.7838, 771.7189
503.2659, 737.8723
503.7480, 703.1003
504.2302, 668.2246
504.7123, 634.7947
505.1944, 603.6741
505.6765, 574.6190
506.1586, 546.7732
506.6407, 519.8951
507.1228, 494.6399
507.6049, 470.6457
508.0871, 448.2861
508.5692, 427.9711
509.0513, 409.5581
509.5334, 392.4662
510.0155, 376.3139
510.4977, 361.0368
510.9798, 346.8472
511.4619, 333.7628
511.9440, 321.6666
512.4261, 310.9615
512.9083, 300.9365
513.3904, 290.8156
513.8725, 280.4555
514.3546, 270.9463
514.8367, 263.3113
515.3188, 257.1099
515.8010, 251.0259
516.2831, 244.9191
516.7652, 239.0079
517.2473, 233.4880
517.7294, 228.2821
518.2115, 223.0910
518.6937, 217.6075
519.1758, 212.6063
519.6579, 208.4474
520.1400, 204.9922
520.6221, 202.2511
521.1042, 200.1860
521.5864, 198.0558
522.0685, 194.9081
522.5506, 190.5239
523.0327, 187.4606
523.5148, 186.6823
523.9969, 185.8732
524.4791, 184.1045
524.9612, 181.9354
525.4433, 180.1767
525.9254, 179.1288
526.4075, 178.5065
526.8896, 177.9508
527.3718, 177.4794
527.8539, 176.9860
528.3360, 176.4706
528.8181, 175.9321
529.3002, 175.2421
529.7823, 174.5508
530.2645, 174.1185
530.7466, 174.0441
531.2287, 174.2768
531.7108, 174.7502
532.1929, 175.4674
532.6750, 176.5463
533.1572, 178.2143
533.6393, 179.9167
534.1214, 180.9517
534.6035, 181.4314
535.0856, 182.0947
535.5677, 183.1789
536.0499, 184.4189
536.5320, 185.7175
537.0141, 187.0193
537.4962, 188.2538
537.9783, 189.4069
538.4604, 190.3491
538.9426, 190.8562
539.4247, 190.9304
539.9068, 190.4806
540.3889, 189.5794
540.8710, 188.1379
541.3531, 186.0588
541.8353, 183.3947
542.3174, 180.2373
542.7995, 176.6293
543.2816, 172.6052
543.7637, 168.1843
544.2458, 163.2072
544.7280, 158.2858
545.2101, 153.3203
545.6922, 148.6284
546.1743, 144.2687
546.6564, 140.3071
547.1385, 137.0558
547.6207, 135.0875
548.1028, 133.5081
548.5849, 130.7689
549.0670, 126.9228
549.5491, 123.5313
550.0313, 121.1500
550.5134, 119.4722
550.9955, 118.2768
551.4776, 117.5990
551.9597, 116.6518
552.4418, 115.0679
552.9240, 113.3507
553.4061, 111.8194
553.8882, 110.4937
554.3703, 109.3549
554.8524, 108.3953
555.3345, 107.5717
555.8167, 106.7971
556.2988, 106.1957
556.7809, 105.3892
557.2630, 104.1585
557.7451, 102.9479
558.2272, 101.9749
558.7094, 101.2204
559.1915, 100.6176
559.6736, 100.1666
560.1557, 99.72374
560.6378, 98.91444
561.1199, 97.65492
561.6021, 96.58251
562.0842, 95.84485
562.5663, 95.34517
563.0484, 94.99475
563.5305, 94.79166
564.0126, 94.72166
564.4948, 95.23125
564.9769, 95.53786
565.4590, 94.48375
565.9411, 92.39827
566.4232, 90.88773
566.9053, 90.65196
567.3875, 90.94141
567.8696, 90.58055
568.3517, 89.28303
568.8338, 88.27620
569.3159, 87.84583
569.7980, 87.43163
570.2802, 86.66529
570.7623, 85.70246
571.2444, 84.86739
571.7265, 84.31325
572.2086, 83.95224
572.6907, 83.63144
573.1729, 83.32862
573.6550, 83.15547
574.1371, 83.43169
574.6192, 83.49315
575.1013, 82.81064
575.5834, 81.73006
576.0656, 80.98603
576.5477, 80.94915
577.0298, 81.11519
577.5119, 80.96174
577.9940, 80.53001
578.4761, 80.01791
578.9583, 79.45452
579.4404, 78.86098
579.9225, 78.19545
580.4046, 77.48343
580.8867, 77.05493
581.3688, 77.16421
581.8510, 77.29160
582.3331, 77.18290
582.8152, 76.96037
583.2973, 76.85738
583.7794, 76.92258
584.2615, 76.93131
584.7437, 76.58507
585.2258, 75.85198
585.7079, 75.33517
586.1900, 75.19897
586.6721, 75.07595
587.1542, 74.92159
587.6363, 74.71089
588.1184, 74.36588
588.6005, 73.87706
589.0826, 73.46511
589.5648, 73.49939
590.0469, 73.78813
590.5290, 73.51591
591.0111, 72.50807
591.4932, 71.57798
591.9753, 71.14763
592.4575, 71.13611
592.9396, 71.32877
593.4217, 71.87062
593.9038, 72.23795
594.3859, 72.13255
594.8680, 71.85655
595.3502, 71.78782
595.8323, 71.89854
596.3144, 71.83866
596.7965, 71.34937
597.2786, 70.55685
597.7607, 69.90109
598.2429, 69.25899
598.7250, 68.99624
599.2071, 69.63243
599.6892, 70.17835
600.1713, 69.85827
600.6534, 68.87342
601.1356, 68.01190
601.6177, 67.77317
602.0998, 67.84633
602.5819, 67.62127
603.0640, 67.09766
603.5461, 66.91238
604.0283, 67.40124
604.5104, 68.01923
604.9925, 68.08788
605.4746, 67.68124
605.9567, 67.40921
606.4388, 67.39568
606.9210, 67.49722
607.4031, 67.66887
607.8852, 67.88657
608.3673, 68.14225
608.8494, 68.42591
609.3315, 68.64639
609.8137, 68.65768
610.2958, 68.42378
610.7779, 68.35624
611.2600, 68.48872
611.7421, 68.76087
612.2242, 69.34109
612.7064, 69.95718
613.1885, 70.25697
613.6706, 70.17521
614.1527, 70.04568
614.6348, 70.15150
615.1169, 70.43623
615.5991, 70.74174
616.0812, 71.06535
616.5633, 71.36082
617.0454, 71.51595
617.5275, 71.69348
618.0096, 72.31522
618.4918, 73.56554
618.9739, 74.60754
619.4560, 75.13937
619.9381, 75.51093
620.4202, 75.91675
620.9023, 76.41536
621.3845, 77.08894
621.8666, 77.98595
622.3487, 79.03252
622.8308, 80.11028
623.3129, 81.34904
623.7950, 82.21021
624.2772, 82.57717
624.7593, 82.62699
625.2414, 82.43217
625.7235, 81.97648
626.2056, 81.16479
626.6877, 79.86563
627.1699, 78.50426
627.6520, 77.60427
628.1341, 76.98823
628.6162, 76.11092
629.0983, 74.87199
629.5804, 73.36300
630.0626, 71.46809
630.5447, 69.32673
631.0268, 67.99458
631.5089, 68.28304
631.9910, 68.16941
632.4731, 66.94463
632.9553, 65.44440
633.4374, 64.41407
633.9195, 63.89277
634.4016, 63.49485
634.8837, 62.92516
635.3658, 62.74522
635.8480, 62.10041
636.3301, 62.42143
636.8122, 62.61918
637.2943, 62.54388
637.7764, 62.30728
638.2585, 61.95757
638.7407, 61.52460
639.2228, 61.13169
639.7049, 60.71208
640.1870, 60.44850
640.6691, 60.65303
641.1512, 61.10107
641.6334, 61.29933
642.1155, 61.11542
642.5976, 60.62836
643.0797, 59.82499
643.5618, 58.70605
644.0439, 58.26492
644.5261, 59.12545
645.0082, 59.91440
645.4903, 60.63964
645.9724, 61.08069
646.4545, 60.87675
646.9366, 60.10521
647.4188, 59.38970
647.9009, 59.23774
648.3830, 59.43553
648.8651, 59.49112
649.3472, 59.39844
649.8293, 59.45036
650.3115, 59.83133
650.7936, 60.25674
651.2757, 60.29937
651.7578, 59.94073
652.2399, 59.74565
652.7220, 59.68578
653.2042, 59.87423
653.6863, 60.70084
654.1684, 61.69420
654.6505, 62.05912
655.1326, 61.62020
655.6147, 60.93518
656.0969, 60.57003
656.5790, 60.52257
657.0611, 60.82819
657.5432, 61.79348
658.0253, 62.45965
658.5074, 62.17405
658.9896, 61.63953
659.4717, 61.44889
659.9538, 61.63875
660.4359, 61.91346
660.9180, 62.08780
661.4001, 62.32618
661.8823, 62.90314
662.3644, 63.71041
662.8465, 64.37547
663.3286, 64.75938
663.8107, 64.93724
664.2928, 64.99210
664.7750, 64.89505
665.2571, 64.87118
665.7392, 64.79128
666.2213, 64.94265
666.7034, 65.46410
667.1855, 66.21355
667.6677, 67.09898
668.1498, 68.08083
668.6319, 69.00491
669.1140, 69.77999
669.5961, 70.40125
670.0782, 70.79586
670.5604, 70.96336
671.0425, 71.19897
671.5246, 71.56224
672.0067, 72.15278
672.4888, 73.15800
672.9709, 74.67496
673.4531, 76.15648
673.9352, 77.78447
674.4173, 79.16185
674.8994, 79.85087
675.3815, 80.27747
675.8636, 81.03773
676.3458, 82.28912
676.8279, 83.78182
677.3100, 85.28374
677.7921, 86.79946
678.2742, 88.35618
678.7563, 89.95834
679.2385, 91.60608
679.7206, 93.28081
680.2027, 95.02468
680.6848, 96.91371
681.1669, 98.96078
681.6490, 100.9187
682.1312, 103.1020
682.6133, 104.8090
683.0954, 105.5097
683.5775, 105.3921
684.0596, 104.8024
684.5417, 103.8631
685.0239, 102.5672
685.5060, 100.8003
685.9881, 98.59708
686.4702, 96.94195
686.9523, 96.33042
687.4344, 95.31981
687.9166, 92.90945
688.3987, 90.34095
688.8808, 88.63847
689.3629, 87.83037
689.8450, 87.27964
690.3271, 86.86171
690.8093, 86.45614
691.2914, 85.83432
691.7735, 85.13425
692.2556, 84.66336
692.7377, 84.51600
693.2198, 84.88573
693.7020, 86.06974
694.1841, 88.05424
694.6662, 89.82409
695.1483, 91.11941
695.6304, 92.56889
696.1125, 94.24400
696.5947, 96.12232
697.0768, 98.23940
697.5589, 100.5634
698.0410, 102.9612
698.5231, 105.3359
699.0052, 107.7889
699.4874, 110.5694
699.9695, 113.5735
700.4516, 116.3252
700.9337, 118.6603
701.4158, 121.0582
701.8979, 124.0143
702.3801, 127.4808
702.8622, 130.6609
703.3443, 133.7392
703.8264, 136.2435
704.3085, 138.0583
704.7906, 139.3234
705.2728, 140.2797
705.7549, 140.8097
706.2370, 140.4476
706.7191, 138.7268
707.2012, 136.4266
707.6833, 134.7483
708.1655, 133.5254
708.6476, 131.8030
709.1297, 129.3844
709.6118, 126.4966
710.0939, 123.1115
710.5760, 119.4230
711.0582, 116.5146
711.5403, 115.3191
712.0224, 113.5084
712.5045, 110.2928
712.9866, 106.9427
713.4688, 104.4031
713.9509, 102.4919
714.4330, 100.5488
714.9151, 98.22322
715.3972, 95.93595
715.8793, 94.35106
716.3615, 93.34801
716.8436, 92.02898
717.3257, 90.21193
717.8078, 88.63541
718.2899, 87.82417
718.7720, 87.53202
719.2542, 87.10049
719.7363, 86.46132
720.2184, 85.86746
720.7005, 85.34393
721.1826, 84.86753
721.6647, 84.26158
722.1469, 83.73330
722.6290, 83.78383
723.1111, 84.57198
723.5932, 85.37368
724.0753, 85.36534
724.5574, 84.64587
725.0396, 83.66972
725.5217, 82.40211
726.0038, 81.19876
726.4859, 80.25681
726.9680, 79.41655
727.4501, 78.41103
727.9323, 77.18525
728.4144, 76.12537
728.8965, 75.37753
729.3786, 74.65421
729.8607, 73.86752
730.3428, 73.01332
730.8250, 72.15710
731.3071, 71.28146
731.7892, 70.16933
732.2713, 68.41696
732.7534, 66.41478
733.2355, 65.47108
733.7177, 65.64674
734.1998, 65.58077
734.6819, 64.82565
735.1640, 63.84494
735.6461, 63.01268
736.1282, 62.35089
736.6104, 62.09483
737.0925, 62.82625
737.5746, 63.20527
738.0567, 62.43535
738.5388, 61.50035
739.0209, 61.38491
739.5031, 62.02301
739.9852, 62.73253
740.4673, 63.16555
740.9494, 63.27649
741.4315, 62.85996
741.9136, 61.97075
742.3958, 61.21473
742.8779, 60.64673
743.3600, 60.35664
743.8421, 60.43103
744.3242, 60.82035
744.8063, 61.39151
745.2885, 62.33366
745.7706, 63.04555
746.2527, 63.35022
746.7348, 63.53703
747.2169, 63.68507
747.6990, 63.86754
748.1812, 64.17265
748.6633, 64.62997
749.1454, 65.23167
749.6275, 65.97390
750.1096, 66.85060
750.5917, 67.93513
751.0739, 69.24891
751.5560, 70.21027
752.0381, 70.47314
752.5202, 70.50819
753.0023, 71.03590
753.4844, 72.17294
753.9666, 73.05518
754.4487, 73.44524
754.9308, 73.90059
755.4129, 74.59311
755.8950, 75.41478
756.3771, 76.23779
756.8593, 77.06030
757.3414, 77.99435
757.8235, 79.19080
758.3056, 80.43901
758.7877, 81.48647
759.2698, 82.31797
759.7520, 82.76923
760.2341, 82.77751
760.7162, 82.75425
761.1983, 83.00317
761.6804, 83.51488
762.1625, 84.27047
762.6447, 85.75755
763.1268, 86.67882
763.6089, 86.82867
764.0910, 86.61878
764.5731, 86.04498
765.0552, 85.32597
765.5374, 84.86985
766.0195, 84.84292
766.5016, 84.77859
766.9837, 84.31050
767.4658, 83.57724
767.9479, 82.69125
768.4301, 81.72173
768.9122, 81.00926
769.3943, 80.71413
769.8764, 80.59852
770.3585, 80.32715
770.8406, 79.89799
771.3228, 79.30428
771.8049, 78.36224
772.2870, 77.54473
772.7691, 77.04494
773.2512, 76.66982
773.7333, 76.12816
774.2155, 75.48933
774.6976, 75.31808
775.1797, 76.43625
775.6618, 77.45192
776.1439, 77.03153
776.6260, 76.00222
777.1082, 75.86887
777.5903, 76.72541
778.0724, 77.31840
778.5545, 76.65958
779.0366, 75.41129
779.5187, 75.49319
780.0009, 77.20164
780.4830, 78.32352
780.9651, 78.27087
781.4472, 78.28874
781.9293, 79.22710
782.4114, 80.69369
782.8936, 81.97021
783.3757, 83.06844
783.8578, 83.85869
784.3399, 84.02669
784.8220, 84.15154
785.3041, 84.75674
785.7863, 85.55470
786.2684, 86.04935
786.7505, 86.08928
787.2326, 85.77862
787.7147, 85.13482
788.1968, 84.25598
788.6790, 83.52418
789.1611, 82.95238
789.6432, 81.98439
790.1253, 80.32891
790.6074, 78.66404
791.0895, 77.77682
791.5717, 77.55338
792.0538, 76.66150
792.5359, 74.30137
793.0180, 72.44019
793.5001, 71.65921
793.9822, 71.05564
794.4644, 69.97591
794.9465, 68.58156
795.4286, 67.30499
795.9107, 66.28098
796.3928, 65.57691
796.8749, 65.50588
797.3571, 65.69272
797.8392, 65.39965
798.3213, 64.62698
798.8034, 63.68978
799.2855, 62.70038
799.7676, 61.81278
800.2498, 61.26242
800.7319, 61.06101
801.2140, 60.99234
801.6961, 61.32380
802.1782, 61.30626
802.6603, 60.40984
803.1425, 59.35278
803.6246, 58.63604
804.1067, 58.24440
804.5888, 57.99604
805.0709, 57.84426
805.5530, 57.82709
806.0352, 58.18660
806.5173, 58.55317
806.9994, 58.35010
807.4815, 57.70021
807.9636, 57.26575
808.4457, 57.41754
808.9279, 57.78335
809.4100, 57.68792
809.8921, 57.18401
810.3742, 57.14116
810.8563, 57.71912
811.3384, 58.08623
811.8206, 57.79660
812.3027, 57.22084
812.7848, 56.89685
813.2669, 56.86421
813.7490, 56.83139
814.2311, 56.79497
814.7133, 56.76269
815.1954, 56.84836
815.6775, 56.85826
816.1596, 56.46354
816.6417, 55.79556
817.1238, 55.41264
817.6060, 55.65864
818.0881, 56.13836
818.5702, 56.52888
819.0523, 56.82301
819.5344, 56.97306
820.0165, 56.99093
820.4987, 56.99522
820.9808, 57.04893
821.4629, 57.14066
821.9450, 57.27824
822.4271, 57.49820
822.9092, 57.47743
823.3914, 57.07239
823.8735, 56.69891
824.3556, 56.43306
824.8377, 56.32000
825.3198, 56.50980
825.8019, 56.96707
826.2841, 57.20143
826.7662, 57.04638
827.2483, 56.73656
827.7304, 56.20784
828.2125, 55.68433
828.6946, 55.42656
829.1768, 55.41075
829.6589, 55.43547
830.1410, 55.38838
830.6231, 55.37683
831.1052, 55.69809
831.5873, 56.19146
832.0695, 56.10230
832.5516, 55.37394
833.0337, 54.64995
833.5158, 54.17123
833.9979, 54.01484
834.4800, 54.39288
834.9622, 55.41105
835.4443, 55.78053
835.9264, 54.74569
836.4085, 54.18340
836.8906, 54.84573
837.3727, 55.74039
837.8549, 56.25952
838.3370, 56.35677
838.8191, 55.99764
839.3012, 54.76167
839.7833, 53.89679
840.2654, 54.45802
840.7476, 55.48271
841.2297, 55.99397
841.7118, 55.98082
842.1939, 55.64745
842.6760, 55.09611
843.1581, 54.67030
843.6403, 54.92806
844.1224, 55.70408
844.6045, 56.15027
845.0866, 56.25446
845.5687, 56.14655
846.0508, 55.80162
846.5330, 55.46209
847.0151, 55.44219
847.4972, 55.68129
847.9793, 55.50018
848.4614, 54.27846
848.9435, 53.58696
849.4257, 53.98061
849.9078, 54.41679
850.3899, 54.13381
850.8720, 53.53285
851.3541, 53.48439
851.8362, 54.26144
852.3184, 54.87378
852.8005, 54.62499
853.2826, 54.10517
853.7647, 53.91758
854.2468, 53.89919
854.7289, 53.50530
855.2111, 52.68905
855.6932, 52.18317
856.1753, 52.71041
856.6574, 53.84814
857.1395, 54.54418
857.6216, 54.79897
858.1038, 54.64376
858.5859, 53.98669
859.0680, 53.37727
859.5501, 53.18773
860.0322, 53.25693
860.5143, 53.21079
860.9965, 53.03382
861.4786, 52.78775
861.9607, 52.23138
862.4428, 51.90326
862.9249, 52.12988
863.4070, 52.54239
863.8892, 52.80052
864.3713, 52.87688
864.8534, 52.86126
865.3355, 52.68074
865.8176, 52.56753
866.2997, 52.76434
866.7819, 53.06161
867.2640, 53.27017
867.7461, 53.31701
868.2282, 53.02774
868.7103, 52.31379
869.1924, 51.52660
869.6746, 51.16726
870.1567, 51.15632
870.6388, 51.08052
871.1209, 50.93141
871.6030, 50.80373
872.0851, 50.70298
872.5673, 50.74915
873.0494, 51.13981
873.5315, 51.80536
874.0136, 52.04717
874.4957, 51.59583
874.9778, 51.21849
875.4600, 50.99809
875.9421, 50.84579
876.4242, 50.68607
876.9063, 50.57926
877.3884, 50.69346
877.8705, 51.10964
878.3527, 51.31490
878.8348, 50.96092
879.3169, 50.51766
879.7990, 50.26667
880.2811, 50.14330
880.7632, 49.98117
881.2454, 49.80112
881.7275, 49.89417
882.2096, 50.59251
882.6917, 51.27819
883.1738, 50.79459
883.6559, 49.55590
884.1381, 48.98080
884.6202, 49.18377
885.1023, 49.57752
885.5844, 49.91016
886.0665, 50.03095
886.5486, 49.60269
887.0308, 48.60156
887.5129, 48.37137
887.9950, 49.31463
888.4771, 49.92961
888.9592, 49.67298
889.4413, 49.20351
889.9235, 49.06549
890.4056, 49.17834
890.8877, 49.22606
891.3698, 49.20658
891.8519, 49.11120
892.3340, 48.89482
892.8162, 48.64876
893.2983, 48.35675
893.7804, 48.10072
894.2625, 48.06799
894.7446, 48.25720
895.2267, 48.30301
895.7089, 47.75772
896.1910, 47.20304
896.6731, 47.25634
897.1552, 47.69330
897.6373, 48.23711
898.1194, 48.76685
898.6016, 48.98193
899.0837, 48.68753
899.5658, 48.29102
900.0479, 48.59637
900.5300, 49.46810
901.0121, 49.75061
901.4943, 49.39032
901.9764, 48.76390
902.4585, 47.87383
902.9406, 47.21852
903.4227, 47.42774
903.9048, 48.36113
904.3870, 48.75294
904.8691, 48.24805
905.3512, 47.91870
905.8333, 47.92873
906.3154, 48.03304
906.7975, 48.24457
907.2797, 48.41924
907.7618, 48.24454
908.2439, 47.63765
908.7260, 47.33758
909.2081, 47.80213
909.6902, 48.28912
910.1724, 48.46552
910.6545, 48.46052
911.1366, 48.42310
911.6187, 48.35584
912.1008, 48.14222
912.5829, 47.67536
913.0651, 47.30416
913.5472, 47.52633
914.0293, 47.96319
914.5114, 47.90106
914.9935, 47.45856
915.4756, 47.19820
915.9578, 47.30077
916.4398, 47.57629
916.9219, 47.88621
917.4041, 48.15640
917.8862, 48.07621
918.3683, 47.64050
918.8504, 47.37557
919.3325, 47.35268
919.8146, 47.54035
920.2968, 47.99865
920.7789, 48.51836
921.2610, 48.66145
921.7431, 49.00790
922.2252, 49.40317
922.7073, 49.27747
923.1895, 49.88164
923.6716, 49.74656
924.1537, 49.35297
924.6358, 48.89157
925.1179, 48.45240
925.6000, 48.32747
926.0822, 48.70337
926.5643, 49.02721
927.0464, 49.11888
927.5285, 49.16496
928.0106, 49.17708
928.4927, 49.26868
928.9749, 49.65746
929.4570, 50.32407
929.9391, 50.90466
930.4212, 51.13565
930.9033, 51.29351
931.3854, 51.73262
931.8676, 52.22017
932.3497, 52.26621
932.8318, 51.98137
933.3139, 51.95411
933.7960, 52.43651
934.2781, 53.07525
934.7603, 53.42977
935.2424, 53.61158
935.7245, 53.97625
936.2066, 54.51981
936.6887, 55.22094
937.1708, 56.07818
937.6530, 57.00531
938.1351, 57.96923
938.6172, 58.90141
939.0993, 59.58514
939.5814, 59.93269
940.0635, 60.51546
940.5457, 61.31506
941.0278, 62.40300
941.5099, 63.77614
941.9920, 65.49405
942.4741, 67.68363
942.9562, 70.30810
943.4384, 72.98208
943.9205, 75.63752
944.4026, 78.42941
944.8847, 81.45300
945.3668, 84.51686
945.8489, 87.38745
946.3311, 90.30137
946.8132, 93.56486
947.2953, 97.21571
947.7774, 101.1520
948.2595, 105.2912
948.7416, 109.7729
949.2238, 114.6427
949.7059, 119.8757
950.1880, 125.1809
950.6701, 130.8820
951.1522, 137.7431
951.6343, 146.0692
952.1165, 155.5459
952.5986, 165.7936
953.0807, 177.2616
953.5628, 190.8060
954.0449, 206.0547
954.5270, 221.9037
955.0092, 238.2915
955.4913, 256.3870
955.9734, 276.8760
956.4555, 299.3533
956.9376, 323.8136
957.4197, 349.7363
957.9019, 375.7488
958.3840, 401.6545
958.8661, 423.2927
959.3482, 439.6606
959.8303, 449.2654
960.3124, 450.7653
960.7946, 444.2385
961.2767, 429.3336
961.7588, 404.6786
962.2409, 377.9068
962.7230, 348.1020
963.2051, 319.3983
963.6873, 292.9417
964.1694, 269.4387
964.6515, 249.8588
965.1336, 234.1385
965.6157, 221.5620
966.0978, 213.5824
966.5800, 206.5026
967.0621, 200.9748
967.5442, 195.2564
968.0263, 188.3524
968.5084, 180.7542
968.9905, 173.3380
969.4727, 166.2074
969.9548, 158.7259
970.4369, 150.1406
970.9190, 142.0490
971.4011, 135.0545
971.8832, 128.8609
972.3654, 123.1208
972.8475, 117.9869
973.3296, 113.8656
973.8117, 110.9261
974.2938, 108.5985
974.7759, 107.0909
975.2581, 105.5104
975.7402, 103.0932
976.2223, 100.0850
976.7044, 96.81986
977.1865, 93.37812
977.6686, 89.74712
978.1508, 85.87849
978.6329, 82.12552
979.1150, 78.78835
979.5971, 75.85373
980.0792, 73.29599
980.5613, 71.07867
981.0435, 69.07381
981.5256, 67.26575
982.0077, 65.87887
982.4898, 65.12504
982.9719, 64.74876
983.4540, 64.26559
983.9362, 63.71923
984.4183, 63.27943
984.9004, 62.96899
985.3825, 63.16924
985.8646, 64.04665
986.3467, 65.12650
986.8289, 65.94724
987.3110, 66.56361
987.7931, 67.05626
988.2752, 67.29463
988.7573, 68.62468
989.2394, 71.49556
989.7216, 74.15636
990.2037, 75.76867
990.6858, 76.91352
991.1679, 78.24866
991.6500, 79.78197
992.1321, 81.67829
992.6143, 84.01822
993.0964, 86.52640
993.5785, 89.19949
994.0606, 92.01624
994.5427, 94.80343
995.0248, 97.80997
995.5070, 101.3878
995.9891, 105.5172
996.4712, 110.3445
996.9533, 116.0848
997.4354, 122.2154
997.9175, 128.6974
998.3997, 135.4651
998.8818, 142.6893
999.3639, 150.1116
999.8460, 157.7464
1000.328, 165.6872
1000.810, 171.5764
1001.292, 175.0667
1001.774, 176.0982
1002.257, 174.0699
1002.739, 170.0562
1003.221, 164.5092
1003.703, 157.8335
1004.185, 150.4756
1004.667, 142.4931
1005.149, 135.0446
1005.631, 128.7273
1006.114, 123.1360
1006.596, 117.8108
1007.078, 113.1866
1007.560, 109.8888
1008.042, 107.7481
1008.524, 106.0499
1009.006, 104.5160
1009.488, 103.6757
1009.970, 104.1191
1010.453, 105.3254
1010.935, 106.9258
1011.417, 108.7746
1011.899, 110.6215
1012.381, 112.4745
1012.863, 114.5703
1013.345, 117.0334
1013.827, 119.7240
1014.310, 122.2161
1014.792, 125.0000
1015.274, 129.2069
1015.756, 134.4869
1016.238, 139.9715
1016.720, 145.3898
1017.202, 150.3601
1017.684, 154.5965
1018.166, 158.8763
1018.649, 164.7533
1019.131, 171.6111
1019.613, 177.3534
1020.095, 181.9725
1020.577, 185.8997
1021.059, 189.2332
1021.541, 191.5034
1022.023, 192.4718
1022.505, 191.8129
1022.988, 188.8372
1023.470, 183.5986
1023.952, 176.7553
1024.434, 168.2772
1024.916, 158.6885
1025.398, 147.9866
1025.880, 136.9688
1026.362, 126.0726
1026.845, 115.7214
1027.327, 107.1400
1027.809, 100.4280
1028.291, 93.93089
1028.773, 87.50156
1029.255, 82.20435
1029.737, 78.50700
1030.219, 75.41252
1030.702, 72.16597
1031.184, 68.91496
1031.666, 66.11918
1032.148, 63.82352
1032.630, 61.69982
1033.112, 59.72047
1033.594, 58.00529
1034.076, 56.66067
1034.558, 55.43022
1035.041, 54.06528
1035.523, 52.66488
1036.005, 51.54622
1036.487, 50.80872
1036.969, 49.96302
1037.451, 48.80116
1037.933, 47.94005
1038.415, 47.80251
1038.897, 47.68701
1039.380, 46.90831
1039.862, 45.72328
1040.344, 44.99972
1040.826, 44.93069
1041.308, 44.75522
1041.790, 44.26577
1042.272, 43.97222
1042.754, 44.32788
1043.237, 44.62500
1043.719, 44.08964
1044.201, 43.07783
1044.683, 42.66064
1045.165, 43.08244
1045.647, 43.41210
1046.129, 43.74640
1046.611, 43.80654
1047.094, 43.28564
1047.576, 42.67223
1048.058, 42.40641
1048.540, 42.34597
1049.022, 42.02943
1049.504, 41.27715
1049.986, 40.83712
1050.468, 40.92649
1050.950, 41.18359
1051.432, 41.78593
1051.915, 42.24972
1052.397, 42.00257
1052.879, 41.34963
1053.361, 41.09090
1053.843, 41.41944
1054.325, 41.64979
1054.807, 41.63847
1055.289, 41.50154
1055.772, 41.11032
1056.254, 40.76513
1056.736, 40.83385
1057.218, 41.10475
1057.700, 41.03733
1058.182, 40.49198
1058.664, 40.10493
1059.146, 40.26897
1059.629, 40.34158
1060.111, 39.74054
1060.593, 39.24074
1061.075, 39.65879
1061.557, 40.61546
1062.039, 41.31442
1062.521, 41.60841
1063.003, 41.63879
1063.485, 41.19246
1063.968, 40.83473
1064.450, 40.86031
1064.932, 41.02544
1065.414, 41.21824
1065.896, 41.36066
1066.378, 41.33191
1066.860, 41.11432
1067.342, 40.87503
1067.824, 40.50518
1068.307, 40.35602
1068.789, 40.70685
1069.271, 41.22041
1069.753, 41.70818
1070.235, 42.12085
1070.717, 42.43838
1071.199, 42.65358
1071.681, 42.72235
1072.164, 42.45550
1072.646, 42.30101
1073.128, 42.54097
1073.610, 42.89431
1074.092, 43.15141
1074.574, 43.36514
1075.056, 43.65308
1075.538, 44.02026
1076.021, 44.35582
1076.503, 44.53759
1076.985, 44.84138
1077.467, 45.47573
1077.949, 46.20104
1078.431, 47.00922
1078.913, 47.69115
1079.395, 47.79521
1079.877, 47.46033
1080.359, 47.56089
1080.842, 48.66298
1081.324, 49.48415
1081.806, 48.99131
1082.288, 48.48545
1082.770, 49.06263
1083.252, 49.99479
1083.734, 50.39124
1084.216, 50.23349
1084.698, 49.91597
1085.181, 49.52983
1085.663, 49.11693
1086.145, 48.52278
1086.627, 48.10841
1087.109, 48.16068
1087.591, 48.45395
1088.073, 48.94872
1088.555, 49.43300
1089.038, 49.37252
1089.520, 48.56544
1090.002, 47.89448
1090.484, 47.76543
1090.966, 47.81306
1091.448, 47.91630
1091.930, 48.05299
1092.412, 48.15859
1092.895, 48.30231
1093.377, 48.72426
1093.859, 49.47013
1094.341, 49.87464
1094.823, 49.15497
1095.305, 48.77867
1095.787, 49.66428
1096.269, 50.81298
1096.751, 51.51225
1097.234, 51.91972
1097.716, 52.31722
1098.198, 52.76107
1098.680, 53.31597
1099.162, 53.93542
1099.644, 54.77356
1100.126, 55.99501
1100.608, 57.32118
1101.090, 58.74804
1101.573, 60.06963
1102.055, 61.10527
1102.537, 61.82084
1103.019, 62.17104
1103.501, 61.88731
1103.983, 61.84690
1104.465, 62.81685
1104.947, 63.38615
1105.430, 62.49186
1105.912, 61.22806
1106.394, 60.86780
1106.876, 61.05872
1107.358, 60.42536
1107.840, 58.49458
1108.322, 56.88399
1108.804, 56.02827
1109.286, 55.26926
1109.769, 54.50720
1110.251, 53.68423
1110.733, 52.66727
1111.215, 51.59803
1111.697, 50.77785
1112.179, 50.26199
1112.661, 49.71911
1113.143, 48.96392
1113.625, 48.42448
1114.108, 48.25527
1114.590, 48.20692
1115.072, 48.20375
1115.554, 48.20850
1116.036, 48.07331
1116.518, 47.81391
1117.000, 48.03053
1117.482, 49.20073
1117.965, 49.98222
1118.447, 50.23955
1118.929, 50.22832
1119.411, 49.75416
1119.893, 49.36920
1120.375, 49.62765
1120.857, 50.44482
1121.339, 51.49950
1121.822, 53.02590
1122.304, 54.01379
1122.786, 54.10315
1123.268, 54.50550
1123.750, 55.64189
1124.232, 56.97350
1124.714, 58.17920
1125.196, 59.21040
1125.678, 59.93196
1126.161, 60.31342
1126.643, 60.84480
1127.125, 61.58907
1127.607, 62.20388
1128.089, 62.59458
1128.571, 63.05577
1129.053, 63.85754
1129.535, 64.47794
1130.017, 64.14527
1130.500, 63.00791
1130.982, 62.06997
1131.464, 61.37572
1131.946, 60.11843
1132.428, 58.14892
1132.910, 56.80713
1133.392, 56.68558
1133.874, 56.52974
1134.357, 55.11053
1134.839, 53.02517
1135.321, 51.65916
1135.803, 50.98171
1136.285, 50.89259
1136.767, 51.31687
1137.249, 51.27229
1137.731, 50.54435
1138.214, 49.64904
1138.696, 48.88855
1139.178, 48.30159
1139.660, 47.95435
1140.142, 47.81880
1140.624, 47.79333
1141.106, 47.91160
1141.588, 48.44287
1142.070, 49.29103
1142.552, 49.76039
1143.035, 49.60105
1143.517, 49.41827
1143.999, 49.79259
1144.481, 50.37309
1144.963, 50.65027
1145.445, 50.75257
1145.927, 50.75460
1146.409, 50.82726
1146.892, 51.44307
1147.374, 52.60425
1147.856, 53.74946
1148.338, 54.58351
1148.820, 55.22413
1149.302, 55.44151
1149.784, 55.84122
1150.266, 57.31541
1150.749, 59.23882
1151.231, 60.80589
1151.713, 61.91798
1152.195, 62.51096
1152.677, 62.56719
1153.159, 63.03901
1153.641, 64.63013
1154.123, 66.53284
1154.605, 68.60033
1155.088, 70.47538
1155.570, 71.79004
1156.052, 72.73642
1156.534, 73.61385
1157.016, 74.46751
1157.498, 75.27438
1157.980, 76.07385
1158.462, 76.72988
1158.944, 77.27928
1159.427, 77.59516
1159.909, 77.41553
1160.391, 77.15405
1160.873, 77.34740
1161.355, 77.75613
1161.837, 77.65183
1162.319, 76.93251
1162.801, 75.98577
1163.284, 74.43063
1163.766, 73.30112
1164.248, 73.24251
1164.730, 72.87874
1165.212, 71.32127
1165.694, 69.25478
1166.176, 67.57770
1166.658, 66.27139
1167.141, 65.20998
1167.623, 64.53005
1168.105, 63.53357
1168.587, 62.12466
1169.069, 60.66661
1169.551, 59.26177
1170.033, 57.86374
1170.515, 56.38413
1170.997, 54.97906
1171.479, 53.96612
1171.962, 53.33263
1172.444, 52.98202
1172.926, 52.88798
1173.408, 52.44644
1173.890, 51.56959
1174.372, 50.51984
1174.854, 49.41897
1175.336, 48.39898
1175.819, 47.57615
1176.301, 46.98944
1176.783, 46.86590
1177.265, 46.99195
1177.747, 46.83298
1178.229, 46.39576
1178.711, 45.82885
1179.193, 45.18086
1179.676, 44.42408
1180.158, 43.51794
1180.640, 42.77461
1181.122, 42.65809
1181.604, 42.69989
1182.086, 42.33107
1182.568, 41.82514
1183.050, 41.65440
1183.532, 41.68212
1184.015, 41.41608
1184.497, 40.76539
1184.979, 40.25060
1185.461, 40.16904
1185.943, 40.17965
1186.425, 40.20593
1186.907, 40.18521
1187.389, 40.06249
1187.871, 39.87914
1188.354, 39.59519
1188.836, 39.29752
1189.318, 39.33838
1189.800, 39.97224
1190.282, 40.13426
1190.764, 39.37812
1191.246, 38.63727
1191.728, 37.95195
1192.211, 37.49310
1192.693, 37.41985
1193.175, 37.56664
1193.657, 37.74440
1194.139, 37.93846
1194.621, 38.02549
1195.103, 38.03289
1195.585, 37.77797
1196.068, 37.18439
1196.550, 36.64708
1197.032, 36.26755
1197.514, 36.04287
1197.996, 35.96104
1198.478, 36.09188
1198.960, 36.75016
1199.442, 36.38979
1199.924, 37.39555
1200.406, 36.11548
1200.889, 35.35924
1201.371, 35.25410
1201.853, 35.23694
1202.335, 35.11104
1202.817, 35.18647
1203.299, 35.82975
1203.781, 36.37637
1204.263, 35.68421
1204.746, 34.53106
1205.228, 34.06962
1205.710, 34.06320
1206.192, 34.06604
1206.674, 33.97402
1207.156, 33.70330
1207.638, 33.22796
1208.120, 32.97312
1208.603, 33.29109
1209.085, 33.74887
1209.567, 34.38575
1210.049, 34.79307
1210.531, 34.35374
1211.013, 33.68496
1211.495, 33.80995
1211.977, 34.54979
1212.459, 34.56806
1212.942, 33.19085
1213.424, 32.57457
1213.906, 33.89560
1214.388, 34.42951
1214.870, 33.01420
1215.352, 31.69393
1215.834, 31.66355
1216.316, 32.34605
1216.798, 33.02847
1217.281, 33.66724
1217.763, 33.90550
1218.245, 33.71758
1218.727, 33.29192
1219.209, 32.60754
1219.691, 32.09934
1220.173, 31.89253
1220.655, 31.78724
1221.138, 31.63870
1221.620, 31.65769
1222.102, 32.34203
1222.584, 32.19042
1223.066, 33.20854
1223.548, 32.54156
1224.030, 32.40387
1224.512, 32.75694
1224.995, 33.09107
1225.477, 33.24452
1225.959, 33.24534
1226.441, 33.09988
1226.923, 32.84886
1227.405, 32.37339
1227.887, 31.97513
1228.369, 31.95949
1228.851, 32.11673
1229.333, 32.35266
1229.816, 32.50877
1230.298, 32.20012
1230.780, 31.40450
1231.262, 30.97330
1231.744, 31.28635
1232.226, 31.67694
1232.708, 32.47589
1233.190, 32.75923
1233.673, 31.81814
1234.155, 30.75124
1234.637, 30.41640
1235.119, 30.53864
1235.601, 30.54682
1236.083, 30.44104
1236.565, 30.40395
1237.047, 30.42120
1237.530, 30.66115
1238.012, 31.15911
1238.494, 31.65842
1238.976, 32.07643
1239.458, 32.25481
1239.940, 32.04852
1240.422, 31.63741
1240.904, 31.25698
1241.386, 30.92672
1241.869, 30.65607
1242.351, 30.48501
1242.833, 30.54331
1243.315, 30.79041
1243.797, 31.08779
1244.279, 31.37895
1244.761, 31.60931
1245.243, 31.77533
1245.725, 31.80799
1246.208, 31.56977
1246.690, 31.29001
1247.172, 31.08433
1247.654, 30.96005
1248.136, 30.97643
1248.618, 31.05617
1249.100, 30.99283
1249.582, 31.05000
1250.065, 31.14536
1250.547, 31.08103
1251.029, 31.29777
1251.511, 31.29978
1251.993, 31.21179
1252.475, 31.01776
1252.957, 30.89407
1253.439, 31.02695
1253.922, 31.19310
1254.404, 30.89080
1254.886, 30.24703
1255.368, 30.20147
1255.850, 30.68634
1256.332, 31.16879
1256.814, 31.56548
1257.296, 31.69917
1257.778, 31.54461
1258.260, 31.38878
1258.743, 31.43711
1259.225, 31.38687
1259.707, 30.65251
1260.189, 29.92018
1260.671, 30.09430
1261.153, 30.61088
1261.635, 30.71530
1262.117, 30.58671
1262.600, 30.86371
1263.082, 31.51720
1263.564, 31.55867
1264.046, 30.25848
1264.528, 29.54567
1265.010, 30.39160
1265.492, 31.02529
1265.974, 30.67177
1266.457, 30.33811
1266.939, 30.74537
1267.421, 30.44822
1267.903, 31.18125
1268.385, 30.51677
1268.867, 30.28190
1269.349, 30.49431
1269.831, 30.82734
1270.313, 31.26475
1270.796, 31.49161
1271.278, 31.44713
1271.760, 31.25721
1272.242, 30.98824
1272.724, 30.87054
1273.206, 31.24415
1273.688, 31.69135
1274.170, 31.59945
1274.652, 31.24666
1275.135, 30.87333
1275.617, 30.60038
1276.099, 30.62384
1276.581, 30.89004
1277.063, 31.23936
1277.545, 31.65621
1278.027, 31.70510
1278.509, 30.75101
1278.992, 30.18105
1279.474, 30.65843
1279.956, 31.13229
1280.438, 31.00688
1280.920, 30.91507
1281.402, 31.58188
1281.884, 31.15851
1282.366, 32.20064
1282.849, 30.88330
1283.331, 30.21044
1283.813, 30.18400
1284.295, 30.87590
1284.777, 32.21650
1285.259, 32.82824
1285.741, 32.33854
1286.223, 31.63381
1286.705, 31.26549
1287.188, 31.23459
##END=



