##NAMES=Billingsleyite
##RRUFFID=R070350
##IDEAL CHEMISTRY=Ag_7_AsS_6_
##LOCALITY=North Lily Mine, East Tintic District, East Tintic Mts, Utah County, Utah, USA
##OWNER=RRUFF
##SOURCE=Michael Scott
##DESCRIPTION=Steel-grey fine-grained loose aggregates, co-type sample
##STATUS=The identification of this mineral is confirmed by single-crystal X-ray diffraction and chemical analysis.
##URL=rruff.info/R070350
##MEASURED CHEMISTRY=(Ag_6.94_Cu_0.04_Fe_0.01_)_Σ6.99_(As_0.87_Sb_0.13_)_Σ1.00_S_6.01_
164.6075, 235.2664
165.0896, 232.6036
165.5717, 230.5889
166.0538, 230.2994
166.5359, 231.6142
167.0180, 234.3298
167.5002, 241.3886
167.9823, 247.9503
168.4644, 248.9223
168.9465, 242.9639
169.4286, 238.1572
169.9107, 243.4045
170.3929, 254.2858
170.8750, 261.6255
171.3571, 257.0804
171.8392, 248.1177
172.3213, 242.5745
172.8034, 241.7566
173.2856, 243.4625
173.7677, 247.5356
174.2498, 253.0215
174.7319, 256.5898
175.2140, 254.2488
175.6961, 249.1861
176.1783, 246.3842
176.6604, 247.2608
177.1425, 249.7787
177.6246, 251.7698
178.1067, 253.2779
178.5888, 254.7195
179.0710, 256.8606
179.5531, 259.1355
180.0352, 260.2047
180.5173, 259.5561
180.9994, 257.7342
181.4815, 254.9921
181.9637, 251.3597
182.4458, 248.5255
182.9279, 248.6982
183.4100, 251.0710
183.8921, 252.5060
184.3742, 251.3587
184.8564, 249.0294
185.3385, 248.8993
185.8206, 251.0669
186.3027, 254.2246
186.7848, 257.6808
187.2669, 261.2726
187.7491, 263.9023
188.2312, 265.1151
188.7133, 265.0662
189.1954, 263.7691
189.6775, 260.8647
190.1596, 258.3709
190.6418, 259.6569
191.1239, 264.6003
191.6060, 268.4348
192.0881, 268.6413
192.5702, 265.6754
193.0524, 263.4375
193.5345, 261.9424
194.0166, 261.1419
194.4987, 261.0101
194.9808, 261.5507
195.4629, 262.7097
195.9451, 265.0280
196.4272, 268.4864
196.9093, 270.1241
197.3914, 269.3825
197.8735, 267.5528
198.3556, 267.3820
198.8378, 269.2176
199.3199, 270.5146
199.8020, 269.4478
200.2841, 265.8055
200.7662, 263.0295
201.2483, 261.2008
201.7305, 260.4501
202.2126, 261.6976
202.6947, 265.6441
203.1768, 268.9728
203.6589, 269.0799
204.1410, 265.3091
204.6232, 262.9651
205.1053, 262.5948
205.5874, 263.9134
206.0695, 266.7498
206.5516, 272.3153
207.0337, 276.2169
207.5159, 274.4685
207.9980, 265.5324
208.4801, 258.3147
208.9622, 253.6207
209.4443, 251.4801
209.9264, 252.6292
210.4086, 258.3940
210.8907, 264.8055
211.3728, 268.5652
211.8549, 268.8514
212.3370, 269.5137
212.8191, 271.6812
213.3013, 274.9132
213.7834, 275.2090
214.2655, 271.1471
214.7476, 266.4239
215.2297, 264.4102
215.7118, 266.0582
216.1940, 267.7079
216.6761, 268.5557
217.1582, 268.6760
217.6403, 269.8677
218.1224, 272.8321
218.6045, 275.9126
219.0867, 277.7006
219.5688, 278.4417
220.0509, 277.1237
220.5330, 272.6997
221.0151, 264.9927
221.4972, 259.9666
221.9794, 258.1802
222.4615, 258.3943
222.9436, 259.4211
223.4257, 261.6057
223.9078, 263.9973
224.3899, 266.9124
224.8721, 270.6538
225.3542, 271.0245
225.8363, 265.5748
226.3184, 259.0780
226.8005, 257.7201
227.2827, 265.1270
227.7648, 270.6948
228.2469, 270.8972
228.7290, 264.6209
229.2111, 262.0027
229.6932, 265.6557
230.1754, 270.8799
230.6575, 270.9307
231.1396, 261.6440
231.6217, 254.6312
232.1038, 254.0778
232.5859, 261.9131
233.0681, 265.5055
233.5502, 262.3557
234.0323, 256.7597
234.5144, 255.1649
234.9965, 260.0829
235.4786, 264.8156
235.9608, 267.5497
236.4429, 268.1664
236.9250, 266.9799
237.4071, 262.3797
237.8892, 256.9875
238.3713, 255.2073
238.8535, 259.1172
239.3356, 263.1891
239.8177, 265.9154
240.2998, 267.3971
240.7819, 266.7961
241.2640, 262.0686
241.7462, 256.4361
242.2283, 256.0266
242.7104, 264.9880
243.1925, 272.3153
243.6746, 273.6612
244.1567, 266.3539
244.6389, 262.2990
245.1210, 262.7173
245.6031, 265.6500
246.0852, 267.8601
246.5673, 269.6928
247.0494, 270.1975
247.5316, 268.7380
248.0137, 264.4866
248.4958, 261.0248
248.9779, 258.3804
249.4600, 256.5325
249.9421, 255.6858
250.4243, 256.6279
250.9064, 257.1384
251.3885, 256.0742
251.8706, 252.4047
252.3527, 250.6060
252.8348, 250.9134
253.3170, 252.9307
253.7991, 256.4155
254.2812, 262.9364
254.7633, 267.8495
255.2454, 269.1519
255.7275, 265.9060
256.2097, 262.2905
256.6918, 257.6773
257.1739, 253.1651
257.6560, 251.1177
258.1381, 252.9635
258.6202, 254.3065
259.1024, 252.9942
259.5845, 247.8338
260.0666, 245.1989
260.5487, 246.0618
261.0308, 248.7209
261.5129, 249.8696
261.9951, 248.5794
262.4772, 247.9895
262.9593, 249.7991
263.4414, 254.9516
263.9235, 258.2144
264.4056, 259.8555
264.8878, 259.3728
265.3699, 254.9925
265.8520, 244.7188
266.3341, 236.1631
266.8162, 233.1871
267.2983, 237.1995
267.7805, 237.2359
268.2626, 231.1300
268.7447, 223.4610
269.2268, 223.0314
269.7089, 231.9553
270.1910, 240.5210
270.6732, 244.8056
271.1553, 244.3086
271.6374, 244.4588
272.1195, 246.0328
272.6016, 247.1117
273.0837, 243.3703
273.5659, 233.4050
274.0480, 225.7271
274.5301, 224.7339
275.0122, 230.7595
275.4943, 233.7873
275.9764, 233.1035
276.4586, 230.7641
276.9407, 229.9236
277.4228, 230.8019
277.9049, 231.3390
278.3870, 230.2339
278.8691, 227.6286
279.3513, 226.9689
279.8334, 228.5719
280.3155, 231.3054
280.7976, 234.2673
281.2798, 237.5084
281.7619, 239.2539
282.2440, 239.0238
282.7261, 236.7864
283.2082, 231.2117
283.6903, 221.3261
284.1725, 211.6881
284.6546, 209.2442
285.1367, 213.7046
285.6188, 216.8127
286.1009, 214.3625
286.5830, 208.0745
287.0652, 205.6266
287.5473, 207.4007
288.0294, 210.8581
288.5115, 214.5197
288.9936, 218.0596
289.4757, 218.5450
289.9579, 212.5755
290.4400, 203.4511
290.9221, 201.1121
291.4042, 205.9890
291.8863, 212.2782
292.3684, 214.2691
292.8506, 212.6761
293.3327, 210.5832
293.8148, 208.4060
294.2969, 206.6331
294.7790, 206.5485
295.2611, 208.1573
295.7433, 209.9067
296.2254, 210.5308
296.7075, 210.2420
297.1896, 209.4544
297.6717, 207.1641
298.1538, 205.3930
298.6360, 208.6425
299.1181, 216.4561
299.6002, 223.0883
300.0823, 224.8488
300.5644, 222.2746
301.0465, 215.6000
301.5287, 201.0843
302.0108, 187.2801
302.4929, 186.5281
302.9750, 196.7560
303.4571, 206.1221
303.9392, 205.1169
304.4214, 198.9375
304.9035, 194.8576
305.3856, 196.2508
305.8677, 197.6501
306.3498, 193.0969
306.8319, 184.1796
307.3141, 176.3970
307.7962, 172.4592
308.2783, 171.5722
308.7604, 173.6608
309.2425, 180.5048
309.7246, 186.2876
310.2068, 186.2132
310.6889, 182.0407
311.1710, 178.3587
311.6531, 177.5824
312.1352, 178.0170
312.6173, 178.6367
313.0995, 179.5337
313.5816, 179.8309
314.0637, 177.6760
314.5458, 174.7198
315.0279, 174.0412
315.5100, 180.4098
315.9922, 186.6615
316.4743, 188.3530
316.9564, 183.7174
317.4385, 179.7380
317.9206, 179.2487
318.4027, 180.6728
318.8849, 181.8064
319.3670, 181.0483
319.8491, 180.7884
320.3312, 182.7330
320.8133, 187.7883
321.2954, 190.2061
321.7776, 185.6555
322.2597, 179.1777
322.7418, 176.1459
323.2239, 181.7632
323.7060, 186.4727
324.1881, 187.5888
324.6703, 184.7015
325.1524, 182.4493
325.6345, 181.1488
326.1166, 180.6257
326.5987, 180.7444
327.0808, 182.8407
327.5630, 183.9805
328.0451, 182.9143
328.5272, 179.8437
329.0093, 179.4207
329.4914, 185.4262
329.9735, 190.6669
330.4557, 189.8145
330.9378, 175.9819
331.4199, 168.2934
331.9020, 170.6843
332.3841, 180.7384
332.8662, 186.7066
333.3484, 187.5185
333.8305, 185.7781
334.3126, 182.3032
334.7947, 175.9057
335.2768, 171.6938
335.7589, 170.6441
336.2411, 171.5267
336.7232, 171.2101
337.2053, 169.4127
337.6874, 167.2409
338.1695, 164.3293
338.6516, 160.1678
339.1338, 160.7682
339.6159, 167.9541
340.0980, 177.1847
340.5801, 179.9697
341.0622, 175.6311
341.5443, 171.3573
342.0265, 170.7617
342.5086, 173.2593
342.9907, 172.6339
343.4728, 168.1890
343.9549, 163.3731
344.4370, 163.0448
344.9192, 166.7445
345.4013, 170.1710
345.8834, 172.0607
346.3655, 172.4999
346.8476, 170.5574
347.3297, 166.1136
347.8119, 162.8316
348.2940, 165.6387
348.7761, 172.6109
349.2582, 178.0093
349.7403, 180.4868
350.2225, 180.4957
350.7046, 177.8395
351.1867, 172.7957
351.6688, 167.6877
352.1509, 163.3110
352.6331, 160.1512
353.1152, 158.9960
353.5973, 160.2351
354.0794, 163.1143
354.5615, 168.9015
355.0436, 176.1924
355.5258, 180.7136
356.0079, 176.5971
356.4900, 170.6351
356.9721, 169.3667
357.4542, 175.2467
357.9363, 180.8963
358.4185, 181.7314
358.9006, 179.5837
359.3827, 177.6230
359.8648, 176.6571
360.3469, 176.5352
360.8290, 177.6905
361.3112, 180.4789
361.7933, 182.1353
362.2754, 180.6627
362.7575, 178.0405
363.2396, 176.4134
363.7217, 175.9668
364.2039, 176.8805
364.6860, 180.1203
365.1681, 185.7185
365.6502, 189.5889
366.1323, 189.8154
366.6144, 189.0842
367.0966, 189.2662
367.5787, 193.8915
368.0608, 195.1013
368.5429, 190.0076
369.0250, 180.3301
369.5071, 175.1497
369.9893, 177.5897
370.4714, 180.8931
370.9535, 181.6853
371.4356, 178.3312
371.9177, 176.2406
372.3998, 176.0242
372.8820, 176.8275
373.3641, 176.6607
373.8462, 175.0859
374.3283, 173.7036
374.8104, 173.6185
375.2925, 175.1234
375.7747, 173.9552
376.2568, 169.1312
376.7389, 163.5616
377.2210, 161.9149
377.7031, 164.5547
378.1852, 165.8605
378.6674, 163.8618
379.1495, 159.1737
379.6316, 153.4821
380.1137, 146.5618
380.5958, 141.1123
381.0779, 140.9810
381.5601, 145.0353
382.0422, 147.6651
382.5243, 147.4716
383.0064, 145.4980
383.4885, 142.2813
383.9706, 138.1840
384.4528, 136.0928
384.9349, 140.8100
385.4170, 148.0852
385.8991, 150.3379
386.3812, 145.2970
386.8633, 138.9604
387.3455, 136.7256
387.8276, 137.4722
388.3097, 138.6179
388.7918, 140.2355
389.2739, 140.8452
389.7560, 138.7522
390.2382, 133.6106
390.7203, 128.4009
391.2024, 123.2396
391.6845, 119.4067
392.1666, 118.3353
392.6487, 123.8460
393.1309, 129.1202
393.6130, 131.5694
394.0951, 131.2934
394.5772, 129.8609
395.0593, 125.7990
395.5414, 121.8886
396.0236, 119.9107
396.5057, 121.1910
396.9878, 123.1314
397.4699, 126.6041
397.9520, 130.7166
398.4341, 132.6131
398.9163, 130.1833
399.3984, 127.7338
399.8805, 127.1775
400.3626, 130.1071
400.8447, 129.8998
401.3268, 124.2500
401.8090, 117.1685
402.2911, 114.8476
402.7732, 119.7434
403.2553, 122.9556
403.7374, 121.4458
404.2195, 115.5679
404.7017, 111.7302
405.1838, 110.1019
405.6659, 110.0589
406.1480, 111.9300
406.6301, 115.7850
407.1122, 117.2313
407.5944, 114.4359
408.0765, 109.8575
408.5586, 110.1062
409.0407, 115.0854
409.5228, 119.9105
410.0049, 121.0503
410.4871, 119.5051
410.9692, 117.7711
411.4513, 115.8720
411.9334, 114.7014
412.4155, 116.4937
412.8976, 120.0327
413.3798, 121.7758
413.8619, 117.1524
414.3440, 111.6670
414.8261, 112.2175
415.3082, 118.9098
415.7903, 124.7685
416.2725, 124.5235
416.7546, 121.2222
417.2367, 118.2367
417.7188, 115.9889
418.2009, 115.0371
418.6830, 116.4028
419.1652, 119.5037
419.6473, 122.1516
420.1294, 125.3091
420.6115, 126.5994
421.0937, 123.9153
421.5758, 113.1249
422.0579, 106.8281
422.5400, 110.0036
423.0221, 117.9278
423.5042, 122.9340
423.9864, 123.1515
424.4685, 122.1869
424.9506, 120.2861
425.4327, 117.2934
425.9148, 115.8184
426.3969, 116.6939
426.8791, 118.1366
427.3612, 118.5049
427.8433, 117.3083
428.3254, 116.5410
428.8075, 116.3838
429.2896, 116.8860
429.7718, 118.8282
430.2539, 122.7571
430.7360, 125.3074
431.2181, 123.2984
431.7002, 117.1845
432.1823, 114.0553
432.6645, 114.8241
433.1466, 116.6991
433.6287, 114.8354
434.1108, 110.2357
434.5929, 108.0436
435.0750, 113.0912
435.5572, 120.7174
436.0393, 121.9705
436.5214, 117.1107
437.0035, 111.6480
437.4856, 110.0633
437.9677, 110.5403
438.4499, 110.5258
438.9320, 108.9777
439.4141, 107.4609
439.8962, 107.7175
440.3783, 108.9359
440.8604, 109.0298
441.3426, 105.0606
441.8247, 101.2340
442.3068, 100.4449
442.7889, 103.8406
443.2710, 106.2377
443.7531, 104.2684
444.2353, 101.3714
444.7174, 101.3160
445.1995, 110.4227
445.6816, 116.0500
446.1637, 113.2472
446.6458, 103.2724
447.1280, 99.86515
447.6101, 108.6902
448.0922, 117.8508
448.5743, 120.2108
449.0564, 112.0044
449.5385, 107.4213
450.0207, 108.4931
450.5028, 111.8366
450.9849, 109.9544
451.4670, 101.2877
451.9491, 95.53803
452.4312, 98.45552
452.9134, 108.3320
453.3955, 110.8270
453.8776, 105.1012
454.3597, 98.00015
454.8418, 96.40062
455.3239, 99.21864
455.8061, 102.1814
456.2882, 104.6992
456.7703, 106.3926
457.2524, 106.1912
457.7345, 104.5178
458.2166, 103.0908
458.6988, 102.5507
459.1809, 102.9964
459.6630, 105.0156
460.1451, 108.9669
460.6272, 112.3735
461.1093, 113.6861
461.5915, 113.5305
462.0736, 112.6433
462.5557, 109.5750
463.0378, 107.4784
463.5199, 108.4500
464.0020, 111.9620
464.4842, 114.0446
464.9663, 112.5564
465.4484, 110.3844
465.9305, 109.0202
466.4126, 108.7588
466.8947, 108.8283
467.3769, 108.6971
467.8590, 109.1199
468.3411, 111.8903
468.8232, 119.6127
469.3053, 124.3239
469.7874, 123.0228
470.2696, 116.1262
470.7517, 111.3005
471.2338, 108.7752
471.7159, 107.6310
472.1980, 107.0428
472.6801, 107.0347
473.1623, 108.9532
473.6444, 113.9176
474.1265, 119.0841
474.6086, 118.9533
475.0907, 114.1827
475.5728, 109.0260
476.0550, 104.9408
476.5371, 102.1677
477.0192, 101.5723
477.5013, 103.1972
477.9834, 105.2123
478.4655, 105.9674
478.9477, 106.3449
479.4298, 107.6098
479.9119, 111.8525
480.3940, 114.9229
480.8761, 113.7238
481.3582, 109.5079
481.8404, 105.8745
482.3225, 103.6252
482.8046, 102.5327
483.2867, 102.9204
483.7688, 105.6893
484.2509, 106.8894
484.7331, 104.9417
485.2152, 101.9148
485.6973, 99.60883
486.1794, 97.86057
486.6615, 97.16943
487.1436, 97.95977
487.6258, 99.87273
488.1079, 101.3009
488.5900, 102.2907
489.0721, 102.6329
489.5542, 101.9895
490.0363, 100.3485
490.5185, 98.83508
491.0006, 97.33525
491.4827, 96.48253
491.9648, 97.49729
492.4470, 100.0732
492.9291, 102.6476
493.4112, 105.3161
493.8933, 107.0983
494.3754, 105.4200
494.8575, 100.8476
495.3397, 97.04617
495.8218, 96.75421
496.3039, 98.29862
496.7860, 100.1739
497.2681, 102.5037
497.7502, 103.8563
498.2324, 102.9740
498.7145, 100.8114
499.1966, 98.64816
499.6787, 95.91287
500.1608, 94.20601
500.6429, 94.52528
501.1251, 96.72097
501.6072, 98.31724
502.0893, 98.25280
502.5714, 98.36069
503.0535, 99.67114
503.5356, 103.3209
504.0178, 105.3001
504.4999, 104.7145
504.9820, 103.2548
505.4641, 104.1078
505.9462, 108.1445
506.4283, 109.7449
506.9105, 106.0741
507.3926, 99.00152
507.8747, 96.31178
508.3568, 98.18286
508.8389, 101.1352
509.3210, 102.9136
509.8032, 103.7931
510.2853, 104.6922
510.7674, 105.8696
511.2495, 106.4477
511.7316, 105.1217
512.2137, 102.5438
512.6959, 100.0689
513.1780, 97.54611
513.6601, 95.88600
514.1422, 96.31046
514.6243, 98.46984
515.1064, 99.98323
515.5886, 99.87358
516.0707, 98.85941
516.5528, 97.19567
517.0349, 94.02606
517.5170, 92.04397
517.9991, 92.62823
518.4813, 94.11287
518.9634, 94.29501
519.4455, 91.81123
519.9276, 90.44613
520.4097, 91.57155
520.8918, 94.58971
521.3740, 95.18142
521.8561, 92.43697
522.3382, 90.27950
522.8203, 92.56487
523.3024, 98.82056
523.7845, 100.3155
524.2667, 95.58794
524.7488, 89.85476
525.2309, 90.02245
525.7130, 94.63922
526.1951, 98.72701
526.6772, 101.2029
527.1594, 101.7342
527.6415, 98.55271
528.1236, 92.58141
528.6057, 87.80130
529.0878, 87.22071
529.5699, 88.26584
530.0521, 89.32909
530.5342, 90.41589
531.0163, 90.56468
531.4984, 87.42086
531.9805, 84.06024
532.4626, 83.73218
532.9448, 91.76450
533.4269, 96.95286
533.9090, 97.20782
534.3911, 93.62087
534.8732, 90.23391
535.3553, 86.54134
535.8375, 83.95761
536.3196, 83.60796
536.8017, 85.66489
537.2838, 85.78672
537.7659, 83.38538
538.2480, 80.99438
538.7302, 81.68037
539.2123, 85.03422
539.6944, 88.26833
540.1765, 90.92647
540.6586, 92.93459
541.1407, 94.79942
541.6229, 96.11684
542.1050, 95.49639
542.5871, 88.99660
543.0692, 82.31256
543.5513, 81.78228
544.0334, 87.67120
544.5156, 92.43312
544.9977, 91.53161
545.4798, 88.62703
545.9619, 86.54629
546.4440, 85.70712
546.9261, 85.87890
547.4083, 88.57115
547.8904, 91.95177
548.3725, 92.43800
548.8546, 87.00086
549.3367, 83.80006
549.8188, 86.06287
550.3010, 93.01414
550.7831, 94.81395
551.2652, 89.99752
551.7473, 84.90744
552.2294, 85.08173
552.7115, 89.79021
553.1937, 91.47123
553.6758, 89.18525
554.1579, 85.28661
554.6400, 81.52736
555.1221, 78.39240
555.6042, 77.47823
556.0864, 81.60690
556.5685, 85.89304
557.0506, 84.50859
557.5327, 78.95074
558.0148, 74.80084
558.4969, 75.75267
558.9791, 78.22017
559.4612, 79.89396
559.9433, 80.16240
560.4254, 81.52615
560.9075, 86.68453
561.3896, 91.83978
561.8718, 93.62103
562.3539, 89.20393
562.8360, 86.24390
563.3181, 85.79465
563.8002, 86.92502
564.2823, 87.50829
564.7645, 87.52603
565.2466, 87.03018
565.7287, 85.78100
566.2108, 84.01643
566.6929, 82.91835
567.1750, 82.50517
567.6572, 82.54443
568.1393, 83.03398
568.6214, 83.80960
569.1035, 84.47193
569.5856, 84.88926
570.0677, 85.50032
570.5499, 87.03505
571.0320, 88.93652
571.5141, 90.33428
571.9962, 92.41779
572.4783, 92.44134
572.9604, 87.44334
573.4426, 78.73601
573.9247, 72.94272
574.4068, 73.16920
574.8889, 74.73931
575.3710, 75.95525
575.8531, 76.62650
576.3353, 77.94062
576.8174, 80.26254
577.2995, 82.66737
577.7816, 84.72292
578.2637, 86.58522
578.7458, 85.67651
579.2280, 80.53632
579.7101, 74.46146
580.1922, 74.01103
580.6743, 78.30767
581.1564, 82.39555
581.6385, 83.53776
582.1207, 83.41615
582.6028, 84.17863
583.0849, 85.71181
583.5670, 87.17437
584.0491, 90.50822
584.5313, 92.01067
585.0134, 87.64169
585.4955, 74.07569
585.9776, 63.66965
586.4597, 59.98378
586.9418, 60.98116
587.4240, 64.67200
587.9061, 75.08766
588.3882, 81.54514
588.8703, 81.39603
589.3524, 76.96877
589.8345, 75.03345
590.3167, 75.94700
590.7988, 78.08625
591.2809, 81.75774
591.7630, 86.20515
592.2451, 86.34690
592.7272, 81.99811
593.2094, 77.86104
593.6915, 78.22652
594.1736, 81.50994
594.6557, 85.24948
595.1378, 89.47085
595.6199, 91.99936
596.1021, 89.76772
596.5842, 85.16621
597.0663, 81.58966
597.5485, 81.04535
598.0306, 80.83222
598.5127, 80.01929
598.9948, 78.81310
599.4769, 78.15835
599.9590, 78.70518
600.4412, 79.11359
600.9233, 79.34838
601.4054, 79.56194
601.8875, 76.48846
602.3696, 68.45545
602.8517, 61.30364
603.3339, 60.96923
603.8160, 66.89017
604.2981, 72.20977
604.7802, 76.26183
605.2623, 79.07897
605.7444, 80.04691
606.2266, 79.73035
606.7087, 79.62728
607.1908, 80.89574
607.6729, 81.96880
608.1550, 81.18027
608.6371, 79.09332
609.1193, 77.51158
609.6014, 77.61914
610.0835, 78.01671
610.5656, 77.87401
611.0477, 76.95763
611.5298, 77.04961
612.0120, 79.57001
612.4941, 81.74817
612.9762, 81.36015
613.4583, 77.17780
613.9404, 75.05270
614.4225, 75.75368
614.9047, 77.63777
615.3868, 78.25140
615.8689, 77.72121
616.3510, 77.85069
616.8331, 79.97458
617.3152, 81.97227
617.7974, 78.92861
618.2795, 72.43793
618.7616, 68.51801
619.2437, 73.61279
619.7258, 80.21404
620.2079, 82.16280
620.6901, 79.16610
621.1722, 77.07318
621.6543, 80.18370
622.1364, 83.26601
622.6185, 82.57180
623.1006, 75.19703
623.5828, 70.03352
624.0649, 67.16131
624.5470, 66.42790
625.0291, 68.53185
625.5112, 74.48766
625.9933, 77.67429
626.4755, 76.38039
626.9576, 72.35420
627.4397, 67.94197
627.9218, 63.48341
628.4039, 61.56916
628.8860, 66.44565
629.3682, 73.05219
629.8503, 73.31464
630.3324, 68.11770
630.8145, 64.24323
631.2966, 65.66717
631.7787, 69.84335
632.2609, 75.85794
632.7430, 84.79603
633.2251, 90.74516
633.7072, 91.34613
634.1893, 89.12674
634.6714, 85.83250
635.1536, 79.81390
635.6357, 76.57628
636.1178, 77.45572
636.5999, 80.33503
637.0820, 81.37410
637.5641, 80.49979
638.0463, 79.28536
638.5284, 77.71613
639.0105, 76.56862
639.4926, 79.18735
639.9747, 84.50819
640.4568, 86.36922
640.9390, 75.90180
641.4211, 63.61611
641.9032, 59.82470
642.3853, 65.24746
642.8674, 72.02901
643.3495, 79.44629
643.8317, 85.50809
644.3138, 88.87958
644.7959, 88.60650
645.2780, 86.73813
645.7601, 81.28142
646.2422, 75.97984
646.7244, 76.53476
647.2065, 84.99014
647.6886, 87.97942
648.1707, 81.20814
648.6528, 70.56450
649.1349, 68.45467
649.6171, 73.83398
650.0992, 79.18041
650.5813, 81.10326
651.0634, 81.00553
651.5455, 80.30744
652.0276, 79.02895
652.5098, 77.30658
652.9919, 74.61832
653.4740, 71.96834
653.9561, 69.88026
654.4382, 68.37144
654.9203, 67.66117
655.4025, 67.97719
655.8846, 68.92853
656.3667, 70.48340
656.8488, 73.31686
657.3309, 74.66969
657.8130, 74.26598
658.2952, 72.71784
658.7773, 70.36447
659.2594, 67.32588
659.7415, 65.28657
660.2236, 64.76121
660.7057, 65.30683
661.1879, 67.09732
661.6700, 69.52877
662.1521, 70.88737
662.6342, 69.99015
663.1163, 68.05869
663.5984, 64.91484
664.0806, 60.94095
664.5627, 58.89442
665.0448, 61.32627
665.5269, 64.16273
666.0090, 65.60583
666.4911, 65.39866
666.9733, 65.71345
667.4554, 66.89276
667.9375, 67.91461
668.4196, 67.75226
668.9017, 66.45090
669.3839, 65.36992
669.8660, 64.54743
670.3481, 64.35047
670.8302, 66.15115
671.3123, 68.82806
671.7944, 69.74299
672.2766, 66.66568
672.7587, 63.90972
673.2408, 65.84417
673.7229, 69.93710
674.2050, 71.27158
674.6871, 62.45699
675.1693, 57.31510
675.6514, 63.04536
676.1335, 76.54739
676.6156, 80.60315
677.0977, 70.47497
677.5798, 61.74456
678.0620, 62.55085
678.5441, 71.57042
679.0262, 75.68679
679.5083, 74.74643
679.9904, 71.94787
680.4725, 68.64312
680.9547, 65.59634
681.4368, 64.22394
681.9189, 64.77990
682.4010, 66.26929
682.8831, 69.20696
683.3652, 72.16289
683.8474, 73.62132
684.3295, 72.39734
684.8116, 71.00015
685.2937, 68.65302
685.7758, 66.83887
686.2579, 68.01350
686.7401, 73.99271
687.2222, 77.81795
687.7043, 77.64222
688.1864, 75.14689
688.6685, 73.94994
689.1506, 74.05154
689.6328, 75.53365
690.1149, 80.50818
690.5970, 85.54581
691.0791, 84.59710
691.5612, 78.65132
692.0433, 72.82753
692.5255, 68.89220
693.0076, 66.63789
693.4897, 66.44697
693.9718, 68.53843
694.4539, 70.04249
694.9360, 70.57574
695.4182, 70.41319
695.9003, 69.39837
696.3824, 66.98972
696.8645, 66.29810
697.3466, 67.75388
697.8287, 69.79743
698.3109, 70.73210
698.7930, 70.75571
699.2751, 71.10134
699.7572, 72.22084
700.2393, 72.80639
700.7214, 70.79868
701.2036, 67.46053
701.6857, 64.89882
702.1678, 64.23329
702.6499, 64.03944
703.1320, 63.36145
703.6141, 62.77936
704.0963, 63.88708
704.5784, 68.85484
705.0605, 72.29700
705.5426, 73.02599
706.0247, 71.35087
706.5068, 67.86685
706.9890, 62.12822
707.4711, 58.15165
707.9532, 59.05143
708.4353, 63.02759
708.9174, 65.68935
709.3995, 67.10548
709.8817, 67.79932
710.3638, 67.72578
710.8459, 67.34074
711.3280, 67.11328
711.8101, 67.14877
712.2922, 66.80392
712.7744, 64.11345
713.2565, 62.33735
713.7386, 64.07664
714.2207, 72.49545
714.7028, 75.97897
715.1849, 73.35755
715.6671, 67.87861
716.1492, 61.77449
716.6313, 55.39248
717.1134, 52.54926
717.5955, 54.29548
718.0776, 58.55527
718.5598, 65.00579
719.0419, 71.81957
719.5240, 75.36353
720.0061, 71.91765
720.4882, 67.92932
720.9703, 66.10805
721.4525, 65.90327
721.9346, 66.06580
722.4167, 67.37674
722.8988, 67.68603
723.3809, 65.64677
723.8630, 62.40030
724.3452, 63.02373
724.8273, 68.02091
725.3094, 73.30213
725.7915, 78.07907
726.2736, 81.33122
726.7557, 79.09742
727.2379, 72.04754
727.7200, 65.45802
728.2021, 62.44470
728.6842, 61.56081
729.1663, 61.93252
729.6484, 63.51094
730.1306, 65.40423
730.6127, 68.89453
731.0948, 71.29940
731.5769, 70.80986
732.0590, 66.21349
732.5411, 63.88981
733.0233, 64.31268
733.5054, 65.94504
733.9875, 68.14608
734.4696, 70.61016
734.9517, 70.89709
735.4338, 68.62041
735.9160, 64.91892
736.3981, 58.68472
736.8802, 52.48472
737.3623, 50.50248
737.8444, 56.30253
738.3266, 61.68312
738.8087, 64.20691
739.2908, 64.23882
739.7729, 62.03559
740.2551, 55.04500
740.7372, 50.70472
741.2193, 50.50790
741.7014, 52.86253
742.1835, 54.46717
742.6656, 55.30338
743.1478, 56.67638
743.6299, 59.39645
744.1120, 62.40462
744.5941, 64.64790
745.0762, 65.84914
745.5583, 65.21441
746.0405, 57.83366
746.5226, 52.71354
747.0047, 57.75896
747.4868, 70.69644
747.9689, 77.88708
748.4510, 74.88034
748.9332, 69.46387
749.4153, 62.84034
749.8974, 55.40940
750.3795, 52.02832
750.8616, 53.11933
751.3438, 55.01140
751.8259, 55.38704
752.3080, 54.86694
752.7901, 54.77208
753.2722, 55.14849
753.7543, 56.13522
754.2365, 58.73198
754.7186, 61.35276
755.2007, 62.43126
755.6828, 61.43043
756.1649, 61.16298
756.6470, 62.24782
757.1292, 64.06991
757.6113, 66.78771
758.0934, 71.31036
758.5755, 72.14945
759.0576, 68.53336
759.5397, 63.82549
760.0219, 60.44667
760.5040, 58.79367
760.9861, 61.12032
761.4682, 68.53937
761.9503, 75.55092
762.4324, 78.30331
762.9146, 77.99629
763.3967, 75.86373
763.8788, 69.79073
764.3609, 65.85864
764.8430, 67.01892
765.3251, 69.72787
765.8073, 69.80997
766.2894, 66.37940
766.7715, 63.84324
767.2536, 62.93814
767.7357, 62.95106
768.2178, 62.16526
768.7000, 61.11945
769.1821, 62.42955
769.6642, 69.07010
770.1463, 74.90479
770.6284, 73.21878
771.1105, 67.10120
771.5927, 62.52415
772.0748, 61.04927
772.5569, 61.76309
773.0390, 67.17502
773.5211, 74.08772
774.0032, 73.03471
774.4854, 61.00457
774.9675, 52.56168
775.4496, 53.27776
775.9317, 59.29609
776.4138, 61.05048
776.8959, 59.19836
777.3781, 57.39325
777.8602, 57.26403
778.3423, 58.22107
778.8244, 60.14310
779.3065, 62.81644
779.7886, 65.38782
780.2708, 68.15227
780.7529, 70.14955
781.2350, 70.88004
781.7171, 70.51064
782.1992, 71.21915
782.6813, 73.93531
783.1635, 73.93759
783.6456, 66.33508
784.1277, 54.54219
784.6098, 50.17379
785.0919, 52.69950
785.5740, 56.53260
786.0562, 59.35603
786.5383, 61.03013
787.0204, 60.71295
787.5025, 58.41319
787.9846, 57.43351
788.4667, 60.78914
788.9489, 63.44312
789.4310, 62.76686
789.9131, 58.46455
790.3952, 56.75822
790.8773, 58.06844
791.3594, 60.07700
791.8416, 61.12424
792.3237, 61.52646
792.8058, 62.24665
793.2879, 63.32546
793.7700, 63.98953
794.2521, 64.26143
794.7343, 63.52023
795.2164, 60.57109
795.6985, 54.19864
796.1806, 50.65106
796.6627, 51.22201
797.1448, 53.87913
797.6270, 57.99901
798.1091, 64.04650
798.5912, 67.45922
799.0733, 67.89442
799.5554, 67.54141
800.0375, 69.23423
800.5197, 71.47712
801.0018, 70.78683
801.4839, 66.28976
801.9660, 62.36613
802.4481, 62.70860
802.9302, 64.14464
803.4124, 63.74440
803.8945, 58.97044
804.3766, 57.49561
804.8587, 61.15868
805.3408, 65.69594
805.8229, 67.37983
806.3051, 66.22013
806.7872, 63.29219
807.2693, 58.34019
807.7514, 53.69211
808.2335, 51.51811
808.7156, 51.24317
809.1978, 51.94946
809.6799, 53.29837
810.1620, 56.12498
810.6441, 63.94701
811.1262, 71.60358
811.6083, 73.69907
812.0905, 66.82955
812.5726, 62.13264
813.0547, 60.05803
813.5368, 59.79593
814.0189, 61.61021
814.5010, 64.82563
814.9832, 64.82906
815.4653, 60.19634
815.9474, 55.65177
816.4295, 56.26854
816.9116, 59.21873
817.3937, 60.90948
817.8759, 59.48238
818.3580, 58.69442
818.8401, 60.43980
819.3222, 62.40426
819.8043, 62.29913
820.2864, 59.66302
820.7686, 56.90034
821.2507, 54.04012
821.7328, 51.70701
822.2149, 50.24867
822.6970, 50.01637
823.1791, 52.70034
823.6613, 60.09049
824.1434, 65.60897
824.6255, 62.34655
825.1076, 55.93662
825.5897, 52.69205
826.0718, 57.44937
826.5540, 60.07586
827.0361, 60.17457
827.5182, 58.59646
828.0003, 55.55283
828.4824, 51.10708
828.9645, 48.93996
829.4467, 49.84122
829.9288, 52.15071
830.4109, 54.75774
830.8930, 57.26451
831.3751, 59.03408
831.8572, 59.62427
832.3394, 60.06041
832.8215, 60.62510
833.3036, 61.25733
833.7857, 61.90936
834.2678, 62.63692
834.7499, 63.18793
835.2321, 63.51515
835.7142, 63.72840
836.1963, 63.96629
836.6784, 64.20846
837.1605, 64.41094
837.6426, 64.60455
838.1248, 64.57027
838.6069, 63.62425
839.0890, 62.60134
839.5711, 62.53065
840.0532, 64.83609
840.5353, 65.80371
841.0175, 64.64979
841.4996, 62.70699
841.9817, 61.10558
842.4638, 59.81270
842.9459, 59.47182
843.4280, 60.17258
843.9102, 61.67751
844.3923, 65.10011
844.8744, 68.70962
845.3565, 69.09404
845.8386, 64.38183
846.3207, 61.01699
846.8029, 63.59509
847.2850, 67.37888
847.7671, 68.06487
848.2492, 63.94848
848.7313, 61.28802
849.2134, 60.41353
849.6956, 60.20506
850.1777, 59.29467
850.6598, 58.09378
851.1419, 58.46132
851.6240, 60.82077
852.1061, 62.63143
852.5883, 59.52659
853.0704, 56.47531
853.5525, 59.16567
854.0346, 72.35786
854.5167, 78.38964
854.9988, 72.40887
855.4810, 64.29573
855.9631, 61.70722
856.4452, 64.76833
856.9273, 63.14873
857.4094, 56.21016
857.8915, 50.10180
858.3737, 52.67691
858.8558, 58.09201
859.3379, 57.42655
859.8200, 49.00766
860.3021, 44.69311
860.7842, 53.22824
861.2664, 63.56282
861.7485, 69.68221
862.2306, 71.38952
862.7127, 70.89865
863.1948, 67.79009
863.6769, 64.31269
864.1591, 61.56920
864.6412, 59.74225
865.1233, 59.58926
865.6054, 60.99306
866.0875, 62.24582
866.5696, 63.45192
867.0518, 63.24652
867.5339, 59.17031
868.0160, 50.83638
868.4981, 48.81620
868.9802, 56.33005
869.4623, 63.37532
869.9445, 64.86221
870.4266, 62.03326
870.9087, 60.33612
871.3908, 59.70007
871.8729, 59.56874
872.3550, 60.66899
872.8372, 61.25398
873.3193, 59.03003
873.8014, 54.62172
874.2835, 51.76853
874.7656, 53.35449
875.2477, 54.08305
875.7299, 52.01954
876.2120, 48.23543
876.6941, 46.72336
877.1762, 47.47719
877.6583, 49.90743
878.1404, 54.92507
878.6226, 60.25283
879.1047, 63.56166
879.5869, 64.73773
880.0690, 63.58235
880.5511, 56.49785
881.0332, 51.13072
881.5153, 50.40829
881.9974, 52.60619
882.4796, 54.69531
882.9617, 56.85543
883.4438, 57.54602
883.9259, 55.60987
884.4080, 53.64684
884.8901, 57.29925
885.3723, 64.06269
885.8544, 67.99226
886.3365, 65.65226
886.8186, 62.30766
887.3007, 59.17278
887.7828, 56.87327
888.2650, 56.24091
888.7471, 57.53625
889.2292, 60.11516
889.7113, 64.65795
890.1934, 68.82470
890.6755, 69.36086
891.1577, 67.03858
891.6398, 63.76012
892.1219, 59.44053
892.6040, 56.65318
893.0861, 59.01344
893.5682, 62.71838
894.0504, 64.06242
894.5325, 61.29575
895.0146, 59.13937
895.4967, 57.22250
895.9788, 56.59750
896.4609, 59.16740
896.9431, 64.15963
897.4252, 66.94134
897.9073, 67.25494
898.3894, 65.32445
898.8715, 57.26921
899.3536, 49.93180
899.8358, 51.59370
900.3179, 64.22386
900.8000, 67.83812
901.2821, 52.82994
901.7642, 40.13446
902.2463, 40.98830
902.7285, 52.92932
903.2106, 56.53438
903.6927, 52.07424
904.1748, 47.36491
904.6569, 47.59760
905.1390, 49.57765
905.6212, 50.41703
906.1033, 50.20374
906.5854, 49.69355
907.0675, 48.05882
907.5496, 47.43901
908.0317, 48.55910
908.5139, 50.93307
908.9960, 53.13834
909.4781, 55.16503
909.9602, 57.69567
910.4423, 62.01679
910.9244, 65.21531
911.4066, 61.79066
911.8887, 55.04116
912.3708, 50.99898
912.8529, 54.57713
913.3350, 57.41440
913.8171, 57.50074
914.2993, 56.49130
914.7814, 57.30965
915.2635, 60.38408
915.7456, 58.56575
916.2277, 49.72219
916.7098, 40.68715
917.1920, 38.83655
917.6741, 42.18544
918.1562, 49.05860
918.6383, 61.10719
919.1204, 69.07130
919.6025, 66.78697
920.0847, 62.10635
920.5668, 60.09782
921.0489, 61.13595
921.5310, 62.52493
922.0131, 64.40354
922.4952, 65.46746
922.9774, 63.59547
923.4595, 60.75039
923.9416, 60.23772
924.4237, 62.06782
924.9058, 63.33564
925.3879, 60.74291
925.8701, 59.68665
926.3522, 63.79022
926.8343, 71.88125
927.3164, 73.59742
927.7985, 68.25864
928.2806, 62.90945
928.7628, 60.81044
929.2449, 60.58660
929.7270, 60.62147
930.2091, 60.75254
930.6912, 60.53975
931.1733, 60.76636
931.6555, 59.44848
932.1376, 53.58865
932.6197, 46.85936
933.1018, 46.37132
933.5839, 53.30182
934.0660, 57.30976
934.5482, 55.98949
935.0303, 52.96562
935.5124, 52.28547
935.9945, 53.38300
936.4766, 55.58187
936.9587, 59.71637
937.4409, 62.21468
937.9230, 61.55577
938.4051, 59.04632
938.8872, 55.07657
939.3693, 48.80496
939.8514, 46.02296
940.3336, 46.96685
940.8157, 49.89244
941.2978, 55.88648
941.7799, 61.70794
942.2620, 61.19322
942.7441, 54.48213
943.2263, 49.89461
943.7084, 52.82138
944.1905, 56.42959
944.6726, 58.49020
945.1547, 58.93766
945.6368, 56.20485
946.1190, 49.92162
946.6011, 46.65062
947.0832, 51.84418
947.5653, 58.84781
948.0474, 57.45133
948.5295, 50.96244
949.0117, 47.07559
949.4938, 51.03374
949.9759, 54.60359
950.4580, 56.08165
950.9401, 56.47263
951.4222, 57.55781
951.9044, 59.38455
952.3865, 59.32654
952.8686, 56.73567
953.3507, 53.29696
953.8328, 49.43184
954.3149, 46.44109
954.7971, 46.39341
955.2792, 50.68377
955.7613, 54.08797
956.2434, 55.75034
956.7255, 56.40620
957.2076, 56.48015
957.6898, 55.95809
958.1719, 53.31455
958.6540, 48.60483
959.1361, 46.88739
959.6182, 55.95878
960.1003, 66.20904
960.5825, 68.05463
961.0646, 62.60433
961.5467, 58.21390
962.0288, 57.19626
962.5109, 56.03907
962.9930, 53.30356
963.4752, 50.49486
963.9573, 52.72104
964.4394, 58.93808
964.9215, 62.66645
965.4036, 60.95861
965.8857, 57.72368
966.3679, 54.99942
966.8500, 53.11393
967.3321, 52.53569
967.8142, 53.99697
968.2963, 55.56258
968.7784, 57.21570
969.2606, 58.96772
969.7427, 61.12815
970.2248, 63.39005
970.7069, 64.52500
971.1890, 64.44749
971.6711, 64.01373
972.1533, 63.15660
972.6354, 62.65344
973.1175, 63.93618
973.5996, 66.86040
974.0817, 65.88786
974.5638, 59.87993
975.0460, 53.84840
975.5281, 48.92062
976.0102, 46.11350
976.4923, 49.60265
976.9744, 57.13858
977.4565, 62.11370
977.9387, 58.67642
978.4208, 55.66431
978.9029, 57.50721
979.3850, 60.87983
979.8671, 60.84701
980.3492, 56.45354
980.8314, 54.44078
981.3135, 55.81356
981.7956, 58.41012
982.2777, 60.94736
982.7598, 62.70814
983.2419, 62.07968
983.7241, 58.40781
984.2062, 56.00135
984.6883, 57.22063
985.1704, 58.96784
985.6525, 60.20786
986.1346, 60.86920
986.6168, 59.59287
987.0989, 56.46516
987.5810, 54.18823
988.0631, 54.89622
988.5452, 56.68010
989.0273, 58.28141
989.5095, 59.50633
989.9916, 59.83469
990.4737, 58.75500
990.9558, 57.27269
991.4379, 55.05999
991.9200, 53.14293
992.4022, 53.69703
992.8843, 56.06673
993.3664, 57.44152
993.8485, 57.24913
994.3306, 56.31105
994.8127, 54.95927
995.2949, 53.26019
995.7770, 50.92496
996.2591, 47.61675
996.7412, 46.25912
997.2233, 47.01893
997.7054, 49.16635
998.1876, 53.45487
998.6697, 58.33657
999.1518, 59.97777
999.6339, 59.06915
1000.116, 58.41584
1000.598, 59.11729
1001.080, 60.49809
1001.562, 63.30635
1002.044, 66.19820
1002.527, 66.51872
1003.009, 64.08565
1003.491, 61.54891
1003.973, 59.30309
1004.455, 57.58399
1004.937, 56.43000
1005.419, 56.11124
1005.901, 57.03985
1006.384, 59.40583
1006.866, 62.80765
1007.348, 69.80329
1007.830, 73.76094
1008.312, 69.27954
1008.794, 58.32886
1009.276, 51.84087
1009.758, 49.73251
1010.240, 50.93697
1010.723, 58.38820
1011.205, 65.44810
1011.687, 67.32533
1012.169, 65.58859
1012.651, 64.95779
1013.133, 66.48384
1013.615, 66.00565
1014.097, 62.15233
1014.580, 58.10869
1015.062, 58.73617
1015.544, 62.26379
1016.026, 65.65385
1016.508, 68.50434
1016.990, 70.12014
1017.472, 70.57574
1017.954, 69.20658
1018.436, 64.78441
1018.919, 57.62675
1019.401, 54.18634
1019.883, 54.46876
1020.365, 56.50417
1020.847, 61.00402
1021.329, 65.18083
1021.811, 67.27908
1022.293, 66.79552
1022.776, 62.27819
1023.258, 46.68258
1023.740, 38.80728
1024.222, 42.54781
1024.704, 51.16038
1025.186, 56.37027
1025.668, 58.66234
1026.150, 59.06313
1026.632, 57.58651
1027.115, 56.26297
1027.597, 56.85043
1028.079, 57.54524
1028.561, 56.30003
1029.043, 53.30910
1029.525, 55.32023
1030.007, 63.16856
1030.489, 68.78226
1030.972, 67.47622
1031.454, 62.96823
1031.936, 58.60532
1032.418, 55.27291
1032.900, 54.90283
1033.382, 63.51165
1033.864, 67.03693
1034.346, 61.52403
1034.828, 54.09228
1035.311, 53.26846
1035.793, 58.01005
1036.275, 61.88920
1036.757, 64.41841
1037.239, 65.34612
1037.721, 62.62420
1038.203, 59.85740
1038.685, 60.03552
1039.167, 62.87325
1039.650, 64.70084
1040.132, 65.54359
1040.614, 65.24746
1041.096, 63.91880
1041.578, 61.16183
1042.060, 53.32479
1042.542, 44.32969
1043.024, 41.93425
1043.507, 53.00492
1043.989, 61.82212
1044.471, 65.81064
1044.953, 66.54563
1045.435, 63.90261
1045.917, 58.36345
1046.399, 57.19844
1046.881, 60.29930
1047.364, 62.54144
1047.846, 59.13784
1048.328, 54.91144
1048.810, 52.51825
1049.292, 52.16835
1049.774, 53.95372
1050.256, 58.90583
1050.738, 62.37035
1051.220, 63.46833
1051.703, 62.59959
1052.185, 58.92231
1052.667, 54.15497
1053.149, 51.35585
1053.631, 51.48689
1054.113, 51.85933
1054.595, 51.27317
1055.077, 51.38391
1055.559, 53.63824
1056.042, 57.43315
1056.524, 57.94510
1057.006, 55.66499
1057.488, 54.60786
1057.970, 58.29882
1058.452, 62.52010
1058.934, 65.53694
1059.416, 66.97228
1059.899, 66.03374
1060.381, 61.78998
1060.863, 58.74826
1061.345, 57.48021
1061.827, 56.52119
1062.309, 53.98447
1062.791, 50.93294
1063.273, 48.23580
1063.755, 46.05475
1064.238, 47.19276
1064.720, 58.84506
1065.202, 64.98975
1065.684, 57.87410
1066.166, 44.23266
1066.648, 45.63996
1067.130, 58.44841
1067.612, 65.11189
1068.094, 56.78928
1068.577, 48.94745
1069.059, 53.50285
1069.541, 61.25002
1070.023, 62.96001
1070.505, 57.23962
1070.987, 52.71157
1071.469, 49.31890
1071.951, 47.09032
1072.434, 45.57941
1072.916, 45.53852
1073.398, 48.99901
1073.880, 54.82781
1074.362, 59.04182
1074.844, 60.22080
1075.326, 60.78235
1075.808, 60.93211
1076.291, 60.72496
1076.773, 59.71524
1077.255, 58.45807
1077.737, 59.36416
1078.219, 62.97198
1078.701, 64.38125
1079.183, 57.99717
1079.665, 51.89058
1080.147, 50.08646
1080.630, 52.00263
1081.112, 55.00972
1081.594, 59.00012
1082.076, 60.21056
1082.558, 55.04734
1083.040, 50.76477
1083.522, 56.30427
1084.004, 65.57286
1084.486, 70.24429
1084.969, 68.29343
1085.451, 65.00217
1085.933, 59.85722
1086.415, 55.41062
1086.897, 52.71142
1087.379, 52.48125
1087.861, 59.03418
1088.343, 69.93408
1088.826, 74.97194
1089.308, 63.36903
1089.790, 54.93718
1090.272, 53.63111
1090.754, 56.53896
1091.236, 60.29161
1091.718, 64.43652
1092.200, 66.92165
1092.682, 67.41142
1093.165, 66.43389
1093.647, 62.16953
1094.129, 58.52135
1094.611, 58.21415
1095.093, 60.77116
1095.575, 63.72044
1096.057, 67.18723
1096.539, 67.55124
1097.022, 62.01872
1097.504, 55.75642
1097.986, 53.46682
1098.468, 54.04922
1098.950, 56.25290
1099.432, 60.85821
1099.914, 64.40752
1100.396, 66.64015
1100.879, 68.46742
1101.361, 72.45872
1101.843, 75.59249
1102.325, 69.59058
1102.807, 57.05815
1103.289, 47.99541
1103.771, 48.67361
1104.253, 49.75665
1104.735, 49.43647
1105.218, 48.88628
1105.700, 50.01012
1106.182, 52.40320
1106.664, 54.03208
1107.146, 54.68261
1107.628, 55.19378
1108.110, 56.21017
1108.592, 57.11785
1109.074, 57.59647
1109.557, 57.68375
1110.039, 57.06852
1110.521, 55.71932
1111.003, 56.32272
1111.485, 60.58789
1111.967, 64.18898
1112.449, 62.31699
1112.931, 57.90099
1113.414, 53.69349
1113.896, 49.65173
1114.378, 48.22864
1114.860, 49.93470
1115.342, 52.03699
1115.824, 52.98285
1116.306, 53.40673
1116.788, 54.31693
1117.271, 55.49581
1117.753, 56.47194
1118.235, 56.22824
1118.717, 57.39692
1119.199, 61.30310
1119.681, 64.44622
1120.163, 62.21999
1120.645, 56.61265
1121.127, 53.07197
1121.609, 51.84049
1122.092, 52.51266
1122.574, 56.05452
1123.056, 60.28263
1123.538, 66.05019
1124.020, 70.85075
1124.502, 67.87387
1124.984, 58.35114
1125.466, 53.01151
1125.949, 54.13998
1126.431, 57.02607
1126.913, 60.93526
1127.395, 63.18758
1127.877, 59.90586
1128.359, 52.40849
1128.841, 53.02412
1129.323, 62.42750
1129.806, 67.20195
1130.288, 60.00897
1130.770, 51.55930
1131.252, 54.46510
1131.734, 61.84919
1132.216, 64.39834
1132.698, 59.35468
1133.180, 55.54492
1133.662, 52.79707
1134.145, 52.15125
1134.627, 56.78407
1135.109, 62.25089
1135.591, 59.56843
1136.073, 52.07904
1136.555, 48.31683
1137.037, 54.24808
1137.519, 59.13541
1138.001, 63.01685
1138.484, 64.30550
1138.966, 49.79911
1139.448, 61.18369
1139.930, 67.62424
1140.412, 69.38641
1140.894, 52.45808
1141.376, 59.66467
1141.858, 57.19909
1142.341, 54.33706
1142.823, 64.94056
1143.305, 50.73072
1143.787, 61.12065
1144.269, 61.69081
1144.751, 66.75523
1145.233, 62.08774
1145.715, 60.42611
1146.198, 68.49973
1146.680, 71.18280
1147.162, 65.39498
1147.644, 70.74510
1148.126, 56.19527
1148.608, 59.10793
1149.090, 69.55482
1149.572, 64.25635
1150.054, 69.78437
1150.536, 71.18907
1151.019, 53.85513
1151.501, 69.10970
1151.983, 64.43153
1152.465, 64.08018
1152.947, 62.16747
1153.429, 57.71964
1153.911, 54.20022
1154.393, 55.79113
1154.876, 60.36992
1155.358, 64.56181
1155.840, 69.15469
1156.322, 69.45612
1156.804, 64.57994
1157.286, 59.80925
1157.768, 60.81255
1158.250, 63.37885
1158.733, 61.55272
1159.215, 56.52832
1159.697, 53.34517
1160.179, 53.26287
1160.661, 53.82431
1161.143, 54.67609
1161.625, 56.34349
1162.107, 60.54528
1162.589, 65.49372
1163.072, 67.77024
1163.554, 67.30690
1164.036, 67.39285
1164.518, 71.03413
1165.000, 71.10034
1165.482, 64.17389
1165.964, 55.57714
1166.446, 57.35228
1166.928, 64.46169
1167.411, 64.53678
1167.893, 54.00391
1168.375, 46.04820
1168.857, 45.71850
1169.339, 48.07991
1169.821, 52.59000
1170.303, 57.62164
1170.785, 57.29920
1171.268, 53.36163
1171.750, 51.47667
1172.232, 53.56099
1172.714, 57.58038
1173.196, 66.58565
1173.678, 73.40485
1174.160, 72.82968
1174.642, 66.05872
1175.125, 59.41233
1175.607, 53.42101
1176.089, 51.40613
1176.571, 59.20428
1177.053, 65.59694
1177.535, 63.59358
1178.017, 59.41538
1178.499, 59.27869
1178.981, 63.09958
1179.464, 63.45916
1179.946, 60.39062
1180.428, 56.11416
1180.910, 49.36483
1181.392, 44.69542
1181.874, 45.95407
1182.356, 50.13173
1182.838, 52.79247
1183.320, 53.91356
1183.803, 54.78704
1184.285, 55.52052
1184.767, 55.86546
1185.249, 55.25890
1185.731, 54.56780
1186.213, 53.51458
1186.695, 53.02903
1187.177, 56.75526
1187.660, 65.27327
1188.142, 68.39002
1188.624, 63.92800
1189.106, 58.02474
1189.588, 54.40059
1190.070, 52.97482
1190.552, 55.23811
1191.034, 60.16723
1191.516, 60.03203
1191.999, 53.89117
1192.481, 52.64135
1192.963, 60.45535
1193.445, 68.50198
1193.927, 67.21342
1194.409, 62.20198
1194.891, 58.87186
1195.373, 57.66671
1195.855, 56.55315
1196.338, 55.51605
1196.820, 54.64873
1197.302, 53.98771
1197.784, 53.52990
1198.266, 52.78376
1198.748, 52.50082
1199.230, 54.01019
1199.712, 57.87601
1200.195, 59.93954
1200.677, 59.80360
1201.159, 60.90591
1201.641, 67.90475
1202.123, 73.51444
1202.605, 65.77251
1203.087, 52.17556
1203.569, 45.05574
1204.052, 47.05313
1204.534, 52.12701
1205.016, 61.27771
1205.498, 67.73783
1205.980, 63.36237
1206.462, 56.66269
1206.944, 59.19098
1207.426, 66.75506
1207.908, 69.07302
1208.391, 62.18425
1208.873, 59.89494
1209.355, 63.79602
1209.837, 66.67719
1210.319, 59.12503
1210.801, 49.74824
1211.283, 48.99677
1211.765, 55.06972
1212.247, 61.00216
1212.730, 66.98701
1213.212, 69.95285
1213.694, 69.27840
1214.176, 66.90883
1214.658, 62.07333
1215.140, 58.47563
1215.622, 63.48794
1216.104, 74.71864
1216.587, 75.95792
1217.069, 62.04853
1217.551, 53.93925
1218.033, 55.91229
1218.515, 60.54725
1218.997, 60.50217
1219.479, 57.93291
1219.961, 54.68407
1220.443, 51.07547
1220.926, 48.29271
1221.408, 46.23742
1221.890, 45.58893
1222.372, 46.48289
1222.854, 48.92346
1223.336, 54.65538
1223.818, 60.83117
1224.300, 64.27194
1224.782, 64.40811
1225.265, 62.70836
1225.747, 58.60865
1226.229, 55.62393
1226.711, 55.14281
1227.193, 55.34472
1227.675, 53.37020
1228.157, 51.20152
1228.639, 51.85212
1229.122, 56.05208
1229.604, 56.91413
1230.086, 53.81828
1230.568, 51.54911
1231.050, 52.05767
1231.532, 53.94889
1232.014, 57.23587
1232.496, 60.05577
1232.979, 59.24083
1233.461, 53.84279
1233.943, 53.51666
1234.425, 58.97916
1234.907, 62.31092
1235.389, 59.15571
1235.871, 53.27135
1236.353, 45.08555
1236.835, 38.13519
1237.318, 38.26048
1237.800, 46.75293
1238.282, 51.08790
1238.764, 51.01849
1239.246, 51.15954
1239.728, 53.20211
1240.210, 57.52230
1240.692, 68.73164
1241.175, 79.98815
1241.657, 81.13271
1242.139, 69.85372
1242.621, 63.68467
1243.103, 62.60157
1243.585, 62.68290
1244.067, 62.93172
1244.549, 61.92160
1245.031, 55.47641
1245.514, 49.09273
1245.996, 51.05511
1246.478, 62.48079
1246.960, 68.80238
1247.442, 69.91978
1247.924, 68.54775
1248.406, 63.45025
1248.888, 59.63848
1249.370, 61.16169
1249.853, 64.91068
1250.335, 67.51715
1250.817, 68.90662
1251.299, 65.33058
1251.781, 57.19982
1252.263, 52.57648
1252.745, 60.75298
1253.227, 68.48470
1253.710, 70.28385
1254.192, 68.11726
1254.674, 62.31445
1255.156, 53.97656
1255.638, 52.14625
1256.120, 56.79337
1256.602, 60.99337
1257.084, 58.79749
1257.567, 58.59905
1258.049, 65.20401
1258.531, 72.35891
1259.013, 69.21101
1259.495, 59.24470
1259.977, 56.64968
1260.459, 61.61478
1260.941, 63.53427
1261.423, 52.85210
1261.906, 44.98493
1262.388, 43.34122
1262.870, 45.89986
1263.352, 51.73887
1263.834, 58.92144
1264.316, 62.80997
1264.798, 63.12201
1265.280, 62.38335
1265.762, 60.03540
1266.245, 58.99382
1266.727, 60.23027
1267.209, 61.88972
1267.691, 60.62664
1268.173, 58.44259
1268.655, 59.41639
1269.137, 63.59126
1269.619, 65.06706
1270.102, 61.93273
1270.584, 59.58407
1271.066, 58.87335
1271.548, 60.21664
1272.030, 68.29961
1272.512, 75.95288
1272.994, 71.66530
1273.476, 55.94580
1273.958, 50.04884
1274.441, 56.91759
1274.923, 61.76997
1275.405, 61.16724
1275.887, 58.61164
1276.369, 56.10361
1276.851, 54.68639
1277.333, 55.63383
1277.815, 58.74806
1278.297, 63.61867
1278.780, 70.50324
1279.262, 71.92709
1279.744, 65.22046
1280.226, 58.65989
1280.708, 59.62724
1281.190, 62.64108
1281.672, 63.86627
1282.154, 63.76682
1282.637, 63.84649
1283.119, 64.23159
1283.601, 66.61356
1284.083, 71.83272
1284.565, 75.62148
1285.047, 75.18613
1285.529, 72.62725
1286.011, 68.40026
1286.494, 63.51441
1286.976, 61.18098
1287.458, 60.76154
1287.940, 59.99744
1288.422, 58.26637
1288.904, 57.60321
1289.386, 61.38407
1289.868, 62.26158
1290.350, 55.88866
1290.833, 48.01907
1291.315, 53.15158
1291.797, 64.49922
1292.279, 67.18471
1292.761, 56.90012
1293.243, 53.55485
1293.725, 62.84448
1294.207, 69.25549
1294.689, 66.84465
1295.172, 61.33534
1295.654, 60.33637
1296.136, 61.79388
1296.618, 63.05118
1297.100, 63.71994
1297.582, 65.62132
1298.064, 69.32623
1298.546, 70.39224
1299.029, 66.66930
1299.511, 62.31256
1299.993, 61.49981
1300.475, 62.35204
1300.957, 64.24943
1301.439, 66.45864
1301.921, 62.54894
1302.403, 52.87953
1302.885, 48.98922
1303.368, 55.32326
1303.850, 62.32585
1304.332, 63.17873
1304.814, 62.54450
1305.296, 63.42340
1305.778, 65.26395
1306.260, 66.30622
1306.742, 66.59029
1307.224, 66.16393
1307.707, 64.87006
1308.189, 63.82843
1308.671, 63.48492
1309.153, 63.70838
1309.635, 65.21283
1310.117, 66.27296
1310.599, 60.44448
1311.081, 52.23960
1311.564, 50.80880
1312.046, 58.31719
1312.528, 70.73125
1313.010, 90.35407
1313.492, 105.0868
1313.974, 109.6701
1314.456, 110.2023
1314.938, 118.4279
##END=



