##NAMES=Biphosphammite
##RRUFFID=R180019
##IDEAL CHEMISTRY=H_2_(N^3-^H_4_)PO_4_
##LOCALITY=Ojuela mine, Mapimí, Municipio de Mapimí, Durango, Mexico
##OWNER=RRUFF
##SOURCE=Peter Megaw
##DESCRIPTION=Colorless tetragonal prismatic crystals
##STATUS=The identification of this mineral has been confirmed only by single crystal X-ray diffraction.
##URL=rruff.info/R180019
8.813672e+001, 5.074537e+002
8.861884e+001, 5.174731e+002
8.910095e+001, 5.252865e+002
8.958307e+001, 5.295028e+002
9.006519e+001, 5.326041e+002
9.054730e+001, 5.369467e+002
9.102942e+001, 5.430353e+002
9.151154e+001, 5.496573e+002
9.199365e+001, 5.571889e+002
9.247577e+001, 5.648185e+002
9.295789e+001, 5.699543e+002
9.344000e+001, 5.695383e+002
9.392212e+001, 5.656592e+002
9.440424e+001, 5.647115e+002
9.488635e+001, 5.680717e+002
9.536847e+001, 5.723231e+002
9.585059e+001, 5.717599e+002
9.633270e+001, 5.665970e+002
9.681482e+001, 5.618654e+002
9.729694e+001, 5.604948e+002
9.777905e+001, 5.622539e+002
9.826117e+001, 5.644546e+002
9.874329e+001, 5.670898e+002
9.922540e+001, 5.697802e+002
9.970752e+001, 5.715246e+002
1.001896e+002, 5.720958e+002
1.006718e+002, 5.724476e+002
1.011539e+002, 5.731718e+002
1.016360e+002, 5.743022e+002
1.021181e+002, 5.756927e+002
1.026002e+002, 5.774888e+002
1.030823e+002, 5.795876e+002
1.035645e+002, 5.809225e+002
1.040466e+002, 5.805646e+002
1.045287e+002, 5.807315e+002
1.050108e+002, 5.833915e+002
1.054929e+002, 5.895599e+002
1.059750e+002, 5.964077e+002
1.064572e+002, 6.039434e+002
1.069393e+002, 6.124730e+002
1.074214e+002, 6.193478e+002
1.079035e+002, 6.242907e+002
1.083856e+002, 6.279007e+002
1.088677e+002, 6.307521e+002
1.093499e+002, 6.331160e+002
1.098320e+002, 6.346146e+002
1.103141e+002, 6.347252e+002
1.107962e+002, 6.324207e+002
1.112783e+002, 6.320118e+002
1.117604e+002, 6.349178e+002
1.122426e+002, 6.396772e+002
1.127247e+002, 6.440118e+002
1.132068e+002, 6.480336e+002
1.136889e+002, 6.512125e+002
1.141710e+002, 6.528531e+002
1.146531e+002, 6.509418e+002
1.151353e+002, 6.512150e+002
1.156174e+002, 6.569175e+002
1.160995e+002, 6.661146e+002
1.165816e+002, 6.739606e+002
1.170637e+002, 6.780670e+002
1.175458e+002, 6.805065e+002
1.180280e+002, 6.827048e+002
1.185101e+002, 6.851664e+002
1.189922e+002, 6.871699e+002
1.194743e+002, 6.878148e+002
1.199564e+002, 6.874288e+002
1.204385e+002, 6.874973e+002
1.209207e+002, 6.893240e+002
1.214028e+002, 6.919100e+002
1.218849e+002, 6.940585e+002
1.223670e+002, 6.940253e+002
1.228491e+002, 6.944384e+002
1.233312e+002, 6.989529e+002
1.238134e+002, 7.073039e+002
1.242955e+002, 7.144969e+002
1.247776e+002, 7.157390e+002
1.252597e+002, 7.128672e+002
1.257418e+002, 7.096298e+002
1.262239e+002, 7.073256e+002
1.267061e+002, 7.056068e+002
1.271882e+002, 7.037122e+002
1.276703e+002, 7.015270e+002
1.281524e+002, 7.001116e+002
1.286345e+002, 7.012811e+002
1.291166e+002, 7.045079e+002
1.295988e+002, 7.074121e+002
1.300809e+002, 7.086434e+002
1.305630e+002, 7.086198e+002
1.310451e+002, 7.089128e+002
1.315272e+002, 7.097467e+002
1.320093e+002, 7.103503e+002
1.324915e+002, 7.087792e+002
1.329736e+002, 7.050512e+002
1.334557e+002, 7.025630e+002
1.339378e+002, 7.048756e+002
1.344199e+002, 7.114904e+002
1.349020e+002, 7.133424e+002
1.353842e+002, 7.082769e+002
1.358663e+002, 6.999546e+002
1.363484e+002, 6.961544e+002
1.368305e+002, 6.975064e+002
1.373126e+002, 7.005436e+002
1.377947e+002, 7.034834e+002
1.382769e+002, 7.063912e+002
1.387590e+002, 7.086262e+002
1.392411e+002, 7.099404e+002
1.397232e+002, 7.105526e+002
1.402053e+002, 7.113986e+002
1.406874e+002, 7.128500e+002
1.411696e+002, 7.138358e+002
1.416517e+002, 7.135601e+002
1.421338e+002, 7.117365e+002
1.426159e+002, 7.094937e+002
1.430980e+002, 7.068145e+002
1.435801e+002, 7.037991e+002
1.440623e+002, 7.009333e+002
1.445444e+002, 6.973004e+002
1.450265e+002, 6.948943e+002
1.455086e+002, 6.956284e+002
1.459907e+002, 7.023547e+002
1.464728e+002, 7.077145e+002
1.469550e+002, 7.102157e+002
1.474371e+002, 7.096154e+002
1.479192e+002, 7.099736e+002
1.484013e+002, 7.113793e+002
1.488834e+002, 7.136708e+002
1.493655e+002, 7.167460e+002
1.498477e+002, 7.213638e+002
1.503298e+002, 7.259072e+002
1.508119e+002, 7.304537e+002
1.512940e+002, 7.353127e+002
1.517761e+002, 7.383561e+002
1.522583e+002, 7.370344e+002
1.527404e+002, 7.347143e+002
1.532225e+002, 7.349377e+002
1.537046e+002, 7.399127e+002
1.541867e+002, 7.457059e+002
1.546688e+002, 7.518019e+002
1.551510e+002, 7.587819e+002
1.556331e+002, 7.638598e+002
1.561152e+002, 7.650692e+002
1.565973e+002, 7.644766e+002
1.570794e+002, 7.648314e+002
1.575615e+002, 7.663158e+002
1.580437e+002, 7.691909e+002
1.585258e+002, 7.741419e+002
1.590079e+002, 7.823738e+002
1.594900e+002, 7.891910e+002
1.599721e+002, 7.922306e+002
1.604542e+002, 7.930355e+002
1.609364e+002, 7.943071e+002
1.614185e+002, 7.975931e+002
1.619006e+002, 8.011533e+002
1.623827e+002, 8.036923e+002
1.628648e+002, 8.040366e+002
1.633469e+002, 8.056140e+002
1.638291e+002, 8.114543e+002
1.643112e+002, 8.197614e+002
1.647933e+002, 8.264896e+002
1.652754e+002, 8.293950e+002
1.657575e+002, 8.302543e+002
1.662396e+002, 8.300555e+002
1.667218e+002, 8.280073e+002
1.672039e+002, 8.268551e+002
1.676860e+002, 8.287433e+002
1.681681e+002, 8.330386e+002
1.686502e+002, 8.378005e+002
1.691323e+002, 8.431434e+002
1.696145e+002, 8.478907e+002
1.700966e+002, 8.506175e+002
1.705787e+002, 8.499925e+002
1.710608e+002, 8.487897e+002
1.715429e+002, 8.495091e+002
1.720250e+002, 8.517775e+002
1.725072e+002, 8.537983e+002
1.729893e+002, 8.540789e+002
1.734714e+002, 8.535229e+002
1.739535e+002, 8.533727e+002
1.744356e+002, 8.540306e+002
1.749177e+002, 8.550993e+002
1.753999e+002, 8.566261e+002
1.758820e+002, 8.584750e+002
1.763641e+002, 8.594989e+002
1.768462e+002, 8.583342e+002
1.773283e+002, 8.558356e+002
1.778104e+002, 8.536868e+002
1.782926e+002, 8.529406e+002
1.787747e+002, 8.523097e+002
1.792568e+002, 8.502917e+002
1.797389e+002, 8.469038e+002
1.802210e+002, 8.418675e+002
1.807031e+002, 8.337152e+002
1.811853e+002, 8.236597e+002
1.816674e+002, 8.151885e+002
1.821495e+002, 8.106392e+002
1.826316e+002, 8.076022e+002
1.831137e+002, 8.009467e+002
1.835958e+002, 7.905405e+002
1.840780e+002, 7.801930e+002
1.845601e+002, 7.743565e+002
1.850422e+002, 7.719484e+002
1.855243e+002, 7.678315e+002
1.860064e+002, 7.598797e+002
1.864885e+002, 7.492897e+002
1.869707e+002, 7.389379e+002
1.874528e+002, 7.286631e+002
1.879349e+002, 7.193339e+002
1.884170e+002, 7.123199e+002
1.888991e+002, 7.073517e+002
1.893812e+002, 7.022584e+002
1.898634e+002, 6.961925e+002
1.903455e+002, 6.894477e+002
1.908276e+002, 6.832238e+002
1.913097e+002, 6.776050e+002
1.917918e+002, 6.717556e+002
1.922739e+002, 6.643868e+002
1.927561e+002, 6.554349e+002
1.932382e+002, 6.469150e+002
1.937203e+002, 6.394537e+002
1.942024e+002, 6.329391e+002
1.946845e+002, 6.264291e+002
1.951666e+002, 6.197974e+002
1.956488e+002, 6.136842e+002
1.961309e+002, 6.091033e+002
1.966130e+002, 6.060757e+002
1.970951e+002, 6.032004e+002
1.975772e+002, 6.001868e+002
1.980593e+002, 5.969867e+002
1.985415e+002, 5.929489e+002
1.990236e+002, 5.879630e+002
1.995057e+002, 5.825199e+002
1.999878e+002, 5.770635e+002
2.004699e+002, 5.714981e+002
2.009520e+002, 5.668046e+002
2.014342e+002, 5.637618e+002
2.019163e+002, 5.623025e+002
2.023984e+002, 5.597587e+002
2.028805e+002, 5.558301e+002
2.033626e+002, 5.514573e+002
2.038447e+002, 5.476903e+002
2.043269e+002, 5.444479e+002
2.048090e+002, 5.422548e+002
2.052911e+002, 5.417926e+002
2.057732e+002, 5.431245e+002
2.062553e+002, 5.428505e+002
2.067374e+002, 5.405185e+002
2.072196e+002, 5.372467e+002
2.077017e+002, 5.346138e+002
2.081838e+002, 5.328365e+002
2.086659e+002, 5.308223e+002
2.091480e+002, 5.278229e+002
2.096301e+002, 5.235941e+002
2.101123e+002, 5.216466e+002
2.105944e+002, 5.229365e+002
2.110765e+002, 5.252003e+002
2.115586e+002, 5.251230e+002
2.120407e+002, 5.220016e+002
2.125228e+002, 5.184446e+002
2.130050e+002, 5.148275e+002
2.134871e+002, 5.109254e+002
2.139692e+002, 5.095515e+002
2.144513e+002, 5.118509e+002
2.149334e+002, 5.154230e+002
2.154155e+002, 5.168887e+002
2.158977e+002, 5.156823e+002
2.163798e+002, 5.137386e+002
2.168619e+002, 5.115822e+002
2.173440e+002, 5.092298e+002
2.178261e+002, 5.065050e+002
2.183082e+002, 5.029377e+002
2.187904e+002, 4.995141e+002
2.192725e+002, 4.978907e+002
2.197546e+002, 4.991401e+002
2.202367e+002, 4.998713e+002
2.207188e+002, 4.989147e+002
2.212009e+002, 4.959395e+002
2.216831e+002, 4.935184e+002
2.221652e+002, 4.916151e+002
2.226473e+002, 4.903055e+002
2.231294e+002, 4.898038e+002
2.236115e+002, 4.904477e+002
2.240936e+002, 4.912483e+002
2.245758e+002, 4.922284e+002
2.250579e+002, 4.936204e+002
2.255400e+002, 4.932113e+002
2.260221e+002, 4.896074e+002
2.265042e+002, 4.854296e+002
2.269863e+002, 4.845366e+002
2.274685e+002, 4.893886e+002
2.279506e+002, 4.928393e+002
2.284327e+002, 4.925558e+002
2.289148e+002, 4.878519e+002
2.293969e+002, 4.845688e+002
2.298790e+002, 4.832564e+002
2.303612e+002, 4.828759e+002
2.308433e+002, 4.820573e+002
2.313254e+002, 4.799873e+002
2.318075e+002, 4.789497e+002
2.322896e+002, 4.797808e+002
2.327717e+002, 4.827285e+002
2.332539e+002, 4.851887e+002
2.337360e+002, 4.873753e+002
2.342181e+002, 4.888381e+002
2.347002e+002, 4.889146e+002
2.351823e+002, 4.867139e+002
2.356644e+002, 4.847597e+002
2.361466e+002, 4.837744e+002
2.366287e+002, 4.839021e+002
2.371108e+002, 4.833285e+002
2.375929e+002, 4.816024e+002
2.380750e+002, 4.796278e+002
2.385571e+002, 4.782806e+002
2.390393e+002, 4.774204e+002
2.395214e+002, 4.775172e+002
2.400035e+002, 4.791001e+002
2.404856e+002, 4.823329e+002
2.409677e+002, 4.840495e+002
2.414498e+002, 4.829962e+002
2.419320e+002, 4.816238e+002
2.424141e+002, 4.825914e+002
2.428962e+002, 4.881545e+002
2.433783e+002, 4.916708e+002
2.438604e+002, 4.909892e+002
2.443425e+002, 4.861035e+002
2.448247e+002, 4.841392e+002
2.453068e+002, 4.867519e+002
2.457889e+002, 4.905085e+002
2.462710e+002, 4.924438e+002
2.467531e+002, 4.915666e+002
2.472352e+002, 4.907991e+002
2.477174e+002, 4.905632e+002
2.481995e+002, 4.908422e+002
2.486816e+002, 4.913433e+002
2.491637e+002, 4.925150e+002
2.496458e+002, 4.934081e+002
2.501279e+002, 4.930565e+002
2.506101e+002, 4.903625e+002
2.510922e+002, 4.888808e+002
2.515743e+002, 4.894099e+002
2.520564e+002, 4.917059e+002
2.525385e+002, 4.938146e+002
2.530206e+002, 4.959948e+002
2.535028e+002, 4.976668e+002
2.539849e+002, 4.983201e+002
2.544670e+002, 4.975925e+002
2.549491e+002, 4.966896e+002
2.554312e+002, 4.954714e+002
2.559133e+002, 4.941185e+002
2.563955e+002, 4.935838e+002
2.568776e+002, 4.939403e+002
2.573597e+002, 4.949697e+002
2.578418e+002, 4.965706e+002
2.583239e+002, 4.988669e+002
2.588061e+002, 5.015236e+002
2.592882e+002, 5.051431e+002
2.597703e+002, 5.090427e+002
2.602524e+002, 5.102623e+002
2.607345e+002, 5.073817e+002
2.612166e+002, 5.044599e+002
2.616988e+002, 5.037974e+002
2.621809e+002, 5.060536e+002
2.626630e+002, 5.086194e+002
2.631451e+002, 5.118156e+002
2.636272e+002, 5.150731e+002
2.641093e+002, 5.166089e+002
2.645915e+002, 5.159398e+002
2.650736e+002, 5.147164e+002
2.655557e+002, 5.134510e+002
2.660378e+002, 5.118519e+002
2.665199e+002, 5.116897e+002
2.670020e+002, 5.135748e+002
2.674842e+002, 5.164518e+002
2.679663e+002, 5.179484e+002
2.684484e+002, 5.176039e+002
2.689305e+002, 5.171925e+002
2.694126e+002, 5.173143e+002
2.698947e+002, 5.179049e+002
2.703769e+002, 5.196242e+002
2.708590e+002, 5.229699e+002
2.713411e+002, 5.267975e+002
2.718232e+002, 5.288779e+002
2.723053e+002, 5.286608e+002
2.727874e+002, 5.287806e+002
2.732696e+002, 5.305942e+002
2.737517e+002, 5.342632e+002
2.742338e+002, 5.362380e+002
2.747159e+002, 5.361285e+002
2.751980e+002, 5.350880e+002
2.756801e+002, 5.345743e+002
2.761623e+002, 5.346170e+002
2.766444e+002, 5.350534e+002
2.771265e+002, 5.359862e+002
2.776086e+002, 5.373847e+002
2.780907e+002, 5.384729e+002
2.785728e+002, 5.392850e+002
2.790550e+002, 5.397562e+002
2.795371e+002, 5.394083e+002
2.800192e+002, 5.381055e+002
2.805013e+002, 5.380256e+002
2.809834e+002, 5.403901e+002
2.814655e+002, 5.444714e+002
2.819477e+002, 5.460802e+002
2.824298e+002, 5.447560e+002
2.829119e+002, 5.430958e+002
2.833940e+002, 5.438246e+002
2.838761e+002, 5.468931e+002
2.843582e+002, 5.493876e+002
2.848404e+002, 5.505366e+002
2.853225e+002, 5.507594e+002
2.858046e+002, 5.514084e+002
2.862867e+002, 5.525280e+002
2.867688e+002, 5.534865e+002
2.872509e+002, 5.536176e+002
2.877331e+002, 5.530219e+002
2.882152e+002, 5.525669e+002
2.886973e+002, 5.522866e+002
2.891794e+002, 5.523542e+002
2.896615e+002, 5.533678e+002
2.901436e+002, 5.553267e+002
2.906258e+002, 5.572494e+002
2.911079e+002, 5.584102e+002
2.915900e+002, 5.589739e+002
2.920721e+002, 5.595569e+002
2.925542e+002, 5.601128e+002
2.930363e+002, 5.609861e+002
2.935185e+002, 5.630429e+002
2.940006e+002, 5.661622e+002
2.944827e+002, 5.690016e+002
2.949648e+002, 5.712706e+002
2.954469e+002, 5.727349e+002
2.959290e+002, 5.721819e+002
2.964112e+002, 5.691144e+002
2.968933e+002, 5.660331e+002
2.973754e+002, 5.663367e+002
2.978575e+002, 5.693543e+002
2.983396e+002, 5.726344e+002
2.988217e+002, 5.753035e+002
2.993039e+002, 5.773660e+002
2.997860e+002, 5.785728e+002
3.002681e+002, 5.788743e+002
3.007502e+002, 5.790258e+002
3.012323e+002, 5.795504e+002
3.017144e+002, 5.804849e+002
3.021966e+002, 5.818882e+002
3.026787e+002, 5.843019e+002
3.031608e+002, 5.869277e+002
3.036429e+002, 5.885976e+002
3.041250e+002, 5.893537e+002
3.046071e+002, 5.902933e+002
3.050893e+002, 5.930563e+002
3.055714e+002, 5.964296e+002
3.060535e+002, 5.982947e+002
3.065356e+002, 5.969806e+002
3.070177e+002, 5.950179e+002
3.074998e+002, 5.943325e+002
3.079820e+002, 5.948964e+002
3.084641e+002, 5.966115e+002
3.089462e+002, 6.001922e+002
3.094283e+002, 6.045768e+002
3.099104e+002, 6.087704e+002
3.103925e+002, 6.131053e+002
3.108747e+002, 6.160983e+002
3.113568e+002, 6.155380e+002
3.118389e+002, 6.125953e+002
3.123210e+002, 6.105441e+002
3.128031e+002, 6.106151e+002
3.132852e+002, 6.124329e+002
3.137674e+002, 6.162637e+002
3.142495e+002, 6.230422e+002
3.147316e+002, 6.288809e+002
3.152137e+002, 6.309395e+002
3.156958e+002, 6.308171e+002
3.161779e+002, 6.312437e+002
3.166601e+002, 6.339780e+002
3.171422e+002, 6.369585e+002
3.176243e+002, 6.391773e+002
3.181064e+002, 6.404874e+002
3.185885e+002, 6.412524e+002
3.190706e+002, 6.403885e+002
3.195528e+002, 6.394579e+002
3.200349e+002, 6.402345e+002
3.205170e+002, 6.449374e+002
3.209991e+002, 6.497443e+002
3.214812e+002, 6.529570e+002
3.219633e+002, 6.545238e+002
3.224455e+002, 6.574270e+002
3.229276e+002, 6.649963e+002
3.234097e+002, 6.726501e+002
3.238918e+002, 6.769569e+002
3.243739e+002, 6.729094e+002
3.248560e+002, 6.704640e+002
3.253382e+002, 6.718442e+002
3.258203e+002, 6.764995e+002
3.263024e+002, 6.805858e+002
3.267845e+002, 6.838441e+002
3.272666e+002, 6.864686e+002
3.277487e+002, 6.885269e+002
3.282309e+002, 6.890186e+002
3.287130e+002, 6.902877e+002
3.291951e+002, 6.925770e+002
3.296772e+002, 6.956351e+002
3.301593e+002, 6.988699e+002
3.306414e+002, 7.024964e+002
3.311236e+002, 7.060133e+002
3.316057e+002, 7.092036e+002
3.320878e+002, 7.118187e+002
3.325699e+002, 7.149757e+002
3.330520e+002, 7.193451e+002
3.335341e+002, 7.238085e+002
3.340163e+002, 7.264875e+002
3.344984e+002, 7.260052e+002
3.349805e+002, 7.264392e+002
3.354626e+002, 7.292426e+002
3.359447e+002, 7.345802e+002
3.364268e+002, 7.386535e+002
3.369090e+002, 7.414630e+002
3.373911e+002, 7.430834e+002
3.378732e+002, 7.431578e+002
3.383553e+002, 7.410702e+002
3.388374e+002, 7.400733e+002
3.393195e+002, 7.412930e+002
3.398017e+002, 7.439554e+002
3.402838e+002, 7.446671e+002
3.407659e+002, 7.432948e+002
3.412480e+002, 7.403520e+002
3.417301e+002, 7.356588e+002
3.422122e+002, 7.291401e+002
3.426944e+002, 7.230352e+002
3.431765e+002, 7.174677e+002
3.436586e+002, 7.125778e+002
3.441407e+002, 7.092903e+002
3.446228e+002, 7.076708e+002
3.451049e+002, 7.055181e+002
3.455871e+002, 7.014414e+002
3.460692e+002, 6.957072e+002
3.465513e+002, 6.899290e+002
3.470334e+002, 6.840737e+002
3.475155e+002, 6.786068e+002
3.479977e+002, 6.746878e+002
3.484798e+002, 6.719574e+002
3.489619e+002, 6.687130e+002
3.494440e+002, 6.645969e+002
3.499261e+002, 6.593840e+002
3.504082e+002, 6.517679e+002
3.508904e+002, 6.417471e+002
3.513725e+002, 6.323895e+002
3.518546e+002, 6.273439e+002
3.523367e+002, 6.247667e+002
3.528188e+002, 6.206018e+002
3.533009e+002, 6.127010e+002
3.537831e+002, 6.039526e+002
3.542652e+002, 5.973064e+002
3.547473e+002, 5.925527e+002
3.552294e+002, 5.887483e+002
3.557115e+002, 5.863688e+002
3.561936e+002, 5.841594e+002
3.566758e+002, 5.806397e+002
3.571579e+002, 5.751810e+002
3.576400e+002, 5.693852e+002
3.581221e+002, 5.642983e+002
3.586042e+002, 5.597133e+002
3.590863e+002, 5.550975e+002
3.595685e+002, 5.490692e+002
3.600506e+002, 5.438102e+002
3.605327e+002, 5.413002e+002
3.610148e+002, 5.420467e+002
3.614969e+002, 5.420756e+002
3.619790e+002, 5.394385e+002
3.624612e+002, 5.353281e+002
3.629433e+002, 5.309904e+002
3.634254e+002, 5.255538e+002
3.639075e+002, 5.211107e+002
3.643896e+002, 5.185512e+002
3.648717e+002, 5.177537e+002
3.653539e+002, 5.172770e+002
3.658360e+002, 5.177397e+002
3.663181e+002, 5.178032e+002
3.668002e+002, 5.166423e+002
3.672823e+002, 5.118681e+002
3.677644e+002, 5.087757e+002
3.682466e+002, 5.092117e+002
3.687287e+002, 5.116704e+002
3.692108e+002, 5.118996e+002
3.696929e+002, 5.068575e+002
3.701750e+002, 5.027807e+002
3.706571e+002, 5.022800e+002
3.711393e+002, 5.072043e+002
3.716214e+002, 5.094167e+002
3.721035e+002, 5.074618e+002
3.725856e+002, 5.038959e+002
3.730677e+002, 5.019582e+002
3.735498e+002, 5.019578e+002
3.740320e+002, 5.029932e+002
3.745141e+002, 5.054521e+002
3.749962e+002, 5.091292e+002
3.754783e+002, 5.105748e+002
3.759604e+002, 5.090240e+002
3.764425e+002, 5.069241e+002
3.769247e+002, 5.060939e+002
3.774068e+002, 5.065822e+002
3.778889e+002, 5.082629e+002
3.783710e+002, 5.117020e+002
3.788531e+002, 5.157290e+002
3.793352e+002, 5.168442e+002
3.798174e+002, 5.147159e+002
3.802995e+002, 5.135067e+002
3.807816e+002, 5.165316e+002
3.812637e+002, 5.230061e+002
3.817458e+002, 5.271329e+002
3.822279e+002, 5.282783e+002
3.827101e+002, 5.288043e+002
3.831922e+002, 5.318429e+002
3.836743e+002, 5.369832e+002
3.841564e+002, 5.421498e+002
3.846385e+002, 5.463817e+002
3.851206e+002, 5.502561e+002
3.856028e+002, 5.547427e+002
3.860849e+002, 5.598394e+002
3.865670e+002, 5.654814e+002
3.870491e+002, 5.723411e+002
3.875312e+002, 5.796152e+002
3.880133e+002, 5.859396e+002
3.884955e+002, 5.905599e+002
3.889776e+002, 5.949063e+002
3.894597e+002, 6.000096e+002
3.899418e+002, 6.057950e+002
3.904239e+002, 6.120367e+002
3.909060e+002, 6.187477e+002
3.913882e+002, 6.257914e+002
3.918703e+002, 6.331356e+002
3.923524e+002, 6.409220e+002
3.928345e+002, 6.485770e+002
3.933166e+002, 6.554528e+002
3.937987e+002, 6.621873e+002
3.942809e+002, 6.694899e+002
3.947630e+002, 6.789049e+002
3.952451e+002, 6.876570e+002
3.957272e+002, 6.946741e+002
3.962093e+002, 6.999803e+002
3.966914e+002, 7.051232e+002
3.971736e+002, 7.118553e+002
3.976557e+002, 7.175685e+002
3.981378e+002, 7.206742e+002
3.986199e+002, 7.192362e+002
3.991020e+002, 7.173723e+002
3.995841e+002, 7.159534e+002
4.000663e+002, 7.141640e+002
4.005484e+002, 7.099703e+002
4.010305e+002, 7.020660e+002
4.015126e+002, 6.933927e+002
4.019947e+002, 6.849222e+002
4.024768e+002, 6.769538e+002
4.029590e+002, 6.679571e+002
4.034411e+002, 6.576131e+002
4.039232e+002, 6.466128e+002
4.044053e+002, 6.356957e+002
4.048874e+002, 6.248582e+002
4.053695e+002, 6.139242e+002
4.058517e+002, 6.023320e+002
4.063338e+002, 5.906808e+002
4.068159e+002, 5.814828e+002
4.072980e+002, 5.751471e+002
4.077801e+002, 5.692716e+002
4.082622e+002, 5.619239e+002
4.087444e+002, 5.532575e+002
4.092265e+002, 5.459818e+002
4.097086e+002, 5.404452e+002
4.101907e+002, 5.360203e+002
4.106728e+002, 5.317700e+002
4.111549e+002, 5.277200e+002
4.116371e+002, 5.241841e+002
4.121192e+002, 5.216031e+002
4.126013e+002, 5.195770e+002
4.130834e+002, 5.173228e+002
4.135655e+002, 5.148444e+002
4.140476e+002, 5.123976e+002
4.145298e+002, 5.095580e+002
4.150119e+002, 5.070069e+002
4.154940e+002, 5.060922e+002
4.159761e+002, 5.085758e+002
4.164582e+002, 5.107099e+002
4.169403e+002, 5.082686e+002
4.174225e+002, 5.027401e+002
4.179046e+002, 4.983757e+002
4.183867e+002, 4.983370e+002
4.188688e+002, 4.996820e+002
4.193509e+002, 5.005452e+002
4.198330e+002, 5.007013e+002
4.203152e+002, 5.004755e+002
4.207973e+002, 4.992897e+002
4.212794e+002, 4.980535e+002
4.217615e+002, 4.978082e+002
4.222436e+002, 4.997827e+002
4.227257e+002, 5.017472e+002
4.232079e+002, 5.034743e+002
4.236900e+002, 5.048837e+002
4.241721e+002, 5.052979e+002
4.246542e+002, 5.038004e+002
4.251363e+002, 5.019602e+002
4.256184e+002, 5.003748e+002
4.261006e+002, 4.980186e+002
4.265827e+002, 4.980258e+002
4.270648e+002, 5.022284e+002
4.275469e+002, 5.078805e+002
4.280290e+002, 5.095385e+002
4.285111e+002, 5.048237e+002
4.289933e+002, 5.015175e+002
4.294754e+002, 5.026612e+002
4.299575e+002, 5.080788e+002
4.304396e+002, 5.105797e+002
4.309217e+002, 5.094438e+002
4.314038e+002, 5.075572e+002
4.318860e+002, 5.073679e+002
4.323681e+002, 5.088874e+002
4.328502e+002, 5.113286e+002
4.333323e+002, 5.150491e+002
4.338144e+002, 5.188978e+002
4.342965e+002, 5.203549e+002
4.347787e+002, 5.195692e+002
4.352608e+002, 5.184252e+002
4.357429e+002, 5.178163e+002
4.362250e+002, 5.176113e+002
4.367071e+002, 5.175406e+002
4.371892e+002, 5.175956e+002
4.376714e+002, 5.177657e+002
4.381535e+002, 5.174664e+002
4.386356e+002, 5.173632e+002
4.391177e+002, 5.187579e+002
4.395998e+002, 5.233799e+002
4.400819e+002, 5.281223e+002
4.405641e+002, 5.302343e+002
4.410462e+002, 5.302764e+002
4.415283e+002, 5.302520e+002
4.420104e+002, 5.307672e+002
4.424925e+002, 5.318553e+002
4.429746e+002, 5.337161e+002
4.434568e+002, 5.366569e+002
4.439389e+002, 5.392729e+002
4.444210e+002, 5.412589e+002
4.449031e+002, 5.426166e+002
4.453852e+002, 5.433497e+002
4.458673e+002, 5.413885e+002
4.463495e+002, 5.409662e+002
4.468316e+002, 5.443717e+002
4.473137e+002, 5.511469e+002
4.477958e+002, 5.545072e+002
4.482779e+002, 5.513324e+002
4.487600e+002, 5.478822e+002
4.492422e+002, 5.473553e+002
4.497243e+002, 5.512048e+002
4.502064e+002, 5.546117e+002
4.506885e+002, 5.575814e+002
4.511706e+002, 5.601994e+002
4.516527e+002, 5.625809e+002
4.521349e+002, 5.647832e+002
4.526170e+002, 5.666369e+002
4.530991e+002, 5.680038e+002
4.535812e+002, 5.689946e+002
4.540633e+002, 5.701090e+002
4.545454e+002, 5.713909e+002
4.550276e+002, 5.726130e+002
4.555097e+002, 5.729735e+002
4.559918e+002, 5.729142e+002
4.564739e+002, 5.750177e+002
4.569560e+002, 5.802797e+002
4.574381e+002, 5.859535e+002
4.579203e+002, 5.876686e+002
4.584024e+002, 5.865528e+002
4.588845e+002, 5.862581e+002
4.593666e+002, 5.893845e+002
4.598488e+002, 5.937640e+002
4.603309e+002, 5.971251e+002
4.608130e+002, 5.994323e+002
4.612951e+002, 6.011558e+002
4.617772e+002, 6.017267e+002
4.622593e+002, 6.022341e+002
4.627415e+002, 6.038536e+002
4.632236e+002, 6.077208e+002
4.637057e+002, 6.111821e+002
4.641878e+002, 6.129401e+002
4.646699e+002, 6.135690e+002
4.651520e+002, 6.141975e+002
4.656342e+002, 6.139125e+002
4.661163e+002, 6.147997e+002
4.665984e+002, 6.182270e+002
4.670805e+002, 6.247060e+002
4.675626e+002, 6.294783e+002
4.680447e+002, 6.318085e+002
4.685269e+002, 6.329204e+002
4.690090e+002, 6.335370e+002
4.694911e+002, 6.331469e+002
4.699732e+002, 6.333130e+002
4.704553e+002, 6.342984e+002
4.709374e+002, 6.357748e+002
4.714196e+002, 6.370289e+002
4.719017e+002, 6.379938e+002
4.723838e+002, 6.389515e+002
4.728659e+002, 6.400485e+002
4.733480e+002, 6.412640e+002
4.738301e+002, 6.425134e+002
4.743123e+002, 6.439180e+002
4.747944e+002, 6.446468e+002
4.752765e+002, 6.432725e+002
4.757586e+002, 6.403854e+002
4.762407e+002, 6.386095e+002
4.767228e+002, 6.387039e+002
4.772050e+002, 6.395358e+002
4.776871e+002, 6.398314e+002
4.781692e+002, 6.396317e+002
4.786513e+002, 6.390568e+002
4.791334e+002, 6.381987e+002
4.796155e+002, 6.369677e+002
4.800977e+002, 6.354242e+002
4.805798e+002, 6.335509e+002
4.810619e+002, 6.308127e+002
4.815440e+002, 6.251880e+002
4.820261e+002, 6.194692e+002
4.825082e+002, 6.164510e+002
4.829904e+002, 6.205533e+002
4.834725e+002, 6.217227e+002
4.839546e+002, 6.145387e+002
4.844367e+002, 6.025917e+002
4.849188e+002, 5.936313e+002
4.854009e+002, 5.921971e+002
4.858831e+002, 5.903507e+002
4.863652e+002, 5.853616e+002
4.868473e+002, 5.769418e+002
4.873294e+002, 5.705774e+002
4.878115e+002, 5.675239e+002
4.882936e+002, 5.650517e+002
4.887758e+002, 5.611270e+002
4.892579e+002, 5.553013e+002
4.897400e+002, 5.494384e+002
4.902221e+002, 5.435399e+002
4.907042e+002, 5.378226e+002
4.911863e+002, 5.329918e+002
4.916685e+002, 5.290740e+002
4.921506e+002, 5.251362e+002
4.926327e+002, 5.207848e+002
4.931148e+002, 5.161182e+002
4.935969e+002, 5.115594e+002
4.940790e+002, 5.070497e+002
4.945612e+002, 5.031083e+002
4.950433e+002, 5.007850e+002
4.955254e+002, 4.991764e+002
4.960075e+002, 4.963068e+002
4.964896e+002, 4.914870e+002
4.969717e+002, 4.864888e+002
4.974539e+002, 4.831373e+002
4.979360e+002, 4.807621e+002
4.984181e+002, 4.782491e+002
4.989002e+002, 4.745371e+002
4.993823e+002, 4.710324e+002
4.998644e+002, 4.687377e+002
5.003466e+002, 4.675146e+002
5.008287e+002, 4.660075e+002
5.013108e+002, 4.630821e+002
5.017929e+002, 4.602799e+002
5.022750e+002, 4.585735e+002
5.027571e+002, 4.588314e+002
5.032393e+002, 4.586333e+002
5.037214e+002, 4.576364e+002
5.042035e+002, 4.563040e+002
5.046856e+002, 4.553079e+002
5.051677e+002, 4.551833e+002
5.056498e+002, 4.542418e+002
5.061320e+002, 4.517211e+002
5.066141e+002, 4.480845e+002
5.070962e+002, 4.461116e+002
5.075783e+002, 4.460939e+002
5.080604e+002, 4.464954e+002
5.085425e+002, 4.463719e+002
5.090247e+002, 4.457918e+002
5.095068e+002, 4.455924e+002
5.099889e+002, 4.458995e+002
5.104710e+002, 4.460636e+002
5.109531e+002, 4.446013e+002
5.114352e+002, 4.423109e+002
5.119174e+002, 4.417730e+002
5.123995e+002, 4.449688e+002
5.128816e+002, 4.486296e+002
5.133637e+002, 4.487332e+002
5.138458e+002, 4.462534e+002
5.143279e+002, 4.443365e+002
5.148101e+002, 4.448625e+002
5.152922e+002, 4.463983e+002
5.157743e+002, 4.481559e+002
5.162564e+002, 4.501035e+002
5.167385e+002, 4.517955e+002
5.172206e+002, 4.528247e+002
5.177028e+002, 4.536606e+002
5.181849e+002, 4.546762e+002
5.186670e+002, 4.571154e+002
5.191491e+002, 4.582033e+002
5.196312e+002, 4.564163e+002
5.201133e+002, 4.534317e+002
5.205955e+002, 4.530230e+002
5.210776e+002, 4.567517e+002
5.215597e+002, 4.601094e+002
5.220418e+002, 4.614373e+002
5.225239e+002, 4.608735e+002
5.230060e+002, 4.617595e+002
5.234882e+002, 4.643432e+002
5.239703e+002, 4.674630e+002
5.244524e+002, 4.706898e+002
5.249345e+002, 4.738697e+002
5.254166e+002, 4.752170e+002
5.258987e+002, 4.741344e+002
5.263809e+002, 4.727164e+002
5.268630e+002, 4.739293e+002
5.273451e+002, 4.771050e+002
5.278272e+002, 4.801148e+002
5.283093e+002, 4.821640e+002
5.287914e+002, 4.836678e+002
5.292736e+002, 4.848768e+002
5.297557e+002, 4.858782e+002
5.302378e+002, 4.869870e+002
5.307199e+002, 4.876566e+002
5.312020e+002, 4.890281e+002
5.316841e+002, 4.925265e+002
5.321663e+002, 4.992141e+002
5.326484e+002, 5.038987e+002
5.331305e+002, 5.032751e+002
5.336126e+002, 5.010792e+002
5.340947e+002, 5.008575e+002
5.345768e+002, 5.049521e+002
5.350590e+002, 5.082948e+002
5.355411e+002, 5.103181e+002
5.360232e+002, 5.113860e+002
5.365053e+002, 5.123956e+002
5.369874e+002, 5.132673e+002
5.374695e+002, 5.142514e+002
5.379517e+002, 5.157269e+002
5.384338e+002, 5.175631e+002
5.389159e+002, 5.174579e+002
5.393980e+002, 5.150836e+002
5.398801e+002, 5.127296e+002
5.403622e+002, 5.123813e+002
5.408444e+002, 5.137405e+002
5.413265e+002, 5.161319e+002
5.418086e+002, 5.200335e+002
5.422907e+002, 5.228079e+002
5.427728e+002, 5.196696e+002
5.432549e+002, 5.131893e+002
5.437371e+002, 5.089948e+002
5.442192e+002, 5.123675e+002
5.447013e+002, 5.163367e+002
5.451834e+002, 5.150607e+002
5.456655e+002, 5.099250e+002
5.461476e+002, 5.065507e+002
5.466298e+002, 5.098936e+002
5.471119e+002, 5.134226e+002
5.475940e+002, 5.130104e+002
5.480761e+002, 5.066270e+002
5.485582e+002, 5.030104e+002
5.490403e+002, 5.053079e+002
5.495225e+002, 5.089000e+002
5.500046e+002, 5.099594e+002
5.504867e+002, 5.070386e+002
5.509688e+002, 5.048144e+002
5.514509e+002, 5.041467e+002
5.519330e+002, 5.040115e+002
5.524152e+002, 5.019312e+002
5.528973e+002, 4.976119e+002
5.533794e+002, 4.935187e+002
5.538615e+002, 4.904619e+002
5.543436e+002, 4.883517e+002
5.548257e+002, 4.869534e+002
5.553079e+002, 4.862746e+002
5.557900e+002, 4.861270e+002
5.562721e+002, 4.869640e+002
5.567542e+002, 4.880685e+002
5.572363e+002, 4.880780e+002
5.577184e+002, 4.866788e+002
5.582006e+002, 4.852392e+002
5.586827e+002, 4.853194e+002
5.591648e+002, 4.857892e+002
5.596469e+002, 4.852130e+002
5.601290e+002, 4.826436e+002
5.606111e+002, 4.794912e+002
5.610933e+002, 4.750082e+002
5.615754e+002, 4.701973e+002
5.620575e+002, 4.678727e+002
5.625396e+002, 4.716080e+002
5.630217e+002, 4.745853e+002
5.635038e+002, 4.747819e+002
5.639860e+002, 4.720818e+002
5.644681e+002, 4.695624e+002
5.649502e+002, 4.674001e+002
5.654323e+002, 4.650991e+002
5.659144e+002, 4.620625e+002
5.663965e+002, 4.581584e+002
5.668787e+002, 4.554976e+002
5.673608e+002, 4.544659e+002
5.678429e+002, 4.539872e+002
5.683250e+002, 4.524536e+002
5.688071e+002, 4.501551e+002
5.692892e+002, 4.484691e+002
5.697714e+002, 4.482718e+002
5.702535e+002, 4.483314e+002
5.707356e+002, 4.469356e+002
5.712177e+002, 4.444362e+002
5.716998e+002, 4.420924e+002
5.721819e+002, 4.408411e+002
5.726641e+002, 4.396950e+002
5.731462e+002, 4.376712e+002
5.736283e+002, 4.346790e+002
5.741104e+002, 4.325631e+002
5.745925e+002, 4.331037e+002
5.750746e+002, 4.338606e+002
5.755568e+002, 4.331376e+002
5.760389e+002, 4.295748e+002
5.765210e+002, 4.268029e+002
5.770031e+002, 4.249828e+002
5.774852e+002, 4.238189e+002
5.779673e+002, 4.230552e+002
5.784495e+002, 4.229366e+002
5.789316e+002, 4.223823e+002
5.794137e+002, 4.212755e+002
5.798958e+002, 4.195331e+002
5.803779e+002, 4.164040e+002
5.808600e+002, 4.119167e+002
5.813422e+002, 4.079368e+002
5.818243e+002, 4.057896e+002
5.823064e+002, 4.047611e+002
5.827885e+002, 4.033657e+002
5.832706e+002, 4.015935e+002
5.837527e+002, 4.000154e+002
5.842349e+002, 3.994285e+002
5.847170e+002, 3.990370e+002
5.851991e+002, 3.978591e+002
5.856812e+002, 3.953629e+002
5.861633e+002, 3.931857e+002
5.866454e+002, 3.923367e+002
5.871276e+002, 3.920771e+002
5.876097e+002, 3.915198e+002
5.880918e+002, 3.905520e+002
5.885739e+002, 3.892251e+002
5.890560e+002, 3.876903e+002
5.895381e+002, 3.858179e+002
5.900203e+002, 3.829124e+002
5.905024e+002, 3.778645e+002
5.909845e+002, 3.743534e+002
5.914666e+002, 3.742538e+002
5.919487e+002, 3.770970e+002
5.924308e+002, 3.787717e+002
5.929130e+002, 3.792598e+002
5.933951e+002, 3.787600e+002
5.938772e+002, 3.769198e+002
5.943593e+002, 3.742145e+002
5.948414e+002, 3.720735e+002
5.953235e+002, 3.706928e+002
5.958057e+002, 3.695499e+002
5.962878e+002, 3.680573e+002
5.967699e+002, 3.665145e+002
5.972520e+002, 3.653873e+002
5.977341e+002, 3.648170e+002
5.982162e+002, 3.646568e+002
5.986984e+002, 3.654879e+002
5.991805e+002, 3.666306e+002
5.996626e+002, 3.666812e+002
6.001447e+002, 3.647216e+002
6.006268e+002, 3.622614e+002
6.011089e+002, 3.592876e+002
6.015911e+002, 3.559398e+002
6.020732e+002, 3.539776e+002
6.025553e+002, 3.541778e+002
6.030374e+002, 3.543613e+002
6.035195e+002, 3.529836e+002
6.040016e+002, 3.499225e+002
6.044838e+002, 3.492076e+002
6.049659e+002, 3.512674e+002
6.054480e+002, 3.536738e+002
6.059301e+002, 3.539476e+002
6.064122e+002, 3.524954e+002
6.068943e+002, 3.506469e+002
6.073765e+002, 3.485355e+002
6.078586e+002, 3.464663e+002
6.083407e+002, 3.444738e+002
6.088228e+002, 3.427976e+002
6.093049e+002, 3.419188e+002
6.097870e+002, 3.432472e+002
6.102692e+002, 3.442016e+002
6.107513e+002, 3.429138e+002
6.112334e+002, 3.401172e+002
6.117155e+002, 3.384821e+002
6.121976e+002, 3.399817e+002
6.126797e+002, 3.412467e+002
6.131619e+002, 3.410370e+002
6.136440e+002, 3.392569e+002
6.141261e+002, 3.379038e+002
6.146082e+002, 3.370187e+002
6.150903e+002, 3.364580e+002
6.155724e+002, 3.361288e+002
6.160546e+002, 3.360310e+002
6.165367e+002, 3.364169e+002
6.170188e+002, 3.375407e+002
6.175009e+002, 3.380957e+002
6.179830e+002, 3.356970e+002
6.184651e+002, 3.314444e+002
6.189473e+002, 3.286093e+002
6.194294e+002, 3.284026e+002
6.199115e+002, 3.290900e+002
6.203936e+002, 3.298105e+002
6.208757e+002, 3.301982e+002
6.213578e+002, 3.295211e+002
6.218400e+002, 3.259293e+002
6.223221e+002, 3.227336e+002
6.228042e+002, 3.216834e+002
6.232863e+002, 3.224588e+002
6.237684e+002, 3.228182e+002
6.242505e+002, 3.219914e+002
6.247327e+002, 3.213127e+002
6.252148e+002, 3.212555e+002
6.256969e+002, 3.218551e+002
6.261790e+002, 3.228354e+002
6.266611e+002, 3.245810e+002
6.271432e+002, 3.256843e+002
6.276254e+002, 3.244100e+002
6.281075e+002, 3.210508e+002
6.285896e+002, 3.189667e+002
6.290717e+002, 3.184991e+002
6.295538e+002, 3.191398e+002
6.300359e+002, 3.217784e+002
6.305181e+002, 3.249546e+002
6.310002e+002, 3.253929e+002
6.314823e+002, 3.205613e+002
6.319644e+002, 3.153944e+002
6.324465e+002, 3.131857e+002
6.329286e+002, 3.131383e+002
6.334108e+002, 3.136831e+002
6.338929e+002, 3.159171e+002
6.343750e+002, 3.170084e+002
6.348571e+002, 3.152430e+002
6.353392e+002, 3.111295e+002
6.358214e+002, 3.085739e+002
6.363035e+002, 3.080140e+002
6.367856e+002, 3.082761e+002
6.372677e+002, 3.092042e+002
6.377498e+002, 3.107833e+002
6.382319e+002, 3.110991e+002
6.387141e+002, 3.099396e+002
6.391962e+002, 3.086308e+002
6.396783e+002, 3.085517e+002
6.401604e+002, 3.092410e+002
6.406425e+002, 3.090311e+002
6.411246e+002, 3.076638e+002
6.416068e+002, 3.060474e+002
6.420889e+002, 3.048140e+002
6.425710e+002, 3.039343e+002
6.430531e+002, 3.034245e+002
6.435352e+002, 3.035638e+002
6.440173e+002, 3.036214e+002
6.444995e+002, 3.032068e+002
6.449816e+002, 3.025362e+002
6.454637e+002, 3.019764e+002
6.459458e+002, 3.020698e+002
6.464279e+002, 3.016204e+002
6.469100e+002, 2.998336e+002
6.473922e+002, 2.973514e+002
6.478743e+002, 2.970849e+002
6.483564e+002, 2.996807e+002
6.488385e+002, 3.022242e+002
6.493206e+002, 3.036633e+002
6.498027e+002, 3.040143e+002
6.502849e+002, 3.027680e+002
6.507670e+002, 2.999720e+002
6.512491e+002, 2.976611e+002
6.517312e+002, 2.984924e+002
6.522133e+002, 3.003393e+002
6.526954e+002, 2.995518e+002
6.531776e+002, 2.955165e+002
6.536597e+002, 2.923386e+002
6.541418e+002, 2.932228e+002
6.546239e+002, 2.956018e+002
6.551060e+002, 2.971172e+002
6.555881e+002, 2.965728e+002
6.560703e+002, 2.965296e+002
6.565524e+002, 2.978749e+002
6.570345e+002, 2.996027e+002
6.575166e+002, 3.005296e+002
6.579987e+002, 3.004465e+002
6.584808e+002, 3.000963e+002
6.589630e+002, 2.994804e+002
6.594451e+002, 2.987513e+002
6.599272e+002, 2.982031e+002
6.604093e+002, 2.978378e+002
6.608914e+002, 2.977565e+002
6.613735e+002, 2.984714e+002
6.618557e+002, 2.991110e+002
6.623378e+002, 2.976698e+002
6.628199e+002, 2.946871e+002
6.633020e+002, 2.924990e+002
6.637841e+002, 2.931967e+002
6.642662e+002, 2.945832e+002
6.647484e+002, 2.953520e+002
6.652305e+002, 2.954026e+002
6.657126e+002, 2.947398e+002
6.661947e+002, 2.915895e+002
6.666768e+002, 2.892335e+002
6.671589e+002, 2.898258e+002
6.676411e+002, 2.947271e+002
6.681232e+002, 2.968078e+002
6.686053e+002, 2.948482e+002
6.690874e+002, 2.921317e+002
6.695695e+002, 2.921256e+002
6.700516e+002, 2.947003e+002
6.705338e+002, 2.958005e+002
6.710159e+002, 2.947903e+002
6.714980e+002, 2.928782e+002
6.719801e+002, 2.909242e+002
6.724622e+002, 2.892788e+002
6.729443e+002, 2.889594e+002
6.734265e+002, 2.912810e+002
6.739086e+002, 2.933064e+002
6.743907e+002, 2.925102e+002
6.748728e+002, 2.901296e+002
6.753549e+002, 2.885091e+002
6.758370e+002, 2.894802e+002
6.763192e+002, 2.899836e+002
6.768013e+002, 2.887450e+002
6.772834e+002, 2.863825e+002
6.777655e+002, 2.851757e+002
6.782476e+002, 2.855500e+002
6.787297e+002, 2.861203e+002
6.792119e+002, 2.863685e+002
6.796940e+002, 2.863715e+002
6.801761e+002, 2.865696e+002
6.806582e+002, 2.869586e+002
6.811403e+002, 2.874917e+002
6.816224e+002, 2.888676e+002
6.821046e+002, 2.900985e+002
6.825867e+002, 2.886972e+002
6.830688e+002, 2.845476e+002
6.835509e+002, 2.814409e+002
6.840330e+002, 2.828431e+002
6.845151e+002, 2.856717e+002
6.849973e+002, 2.874610e+002
6.854794e+002, 2.878208e+002
6.859615e+002, 2.872321e+002
6.864436e+002, 2.838542e+002
6.869257e+002, 2.808329e+002
6.874078e+002, 2.811151e+002
6.878900e+002, 2.866998e+002
6.883721e+002, 2.895960e+002
6.888542e+002, 2.885288e+002
6.893363e+002, 2.858991e+002
6.898184e+002, 2.856275e+002
6.903005e+002, 2.873607e+002
6.907827e+002, 2.878553e+002
6.912648e+002, 2.856919e+002
6.917469e+002, 2.830047e+002
6.922290e+002, 2.827256e+002
6.927111e+002, 2.840501e+002
6.931932e+002, 2.851970e+002
6.936754e+002, 2.854729e+002
6.941575e+002, 2.852904e+002
6.946396e+002, 2.844111e+002
6.951217e+002, 2.831509e+002
6.956038e+002, 2.826638e+002
6.960859e+002, 2.847064e+002
6.965681e+002, 2.856234e+002
6.970502e+002, 2.837720e+002
6.975323e+002, 2.796297e+002
6.980144e+002, 2.782073e+002
6.984965e+002, 2.800811e+002
6.989786e+002, 2.821410e+002
6.994608e+002, 2.819907e+002
6.999429e+002, 2.805032e+002
7.004250e+002, 2.818040e+002
7.009071e+002, 2.857922e+002
7.013892e+002, 2.892798e+002
7.018713e+002, 2.899138e+002
7.023535e+002, 2.887365e+002
7.028356e+002, 2.863506e+002
7.033177e+002, 2.825527e+002
7.037998e+002, 2.798349e+002
7.042819e+002, 2.802472e+002
7.047640e+002, 2.813918e+002
7.052462e+002, 2.812844e+002
7.057283e+002, 2.786161e+002
7.062104e+002, 2.773640e+002
7.066925e+002, 2.778857e+002
7.071746e+002, 2.793632e+002
7.076567e+002, 2.812396e+002
7.081389e+002, 2.835510e+002
7.086210e+002, 2.848973e+002
7.091031e+002, 2.850908e+002
7.095852e+002, 2.842498e+002
7.100673e+002, 2.817003e+002
7.105494e+002, 2.782676e+002
7.110316e+002, 2.759489e+002
7.115137e+002, 2.757972e+002
7.119958e+002, 2.763987e+002
7.124779e+002, 2.769649e+002
7.129600e+002, 2.776213e+002
7.134421e+002, 2.785873e+002
7.139243e+002, 2.809498e+002
7.144064e+002, 2.824171e+002
7.148885e+002, 2.821149e+002
7.153706e+002, 2.806354e+002
7.158527e+002, 2.799241e+002
7.163348e+002, 2.803457e+002
7.168170e+002, 2.802134e+002
7.172991e+002, 2.785539e+002
7.177812e+002, 2.761076e+002
7.182633e+002, 2.753911e+002
7.187454e+002, 2.762903e+002
7.192275e+002, 2.776804e+002
7.197097e+002, 2.792633e+002
7.201918e+002, 2.807702e+002
7.206739e+002, 2.822586e+002
7.211560e+002, 2.835833e+002
7.216381e+002, 2.837545e+002
7.221202e+002, 2.804794e+002
7.226024e+002, 2.774686e+002
7.230845e+002, 2.772123e+002
7.235666e+002, 2.803242e+002
7.240487e+002, 2.819264e+002
7.245308e+002, 2.813662e+002
7.250129e+002, 2.803416e+002
7.254951e+002, 2.797232e+002
7.259772e+002, 2.795022e+002
7.264593e+002, 2.801259e+002
7.269414e+002, 2.817236e+002
7.274235e+002, 2.832090e+002
7.279056e+002, 2.832824e+002
7.283878e+002, 2.825977e+002
7.288699e+002, 2.825851e+002
7.293520e+002, 2.836112e+002
7.298341e+002, 2.841440e+002
7.303162e+002, 2.826429e+002
7.307983e+002, 2.804513e+002
7.312805e+002, 2.787963e+002
7.317626e+002, 2.777008e+002
7.322447e+002, 2.775511e+002
7.327268e+002, 2.785824e+002
7.332089e+002, 2.803437e+002
7.336910e+002, 2.825375e+002
7.341732e+002, 2.853886e+002
7.346553e+002, 2.875905e+002
7.351374e+002, 2.890559e+002
7.356195e+002, 2.895898e+002
7.361016e+002, 2.882121e+002
7.365837e+002, 2.855344e+002
7.370659e+002, 2.837059e+002
7.375480e+002, 2.835350e+002
7.380301e+002, 2.841011e+002
7.385122e+002, 2.847830e+002
7.389943e+002, 2.856128e+002
7.394764e+002, 2.866448e+002
7.399586e+002, 2.882453e+002
7.404407e+002, 2.896542e+002
7.409228e+002, 2.909189e+002
7.414049e+002, 2.918386e+002
7.418870e+002, 2.917338e+002
7.423691e+002, 2.900692e+002
7.428513e+002, 2.890699e+002
7.433334e+002, 2.895372e+002
7.438155e+002, 2.908677e+002
7.442976e+002, 2.915197e+002
7.447797e+002, 2.915396e+002
7.452618e+002, 2.912947e+002
7.457440e+002, 2.907744e+002
7.462261e+002, 2.902250e+002
7.467082e+002, 2.899879e+002
7.471903e+002, 2.899659e+002
7.476724e+002, 2.897957e+002
7.481545e+002, 2.887289e+002
7.486367e+002, 2.880530e+002
7.491188e+002, 2.888989e+002
7.496009e+002, 2.910389e+002
7.500830e+002, 2.912274e+002
7.505651e+002, 2.882467e+002
7.510472e+002, 2.858742e+002
7.515294e+002, 2.860633e+002
7.520115e+002, 2.883647e+002
7.524936e+002, 2.893725e+002
7.529757e+002, 2.891048e+002
7.534578e+002, 2.895427e+002
7.539399e+002, 2.935187e+002
7.544221e+002, 2.982770e+002
7.549042e+002, 2.995915e+002
7.553863e+002, 2.974748e+002
7.558684e+002, 2.953272e+002
7.563505e+002, 2.945984e+002
7.568326e+002, 2.945316e+002
7.573148e+002, 2.946689e+002
7.577969e+002, 2.949398e+002
7.582790e+002, 2.957213e+002
7.587611e+002, 2.972646e+002
7.592432e+002, 2.989257e+002
7.597253e+002, 3.005180e+002
7.602075e+002, 3.020532e+002
7.606896e+002, 3.020690e+002
7.611717e+002, 3.003607e+002
7.616538e+002, 2.990778e+002
7.621359e+002, 3.009094e+002
7.626180e+002, 3.041075e+002
7.631002e+002, 3.057986e+002
7.635823e+002, 3.055201e+002
7.640644e+002, 3.048942e+002
7.645465e+002, 3.042166e+002
7.650286e+002, 3.039100e+002
7.655107e+002, 3.044413e+002
7.659929e+002, 3.065123e+002
7.664750e+002, 3.077849e+002
7.669571e+002, 3.081057e+002
7.674392e+002, 3.078474e+002
7.679213e+002, 3.071724e+002
7.684034e+002, 3.060674e+002
7.688856e+002, 3.053585e+002
7.693677e+002, 3.051427e+002
7.698498e+002, 3.051564e+002
7.703319e+002, 3.050443e+002
7.708140e+002, 3.049846e+002
7.712961e+002, 3.054155e+002
7.717783e+002, 3.066560e+002
7.722604e+002, 3.075749e+002
7.727425e+002, 3.071854e+002
7.732246e+002, 3.063697e+002
7.737067e+002, 3.060325e+002
7.741888e+002, 3.061484e+002
7.746710e+002, 3.070957e+002
7.751531e+002, 3.095950e+002
7.756352e+002, 3.120775e+002
7.761173e+002, 3.125355e+002
7.765994e+002, 3.109657e+002
7.770815e+002, 3.083902e+002
7.775637e+002, 3.043678e+002
7.780458e+002, 3.016365e+002
7.785279e+002, 3.053099e+002
7.790100e+002, 3.122448e+002
7.794921e+002, 3.166483e+002
7.799742e+002, 3.158529e+002
7.804564e+002, 3.142499e+002
7.809385e+002, 3.126451e+002
7.814206e+002, 3.117968e+002
7.819027e+002, 3.129601e+002
7.823848e+002, 3.183031e+002
7.828669e+002, 3.215941e+002
7.833491e+002, 3.219342e+002
7.838312e+002, 3.205559e+002
7.843133e+002, 3.188180e+002
7.847954e+002, 3.168145e+002
7.852775e+002, 3.166910e+002
7.857596e+002, 3.196190e+002
7.862418e+002, 3.227719e+002
7.867239e+002, 3.222387e+002
7.872060e+002, 3.195184e+002
7.876881e+002, 3.172765e+002
7.881702e+002, 3.160559e+002
7.886523e+002, 3.160532e+002
7.891345e+002, 3.185524e+002
7.896166e+002, 3.219832e+002
7.900987e+002, 3.236371e+002
7.905808e+002, 3.224711e+002
7.910629e+002, 3.217674e+002
7.915450e+002, 3.221381e+002
7.920272e+002, 3.229545e+002
7.925093e+002, 3.229276e+002
7.929914e+002, 3.221793e+002
7.934735e+002, 3.215881e+002
7.939556e+002, 3.212417e+002
7.944377e+002, 3.214677e+002
7.949199e+002, 3.233283e+002
7.954020e+002, 3.258947e+002
7.958841e+002, 3.274319e+002
7.963662e+002, 3.267125e+002
7.968483e+002, 3.256424e+002
7.973304e+002, 3.242984e+002
7.978126e+002, 3.230046e+002
7.982947e+002, 3.222402e+002
7.987768e+002, 3.217845e+002
7.992589e+002, 3.227437e+002
7.997410e+002, 3.258622e+002
8.002231e+002, 3.296092e+002
8.007053e+002, 3.308443e+002
8.011874e+002, 3.301267e+002
8.016695e+002, 3.297987e+002
8.021516e+002, 3.309005e+002
8.026337e+002, 3.322989e+002
8.031158e+002, 3.337982e+002
8.035980e+002, 3.347687e+002
8.040801e+002, 3.341442e+002
8.045622e+002, 3.289672e+002
8.050443e+002, 3.255142e+002
8.055264e+002, 3.247921e+002
8.060085e+002, 3.262540e+002
8.064907e+002, 3.296540e+002
8.069728e+002, 3.356911e+002
8.074549e+002, 3.390762e+002
8.079370e+002, 3.380657e+002
8.084191e+002, 3.351135e+002
8.089012e+002, 3.337412e+002
8.093834e+002, 3.336984e+002
8.098655e+002, 3.343608e+002
8.103476e+002, 3.358484e+002
8.108297e+002, 3.374679e+002
8.113118e+002, 3.394042e+002
8.117939e+002, 3.410481e+002
8.122761e+002, 3.412685e+002
8.127582e+002, 3.375064e+002
8.132403e+002, 3.361825e+002
8.137224e+002, 3.392014e+002
8.142045e+002, 3.438353e+002
8.146866e+002, 3.444359e+002
8.151688e+002, 3.411098e+002
8.156509e+002, 3.395394e+002
8.161330e+002, 3.416199e+002
8.166151e+002, 3.447711e+002
8.170972e+002, 3.460144e+002
8.175793e+002, 3.458948e+002
8.180615e+002, 3.454348e+002
8.185436e+002, 3.448422e+002
8.190257e+002, 3.441558e+002
8.195078e+002, 3.430933e+002
8.199899e+002, 3.420602e+002
8.204720e+002, 3.416555e+002
8.209542e+002, 3.419880e+002
8.214363e+002, 3.427701e+002
8.219184e+002, 3.442444e+002
8.224005e+002, 3.456600e+002
8.228826e+002, 3.452170e+002
8.233647e+002, 3.435195e+002
8.238469e+002, 3.435067e+002
8.243290e+002, 3.465400e+002
8.248111e+002, 3.496786e+002
8.252932e+002, 3.501348e+002
8.257753e+002, 3.492509e+002
8.262574e+002, 3.488594e+002
8.267396e+002, 3.502211e+002
8.272217e+002, 3.509008e+002
8.277038e+002, 3.500175e+002
8.281859e+002, 3.489245e+002
8.286681e+002, 3.493260e+002
8.291502e+002, 3.513856e+002
8.296323e+002, 3.536669e+002
8.301144e+002, 3.561835e+002
8.305966e+002, 3.581266e+002
8.310787e+002, 3.581812e+002
8.315608e+002, 3.570390e+002
8.320429e+002, 3.558659e+002
8.325250e+002, 3.546049e+002
8.330071e+002, 3.543973e+002
8.334893e+002, 3.569099e+002
8.339714e+002, 3.601784e+002
8.344535e+002, 3.621113e+002
8.349356e+002, 3.618665e+002
8.354177e+002, 3.618457e+002
8.358998e+002, 3.618354e+002
8.363820e+002, 3.624617e+002
8.368641e+002, 3.654373e+002
8.373462e+002, 3.700740e+002
8.378283e+002, 3.710701e+002
8.383104e+002, 3.674420e+002
8.387925e+002, 3.638502e+002
8.392747e+002, 3.652119e+002
8.397568e+002, 3.683477e+002
8.402389e+002, 3.695143e+002
8.407210e+002, 3.672529e+002
8.412031e+002, 3.659897e+002
8.416852e+002, 3.670674e+002
8.421674e+002, 3.689955e+002
8.426495e+002, 3.711161e+002
8.431316e+002, 3.736099e+002
8.436137e+002, 3.745984e+002
8.440958e+002, 3.737692e+002
8.445779e+002, 3.732866e+002
8.450601e+002, 3.762683e+002
8.455422e+002, 3.805521e+002
8.460243e+002, 3.815560e+002
8.465064e+002, 3.788778e+002
8.469885e+002, 3.771304e+002
8.474706e+002, 3.803589e+002
8.479528e+002, 3.840769e+002
8.484349e+002, 3.849086e+002
8.489170e+002, 3.821994e+002
8.493991e+002, 3.816683e+002
8.498812e+002, 3.841710e+002
8.503633e+002, 3.868209e+002
8.508455e+002, 3.876159e+002
8.513276e+002, 3.870268e+002
8.518097e+002, 3.875463e+002
8.522918e+002, 3.891367e+002
8.527739e+002, 3.913183e+002
8.532560e+002, 3.946680e+002
8.537382e+002, 3.977742e+002
8.542203e+002, 3.994413e+002
8.547024e+002, 3.996787e+002
8.551845e+002, 3.994342e+002
8.556666e+002, 3.977213e+002
8.561487e+002, 3.970355e+002
8.566309e+002, 3.987032e+002
8.571130e+002, 4.020797e+002
8.575951e+002, 4.034695e+002
8.580772e+002, 4.028245e+002
8.585593e+002, 4.022332e+002
8.590414e+002, 4.025520e+002
8.595236e+002, 4.036718e+002
8.600057e+002, 4.057287e+002
8.604878e+002, 4.084911e+002
8.609699e+002, 4.112003e+002
8.614520e+002, 4.138783e+002
8.619341e+002, 4.161261e+002
8.624163e+002, 4.174164e+002
8.628984e+002, 4.182272e+002
8.633805e+002, 4.198884e+002
8.638626e+002, 4.227971e+002
8.643447e+002, 4.249833e+002
8.648268e+002, 4.257185e+002
8.653090e+002, 4.258388e+002
8.657911e+002, 4.268556e+002
8.662732e+002, 4.285517e+002
8.667553e+002, 4.302051e+002
8.672374e+002, 4.308972e+002
8.677195e+002, 4.324957e+002
8.682017e+002, 4.373995e+002
8.686838e+002, 4.434920e+002
8.691659e+002, 4.470814e+002
8.696480e+002, 4.461148e+002
8.701301e+002, 4.465038e+002
8.706122e+002, 4.492672e+002
8.710944e+002, 4.527013e+002
8.715765e+002, 4.540400e+002
8.720586e+002, 4.537524e+002
8.725407e+002, 4.546856e+002
8.730228e+002, 4.575895e+002
8.735049e+002, 4.606685e+002
8.739871e+002, 4.617328e+002
8.744692e+002, 4.624525e+002
8.749513e+002, 4.648497e+002
8.754334e+002, 4.702688e+002
8.759155e+002, 4.750785e+002
8.763976e+002, 4.791952e+002
8.768798e+002, 4.824025e+002
8.773619e+002, 4.840160e+002
8.778440e+002, 4.839226e+002
8.783261e+002, 4.862627e+002
8.788082e+002, 4.913994e+002
8.792903e+002, 4.962296e+002
8.797725e+002, 4.969765e+002
8.802546e+002, 4.965211e+002
8.807367e+002, 4.987195e+002
8.812188e+002, 5.039731e+002
8.817009e+002, 5.091431e+002
8.821830e+002, 5.132733e+002
8.826652e+002, 5.169287e+002
8.831473e+002, 5.201484e+002
8.836294e+002, 5.229823e+002
8.841115e+002, 5.268465e+002
8.845936e+002, 5.319723e+002
8.850757e+002, 5.365527e+002
8.855579e+002, 5.380681e+002
8.860400e+002, 5.390875e+002
8.865221e+002, 5.451922e+002
8.870042e+002, 5.552850e+002
8.874863e+002, 5.650048e+002
8.879684e+002, 5.736832e+002
8.884506e+002, 5.800653e+002
8.889327e+002, 5.818761e+002
8.894148e+002, 5.809312e+002
8.898969e+002, 5.832479e+002
8.903790e+002, 5.896557e+002
8.908611e+002, 5.963741e+002
8.913433e+002, 6.024310e+002
8.918254e+002, 6.083124e+002
8.923075e+002, 6.154276e+002
8.927896e+002, 6.232982e+002
8.932717e+002, 6.301474e+002
8.937538e+002, 6.335419e+002
8.942360e+002, 6.388098e+002
8.947181e+002, 6.510402e+002
8.952002e+002, 6.660355e+002
8.956823e+002, 6.773363e+002
8.961644e+002, 6.819380e+002
8.966465e+002, 6.890007e+002
8.971287e+002, 6.995233e+002
8.976108e+002, 7.116008e+002
8.980929e+002, 7.228399e+002
8.985750e+002, 7.334860e+002
8.990571e+002, 7.443940e+002
8.995392e+002, 7.557845e+002
9.000214e+002, 7.674006e+002
9.005035e+002, 7.788102e+002
9.009856e+002, 7.906334e+002
9.014677e+002, 8.037131e+002
9.019498e+002, 8.182765e+002
9.024319e+002, 8.328524e+002
9.029141e+002, 8.470039e+002
9.033962e+002, 8.620721e+002
9.038783e+002, 8.794875e+002
9.043604e+002, 8.988556e+002
9.048425e+002, 9.174025e+002
9.053246e+002, 9.354232e+002
9.058068e+002, 9.540255e+002
9.062889e+002, 9.732316e+002
9.067710e+002, 9.941377e+002
9.072531e+002, 1.019350e+003
9.077352e+002, 1.048015e+003
9.082173e+002, 1.073554e+003
9.086995e+002, 1.091483e+003
9.091816e+002, 1.112054e+003
9.096637e+002, 1.137928e+003
9.101458e+002, 1.168060e+003
9.106279e+002, 1.200330e+003
9.111100e+002, 1.234302e+003
9.115922e+002, 1.265599e+003
9.120743e+002, 1.291142e+003
9.125564e+002, 1.316014e+003
9.130385e+002, 1.344533e+003
9.135206e+002, 1.375916e+003
9.140027e+002, 1.409298e+003
9.144849e+002, 1.447021e+003
9.149670e+002, 1.483099e+003
9.154491e+002, 1.516414e+003
9.159312e+002, 1.548650e+003
9.164133e+002, 1.581821e+003
9.168954e+002, 1.616027e+003
9.173776e+002, 1.651034e+003
9.178597e+002, 1.687296e+003
9.183418e+002, 1.722016e+003
9.188239e+002, 1.752620e+003
9.193060e+002, 1.780206e+003
9.197881e+002, 1.805656e+003
9.202703e+002, 1.828853e+003
9.207524e+002, 1.851702e+003
9.212345e+002, 1.876674e+003
9.217166e+002, 1.898602e+003
9.221987e+002, 1.914521e+003
9.226808e+002, 1.924604e+003
9.231630e+002, 1.931896e+003
9.236451e+002, 1.936424e+003
9.241272e+002, 1.937264e+003
9.246093e+002, 1.933036e+003
9.250914e+002, 1.925510e+003
9.255735e+002, 1.917572e+003
9.260557e+002, 1.908311e+003
9.265378e+002, 1.893077e+003
9.270199e+002, 1.866212e+003
9.275020e+002, 1.838529e+003
9.279841e+002, 1.812898e+003
9.284662e+002, 1.787321e+003
9.289484e+002, 1.755446e+003
9.294305e+002, 1.717536e+003
9.299126e+002, 1.680549e+003
9.303947e+002, 1.647061e+003
9.308768e+002, 1.614891e+003
9.313589e+002, 1.583634e+003
9.318411e+002, 1.551906e+003
9.323232e+002, 1.518157e+003
9.328053e+002, 1.481031e+003
9.332874e+002, 1.443403e+003
9.337695e+002, 1.405390e+003
9.342516e+002, 1.367608e+003
9.347338e+002, 1.330002e+003
9.352159e+002, 1.292499e+003
9.356980e+002, 1.263282e+003
9.361801e+002, 1.243276e+003
9.366622e+002, 1.222648e+003
9.371443e+002, 1.191399e+003
9.376265e+002, 1.156527e+003
9.381086e+002, 1.124769e+003
9.385907e+002, 1.096500e+003
9.390728e+002, 1.070598e+003
9.395549e+002, 1.047917e+003
9.400370e+002, 1.026226e+003
9.405192e+002, 1.004731e+003
9.410013e+002, 9.837601e+002
9.414834e+002, 9.652964e+002
9.419655e+002, 9.490159e+002
9.424476e+002, 9.331507e+002
9.429297e+002, 9.174532e+002
9.434119e+002, 9.011190e+002
9.438940e+002, 8.823307e+002
9.443761e+002, 8.625737e+002
9.448582e+002, 8.448903e+002
9.453403e+002, 8.296582e+002
9.458224e+002, 8.173491e+002
9.463046e+002, 8.094653e+002
9.467867e+002, 8.027459e+002
9.472688e+002, 7.915718e+002
9.477509e+002, 7.770263e+002
9.482330e+002, 7.662815e+002
9.487151e+002, 7.608094e+002
9.491973e+002, 7.562944e+002
9.496794e+002, 7.499440e+002
9.501615e+002, 7.424269e+002
9.506436e+002, 7.338544e+002
9.511257e+002, 7.237225e+002
9.516078e+002, 7.159604e+002
9.520900e+002, 7.117152e+002
9.525721e+002, 7.075645e+002
9.530542e+002, 7.013495e+002
9.535363e+002, 6.936856e+002
9.540184e+002, 6.872108e+002
9.545005e+002, 6.818091e+002
9.549827e+002, 6.763739e+002
9.554648e+002, 6.700338e+002
9.559469e+002, 6.637443e+002
9.564290e+002, 6.579125e+002
9.569111e+002, 6.525940e+002
9.573932e+002, 6.478843e+002
9.578754e+002, 6.435613e+002
9.583575e+002, 6.404086e+002
9.588396e+002, 6.389294e+002
9.593217e+002, 6.379614e+002
9.598038e+002, 6.359502e+002
9.602859e+002, 6.329691e+002
9.607681e+002, 6.289753e+002
9.612502e+002, 6.235556e+002
9.617323e+002, 6.186970e+002
9.622144e+002, 6.165565e+002
9.626965e+002, 6.146773e+002
9.631786e+002, 6.105286e+002
9.636608e+002, 6.032618e+002
9.641429e+002, 5.990710e+002
9.646250e+002, 5.984236e+002
9.651071e+002, 5.988982e+002
9.655892e+002, 5.999635e+002
9.660714e+002, 6.005204e+002
9.665535e+002, 5.973724e+002
9.670356e+002, 5.913844e+002
9.675177e+002, 5.869122e+002
9.679998e+002, 5.870508e+002
9.684819e+002, 5.878932e+002
9.689641e+002, 5.890102e+002
9.694462e+002, 5.894796e+002
9.699283e+002, 5.863926e+002
9.704104e+002, 5.793128e+002
9.708925e+002, 5.736576e+002
9.713746e+002, 5.709022e+002
9.718568e+002, 5.691902e+002
9.723389e+002, 5.657847e+002
9.728210e+002, 5.619987e+002
9.733031e+002, 5.599989e+002
9.737852e+002, 5.611324e+002
9.742673e+002, 5.616368e+002
9.747495e+002, 5.603427e+002
9.752316e+002, 5.587142e+002
9.757137e+002, 5.576958e+002
9.761958e+002, 5.572749e+002
9.766779e+002, 5.569022e+002
9.771600e+002, 5.565678e+002
9.776422e+002, 5.558909e+002
9.781243e+002, 5.543054e+002
9.786064e+002, 5.524810e+002
9.790885e+002, 5.504855e+002
9.795706e+002, 5.486560e+002
9.800527e+002, 5.484924e+002
9.805349e+002, 5.512354e+002
9.810170e+002, 5.539731e+002
9.814991e+002, 5.563965e+002
9.819812e+002, 5.582368e+002
9.824633e+002, 5.592963e+002
9.829454e+002, 5.593690e+002
9.834276e+002, 5.571854e+002
9.839097e+002, 5.516338e+002
9.843918e+002, 5.464675e+002
9.848739e+002, 5.438372e+002
9.853560e+002, 5.430236e+002
9.858381e+002, 5.437894e+002
9.863203e+002, 5.468190e+002
9.868024e+002, 5.477496e+002
9.872845e+002, 5.459462e+002
9.877666e+002, 5.442086e+002
9.882487e+002, 5.456547e+002
9.887308e+002, 5.482174e+002
9.892130e+002, 5.460058e+002
9.896951e+002, 5.401211e+002
9.901772e+002, 5.362078e+002
9.906593e+002, 5.396471e+002
9.911414e+002, 5.425483e+002
9.916235e+002, 5.415032e+002
9.921057e+002, 5.380096e+002
9.925878e+002, 5.345490e+002
9.930699e+002, 5.309227e+002
9.935520e+002, 5.298715e+002
9.940341e+002, 5.325162e+002
9.945162e+002, 5.356395e+002
9.949984e+002, 5.351901e+002
9.954805e+002, 5.330039e+002
9.959626e+002, 5.316061e+002
9.964447e+002, 5.316973e+002
9.969268e+002, 5.315646e+002
9.974089e+002, 5.311494e+002
9.978911e+002, 5.301945e+002
9.983732e+002, 5.283918e+002
9.988553e+002, 5.258865e+002
9.993374e+002, 5.233026e+002
9.998195e+002, 5.207565e+002
1.000302e+003, 5.192484e+002
1.000784e+003, 5.202085e+002
1.001266e+003, 5.215798e+002
1.001748e+003, 5.223329e+002
1.002230e+003, 5.223724e+002
1.002712e+003, 5.213461e+002
1.003194e+003, 5.183802e+002
1.003676e+003, 5.168261e+002
1.004159e+003, 5.175670e+002
1.004641e+003, 5.186684e+002
1.005123e+003, 5.167723e+002
1.005605e+003, 5.133667e+002
1.006087e+003, 5.123510e+002
1.006569e+003, 5.146031e+002
1.007051e+003, 5.162818e+002
1.007533e+003, 5.150743e+002
1.008016e+003, 5.131622e+002
1.008498e+003, 5.114832e+002
1.008980e+003, 5.101159e+002
1.009462e+003, 5.107892e+002
1.009944e+003, 5.137064e+002
1.010426e+003, 5.153848e+002
1.010908e+003, 5.134764e+002
1.011390e+003, 5.102387e+002
1.011872e+003, 5.079626e+002
1.012355e+003, 5.064325e+002
1.012837e+003, 5.051895e+002
1.013319e+003, 5.042438e+002
1.013801e+003, 5.033470e+002
1.014283e+003, 5.022353e+002
1.014765e+003, 5.015132e+002
1.015247e+003, 5.023888e+002
1.015729e+003, 5.043897e+002
1.016211e+003, 5.043865e+002
1.016694e+003, 5.021515e+002
1.017176e+003, 5.003307e+002
1.017658e+003, 5.016030e+002
1.018140e+003, 5.031958e+002
1.018622e+003, 5.031606e+002
1.019104e+003, 5.015852e+002
1.019586e+003, 4.998817e+002
1.020068e+003, 4.977626e+002
1.020551e+003, 4.968215e+002
1.021033e+003, 4.979386e+002
1.021515e+003, 4.998018e+002
1.021997e+003, 5.006288e+002
1.022479e+003, 5.005255e+002
1.022961e+003, 4.995648e+002
1.023443e+003, 4.971285e+002
1.023925e+003, 4.952354e+002
1.024407e+003, 4.944245e+002
1.024890e+003, 4.942697e+002
1.025372e+003, 4.950460e+002
1.025854e+003, 4.967397e+002
1.026336e+003, 4.950510e+002
1.026818e+003, 4.900720e+002
1.027300e+003, 4.864801e+002
1.027782e+003, 4.893261e+002
1.028264e+003, 4.931312e+002
1.028746e+003, 4.929716e+002
1.029229e+003, 4.899467e+002
1.029711e+003, 4.889993e+002
1.030193e+003, 4.917456e+002
1.030675e+003, 4.929784e+002
1.031157e+003, 4.913342e+002
1.031639e+003, 4.889641e+002
1.032121e+003, 4.894889e+002
1.032603e+003, 4.915717e+002
1.033086e+003, 4.919576e+002
1.033568e+003, 4.898731e+002
1.034050e+003, 4.878594e+002
1.034532e+003, 4.871489e+002
1.035014e+003, 4.867141e+002
1.035496e+003, 4.858367e+002
1.035978e+003, 4.846414e+002
1.036460e+003, 4.847870e+002
1.036943e+003, 4.862399e+002
1.037425e+003, 4.870725e+002
1.037907e+003, 4.856131e+002
1.038389e+003, 4.840687e+002
1.038871e+003, 4.856289e+002
1.039353e+003, 4.883170e+002
1.039835e+003, 4.885379e+002
1.040317e+003, 4.831486e+002
1.040799e+003, 4.802409e+002
1.041281e+003, 4.807276e+002
1.041764e+003, 4.820095e+002
1.042246e+003, 4.812414e+002
1.042728e+003, 4.793098e+002
1.043210e+003, 4.786930e+002
1.043692e+003, 4.794282e+002
1.044174e+003, 4.801482e+002
1.044656e+003, 4.806392e+002
1.045138e+003, 4.803983e+002
1.045621e+003, 4.786610e+002
1.046103e+003, 4.762411e+002
1.046585e+003, 4.758217e+002
1.047067e+003, 4.774675e+002
1.047549e+003, 4.773469e+002
1.048031e+003, 4.740025e+002
1.048513e+003, 4.704815e+002
1.048995e+003, 4.706924e+002
1.049478e+003, 4.720455e+002
1.049960e+003, 4.714618e+002
1.050442e+003, 4.677271e+002
1.050924e+003, 4.646878e+002
1.051406e+003, 4.618718e+002
1.051888e+003, 4.610352e+002
1.052370e+003, 4.643915e+002
1.052852e+003, 4.697617e+002
1.053334e+003, 4.713328e+002
1.053817e+003, 4.698975e+002
1.054299e+003, 4.681117e+002
1.054781e+003, 4.666249e+002
1.055263e+003, 4.655956e+002
1.055745e+003, 4.648123e+002
1.056227e+003, 4.646690e+002
1.056709e+003, 4.661437e+002
1.057191e+003, 4.692780e+002
1.057673e+003, 4.705538e+002
1.058156e+003, 4.696547e+002
1.058638e+003, 4.681681e+002
1.059120e+003, 4.674171e+002
1.059602e+003, 4.666132e+002
1.060084e+003, 4.647322e+002
1.060566e+003, 4.619593e+002
1.061048e+003, 4.604186e+002
1.061530e+003, 4.604760e+002
1.062013e+003, 4.609697e+002
1.062495e+003, 4.619175e+002
1.062977e+003, 4.625410e+002
1.063459e+003, 4.605508e+002
1.063941e+003, 4.575710e+002
1.064423e+003, 4.571834e+002
1.064905e+003, 4.612892e+002
1.065387e+003, 4.638037e+002
1.065870e+003, 4.613627e+002
1.066352e+003, 4.583423e+002
1.066834e+003, 4.571494e+002
1.067316e+003, 4.573798e+002
1.067798e+003, 4.551420e+002
1.068280e+003, 4.508332e+002
1.068762e+003, 4.480615e+002
1.069244e+003, 4.495435e+002
1.069726e+003, 4.522302e+002
1.070208e+003, 4.552960e+002
1.070691e+003, 4.577995e+002
1.071173e+003, 4.580789e+002
1.071655e+003, 4.553788e+002
1.072137e+003, 4.530267e+002
1.072619e+003, 4.509861e+002
1.073101e+003, 4.502896e+002
1.073583e+003, 4.539691e+002
1.074065e+003, 4.582767e+002
1.074548e+003, 4.573858e+002
1.075030e+003, 4.518005e+002
1.075512e+003, 4.476746e+002
1.075994e+003, 4.471859e+002
1.076476e+003, 4.473537e+002
1.076958e+003, 4.477005e+002
1.077440e+003, 4.482553e+002
1.077922e+003, 4.494598e+002
1.078405e+003, 4.509207e+002
1.078887e+003, 4.512406e+002
1.079369e+003, 4.499952e+002
1.079851e+003, 4.485534e+002
1.080333e+003, 4.467708e+002
1.080815e+003, 4.459256e+002
1.081297e+003, 4.473372e+002
1.081779e+003, 4.506069e+002
1.082261e+003, 4.510707e+002
1.082744e+003, 4.487588e+002
1.083226e+003, 4.466240e+002
1.083708e+003, 4.460023e+002
1.084190e+003, 4.460277e+002
1.084672e+003, 4.467125e+002
1.085154e+003, 4.472024e+002
1.085636e+003, 4.459917e+002
1.086118e+003, 4.411536e+002
1.086601e+003, 4.394982e+002
1.087083e+003, 4.420151e+002
1.087565e+003, 4.441816e+002
1.088047e+003, 4.406636e+002
1.088529e+003, 4.352688e+002
1.089011e+003, 4.357120e+002
1.089493e+003, 4.406280e+002
1.089975e+003, 4.437953e+002
1.090458e+003, 4.407173e+002
1.090940e+003, 4.387914e+002
1.091422e+003, 4.401721e+002
1.091904e+003, 4.422734e+002
1.092386e+003, 4.405485e+002
1.092868e+003, 4.360740e+002
1.093350e+003, 4.336741e+002
1.093832e+003, 4.339907e+002
1.094314e+003, 4.349376e+002
1.094797e+003, 4.360967e+002
1.095279e+003, 4.366483e+002
1.095761e+003, 4.359174e+002
1.096243e+003, 4.341955e+002
1.096725e+003, 4.321796e+002
1.097207e+003, 4.298333e+002
1.097689e+003, 4.290164e+002
1.098171e+003, 4.307869e+002
1.098653e+003, 4.328260e+002
1.099136e+003, 4.328427e+002
1.099618e+003, 4.318334e+002
1.100100e+003, 4.309796e+002
1.100582e+003, 4.306255e+002
1.101064e+003, 4.293294e+002
1.101546e+003, 4.268777e+002
1.102028e+003, 4.241646e+002
1.102510e+003, 4.210497e+002
1.102993e+003, 4.184796e+002
1.103475e+003, 4.187249e+002
1.103957e+003, 4.207577e+002
1.104439e+003, 4.222633e+002
1.104921e+003, 4.214561e+002
1.105403e+003, 4.217451e+002
1.105885e+003, 4.245584e+002
1.106367e+003, 4.267236e+002
1.106849e+003, 4.242283e+002
1.107332e+003, 4.185219e+002
1.107814e+003, 4.156290e+002
1.108296e+003, 4.154285e+002
1.108778e+003, 4.153603e+002
1.109260e+003, 4.147701e+002
1.109742e+003, 4.131620e+002
1.110224e+003, 4.089754e+002
1.110706e+003, 4.044644e+002
1.111188e+003, 4.041530e+002
1.111671e+003, 4.078392e+002
1.112153e+003, 4.089694e+002
1.112635e+003, 4.064971e+002
1.113117e+003, 4.034360e+002
1.113599e+003, 4.015803e+002
1.114081e+003, 4.006801e+002
1.114563e+003, 4.008460e+002
1.115045e+003, 4.019344e+002
1.115528e+003, 4.033949e+002
1.116010e+003, 4.056777e+002
1.116492e+003, 4.050924e+002
1.116974e+003, 3.994626e+002
1.117456e+003, 3.934214e+002
1.117938e+003, 3.935361e+002
1.118420e+003, 3.963909e+002
1.118902e+003, 3.973764e+002
1.119385e+003, 3.949084e+002
1.119867e+003, 3.941867e+002
1.120349e+003, 3.964742e+002
1.120831e+003, 3.975157e+002
1.121313e+003, 3.942053e+002
1.121795e+003, 3.890159e+002
1.122277e+003, 3.873069e+002
1.122759e+003, 3.879703e+002
1.123241e+003, 3.883801e+002
1.123724e+003, 3.876966e+002
1.124206e+003, 3.865956e+002
1.124688e+003, 3.851069e+002
1.125170e+003, 3.834340e+002
1.125652e+003, 3.814186e+002
1.126134e+003, 3.793386e+002
1.126616e+003, 3.794648e+002
1.127098e+003, 3.812664e+002
1.127580e+003, 3.813760e+002
1.128063e+003, 3.756527e+002
1.128545e+003, 3.706136e+002
1.129027e+003, 3.696422e+002
1.129509e+003, 3.704255e+002
1.129991e+003, 3.700668e+002
1.130473e+003, 3.686003e+002
1.130955e+003, 3.673638e+002
1.131437e+003, 3.664520e+002
1.131920e+003, 3.664431e+002
1.132402e+003, 3.691630e+002
1.132884e+003, 3.716286e+002
1.133366e+003, 3.714954e+002
1.133848e+003, 3.693339e+002
1.134330e+003, 3.672675e+002
1.134812e+003, 3.652414e+002
1.135294e+003, 3.638556e+002
1.135776e+003, 3.633539e+002
1.136259e+003, 3.629831e+002
1.136741e+003, 3.617206e+002
1.137223e+003, 3.603419e+002
1.137705e+003, 3.597328e+002
1.138187e+003, 3.600476e+002
1.138669e+003, 3.601632e+002
1.139151e+003, 3.602568e+002
1.139633e+003, 3.593706e+002
1.140115e+003, 3.568214e+002
1.140598e+003, 3.538477e+002
1.141080e+003, 3.522505e+002
1.141562e+003, 3.514763e+002
1.142044e+003, 3.506549e+002
1.142526e+003, 3.496164e+002
1.143008e+003, 3.485555e+002
1.143490e+003, 3.476883e+002
1.143972e+003, 3.463331e+002
1.144455e+003, 3.434253e+002
1.144937e+003, 3.403023e+002
1.145419e+003, 3.407409e+002
1.145901e+003, 3.435500e+002
1.146383e+003, 3.456942e+002
1.146865e+003, 3.460924e+002
1.147347e+003, 3.455943e+002
1.147829e+003, 3.439991e+002
1.148312e+003, 3.421699e+002
1.148794e+003, 3.409344e+002
1.149276e+003, 3.400606e+002
1.149758e+003, 3.379896e+002
1.150240e+003, 3.350840e+002
1.150722e+003, 3.333109e+002
1.151204e+003, 3.347790e+002
1.151686e+003, 3.361712e+002
1.152168e+003, 3.366532e+002
1.152651e+003, 3.363113e+002
1.153133e+003, 3.348349e+002
1.153615e+003, 3.324067e+002
1.154097e+003, 3.308985e+002
1.154579e+003, 3.304327e+002
1.155061e+003, 3.304131e+002
1.155543e+003, 3.304047e+002
1.156025e+003, 3.307881e+002
1.156507e+003, 3.327496e+002
1.156990e+003, 3.348833e+002
1.157472e+003, 3.338996e+002
1.157954e+003, 3.297632e+002
1.158436e+003, 3.272048e+002
1.158918e+003, 3.268945e+002
1.159400e+003, 3.278082e+002
1.159882e+003, 3.306801e+002
1.160364e+003, 3.331034e+002
1.160847e+003, 3.326486e+002
1.161329e+003, 3.299582e+002
1.161811e+003, 3.285283e+002
1.162293e+003, 3.285032e+002
1.162775e+003, 3.282255e+002
1.163257e+003, 3.272643e+002
1.163739e+003, 3.260550e+002
1.164221e+003, 3.253393e+002
1.164703e+003, 3.243857e+002
1.165186e+003, 3.220404e+002
1.165668e+003, 3.181647e+002
1.166150e+003, 3.160380e+002
1.166632e+003, 3.159926e+002
1.167114e+003, 3.157942e+002
1.167596e+003, 3.143301e+002
1.168078e+003, 3.129893e+002
1.168560e+003, 3.141544e+002
1.169042e+003, 3.162767e+002
1.169525e+003, 3.170815e+002
1.170007e+003, 3.155741e+002
1.170489e+003, 3.155230e+002
1.170971e+003, 3.174241e+002
1.171453e+003, 3.189359e+002
1.171935e+003, 3.186332e+002
1.172417e+003, 3.174942e+002
1.172899e+003, 3.170369e+002
1.173382e+003, 3.168740e+002
1.173864e+003, 3.162763e+002
1.174346e+003, 3.143933e+002
1.174828e+003, 3.134424e+002
1.175310e+003, 3.135533e+002
1.175792e+003, 3.142701e+002
1.176274e+003, 3.159912e+002
1.176756e+003, 3.177105e+002
1.177239e+003, 3.168788e+002
1.177721e+003, 3.144930e+002
1.178203e+003, 3.131371e+002
1.178685e+003, 3.151118e+002
1.179167e+003, 3.160596e+002
1.179649e+003, 3.159792e+002
1.180131e+003, 3.143299e+002
1.180613e+003, 3.086982e+002
1.181095e+003, 3.018508e+002
1.181578e+003, 3.012219e+002
1.182060e+003, 3.055137e+002
1.182542e+003, 3.083767e+002
1.183024e+003, 3.061495e+002
1.183506e+003, 3.041002e+002
1.183988e+003, 3.029367e+002
1.184470e+003, 3.022725e+002
1.184952e+003, 3.015947e+002
1.185434e+003, 3.010736e+002
1.185917e+003, 3.014324e+002
1.186399e+003, 3.025572e+002
1.186881e+003, 3.031369e+002
1.187363e+003, 3.014111e+002
1.187845e+003, 3.007961e+002
1.188327e+003, 3.023899e+002
1.188809e+003, 3.048498e+002
1.189291e+003, 3.065238e+002
1.189774e+003, 3.073530e+002
1.190256e+003, 3.070905e+002
1.190738e+003, 3.057127e+002
1.191220e+003, 3.038133e+002
1.191702e+003, 3.004158e+002
1.192184e+003, 2.981693e+002
1.192666e+003, 2.981738e+002
1.193148e+003, 2.994171e+002
1.193630e+003, 3.001869e+002
1.194113e+003, 3.004658e+002
1.194595e+003, 3.000568e+002
1.195077e+003, 2.988813e+002
1.195559e+003, 2.977277e+002
1.196041e+003, 2.962457e+002
1.196523e+003, 2.959032e+002
1.197005e+003, 2.980087e+002
1.197487e+003, 3.009976e+002
1.197969e+003, 3.001098e+002
1.198452e+003, 2.963676e+002
1.198934e+003, 2.932375e+002
1.199416e+003, 2.913482e+002
1.199898e+003, 2.912915e+002
1.200380e+003, 2.960422e+002
1.200862e+003, 2.996216e+002
1.201344e+003, 2.983328e+002
1.201826e+003, 2.941512e+002
1.202309e+003, 2.954824e+002
1.202791e+003, 3.005261e+002
1.203273e+003, 3.014922e+002
1.203755e+003, 2.943156e+002
1.204237e+003, 2.884737e+002
1.204719e+003, 2.897374e+002
1.205201e+003, 2.922317e+002
1.205683e+003, 2.927386e+002
1.206166e+003, 2.917960e+002
1.206648e+003, 2.924271e+002
1.207130e+003, 2.940281e+002
1.207612e+003, 2.938085e+002
1.208094e+003, 2.894281e+002
1.208576e+003, 2.860109e+002
1.209058e+003, 2.860809e+002
1.209540e+003, 2.876407e+002
1.210022e+003, 2.899295e+002
1.210505e+003, 2.926973e+002
1.210987e+003, 2.944334e+002
1.211469e+003, 2.951380e+002
1.211951e+003, 2.946467e+002
1.212433e+003, 2.912767e+002
1.212915e+003, 2.893138e+002
1.213397e+003, 2.920256e+002
1.213879e+003, 2.951611e+002
1.214361e+003, 2.956736e+002
1.214844e+003, 2.938433e+002
1.215326e+003, 2.910343e+002
1.215808e+003, 2.875977e+002
1.216290e+003, 2.852463e+002
1.216772e+003, 2.857478e+002
1.217254e+003, 2.862466e+002
1.217736e+003, 2.858841e+002
1.218218e+003, 2.851816e+002
1.218701e+003, 2.844828e+002
1.219183e+003, 2.838038e+002
1.219665e+003, 2.827977e+002
1.220147e+003, 2.817530e+002
1.220629e+003, 2.821568e+002
1.221111e+003, 2.872253e+002
1.221593e+003, 2.904821e+002
1.222075e+003, 2.892876e+002
1.222557e+003, 2.866791e+002
1.223040e+003, 2.855648e+002
1.223522e+003, 2.856640e+002
1.224004e+003, 2.855262e+002
1.224486e+003, 2.852200e+002
1.224968e+003, 2.854280e+002
1.225450e+003, 2.875007e+002
1.225932e+003, 2.886768e+002
1.226414e+003, 2.878620e+002
1.226896e+003, 2.865888e+002
1.227379e+003, 2.869708e+002
1.227861e+003, 2.883558e+002
1.228343e+003, 2.883602e+002
1.228825e+003, 2.869960e+002
1.229307e+003, 2.852219e+002
1.229789e+003, 2.828065e+002
1.230271e+003, 2.809047e+002
1.230753e+003, 2.795381e+002
1.231236e+003, 2.790550e+002
1.231718e+003, 2.801538e+002
1.232200e+003, 2.824408e+002
1.232682e+003, 2.854629e+002
1.233164e+003, 2.889034e+002
1.233646e+003, 2.906701e+002
1.234128e+003, 2.879246e+002
1.234610e+003, 2.862388e+002
1.235093e+003, 2.872113e+002
1.235575e+003, 2.886647e+002
1.236057e+003, 2.869249e+002
1.236539e+003, 2.836795e+002
1.237021e+003, 2.829933e+002
1.237503e+003, 2.849446e+002
1.237985e+003, 2.867557e+002
1.238467e+003, 2.880241e+002
1.238949e+003, 2.880288e+002
1.239432e+003, 2.860433e+002
1.239914e+003, 2.840332e+002
1.240396e+003, 2.853625e+002
1.240878e+003, 2.883245e+002
1.241360e+003, 2.898459e+002
1.241842e+003, 2.897142e+002
1.242324e+003, 2.890283e+002
1.242806e+003, 2.876064e+002
1.243288e+003, 2.865883e+002
1.243771e+003, 2.863136e+002
1.244253e+003, 2.861488e+002
1.244735e+003, 2.846083e+002
1.245217e+003, 2.829714e+002
1.245699e+003, 2.837751e+002
1.246181e+003, 2.870140e+002
1.246663e+003, 2.882386e+002
1.247145e+003, 2.860342e+002
1.247628e+003, 2.850287e+002
1.248110e+003, 2.864463e+002
1.248592e+003, 2.884601e+002
1.249074e+003, 2.887899e+002
1.249556e+003, 2.883734e+002
1.250038e+003, 2.884498e+002
1.250520e+003, 2.890506e+002
1.251002e+003, 2.887748e+002
1.251484e+003, 2.872754e+002
1.251967e+003, 2.864383e+002
1.252449e+003, 2.869123e+002
1.252931e+003, 2.872444e+002
1.253413e+003, 2.848141e+002
1.253895e+003, 2.821800e+002
1.254377e+003, 2.824203e+002
1.254859e+003, 2.854230e+002
1.255341e+003, 2.870605e+002
1.255823e+003, 2.871383e+002
1.256306e+003, 2.874634e+002
1.256788e+003, 2.884269e+002
1.257270e+003, 2.898251e+002
1.257752e+003, 2.931284e+002
1.258234e+003, 2.954269e+002
1.258716e+003, 2.925600e+002
1.259198e+003, 2.861239e+002
1.259680e+003, 2.844606e+002
1.260163e+003, 2.876145e+002
1.260645e+003, 2.909328e+002
1.261127e+003, 2.936783e+002
1.261609e+003, 2.946333e+002
1.262091e+003, 2.909384e+002
1.262573e+003, 2.869656e+002
1.263055e+003, 2.856429e+002
1.263537e+003, 2.864449e+002
1.264020e+003, 2.879840e+002
1.264502e+003, 2.900798e+002
1.264984e+003, 2.913883e+002
1.265466e+003, 2.916481e+002
1.265948e+003, 2.907351e+002
1.266430e+003, 2.865148e+002
1.266912e+003, 2.834770e+002
1.267394e+003, 2.842901e+002
1.267876e+003, 2.874144e+002
1.268359e+003, 2.889251e+002
1.268841e+003, 2.890485e+002
1.269323e+003, 2.883080e+002
1.269805e+003, 2.866212e+002
1.270287e+003, 2.857771e+002
1.270769e+003, 2.873044e+002
1.271251e+003, 2.889090e+002
1.271733e+003, 2.898974e+002
1.272215e+003, 2.904482e+002
1.272698e+003, 2.909222e+002
1.273180e+003, 2.912635e+002
1.273662e+003, 2.912272e+002
1.274144e+003, 2.907004e+002
1.274626e+003, 2.905058e+002
1.275108e+003, 2.905139e+002
1.275590e+003, 2.915973e+002
1.276072e+003, 2.945963e+002
1.276555e+003, 2.976795e+002
1.277037e+003, 2.972820e+002
1.277519e+003, 2.951392e+002
1.278001e+003, 2.937995e+002
1.278483e+003, 2.937264e+002
1.278965e+003, 2.940793e+002
1.279447e+003, 2.950243e+002
1.279929e+003, 2.954533e+002
1.280411e+003, 2.949058e+002
1.280894e+003, 2.940398e+002
1.281376e+003, 2.932327e+002
1.281858e+003, 2.928383e+002
1.282340e+003, 2.936441e+002
1.282822e+003, 2.955918e+002
1.283304e+003, 2.960684e+002
1.283786e+003, 2.949500e+002
1.284268e+003, 2.935970e+002
1.284750e+003, 2.922177e+002
1.285233e+003, 2.913664e+002
1.285715e+003, 2.917151e+002
1.286197e+003, 2.926875e+002
1.286679e+003, 2.938753e+002
1.287161e+003, 2.952693e+002
1.287643e+003, 2.976064e+002
1.288125e+003, 3.006628e+002
1.288607e+003, 3.010356e+002
1.289090e+003, 2.974853e+002
1.289572e+003, 2.941146e+002
1.290054e+003, 2.935284e+002
1.290536e+003, 2.938530e+002
1.291018e+003, 2.941795e+002
1.291500e+003, 2.944763e+002
1.291982e+003, 2.946106e+002
1.292464e+003, 2.946377e+002
1.292947e+003, 2.947481e+002
1.293429e+003, 2.949719e+002
1.293911e+003, 2.953279e+002
1.294393e+003, 2.960672e+002
1.294875e+003, 2.965568e+002
1.295357e+003, 2.963907e+002
1.295839e+003, 2.961700e+002
1.296321e+003, 2.974744e+002
1.296803e+003, 2.994327e+002
1.297286e+003, 3.002386e+002
1.297768e+003, 2.995714e+002
1.298250e+003, 2.992213e+002
1.298732e+003, 2.993654e+002
1.299214e+003, 3.000274e+002
1.299696e+003, 3.014387e+002
1.300178e+003, 3.027466e+002
1.300660e+003, 3.032458e+002
##END=



