##NAMES=Bismutite
##RRUFFID=R060665
##IDEAL CHEMISTRY=Bi_2_O_2_(CO_3_)
##LOCALITY=Ecuador, Rio Grande do Norte, Brazil
##OWNER=RRUFF
##SOURCE=Michael Scott
##DESCRIPTION=Green massive, platy
##STATUS=The identification of this mineral has been confirmed by X-ray diffraction and chemical analysis
##URL=rruff.info/R060665
##MEASURED CHEMISTRY=(Bi_1.99_Sb_0.01_)O_2_(CO_3_) ; is the lighter phase. The darker phase is: (Bi_1.98_Sb_0.02_)O_2_(CO_3_) ; C not measured but estimated by difference and stoichiometry
9.059570e+001, 5.300484e+003
9.107782e+001, 5.140388e+003
9.155994e+001, 5.083717e+003
9.204205e+001, 5.205731e+003
9.252417e+001, 5.380167e+003
9.300629e+001, 5.564915e+003
9.348840e+001, 5.716250e+003
9.397052e+001, 5.797691e+003
9.445264e+001, 5.796617e+003
9.493475e+001, 5.790617e+003
9.541687e+001, 5.776272e+003
9.589898e+001, 5.757219e+003
9.638110e+001, 5.736468e+003
9.686321e+001, 5.716362e+003
9.734533e+001, 5.693996e+003
9.782745e+001, 5.658694e+003
9.830956e+001, 5.627422e+003
9.879168e+001, 5.600823e+003
9.927380e+001, 5.578617e+003
9.975591e+001, 5.560655e+003
1.002380e+002, 5.545561e+003
1.007201e+002, 5.531155e+003
1.012023e+002, 5.515374e+003
1.016844e+002, 5.499305e+003
1.021665e+002, 5.486530e+003
1.026486e+002, 5.477257e+003
1.031307e+002, 5.470130e+003
1.036128e+002, 5.463722e+003
1.040950e+002, 5.457491e+003
1.045771e+002, 5.452914e+003
1.050592e+002, 5.448638e+003
1.055413e+002, 5.445097e+003
1.060234e+002, 5.443939e+003
1.065055e+002, 5.446679e+003
1.069877e+002, 5.452203e+003
1.074698e+002, 5.456333e+003
1.079519e+002, 5.456955e+003
1.084340e+002, 5.458132e+003
1.089161e+002, 5.462001e+003
1.093982e+002, 5.467671e+003
1.098804e+002, 5.472981e+003
1.103625e+002, 5.475696e+003
1.108446e+002, 5.474987e+003
1.113267e+002, 5.475544e+003
1.118088e+002, 5.477530e+003
1.122909e+002, 5.480412e+003
1.127731e+002, 5.483852e+003
1.132552e+002, 5.487820e+003
1.137373e+002, 5.492612e+003
1.142194e+002, 5.498582e+003
1.147015e+002, 5.505752e+003
1.151836e+002, 5.514525e+003
1.156658e+002, 5.527343e+003
1.161479e+002, 5.540617e+003
1.166300e+002, 5.550227e+003
1.171121e+002, 5.554563e+003
1.175942e+002, 5.556276e+003
1.180763e+002, 5.561819e+003
1.185584e+002, 5.572724e+003
1.190406e+002, 5.583209e+003
1.195227e+002, 5.589932e+003
1.200048e+002, 5.594633e+003
1.204869e+002, 5.602157e+003
1.209690e+002, 5.614555e+003
1.214511e+002, 5.631586e+003
1.219333e+002, 5.651416e+003
1.224154e+002, 5.675255e+003
1.228975e+002, 5.699675e+003
1.233796e+002, 5.720716e+003
1.238617e+002, 5.737835e+003
1.243438e+002, 5.756324e+003
1.248260e+002, 5.780592e+003
1.253081e+002, 5.806734e+003
1.257902e+002, 5.831037e+003
1.262723e+002, 5.850992e+003
1.267544e+002, 5.869601e+003
1.272365e+002, 5.893615e+003
1.277187e+002, 5.925786e+003
1.282008e+002, 5.959442e+003
1.286829e+002, 5.991637e+003
1.291650e+002, 6.024084e+003
1.296471e+002, 6.059009e+003
1.301292e+002, 6.098037e+003
1.306114e+002, 6.140952e+003
1.310935e+002, 6.184280e+003
1.315756e+002, 6.226378e+003
1.320577e+002, 6.270966e+003
1.325398e+002, 6.318843e+003
1.330219e+002, 6.370083e+003
1.335041e+002, 6.424072e+003
1.339862e+002, 6.480436e+003
1.344683e+002, 6.539436e+003
1.349504e+002, 6.601729e+003
1.354325e+002, 6.665972e+003
1.359146e+002, 6.733811e+003
1.363968e+002, 6.806985e+003
1.368789e+002, 6.885213e+003
1.373610e+002, 6.965677e+003
1.378431e+002, 7.043727e+003
1.383252e+002, 7.118640e+003
1.388073e+002, 7.198050e+003
1.392895e+002, 7.283422e+003
1.397716e+002, 7.373297e+003
1.402537e+002, 7.466467e+003
1.407358e+002, 7.562418e+003
1.412179e+002, 7.661059e+003
1.417000e+002, 7.761530e+003
1.421821e+002, 7.863249e+003
1.426643e+002, 7.968261e+003
1.431464e+002, 8.077673e+003
1.436285e+002, 8.191034e+003
1.441106e+002, 8.307521e+003
1.445927e+002, 8.427239e+003
1.450748e+002, 8.550034e+003
1.455570e+002, 8.675521e+003
1.460391e+002, 8.803455e+003
1.465212e+002, 8.933944e+003
1.470033e+002, 9.067501e+003
1.474854e+002, 9.204597e+003
1.479675e+002, 9.342165e+003
1.484497e+002, 9.480831e+003
1.489318e+002, 9.620474e+003
1.494139e+002, 9.761785e+003
1.498960e+002, 9.904246e+003
1.503781e+002, 1.004783e+004
1.508602e+002, 1.019127e+004
1.513424e+002, 1.033725e+004
1.518245e+002, 1.047964e+004
1.523066e+002, 1.061781e+004
1.527887e+002, 1.075351e+004
1.532708e+002, 1.089119e+004
1.537529e+002, 1.103142e+004
1.542351e+002, 1.116980e+004
1.547172e+002, 1.129469e+004
1.551993e+002, 1.139310e+004
1.556814e+002, 1.149133e+004
1.561635e+002, 1.159508e+004
1.566456e+002, 1.169822e+004
1.571278e+002, 1.179372e+004
1.576099e+002, 1.187839e+004
1.580920e+002, 1.195193e+004
1.585741e+002, 1.201151e+004
1.590562e+002, 1.205663e+004
1.595383e+002, 1.209109e+004
1.600205e+002, 1.211249e+004
1.605026e+002, 1.212334e+004
1.609847e+002, 1.212990e+004
1.614668e+002, 1.213676e+004
1.619489e+002, 1.214065e+004
1.624310e+002, 1.213053e+004
1.629131e+002, 1.210688e+004
1.633953e+002, 1.207084e+004
1.638774e+002, 1.202183e+004
1.643595e+002, 1.196018e+004
1.648416e+002, 1.188983e+004
1.653237e+002, 1.181316e+004
1.658058e+002, 1.172821e+004
1.662880e+002, 1.163230e+004
1.667701e+002, 1.152161e+004
1.672522e+002, 1.140205e+004
1.677343e+002, 1.128138e+004
1.682164e+002, 1.116102e+004
1.686985e+002, 1.103374e+004
1.691807e+002, 1.089520e+004
1.696628e+002, 1.074808e+004
1.701449e+002, 1.059259e+004
1.706270e+002, 1.042715e+004
1.711091e+002, 1.025504e+004
1.715912e+002, 1.008372e+004
1.720734e+002, 9.913481e+003
1.725555e+002, 9.743621e+003
1.730376e+002, 9.571189e+003
1.735197e+002, 9.398226e+003
1.740018e+002, 9.226489e+003
1.744839e+002, 9.057459e+003
1.749661e+002, 8.891075e+003
1.754482e+002, 8.728895e+003
1.759303e+002, 8.570778e+003
1.764124e+002, 8.417756e+003
1.768945e+002, 8.271128e+003
1.773766e+002, 8.129686e+003
1.778588e+002, 7.992641e+003
1.783409e+002, 7.858358e+003
1.788230e+002, 7.726540e+003
1.793051e+002, 7.603532e+003
1.797872e+002, 7.494529e+003
1.802693e+002, 7.388875e+003
1.807515e+002, 7.283781e+003
1.812336e+002, 7.179462e+003
1.817157e+002, 7.078553e+003
1.821978e+002, 6.983163e+003
1.826799e+002, 6.893628e+003
1.831620e+002, 6.807353e+003
1.836441e+002, 6.723614e+003
1.841263e+002, 6.642800e+003
1.846084e+002, 6.566250e+003
1.850905e+002, 6.493509e+003
1.855726e+002, 6.422284e+003
1.860547e+002, 6.350640e+003
1.865368e+002, 6.278368e+003
1.870190e+002, 6.209732e+003
1.875011e+002, 6.147620e+003
1.879832e+002, 6.087526e+003
1.884653e+002, 6.026131e+003
1.889474e+002, 5.963363e+003
1.894296e+002, 5.900643e+003
1.899117e+002, 5.838513e+003
1.903938e+002, 5.777437e+003
1.908759e+002, 5.720756e+003
1.913580e+002, 5.671722e+003
1.918401e+002, 5.626267e+003
1.923223e+002, 5.579748e+003
1.928044e+002, 5.531433e+003
1.932865e+002, 5.482724e+003
1.937686e+002, 5.433875e+003
1.942507e+002, 5.385261e+003
1.947328e+002, 5.339246e+003
1.952150e+002, 5.298581e+003
1.956971e+002, 5.260513e+003
1.961792e+002, 5.218699e+003
1.966613e+002, 5.170630e+003
1.971434e+002, 5.123254e+003
1.976255e+002, 5.082178e+003
1.981077e+002, 5.045539e+003
1.985898e+002, 5.009822e+003
1.990719e+002, 4.973236e+003
1.995540e+002, 4.935891e+003
2.000361e+002, 4.898846e+003
2.005182e+002, 4.862742e+003
2.010004e+002, 4.825789e+003
2.014825e+002, 4.786447e+003
2.019646e+002, 4.745672e+003
2.024467e+002, 4.706291e+003
2.029288e+002, 4.671196e+003
2.034109e+002, 4.639970e+003
2.038930e+002, 4.606232e+003
2.043752e+002, 4.566998e+003
2.048573e+002, 4.528454e+003
2.053394e+002, 4.493929e+003
2.058215e+002, 4.462318e+003
2.063036e+002, 4.430406e+003
2.067857e+002, 4.395549e+003
2.072679e+002, 4.357558e+003
2.077500e+002, 4.320426e+003
2.082321e+002, 4.283602e+003
2.087142e+002, 4.248173e+003
2.091963e+002, 4.214857e+003
2.096784e+002, 4.183428e+003
2.101606e+002, 4.153361e+003
2.106427e+002, 4.124435e+003
2.111248e+002, 4.097158e+003
2.116069e+002, 4.067851e+003
2.120890e+002, 4.034187e+003
2.125711e+002, 4.000916e+003
2.130533e+002, 3.969577e+003
2.135354e+002, 3.940291e+003
2.140175e+002, 3.912207e+003
2.144996e+002, 3.884594e+003
2.149817e+002, 3.857314e+003
2.154638e+002, 3.831506e+003
2.159460e+002, 3.808148e+003
2.164281e+002, 3.784994e+003
2.169102e+002, 3.760775e+003
2.173923e+002, 3.735625e+003
2.178744e+002, 3.710117e+003
2.183565e+002, 3.684781e+003
2.188387e+002, 3.659591e+003
2.193208e+002, 3.635568e+003
2.198029e+002, 3.613556e+003
2.202850e+002, 3.591766e+003
2.207671e+002, 3.569095e+003
2.212492e+002, 3.545512e+003
2.217314e+002, 3.521520e+003
2.222135e+002, 3.497206e+003
2.226956e+002, 3.472636e+003
2.231777e+002, 3.450053e+003
2.236598e+002, 3.431207e+003
2.241419e+002, 3.413003e+003
2.246240e+002, 3.392929e+003
2.251062e+002, 3.370902e+003
2.255883e+002, 3.349205e+003
2.260704e+002, 3.330249e+003
2.265525e+002, 3.313558e+003
2.270346e+002, 3.294717e+003
2.275167e+002, 3.270776e+003
2.279989e+002, 3.246295e+003
2.284810e+002, 3.226199e+003
2.289631e+002, 3.210856e+003
2.294452e+002, 3.196267e+003
2.299273e+002, 3.179902e+003
2.304094e+002, 3.162140e+003
2.308916e+002, 3.143948e+003
2.313737e+002, 3.125120e+003
2.318558e+002, 3.106178e+003
2.323379e+002, 3.087625e+003
2.328200e+002, 3.069447e+003
2.333021e+002, 3.051771e+003
2.337843e+002, 3.034869e+003
2.342664e+002, 3.018428e+003
2.347485e+002, 3.001848e+003
2.352306e+002, 2.983992e+003
2.357127e+002, 2.966773e+003
2.361948e+002, 2.953773e+003
2.366770e+002, 2.946313e+003
2.371591e+002, 2.937236e+003
2.376412e+002, 2.920699e+003
2.381233e+002, 2.901084e+003
2.386054e+002, 2.882985e+003
2.390875e+002, 2.868191e+003
2.395697e+002, 2.854950e+003
2.400518e+002, 2.840426e+003
2.405339e+002, 2.823971e+003
2.410160e+002, 2.808128e+003
2.414981e+002, 2.794022e+003
2.419802e+002, 2.780898e+003
2.424624e+002, 2.768119e+003
2.429445e+002, 2.755481e+003
2.434266e+002, 2.743183e+003
2.439087e+002, 2.731595e+003
2.443908e+002, 2.720862e+003
2.448729e+002, 2.710498e+003
2.453550e+002, 2.700288e+003
2.458372e+002, 2.690402e+003
2.463193e+002, 2.681203e+003
2.468014e+002, 2.672839e+003
2.472835e+002, 2.664674e+003
2.477656e+002, 2.655364e+003
2.482477e+002, 2.644351e+003
2.487299e+002, 2.633527e+003
2.492120e+002, 2.623645e+003
2.496941e+002, 2.613858e+003
2.501762e+002, 2.603430e+003
2.506583e+002, 2.592137e+003
2.511404e+002, 2.580537e+003
2.516226e+002, 2.569445e+003
2.521047e+002, 2.559092e+003
2.525868e+002, 2.548911e+003
2.530689e+002, 2.538444e+003
2.535510e+002, 2.528365e+003
2.540331e+002, 2.519411e+003
2.545153e+002, 2.511679e+003
2.549974e+002, 2.504232e+003
2.554795e+002, 2.495346e+003
2.559616e+002, 2.483576e+003
2.564437e+002, 2.473662e+003
2.569258e+002, 2.466483e+003
2.574080e+002, 2.460247e+003
2.578901e+002, 2.453941e+003
2.583722e+002, 2.447313e+003
2.588543e+002, 2.440507e+003
2.593364e+002, 2.433734e+003
2.598185e+002, 2.427115e+003
2.603007e+002, 2.420188e+003
2.607828e+002, 2.412038e+003
2.612649e+002, 2.404261e+003
2.617470e+002, 2.398127e+003
2.622291e+002, 2.393579e+003
2.627112e+002, 2.389552e+003
2.631934e+002, 2.384849e+003
2.636755e+002, 2.379411e+003
2.641576e+002, 2.373345e+003
2.646397e+002, 2.366115e+003
2.651218e+002, 2.358842e+003
2.656039e+002, 2.351968e+003
2.660861e+002, 2.345635e+003
2.665682e+002, 2.339951e+003
2.670503e+002, 2.335124e+003
2.675324e+002, 2.331378e+003
2.680145e+002, 2.327121e+003
2.684966e+002, 2.321740e+003
2.689788e+002, 2.316508e+003
2.694609e+002, 2.312445e+003
2.699430e+002, 2.309238e+003
2.704251e+002, 2.305644e+003
2.709072e+002, 2.300556e+003
2.713893e+002, 2.293936e+003
2.718715e+002, 2.287839e+003
2.723536e+002, 2.281787e+003
2.728357e+002, 2.276591e+003
2.733178e+002, 2.273515e+003
2.737999e+002, 2.271729e+003
2.742820e+002, 2.268964e+003
2.747642e+002, 2.263502e+003
2.752463e+002, 2.255641e+003
2.757284e+002, 2.249224e+003
2.762105e+002, 2.244251e+003
2.766926e+002, 2.240272e+003
2.771747e+002, 2.237950e+003
2.776568e+002, 2.236504e+003
2.781389e+002, 2.234192e+003
2.786211e+002, 2.229950e+003
2.791032e+002, 2.224308e+003
2.795853e+002, 2.219521e+003
2.800674e+002, 2.216149e+003
2.805495e+002, 2.212773e+003
2.810316e+002, 2.209046e+003
2.815138e+002, 2.205083e+003
2.819959e+002, 2.201082e+003
2.824780e+002, 2.197141e+003
2.829601e+002, 2.193206e+003
2.834422e+002, 2.189261e+003
2.839243e+002, 2.185607e+003
2.844065e+002, 2.181414e+003
2.848886e+002, 2.175438e+003
2.853707e+002, 2.169104e+003
2.858528e+002, 2.165069e+003
2.863349e+002, 2.164461e+003
2.868170e+002, 2.164748e+003
2.872992e+002, 2.161151e+003
2.877813e+002, 2.152173e+003
2.882634e+002, 2.144818e+003
2.887455e+002, 2.141107e+003
2.892276e+002, 2.139242e+003
2.897097e+002, 2.137261e+003
2.901919e+002, 2.134731e+003
2.906740e+002, 2.131878e+003
2.911561e+002, 2.128853e+003
2.916382e+002, 2.125618e+003
2.921203e+002, 2.122602e+003
2.926024e+002, 2.119844e+003
2.930846e+002, 2.117321e+003
2.935667e+002, 2.115060e+003
2.940488e+002, 2.113049e+003
2.945309e+002, 2.111166e+003
2.950130e+002, 2.109332e+003
2.954951e+002, 2.107540e+003
2.959773e+002, 2.105683e+003
2.964594e+002, 2.104306e+003
2.969415e+002, 2.102450e+003
2.974236e+002, 2.098764e+003
2.979057e+002, 2.093433e+003
2.983878e+002, 2.088647e+003
2.988700e+002, 2.085982e+003
2.993521e+002, 2.085294e+003
2.998342e+002, 2.084698e+003
3.003163e+002, 2.085130e+003
3.007984e+002, 2.084808e+003
3.012805e+002, 2.081797e+003
3.017627e+002, 2.076772e+003
3.022448e+002, 2.072950e+003
3.027269e+002, 2.072424e+003
3.032090e+002, 2.073952e+003
3.036911e+002, 2.073716e+003
3.041732e+002, 2.071202e+003
3.046554e+002, 2.068036e+003
3.051375e+002, 2.064311e+003
3.056196e+002, 2.060452e+003
3.061017e+002, 2.057727e+003
3.065838e+002, 2.056885e+003
3.070659e+002, 2.056928e+003
3.075481e+002, 2.055745e+003
3.080302e+002, 2.052894e+003
3.085123e+002, 2.050781e+003
3.089944e+002, 2.051198e+003
3.094765e+002, 2.052655e+003
3.099586e+002, 2.052302e+003
3.104408e+002, 2.049166e+003
3.109229e+002, 2.045203e+003
3.114050e+002, 2.042941e+003
3.118871e+002, 2.042313e+003
3.123692e+002, 2.042379e+003
3.128513e+002, 2.043445e+003
3.133335e+002, 2.044877e+003
3.138156e+002, 2.045894e+003
3.142977e+002, 2.046365e+003
3.147798e+002, 2.046729e+003
3.152619e+002, 2.047474e+003
3.157440e+002, 2.048542e+003
3.162262e+002, 2.049168e+003
3.167083e+002, 2.048647e+003
3.171904e+002, 2.048112e+003
3.176725e+002, 2.048771e+003
3.181546e+002, 2.050556e+003
3.186367e+002, 2.052078e+003
3.191188e+002, 2.052275e+003
3.196010e+002, 2.051445e+003
3.200831e+002, 2.051205e+003
3.205652e+002, 2.051418e+003
3.210473e+002, 2.052326e+003
3.215294e+002, 2.054973e+003
3.220115e+002, 2.058662e+003
3.224937e+002, 2.060626e+003
3.229758e+002, 2.058943e+003
3.234579e+002, 2.055504e+003
3.239400e+002, 2.055245e+003
3.244221e+002, 2.059178e+003
3.249042e+002, 2.063404e+003
3.253864e+002, 2.067159e+003
3.258685e+002, 2.070205e+003
3.263506e+002, 2.071600e+003
3.268327e+002, 2.070644e+003
3.273148e+002, 2.069504e+003
3.277969e+002, 2.072396e+003
3.282791e+002, 2.080336e+003
3.287612e+002, 2.085765e+003
3.292433e+002, 2.084975e+003
3.297254e+002, 2.082017e+003
3.302075e+002, 2.081634e+003
3.306896e+002, 2.084642e+003
3.311718e+002, 2.088963e+003
3.316539e+002, 2.092699e+003
3.321360e+002, 2.095788e+003
3.326181e+002, 2.099050e+003
3.331002e+002, 2.103100e+003
3.335823e+002, 2.106861e+003
3.340645e+002, 2.109136e+003
3.345466e+002, 2.110112e+003
3.350287e+002, 2.111418e+003
3.355108e+002, 2.114174e+003
3.359929e+002, 2.118263e+003
3.364750e+002, 2.122427e+003
3.369572e+002, 2.127350e+003
3.374393e+002, 2.131662e+003
3.379214e+002, 2.134303e+003
3.384035e+002, 2.135878e+003
3.388856e+002, 2.137782e+003
3.393677e+002, 2.140661e+003
3.398499e+002, 2.144245e+003
3.403320e+002, 2.147896e+003
3.408141e+002, 2.152011e+003
3.412962e+002, 2.155472e+003
3.417783e+002, 2.157851e+003
3.422604e+002, 2.159539e+003
3.427426e+002, 2.160823e+003
3.432247e+002, 2.161776e+003
3.437068e+002, 2.162875e+003
3.441889e+002, 2.164819e+003
3.446710e+002, 2.167988e+003
3.451531e+002, 2.171031e+003
3.456353e+002, 2.174194e+003
3.461174e+002, 2.177047e+003
3.465995e+002, 2.179032e+003
3.470816e+002, 2.180221e+003
3.475637e+002, 2.181407e+003
3.480458e+002, 2.183286e+003
3.485280e+002, 2.185908e+003
3.490101e+002, 2.188487e+003
3.494922e+002, 2.192382e+003
3.499743e+002, 2.194921e+003
3.504564e+002, 2.193815e+003
3.509385e+002, 2.190407e+003
3.514207e+002, 2.187931e+003
3.519028e+002, 2.188395e+003
3.523849e+002, 2.190969e+003
3.528670e+002, 2.192071e+003
3.533491e+002, 2.190138e+003
3.538312e+002, 2.188691e+003
3.543134e+002, 2.188217e+003
3.547955e+002, 2.188426e+003
3.552776e+002, 2.189261e+003
3.557597e+002, 2.190657e+003
3.562418e+002, 2.191936e+003
3.567239e+002, 2.191917e+003
3.572061e+002, 2.189886e+003
3.576882e+002, 2.187893e+003
3.581703e+002, 2.185760e+003
3.586524e+002, 2.183774e+003
3.591345e+002, 2.182128e+003
3.596166e+002, 2.180828e+003
3.600987e+002, 2.179861e+003
3.605808e+002, 2.179349e+003
3.610630e+002, 2.179473e+003
3.615451e+002, 2.178181e+003
3.620272e+002, 2.174498e+003
3.625093e+002, 2.170514e+003
3.629914e+002, 2.166482e+003
3.634735e+002, 2.162683e+003
3.639557e+002, 2.159832e+003
3.644378e+002, 2.158513e+003
3.649199e+002, 2.157996e+003
3.654020e+002, 2.155051e+003
3.658841e+002, 2.147130e+003
3.663662e+002, 2.140211e+003
3.668484e+002, 2.134835e+003
3.673305e+002, 2.130834e+003
3.678126e+002, 2.128776e+003
3.682947e+002, 2.128636e+003
3.687768e+002, 2.128438e+003
3.692589e+002, 2.124654e+003
3.697411e+002, 2.115333e+003
3.702232e+002, 2.107751e+003
3.707053e+002, 2.103882e+003
3.711874e+002, 2.100223e+003
3.716695e+002, 2.094580e+003
3.721516e+002, 2.087200e+003
3.726338e+002, 2.079880e+003
3.731159e+002, 2.074413e+003
3.735980e+002, 2.070726e+003
3.740801e+002, 2.066070e+003
3.745622e+002, 2.058909e+003
3.750443e+002, 2.052680e+003
3.755265e+002, 2.049510e+003
3.760086e+002, 2.047723e+003
3.764907e+002, 2.044707e+003
3.769728e+002, 2.039042e+003
3.774549e+002, 2.031751e+003
3.779370e+002, 2.024770e+003
3.784192e+002, 2.017648e+003
3.789013e+002, 2.012179e+003
3.793834e+002, 2.011342e+003
3.798655e+002, 2.010830e+003
3.803476e+002, 2.006587e+003
3.808297e+002, 1.997870e+003
3.813119e+002, 1.988744e+003
3.817940e+002, 1.984066e+003
3.822761e+002, 1.983706e+003
3.827582e+002, 1.981279e+003
3.832403e+002, 1.974547e+003
3.837224e+002, 1.967220e+003
3.842046e+002, 1.962311e+003
3.846867e+002, 1.959123e+003
3.851688e+002, 1.954922e+003
3.856509e+002, 1.946771e+003
3.861330e+002, 1.936889e+003
3.866151e+002, 1.930638e+003
3.870973e+002, 1.928854e+003
3.875794e+002, 1.927755e+003
3.880615e+002, 1.925725e+003
3.885436e+002, 1.922863e+003
3.890257e+002, 1.919096e+003
3.895078e+002, 1.914021e+003
3.899900e+002, 1.908721e+003
3.904721e+002, 1.903923e+003
3.909542e+002, 1.899632e+003
3.914363e+002, 1.896267e+003
3.919184e+002, 1.894620e+003
3.924005e+002, 1.893126e+003
3.928827e+002, 1.889294e+003
3.933648e+002, 1.882940e+003
3.938469e+002, 1.877165e+003
3.943290e+002, 1.873521e+003
3.948111e+002, 1.871121e+003
3.952932e+002, 1.868959e+003
3.957754e+002, 1.866977e+003
3.962575e+002, 1.864168e+003
3.967396e+002, 1.859122e+003
3.972217e+002, 1.852106e+003
3.977038e+002, 1.846375e+003
3.981859e+002, 1.842435e+003
3.986681e+002, 1.839447e+003
3.991501e+002, 1.837657e+003
3.996323e+002, 1.836525e+003
4.001144e+002, 1.834025e+003
4.005965e+002, 1.828850e+003
4.010786e+002, 1.822123e+003
4.015607e+002, 1.817282e+003
4.020428e+002, 1.815720e+003
4.025250e+002, 1.813262e+003
4.030071e+002, 1.808457e+003
4.034892e+002, 1.802698e+003
4.039713e+002, 1.797604e+003
4.044534e+002, 1.793554e+003
4.049355e+002, 1.789852e+003
4.054177e+002, 1.785651e+003
4.058998e+002, 1.780772e+003
4.063819e+002, 1.776469e+003
4.068640e+002, 1.773880e+003
4.073461e+002, 1.770745e+003
4.078282e+002, 1.765073e+003
4.083104e+002, 1.757880e+003
4.087925e+002, 1.751885e+003
4.092746e+002, 1.748849e+003
4.097567e+002, 1.748041e+003
4.102388e+002, 1.745984e+003
4.107209e+002, 1.740707e+003
4.112031e+002, 1.736750e+003
4.116852e+002, 1.736432e+003
4.121673e+002, 1.736515e+003
4.126494e+002, 1.733590e+003
4.131315e+002, 1.726926e+003
4.136136e+002, 1.718725e+003
4.140958e+002, 1.712009e+003
