##NAMES=Boleite
##RRUFFID=R130099
##IDEAL CHEMISTRY=KAg^1+^_9_Pb^2+^_26_Cu^2+^_24_Cl_62_(OH)_48_
##LOCALITY=Rowley mine, Maricopa County, Arizona, USA
##OWNER=RRUFF
##SOURCE=Joe Ruiz
##DESCRIPTION=Blue cubes, associated with blue bladed crystals of mammothite R130100, irregular masses of blue diaboleite, colorless cubes of paralaurianite, colorless gypsum in massive cerussite.
##STATUS=The identification of this mineral has been confirmed only by single crystal X-ray diffraction.
##URL=rruff.info/R130099
8.975323e+001, 0.000000e+000
9.023535e+001, 1.548064e+002
9.071747e+001, 1.537287e+002
9.119958e+001, 1.527530e+002
9.168170e+001, 1.547548e+002
9.216382e+001, 1.561755e+002
9.264594e+001, 1.566163e+002
9.312805e+001, 1.565157e+002
9.361017e+001, 1.560941e+002
9.409229e+001, 1.547290e+002
9.457440e+001, 1.514596e+002
9.505651e+001, 1.489037e+002
9.553863e+001, 1.473372e+002
9.602074e+001, 1.463593e+002
9.650286e+001, 1.456817e+002
9.698498e+001, 1.450890e+002
9.746709e+001, 1.442610e+002
9.794921e+001, 1.433811e+002
9.843133e+001, 1.422793e+002
9.891344e+001, 1.413658e+002
9.939556e+001, 1.406333e+002
9.987768e+001, 1.400992e+002
1.003598e+002, 1.399205e+002
1.008419e+002, 1.403200e+002
1.013240e+002, 1.411220e+002
1.018061e+002, 1.415560e+002
1.022883e+002, 1.412977e+002
1.027704e+002, 1.408711e+002
1.032525e+002, 1.408267e+002
1.037346e+002, 1.412471e+002
1.042167e+002, 1.415777e+002
1.046988e+002, 1.414981e+002
1.051810e+002, 1.410533e+002
1.056631e+002, 1.402148e+002
1.061452e+002, 1.387367e+002
1.066273e+002, 1.368098e+002
1.071094e+002, 1.352477e+002
1.075915e+002, 1.343613e+002
1.080737e+002, 1.334682e+002
1.085558e+002, 1.322632e+002
1.090379e+002, 1.308103e+002
1.095200e+002, 1.293018e+002
1.100021e+002, 1.278636e+002
1.104842e+002, 1.264684e+002
1.109664e+002, 1.253295e+002
1.114485e+002, 1.245742e+002
1.119306e+002, 1.239419e+002
1.124127e+002, 1.233088e+002
1.128948e+002, 1.226630e+002
1.133769e+002, 1.220742e+002
1.138591e+002, 1.216593e+002
1.143412e+002, 1.215914e+002
1.148233e+002, 1.213806e+002
1.153054e+002, 1.209881e+002
1.157875e+002, 1.204777e+002
1.162696e+002, 1.198628e+002
1.167517e+002, 1.191365e+002
1.172339e+002, 1.183952e+002
1.177160e+002, 1.178990e+002
1.181981e+002, 1.177049e+002
1.186802e+002, 1.175554e+002
1.191623e+002, 1.175297e+002
1.196444e+002, 1.175176e+002
1.201266e+002, 1.171821e+002
1.206087e+002, 1.162640e+002
1.210908e+002, 1.149898e+002
1.215729e+002, 1.138869e+002
1.220550e+002, 1.130147e+002
1.225371e+002, 1.122093e+002
1.230193e+002, 1.113347e+002
1.235014e+002, 1.103775e+002
1.239835e+002, 1.094459e+002
1.244656e+002, 1.085642e+002
1.249477e+002, 1.077510e+002
1.254298e+002, 1.070324e+002
1.259120e+002, 1.064262e+002
1.263941e+002, 1.059204e+002
1.268762e+002, 1.055410e+002
1.273583e+002, 1.054999e+002
1.278404e+002, 1.052050e+002
1.283225e+002, 1.043702e+002
1.288047e+002, 1.032423e+002
1.292868e+002, 1.021468e+002
1.297689e+002, 1.012904e+002
1.302510e+002, 1.006563e+002
1.307331e+002, 9.999783e+001
1.312152e+002, 9.909128e+001
1.316974e+002, 9.837452e+001
1.321795e+002, 9.809364e+001
1.326616e+002, 9.811998e+001
1.331437e+002, 9.814190e+001
1.336258e+002, 9.787971e+001
1.341079e+002, 9.727435e+001
1.345901e+002, 9.674580e+001
1.350722e+002, 9.623257e+001
1.355543e+002, 9.582313e+001
1.360364e+002, 9.563543e+001
1.365185e+002, 9.565455e+001
1.370006e+002, 9.569284e+001
1.374828e+002, 9.551201e+001
1.379649e+002, 9.503976e+001
1.384470e+002, 9.473816e+001
1.389291e+002, 9.482058e+001
1.394112e+002, 9.501267e+001
1.398933e+002, 9.494643e+001
1.403755e+002, 9.449585e+001
1.408576e+002, 9.396726e+001
1.413397e+002, 9.381194e+001
1.418218e+002, 9.399442e+001
1.423039e+002, 9.412766e+001
1.427860e+002, 9.400545e+001
1.432681e+002, 9.369524e+001
1.437503e+002, 9.343130e+001
1.442324e+002, 9.323069e+001
1.447145e+002, 9.314397e+001
1.451966e+002, 9.318012e+001
1.456787e+002, 9.333987e+001
1.461608e+002, 9.361913e+001
1.466430e+002, 9.414904e+001
1.471251e+002, 9.499274e+001
1.476072e+002, 9.546788e+001
1.480893e+002, 9.508636e+001
1.485714e+002, 9.450780e+001
1.490535e+002, 9.397852e+001
1.495357e+002, 9.357360e+001
1.500178e+002, 9.337255e+001
1.504999e+002, 9.360049e+001
1.509820e+002, 9.469936e+001
1.514641e+002, 9.523568e+001
1.519462e+002, 9.468874e+001
1.524284e+002, 9.386216e+001
1.529105e+002, 9.340582e+001
1.533926e+002, 9.356111e+001
1.538747e+002, 9.407829e+001
1.543568e+002, 9.433799e+001
1.548389e+002, 9.415648e+001
1.553211e+002, 9.389609e+001
1.558032e+002, 9.350511e+001
1.562853e+002, 9.306645e+001
1.567674e+002, 9.268802e+001
1.572495e+002, 9.242690e+001
1.577316e+002, 9.224523e+001
1.582138e+002, 9.197998e+001
1.586959e+002, 9.182455e+001
1.591780e+002, 9.139370e+001
1.596601e+002, 9.050562e+001
1.601422e+002, 8.926339e+001
1.606243e+002, 8.790488e+001
1.611065e+002, 8.658328e+001
1.615886e+002, 8.523383e+001
1.620707e+002, 8.364781e+001
1.625528e+002, 8.146801e+001
1.630349e+002, 7.941160e+001
1.635170e+002, 7.807663e+001
1.639991e+002, 7.738171e+001
1.644813e+002, 7.653626e+001
1.649634e+002, 7.493251e+001
1.654455e+002, 7.285144e+001
1.659276e+002, 7.097204e+001
1.664097e+002, 6.938277e+001
1.668918e+002, 6.799832e+001
1.673740e+002, 6.679611e+001
1.678561e+002, 6.582783e+001
1.683382e+002, 6.480485e+001
1.688203e+002, 6.341798e+001
1.693024e+002, 6.191261e+001
1.697845e+002, 6.059309e+001
1.702667e+002, 5.962438e+001
1.707488e+002, 5.888731e+001
1.712309e+002, 5.810672e+001
1.717130e+002, 5.723457e+001
1.721951e+002, 5.641128e+001
1.726772e+002, 5.562641e+001
1.731594e+002, 5.491953e+001
1.736415e+002, 5.436013e+001
1.741236e+002, 5.402739e+001
1.746057e+002, 5.387316e+001
1.750878e+002, 5.360249e+001
1.755699e+002, 5.305910e+001
1.760521e+002, 5.257089e+001
1.765342e+002, 5.232312e+001
1.770163e+002, 5.218819e+001
1.774984e+002, 5.193768e+001
1.779805e+002, 5.138792e+001
1.784626e+002, 5.053471e+001
1.789448e+002, 4.975568e+001
1.794269e+002, 4.903534e+001
1.799090e+002, 4.840098e+001
1.803911e+002, 4.785689e+001
1.808732e+002, 4.740758e+001
1.813553e+002, 4.706801e+001
1.818375e+002, 4.685334e+001
1.823196e+002, 4.677073e+001
1.828017e+002, 4.676472e+001
1.832838e+002, 4.698097e+001
1.837659e+002, 4.712962e+001
1.842480e+002, 4.701165e+001
1.847301e+002, 4.665839e+001
1.852123e+002, 4.628135e+001
1.856944e+002, 4.607966e+001
1.861765e+002, 4.608468e+001
1.866586e+002, 4.604531e+001
1.871407e+002, 4.587861e+001
1.876228e+002, 4.572724e+001
1.881050e+002, 4.575216e+001
1.885871e+002, 4.596008e+001
1.890692e+002, 4.613171e+001
1.895513e+002, 4.602233e+001
1.900334e+002, 4.563755e+001
1.905155e+002, 4.530013e+001
1.909977e+002, 4.502748e+001
1.914798e+002, 4.482733e+001
1.919619e+002, 4.475314e+001
1.924440e+002, 4.484000e+001
1.929261e+002, 4.489884e+001
1.934082e+002, 4.466618e+001
1.938904e+002, 4.423398e+001
1.943725e+002, 4.388227e+001
1.948546e+002, 4.374969e+001
1.953367e+002, 4.374541e+001
1.958188e+002, 4.367785e+001
1.963009e+002, 4.349395e+001
1.967831e+002, 4.333313e+001
1.972652e+002, 4.334414e+001
1.977473e+002, 4.346414e+001
1.982294e+002, 4.353073e+001
1.987115e+002, 4.340705e+001
1.991936e+002, 4.314748e+001
1.996758e+002, 4.298346e+001
2.001579e+002, 4.292662e+001
2.006400e+002, 4.297154e+001
2.011221e+002, 4.320181e+001
2.016042e+002, 4.352922e+001
2.020863e+002, 4.373473e+001
2.025685e+002, 4.360006e+001
2.030506e+002, 4.315199e+001
2.035327e+002, 4.285502e+001
2.040148e+002, 4.278790e+001
2.044969e+002, 4.281190e+001
2.049790e+002, 4.293140e+001
2.054612e+002, 4.310286e+001
2.059433e+002, 4.324062e+001
2.064254e+002, 4.326535e+001
2.069075e+002, 4.317025e+001
2.073896e+002, 4.309319e+001
2.078717e+002, 4.303296e+001
2.083539e+002, 4.299337e+001
2.088360e+002, 4.297700e+001
2.093181e+002, 4.298352e+001
2.098002e+002, 4.301976e+001
2.102823e+002, 4.310926e+001
2.107644e+002, 4.327512e+001
2.112466e+002, 4.327890e+001
2.117287e+002, 4.286939e+001
2.122108e+002, 4.254594e+001
2.126929e+002, 4.258821e+001
2.131750e+002, 4.292198e+001
2.136571e+002, 4.326437e+001
2.141393e+002, 4.335530e+001
2.146214e+002, 4.315752e+001
2.151035e+002, 4.294844e+001
2.155856e+002, 4.272911e+001
2.160677e+002, 4.250043e+001
2.165498e+002, 4.224352e+001
2.170320e+002, 4.197027e+001
2.175141e+002, 4.172435e+001
2.179962e+002, 4.155689e+001
2.184783e+002, 4.148338e+001
2.189604e+002, 4.133119e+001
2.194425e+002, 4.092559e+001
2.199247e+002, 4.058925e+001
2.204068e+002, 4.057859e+001
2.208889e+002, 4.087202e+001
2.213710e+002, 4.120540e+001
2.218531e+002, 4.136196e+001
2.223352e+002, 4.132180e+001
2.228174e+002, 4.125242e+001
2.232995e+002, 4.116579e+001
2.237816e+002, 4.104222e+001
2.242637e+002, 4.085203e+001
2.247458e+002, 4.059696e+001
2.252279e+002, 4.032802e+001
2.257100e+002, 4.006458e+001
2.261922e+002, 3.982091e+001
2.266743e+002, 3.965977e+001
2.271564e+002, 3.970376e+001
2.276385e+002, 3.975864e+001
2.281206e+002, 3.959492e+001
2.286027e+002, 3.919456e+001
2.290849e+002, 3.883680e+001
2.295670e+002, 3.879247e+001
2.300491e+002, 3.895094e+001
2.305312e+002, 3.900053e+001
2.310133e+002, 3.882145e+001
2.314954e+002, 3.854979e+001
2.319776e+002, 3.834416e+001
2.324597e+002, 3.821635e+001
2.329418e+002, 3.807095e+001
2.334239e+002, 3.777720e+001
2.339060e+002, 3.743865e+001
2.343881e+002, 3.723308e+001
2.348703e+002, 3.731317e+001
2.353524e+002, 3.745374e+001
2.358345e+002, 3.728526e+001
2.363166e+002, 3.670906e+001
2.367987e+002, 3.623082e+001
2.372808e+002, 3.624588e+001
2.377630e+002, 3.646223e+001
2.382451e+002, 3.657554e+001
2.387272e+002, 3.649323e+001
2.392093e+002, 3.626664e+001
2.396914e+002, 3.593701e+001
2.401735e+002, 3.544451e+001
2.406557e+002, 3.503959e+001
2.411378e+002, 3.491960e+001
2.416199e+002, 3.488822e+001
2.421020e+002, 3.475415e+001
2.425841e+002, 3.443993e+001
2.430662e+002, 3.403920e+001
2.435484e+002, 3.370413e+001
2.440305e+002, 3.344161e+001
2.445126e+002, 3.323180e+001
2.449947e+002, 3.312548e+001
2.454768e+002, 3.303692e+001
2.459589e+002, 3.289674e+001
2.464410e+002, 3.268130e+001
2.469232e+002, 3.240668e+001
2.474053e+002, 3.207518e+001
2.478874e+002, 3.162514e+001
2.483695e+002, 3.127353e+001
2.488516e+002, 3.115713e+001
2.493337e+002, 3.108377e+001
2.498159e+002, 3.089423e+001
2.502980e+002, 3.054167e+001
2.507801e+002, 3.011860e+001
2.512622e+002, 2.977843e+001
2.517443e+002, 2.956373e+001
2.522264e+002, 2.934229e+001
2.527086e+002, 2.911782e+001
2.531907e+002, 2.887357e+001
2.536728e+002, 2.857247e+001
2.541549e+002, 2.821483e+001
2.546370e+002, 2.786163e+001
2.551191e+002, 2.761973e+001
2.556013e+002, 2.758732e+001
2.560834e+002, 2.745315e+001
2.565655e+002, 2.706725e+001
2.570476e+002, 2.669929e+001
2.575297e+002, 2.657579e+001
2.580118e+002, 2.671187e+001
2.584940e+002, 2.690404e+001
2.589761e+002, 2.686353e+001
2.594582e+002, 2.645089e+001
2.599403e+002, 2.615478e+001
2.604224e+002, 2.601181e+001
2.609045e+002, 2.592747e+001
2.613867e+002, 2.589235e+001
2.618688e+002, 2.587805e+001
2.623509e+002, 2.580199e+001
2.628330e+002, 2.554792e+001
2.633151e+002, 2.501843e+001
2.637972e+002, 2.467430e+001
2.642794e+002, 2.468208e+001
2.647615e+002, 2.469911e+001
2.652436e+002, 2.449005e+001
2.657257e+002, 2.408144e+001
2.662078e+002, 2.368733e+001
2.666899e+002, 2.352472e+001
2.671721e+002, 2.363829e+001
2.676542e+002, 2.371302e+001
2.681363e+002, 2.368471e+001
2.686184e+002, 2.368315e+001
2.691005e+002, 2.381875e+001
2.695826e+002, 2.405341e+001
2.700648e+002, 2.424373e+001
2.705469e+002, 2.426752e+001
2.710290e+002, 2.411824e+001
2.715111e+002, 2.397762e+001
2.719932e+002, 2.390819e+001
2.724753e+002, 2.378594e+001
2.729575e+002, 2.346761e+001
2.734396e+002, 2.303922e+001
2.739217e+002, 2.274040e+001
2.744038e+002, 2.274877e+001
2.748859e+002, 2.303510e+001
2.753680e+002, 2.324186e+001
2.758501e+002, 2.337261e+001
2.763322e+002, 2.344391e+001
2.768144e+002, 2.347124e+001
2.772965e+002, 2.344404e+001
2.777786e+002, 2.332089e+001
2.782607e+002, 2.306249e+001
2.787428e+002, 2.271563e+001
2.792249e+002, 2.248526e+001
2.797071e+002, 2.245623e+001
2.801892e+002, 2.241730e+001
2.806713e+002, 2.228564e+001
2.811534e+002, 2.211225e+001
2.816355e+002, 2.199772e+001
2.821176e+002, 2.199292e+001
2.825998e+002, 2.204654e+001
2.830819e+002, 2.202195e+001
2.835640e+002, 2.186849e+001
2.840461e+002, 2.174542e+001
2.845282e+002, 2.170496e+001
2.850103e+002, 2.170904e+001
2.854925e+002, 2.170209e+001
2.859746e+002, 2.166541e+001
2.864567e+002, 2.161587e+001
2.869388e+002, 2.157598e+001
2.874209e+002, 2.153443e+001
2.879030e+002, 2.153763e+001
2.883852e+002, 2.170644e+001
2.888673e+002, 2.187853e+001
2.893494e+002, 2.178786e+001
2.898315e+002, 2.136309e+001
2.903136e+002, 2.091054e+001
2.907957e+002, 2.084611e+001
2.912779e+002, 2.123689e+001
2.917600e+002, 2.149259e+001
2.922421e+002, 2.145697e+001
2.927242e+002, 2.131675e+001
2.932063e+002, 2.127222e+001
2.936884e+002, 2.134684e+001
2.941706e+002, 2.138467e+001
2.946527e+002, 2.117276e+001
2.951348e+002, 2.072048e+001
2.956169e+002, 2.058975e+001
2.960990e+002, 2.117869e+001
2.965811e+002, 2.182198e+001
2.970633e+002, 2.188147e+001
2.975454e+002, 2.138999e+001
2.980275e+002, 2.102053e+001
2.985096e+002, 2.135146e+001
2.989917e+002, 2.222380e+001
2.994738e+002, 2.258001e+001
2.999560e+002, 2.203926e+001
3.004381e+002, 2.134074e+001
3.009202e+002, 2.083808e+001
3.014023e+002, 2.052494e+001
3.018844e+002, 2.035075e+001
3.023665e+002, 2.031641e+001
3.028487e+002, 2.038833e+001
3.033308e+002, 2.045780e+001
3.038129e+002, 2.054999e+001
3.042950e+002, 2.060235e+001
3.047771e+002, 2.055118e+001
3.052592e+002, 2.043631e+001
3.057414e+002, 2.037699e+001
3.062235e+002, 2.044254e+001
3.067056e+002, 2.053844e+001
3.071877e+002, 2.044736e+001
3.076698e+002, 2.010826e+001
3.081519e+002, 1.985764e+001
3.086341e+002, 1.990069e+001
3.091162e+002, 2.008316e+001
3.095983e+002, 2.012335e+001
3.100804e+002, 1.993250e+001
3.105625e+002, 1.966451e+001
3.110446e+002, 1.952128e+001
3.115268e+002, 1.950120e+001
3.120089e+002, 1.950209e+001
3.124910e+002, 1.952038e+001
3.129731e+002, 1.954202e+001
3.134552e+002, 1.954656e+001
3.139373e+002, 1.953033e+001
3.144195e+002, 1.951690e+001
3.149016e+002, 1.954855e+001
3.153837e+002, 1.961551e+001
3.158658e+002, 1.959652e+001
3.163479e+002, 1.936146e+001
3.168300e+002, 1.912190e+001
3.173121e+002, 1.908790e+001
3.177943e+002, 1.925059e+001
3.182764e+002, 1.940826e+001
3.187585e+002, 1.943529e+001
3.192406e+002, 1.934141e+001
3.197227e+002, 1.922222e+001
3.202048e+002, 1.897591e+001
3.206870e+002, 1.880422e+001
3.211691e+002, 1.887177e+001
3.216512e+002, 1.911991e+001
3.221333e+002, 1.935141e+001
3.226154e+002, 1.948820e+001
3.230975e+002, 1.953366e+001
3.235797e+002, 1.948883e+001
3.240618e+002, 1.932152e+001
3.245439e+002, 1.915306e+001
3.250260e+002, 1.903754e+001
3.255081e+002, 1.894827e+001
3.259902e+002, 1.879806e+001
3.264724e+002, 1.853137e+001
3.269545e+002, 1.830247e+001
3.274366e+002, 1.840561e+001
3.279187e+002, 1.889572e+001
3.284008e+002, 1.931631e+001
3.288829e+002, 1.964050e+001
3.293651e+002, 1.982479e+001
3.298472e+002, 1.975131e+001
3.303293e+002, 1.939951e+001
3.308114e+002, 1.901556e+001
3.312935e+002, 1.884455e+001
3.317756e+002, 1.890845e+001
3.322578e+002, 1.897378e+001
3.327399e+002, 1.906654e+001
3.332220e+002, 1.913313e+001
3.337041e+002, 1.913229e+001
3.341862e+002, 1.906526e+001
3.346683e+002, 1.895332e+001
3.351505e+002, 1.879688e+001
3.356326e+002, 1.860815e+001
3.361147e+002, 1.847635e+001
3.365968e+002, 1.842318e+001
3.370789e+002, 1.839483e+001
3.375610e+002, 1.835015e+001
3.380432e+002, 1.831210e+001
3.385253e+002, 1.834294e+001
3.390074e+002, 1.847799e+001
3.394895e+002, 1.868349e+001
3.399716e+002, 1.887712e+001
3.404537e+002, 1.910513e+001
3.409359e+002, 1.924409e+001
3.414180e+002, 1.923024e+001
3.419001e+002, 1.912909e+001
3.423822e+002, 1.900445e+001
3.428643e+002, 1.887473e+001
3.433464e+002, 1.877355e+001
3.438286e+002, 1.875912e+001
3.443107e+002, 1.888926e+001
3.447928e+002, 1.893156e+001
3.452749e+002, 1.881727e+001
3.457570e+002, 1.866121e+001
3.462391e+002, 1.851826e+001
3.467213e+002, 1.840903e+001
3.472034e+002, 1.838143e+001
3.476855e+002, 1.849722e+001
3.481676e+002, 1.876774e+001
3.486497e+002, 1.893652e+001
3.491318e+002, 1.885599e+001
3.496140e+002, 1.883889e+001
3.500961e+002, 1.912528e+001
3.505782e+002, 1.958315e+001
3.510603e+002, 1.989052e+001
3.515424e+002, 1.984619e+001
3.520245e+002, 1.953549e+001
3.525067e+002, 1.932166e+001
3.529888e+002, 1.924676e+001
3.534709e+002, 1.921613e+001
3.539530e+002, 1.926603e+001
3.544351e+002, 1.933600e+001
3.549172e+002, 1.931449e+001
3.553994e+002, 1.916954e+001
3.558815e+002, 1.904182e+001
3.563636e+002, 1.919185e+001
3.568457e+002, 1.989896e+001
3.573278e+002, 2.030621e+001
3.578099e+002, 2.025364e+001
3.582920e+002, 2.005184e+001
3.587741e+002, 1.986359e+001
3.592563e+002, 1.972954e+001
3.597384e+002, 1.965626e+001
3.602205e+002, 1.965856e+001
3.607026e+002, 1.974862e+001
3.611847e+002, 1.979600e+001
3.616668e+002, 1.975220e+001
3.621490e+002, 1.971891e+001
3.626311e+002, 1.973503e+001
3.631132e+002, 1.978640e+001
3.635953e+002, 1.987316e+001
3.640774e+002, 2.001221e+001
3.645595e+002, 2.013700e+001
3.650417e+002, 1.993502e+001
3.655238e+002, 1.885066e+001
3.660059e+002, 1.821959e+001
3.664880e+002, 1.852791e+001
3.669701e+002, 1.917039e+001
3.674522e+002, 1.955393e+001
3.679344e+002, 1.949002e+001
3.684165e+002, 1.921453e+001
3.688986e+002, 1.910360e+001
3.693807e+002, 1.926279e+001
3.698628e+002, 1.929674e+001
3.703449e+002, 1.903801e+001
3.708271e+002, 1.878839e+001
3.713092e+002, 1.874791e+001
3.717913e+002, 1.888671e+001
3.722734e+002, 1.901001e+001
3.727555e+002, 1.893049e+001
3.732376e+002, 1.865630e+001
3.737198e+002, 1.844852e+001
3.742019e+002, 1.835045e+001
3.746840e+002, 1.827075e+001
3.751661e+002, 1.812170e+001
3.756482e+002, 1.798114e+001
3.761303e+002, 1.799877e+001
3.766125e+002, 1.828519e+001
3.770946e+002, 1.867967e+001
3.775767e+002, 1.880195e+001
3.780588e+002, 1.855111e+001
3.785409e+002, 1.831190e+001
3.790230e+002, 1.812127e+001
3.795052e+002, 1.802398e+001
3.799873e+002, 1.815344e+001
3.804694e+002, 1.852898e+001
3.809515e+002, 1.881178e+001
3.814336e+002, 1.852637e+001
3.819157e+002, 1.768884e+001
3.823979e+002, 1.716404e+001
3.828800e+002, 1.718551e+001
3.833621e+002, 1.741986e+001
3.838442e+002, 1.771821e+001
3.843263e+002, 1.803583e+001
3.848084e+002, 1.823079e+001
3.852906e+002, 1.814101e+001
3.857727e+002, 1.788841e+001
3.862548e+002, 1.775640e+001
3.867369e+002, 1.777272e+001
3.872190e+002, 1.781169e+001
3.877011e+002, 1.782729e+001
3.881833e+002, 1.781372e+001
3.886654e+002, 1.774672e+001
3.891475e+002, 1.758117e+001
3.896296e+002, 1.743560e+001
3.901117e+002, 1.744234e+001
3.905938e+002, 1.758091e+001
3.910760e+002, 1.769049e+001
3.915581e+002, 1.771614e+001
3.920402e+002, 1.769250e+001
3.925223e+002, 1.764099e+001
3.930044e+002, 1.754984e+001
3.934865e+002, 1.755001e+001
3.939687e+002, 1.780230e+001
3.944508e+002, 1.814279e+001
3.949329e+002, 1.829754e+001
3.954150e+002, 1.821985e+001
3.958971e+002, 1.805238e+001
3.963792e+002, 1.789578e+001
3.968614e+002, 1.775265e+001
3.973435e+002, 1.763379e+001
3.978256e+002, 1.749992e+001
3.983077e+002, 1.742384e+001
3.987898e+002, 1.749536e+001
3.992719e+002, 1.767531e+001
3.997540e+002, 1.783893e+001
4.002361e+002, 1.794118e+001
4.007183e+002, 1.795875e+001
4.012004e+002, 1.779040e+001
4.016825e+002, 1.721756e+001
4.021646e+002, 1.686691e+001
4.026467e+002, 1.698164e+001
4.031288e+002, 1.731308e+001
4.036110e+002, 1.760165e+001
4.040931e+002, 1.778145e+001
4.045752e+002, 1.790125e+001
4.050573e+002, 1.802691e+001
4.055394e+002, 1.818567e+001
4.060215e+002, 1.818547e+001
4.065037e+002, 1.785986e+001
4.069858e+002, 1.755492e+001
4.074679e+002, 1.746362e+001
4.079500e+002, 1.753565e+001
4.084321e+002, 1.761565e+001
4.089142e+002, 1.760733e+001
4.093964e+002, 1.752975e+001
4.098785e+002, 1.747110e+001
4.103606e+002, 1.744053e+001
4.108427e+002, 1.741911e+001
4.113248e+002, 1.734358e+001
4.118069e+002, 1.730908e+001
4.122891e+002, 1.746980e+001
4.127712e+002, 1.783832e+001
4.132533e+002, 1.820310e+001
4.137354e+002, 1.825210e+001
4.142175e+002, 1.788093e+001
4.146996e+002, 1.761283e+001
4.151818e+002, 1.747174e+001
4.156639e+002, 1.741723e+001
4.161460e+002, 1.748865e+001
4.166281e+002, 1.763848e+001
4.171102e+002, 1.777304e+001
4.175923e+002, 1.784644e+001
4.180745e+002, 1.784929e+001
4.185566e+002, 1.772163e+001
4.190387e+002, 1.736465e+001
4.195208e+002, 1.710060e+001
4.200029e+002, 1.709013e+001
4.204850e+002, 1.717867e+001
4.209672e+002, 1.723045e+001
4.214493e+002, 1.721254e+001
4.219314e+002, 1.717965e+001
4.224135e+002, 1.718547e+001
4.228956e+002, 1.722860e+001
4.233777e+002, 1.727730e+001
4.238599e+002, 1.731595e+001
4.243420e+002, 1.737625e+001
4.248241e+002, 1.753916e+001
4.253062e+002, 1.775719e+001
4.257883e+002, 1.785261e+001
4.262704e+002, 1.764104e+001
4.267526e+002, 1.731392e+001
4.272347e+002, 1.714615e+001
4.277168e+002, 1.714185e+001
4.281989e+002, 1.724268e+001
4.286810e+002, 1.749708e+001
4.291631e+002, 1.779742e+001
4.296453e+002, 1.791097e+001
4.301274e+002, 1.777105e+001
4.306095e+002, 1.759435e+001
4.310916e+002, 1.746549e+001
4.315737e+002, 1.737896e+001
4.320558e+002, 1.733637e+001
4.325380e+002, 1.734430e+001
4.330201e+002, 1.735148e+001
4.335022e+002, 1.728269e+001
4.339843e+002, 1.712061e+001
4.344664e+002, 1.704254e+001
4.349485e+002, 1.715267e+001
4.354307e+002, 1.726476e+001
4.359128e+002, 1.721952e+001
4.363949e+002, 1.706015e+001
4.368770e+002, 1.695109e+001
4.373591e+002, 1.699038e+001
4.378412e+002, 1.714641e+001
4.383234e+002, 1.729923e+001
4.388055e+002, 1.746951e+001
4.392876e+002, 1.760992e+001
4.397697e+002, 1.774619e+001
4.402518e+002, 1.783462e+001
4.407339e+002, 1.779295e+001
4.412160e+002, 1.762581e+001
4.416982e+002, 1.746058e+001
4.421803e+002, 1.745556e+001
4.426624e+002, 1.764311e+001
4.431445e+002, 1.775416e+001
4.436266e+002, 1.772032e+001
4.441087e+002, 1.767950e+001
4.445909e+002, 1.767344e+001
4.450730e+002, 1.768864e+001
4.455551e+002, 1.769364e+001
4.460372e+002, 1.766999e+001
4.465193e+002, 1.763995e+001
4.470014e+002, 1.765864e+001
4.474836e+002, 1.774670e+001
4.479657e+002, 1.782196e+001
4.484478e+002, 1.782743e+001
4.489299e+002, 1.784681e+001
4.494120e+002, 1.796328e+001
4.498941e+002, 1.816634e+001
4.503763e+002, 1.833909e+001
4.508584e+002, 1.836806e+001
4.513405e+002, 1.828783e+001
4.518226e+002, 1.823279e+001
4.523047e+002, 1.818789e+001
4.527868e+002, 1.821259e+001
4.532690e+002, 1.845621e+001
4.537511e+002, 1.876440e+001
4.542332e+002, 1.890555e+001
4.547153e+002, 1.879761e+001
4.551974e+002, 1.857752e+001
4.556795e+002, 1.829056e+001
4.561617e+002, 1.796952e+001
4.566438e+002, 1.776035e+001
4.571259e+002, 1.772000e+001
4.576080e+002, 1.777271e+001
4.580901e+002, 1.786343e+001
4.585722e+002, 1.799731e+001
4.590544e+002, 1.802338e+001
4.595365e+002, 1.784209e+001
4.600186e+002, 1.759422e+001
4.605007e+002, 1.736092e+001
4.609828e+002, 1.716313e+001
4.614649e+002, 1.707855e+001
4.619471e+002, 1.719184e+001
4.624292e+002, 1.741700e+001
4.629113e+002, 1.739118e+001
4.633934e+002, 1.683733e+001
4.638755e+002, 1.641311e+001
4.643576e+002, 1.616511e+001
4.648398e+002, 1.609310e+001
4.653219e+002, 1.628783e+001
4.658040e+002, 1.672132e+001
4.662861e+002, 1.714468e+001
4.667682e+002, 1.728693e+001
4.672503e+002, 1.712880e+001
4.677325e+002, 1.687709e+001
4.682146e+002, 1.627444e+001
4.686967e+002, 1.585552e+001
4.691788e+002, 1.587423e+001
4.696609e+002, 1.614058e+001
4.701430e+002, 1.637974e+001
4.706252e+002, 1.647194e+001
4.711073e+002, 1.647702e+001
4.715894e+002, 1.650736e+001
4.720715e+002, 1.658456e+001
4.725536e+002, 1.659137e+001
4.730357e+002, 1.643897e+001
4.735179e+002, 1.627128e+001
4.740000e+002, 1.615849e+001
4.744821e+002, 1.610216e+001
4.749642e+002, 1.608328e+001
4.754463e+002, 1.613171e+001
4.759284e+002, 1.619617e+001
4.764106e+002, 1.613028e+001
4.768927e+002, 1.590276e+001
4.773748e+002, 1.574946e+001
4.778569e+002, 1.585354e+001
4.783390e+002, 1.605843e+001
4.788211e+002, 1.610507e+001
4.793033e+002, 1.594135e+001
4.797854e+002, 1.577392e+001
4.802675e+002, 1.570230e+001
4.807496e+002, 1.569758e+001
4.812317e+002, 1.571844e+001
4.817138e+002, 1.575923e+001
4.821959e+002, 1.579053e+001
4.826780e+002, 1.577652e+001
4.831602e+002, 1.571964e+001
4.836423e+002, 1.571303e+001
4.841244e+002, 1.581204e+001
4.846065e+002, 1.589796e+001
4.850886e+002, 1.589467e+001
4.855707e+002, 1.585161e+001
4.860529e+002, 1.589293e+001
4.865350e+002, 1.606311e+001
4.870171e+002, 1.621457e+001
4.874992e+002, 1.606534e+001
4.879813e+002, 1.534840e+001
4.884634e+002, 1.507548e+001
4.889456e+002, 1.560577e+001
4.894277e+002, 1.615940e+001
4.899098e+002, 1.635578e+001
4.903919e+002, 1.626720e+001
4.908740e+002, 1.612405e+001
4.913561e+002, 1.605660e+001
4.918383e+002, 1.604922e+001
4.923204e+002, 1.608197e+001
4.928025e+002, 1.621313e+001
4.932846e+002, 1.622282e+001
4.937667e+002, 1.590064e+001
4.942488e+002, 1.556008e+001
4.947310e+002, 1.541672e+001
4.952131e+002, 1.547612e+001
4.956952e+002, 1.559401e+001
4.961773e+002, 1.569554e+001
4.966594e+002, 1.577798e+001
4.971415e+002, 1.582637e+001
4.976237e+002, 1.583317e+001
4.981058e+002, 1.584573e+001
4.985879e+002, 1.595707e+001
4.990700e+002, 1.606031e+001
4.995521e+002, 1.591576e+001
5.000342e+002, 1.534435e+001
5.005164e+002, 1.493435e+001
5.009985e+002, 1.512582e+001
5.014806e+002, 1.563422e+001
5.019627e+002, 1.597036e+001
5.024448e+002, 1.603387e+001
5.029269e+002, 1.593869e+001
5.034091e+002, 1.575243e+001
5.038912e+002, 1.546930e+001
5.043733e+002, 1.536271e+001
5.048554e+002, 1.565893e+001
5.053375e+002, 1.585878e+001
5.058196e+002, 1.568679e+001
5.063018e+002, 1.533377e+001
5.067839e+002, 1.509722e+001
5.072660e+002, 1.508301e+001
5.077481e+002, 1.518004e+001
5.082302e+002, 1.522081e+001
5.087123e+002, 1.518822e+001
5.091945e+002, 1.516127e+001
5.096766e+002, 1.516520e+001
5.101587e+002, 1.514942e+001
5.106408e+002, 1.504631e+001
5.111229e+002, 1.491577e+001
5.116050e+002, 1.489122e+001
5.120872e+002, 1.506529e+001
5.125693e+002, 1.528988e+001
5.130514e+002, 1.528324e+001
5.135335e+002, 1.501767e+001
5.140156e+002, 1.471938e+001
5.144977e+002, 1.430522e+001
5.149799e+002, 1.401408e+001
5.154620e+002, 1.413961e+001
5.159441e+002, 1.460765e+001
5.164262e+002, 1.492393e+001
5.169083e+002, 1.477310e+001
5.173904e+002, 1.442087e+001
5.178726e+002, 1.418972e+001
5.183547e+002, 1.407927e+001
5.188368e+002, 1.398892e+001
5.193189e+002, 1.384882e+001
5.198010e+002, 1.372714e+001
5.202831e+002, 1.381629e+001
5.207653e+002, 1.421099e+001
5.212474e+002, 1.449571e+001
5.217295e+002, 1.453701e+001
5.222116e+002, 1.448458e+001
5.226937e+002, 1.444663e+001
5.231758e+002, 1.443989e+001
5.236580e+002, 1.446427e+001
5.241401e+002, 1.453066e+001
5.246222e+002, 1.461343e+001
5.251043e+002, 1.457092e+001
5.255864e+002, 1.421760e+001
5.260685e+002, 1.400757e+001
5.265507e+002, 1.403441e+001
5.270328e+002, 1.417254e+001
5.275149e+002, 1.436683e+001
5.279970e+002, 1.458198e+001
5.284791e+002, 1.474136e+001
5.289612e+002, 1.475486e+001
5.294434e+002, 1.465044e+001
5.299255e+002, 1.459975e+001
5.304076e+002, 1.461785e+001
5.308897e+002, 1.465545e+001
5.313718e+002, 1.472913e+001
5.318539e+002, 1.479347e+001
5.323361e+002, 1.478496e+001
5.328182e+002, 1.468212e+001
5.333003e+002, 1.459191e+001
5.337824e+002, 1.460648e+001
5.342645e+002, 1.467907e+001
5.347466e+002, 1.472606e+001
5.352288e+002, 1.474055e+001
5.357109e+002, 1.466909e+001
5.361930e+002, 1.441780e+001
5.366751e+002, 1.404169e+001
5.371572e+002, 1.387727e+001
5.376393e+002, 1.415071e+001
5.381215e+002, 1.433890e+001
5.386036e+002, 1.418487e+001
5.390857e+002, 1.391463e+001
5.395678e+002, 1.382654e+001
5.400499e+002, 1.397265e+001
5.405320e+002, 1.418281e+001
5.410142e+002, 1.428138e+001
5.414963e+002, 1.426530e+001
5.419784e+002, 1.424082e+001
5.424604e+002, 1.419513e+001
5.429426e+002, 1.415634e+001
5.434247e+002, 1.414683e+001
5.439068e+002, 1.413906e+001
5.443889e+002, 1.410847e+001
5.448710e+002, 1.404729e+001
5.453531e+002, 1.394828e+001
5.458353e+002, 1.376443e+001
5.463174e+002, 1.351053e+001
5.467995e+002, 1.337747e+001
5.472816e+002, 1.340145e+001
5.477637e+002, 1.349061e+001
5.482458e+002, 1.364644e+001
5.487280e+002, 1.381775e+001
5.492101e+002, 1.391627e+001
5.496922e+002, 1.390918e+001
5.501743e+002, 1.386604e+001
5.506564e+002, 1.382378e+001
5.511385e+002, 1.377805e+001
5.516207e+002, 1.370645e+001
5.521028e+002, 1.360306e+001
5.525849e+002, 1.352121e+001
5.530670e+002, 1.350673e+001
5.535491e+002, 1.356044e+001
5.540313e+002, 1.367668e+001
5.545134e+002, 1.395986e+001
5.549955e+002, 1.417160e+001
5.554776e+002, 1.420441e+001
5.559597e+002, 1.414989e+001
5.564418e+002, 1.411386e+001
5.569240e+002, 1.412646e+001
5.574061e+002, 1.416394e+001
5.578882e+002, 1.421845e+001
5.583703e+002, 1.429472e+001
5.588524e+002, 1.424154e+001
5.593345e+002, 1.393827e+001
5.598167e+002, 1.367802e+001
5.602988e+002, 1.355393e+001
5.607809e+002, 1.352369e+001
5.612630e+002, 1.353966e+001
5.617451e+002, 1.359103e+001
5.622272e+002, 1.367777e+001
5.627094e+002, 1.382212e+001
5.631915e+002, 1.400320e+001
5.636736e+002, 1.416362e+001
5.641557e+002, 1.430673e+001
5.646378e+002, 1.437237e+001
5.651199e+002, 1.425323e+001
5.656021e+002, 1.402220e+001
5.660842e+002, 1.399890e+001
5.665663e+002, 1.445785e+001
5.670484e+002, 1.473339e+001
5.675305e+002, 1.444081e+001
5.680126e+002, 1.391521e+001
5.684948e+002, 1.352527e+001
5.689769e+002, 1.335844e+001
5.694590e+002, 1.339802e+001
5.699411e+002, 1.366447e+001
5.704232e+002, 1.413864e+001
5.709053e+002, 1.443370e+001
5.713875e+002, 1.446640e+001
5.718696e+002, 1.441981e+001
5.723517e+002, 1.422387e+001
5.728338e+002, 1.402635e+001
5.733159e+002, 1.399848e+001
5.737980e+002, 1.414710e+001
5.742802e+002, 1.428775e+001
5.747623e+002, 1.422083e+001
5.752444e+002, 1.400745e+001
5.757265e+002, 1.391552e+001
5.762086e+002, 1.397372e+001
5.766907e+002, 1.403150e+001
5.771729e+002, 1.399678e+001
5.776550e+002, 1.393316e+001
5.781371e+002, 1.397816e+001
5.786192e+002, 1.419129e+001
5.791013e+002, 1.425251e+001
5.795834e+002, 1.384511e+001
5.800656e+002, 1.333868e+001
5.805477e+002, 1.320196e+001
5.810298e+002, 1.342403e+001
5.815119e+002, 1.365314e+001
5.819940e+002, 1.365856e+001
5.824761e+002, 1.352420e+001
5.829583e+002, 1.354242e+001
5.834404e+002, 1.394654e+001
5.839225e+002, 1.414460e+001
5.844046e+002, 1.391298e+001
5.848867e+002, 1.366458e+001
5.853688e+002, 1.373252e+001
5.858510e+002, 1.403955e+001
5.863331e+002, 1.426560e+001
5.868152e+002, 1.419624e+001
5.872973e+002, 1.394780e+001
5.877794e+002, 1.375918e+001
5.882615e+002, 1.362296e+001
5.887437e+002, 1.360556e+001
5.892258e+002, 1.378774e+001
5.897079e+002, 1.402584e+001
5.901900e+002, 1.422911e+001
5.906721e+002, 1.438628e+001
5.911542e+002, 1.440894e+001
5.916364e+002, 1.410116e+001
5.921185e+002, 1.379110e+001
5.926006e+002, 1.383129e+001
5.930827e+002, 1.410684e+001
5.935648e+002, 1.425607e+001
5.940469e+002, 1.414268e+001
5.945291e+002, 1.391895e+001
5.950112e+002, 1.379472e+001
5.954933e+002, 1.379429e+001
5.959754e+002, 1.378523e+001
5.964575e+002, 1.372814e+001
5.969396e+002, 1.370729e+001
5.974218e+002, 1.375504e+001
5.979039e+002, 1.385663e+001
5.983860e+002, 1.402688e+001
5.988681e+002, 1.426425e+001
5.993502e+002, 1.444188e+001
5.998323e+002, 1.434024e+001
6.003145e+002, 1.397447e+001
6.007966e+002, 1.380192e+001
6.012787e+002, 1.392527e+001
6.017608e+002, 1.406495e+001
6.022429e+002, 1.405584e+001
6.027250e+002, 1.396284e+001
6.032072e+002, 1.387403e+001
6.036893e+002, 1.379266e+001
6.041714e+002, 1.373553e+001
6.046535e+002, 1.372471e+001
6.051356e+002, 1.373692e+001
6.056177e+002, 1.373709e+001
6.060999e+002, 1.372215e+001
6.065820e+002, 1.370800e+001
6.070641e+002, 1.370296e+001
6.075462e+002, 1.371126e+001
6.080283e+002, 1.375437e+001
6.085104e+002, 1.390552e+001
6.089926e+002, 1.398438e+001
6.094747e+002, 1.385427e+001
6.099568e+002, 1.375754e+001
6.104389e+002, 1.394589e+001
6.109210e+002, 1.433919e+001
6.114031e+002, 1.462222e+001
6.118853e+002, 1.457299e+001
6.123674e+002, 1.433037e+001
6.128495e+002, 1.416075e+001
6.133316e+002, 1.406255e+001
6.138137e+002, 1.406725e+001
6.142958e+002, 1.427327e+001
6.147780e+002, 1.446482e+001
6.152601e+002, 1.434984e+001
6.157422e+002, 1.399212e+001
6.162243e+002, 1.379075e+001
6.167064e+002, 1.399060e+001
6.171885e+002, 1.420811e+001
6.176707e+002, 1.413763e+001
6.181528e+002, 1.391760e+001
6.186349e+002, 1.384411e+001
6.191170e+002, 1.400299e+001
6.195991e+002, 1.425720e+001
6.200812e+002, 1.445822e+001
6.205634e+002, 1.460907e+001
6.210455e+002, 1.467029e+001
6.215276e+002, 1.459761e+001
6.220097e+002, 1.448332e+001
6.224918e+002, 1.430764e+001
6.229739e+002, 1.412255e+001
6.234561e+002, 1.397326e+001
6.239382e+002, 1.387142e+001
6.244203e+002, 1.381664e+001
6.249023e+002, 1.385063e+001
6.253845e+002, 1.392616e+001
6.258666e+002, 1.388949e+001
6.263487e+002, 1.372445e+001
6.268308e+002, 1.361293e+001
6.273129e+002, 1.366371e+001
6.277950e+002, 1.379081e+001
6.282772e+002, 1.380997e+001
6.287593e+002, 1.367817e+001
6.292414e+002, 1.365575e+001
6.297235e+002, 1.385910e+001
6.302056e+002, 1.411360e+001
6.306877e+002, 1.435266e+001
6.311699e+002, 1.453977e+001
6.316520e+002, 1.459740e+001
6.321341e+002, 1.448941e+001
6.326162e+002, 1.432238e+001
6.330983e+002, 1.428469e+001
6.335804e+002, 1.440631e+001
6.340626e+002, 1.450538e+001
6.345447e+002, 1.459160e+001
6.350268e+002, 1.463607e+001
6.355089e+002, 1.459536e+001
6.359910e+002, 1.451971e+001
6.364731e+002, 1.448566e+001
6.369553e+002, 1.451459e+001
6.374374e+002, 1.457126e+001
6.379195e+002, 1.466231e+001
6.384016e+002, 1.475396e+001
6.388837e+002, 1.477733e+001
6.393658e+002, 1.472563e+001
6.398480e+002, 1.463825e+001
6.403301e+002, 1.452845e+001
6.408122e+002, 1.441560e+001
6.412943e+002, 1.436414e+001
6.417764e+002, 1.438610e+001
6.422585e+002, 1.445852e+001
6.427407e+002, 1.467181e+001
6.432228e+002, 1.485491e+001
6.437049e+002, 1.487387e+001
6.441870e+002, 1.477173e+001
6.446691e+002, 1.468707e+001
6.451512e+002, 1.470169e+001
6.456334e+002, 1.472440e+001
6.461155e+002, 1.453889e+001
6.465976e+002, 1.414870e+001
6.470797e+002, 1.402915e+001
6.475618e+002, 1.437947e+001
6.480439e+002, 1.473630e+001
6.485261e+002, 1.468023e+001
6.490082e+002, 1.434617e+001
6.494903e+002, 1.416191e+001
6.499724e+002, 1.427135e+001
6.504545e+002, 1.436063e+001
6.509366e+002, 1.426287e+001
6.514188e+002, 1.410283e+001
6.519009e+002, 1.400154e+001
6.523830e+002, 1.398858e+001
6.528651e+002, 1.410396e+001
6.533472e+002, 1.440567e+001
6.538293e+002, 1.479679e+001
6.543115e+002, 1.487766e+001
6.547936e+002, 1.444332e+001
6.552757e+002, 1.419597e+001
6.557578e+002, 1.438827e+001
6.562399e+002, 1.466074e+001
6.567220e+002, 1.488142e+001
6.572042e+002, 1.502418e+001
6.576863e+002, 1.503971e+001
6.581684e+002, 1.485554e+001
6.586505e+002, 1.462506e+001
6.591326e+002, 1.445566e+001
6.596147e+002, 1.435693e+001
6.600969e+002, 1.438237e+001
6.605790e+002, 1.454722e+001
6.610611e+002, 1.472145e+001
6.615432e+002, 1.479108e+001
6.620253e+002, 1.476555e+001
6.625074e+002, 1.474567e+001
6.629896e+002, 1.470152e+001
6.634717e+002, 1.470405e+001
6.639538e+002, 1.482418e+001
6.644359e+002, 1.494381e+001
6.649180e+002, 1.494205e+001
6.654001e+002, 1.484440e+001
6.658823e+002, 1.478216e+001
6.663644e+002, 1.484226e+001
6.668465e+002, 1.497384e+001
6.673286e+002, 1.512008e+001
6.678107e+002, 1.527755e+001
6.682928e+002, 1.530211e+001
6.687750e+002, 1.511187e+001
6.692571e+002, 1.490242e+001
6.697392e+002, 1.488359e+001
6.702213e+002, 1.503010e+001
6.707034e+002, 1.507168e+001
6.711855e+002, 1.484495e+001
6.716677e+002, 1.470874e+001
6.721498e+002, 1.485535e+001
6.726319e+002, 1.510328e+001
6.731140e+002, 1.526182e+001
6.735961e+002, 1.530755e+001
6.740782e+002, 1.531737e+001
6.745604e+002, 1.534505e+001
6.750425e+002, 1.538888e+001
6.755246e+002, 1.545724e+001
6.760067e+002, 1.557136e+001
6.764888e+002, 1.560654e+001
6.769709e+002, 1.543862e+001
6.774531e+002, 1.529929e+001
6.779352e+002, 1.539745e+001
6.784173e+002, 1.567699e+001
6.788994e+002, 1.594659e+001
6.793815e+002, 1.629435e+001
6.798636e+002, 1.645366e+001
6.803458e+002, 1.605884e+001
6.808279e+002, 1.545438e+001
6.813100e+002, 1.521681e+001
6.817921e+002, 1.542081e+001
6.822742e+002, 1.571828e+001
6.827563e+002, 1.582443e+001
6.832385e+002, 1.578849e+001
6.837206e+002, 1.587391e+001
6.842027e+002, 1.621439e+001
6.846848e+002, 1.638272e+001
6.851669e+002, 1.615578e+001
6.856490e+002, 1.588612e+001
6.861312e+002, 1.574937e+001
6.866133e+002, 1.573817e+001
6.870954e+002, 1.580162e+001
6.875775e+002, 1.596219e+001
6.880596e+002, 1.611807e+001
6.885417e+002, 1.617123e+001
6.890239e+002, 1.615177e+001
6.895060e+002, 1.612663e+001
6.899881e+002, 1.610802e+001
6.904702e+002, 1.607242e+001
6.909523e+002, 1.598458e+001
6.914344e+002, 1.587654e+001
6.919166e+002, 1.591578e+001
6.923987e+002, 1.627242e+001
6.928808e+002, 1.650432e+001
6.933629e+002, 1.657765e+001
6.938450e+002, 1.654099e+001
6.943271e+002, 1.631409e+001
6.948093e+002, 1.600752e+001
6.952914e+002, 1.589459e+001
6.957735e+002, 1.614325e+001
6.962556e+002, 1.647285e+001
6.967377e+002, 1.656417e+001
6.972198e+002, 1.647488e+001
6.977020e+002, 1.641703e+001
6.981841e+002, 1.642604e+001
6.986662e+002, 1.639944e+001
6.991483e+002, 1.623541e+001
6.996304e+002, 1.599881e+001
7.001125e+002, 1.594182e+001
7.005947e+002, 1.628674e+001
7.010768e+002, 1.647112e+001
7.015589e+002, 1.643299e+001
7.020410e+002, 1.628416e+001
7.025231e+002, 1.598044e+001
7.030052e+002, 1.563834e+001
7.034874e+002, 1.549768e+001
7.039695e+002, 1.567779e+001
7.044516e+002, 1.594162e+001
7.049337e+002, 1.600616e+001
7.054158e+002, 1.590077e+001
7.058979e+002, 1.572501e+001
7.063801e+002, 1.546033e+001
7.068622e+002, 1.533663e+001
7.073442e+002, 1.555137e+001
7.078264e+002, 1.594982e+001
7.083085e+002, 1.613349e+001
7.087906e+002, 1.602688e+001
7.092727e+002, 1.591168e+001
7.097548e+002, 1.576312e+001
7.102369e+002, 1.565200e+001
7.107191e+002, 1.567392e+001
7.112012e+002, 1.574875e+001
7.116833e+002, 1.572093e+001
7.121654e+002, 1.553590e+001
7.126475e+002, 1.531252e+001
7.131296e+002, 1.516159e+001
7.136118e+002, 1.508647e+001
7.140939e+002, 1.509841e+001
7.145760e+002, 1.519419e+001
7.150581e+002, 1.541995e+001
7.155402e+002, 1.589520e+001
7.160223e+002, 1.640992e+001
7.165045e+002, 1.658427e+001
7.169866e+002, 1.637257e+001
7.174687e+002, 1.614519e+001
7.179508e+002, 1.587324e+001
7.184329e+002, 1.565551e+001
7.189150e+002, 1.552475e+001
7.193972e+002, 1.548600e+001
7.198793e+002, 1.557706e+001
7.203614e+002, 1.578977e+001
7.208435e+002, 1.600446e+001
7.213256e+002, 1.611003e+001
7.218077e+002, 1.612157e+001
7.222899e+002, 1.607415e+001
7.227720e+002, 1.595269e+001
7.232541e+002, 1.590558e+001
7.237362e+002, 1.602498e+001
7.242183e+002, 1.616953e+001
7.247004e+002, 1.614939e+001
7.251826e+002, 1.596892e+001
7.256647e+002, 1.586939e+001
7.261468e+002, 1.590861e+001
7.266289e+002, 1.597636e+001
7.271110e+002, 1.602403e+001
7.275931e+002, 1.608461e+001
7.280753e+002, 1.626454e+001
7.285574e+002, 1.652285e+001
7.290395e+002, 1.661254e+001
7.295216e+002, 1.629536e+001
7.300037e+002, 1.579771e+001
7.304858e+002, 1.569234e+001
7.309680e+002, 1.599724e+001
7.314501e+002, 1.616613e+001
7.319322e+002, 1.604978e+001
7.324143e+002, 1.588104e+001
7.328964e+002, 1.584723e+001
7.333785e+002, 1.592371e+001
7.338607e+002, 1.596669e+001
7.343428e+002, 1.593225e+001
7.348249e+002, 1.593179e+001
7.353070e+002, 1.603933e+001
7.357891e+002, 1.614808e+001
7.362712e+002, 1.618730e+001
7.367534e+002, 1.614853e+001
7.372355e+002, 1.601685e+001
7.377176e+002, 1.577350e+001
7.381997e+002, 1.553468e+001
7.386818e+002, 1.549100e+001
7.391639e+002, 1.562253e+001
7.396461e+002, 1.575639e+001
7.401282e+002, 1.589786e+001
7.406103e+002, 1.595009e+001
7.410924e+002, 1.583329e+001
7.415745e+002, 1.561047e+001
7.420566e+002, 1.539379e+001
7.425388e+002, 1.512549e+001
7.430209e+002, 1.505289e+001
7.435030e+002, 1.532871e+001
7.439851e+002, 1.566701e+001
7.444672e+002, 1.603644e+001
7.449493e+002, 1.632321e+001
7.454315e+002, 1.632975e+001
7.459136e+002, 1.602162e+001
7.463957e+002, 1.564333e+001
7.468778e+002, 1.539750e+001
7.473599e+002, 1.527188e+001
7.478420e+002, 1.526706e+001
7.483242e+002, 1.538706e+001
7.488063e+002, 1.543883e+001
7.492884e+002, 1.531718e+001
7.497705e+002, 1.520506e+001
7.502526e+002, 1.533953e+001
7.507347e+002, 1.573828e+001
7.512169e+002, 1.604906e+001
7.516990e+002, 1.628965e+001
7.521811e+002, 1.642713e+001
7.526632e+002, 1.644036e+001
7.531453e+002, 1.635822e+001
7.536274e+002, 1.614031e+001
7.541096e+002, 1.584184e+001
7.545917e+002, 1.563155e+001
7.550738e+002, 1.560194e+001
7.555559e+002, 1.571084e+001
7.560380e+002, 1.602724e+001
7.565201e+002, 1.645389e+001
7.570023e+002, 1.648450e+001
7.574844e+002, 1.601270e+001
7.579665e+002, 1.554003e+001
7.584486e+002, 1.542632e+001
7.589307e+002, 1.557303e+001
7.594128e+002, 1.564580e+001
7.598950e+002, 1.554792e+001
7.603771e+002, 1.555387e+001
7.608592e+002, 1.580362e+001
7.613413e+002, 1.600257e+001
7.618234e+002, 1.598479e+001
7.623055e+002, 1.583350e+001
7.627877e+002, 1.566602e+001
7.632698e+002, 1.551114e+001
7.637519e+002, 1.542647e+001
7.642340e+002, 1.551409e+001
7.647161e+002, 1.566797e+001
7.651982e+002, 1.567960e+001
7.656804e+002, 1.558220e+001
7.661625e+002, 1.564781e+001
7.666446e+002, 1.599903e+001
7.671267e+002, 1.631327e+001
7.676088e+002, 1.612074e+001
7.680909e+002, 1.538857e+001
7.685731e+002, 1.497127e+001
7.690552e+002, 1.502765e+001
7.695373e+002, 1.514159e+001
7.700194e+002, 1.523602e+001
7.705015e+002, 1.534028e+001
7.709836e+002, 1.550218e+001
7.714658e+002, 1.570209e+001
7.719479e+002, 1.583813e+001
7.724300e+002, 1.581570e+001
7.729121e+002, 1.579872e+001
7.733942e+002, 1.597557e+001
7.738763e+002, 1.619886e+001
7.743585e+002, 1.619308e+001
7.748406e+002, 1.596146e+001
7.753227e+002, 1.574433e+001
7.758048e+002, 1.569367e+001
7.762869e+002, 1.578685e+001
7.767690e+002, 1.601478e+001
7.772512e+002, 1.642455e+001
7.777333e+002, 1.665372e+001
7.782154e+002, 1.663950e+001
7.786975e+002, 1.651411e+001
7.791796e+002, 1.625301e+001
7.796617e+002, 1.596538e+001
7.801439e+002, 1.584188e+001
7.806260e+002, 1.591209e+001
7.811081e+002, 1.601923e+001
7.815902e+002, 1.617673e+001
7.820723e+002, 1.630801e+001
7.825544e+002, 1.639776e+001
7.830366e+002, 1.641524e+001
7.835187e+002, 1.627199e+001
7.840008e+002, 1.596957e+001
7.844829e+002, 1.568344e+001
7.849650e+002, 1.558457e+001
7.854471e+002, 1.561928e+001
7.859293e+002, 1.563410e+001
7.864114e+002, 1.562860e+001
7.868935e+002, 1.562963e+001
7.873756e+002, 1.564761e+001
7.878577e+002, 1.566072e+001
7.883398e+002, 1.563826e+001
7.888220e+002, 1.558972e+001
7.893040e+002, 1.559640e+001
7.897861e+002, 1.566732e+001
7.902682e+002, 1.577803e+001
7.907504e+002, 1.608526e+001
7.912325e+002, 1.628520e+001
7.917146e+002, 1.607948e+001
7.921967e+002, 1.563330e+001
7.926788e+002, 1.529669e+001
7.931609e+002, 1.519434e+001
7.936431e+002, 1.523305e+001
7.941252e+002, 1.538812e+001
7.946073e+002, 1.560519e+001
7.950894e+002, 1.580065e+001
7.955715e+002, 1.596406e+001
7.960536e+002, 1.606100e+001
7.965358e+002, 1.607570e+001
7.970179e+002, 1.603524e+001
7.975000e+002, 1.595594e+001
7.979821e+002, 1.582931e+001
7.984642e+002, 1.588982e+001
7.989464e+002, 1.632119e+001
7.994285e+002, 1.660706e+001
7.999106e+002, 1.653936e+001
8.003927e+002, 1.634175e+001
8.008748e+002, 1.612250e+001
8.013569e+002, 1.590532e+001
8.018391e+002, 1.576851e+001
8.023212e+002, 1.574405e+001
8.028033e+002, 1.578679e+001
8.032854e+002, 1.592700e+001
8.037675e+002, 1.608866e+001
8.042496e+002, 1.618668e+001
8.047318e+002, 1.621733e+001
8.052139e+002, 1.619645e+001
8.056960e+002, 1.612760e+001
8.061781e+002, 1.607691e+001
8.066602e+002, 1.621594e+001
8.071423e+002, 1.651639e+001
8.076245e+002, 1.653917e+001
8.081066e+002, 1.621231e+001
8.085887e+002, 1.587847e+001
8.090708e+002, 1.566304e+001
8.095529e+002, 1.555438e+001
8.100350e+002, 1.554654e+001
8.105172e+002, 1.565288e+001
8.109993e+002, 1.578398e+001
8.114814e+002, 1.596554e+001
8.119635e+002, 1.613804e+001
8.124456e+002, 1.633657e+001
8.129277e+002, 1.648167e+001
8.134099e+002, 1.643531e+001
8.138920e+002, 1.624889e+001
8.143741e+002, 1.617162e+001
8.148562e+002, 1.639815e+001
8.153383e+002, 1.663043e+001
8.158204e+002, 1.646233e+001
8.163026e+002, 1.608863e+001
8.167847e+002, 1.596212e+001
8.172668e+002, 1.611609e+001
8.177489e+002, 1.632452e+001
8.182310e+002, 1.646982e+001
8.187131e+002, 1.652732e+001
8.191953e+002, 1.642191e+001
8.196774e+002, 1.610982e+001
8.201595e+002, 1.591317e+001
8.206416e+002, 1.587137e+001
8.211237e+002, 1.586856e+001
8.216058e+002, 1.588404e+001
8.220880e+002, 1.590233e+001
8.225701e+002, 1.591127e+001
8.230522e+002, 1.591013e+001
8.235343e+002, 1.588617e+001
8.240164e+002, 1.575799e+001
8.244985e+002, 1.570110e+001
8.249807e+002, 1.586345e+001
8.254628e+002, 1.609054e+001
8.259449e+002, 1.620310e+001
8.264270e+002, 1.620428e+001
8.269091e+002, 1.622446e+001
8.273912e+002, 1.635466e+001
8.278734e+002, 1.645008e+001
8.283555e+002, 1.619686e+001
8.288376e+002, 1.572063e+001
8.293197e+002, 1.558891e+001
8.298018e+002, 1.585300e+001
8.302839e+002, 1.618256e+001
8.307661e+002, 1.644882e+001
8.312482e+002, 1.658574e+001
8.317303e+002, 1.644910e+001
8.322124e+002, 1.597353e+001
8.326945e+002, 1.570686e+001
8.331766e+002, 1.575514e+001
8.336588e+002, 1.586725e+001
8.341409e+002, 1.608372e+001
8.346230e+002, 1.626093e+001
8.351051e+002, 1.620878e+001
8.355872e+002, 1.598976e+001
8.360693e+002, 1.593420e+001
8.365515e+002, 1.626988e+001
8.370336e+002, 1.658301e+001
8.375157e+002, 1.664769e+001
8.379978e+002, 1.657001e+001
8.384799e+002, 1.641732e+001
8.389620e+002, 1.623910e+001
8.394442e+002, 1.613840e+001
8.399263e+002, 1.616435e+001
8.404084e+002, 1.623341e+001
8.408905e+002, 1.624416e+001
8.413726e+002, 1.619963e+001
8.418547e+002, 1.611444e+001
8.423369e+002, 1.598908e+001
8.428190e+002, 1.581002e+001
8.433011e+002, 1.554077e+001
8.437832e+002, 1.530929e+001
8.442653e+002, 1.527273e+001
8.447474e+002, 1.542669e+001
8.452296e+002, 1.559495e+001
8.457117e+002, 1.587000e+001
8.461938e+002, 1.601893e+001
8.466759e+002, 1.588237e+001
8.471580e+002, 1.574962e+001
8.476401e+002, 1.586673e+001
8.481223e+002, 1.611608e+001
8.486044e+002, 1.619514e+001
8.490865e+002, 1.598165e+001
8.495686e+002, 1.580096e+001
8.500507e+002, 1.590579e+001
8.505328e+002, 1.606689e+001
8.510150e+002, 1.600335e+001
8.514971e+002, 1.581073e+001
8.519792e+002, 1.578039e+001
8.524613e+002, 1.598001e+001
8.529434e+002, 1.614701e+001
8.534255e+002, 1.598552e+001
8.539077e+002, 1.562587e+001
8.543898e+002, 1.549234e+001
8.548719e+002, 1.558433e+001
8.553540e+002, 1.567861e+001
8.558361e+002, 1.573662e+001
8.563182e+002, 1.576266e+001
8.568004e+002, 1.574844e+001
8.572825e+002, 1.571271e+001
8.577646e+002, 1.572137e+001
8.582467e+002, 1.583909e+001
8.587288e+002, 1.585924e+001
8.592109e+002, 1.562911e+001
8.596931e+002, 1.548229e+001
8.601752e+002, 1.561397e+001
8.606573e+002, 1.584842e+001
8.611394e+002, 1.597744e+001
8.616215e+002, 1.597843e+001
8.621036e+002, 1.594710e+001
8.625858e+002, 1.592102e+001
8.630679e+002, 1.587642e+001
8.635500e+002, 1.572773e+001
8.640321e+002, 1.558745e+001
8.645142e+002, 1.562712e+001
8.649963e+002, 1.584543e+001
8.654785e+002, 1.616681e+001
8.659606e+002, 1.657180e+001
8.664427e+002, 1.686781e+001
8.669248e+002, 1.661441e+001
8.674069e+002, 1.595562e+001
8.678890e+002, 1.571738e+001
8.683712e+002, 1.596083e+001
8.688533e+002, 1.616057e+001
8.693354e+002, 1.609198e+001
8.698175e+002, 1.591154e+001
8.702996e+002, 1.582450e+001
8.707817e+002, 1.583151e+001
8.712639e+002, 1.582780e+001
8.717459e+002, 1.583401e+001
8.722280e+002, 1.579303e+001
8.727101e+002, 1.563247e+001
8.731923e+002, 1.548100e+001
8.736744e+002, 1.543980e+001
8.741565e+002, 1.546450e+001
8.746386e+002, 1.543772e+001
8.751207e+002, 1.532014e+001
8.756028e+002, 1.521536e+001
8.760850e+002, 1.511331e+001
8.765671e+002, 1.508173e+001
8.770492e+002, 1.529851e+001
8.775313e+002, 1.557259e+001
8.780134e+002, 1.548953e+001
8.784955e+002, 1.501841e+001
8.789777e+002, 1.468777e+001
8.794598e+002, 1.502772e+001
8.799419e+002, 1.560414e+001
8.804240e+002, 1.564619e+001
8.809061e+002, 1.530399e+001
8.813882e+002, 1.513803e+001
8.818704e+002, 1.523139e+001
8.823525e+002, 1.537907e+001
8.828346e+002, 1.547142e+001
8.833167e+002, 1.545191e+001
8.837988e+002, 1.512630e+001
8.842809e+002, 1.439660e+001
8.847631e+002, 1.413820e+001
8.852452e+002, 1.457057e+001
8.857273e+002, 1.493191e+001
8.862094e+002, 1.492799e+001
8.866915e+002, 1.477120e+001
8.871736e+002, 1.466547e+001
8.876558e+002, 1.461202e+001
8.881379e+002, 1.462083e+001
8.886200e+002, 1.481496e+001
8.891021e+002, 1.489806e+001
8.895842e+002, 1.466584e+001
8.900663e+002, 1.445133e+001
8.905485e+002, 1.453394e+001
8.910306e+002, 1.479487e+001
8.915127e+002, 1.498622e+001
8.919948e+002, 1.504179e+001
8.924769e+002, 1.501350e+001
8.929590e+002, 1.491669e+001
8.934412e+002, 1.476749e+001
8.939233e+002, 1.452346e+001
8.944054e+002, 1.425711e+001
8.948875e+002, 1.413571e+001
8.953696e+002, 1.417945e+001
8.958517e+002, 1.426203e+001
8.963339e+002, 1.429321e+001
8.968160e+002, 1.429371e+001
8.972981e+002, 1.431253e+001
8.977802e+002, 1.434389e+001
8.982623e+002, 1.430579e+001
8.987444e+002, 1.417971e+001
8.992266e+002, 1.413599e+001
8.997087e+002, 1.427563e+001
9.001908e+002, 1.448252e+001
9.006729e+002, 1.459484e+001
9.011550e+002, 1.461252e+001
9.016371e+002, 1.451887e+001
9.021193e+002, 1.414876e+001
9.026014e+002, 1.397691e+001
9.030835e+002, 1.430286e+001
9.035656e+002, 1.464636e+001
9.040477e+002, 1.468463e+001
9.045298e+002, 1.449043e+001
9.050120e+002, 1.422395e+001
9.054941e+002, 1.381710e+001
9.059762e+002, 1.358423e+001
9.064583e+002, 1.370849e+001
9.069404e+002, 1.391586e+001
9.074225e+002, 1.412463e+001
9.079047e+002, 1.427177e+001
9.083868e+002, 1.424567e+001
9.088689e+002, 1.406191e+001
9.093510e+002, 1.391243e+001
9.098331e+002, 1.389422e+001
9.103152e+002, 1.398378e+001
9.107974e+002, 1.420074e+001
9.112795e+002, 1.449088e+001
9.117616e+002, 1.481794e+001
9.122437e+002, 1.512854e+001
9.127258e+002, 1.524396e+001
9.132079e+002, 1.507896e+001
9.136901e+002, 1.474533e+001
9.141722e+002, 1.429616e+001
9.146543e+002, 1.380422e+001
9.151364e+002, 1.375083e+001
9.156185e+002, 1.415431e+001
9.161006e+002, 1.446558e+001
9.165828e+002, 1.454316e+001
9.170649e+002, 1.451424e+001
9.175470e+002, 1.445248e+001
9.180291e+002, 1.439573e+001
9.185112e+002, 1.451442e+001
9.189933e+002, 1.502867e+001
9.194755e+002, 1.513979e+001
9.199576e+002, 1.449994e+001
9.204397e+002, 1.395586e+001
9.209218e+002, 1.397927e+001
9.214039e+002, 1.417452e+001
9.218860e+002, 1.409017e+001
9.223682e+002, 1.373422e+001
9.228503e+002, 1.347427e+001
9.233324e+002, 1.336496e+001
9.238145e+002, 1.335153e+001
9.242966e+002, 1.343468e+001
9.247787e+002, 1.359504e+001
9.252609e+002, 1.394217e+001
9.257430e+002, 1.432159e+001
9.262251e+002, 1.438207e+001
9.267072e+002, 1.401144e+001
9.271893e+002, 1.366514e+001
9.276714e+002, 1.369430e+001
9.281536e+002, 1.384793e+001
9.286357e+002, 1.389118e+001
9.291178e+002, 1.385979e+001
9.295999e+002, 1.383687e+001
9.300820e+002, 1.383385e+001
9.305641e+002, 1.379785e+001
9.310463e+002, 1.368255e+001
9.315284e+002, 1.359061e+001
9.320105e+002, 1.374473e+001
9.324926e+002, 1.406546e+001
9.329747e+002, 1.419112e+001
9.334568e+002, 1.411593e+001
9.339390e+002, 1.411337e+001
9.344211e+002, 1.429595e+001
9.349032e+002, 1.445642e+001
9.353853e+002, 1.435306e+001
9.358674e+002, 1.403950e+001
9.363495e+002, 1.382269e+001
9.368317e+002, 1.370404e+001
9.373138e+002, 1.368428e+001
9.377959e+002, 1.379688e+001
9.382780e+002, 1.394094e+001
9.387601e+002, 1.411582e+001
9.392422e+002, 1.424326e+001
9.397244e+002, 1.414137e+001
9.402065e+002, 1.373158e+001
9.406886e+002, 1.355704e+001
9.411707e+002, 1.383599e+001
9.416528e+002, 1.404190e+001
9.421349e+002, 1.405432e+001
9.426171e+002, 1.398021e+001
9.430992e+002, 1.387106e+001
9.435813e+002, 1.374340e+001
9.440634e+002, 1.361967e+001
9.445455e+002, 1.349386e+001
9.450276e+002, 1.341183e+001
9.455098e+002, 1.337207e+001
9.459919e+002, 1.339948e+001
9.464740e+002, 1.356215e+001
9.469561e+002, 1.377365e+001
9.474382e+002, 1.393478e+001
9.479203e+002, 1.402414e+001
9.484025e+002, 1.405603e+001
9.488846e+002, 1.404247e+001
9.493667e+002, 1.396191e+001
9.498488e+002, 1.370481e+001
9.503309e+002, 1.341826e+001
9.508130e+002, 1.337987e+001
9.512952e+002, 1.352458e+001
9.517773e+002, 1.355436e+001
9.522594e+002, 1.338154e+001
9.527415e+002, 1.324845e+001
9.532236e+002, 1.343564e+001
9.537057e+002, 1.376661e+001
9.541878e+002, 1.377349e+001
9.546699e+002, 1.351053e+001
9.551520e+002, 1.333795e+001
9.556342e+002, 1.330582e+001
9.561163e+002, 1.330400e+001
9.565984e+002, 1.327435e+001
9.570805e+002, 1.323671e+001
9.575626e+002, 1.322643e+001
9.580447e+002, 1.324254e+001
9.585269e+002, 1.320581e+001
9.590090e+002, 1.306446e+001
9.594911e+002, 1.312241e+001
9.599732e+002, 1.354873e+001
9.604553e+002, 1.395116e+001
9.609374e+002, 1.403559e+001
9.614196e+002, 1.387542e+001
9.619017e+002, 1.365575e+001
9.623838e+002, 1.329439e+001
9.628659e+002, 1.312911e+001
9.633480e+002, 1.329524e+001
9.638301e+002, 1.347618e+001
9.643123e+002, 1.360737e+001
9.647944e+002, 1.370221e+001
9.652765e+002, 1.376344e+001
9.657586e+002, 1.379712e+001
9.662407e+002, 1.383127e+001
9.667228e+002, 1.389615e+001
9.672050e+002, 1.390731e+001
9.676871e+002, 1.376252e+001
9.681692e+002, 1.365043e+001
9.686513e+002, 1.377876e+001
9.691334e+002, 1.394910e+001
9.696155e+002, 1.380182e+001
9.700977e+002, 1.336422e+001
9.705798e+002, 1.316648e+001
9.710619e+002, 1.363186e+001
9.715440e+002, 1.408605e+001
9.720261e+002, 1.403960e+001
9.725082e+002, 1.381825e+001
9.729904e+002, 1.374628e+001
9.734725e+002, 1.379881e+001
9.739546e+002, 1.386192e+001
9.744367e+002, 1.389272e+001
9.749188e+002, 1.385519e+001
9.754009e+002, 1.363762e+001
9.758831e+002, 1.342808e+001
9.763652e+002, 1.358405e+001
9.768473e+002, 1.390564e+001
9.773294e+002, 1.388798e+001
9.778115e+002, 1.355928e+001
9.782936e+002, 1.342500e+001
9.787758e+002, 1.372339e+001
9.792579e+002, 1.405180e+001
9.797400e+002, 1.379359e+001
9.802221e+002, 1.320345e+001
9.807042e+002, 1.325982e+001
9.811863e+002, 1.385895e+001
9.816685e+002, 1.411745e+001
9.821506e+002, 1.386124e+001
9.826327e+002, 1.353544e+001
9.831148e+002, 1.341783e+001
9.835969e+002, 1.345865e+001
9.840790e+002, 1.358095e+001
9.845612e+002, 1.378506e+001
9.850433e+002, 1.400511e+001
9.855254e+002, 1.426252e+001
9.860075e+002, 1.436654e+001
9.864896e+002, 1.418791e+001
9.869717e+002, 1.412964e+001
9.874539e+002, 1.463197e+001
9.879360e+002, 1.539977e+001
9.884181e+002, 1.545187e+001
9.889002e+002, 1.449515e+001
9.893823e+002, 1.387166e+001
9.898644e+002, 1.374736e+001
9.903466e+002, 1.363326e+001
9.908287e+002, 1.332585e+001
9.913108e+002, 1.302408e+001
9.917929e+002, 1.292247e+001
9.922750e+002, 1.299609e+001
9.927571e+002, 1.310060e+001
9.932393e+002, 1.325818e+001
9.937214e+002, 1.340625e+001
9.942035e+002, 1.359806e+001
9.946856e+002, 1.371660e+001
9.951677e+002, 1.368845e+001
9.956498e+002, 1.358415e+001
9.961320e+002, 1.343431e+001
9.966141e+002, 1.326376e+001
9.970962e+002, 1.321295e+001
9.975783e+002, 1.338268e+001
9.980604e+002, 1.354981e+001
9.985425e+002, 1.367525e+001
9.990247e+002, 1.376315e+001
9.995068e+002, 1.376863e+001
9.999889e+002, 1.376183e+001
1.000471e+003, 1.389778e+001
1.000953e+003, 1.416069e+001
1.001435e+003, 1.424655e+001
1.001917e+003, 1.390392e+001
1.002399e+003, 1.354738e+001
1.002882e+003, 1.334079e+001
1.003364e+003, 1.327654e+001
1.003846e+003, 1.349088e+001
1.004328e+003, 1.379263e+001
1.004810e+003, 1.374045e+001
1.005292e+003, 1.328036e+001
1.005774e+003, 1.299475e+001
1.006256e+003, 1.337890e+001
1.006739e+003, 1.391671e+001
1.007221e+003, 1.422097e+001
1.007703e+003, 1.431395e+001
1.008185e+003, 1.411481e+001
1.008667e+003, 1.374239e+001
1.009149e+003, 1.351872e+001
1.009631e+003, 1.354768e+001
1.010113e+003, 1.361234e+001
1.010595e+003, 1.351092e+001
1.011078e+003, 1.334814e+001
1.011560e+003, 1.327217e+001
1.012042e+003, 1.326149e+001
1.012524e+003, 1.325574e+001
1.013006e+003, 1.325948e+001
1.013488e+003, 1.336358e+001
1.013970e+003, 1.360325e+001
1.014452e+003, 1.379079e+001
1.014935e+003, 1.365861e+001
1.015417e+003, 1.336373e+001
1.015899e+003, 1.333577e+001
1.016381e+003, 1.350940e+001
1.016863e+003, 1.356225e+001
1.017345e+003, 1.345807e+001
1.017827e+003, 1.336549e+001
1.018309e+003, 1.336897e+001
1.018791e+003, 1.346734e+001
1.019274e+003, 1.370637e+001
1.019756e+003, 1.402518e+001
1.020238e+003, 1.407472e+001
1.020720e+003, 1.386947e+001
1.021202e+003, 1.383764e+001
1.021684e+003, 1.406508e+001
1.022166e+003, 1.423589e+001
1.022648e+003, 1.416133e+001
1.023130e+003, 1.396382e+001
1.023613e+003, 1.383552e+001
1.024095e+003, 1.377165e+001
1.024577e+003, 1.368770e+001
1.025059e+003, 1.357541e+001
1.025541e+003, 1.353097e+001
1.026023e+003, 1.359698e+001
1.026505e+003, 1.360390e+001
1.026987e+003, 1.341055e+001
1.027469e+003, 1.317280e+001
1.027952e+003, 1.319917e+001
1.028434e+003, 1.350498e+001
1.028916e+003, 1.369503e+001
1.029398e+003, 1.374068e+001
1.029880e+003, 1.378157e+001
1.030362e+003, 1.387647e+001
1.030844e+003, 1.388561e+001
1.031326e+003, 1.366949e+001
1.031809e+003, 1.336196e+001
1.032291e+003, 1.324830e+001
1.032773e+003, 1.336356e+001
1.033255e+003, 1.335870e+001
1.033737e+003, 1.306737e+001
1.034219e+003, 1.304951e+001
1.034701e+003, 1.369129e+001
1.035183e+003, 1.419339e+001
1.035666e+003, 1.388928e+001
1.036148e+003, 1.316869e+001
1.036630e+003, 1.285262e+001
1.037112e+003, 1.301314e+001
1.037594e+003, 1.317593e+001
1.038076e+003, 1.337646e+001
1.038558e+003, 1.351932e+001
1.039040e+003, 1.354650e+001
1.039522e+003, 1.355610e+001
1.040005e+003, 1.365487e+001
1.040487e+003, 1.376631e+001
1.040969e+003, 1.367767e+001
1.041451e+003, 1.329544e+001
1.041933e+003, 1.320679e+001
1.042415e+003, 1.377153e+001
1.042897e+003, 1.414000e+001
1.043379e+003, 1.404049e+001
1.043861e+003, 1.381427e+001
1.044344e+003, 1.355541e+001
1.044826e+003, 1.336777e+001
1.045308e+003, 1.353260e+001
1.045790e+003, 1.416926e+001
1.046272e+003, 1.441705e+001
1.046754e+003, 1.368916e+001
1.047236e+003, 1.324846e+001
1.047718e+003, 1.375547e+001
1.048201e+003, 1.430430e+001
1.048683e+003, 1.413924e+001
1.049165e+003, 1.361587e+001
1.049647e+003, 1.349583e+001
1.050129e+003, 1.391207e+001
1.050611e+003, 1.413014e+001
1.051093e+003, 1.368556e+001
1.051575e+003, 1.346476e+001
1.052057e+003, 1.401828e+001
1.052540e+003, 1.460839e+001
1.053022e+003, 1.467789e+001
1.053504e+003, 1.440465e+001
1.053986e+003, 1.416019e+001
1.054468e+003, 1.399831e+001
1.054950e+003, 1.378126e+001
1.055432e+003, 1.324170e+001
1.055914e+003, 1.295430e+001
1.056396e+003, 1.335025e+001
1.056879e+003, 1.384175e+001
1.057361e+003, 1.401826e+001
1.057843e+003, 1.396204e+001
1.058325e+003, 1.385821e+001
1.058807e+003, 1.373768e+001
1.059289e+003, 1.358070e+001
1.059771e+003, 1.325140e+001
1.060253e+003, 1.305949e+001
1.060736e+003, 1.329443e+001
1.061218e+003, 1.354168e+001
1.061700e+003, 1.340922e+001
1.062182e+003, 1.310299e+001
1.062664e+003, 1.301111e+001
1.063146e+003, 1.318006e+001
1.063628e+003, 1.331914e+001
1.064110e+003, 1.329555e+001
1.064593e+003, 1.326277e+001
1.065075e+003, 1.321378e+001
1.065557e+003, 1.324873e+001
1.066039e+003, 1.359384e+001
1.066521e+003, 1.399946e+001
1.067003e+003, 1.401318e+001
1.067485e+003, 1.362417e+001
1.067967e+003, 1.335006e+001
1.068449e+003, 1.348065e+001
1.068932e+003, 1.358957e+001
1.069414e+003, 1.335411e+001
1.069896e+003, 1.315947e+001
1.070378e+003, 1.342149e+001
1.070860e+003, 1.383856e+001
1.071342e+003, 1.391338e+001
1.071824e+003, 1.364620e+001
1.072306e+003, 1.350579e+001
1.072788e+003, 1.374502e+001
1.073271e+003, 1.394694e+001
1.073753e+003, 1.387344e+001
1.074235e+003, 1.373867e+001
1.074717e+003, 1.365261e+001
1.075199e+003, 1.362870e+001
1.075681e+003, 1.369118e+001
1.076163e+003, 1.382251e+001
1.076645e+003, 1.395306e+001
1.077127e+003, 1.407596e+001
1.077610e+003, 1.414238e+001
1.078092e+003, 1.405570e+001
1.078574e+003, 1.398641e+001
1.079056e+003, 1.409440e+001
1.079538e+003, 1.425447e+001
1.080020e+003, 1.434657e+001
1.080502e+003, 1.434289e+001
1.080984e+003, 1.420659e+001
1.081467e+003, 1.389350e+001
1.081949e+003, 1.361593e+001
1.082431e+003, 1.340734e+001
1.082913e+003, 1.333339e+001
1.083395e+003, 1.353180e+001
1.083877e+003, 1.381111e+001
1.084359e+003, 1.401722e+001
1.084841e+003, 1.411583e+001
1.085323e+003, 1.405192e+001
1.085806e+003, 1.378715e+001
1.086288e+003, 1.360459e+001
1.086770e+003, 1.372577e+001
1.087252e+003, 1.383248e+001
1.087734e+003, 1.369262e+001
1.088216e+003, 1.351993e+001
1.088698e+003, 1.349673e+001
1.089180e+003, 1.360959e+001
1.089662e+003, 1.385982e+001
1.090145e+003, 1.424974e+001
1.090627e+003, 1.439775e+001
1.091109e+003, 1.381925e+001
1.091591e+003, 1.342594e+001
1.092073e+003, 1.386554e+001
1.092555e+003, 1.439183e+001
1.093037e+003, 1.434754e+001
1.093519e+003, 1.400126e+001
1.094002e+003, 1.389497e+001
1.094484e+003, 1.408524e+001
1.094966e+003, 1.415235e+001
1.095448e+003, 1.385481e+001
1.095930e+003, 1.357736e+001
1.096412e+003, 1.341343e+001
1.096894e+003, 1.334336e+001
1.097376e+003, 1.338998e+001
1.097859e+003, 1.349957e+001
1.098341e+003, 1.366059e+001
1.098823e+003, 1.383454e+001
1.099305e+003, 1.381978e+001
1.099787e+003, 1.340430e+001
1.100269e+003, 1.314602e+001
1.100751e+003, 1.323077e+001
1.101233e+003, 1.345538e+001
1.101715e+003, 1.394369e+001
1.102198e+003, 1.435144e+001
1.102680e+003, 1.421610e+001
1.103162e+003, 1.367718e+001
1.103644e+003, 1.333275e+001
1.104126e+003, 1.332190e+001
1.104608e+003, 1.333473e+001
1.105090e+003, 1.333167e+001
1.105572e+003, 1.332566e+001
1.106054e+003, 1.331331e+001
1.106537e+003, 1.330700e+001
1.107019e+003, 1.331319e+001
1.107501e+003, 1.333382e+001
1.107983e+003, 1.339634e+001
1.108465e+003, 1.353593e+001
1.108947e+003, 1.352415e+001
1.109429e+003, 1.309999e+001
1.109911e+003, 1.286630e+001
1.110394e+003, 1.312000e+001
1.110876e+003, 1.341135e+001
1.111358e+003, 1.345681e+001
1.111840e+003, 1.337274e+001
1.112322e+003, 1.334414e+001
1.112804e+003, 1.337469e+001
1.113286e+003, 1.343022e+001
1.113768e+003, 1.355656e+001
1.114250e+003, 1.363019e+001
1.114733e+003, 1.359432e+001
1.115215e+003, 1.357065e+001
1.115697e+003, 1.361602e+001
1.116179e+003, 1.369378e+001
1.116661e+003, 1.375595e+001
1.117143e+003, 1.381036e+001
1.117625e+003, 1.392772e+001
1.118107e+003, 1.423775e+001
1.118589e+003, 1.428631e+001
1.119072e+003, 1.391914e+001
1.119554e+003, 1.358603e+001
1.120036e+003, 1.339255e+001
1.120518e+003, 1.334206e+001
1.121000e+003, 1.348657e+001
1.121482e+003, 1.374036e+001
1.121964e+003, 1.383339e+001
1.122446e+003, 1.371567e+001
1.122929e+003, 1.375556e+001
1.123411e+003, 1.401417e+001
1.123893e+003, 1.423969e+001
1.124375e+003, 1.441908e+001
1.124857e+003, 1.440220e+001
1.125339e+003, 1.401157e+001
1.125821e+003, 1.355047e+001
1.126303e+003, 1.358494e+001
1.126786e+003, 1.407584e+001
1.127268e+003, 1.429391e+001
1.127750e+003, 1.421387e+001
1.128232e+003, 1.408625e+001
1.128714e+003, 1.395016e+001
1.129196e+003, 1.365144e+001
1.129678e+003, 1.306094e+001
1.130160e+003, 1.266745e+001
1.130642e+003, 1.312173e+001
1.131125e+003, 1.408082e+001
1.131607e+003, 1.420609e+001
1.132089e+003, 1.356863e+001
1.132571e+003, 1.354338e+001
1.133053e+003, 1.418655e+001
1.133535e+003, 1.449658e+001
1.134017e+003, 1.416831e+001
1.134499e+003, 1.380628e+001
1.134981e+003, 1.389497e+001
1.135464e+003, 1.414671e+001
1.135946e+003, 1.397592e+001
1.136428e+003, 1.352861e+001
1.136910e+003, 1.337180e+001
1.137392e+003, 1.347122e+001
1.137874e+003, 1.365477e+001
1.138356e+003, 1.387063e+001
1.138838e+003, 1.402296e+001
1.139321e+003, 1.406302e+001
1.139803e+003, 1.408500e+001
1.140285e+003, 1.426824e+001
1.140767e+003, 1.443503e+001
1.141249e+003, 1.415345e+001
1.141731e+003, 1.364576e+001
1.142213e+003, 1.342186e+001
1.142695e+003, 1.345225e+001
1.143177e+003, 1.342100e+001
1.143660e+003, 1.324010e+001
1.144142e+003, 1.309354e+001
1.144624e+003, 1.311344e+001
1.145106e+003, 1.321556e+001
1.145588e+003, 1.333986e+001
1.146070e+003, 1.347247e+001
1.146552e+003, 1.356899e+001
1.147034e+003, 1.367270e+001
1.147516e+003, 1.392597e+001
1.147999e+003, 1.428201e+001
1.148481e+003, 1.444468e+001
1.148963e+003, 1.425253e+001
1.149445e+003, 1.408835e+001
1.149927e+003, 1.424031e+001
1.150409e+003, 1.445327e+001
1.150891e+003, 1.467715e+001
1.151373e+003, 1.475571e+001
1.151856e+003, 1.437065e+001
1.152338e+003, 1.375051e+001
1.152820e+003, 1.342099e+001
1.153302e+003, 1.349212e+001
1.153784e+003, 1.368181e+001
1.154266e+003, 1.401477e+001
1.154748e+003, 1.428217e+001
1.155230e+003, 1.447260e+001
1.155713e+003, 1.451405e+001
1.156195e+003, 1.423720e+001
1.156677e+003, 1.386670e+001
1.157159e+003, 1.368043e+001
1.157641e+003, 1.367814e+001
1.158123e+003, 1.372179e+001
1.158605e+003, 1.381237e+001
1.159087e+003, 1.391853e+001
1.159569e+003, 1.406169e+001
1.160052e+003, 1.418945e+001
1.160534e+003, 1.431153e+001
1.161016e+003, 1.438897e+001
1.161498e+003, 1.439744e+001
1.161980e+003, 1.433708e+001
1.162462e+003, 1.419156e+001
1.162944e+003, 1.394438e+001
1.163426e+003, 1.378416e+001
1.163908e+003, 1.371484e+001
1.164391e+003, 1.373100e+001
1.164873e+003, 1.385924e+001
1.165355e+003, 1.399442e+001
1.165837e+003, 1.409072e+001
1.166319e+003, 1.416388e+001
1.166801e+003, 1.423348e+001
1.167283e+003, 1.429489e+001
1.167765e+003, 1.433776e+001
1.168247e+003, 1.436365e+001
1.168730e+003, 1.431118e+001
1.169212e+003, 1.417613e+001
1.169694e+003, 1.399839e+001
1.170176e+003, 1.378512e+001
1.170658e+003, 1.375593e+001
1.171140e+003, 1.409380e+001
1.171622e+003, 1.447264e+001
1.172104e+003, 1.427670e+001
1.172587e+003, 1.372904e+001
1.173069e+003, 1.357367e+001
1.173551e+003, 1.373349e+001
1.174033e+003, 1.395681e+001
1.174515e+003, 1.419016e+001
1.174997e+003, 1.441862e+001
1.175479e+003, 1.462599e+001
1.175961e+003, 1.467772e+001
1.176443e+003, 1.441550e+001
1.176926e+003, 1.405395e+001
1.177408e+003, 1.379069e+001
1.177890e+003, 1.364910e+001
1.178372e+003, 1.375273e+001
1.178854e+003, 1.396709e+001
1.179336e+003, 1.400837e+001
1.179818e+003, 1.387747e+001
1.180300e+003, 1.377909e+001
1.180782e+003, 1.378471e+001
1.181265e+003, 1.393579e+001
1.181747e+003, 1.444714e+001
1.182229e+003, 1.488323e+001
1.182711e+003, 1.491863e+001
1.183193e+003, 1.477804e+001
1.183675e+003, 1.462080e+001
1.184157e+003, 1.448211e+001
1.184639e+003, 1.437313e+001
1.185122e+003, 1.429853e+001
1.185604e+003, 1.429700e+001
1.186086e+003, 1.455094e+001
1.186568e+003, 1.459735e+001
1.187050e+003, 1.406925e+001
1.187532e+003, 1.368021e+001
1.188014e+003, 1.384347e+001
1.188496e+003, 1.418353e+001
1.188979e+003, 1.442056e+001
1.189461e+003, 1.453739e+001
1.189943e+003, 1.443595e+001
1.190425e+003, 1.402507e+001
1.190907e+003, 1.396247e+001
1.191389e+003, 1.443124e+001
1.191871e+003, 1.472117e+001
1.192353e+003, 1.466383e+001
1.192835e+003, 1.459583e+001
1.193318e+003, 1.471412e+001
1.193800e+003, 1.480244e+001
1.194282e+003, 1.455221e+001
1.194764e+003, 1.410494e+001
1.195246e+003, 1.407088e+001
1.195728e+003, 1.442929e+001
1.196210e+003, 1.462597e+001
1.196692e+003, 1.464066e+001
1.197174e+003, 1.461673e+001
1.197657e+003, 1.459227e+001
1.198139e+003, 1.456767e+001
1.198621e+003, 1.454236e+001
1.199103e+003, 1.452931e+001
1.199585e+003, 1.456636e+001
1.200067e+003, 1.461197e+001
1.200549e+003, 1.454817e+001
1.201031e+003, 1.444211e+001
1.201514e+003, 1.447445e+001
1.201996e+003, 1.460162e+001
1.202478e+003, 1.462051e+001
1.202960e+003, 1.449668e+001
1.203442e+003, 1.442684e+001
1.203924e+003, 1.455802e+001
1.204406e+003, 1.467697e+001
1.204888e+003, 1.456734e+001
1.205370e+003, 1.443779e+001
1.205853e+003, 1.448789e+001
1.206335e+003, 1.460015e+001
1.206817e+003, 1.463879e+001
1.207299e+003, 1.460495e+001
1.207781e+003, 1.451235e+001
1.208263e+003, 1.435179e+001
1.208745e+003, 1.435070e+001
1.209227e+003, 1.469676e+001
1.209709e+003, 1.500695e+001
1.210192e+003, 1.532699e+001
1.210674e+003, 1.544595e+001
1.211156e+003, 1.504205e+001
1.211638e+003, 1.457384e+001
1.212120e+003, 1.453163e+001
1.212602e+003, 1.480062e+001
1.213084e+003, 1.494977e+001
1.213566e+003, 1.496513e+001
1.214049e+003, 1.490500e+001
1.214531e+003, 1.470753e+001
1.215013e+003, 1.471947e+001
1.215495e+003, 1.506963e+001
1.215977e+003, 1.529828e+001
1.216459e+003, 1.513124e+001
1.216941e+003, 1.489705e+001
1.217423e+003, 1.501703e+001
1.217906e+003, 1.535672e+001
1.218388e+003, 1.551309e+001
1.218870e+003, 1.550959e+001
1.219352e+003, 1.546263e+001
1.219834e+003, 1.537308e+001
1.220316e+003, 1.513535e+001
1.220798e+003, 1.477876e+001
1.221280e+003, 1.467763e+001
1.221762e+003, 1.504606e+001
1.222245e+003, 1.540441e+001
1.222727e+003, 1.514498e+001
1.223209e+003, 1.474738e+001
1.223691e+003, 1.479860e+001
1.224173e+003, 1.501667e+001
1.224655e+003, 1.507899e+001
1.225137e+003, 1.498911e+001
1.225619e+003, 1.472672e+001
1.226101e+003, 1.437020e+001
1.226584e+003, 1.432157e+001
1.227066e+003, 1.485958e+001
1.227548e+003, 1.530028e+001
1.228030e+003, 1.539420e+001
1.228512e+003, 1.536386e+001
1.228994e+003, 1.519133e+001
1.229476e+003, 1.503929e+001
1.229958e+003, 1.508230e+001
1.230441e+003, 1.520418e+001
1.230923e+003, 1.515838e+001
1.231405e+003, 1.495519e+001
1.231887e+003, 1.498148e+001
1.232369e+003, 1.539512e+001
1.232851e+003, 1.552570e+001
1.233333e+003, 1.524262e+001
1.233815e+003, 1.506855e+001
1.234297e+003, 1.520860e+001
1.234780e+003, 1.525113e+001
1.235262e+003, 1.486353e+001
1.235744e+003, 1.434686e+001
1.236226e+003, 1.424822e+001
1.236708e+003, 1.444770e+001
1.237190e+003, 1.434953e+001
1.237672e+003, 1.408479e+001
1.238154e+003, 1.439838e+001
1.238636e+003, 1.517786e+001
1.239119e+003, 1.550272e+001
1.239601e+003, 1.515589e+001
1.240083e+003, 1.470579e+001
1.240565e+003, 1.448377e+001
1.241047e+003, 1.442640e+001
1.241529e+003, 1.454690e+001
1.242011e+003, 1.472388e+001
1.242493e+003, 1.489285e+001
1.242975e+003, 1.500563e+001
1.243458e+003, 1.497363e+001
1.243940e+003, 1.485592e+001
1.244422e+003, 1.477302e+001
1.244904e+003, 1.474605e+001
1.245386e+003, 1.474913e+001
1.245868e+003, 1.475670e+001
1.246350e+003, 1.482914e+001
1.246832e+003, 1.512476e+001
1.247315e+003, 1.528082e+001
1.247797e+003, 1.493363e+001
1.248279e+003, 1.471488e+001
1.248761e+003, 1.523961e+001
1.249243e+003, 1.600682e+001
1.249725e+003, 1.606161e+001
1.250207e+003, 1.545789e+001
1.250689e+003, 1.517439e+001
1.251172e+003, 1.524821e+001
1.251654e+003, 1.521088e+001
1.252136e+003, 1.501877e+001
1.252618e+003, 1.498361e+001
1.253100e+003, 1.519774e+001
1.253582e+003, 1.535843e+001
1.254064e+003, 1.524616e+001
1.254546e+003, 1.509369e+001
1.255028e+003, 1.528084e+001
1.255510e+003, 1.560745e+001
1.255993e+003, 1.569007e+001
1.256475e+003, 1.563519e+001
1.256957e+003, 1.562613e+001
1.257439e+003, 1.565922e+001
1.257921e+003, 1.565933e+001
1.258403e+003, 1.562287e+001
1.258885e+003, 1.564641e+001
1.259367e+003, 1.581814e+001
1.259850e+003, 1.587127e+001
1.260332e+003, 1.556781e+001
1.260814e+003, 1.526732e+001
1.261296e+003, 1.507272e+001
1.261778e+003, 1.501394e+001
1.262260e+003, 1.515999e+001
1.262742e+003, 1.542749e+001
1.263224e+003, 1.574000e+001
1.263707e+003, 1.606875e+001
1.264189e+003, 1.615385e+001
1.264671e+003, 1.590474e+001
1.265153e+003, 1.570032e+001
1.265635e+003, 1.551344e+001
1.266117e+003, 1.554447e+001
1.266599e+003, 1.587953e+001
1.267081e+003, 1.614465e+001
1.267563e+003, 1.612706e+001
1.268046e+003, 1.597664e+001
1.268528e+003, 1.583982e+001
1.269010e+003, 1.576038e+001
1.269492e+003, 1.590113e+001
1.269974e+003, 1.615220e+001
1.270456e+003, 1.626033e+001
1.270938e+003, 1.622565e+001
1.271420e+003, 1.600771e+001
1.271902e+003, 1.569585e+001
1.272385e+003, 1.563849e+001
1.272867e+003, 1.596996e+001
1.273349e+003, 1.625601e+001
1.273831e+003, 1.621211e+001
1.274313e+003, 1.609441e+001
1.274795e+003, 1.594847e+001
1.275277e+003, 1.586581e+001
1.275759e+003, 1.595839e+001
1.276242e+003, 1.610608e+001
1.276724e+003, 1.614140e+001
1.277206e+003, 1.612107e+001
1.277688e+003, 1.626974e+001
1.278170e+003, 1.662948e+001
1.278652e+003, 1.675718e+001
1.279134e+003, 1.658224e+001
1.279616e+003, 1.642594e+001
1.280099e+003, 1.631810e+001
1.280581e+003, 1.624793e+001
1.281063e+003, 1.621167e+001
1.281545e+003, 1.620400e+001
1.282027e+003, 1.621549e+001
1.282509e+003, 1.628192e+001
1.282991e+003, 1.653991e+001
1.283473e+003, 1.685691e+001
1.283955e+003, 1.695173e+001
##END=



