##NAMES=Bonattite
##RRUFFID=R070398
##IDEAL CHEMISTRY=Cu^2+^S^6+^O_4_&#183;3H_2_O
##LOCALITY=Undu mine, Nukundamu, Vanua Levu, Fiji
##OWNER=RRUFF
##SOURCE=Michael Scott
##DESCRIPTION=Pale blue effluorescence associated with metallic yellow pyrite and metallic blue covellite
##STATUS=The identification of this mineral is not yet confirmed.
##URL=rruff.info/R070398
157.3757, 22912.75
157.8578, 23100.63
158.3399, 23258.71
158.8221, 23397.29
159.3042, 23524.67
159.7863, 23641.46
160.2684, 23748.50
160.7505, 23835.72
161.2326, 23907.78
161.7148, 23994.79
162.1969, 24120.64
162.6790, 24263.90
163.1611, 24402.22
163.6432, 24541.19
164.1253, 24664.57
164.6075, 24754.89
165.0896, 24811.21
165.5717, 24872.17
166.0538, 24961.56
166.5359, 25068.88
167.0180, 25179.10
167.5002, 25288.66
167.9823, 25398.02
168.4644, 25507.52
168.9465, 25617.17
169.4286, 25726.93
169.9107, 25840.40
170.3929, 25953.60
170.8750, 26061.18
171.3571, 26150.79
171.8392, 26236.23
172.3213, 26334.92
172.8034, 26452.13
173.2856, 26569.00
173.7677, 26668.34
174.2498, 26752.83
174.7319, 26829.93
175.2140, 26902.99
175.6961, 26971.99
176.1783, 27034.52
176.6604, 27084.60
177.1425, 27136.69
177.6246, 27211.29
178.1067, 27305.32
178.5888, 27403.83
179.0710, 27504.94
179.5531, 27601.26
180.0352, 27670.62
180.5173, 27692.74
180.9994, 27700.15
181.4815, 27751.41
181.9637, 27845.66
182.4458, 27942.02
182.9279, 28001.56
183.4100, 28033.37
183.8921, 28072.89
184.3742, 28132.69
184.8564, 28205.73
185.3385, 28275.46
185.8206, 28342.48
186.3027, 28406.18
186.7848, 28463.75
187.2669, 28516.35
187.7491, 28574.65
188.2312, 28646.73
188.7133, 28727.29
189.1954, 28792.78
189.6775, 28838.28
190.1596, 28888.95
190.6418, 28990.86
191.1239, 29141.82
191.6060, 29271.52
192.0881, 29344.45
192.5702, 29366.59
193.0524, 29387.71
193.5345, 29406.24
194.0166, 29427.58
194.4987, 29461.20
194.9808, 29507.78
195.4629, 29556.71
195.9451, 29596.73
196.4272, 29628.90
196.9093, 29688.37
197.3914, 29785.16
197.8735, 29895.23
198.3556, 29970.39
198.8378, 30005.87
199.3199, 30035.54
199.8020, 30083.02
200.2841, 30150.79
200.7662, 30188.20
201.2483, 30179.40
201.7305, 30150.46
202.2126, 30170.33
202.6947, 30249.40
203.1768, 30338.53
203.6589, 30408.07
204.1410, 30454.33
204.6232, 30503.48
205.1053, 30560.09
205.5874, 30620.05
206.0695, 30668.31
206.5516, 30701.55
207.0337, 30731.83
207.5159, 30766.15
207.9980, 30803.16
208.4801, 30847.74
208.9622, 30901.34
209.4443, 30962.93
209.9264, 31030.63
210.4086, 31110.90
210.8907, 31184.54
211.3728, 31229.97
211.8549, 31233.73
212.3370, 31258.41
212.8191, 31322.98
213.3013, 31419.69
213.7834, 31486.48
214.2655, 31514.60
214.7476, 31526.91
215.2297, 31540.02
215.7118, 31550.67
216.1940, 31571.26
216.6761, 31601.66
217.1582, 31642.36
217.6403, 31709.60
218.1224, 31823.05
218.6045, 31935.73
219.0867, 31996.35
219.5688, 31977.20
220.0509, 31971.06
220.5330, 32002.61
221.0151, 32073.43
221.4972, 32121.97
221.9794, 32134.72
222.4615, 32140.75
222.9436, 32173.81
223.4257, 32249.87
223.9078, 32321.06
224.3899, 32376.64
224.8721, 32416.89
225.3542, 32445.68
225.8363, 32453.54
226.3184, 32459.13
226.8005, 32486.82
227.2827, 32549.06
227.7648, 32609.25
228.2469, 32656.62
228.7290, 32688.40
229.2111, 32727.97
229.6932, 32777.72
230.1754, 32832.85
230.6575, 32889.16
231.1396, 32951.54
231.6217, 33005.41
232.1038, 33042.90
232.5859, 33058.08
233.0681, 33088.61
233.5502, 33135.50
234.0323, 33196.69
234.5144, 33274.04
234.9965, 33385.79
235.4786, 33481.82
235.9608, 33546.03
236.4429, 33572.80
236.9250, 33587.79
237.4071, 33573.59
237.8892, 33558.41
238.3713, 33593.95
238.8535, 33723.73
239.3356, 33830.82
239.8177, 33868.88
240.2998, 33810.35
240.7819, 33790.00
241.2640, 33821.25
241.7462, 33882.50
242.2283, 33936.29
242.7104, 33974.04
243.1925, 34018.76
243.6746, 34083.50
244.1567, 34183.78
244.6389, 34248.64
245.1210, 34258.13
245.6031, 34244.02
246.0852, 34264.52
246.5673, 34339.80
247.0494, 34415.50
247.5316, 34475.44
248.0137, 34522.04
248.4958, 34541.20
248.9779, 34514.23
249.4600, 34470.25
249.9421, 34466.59
250.4243, 34523.72
250.9064, 34584.20
251.3885, 34623.72
251.8706, 34629.06
252.3527, 34660.97
252.8348, 34734.26
253.3170, 34824.78
253.7991, 34885.74
254.2812, 34907.42
254.7633, 34916.78
255.2454, 34917.68
255.7275, 34899.27
256.2097, 34914.88
256.6918, 34976.52
257.1739, 35063.71
257.6560, 35142.99
258.1381, 35220.74
258.6202, 35277.32
259.1024, 35299.45
259.5845, 35274.00
260.0666, 35267.30
260.5487, 35280.70
261.0308, 35311.93
261.5129, 35359.63
261.9951, 35427.71
262.4772, 35502.37
262.9593, 35588.06
263.4414, 35700.36
263.9235, 35744.24
264.4056, 35689.47
264.8878, 35594.87
265.3699, 35567.00
265.8520, 35625.84
266.3341, 35693.68
266.8162, 35737.39
267.2983, 35749.05
267.7805, 35787.51
268.2626, 35861.19
268.7447, 35952.08
269.2268, 36035.21
269.7089, 36115.90
270.1910, 36169.09
270.6732, 36170.89
271.1553, 36111.47
271.6374, 36104.95
272.1195, 36170.08
272.6016, 36260.63
273.0837, 36292.63
273.5659, 36253.27
274.0480, 36221.92
274.5301, 36231.97
275.0122, 36284.95
275.4943, 36338.48
275.9764, 36395.01
276.4586, 36447.49
276.9407, 36485.48
277.4228, 36508.00
277.9049, 36520.58
278.3870, 36512.74
278.8691, 36487.12
279.3513, 36511.00
279.8334, 36594.70
280.3155, 36701.41
280.7976, 36784.09
281.2798, 36841.34
281.7619, 36891.66
282.2440, 36951.84
282.7261, 37015.34
283.2082, 37019.44
283.6903, 36951.29
284.1725, 36871.05
284.6546, 36855.93
285.1367, 36904.02
285.6188, 36962.25
286.1009, 37014.30
286.5830, 37061.57
287.0652, 37113.66
287.5473, 37172.15
288.0294, 37223.20
288.5115, 37241.16
288.9936, 37231.27
289.4757, 37236.75
289.9579, 37281.96
290.4400, 37350.45
290.9221, 37399.48
291.4042, 37428.64
291.8863, 37443.84
292.3684, 37433.98
292.8506, 37409.61
293.3327, 37417.77
293.8148, 37490.53
294.2969, 37594.96
294.7790, 37674.32
295.2611, 37728.77
295.7433, 37758.16
296.2254, 37745.25
296.7075, 37705.54
297.1896, 37682.82
297.6717, 37690.13
298.1538, 37719.84
298.6360, 37768.12
299.1181, 37833.71
299.6002, 37896.59
300.0823, 37943.23
300.5644, 37976.63
301.0465, 38000.53
301.5287, 38004.74
302.0108, 38013.82
302.4929, 38065.89
302.9750, 38153.78
303.4571, 38233.41
303.9392, 38269.44
304.4214, 38281.54
304.9035, 38297.63
305.3856, 38328.02
305.8677, 38357.46
306.3498, 38362.13
306.8319, 38351.13
307.3141, 38356.91
307.7962, 38411.94
308.2783, 38486.71
308.7604, 38556.09
309.2425, 38618.95
309.7246, 38663.90
310.2068, 38662.77
310.6889, 38635.48
311.1710, 38633.56
311.6531, 38707.09
312.1352, 38800.17
312.6173, 38872.99
313.0995, 38917.38
313.5816, 38944.31
314.0637, 38935.09
314.5458, 38913.47
315.0279, 38923.85
315.5100, 39021.18
315.9922, 39126.43
316.4743, 39199.79
316.9564, 39234.76
317.4385, 39245.64
317.9206, 39205.21
318.4027, 39150.71
318.8849, 39134.17
319.3670, 39206.52
319.8491, 39286.69
320.3312, 39343.61
320.8133, 39370.99
321.2954, 39400.44
321.7776, 39439.59
322.2597, 39483.44
322.7418, 39526.63
323.2239, 39563.60
323.7060, 39604.63
324.1881, 39659.25
324.6703, 39730.44
325.1524, 39778.97
325.6345, 39791.30
326.1166, 39785.11
326.5987, 39774.26
327.0808, 39725.05
327.5630, 39711.43
328.0451, 39762.54
328.5272, 39873.77
329.0093, 39943.64
329.4914, 39940.77
329.9735, 39923.61
330.4557, 39928.90
330.9378, 39961.83
331.4199, 40009.45
331.9020, 40079.20
332.3841, 40164.42
332.8662, 40235.27
333.3484, 40298.52
333.8305, 40336.04
334.3126, 40327.54
334.7947, 40243.82
335.2768, 40205.61
335.7589, 40226.91
336.2411, 40292.59
336.7232, 40370.76
337.2053, 40466.91
337.6874, 40557.76
338.1695, 40637.67
338.6516, 40708.10
339.1338, 40740.66
339.6159, 40717.80
340.0980, 40683.63
340.5801, 40731.99
341.0622, 40876.16
341.5443, 40984.22
342.0265, 40977.00
342.5086, 40871.75
342.9907, 40835.95
343.4728, 40879.06
343.9549, 40955.86
344.4370, 41019.34
344.9192, 41069.38
345.4013, 41106.77
345.8834, 41127.01
346.3655, 41135.53
346.8476, 41140.77
347.3297, 41142.18
347.8119, 41153.78
348.2940, 41196.23
348.7761, 41260.58
349.2582, 41320.83
349.7403, 41378.73
350.2225, 41421.30
350.7046, 41411.45
351.1867, 41357.38
351.6688, 41323.16
352.1509, 41373.90
352.6331, 41469.05
353.1152, 41549.63
353.5973, 41604.66
354.0794, 41638.13
354.5615, 41633.66
355.0436, 41606.28
355.5258, 41601.76
356.0079, 41671.38
356.4900, 41760.37
356.9721, 41820.25
357.4542, 41838.43
357.9363, 41845.06
358.4185, 41839.23
358.9006, 41835.16
359.3827, 41857.47
359.8648, 41958.34
360.3469, 42054.32
360.8290, 42090.22
361.3112, 42050.62
361.7933, 42031.59
362.2754, 42089.73
362.7575, 42174.34
363.2396, 42230.50
363.7217, 42205.19
364.2039, 42190.15
364.6860, 42209.10
365.1681, 42263.08
365.6502, 42330.41
366.1323, 42437.15
366.6144, 42539.70
367.0966, 42608.00
367.5787, 42610.61
368.0608, 42615.16
368.5429, 42616.25
369.0250, 42619.63
369.5071, 42656.94
369.9893, 42762.30
370.4714, 42861.70
370.9535, 42917.02
371.4356, 42904.34
371.9177, 42899.84
372.3998, 42902.51
372.8820, 42914.95
373.3641, 42946.13
373.8462, 43004.56
374.3283, 43059.34
374.8104, 43093.71
375.2925, 43104.88
375.7747, 43134.61
376.2568, 43188.98
376.7389, 43250.33
377.2210, 43295.29
377.7031, 43323.34
378.1852, 43341.71
378.6674, 43344.78
379.1495, 43340.38
379.6316, 43368.75
380.1137, 43432.86
380.5958, 43500.84
381.0779, 43542.69
381.5601, 43562.39
382.0422, 43574.39
382.5243, 43574.74
383.0064, 43578.81
383.4885, 43620.33
383.9706, 43694.75
384.4528, 43765.67
384.9349, 43810.93
385.4170, 43836.33
385.8991, 43849.55
386.3812, 43848.12
386.8633, 43846.91
387.3455, 43864.87
387.8276, 43893.90
388.3097, 43915.73
388.7918, 43892.63
389.2739, 43876.74
389.7560, 43919.05
390.2382, 44028.06
390.7203, 44139.41
391.2024, 44236.14
391.6845, 44309.89
392.1666, 44351.94
392.6487, 44325.84
393.1309, 44298.06
393.6130, 44289.48
394.0951, 44300.55
394.5772, 44330.75
395.0593, 44415.81
395.5414, 44497.34
396.0236, 44537.78
396.5057, 44450.27
396.9878, 44418.63
397.4699, 44510.71
397.9520, 44677.87
398.4341, 44765.37
398.9163, 44696.47
399.3984, 44627.17
399.8805, 44612.55
400.3626, 44665.80
400.8447, 44738.34
401.3268, 44851.84
401.8090, 44968.49
402.2911, 45028.91
402.7732, 45004.20
403.2553, 44998.86
403.7374, 45052.82
404.2195, 45160.52
404.7017, 45213.77
405.1838, 45198.11
405.6659, 45167.16
406.1480, 45165.32
406.6301, 45192.58
407.1122, 45243.25
407.5944, 45327.00
408.0765, 45422.77
408.5586, 45474.95
409.0407, 45484.50
409.5228, 45486.61
410.0049, 45498.78
410.4871, 45521.20
410.9692, 45559.32
411.4513, 45618.07
411.9334, 45675.30
412.4155, 45700.11
412.8976, 45702.53
413.3798, 45710.67
413.8619, 45740.48
414.3440, 45780.83
414.8261, 45823.86
415.3082, 45869.37
415.7903, 45909.41
416.2725, 45932.59
416.7546, 45950.11
417.2367, 45974.76
417.7188, 46001.63
418.2009, 46045.65
418.6830, 46126.07
419.1652, 46232.88
419.6473, 46326.31
420.1294, 46389.00
420.6115, 46438.66
421.0937, 46483.52
421.5758, 46516.17
422.0579, 46560.60
422.5400, 46637.13
423.0221, 46723.83
423.5042, 46785.84
423.9864, 46791.45
424.4685, 46806.28
424.9506, 46851.18
425.4327, 46929.42
425.9148, 46987.71
426.3969, 47019.04
426.8791, 47038.41
427.3612, 47058.23
427.8433, 47080.14
428.3254, 47097.56
428.8075, 47110.87
429.2896, 47118.40
429.7718, 47109.36
430.2539, 47079.13
430.7360, 47056.53
431.2181, 47062.43
431.7002, 47094.83
432.1823, 47124.05
432.6645, 47147.42
433.1466, 47171.77
433.6287, 47203.19
434.1108, 47242.30
434.5929, 47293.70
435.0750, 47372.72
435.5572, 47458.98
436.0393, 47521.56
436.5214, 47560.29
437.0035, 47572.04
437.4856, 47523.73
437.9677, 47455.80
438.4499, 47427.87
438.9320, 47472.78
439.4141, 47530.93
439.8962, 47569.38
440.3783, 47588.75
440.8604, 47591.79
441.3426, 47533.57
441.8247, 47494.20
442.3068, 47537.65
442.7889, 47696.76
443.2710, 47813.06
443.7531, 47799.03
444.2353, 47738.20
444.7174, 47722.74
445.1995, 47824.52
445.6816, 47908.08
446.1637, 47944.66
446.6458, 47938.44
447.1280, 47935.05
447.6101, 47922.94
448.0922, 47926.52
448.5743, 47962.96
449.0564, 48050.80
449.5385, 48122.23
450.0207, 48170.02
450.5028, 48205.42
450.9849, 48252.54
451.4670, 48315.62
451.9491, 48366.14
452.4312, 48386.01
452.9134, 48380.89
453.3955, 48396.13
453.8776, 48432.77
454.3597, 48481.53
454.8418, 48544.81
455.3239, 48615.64
455.8061, 48659.92
456.2882, 48661.94
456.7703, 48647.45
457.2524, 48644.05
457.7345, 48653.33
458.2166, 48682.28
458.6988, 48768.53
459.1809, 48859.70
459.6630, 48885.67
460.1451, 48829.94
460.6272, 48781.37
461.1093, 48806.87
461.5915, 48869.09
462.0736, 48921.33
462.5557, 48930.49
463.0378, 48944.34
463.5199, 48979.91
464.0020, 49035.69
464.4842, 49100.13
464.9663, 49196.59
465.4484, 49281.48
465.9305, 49329.79
466.4126, 49307.54
466.8947, 49307.91
467.3769, 49335.86
467.8590, 49384.02
468.3411, 49444.60
468.8232, 49530.87
469.3053, 49601.70
469.7874, 49641.08
470.2696, 49651.41
470.7517, 49686.86
471.2338, 49762.41
471.7159, 49817.00
472.1980, 49757.38
472.6801, 49588.57
473.1623, 49545.93
473.6444, 49692.64
474.1265, 49919.31
474.6086, 50052.39
475.0907, 50099.21
475.5728, 50107.32
476.0550, 50071.82
476.5371, 50023.97
477.0192, 50024.88
477.5013, 50077.20
477.9834, 50124.50
478.4655, 50099.31
478.9477, 50050.43
479.4298, 50043.43
479.9119, 50125.92
480.3940, 50219.04
480.8761, 50280.89
481.3582, 50320.59
481.8404, 50363.49
482.3225, 50431.92
482.8046, 50493.76
483.2867, 50536.12
483.7688, 50557.81
484.2509, 50560.21
484.7331, 50517.08
485.2152, 50468.32
485.6973, 50450.86
486.1794, 50478.67
486.6615, 50515.95
487.1436, 50569.02
487.6258, 50628.51
488.1079, 50640.26
488.5900, 50582.28
489.0721, 50537.30
489.5542, 50562.17
490.0363, 50657.71
490.5185, 50729.34
491.0006, 50774.99
491.4827, 50793.46
491.9648, 50761.32
492.4470, 50690.98
492.9291, 50651.12
493.4112, 50668.50
493.8933, 50726.88
494.3754, 50823.11
494.8575, 50949.25
495.3397, 51049.59
495.8218, 51087.41
496.3039, 51081.55
496.7860, 51035.71
497.2681, 50928.26
497.7502, 50867.63
498.2324, 50956.19
498.7145, 51113.15
499.1966, 51230.41
499.6787, 51220.71
500.1608, 51221.35
500.6429, 51291.54
501.1251, 51425.40
501.6072, 51515.85
502.0893, 51524.32
502.5714, 51516.71
503.0535, 51525.13
503.5356, 51565.96
504.0178, 51581.13
504.4999, 51556.15
504.9820, 51518.58
505.4641, 51509.53
505.9462, 51531.84
506.4283, 51568.83
506.9105, 51621.85
507.3926, 51684.39
507.8747, 51730.06
508.3568, 51758.50
508.8389, 51778.88
509.3210, 51791.58
509.8032, 51801.90
510.2853, 51829.08
510.7674, 51880.30
511.2495, 51927.83
511.7316, 51930.13
512.2137, 51908.40
512.6959, 51905.64
513.1780, 51959.57
513.6601, 52021.94
514.1422, 52053.96
514.6243, 52061.64
515.1064, 52087.95
515.5886, 52177.71
516.0707, 52271.87
516.5528, 52329.25
517.0349, 52313.31
517.5170, 52327.39
517.9991, 52415.14
518.4813, 52524.80
518.9634, 52592.98
519.4455, 52620.43
519.9276, 52600.36
520.4097, 52499.30
520.8918, 52342.62
521.3740, 52303.48
521.8561, 52413.46
522.3382, 52536.39
522.8203, 52569.49
523.3024, 52520.21
523.7845, 52524.94
524.2667, 52596.69
524.7488, 52702.58
525.2309, 52828.62
525.7130, 52961.75
526.1951, 53052.12
526.6772, 53057.11
527.1594, 53036.70
527.6415, 53073.93
528.1236, 53152.56
528.6057, 53201.72
529.0878, 53136.18
529.5699, 53054.62
530.0521, 53039.88
530.5342, 53119.58
531.0163, 53187.61
531.4984, 53194.99
531.9805, 53180.51
532.4626, 53185.57
532.9448, 53238.47
533.4269, 53283.83
533.9090, 53315.14
534.3911, 53334.41
534.8732, 53345.00
535.3553, 53333.70
535.8375, 53339.21
536.3196, 53383.93
536.8017, 53470.89
537.2838, 53544.32
537.7659, 53604.14
538.2480, 53652.88
538.7302, 53688.93
539.2123, 53714.68
539.6944, 53746.91
540.1765, 53795.64
540.6586, 53840.74
541.1407, 53849.14
541.6229, 53828.86
542.1050, 53809.09
542.5871, 53798.42
543.0692, 53799.87
543.5513, 53817.77
544.0334, 53852.15
544.5156, 53895.93
544.9977, 53950.34
545.4798, 54010.21
545.9619, 54071.55
546.4440, 54141.40
546.9261, 54201.08
547.4083, 54237.55
547.8904, 54264.48
548.3725, 54307.75
548.8546, 54388.67
549.3367, 54450.91
549.8188, 54476.23
550.3010, 54468.04
550.7831, 54471.84
551.2652, 54497.23
551.7473, 54502.41
552.2294, 54424.84
552.7115, 54279.99
553.1937, 54237.46
553.6758, 54322.09
554.1579, 54461.67
554.6400, 54605.89
555.1221, 54736.93
555.6042, 54797.43
556.0864, 54704.77
556.5685, 54597.02
557.0506, 54617.09
557.5327, 54738.26
558.0148, 54861.54
558.4969, 54959.98
558.9791, 55029.89
559.4612, 55059.72
559.9433, 55038.59
560.4254, 55028.91
560.9075, 55057.09
561.3896, 55092.99
561.8718, 55107.84
562.3539, 55062.88
562.8360, 55066.89
563.3181, 55154.71
563.8002, 55283.35
564.2823, 55342.22
564.7645, 55314.18
565.2466, 55291.67
565.7287, 55316.68
566.2108, 55377.50
566.6929, 55411.20
567.1750, 55416.13
567.6572, 55425.43
568.1393, 55481.77
568.6214, 55559.74
569.1035, 55600.94
569.5856, 55588.16
570.0677, 55573.13
570.5499, 55597.68
571.0320, 55648.60
571.5141, 55705.04
571.9962, 55762.61
572.4783, 55820.98
572.9604, 55878.98
573.4426, 55936.78
573.9247, 55997.09
574.4068, 56084.63
574.8889, 56151.07
575.3710, 56168.00
575.8531, 56118.02
576.3353, 56112.97
576.8174, 56174.35
577.2995, 56248.86
577.7816, 56281.75
578.2637, 56267.78
578.7458, 56264.58
579.2280, 56278.05
579.7101, 56310.25
580.1922, 56379.47
580.6743, 56477.34
581.1564, 56556.71
581.6385, 56571.90
582.1207, 56569.12
582.6028, 56626.07
583.0849, 56731.81
583.5670, 56804.67
584.0491, 56753.63
584.5313, 56677.64
585.0134, 56657.12
585.4955, 56720.95
585.9776, 56785.21
586.4597, 56812.67
586.9418, 56836.52
587.4240, 56897.03
587.9061, 57056.77
588.3882, 57155.84
588.8703, 57155.41
589.3524, 57089.32
589.8345, 57056.50
590.3167, 57062.96
590.7988, 57079.79
591.2809, 57095.77
591.7630, 57111.80
592.2451, 57129.87
592.7272, 57149.64
593.2094, 57179.03
593.6915, 57227.84
594.1736, 57290.29
594.6557, 57364.86
595.1378, 57459.58
595.6199, 57524.49
596.1021, 57483.67
596.5842, 57399.05
597.0663, 57358.77
597.5485, 57416.70
598.0306, 57498.42
598.5127, 57613.76
598.9948, 57742.43
599.4769, 57797.50
599.9590, 57691.40
600.4412, 57613.54
600.9233, 57640.71
601.4054, 57783.35
601.8875, 57861.11
602.3696, 57854.56
602.8517, 57829.36
603.3339, 57843.06
603.8160, 57892.25
604.2981, 57930.78
604.7802, 57951.57
605.2623, 57966.59
605.7444, 57981.65
606.2266, 58002.62
606.7087, 58045.46
607.1908, 58142.70
607.6729, 58237.03
608.1550, 58277.97
608.6371, 58277.67
609.1193, 58277.06
609.6014, 58270.84
610.0835, 58286.79
610.5656, 58341.75
611.0477, 58440.54
611.5298, 58550.76
612.0120, 58704.52
612.4941, 58835.20
612.9762, 58888.98
613.4583, 58837.23
613.9404, 58811.84
614.4225, 58821.09
614.9047, 58852.57
615.3868, 58902.55
615.8689, 58967.83
616.3510, 58995.67
616.8331, 58949.02
617.3152, 58885.55
617.7974, 58902.42
618.2795, 58982.74
618.7616, 59061.01
619.2437, 59116.68
619.7258, 59144.88
620.2079, 59121.23
620.6901, 59046.16
621.1722, 59010.94
621.6543, 59089.63
622.1364, 59188.90
622.6185, 59245.49
623.1006, 59229.29
623.5828, 59230.73
624.0649, 59256.61
624.5470, 59293.89
625.0291, 59328.62
625.5112, 59361.29
625.9933, 59385.87
626.4755, 59393.88
626.9576, 59402.83
627.4397, 59459.80
627.9218, 59558.00
628.4039, 59645.65
628.8860, 59691.65
629.3682, 59715.53
629.8503, 59741.13
630.3324, 59768.15
630.8145, 59792.27
631.2966, 59812.29
631.7787, 59827.32
632.2609, 59830.55
632.7430, 59811.09
633.2251, 59820.08
633.7072, 59912.66
634.1893, 60009.61
634.6714, 60040.23
635.1536, 59954.09
635.6357, 59915.17
636.1178, 59947.50
636.5999, 60019.65
637.0820, 60081.86
637.5641, 60134.14
638.0463, 60163.09
638.5284, 60145.37
639.0105, 60118.47
639.4926, 60171.77
639.9747, 60292.57
640.4568, 60405.20
640.9390, 60489.55
641.4211, 60529.03
641.9032, 60477.30
642.3853, 60331.85
642.8674, 60238.45
643.3495, 60293.90
643.8317, 60396.21
644.3138, 60476.73
644.7959, 60520.38
645.2780, 60556.16
645.7601, 60590.23
646.2422, 60611.06
646.7244, 60592.35
647.2065, 60517.13
647.6886, 60498.10
648.1707, 60574.10
648.6528, 60689.16
649.1349, 60725.05
649.6171, 60691.91
650.0992, 60663.04
650.5813, 60659.04
651.0634, 60686.36
651.5455, 60783.14
652.0276, 60932.16
652.5098, 61036.03
652.9919, 61002.92
653.4740, 60939.71
653.9561, 60911.49
654.4382, 60929.86
654.9203, 60952.23
655.4025, 60989.43
655.8846, 61016.01
656.3667, 61005.18
656.8488, 60922.25
657.3309, 60915.46
657.8130, 61013.09
658.2952, 61145.36
658.7773, 61212.45
659.2594, 61219.81
659.7415, 61227.21
660.2236, 61254.36
660.7057, 61281.96
661.1879, 61264.39
661.6700, 61222.47
662.1521, 61214.71
662.6342, 61320.98
663.1163, 61425.96
663.5984, 61442.72
664.0806, 61382.29
664.5627, 61347.73
665.0448, 61384.77
665.5269, 61435.26
666.0090, 61478.65
666.4911, 61516.24
666.9733, 61532.41
667.4554, 61520.07
667.9375, 61500.39
668.4196, 61490.06
668.9017, 61488.79
669.3839, 61487.94
669.8660, 61486.13
670.3481, 61487.39
670.8302, 61485.00
671.3123, 61490.20
671.7944, 61533.35
672.2766, 61659.27
672.7587, 61767.07
673.2408, 61772.21
673.7229, 61714.44
674.2050, 61671.84
674.6871, 61667.14
675.1693, 61679.17
675.6514, 61714.79
676.1335, 61765.90
676.6156, 61786.16
677.0977, 61758.72
677.5798, 61739.22
678.0620, 61758.89
678.5441, 61811.86
679.0262, 61835.42
679.5083, 61828.13
679.9904, 61818.00
680.4725, 61828.72
680.9547, 61851.50
681.4368, 61868.10
681.9189, 61874.60
682.4010, 61891.43
682.8831, 61945.86
683.3652, 62010.88
683.8474, 62057.51
684.3295, 62057.33
684.8116, 62073.65
685.2937, 62132.91
685.7758, 62205.96
686.2579, 62258.78
686.7401, 62299.58
687.2222, 62292.34
687.7043, 62212.35
688.1864, 62097.74
688.6685, 62036.09
689.1506, 62026.06
689.6328, 62046.71
690.1149, 62101.55
690.5970, 62173.44
691.0791, 62247.64
691.5612, 62320.17
692.0433, 62369.27
692.5255, 62355.14
693.0076, 62337.73
693.4897, 62365.86
693.9718, 62449.40
694.4539, 62496.64
694.9360, 62462.06
695.4182, 62418.94
695.9003, 62407.09
696.3824, 62436.13
696.8645, 62454.07
697.3466, 62455.57
697.8287, 62459.93
698.3109, 62494.66
698.7930, 62552.97
699.2751, 62595.60
699.7572, 62610.74
700.2393, 62626.10
700.7214, 62671.98
701.2036, 62737.51
701.6857, 62805.43
702.1678, 62907.07
702.6499, 62966.25
703.1320, 62911.96
703.6141, 62795.04
704.0963, 62745.83
704.5784, 62821.76
705.0605, 62885.66
705.5426, 62901.36
706.0247, 62883.35
706.5068, 62904.60
706.9890, 62972.18
707.4711, 63020.62
707.9532, 62999.67
708.4353, 62938.20
708.9174, 62902.32
709.3995, 62892.37
709.8817, 62915.02
710.3638, 63015.66
710.8459, 63124.35
711.3280, 63173.21
711.8101, 63149.46
712.2922, 63122.08
712.7744, 63102.42
713.2565, 63091.68
713.7386, 63088.91
714.2207, 63090.12
714.7028, 63110.40
715.1849, 63152.38
715.6671, 63209.29
716.1492, 63286.61
716.6313, 63379.91
717.1134, 63442.09
717.5955, 63461.60
718.0776, 63457.40
718.5598, 63435.73
719.0419, 63409.10
719.5240, 63402.33
720.0061, 63441.89
720.4882, 63481.58
720.9703, 63483.63
721.4525, 63471.59
721.9346, 63500.07
722.4167, 63655.09
722.8988, 63747.42
723.3809, 63727.18
723.8630, 63619.57
724.3452, 63503.89
724.8273, 63368.52
725.3094, 63311.61
725.7915, 63426.34
726.2736, 63636.57
726.7557, 63747.88
727.2379, 63767.99
727.7200, 63758.18
728.2021, 63732.14
728.6842, 63711.45
729.1663, 63727.63
729.6484, 63784.95
730.1306, 63804.73
730.6127, 63678.06
731.0948, 63581.34
731.5769, 63624.86
732.0590, 63862.82
732.5411, 64012.37
733.0233, 64055.07
733.5054, 64050.76
733.9875, 64044.08
734.4696, 64036.30
734.9517, 64037.73
735.4338, 64050.09
735.9160, 64067.86
736.3981, 64102.26
736.8802, 64133.18
737.3623, 64125.30
737.8444, 64036.55
738.3266, 63971.55
738.8087, 63974.91
739.2908, 64023.95
739.7729, 64087.06
740.2551, 64172.20
740.7372, 64257.23
741.2193, 64357.97
741.7014, 64441.97
742.1835, 64414.44
742.6656, 64273.93
743.1478, 64177.88
743.6299, 64192.96
744.1120, 64258.55
744.5941, 64290.25
745.0762, 64293.13
745.5583, 64283.87
746.0405, 64235.71
746.5226, 64210.31
747.0047, 64258.46
747.4868, 64366.59
747.9689, 64453.95
748.4510, 64513.27
748.9332, 64546.70
749.4153, 64550.67
749.8974, 64526.95
750.3795, 64488.34
750.8616, 64429.74
751.3438, 64395.99
751.8259, 64439.46
752.3080, 64523.81
752.7901, 64561.03
753.2722, 64550.64
753.7543, 64529.54
754.2365, 64487.29
754.7186, 64468.59
755.2007, 64527.91
755.6828, 64692.71
756.1649, 64806.03
756.6470, 64819.22
757.1292, 64794.64
757.6113, 64759.07
758.0934, 64699.88
758.5755, 64692.00
759.0576, 64744.45
759.5397, 64818.13
760.0219, 64886.35
760.5040, 64943.24
760.9861, 64966.93
761.4682, 64952.23
761.9503, 64913.47
762.4324, 64822.06
762.9146, 64729.78
763.3967, 64699.81
763.8788, 64792.50
764.3609, 64874.75
764.8430, 64923.05
765.3251, 64950.88
765.8073, 64970.75
766.2894, 64979.45
766.7715, 64993.09
767.2536, 65015.06
767.7357, 65040.38
768.2178, 65061.81
768.7000, 65079.55
769.1821, 65093.79
769.6642, 65103.26
770.1463, 65111.67
770.6284, 65115.40
771.1105, 65121.26
771.5927, 65142.42
772.0748, 65214.79
772.5569, 65265.67
773.0390, 65270.76
773.5211, 65244.37
774.0032, 65213.82
774.4854, 65168.15
774.9675, 65164.49
775.4496, 65240.75
775.9317, 65351.71
776.4138, 65374.25
776.8959, 65322.46
777.3781, 65273.74
777.8602, 65243.22
778.3423, 65253.52
778.8244, 65370.77
779.3065, 65558.23
779.7886, 65662.21
780.2708, 65544.64
780.7529, 65431.29
781.2350, 65399.34
781.7171, 65439.92
782.1992, 65472.14
782.6813, 65495.24
783.1635, 65511.79
783.6456, 65519.73
784.1277, 65522.51
784.6098, 65531.22
785.0919, 65545.70
785.5740, 65564.10
786.0562, 65589.17
786.5383, 65615.05
787.0204, 65637.46
787.5025, 65656.27
787.9846, 65670.42
788.4667, 65652.59
788.9489, 65657.80
789.4310, 65724.99
789.9131, 65860.65
790.3952, 65914.52
790.8773, 65870.13
791.3594, 65818.78
791.8416, 65840.84
792.3237, 65906.91
792.8058, 65929.75
793.2879, 65906.23
793.7700, 65897.05
794.2521, 65972.27
794.7343, 66060.95
795.2164, 66101.75
795.6985, 66077.67
796.1806, 66049.32
796.6627, 65995.63
797.1448, 65969.69
797.6270, 66020.71
798.1091, 66165.14
798.5912, 66254.02
799.0733, 66284.49
799.5554, 66273.03
800.0375, 66177.91
800.5197, 66319.88
801.0018, 66404.44
801.4839, 66434.68
801.9660, 66247.90
802.4481, 66341.35
802.9302, 66322.50
803.4124, 66299.05
803.8945, 66431.95
804.3766, 66276.73
804.8587, 66407.16
805.3408, 66423.55
805.8229, 66492.14
806.3051, 66447.73
806.7872, 66438.21
807.2693, 66541.73
807.7514, 66582.67
808.2335, 66525.24
808.7156, 66597.15
809.1978, 66437.98
809.6799, 66481.59
810.1620, 66514.86
810.6441, 66545.10
811.1262, 66547.17
811.6083, 66558.00
812.0905, 66590.94
812.5726, 66602.25
813.0547, 66581.83
813.5368, 66557.41
814.0189, 66559.71
814.5010, 66586.74
814.9832, 66636.54
815.4653, 66717.70
815.9474, 66776.41
816.4295, 66742.16
816.9116, 66665.43
817.3937, 66607.88
817.8759, 66586.48
818.3580, 66581.73
818.8401, 66574.03
819.3222, 66592.36
819.8043, 66690.23
820.2864, 66913.00
820.7686, 66980.80
821.2507, 66828.98
821.7328, 66637.23
822.2149, 66668.25
822.6970, 66842.13
823.1791, 66960.73
823.6613, 66976.23
824.1434, 66938.09
824.6255, 66814.26
825.1076, 66683.66
825.5897, 66636.09
826.0718, 66795.29
826.5540, 66880.40
827.0361, 66862.95
827.5182, 66804.42
828.0003, 66761.20
828.4824, 66734.08
828.9645, 66788.26
829.4467, 66954.52
829.9288, 67114.08
830.4109, 67106.33
830.8930, 67010.43
831.3751, 66946.35
831.8572, 66948.27
832.3394, 66978.21
832.8215, 67037.93
833.3036, 67112.06
833.7857, 67187.04
834.2678, 67273.95
834.7499, 67324.91
835.2321, 67331.26
835.7142, 67313.59
836.1963, 67290.13
836.6784, 67263.58
837.1605, 67237.85
837.6426, 67206.89
838.1248, 67209.27
838.6069, 67317.45
839.0890, 67455.27
839.5711, 67536.43
840.0532, 67515.99
840.5353, 67485.09
841.0175, 67436.55
841.4996, 67394.16
841.9817, 67383.72
842.4638, 67405.98
842.9459, 67437.86
843.4280, 67477.16
843.9102, 67525.91
844.3923, 67621.54
844.8744, 67716.77
845.3565, 67714.34
845.8386, 67555.26
846.3207, 67450.26
846.8029, 67557.90
847.2850, 67709.81
847.7671, 67748.21
848.2492, 67588.55
848.7313, 67558.59
849.2134, 67705.59
849.6956, 67862.32
850.1777, 67820.14
850.6598, 67646.07
851.1419, 67592.92
851.6240, 67701.86
852.1061, 67814.26
852.5883, 67774.26
853.0704, 67703.47
853.5525, 67727.51
854.0346, 67921.43
854.5167, 68027.21
854.9988, 67980.95
855.4810, 67909.77
855.9631, 67910.80
856.4452, 67985.67
856.9273, 68022.16
857.4094, 68015.73
857.8915, 67996.60
858.3737, 67981.96
858.8558, 67975.05
859.3379, 67981.09
859.8200, 68001.02
860.3021, 68027.98
860.7842, 68079.12
861.2664, 68118.19
861.7485, 68121.34
862.2306, 68083.83
862.7127, 68058.89
863.1948, 68047.97
863.6769, 68042.38
864.1591, 68016.81
864.6412, 67996.35
865.1233, 68060.23
865.6054, 68203.70
866.0875, 68328.15
866.5696, 68370.92
867.0518, 68380.46
867.5339, 68381.52
868.0160, 68375.47
868.4981, 68371.63
868.9802, 68368.09
869.4623, 68371.84
869.9445, 68398.28
870.4266, 68433.95
870.9087, 68393.12
871.3908, 68285.17
871.8729, 68214.25
872.3550, 68281.25
872.8372, 68380.70
873.3193, 68418.84
873.8014, 68406.33
874.2835, 68415.30
874.7656, 68504.46
875.2477, 68564.16
875.7299, 68553.20
876.2120, 68494.93
876.6941, 68474.01
877.1762, 68490.32
877.6583, 68546.34
878.1404, 68672.69
878.6226, 68808.14
879.1047, 68876.65
879.5869, 68888.55
880.0690, 68872.27
880.5511, 68804.40
881.0332, 68748.95
881.5153, 68730.09
881.9974, 68733.88
882.4796, 68726.26
882.9617, 68698.12
883.4438, 68717.71
883.9259, 68818.32
884.4080, 68938.20
884.8901, 68975.95
885.3723, 68956.09
885.8544, 68934.97
886.3365, 68928.43
886.8186, 68930.28
887.3007, 68929.77
887.7828, 68940.08
888.2650, 68984.86
888.7471, 69095.48
889.2292, 69149.05
889.7113, 69120.30
890.1934, 69066.73
890.6755, 69055.06
891.1577, 69080.10
891.6398, 69133.10
892.1219, 69219.51
892.6040, 69294.32
893.0861, 69322.07
893.5682, 69325.04
894.0504, 69324.53
894.5325, 69330.42
895.0146, 69308.98
895.4967, 69242.41
895.9788, 69181.38
896.4609, 69172.59
896.9431, 69208.90
897.4252, 69255.38
897.9073, 69310.52
898.3894, 69348.03
898.8715, 69301.80
899.3536, 69263.16
899.8358, 69342.87
900.3179, 69566.51
900.8000, 69673.03
901.2821, 69553.73
901.7642, 69439.52
902.2463, 69444.49
902.7285, 69548.90
903.2106, 69602.52
903.6927, 69606.52
904.1748, 69600.75
904.6569, 69604.68
905.1390, 69614.44
905.6212, 69627.58
906.1033, 69643.34
906.5854, 69659.52
907.0675, 69690.37
907.5496, 69700.74
908.0317, 69666.05
908.5139, 69611.80
908.9960, 69634.05
909.4781, 69733.16
909.9602, 69786.48
910.4423, 69722.99
910.9244, 69638.38
911.4066, 69660.76
911.8887, 69743.66
912.3708, 69801.93
912.8529, 69751.66
913.3350, 69746.80
913.8171, 69845.92
914.2993, 69979.63
914.7814, 70052.30
915.2635, 70058.64
915.7456, 70083.05
916.2277, 70147.59
916.7098, 70187.90
917.1920, 70087.81
917.6741, 69931.17
918.1562, 69843.11
918.6383, 69862.11
919.1204, 69906.11
919.6025, 69973.78
920.0847, 70039.89
920.5668, 70090.04
921.0489, 70125.28
921.5310, 70129.38
922.0131, 70097.98
922.4952, 70071.59
922.9774, 70109.38
923.4595, 70160.22
923.9416, 70114.84
924.4237, 69979.05
924.9058, 69921.02
925.3879, 70102.25
925.8701, 70278.61
926.3522, 70341.94
926.8343, 70307.36
927.3164, 70293.99
927.7985, 70302.76
928.2806, 70322.88
928.7628, 70346.63
929.2449, 70381.27
929.7270, 70461.88
930.2091, 70563.65
930.6912, 70621.66
931.1733, 70576.23
931.6555, 70520.34
932.1376, 70465.92
932.6197, 70425.02
933.1018, 70425.58
933.5839, 70474.88
934.0660, 70510.78
934.5482, 70521.39
935.0303, 70518.31
935.5124, 70508.09
935.9945, 70497.30
936.4766, 70495.67
936.9587, 70500.90
937.4409, 70527.84
937.9230, 70596.91
938.4051, 70678.62
938.8872, 70757.37
939.3693, 70841.33
939.8514, 70868.09
940.3336, 70830.67
940.8157, 70786.19
941.2978, 70786.20
941.7799, 70806.81
942.2620, 70815.49
942.7441, 70810.20
943.2263, 70797.63
943.7084, 70740.84
944.1905, 70722.20
944.6726, 70791.52
945.1547, 70928.75
945.6368, 71002.80
946.1190, 71010.84
946.6011, 71013.13
947.0832, 71033.60
947.5653, 71066.30
948.0474, 71124.96
948.5295, 71188.50
949.0117, 71207.88
949.4938, 71105.08
949.9759, 71035.59
950.4580, 71046.45
950.9401, 71090.75
951.4222, 71088.03
951.9044, 71036.70
952.3865, 71038.72
952.8686, 71119.84
953.3507, 71211.09
953.8328, 71235.93
954.3149, 71228.62
954.7971, 71234.21
955.2792, 71268.45
955.7613, 71285.95
956.2434, 71262.45
956.7255, 71241.77
957.2076, 71254.41
957.6898, 71299.16
958.1719, 71325.86
958.6540, 71334.99
959.1361, 71344.55
959.6182, 71381.62
960.1003, 71413.48
960.5825, 71395.56
961.0646, 71339.09
961.5467, 71316.38
962.0288, 71365.38
962.5109, 71410.87
962.9930, 71432.22
963.4752, 71441.30
963.9573, 71475.00
964.4394, 71526.48
964.9215, 71549.46
965.4036, 71504.77
965.8857, 71475.79
966.3679, 71570.21
966.8500, 71703.54
967.3321, 71763.38
967.8142, 71680.37
968.2963, 71620.53
968.7784, 71589.69
969.2606, 71572.58
969.7427, 71534.01
970.2248, 71496.01
970.7069, 71565.60
971.1890, 71748.78
971.6711, 71902.23
972.1533, 71910.45
972.6354, 71873.52
973.1175, 71845.36
973.5996, 71830.16
974.0817, 71845.66
974.5638, 71899.58
975.0460, 71955.61
975.5281, 71992.51
976.0102, 72028.44
976.4923, 72123.79
976.9744, 72252.70
977.4565, 72339.27
977.9387, 72294.75
978.4208, 72267.38
978.9029, 72338.58
979.3850, 72442.09
979.8671, 72485.65
980.3492, 72457.07
980.8314, 72437.87
981.3135, 72437.66
981.7956, 72443.98
982.2777, 72441.89
982.7598, 72437.95
983.2419, 72440.41
983.7241, 72450.16
984.2062, 72469.63
984.6883, 72534.59
985.1704, 72571.19
985.6525, 72528.27
986.1346, 72418.94
986.6168, 72387.02
987.0989, 72430.90
987.5810, 72499.55
988.0631, 72596.07
988.5452, 72676.98
989.0273, 72678.14
989.5095, 72631.38
989.9916, 72618.81
990.4737, 72687.00
990.9558, 72741.77
991.4379, 72767.21
991.9200, 72781.32
992.4022, 72803.22
992.8843, 72836.48
993.3664, 72903.22
993.8485, 73011.82
994.3306, 73122.55
994.8127, 73219.77
995.2949, 73299.11
995.7770, 73341.76
996.2591, 73333.87
996.7412, 73400.48
997.2233, 73558.13
997.7054, 73727.70
998.1876, 73855.45
998.6697, 73963.24
999.1518, 74101.45
999.6339, 74265.77
1000.116, 74440.16
1000.598, 74650.68
1001.080, 74832.47
1001.562, 74931.09
1002.044, 75003.26
1002.527, 75171.22
1003.009, 75444.16
1003.491, 75661.25
1003.973, 75787.40
1004.455, 75861.23
1004.937, 75899.76
1005.419, 75920.89
1005.901, 75951.26
1006.384, 76005.90
1006.866, 76024.64
1007.348, 76009.62
1007.830, 75947.25
1008.312, 75815.96
1008.794, 75629.33
1009.276, 75458.97
1009.758, 75304.91
1010.240, 75161.03
1010.723, 75038.65
1011.205, 74910.66
1011.687, 74762.69
1012.169, 74595.08
1012.651, 74406.38
1013.133, 74171.88
1013.615, 73987.17
1014.097, 73871.45
1014.580, 73795.88
1015.062, 73713.13
1015.544, 73644.72
1016.026, 73650.54
1016.508, 73761.20
1016.990, 73827.91
1017.472, 73745.63
1017.954, 73643.21
1018.436, 73597.04
1018.919, 73604.04
1019.401, 73578.38
1019.883, 73519.91
1020.365, 73483.95
1020.847, 73537.76
1021.329, 73599.91
1021.811, 73566.55
1022.293, 73479.24
1022.776, 73441.58
1023.258, 73530.93
1023.740, 73571.62
1024.222, 73530.89
1024.704, 73462.29
1025.186, 73439.18
1025.668, 73450.27
1026.150, 73450.17
1026.632, 73429.36
1027.115, 73441.02
1027.597, 73589.23
1028.079, 73719.00
1028.561, 73696.67
1029.043, 73532.30
1029.525, 73473.05
1030.007, 73531.39
1030.489, 73598.94
1030.972, 73618.98
1031.454, 73628.95
1031.936, 73699.14
1032.418, 73798.05
1032.900, 73857.34
1033.382, 73815.05
1033.864, 73789.17
1034.346, 73795.75
1034.828, 73817.27
1035.311, 73845.43
1035.793, 73874.66
1036.275, 73849.70
1036.757, 73765.59
1037.239, 73708.75
1037.721, 73755.19
1038.203, 73837.84
1038.685, 73928.05
1039.167, 74017.63
1039.650, 74055.38
1040.132, 74030.67
1040.614, 73994.02
1041.096, 73947.62
1041.578, 73924.23
1042.060, 74030.36
1042.542, 74186.27
1043.024, 74230.48
1043.507, 73995.41
1043.989, 73891.81
1044.471, 74093.69
1044.953, 74330.22
1045.435, 74382.55
1045.917, 74265.95
1046.399, 74161.68
1046.881, 74075.85
1047.364, 74048.88
1047.846, 74189.43
1048.328, 74323.09
1048.810, 74291.56
1049.292, 74143.34
1049.774, 74114.64
1050.256, 74254.31
1050.738, 74340.98
1051.220, 74318.33
1051.703, 74259.24
1052.185, 74263.25
1052.667, 74305.77
1053.149, 74344.59
1053.631, 74367.75
1054.113, 74405.46
1054.595, 74486.23
1055.077, 74560.86
1055.559, 74614.07
1056.042, 74640.73
1056.524, 74576.09
1057.006, 74435.54
1057.488, 74344.80
1057.970, 74414.51
1058.452, 74512.12
1058.934, 74555.23
1059.416, 74569.59
1059.899, 74607.99
1060.381, 74687.01
1060.863, 74735.23
1061.345, 74744.87
1061.827, 74732.07
1062.309, 74704.12
1062.791, 74669.24
1063.273, 74631.09
1063.755, 74591.04
1064.238, 74586.08
1064.720, 74652.63
1065.202, 74723.58
1065.684, 74784.02
1066.166, 74831.98
1066.648, 74843.27
1067.130, 74831.54
1067.612, 74873.47
1068.094, 75040.84
1068.577, 75152.49
1069.059, 75014.30
1069.541, 74826.08
1070.023, 74793.03
1070.505, 74955.90
1070.987, 75046.72
1071.469, 75062.27
1071.951, 75049.28
1072.434, 75010.00
1072.916, 74982.20
1073.398, 75043.30
1073.880, 75157.99
1074.362, 75200.49
1074.844, 75073.13
1075.326, 74993.21
1075.808, 74993.88
1076.291, 75038.43
1076.773, 75082.02
1077.255, 75126.73
1077.737, 75192.16
1078.219, 75284.02
1078.701, 75322.23
1079.183, 75188.35
1079.665, 75069.13
1080.147, 75068.47
1080.630, 75162.70
1081.112, 75203.75
1081.594, 75194.02
1082.076, 75210.25
1082.558, 75294.81
1083.040, 75390.20
1083.522, 75458.06
1084.004, 75499.70
1084.486, 75511.95
1084.969, 75475.95
1085.451, 75470.16
1085.933, 75502.82
1086.415, 75535.01
1086.897, 75528.95
1087.379, 75506.59
1087.861, 75509.72
1088.343, 75532.56
1088.826, 75547.20
1089.308, 75521.94
1089.790, 75516.79
1090.272, 75541.28
1090.754, 75591.21
1091.236, 75680.85
1091.718, 75793.91
1092.200, 75843.50
1092.682, 75811.51
1093.165, 75787.30
1093.647, 75863.11
1094.129, 75930.31
1094.611, 75901.91
1095.093, 75797.98
1095.575, 75768.18
1096.057, 75815.27
1096.539, 75872.10
1097.022, 75926.78
1097.504, 75953.51
1097.986, 75893.13
1098.468, 75801.43
1098.950, 75760.04
1099.432, 75813.16
1099.914, 75819.63
1100.396, 75756.86
1100.879, 75720.09
1101.361, 75807.26
1101.843, 75954.45
1102.325, 76043.60
1102.807, 76083.50
1103.289, 76110.30
1103.771, 76121.77
1104.253, 76145.62
1104.735, 76200.74
1105.218, 76252.36
1105.700, 76238.66
1106.182, 76175.94
1106.664, 76140.34
1107.146, 76140.03
1107.628, 76161.33
1108.110, 76217.35
1108.592, 76271.02
1109.074, 76298.42
1109.557, 76306.30
1110.039, 76316.26
1110.521, 76328.21
1111.003, 76356.62
1111.485, 76408.20
1111.967, 76468.72
1112.449, 76527.32
1112.931, 76584.97
1113.414, 76647.02
1113.896, 76719.60
1114.378, 76762.31
1114.860, 76772.04
1115.342, 76765.18
1115.824, 76747.62
1116.306, 76721.87
1116.788, 76657.23
1117.271, 76591.72
1117.753, 76609.95
1118.235, 76878.03
1118.717, 77011.89
1119.199, 76938.50
1119.681, 76823.71
1120.163, 76841.08
1120.645, 76947.67
1121.127, 77020.04
1121.609, 77055.28
1122.092, 77084.64
1122.574, 77134.61
1123.056, 77166.47
1123.538, 77165.82
1124.020, 77142.94
1124.502, 77100.84
1124.984, 77047.41
1125.466, 77065.53
1125.949, 77179.97
1126.431, 77277.02
1126.913, 77261.80
1127.395, 77212.15
1127.877, 77182.88
1128.359, 77171.91
1128.841, 77145.09
1129.323, 77100.62
1129.806, 77069.69
1130.288, 77059.46
1130.770, 77076.06
1131.252, 77168.21
1131.734, 77271.06
1132.216, 77289.30
1132.698, 77179.36
1133.180, 77111.58
1133.662, 77092.06
1134.145, 77090.91
1134.627, 77083.49
1135.109, 77086.30
1135.591, 77133.68
1136.073, 77212.13
1136.555, 77286.16
1137.037, 77368.09
1137.519, 77408.52
1138.001, 77397.93
1138.484, 77359.76
1138.966, 77299.93
1139.448, 77236.11
1139.930, 77206.95
1140.412, 77215.50
1140.894, 77266.84
1141.376, 77427.72
1141.858, 77549.38
1142.341, 77594.16
1142.823, 77581.23
1143.305, 77513.36
1143.787, 77414.25
1144.269, 77404.17
1144.751, 77511.66
1145.233, 77611.42
1145.715, 77636.36
1146.198, 77627.09
1146.680, 77593.00
1147.162, 77547.54
1147.644, 77568.94
1148.126, 77650.77
1148.608, 77703.53
1149.090, 77692.05
1149.572, 77664.13
1150.054, 77644.05
1150.536, 77633.18
1151.019, 77635.20
1151.501, 77651.35
1151.983, 77652.69
1152.465, 77637.92
1152.947, 77639.33
1153.429, 77695.89
1153.911, 77752.07
1154.393, 77739.16
1154.876, 77693.61
1155.358, 77678.99
1155.840, 77700.45
1156.322, 77757.30
1156.804, 77860.11
1157.286, 77940.35
1157.768, 77913.03
1158.250, 77852.33
1158.733, 77836.52
1159.215, 77868.02
1159.697, 77953.60
1160.179, 78172.89
1160.661, 78256.27
1161.143, 78137.13
1161.625, 77976.68
1162.107, 77974.39
1162.589, 78051.09
1163.072, 78078.26
1163.554, 78047.23
1164.036, 78002.05
1164.518, 77905.02
1165.000, 77883.41
1165.482, 77992.63
1165.964, 78152.83
1166.446, 78213.45
1166.928, 78212.74
1167.411, 78248.74
1167.893, 78352.15
1168.375, 78396.13
1168.857, 78268.98
1169.339, 78164.97
1169.821, 78172.10
1170.303, 78243.95
1170.785, 78226.34
1171.268, 78155.27
1171.750, 78160.65
1172.232, 78332.22
1172.714, 78456.02
1173.196, 78401.01
1173.678, 78312.65
1174.160, 78272.39
1174.642, 78273.70
1175.125, 78284.09
1175.607, 78301.42
1176.089, 78313.70
1176.571, 78326.88
1177.053, 78318.43
1177.535, 78221.56
1178.017, 78142.91
1178.499, 78213.55
1178.981, 78430.80
1179.464, 78488.54
1179.946, 78393.96
1180.428, 78313.55
1180.910, 78356.18
1181.392, 78436.48
1181.874, 78536.51
1182.356, 78632.41
1182.838, 78693.94
1183.320, 78721.80
1183.803, 78686.54
1184.285, 78583.20
1184.767, 78509.09
1185.249, 78551.98
1185.731, 78634.27
1186.213, 78729.23
1186.695, 78816.94
1187.177, 78842.52
1187.660, 78801.67
1188.142, 78753.91
1188.624, 78702.95
1189.106, 78696.76
1189.588, 78851.80
1190.070, 79008.10
1190.552, 79002.47
1191.034, 78861.41
1191.516, 78820.88
1191.999, 78893.88
1192.481, 78936.73
1192.963, 78902.40
1193.445, 78868.67
1193.927, 78953.59
1194.409, 79051.10
1194.891, 79033.93
1195.373, 78891.78
1195.855, 78807.53
1196.338, 78780.77
1196.820, 78817.34
1197.302, 78945.97
1197.784, 79082.98
1198.266, 79148.16
1198.748, 79161.00
1199.230, 79131.84
1199.712, 79048.51
1200.195, 79032.82
1200.677, 79097.46
1201.159, 79138.36
1201.641, 79068.47
1202.123, 78986.12
1202.605, 79011.95
1203.087, 79100.12
1203.569, 79181.62
1204.052, 79271.77
1204.534, 79268.54
1205.016, 79152.48
1205.498, 79059.35
1205.980, 79118.79
1206.462, 79221.91
1206.944, 79217.08
1207.426, 79162.45
1207.908, 79204.70
1208.391, 79419.09
1208.873, 79543.09
1209.355, 79559.41
1209.837, 79525.42
1210.319, 79450.33
1210.801, 79382.30
1211.283, 79396.96
1211.765, 79468.61
1212.247, 79497.92
1212.730, 79453.67
1213.212, 79447.20
1213.694, 79495.92
1214.176, 79554.63
1214.658, 79566.63
1215.140, 79574.59
1215.622, 79661.00
1216.104, 79799.98
1216.587, 79813.91
1217.069, 79642.46
1217.551, 79531.95
1218.033, 79528.12
1218.515, 79568.49
1218.997, 79587.33
1219.479, 79609.38
1219.961, 79669.02
1220.443, 79765.59
1220.926, 79856.20
1221.408, 79948.81
1221.890, 79991.56
1222.372, 79968.05
1222.854, 79905.85
1223.336, 79793.61
1223.818, 79689.45
1224.300, 79669.25
1224.782, 79746.47
1225.265, 79817.61
1225.747, 79884.89
1226.229, 79929.70
1226.711, 79939.26
1227.193, 79943.53
1227.675, 79999.92
1228.157, 80059.41
1228.639, 80044.34
1229.122, 79935.02
1229.604, 79923.52
1230.086, 80023.77
1230.568, 80131.67
1231.050, 80218.73
1231.532, 80271.88
1232.014, 80267.69
1232.496, 80225.34
1232.979, 80145.40
1233.461, 80012.31
1233.943, 80036.70
1234.425, 80237.89
1234.907, 80400.47
1235.389, 80412.63
1235.871, 80359.54
1236.353, 80281.47
1236.835, 80213.95
1237.318, 80218.52
1237.800, 80312.14
1238.282, 80334.70
1238.764, 80282.88
1239.246, 80222.83
1239.728, 80165.88
1240.210, 80148.63
1240.692, 80241.72
1241.175, 80373.53
1241.657, 80437.96
1242.139, 80414.85
1242.621, 80472.76
1243.103, 80613.31
1243.585, 80690.63
1244.067, 80530.54
1244.549, 80369.91
1245.031, 80375.54
1245.514, 80477.70
1245.996, 80581.66
1246.478, 80692.91
1246.960, 80735.90
1247.442, 80712.90
1247.924, 80693.08
1248.406, 80724.61
1248.888, 80767.65
1249.370, 80815.51
1249.853, 80852.16
1250.335, 80853.59
1250.817, 80821.01
1251.299, 80782.59
1251.781, 80741.66
1252.263, 80724.30
1252.745, 80759.63
1253.227, 80807.45
1253.710, 80862.41
1254.192, 80910.09
1254.674, 80919.48
1255.156, 80900.33
1255.638, 80944.02
1256.120, 81046.73
1256.602, 81100.85
1257.084, 80983.80
1257.567, 80887.23
1258.049, 80861.36
1258.531, 80896.35
1259.013, 81017.41
1259.495, 81187.53
1259.977, 81258.30
1260.459, 81226.92
1260.941, 81196.26
1261.423, 81215.98
1261.906, 81236.71
1262.388, 81241.59
1262.870, 81251.64
1263.352, 81314.97
1263.834, 81401.21
1264.316, 81447.80
1264.798, 81447.50
1265.280, 81393.55
1265.762, 81194.88
1266.245, 81097.21
1266.727, 81169.64
1267.209, 81298.33
1267.691, 81331.08
1268.173, 81311.72
1268.655, 81301.77
1269.137, 81308.85
1269.619, 81355.18
1270.102, 81460.47
1270.584, 81556.32
1271.066, 81636.20
1271.548, 81674.31
1272.030, 81588.16
1272.512, 81473.63
1272.994, 81451.40
1273.476, 81527.41
1273.958, 81594.34
1274.441, 81650.82
1274.923, 81682.02
1275.405, 81678.52
1275.887, 81676.11
1276.369, 81734.38
1276.851, 81794.36
1277.333, 81793.23
1277.815, 81737.68
1278.297, 81674.39
1278.780, 81600.73
1279.262, 81597.80
1279.744, 81696.69
1280.226, 81791.88
1280.708, 81769.71
1281.190, 81738.65
1281.672, 81782.84
1282.154, 81881.98
1282.637, 81981.67
1283.119, 82075.28
1283.601, 82079.76
1284.083, 81962.02
1284.565, 81874.05
1285.047, 81949.98
1285.529, 82033.62
1286.011, 82051.11
1286.494, 82018.55
1286.976, 81959.44
1287.458, 81889.23
1287.940, 81859.51
1288.422, 81881.07
1288.904, 81942.16
1289.386, 82093.61
1289.868, 82208.02
1290.350, 82235.80
1290.833, 82212.88
1291.315, 82197.52
1291.797, 82189.00
1292.279, 82189.70
1292.761, 82202.85
1293.243, 82197.23
1293.725, 82160.72
1294.207, 82128.00
1294.689, 82103.74
1295.172, 82103.48
1295.654, 82181.81
1296.136, 82280.35
1296.618, 82311.84
1297.100, 82256.20
1297.582, 82249.02
1298.064, 82301.71
1298.546, 82323.17
1299.029, 82268.19
1299.511, 82226.95
1299.993, 82352.95
1300.475, 82495.54
1300.957, 82471.10
1301.439, 82312.13
1301.921, 82260.23
1302.403, 82311.11
1302.885, 82337.23
1303.368, 82296.34
1303.850, 82255.10
1304.332, 82249.35
1304.814, 82272.67
1305.296, 82329.16
1305.778, 82402.76
1306.260, 82426.32
1306.742, 82415.90
1307.224, 82444.62
1307.707, 82540.75
1308.189, 82614.68
1308.671, 82618.77
1309.153, 82603.12
1309.635, 82571.17
1310.117, 82547.62
1310.599, 82623.92
1311.081, 82736.63
1311.564, 82732.41
1312.046, 82556.79
1312.528, 82495.34
1313.010, 82614.28
1313.492, 82721.51
1313.974, 82752.43
1314.456, 82741.90
1314.938, 82697.38
##END=



