##NAMES=Borax
##RRUFFID=R070168
##IDEAL CHEMISTRY=Na_2_B_4_O_5_(OH)_4_&#183;8H_2_O
##LOCALITY=Boron, Kramer District, Kern County, California, USA
##OWNER=RRUFF
##SOURCE=Michael Scott
##DESCRIPTION=Colorless prismatic single crystal associated with tincalconite
##STATUS=The identification of this mineral has been confirmed by X-ray diffraction and chemical analysis
##URL=rruff.info/R070168
##MEASURED CHEMISTRY=Na_2.00_B_4_O_5_(OH)_4_·8H_2_O ; = lighter phase. Darker phase is probably tincalconite; B, H, O not measured but estimated by stoichiometry
149.6995, 13989.91
150.1816, 14147.23
150.6637, 14328.93
151.1458, 14573.78
151.6279, 14825.51
152.1101, 15035.26
152.5922, 15159.20
153.0743, 15275.85
153.5564, 15406.25
154.0385, 15561.27
154.5206, 15703.38
155.0028, 15826.88
155.4849, 15934.33
155.9670, 16029.98
156.4491, 16123.67
156.9312, 16199.12
157.4133, 16245.16
157.8955, 16234.78
158.3776, 16237.46
158.8597, 16282.10
159.3418, 16357.18
159.8239, 16423.42
160.3060, 16457.81
160.7882, 16484.34
161.2703, 16519.77
161.7524, 16582.14
162.2345, 16641.19
162.7166, 16680.33
163.1987, 16701.89
163.6808, 16726.96
164.1630, 16766.17
164.6451, 16814.08
165.1272, 16864.80
165.6093, 16919.91
166.0914, 16974.53
166.5735, 17028.08
167.0557, 17080.98
167.5378, 17125.25
168.0199, 17151.09
168.5020, 17164.93
168.9841, 17177.22
169.4662, 17195.86
169.9484, 17213.52
170.4305, 17222.33
170.9126, 17219.67
171.3947, 17215.24
171.8768, 17217.05
172.3589, 17223.65
172.8411, 17230.90
173.3232, 17232.02
173.8053, 17233.77
174.2874, 17246.82
174.7695, 17277.07
175.2516, 17311.38
175.7338, 17335.49
176.2159, 17350.45
176.6980, 17363.04
177.1801, 17382.07
177.6622, 17402.11
178.1443, 17409.96
178.6264, 17392.11
179.1086, 17369.46
179.5907, 17374.56
180.0728, 17407.08
180.5549, 17453.59
181.0370, 17512.88
181.5191, 17578.84
182.0013, 17633.36
182.4834, 17662.47
182.9655, 17677.45
183.4476, 17705.90
183.9297, 17748.92
184.4118, 17796.68
184.8940, 17841.38
185.3761, 17882.79
185.8582, 17916.78
186.3403, 17934.20
186.8224, 17941.30
187.3046, 17965.24
187.7867, 18009.44
188.2688, 18062.39
188.7509, 18112.92
189.2330, 18160.67
189.7151, 18195.15
190.1973, 18204.38
190.6794, 18191.82
191.1615, 18186.72
191.6436, 18192.74
192.1257, 18204.69
192.6078, 18215.30
193.0900, 18225.35
193.5721, 18226.46
194.0542, 18210.99
194.5363, 18179.41
195.0184, 18142.37
195.5005, 18095.49
195.9826, 18048.20
196.4648, 18032.87
196.9469, 18054.41
197.4290, 18083.89
197.9111, 18095.90
198.3932, 18088.33
198.8753, 18092.26
199.3575, 18119.09
199.8396, 18162.20
200.3217, 18185.73
200.8038, 18186.70
201.2859, 18176.23
201.7680, 18161.08
202.2502, 18138.90
202.7323, 18125.97
203.2144, 18128.61
203.6965, 18145.92
204.1786, 18161.99
204.6607, 18179.13
205.1429, 18190.47
205.6250, 18183.89
206.1071, 18153.83
206.5892, 18128.68
207.0713, 18119.88
207.5534, 18129.18
208.0356, 18127.21
208.5177, 18107.45
208.9998, 18084.23
209.4819, 18082.96
209.9640, 18113.10
210.4461, 18138.59
210.9282, 18144.15
211.4104, 18125.31
211.8925, 18107.52
212.3746, 18088.09
212.8567, 18071.61
213.3388, 18071.36
213.8209, 18098.18
214.3031, 18116.97
214.7852, 18107.05
215.2673, 18053.71
215.7494, 18019.37
216.2315, 18006.85
216.7136, 18013.82
217.1958, 18036.66
217.6779, 18086.73
218.1600, 18132.66
218.6421, 18156.90
219.1242, 18151.44
219.6063, 18144.85
220.0885, 18137.15
220.5706, 18129.57
221.0527, 18126.66
221.5348, 18126.56
222.0169, 18133.83
222.4990, 18154.68
222.9812, 18201.25
223.4633, 18232.09
223.9454, 18237.93
224.4275, 18222.17
224.9096, 18214.07
225.3917, 18220.41
225.8739, 18225.67
226.3560, 18213.13
226.8381, 18158.05
227.3202, 18138.11
227.8023, 18178.70
228.2844, 18276.34
228.7665, 18338.69
229.2487, 18349.74
229.7308, 18341.28
230.2129, 18340.44
230.6950, 18351.68
231.1771, 18362.24
231.6592, 18370.79
232.1414, 18377.35
232.6235, 18378.56
233.1056, 18369.15
233.5877, 18359.29
234.0698, 18360.05
234.5519, 18374.86
235.0341, 18394.16
235.5162, 18417.23
235.9983, 18444.58
236.4804, 18470.76
236.9625, 18497.58
237.4446, 18521.76
237.9268, 18537.54
238.4089, 18532.71
238.8910, 18540.77
239.3731, 18575.48
239.8552, 18645.38
240.3373, 18695.51
240.8195, 18718.26
241.3016, 18726.26
241.7837, 18737.63
242.2658, 18755.47
242.7479, 18771.31
243.2300, 18779.92
243.7122, 18775.51
244.1943, 18789.88
244.6764, 18838.85
245.1585, 18897.31
245.6406, 18920.69
246.1227, 18880.94
246.6048, 18852.40
247.0870, 18864.84
247.5691, 18938.30
248.0512, 18984.73
248.5333, 18990.38
249.0154, 18975.82
249.4975, 18980.91
249.9797, 19017.19
250.4618, 19053.71
250.9439, 19079.19
251.4260, 19090.98
251.9081, 19098.21
252.3902, 19094.61
252.8724, 19089.28
253.3545, 19104.89
253.8366, 19154.46
254.3187, 19201.85
254.8008, 19232.08
255.2829, 19240.53
255.7651, 19243.41
256.2472, 19236.48
256.7293, 19225.75
257.2114, 19223.57
257.6935, 19224.19
258.1756, 19243.81
258.6577, 19296.99
259.1399, 19407.57
259.6220, 19481.73
260.1041, 19506.43
260.5862, 19499.11
261.0683, 19507.14
261.5504, 19538.48
262.0326, 19569.21
262.5147, 19584.16
262.9968, 19572.48
263.4789, 19583.90
263.9610, 19631.91
264.4431, 19699.04
264.9253, 19731.18
265.4074, 19713.75
265.8895, 19694.27
266.3716, 19697.97
266.8537, 19729.82
267.3358, 19766.00
267.8180, 19808.03
268.3001, 19852.39
268.7822, 19890.51
269.2643, 19921.33
269.7464, 19948.03
270.2285, 19971.24
270.7107, 19989.19
271.1928, 20011.87
271.6749, 20038.76
272.1570, 20071.54
272.6391, 20119.33
273.1212, 20189.71
273.6034, 20250.45
274.0855, 20274.04
274.5676, 20252.87
275.0497, 20260.14
275.5318, 20313.63
276.0139, 20389.14
276.4961, 20412.89
276.9782, 20372.06
277.4603, 20334.32
277.9424, 20345.26
278.4245, 20407.31
278.9066, 20471.82
279.3888, 20541.77
279.8709, 20604.78
280.3530, 20620.75
280.8351, 20583.18
281.3172, 20540.11
281.7993, 20518.17
282.2815, 20517.06
282.7636, 20535.65
283.2457, 20582.13
283.7278, 20637.68
284.2099, 20658.35
284.6920, 20642.19
285.1741, 20616.25
285.6563, 20590.23
286.1384, 20565.66
286.6205, 20563.76
287.1026, 20592.95
287.5847, 20634.85
288.0668, 20651.88
288.5490, 20644.12
289.0311, 20636.37
289.5132, 20648.79
289.9953, 20676.03
290.4774, 20691.23
290.9595, 20688.12
291.4417, 20679.23
291.9238, 20684.17
292.4059, 20702.39
292.8880, 20727.51
293.3701, 20763.72
293.8522, 20804.63
294.3344, 20828.11
294.8165, 20828.25
295.2986, 20820.44
295.7807, 20824.88
296.2628, 20840.50
296.7449, 20861.24
297.2271, 20884.60
297.7092, 20910.16
298.1913, 20939.75
298.6734, 20975.76
299.1555, 21007.65
299.6376, 21011.87
300.1198, 20997.35
300.6019, 20997.16
301.0840, 21041.55
301.5661, 21108.91
302.0482, 21167.44
302.5303, 21214.58
303.0125, 21251.91
303.4946, 21271.91
303.9767, 21282.18
304.4588, 21303.90
304.9409, 21356.17
305.4230, 21421.82
305.9052, 21484.50
306.3873, 21542.23
306.8694, 21596.13
307.3515, 21642.64
307.8336, 21685.26
308.3157, 21731.70
308.7979, 21789.55
309.2800, 21850.06
309.7621, 21907.33
310.2442, 21961.37
310.7263, 22008.22
311.2084, 22033.47
311.6906, 22051.87
312.1727, 22087.28
312.6548, 22181.39
313.1369, 22273.17
313.6190, 22314.14
314.1011, 22296.10
314.5833, 22281.06
315.0654, 22310.05
315.5475, 22355.96
316.0296, 22384.32
316.5117, 22361.05
316.9938, 22336.38
317.4760, 22339.38
317.9580, 22374.02
318.4402, 22394.52
318.9223, 22374.81
319.4044, 22338.00
319.8865, 22307.53
320.3686, 22293.44
320.8507, 22282.50
321.3329, 22269.78
321.8150, 22255.11
322.2971, 22245.40
322.7792, 22242.21
323.2613, 22244.42
323.7434, 22251.09
324.2256, 22249.61
324.7077, 22265.82
325.1898, 22319.46
325.6719, 22408.83
326.1540, 22466.64
326.6361, 22463.89
327.1183, 22444.12
327.6004, 22435.19
328.0825, 22432.56
328.5646, 22446.51
329.0467, 22474.53
329.5288, 22518.31
330.0110, 22591.99
330.4931, 22744.44
330.9752, 22880.79
331.4573, 22941.32
331.9394, 22872.81
332.4215, 22826.10
332.9037, 22811.33
333.3858, 22824.81
333.8679, 22851.45
334.3500, 22889.52
334.8321, 22943.79
335.3142, 23021.74
335.7964, 23136.25
336.2785, 23234.43
336.7606, 23309.83
337.2427, 23371.44
337.7248, 23442.87
338.2069, 23529.15
338.6891, 23609.65
339.1712, 23668.83
339.6533, 23701.46
340.1354, 23757.03
340.6175, 23836.99
341.0996, 23938.64
341.5818, 24066.68
342.0639, 24225.30
342.5460, 24366.30
343.0281, 24457.58
343.5102, 24504.34
343.9923, 24579.48
344.4745, 24688.17
344.9566, 24805.60
345.4387, 24904.54
345.9208, 24983.47
346.4029, 25038.40
346.8850, 25052.25
347.3672, 25041.46
347.8493, 25057.26
348.3314, 25101.42
348.8135, 25148.97
349.2956, 25178.56
349.7777, 25190.94
350.2599, 25189.37
350.7419, 25176.32
351.2241, 25148.96
351.7062, 25098.56
352.1883, 25026.39
352.6704, 24947.90
353.1525, 24884.89
353.6346, 24822.76
354.1168, 24734.07
354.5989, 24590.18
355.0810, 24441.80
355.5631, 24345.50
356.0452, 24290.78
356.5273, 24226.71
357.0095, 24113.90
357.4916, 23980.72
357.9737, 23852.83
358.4558, 23722.89
358.9379, 23620.59
359.4200, 23575.76
359.9022, 23572.63
360.3843, 23569.63
360.8664, 23544.04
361.3485, 23517.24
361.8306, 23506.95
362.3127, 23530.32
362.7949, 23531.95
363.2770, 23472.96
363.7591, 23385.15
364.2412, 23321.95
364.7233, 23300.94
365.2054, 23301.38
365.6876, 23324.93
366.1697, 23384.54
366.6518, 23416.38
367.1339, 23377.76
367.6160, 23321.44
368.0981, 23308.40
368.5803, 23382.28
369.0624, 23451.89
369.5445, 23501.75
370.0266, 23531.19
370.5087, 23548.93
370.9908, 23541.03
371.4730, 23533.87
371.9551, 23551.71
372.4372, 23610.99
372.9193, 23659.93
373.4014, 23681.24
373.8835, 23683.74
374.3657, 23726.87
374.8478, 23823.88
375.3299, 23932.71
375.8120, 24025.73
376.2941, 24102.42
376.7762, 24166.76
377.2584, 24210.21
377.7405, 24249.43
378.2226, 24329.63
378.7047, 24456.51
379.1868, 24582.98
379.6689, 24684.21
380.1511, 24761.42
380.6332, 24834.62
381.1153, 24905.21
381.5974, 24969.27
382.0795, 25010.44
382.5616, 25033.80
383.0438, 25068.71
383.5259, 25158.54
384.0080, 25264.82
384.4901, 25299.81
384.9722, 25259.84
385.4543, 25184.42
385.9364, 25102.88
386.4185, 25012.80
386.9007, 24908.09
387.3828, 24759.51
387.8649, 24613.92
388.3470, 24535.11
388.8291, 24514.74
389.3112, 24477.42
389.7934, 24341.42
390.2755, 24177.78
390.7576, 24063.59
391.2397, 24047.86
391.7218, 24043.37
392.2039, 23998.95
392.6861, 23927.85
393.1682, 23871.17
393.6503, 23852.13
394.1324, 23846.93
394.6145, 23842.76
395.0966, 23837.85
395.5788, 23833.71
396.0609, 23826.63
396.5430, 23821.17
397.0251, 23824.95
397.5072, 23858.96
397.9893, 23883.48
398.4715, 23880.58
398.9536, 23839.54
399.4357, 23822.95
399.9178, 23850.67
400.3999, 23890.20
400.8820, 23908.04
401.3642, 23883.79
401.8463, 23873.76
402.3284, 23894.16
402.8105, 23941.07
403.2926, 23966.60
403.7747, 23963.30
404.2569, 23952.30
404.7390, 23943.33
405.2211, 23931.93
405.7032, 23953.25
406.1853, 24025.49
406.6674, 24118.18
407.1496, 24150.32
407.6317, 24116.20
408.1138, 24076.98
408.5959, 24065.93
409.0780, 24079.55
409.5602, 24096.09
410.0423, 24114.48
410.5244, 24134.57
411.0065, 24156.67
411.4886, 24180.52
411.9707, 24204.33
412.4529, 24224.69
412.9350, 24245.87
413.4171, 24282.53
413.8992, 24334.60
414.3813, 24370.19
414.8634, 24346.02
415.3456, 24293.96
415.8277, 24261.27
416.3098, 24263.58
416.7919, 24287.57
417.2740, 24337.57
417.7561, 24405.17
418.2382, 24460.17
418.7203, 24471.53
419.2025, 24474.96
419.6846, 24499.34
420.1667, 24568.71
420.6488, 24615.75
421.1309, 24598.81
421.6130, 24549.51
422.0952, 24523.64
422.5773, 24547.17
423.0594, 24581.60
423.5415, 24618.43
424.0236, 24658.92
424.5057, 24692.51
424.9879, 24726.17
425.4700, 24748.15
425.9521, 24744.30
426.4342, 24681.74
426.9163, 24651.13
427.3984, 24672.42
427.8806, 24738.86
428.3627, 24807.85
428.8448, 24890.76
429.3269, 24952.18
429.8090, 24957.48
430.2911, 24896.18
430.7733, 24867.12
431.2554, 24885.06
431.7375, 24926.14
432.2196, 24943.22
432.7017, 24935.47
433.1838, 24935.69
433.6660, 24967.28
434.1481, 25020.25
434.6302, 25057.38
435.1123, 25077.35
435.5944, 25091.08
436.0765, 25105.58
436.5587, 25122.32
437.0408, 25144.96
437.5229, 25173.19
438.0050, 25209.03
438.4871, 25264.89
438.9692, 25335.27
439.4514, 25389.75
439.9335, 25391.35
440.4156, 25377.48
440.8977, 25386.68
441.3798, 25440.43
441.8619, 25486.37
442.3441, 25475.12
442.8262, 25441.48
443.3083, 25450.25
443.7904, 25578.23
444.2725, 25701.90
444.7546, 25761.65
445.2368, 25737.35
445.7189, 25745.85
446.2010, 25824.29
446.6831, 25928.10
447.1652, 26018.17
447.6473, 26084.48
448.1295, 26151.95
448.6116, 26226.56
449.0937, 26305.49
449.5758, 26366.77
450.0579, 26398.65
450.5400, 26434.45
451.0221, 26494.64
451.5042, 26582.94
451.9864, 26667.96
452.4685, 26744.01
452.9506, 26824.71
453.4327, 26944.86
453.9148, 27104.73
454.3969, 27242.58
454.8791, 27308.17
455.3612, 27334.24
455.8433, 27450.60
456.3254, 27660.88
456.8075, 27852.59
457.2896, 27891.55
457.7718, 27834.57
458.2539, 27804.96
458.7360, 27846.00
459.2181, 27905.03
459.7002, 27943.16
460.1823, 27958.11
460.6645, 27941.21
461.1466, 27870.82
461.6287, 27777.92
462.1108, 27687.42
462.5929, 27604.44
463.0750, 27508.87
463.5572, 27366.72
464.0393, 27215.89
464.5214, 27102.45
465.0035, 27070.00
465.4856, 27043.26
465.9677, 27004.44
466.4499, 26953.88
466.9320, 26909.69
467.4141, 26871.55
467.8962, 26840.01
468.3783, 26815.20
468.8604, 26796.86
469.3426, 26786.38
469.8247, 26786.38
470.3068, 26792.28
470.7889, 26798.48
471.2710, 26809.32
471.7531, 26802.94
472.2353, 26759.18
472.7174, 26684.70
473.1995, 26653.24
473.6816, 26667.92
474.1637, 26704.56
474.6458, 26745.94
475.1280, 26790.46
475.6101, 26831.24
476.0922, 26868.22
476.5743, 26898.47
477.0564, 26913.58
477.5385, 26916.58
478.0207, 26919.90
478.5028, 26941.54
478.9849, 26961.61
479.4670, 26951.62
479.9491, 26903.70
480.4312, 26866.42
480.9134, 26872.03
481.3955, 26903.85
481.8776, 26942.32
482.3597, 27001.38
482.8418, 27045.46
483.3239, 27057.68
483.8060, 27041.58
484.2881, 27024.59
484.7703, 27003.43
485.2524, 26988.78
485.7345, 26986.25
486.2166, 27002.92
486.6987, 27017.23
487.1808, 27028.70
487.6630, 27038.24
488.1451, 27048.88
488.6272, 27064.61
489.1093, 27069.20
489.5914, 27053.58
490.0735, 27021.79
490.5557, 27002.54
491.0378, 26996.40
491.5199, 27000.42
492.0020, 27020.50
492.4841, 27051.99
492.9662, 27062.47
493.4484, 27039.45
493.9305, 27015.20
494.4126, 27041.26
494.8947, 27105.67
495.3768, 27166.55
495.8589, 27204.25
496.3411, 27227.78
496.8232, 27243.70
497.3053, 27252.41
497.7874, 27261.34
498.2695, 27280.67
498.7516, 27299.34
499.2338, 27305.45
499.7159, 27268.44
500.1980, 27255.71
500.6801, 27316.98
501.1622, 27418.14
501.6443, 27473.79
502.1265, 27401.96
502.6086, 27350.11
503.0907, 27376.33
503.5728, 27503.21
504.0549, 27571.84
504.5370, 27548.18
505.0192, 27504.39
505.5013, 27511.79
505.9834, 27585.98
506.4655, 27648.10
506.9476, 27687.64
507.4297, 27707.55
507.9119, 27707.78
508.3940, 27686.94
508.8761, 27671.97
509.3582, 27675.72
509.8403, 27696.85
510.3224, 27737.49
510.8046, 27799.68
511.2867, 27858.64
511.7688, 27879.31
512.2509, 27881.78
512.7330, 27906.68
513.2151, 27991.37
513.6973, 28072.18
514.1794, 28085.43
514.6615, 28052.24
515.1436, 28040.79
515.6257, 28107.48
516.1078, 28184.22
516.5900, 28229.10
517.0721, 28230.23
517.5542, 28235.19
518.0363, 28195.97
518.5184, 28191.91
519.0005, 28309.37
519.4827, 28716.83
519.9648, 28985.97
520.4469, 29024.43
520.9290, 28889.65
521.4111, 28789.69
521.8932, 28725.39
522.3754, 28693.57
522.8575, 28704.90
523.3396, 28759.49
523.8217, 28794.77
524.3038, 28810.20
524.7859, 28807.56
525.2681, 28774.43
525.7502, 28721.00
526.2323, 28692.81
526.7144, 28711.61
527.1965, 28749.29
527.6786, 28773.36
528.1608, 28785.36
528.6429, 28791.52
529.1250, 28787.60
529.6071, 28784.23
530.0892, 28794.40
530.5714, 28822.70
531.0535, 28839.96
531.5356, 28833.43
532.0176, 28810.17
532.4998, 28777.30
532.9819, 28688.45
533.4640, 28645.44
533.9461, 28695.74
534.4282, 28805.78
534.9103, 28859.83
535.3925, 28820.76
535.8746, 28784.05
536.3567, 28788.31
536.8388, 28836.86
537.3209, 28886.94
537.8030, 28942.11
538.2852, 28988.58
538.7673, 29008.40
539.2494, 29003.07
539.7315, 28997.14
540.2136, 28994.91
540.6957, 28995.45
541.1779, 28990.36
541.6600, 28984.26
542.1421, 28996.94
542.6242, 29071.09
543.1063, 29151.65
543.5884, 29164.42
544.0706, 29105.35
544.5527, 29065.05
545.0348, 29116.61
545.5169, 29198.86
545.9990, 29255.90
546.4811, 29244.71
546.9633, 29249.23
547.4454, 29303.10
547.9275, 29383.78
548.4096, 29438.15
548.8917, 29429.87
549.3738, 29441.22
549.8560, 29496.56
550.3381, 29596.04
550.8202, 29704.24
551.3023, 29834.55
551.7844, 29943.63
552.2665, 29981.11
552.7487, 29947.39
553.2308, 29959.78
553.7129, 30038.14
554.1950, 30144.21
554.6771, 30211.78
555.1592, 30254.51
555.6414, 30329.57
556.1235, 30488.32
556.6056, 30673.16
557.0877, 30810.93
557.5698, 30909.58
558.0519, 31019.52
558.5341, 31167.52
559.0162, 31341.22
559.4983, 31531.44
559.9804, 31746.59
560.4625, 31954.56
560.9446, 32131.98
561.4268, 32302.93
561.9089, 32499.37
562.3910, 32725.51
562.8731, 32974.14
563.3552, 33238.38
563.8373, 33521.77
564.3195, 33856.42
564.8016, 34259.56
565.2837, 34659.56
565.7658, 35013.95
566.2479, 35325.48
566.7300, 35632.76
567.2122, 35931.65
567.6943, 36240.85
568.1764, 36584.42
568.6585, 36955.97
569.1406, 37322.82
569.6227, 37672.03
570.1049, 38031.45
570.5870, 38449.96
571.0691, 38896.79
571.5512, 39314.09
572.0333, 39715.85
572.5154, 40040.32
572.9976, 40236.97
573.4797, 40306.13
573.9618, 40320.73
574.4439, 40317.43
574.9260, 40250.79
575.4081, 40093.15
575.8903, 39823.79
576.3724, 39500.33
576.8545, 39118.95
577.3366, 38686.34
577.8187, 38210.28
578.3008, 37680.68
578.7830, 37152.34
579.2651, 36629.02
579.7472, 36122.38
580.2293, 35676.40
580.7114, 35291.39
581.1935, 34923.28
581.6757, 34521.36
582.1578, 34127.01
582.6399, 33824.59
583.1220, 33627.20
583.6041, 33463.50
584.0862, 33293.60
584.5684, 33125.26
585.0505, 32967.46
585.5326, 32821.02
586.0147, 32687.78
586.4968, 32575.91
586.9789, 32478.02
587.4611, 32374.36
587.9432, 32247.95
588.4253, 32131.75
588.9074, 32037.73
589.3895, 31965.48
589.8716, 31883.36
590.3538, 31791.10
590.8359, 31689.07
591.3180, 31562.76
591.8001, 31412.09
592.2822, 31318.89
592.7643, 31298.48
593.2465, 31298.61
593.7286, 31247.61
594.2107, 31159.62
594.6928, 31086.54
595.1749, 31051.68
595.6570, 31029.42
596.1392, 30998.43
596.6213, 30959.29
597.1034, 30914.80
597.5854, 30853.02
598.0676, 30796.46
598.5497, 30766.99
599.0318, 30771.03
599.5139, 30749.02
599.9960, 30653.78
600.4781, 30556.09
600.9603, 30504.00
601.4424, 30521.73
601.9245, 30531.82
602.4066, 30533.22
602.8887, 30524.61
603.3708, 30498.87
603.8530, 30454.49
604.3351, 30417.55
604.8172, 30399.51
605.2993, 30391.52
605.7814, 30377.33
606.2635, 30356.46
606.7457, 30323.94
607.2278, 30256.84
607.7099, 30186.74
608.1920, 30152.21
608.6741, 30157.01
609.1563, 30179.13
609.6384, 30233.56
610.1205, 30285.31
610.6026, 30302.45
611.0847, 30243.21
611.5668, 30199.31
612.0490, 30185.25
612.5311, 30191.56
613.0132, 30206.60
613.4953, 30241.41
613.9774, 30262.03
614.4595, 30258.33
614.9417, 30234.25
615.4238, 30201.93
615.9059, 30158.71
616.3880, 30133.10
616.8701, 30153.02
617.3522, 30204.33
617.8344, 30249.04
618.3165, 30286.11
618.7986, 30305.83
619.2807, 30283.44
619.7628, 30244.25
620.2449, 30221.64
620.7271, 30229.00
621.2092, 30244.09
621.6913, 30259.84
622.1734, 30276.40
622.6555, 30294.04
623.1376, 30313.33
623.6198, 30333.64
624.1019, 30363.55
624.5840, 30397.13
625.0661, 30390.87
625.5482, 30322.95
626.0303, 30267.08
626.5125, 30267.33
626.9946, 30320.53
627.4767, 30357.22
627.9588, 30377.23
628.4409, 30382.00
628.9230, 30362.50
629.4052, 30329.82
629.8873, 30306.72
630.3694, 30295.35
630.8515, 30301.79
631.3336, 30345.85
631.8157, 30407.82
632.2979, 30456.08
632.7800, 30466.27
633.2621, 30475.08
633.7442, 30508.27
634.2263, 30554.95
634.7084, 30557.58
635.1906, 30473.86
635.6727, 30400.60
636.1548, 30372.62
636.6369, 30391.10
637.1190, 30417.59
637.6011, 30454.65
638.0833, 30488.74
638.5654, 30507.39
639.0475, 30512.54
639.5296, 30513.52
640.0117, 30510.24
640.4938, 30508.41
640.9760, 30514.04
641.4581, 30525.43
641.9402, 30539.63
642.4223, 30555.18
