##NAMES=Borcarite
##RRUFFID=R060591
##IDEAL CHEMISTRY=Ca_4_MgB_4_O_6_(CO_3_)_2_(OH)_6_
##LOCALITY=Fuka mine, Bitchu-cho, Takahashi, Kawakami-gun, Okayama Prefecture, Chugoku Region, Japan
##OWNER=RRUFF
##SOURCE=Michael Scott
##DESCRIPTION=Mass of green indistinct crystals
##STATUS=The identification of this mineral is confirmed by single-crystal X-ray diffraction and chemical analysis.
##URL=rruff.info/R060591
##MEASURED CHEMISTRY=Ca_4.00_(Mg_0.96_Fe_0.04_)_Î£=1_B_4_O_6_(CO_3_)_2_(OH)_6_ ; trace amounts of Mg; B, C, H not measured but assumed by stoichiometry.
157.5064, 61.68230
157.9885, 65.82487
158.4706, 69.69091
158.9528, 73.41927
159.4349, 77.01402
159.9170, 80.17856
160.3991, 83.73958
160.8812, 88.22917
161.3633, 93.32744
161.8455, 98.19446
162.3276, 102.0245
162.8097, 105.8159
163.2918, 110.2970
163.7739, 115.8441
164.2560, 121.7538
164.7382, 127.6259
165.2203, 133.5750
165.7024, 140.0396
166.1845, 147.6152
166.6666, 155.6605
167.1487, 163.5662
167.6309, 171.9080
168.1130, 179.4120
168.5951, 185.8012
169.0772, 190.9212
169.5593, 193.5777
170.0414, 192.4163
170.5236, 188.5640
171.0057, 183.3669
171.4878, 176.1227
171.9699, 168.5291
172.4520, 161.8727
172.9341, 156.1152
173.4163, 151.2119
173.8984, 147.1095
174.3805, 143.8173
174.8626, 141.4516
175.3447, 140.6322
175.8268, 140.3932
176.3090, 139.4529
176.7911, 137.8095
177.2732, 136.5365
177.7553, 136.1516
178.2374, 136.2337
178.7195, 136.4559
179.2017, 136.7592
179.6838, 137.1212
180.1659, 137.5346
180.6480, 138.0136
181.1301, 138.4485
181.6122, 138.5917
182.0944, 138.5730
182.5765, 138.8137
183.0586, 139.6743
183.5407, 140.8877
184.0228, 141.9089
184.5049, 142.6953
184.9871, 143.4301
185.4692, 144.1384
185.9513, 144.8909
186.4334, 146.0601
186.9155, 148.0007
187.3976, 150.5125
187.8798, 152.9567
188.3619, 155.2748
188.8440, 157.6180
189.3261, 159.9766
189.8082, 162.4004
190.2903, 165.3424
190.7725, 169.0533
191.2546, 173.5257
191.7367, 178.6210
192.2188, 184.5816
192.7009, 190.5740
193.1830, 194.9521
193.6652, 197.7025
194.1473, 200.1808
194.6294, 203.2776
195.1115, 206.8938
195.5936, 209.5796
196.0757, 211.0052
196.5579, 211.9063
197.0400, 213.6362
197.5221, 216.2235
198.0042, 219.2560
198.4863, 222.6964
198.9684, 226.5379
199.4506, 230.1497
199.9327, 233.3489
200.4148, 236.4252
200.8969, 239.9284
201.3790, 243.8994
201.8611, 248.2507
202.3433, 252.8719
202.8254, 257.7296
203.3075, 263.2389
203.7896, 269.3304
204.2717, 276.0965
204.7538, 283.7000
205.2360, 292.1222
205.7181, 301.4120
206.2002, 311.7198
206.6823, 323.1505
207.1644, 334.9745
207.6465, 347.4997
208.1287, 360.1527
208.6108, 372.1479
209.0929, 384.3089
209.5750, 393.6188
210.0571, 398.7433
210.5392, 400.2635
211.0214, 395.0416
211.5035, 381.6190
211.9856, 361.7484
212.4677, 340.2156
212.9498, 315.7249
213.4319, 292.3651
213.9140, 272.2070
214.3962, 255.2989
214.8783, 241.3735
215.3604, 230.8702
215.8425, 223.2834
216.3246, 217.1224
216.8067, 212.4284
217.2889, 208.9454
217.7710, 206.5372
218.2531, 205.3269
218.7352, 204.8053
219.2173, 204.9495
219.6994, 205.7450
220.1816, 207.0854
220.6637, 208.9902
221.1458, 211.4178
221.6279, 214.3759
222.1100, 218.0798
222.5921, 221.7757
223.0743, 225.2919
223.5564, 228.7451
224.0385, 232.8680
224.5206, 237.5897
225.0027, 242.9372
225.4848, 249.0175
225.9670, 256.1079
226.4491, 263.1712
226.9312, 270.2326
227.4133, 277.2199
227.8954, 284.1884
228.3775, 291.1950
228.8597, 297.9113
229.3418, 304.1163
229.8239, 309.9660
230.3060, 314.8944
230.7881, 318.6163
231.2702, 321.3476
231.7524, 323.9406
232.2345, 326.3104
232.7166, 328.6000
233.1987, 330.8337
233.6808, 332.8982
234.1629, 335.1111
234.6451, 337.4233
235.1272, 339.8941
235.6093, 342.8394
236.0914, 346.3109
236.5735, 350.1794
237.0556, 354.3007
237.5378, 358.3110
238.0199, 363.4220
238.5020, 370.0543
238.9841, 377.8775
239.4662, 385.1613
239.9483, 391.0681
240.4305, 397.6125
240.9126, 406.1335
241.3947, 417.9926
241.8768, 428.8565
242.3589, 438.3806
242.8410, 446.7667
243.3232, 455.0015
243.8053, 463.6403
244.2874, 471.3026
244.7695, 477.4242
245.2516, 482.7698
245.7337, 484.9941
246.2159, 484.0172
246.6980, 479.8404
247.1801, 472.5616
247.6622, 461.9344
248.1443, 448.4678
248.6264, 432.1460
249.1086, 411.2770
249.5907, 391.3408
250.0728, 372.3329
250.5549, 354.3380
251.0370, 337.4666
251.5191, 321.1686
252.0013, 306.8399
252.4834, 295.0279
252.9655, 286.3591
253.4476, 278.8559
253.9297, 272.4215
254.4118, 267.2094
254.8940, 263.5057
255.3761, 261.6669
255.8582, 260.6944
256.3403, 260.2141
256.8224, 260.2018
257.3046, 260.7357
257.7867, 261.8129
258.2688, 263.4196
258.7509, 265.6331
259.2330, 268.7282
259.7151, 271.8067
260.1973, 274.4968
260.6794, 276.6097
261.1615, 278.9050
261.6436, 281.2049
262.1257, 283.8116
262.6078, 287.3248
263.0900, 292.0111
263.5721, 296.9009
264.0542, 301.4982
264.5363, 305.7032
265.0184, 310.7873
265.5005, 317.0917
265.9827, 323.9796
266.4648, 330.5912
266.9469, 336.6431
267.4290, 343.1479
267.9111, 350.7702
268.3932, 359.6075
268.8754, 367.3467
269.3575, 373.8509
269.8396, 379.4481
270.3217, 384.4755
270.8038, 388.9796
271.2859, 392.6494
271.7681, 395.3012
272.2502, 396.9405
272.7323, 398.1634
273.2144, 399.1510
273.6965, 399.2999
274.1786, 398.2404
274.6608, 396.1652
275.1429, 391.7724
275.6250, 384.7056
276.1071, 375.0921
276.5892, 363.0428
277.0714, 348.2948
277.5535, 332.4032
278.0356, 316.5448
278.5177, 300.6519
278.9998, 285.4191
279.4819, 270.8265
279.9641, 256.9789
280.4462, 245.0479
280.9283, 235.1434
281.4104, 226.5394
281.8925, 218.5308
282.3746, 211.1109
282.8568, 204.7887
283.3389, 199.7955
283.8210, 195.8382
284.3031, 192.2107
284.7852, 188.9231
285.2673, 185.8102
285.7495, 182.5230
286.2316, 179.1299
286.7137, 176.5800
287.1958, 175.1209
287.6779, 174.3706
288.1600, 173.6161
288.6422, 172.8553
289.1243, 172.1526
289.6064, 171.5189
290.0885, 170.9667
290.5706, 170.6535
291.0527, 170.6488
291.5349, 170.7375
292.0170, 170.5550
292.4991, 170.1212
292.9812, 169.6699
293.4633, 169.2623
293.9454, 168.9320
294.4276, 168.8230
294.9097, 168.9669
295.3918, 169.2314
295.8739, 169.5990
296.3560, 170.0002
296.8381, 170.1174
297.3203, 169.5596
297.8024, 168.6588
298.2845, 168.1685
298.7666, 168.1416
299.2487, 168.1186
299.7308, 167.5072
300.2130, 166.5004
300.6951, 165.6633
301.1772, 165.3028
301.6593, 165.2007
302.1414, 164.9972
302.6235, 164.6991
303.1057, 164.5575
303.5878, 165.0283
304.0699, 165.7826
304.5520, 166.1873
305.0341, 165.8027
305.5162, 165.1995
305.9984, 164.8561
306.4805, 164.7834
306.9626, 165.0332
307.4447, 165.8751
307.9268, 166.9904
308.4089, 167.9680
308.8911, 168.7264
309.3732, 169.2847
309.8553, 169.4308
310.3374, 169.3268
310.8195, 169.5281
311.3016, 170.5038
311.7838, 171.8411
312.2659, 173.1898
312.7480, 174.4599
313.2301, 175.7740
313.7122, 177.2360
314.1943, 178.8106
314.6765, 180.3924
315.1586, 182.0553
315.6407, 183.6229
316.1228, 184.9861
316.6049, 186.0950
317.0870, 187.1223
317.5692, 188.3008
318.0513, 189.4029
318.5334, 190.1004
319.0155, 189.9040
319.4976, 189.6121
319.9797, 189.6891
320.4619, 190.2248
320.9440, 190.3637
321.4261, 189.5368
321.9082, 188.3280
322.3903, 187.2924
322.8724, 186.8772
323.3546, 186.3106
323.8367, 185.3280
324.3188, 183.9405
324.8009, 182.5760
325.2830, 181.4073
325.7651, 180.2349
326.2473, 178.9339
326.7294, 177.0419
327.2115, 175.5489
327.6936, 174.7193
328.1757, 174.4361
328.6578, 174.0572
329.1400, 173.1177
329.6221, 172.4678
330.1042, 172.4837
330.5863, 173.6084
331.0684, 174.6753
331.5505, 175.6198
332.0327, 176.5097
332.5148, 177.4892
332.9969, 178.6079
333.4790, 179.7442
333.9611, 180.9119
334.4432, 182.1837
334.9254, 183.1624
335.4075, 183.7716
335.8896, 184.1319
336.3717, 184.4908
336.8538, 185.1164
337.3359, 185.0546
337.8180, 183.8769
338.3001, 181.6124
338.7823, 179.5993
339.2644, 177.9464
339.7465, 176.3818
340.2286, 174.6666
340.7107, 172.8186
341.1928, 170.7812
341.6750, 168.4513
342.1571, 165.9796
342.6392, 164.1275
343.1213, 162.9454
343.6034, 162.0355
344.0855, 161.0897
344.5677, 160.1249
345.0498, 159.3867
345.5319, 158.9669
346.0140, 158.6941
346.4961, 158.2331
346.9782, 157.5926
347.4604, 156.9366
347.9425, 156.3993
348.4246, 155.9291
348.9067, 155.3772
349.3888, 154.7450
349.8709, 153.9838
350.3531, 152.9019
350.8352, 151.6015
351.3173, 150.4671
351.7994, 149.8105
352.2815, 149.3633
352.7636, 148.5970
353.2458, 147.5104
353.7279, 146.5092
354.2100, 145.9544
354.6921, 145.7143
355.1742, 145.5945
355.6563, 145.7863
356.1385, 145.7990
356.6206, 144.8362
357.1027, 143.1284
357.5848, 141.8474
358.0669, 142.0911
358.5490, 142.8819
359.0312, 143.2886
359.5133, 143.0376
359.9954, 142.5990
360.4775, 142.1683
360.9596, 141.7485
361.4417, 141.3515
361.9239, 141.0350
362.4060, 140.7003
362.8881, 140.1765
363.3702, 139.3311
363.8523, 138.9276
364.3344, 139.6316
364.8166, 140.7630
365.2987, 141.5520
365.7808, 141.4207
366.2629, 141.3078
366.7450, 141.5913
367.2271, 142.2705
367.7093, 142.5656
368.1914, 141.8612
368.6735, 141.0727
369.1556, 140.7962
369.6377, 141.6537
370.1198, 142.2757
370.6020, 142.5285
371.0841, 142.4958
371.5662, 142.4817
372.0483, 142.5170
372.5304, 142.5298
373.0125, 142.4682
373.4947, 142.2509
373.9768, 142.2092
374.4589, 142.4452
374.9410, 142.7739
375.4231, 142.8913
375.9052, 142.7464
376.3874, 142.5383
376.8695, 142.2964
377.3516, 142.0240
377.8337, 141.8617
378.3158, 141.7968
378.7979, 141.8757
379.2801, 142.1763
379.7622, 142.7111
380.2443, 143.3057
380.7264, 144.0080
381.2085, 144.6888
381.6906, 144.8899
382.1728, 144.5986
382.6549, 144.3842
383.1370, 144.7536
383.6191, 145.5460
384.1012, 146.0693
384.5833, 146.1901
385.0655, 146.2566
385.5476, 146.7955
386.0297, 147.6951
386.5118, 148.5270
386.9939, 148.9634
387.4760, 149.2667
387.9582, 149.7687
388.4403, 150.4823
388.9224, 151.4553
389.4045, 153.0385
389.8866, 154.8167
390.3687, 156.1809
390.8509, 156.4481
391.3330, 156.7464
391.8151, 157.9819
392.2972, 159.9734
392.7793, 161.9940
393.2614, 163.5476
393.7436, 165.0713
394.2257, 166.9454
394.7078, 169.3638
395.1899, 171.7822
395.6720, 174.0336
396.1541, 176.1566
396.6363, 178.2138
397.1184, 180.1047
397.6005, 182.0373
398.0826, 184.1134
398.5647, 186.3624
399.0468, 188.5346
399.5290, 190.4761
400.0111, 192.4032
400.4932, 194.4858
400.9753, 196.6182
401.4574, 199.0581
401.9395, 201.8102
402.4217, 204.8771
402.9038, 208.2448
403.3859, 212.0473
403.8680, 215.9560
404.3501, 219.8034
404.8322, 223.4631
405.3144, 227.4176
405.7965, 231.7197
406.2786, 236.1976
406.7607, 240.6134
407.2428, 245.0038
407.7249, 249.1559
408.2071, 253.0269
408.6892, 256.5926
409.1713, 259.7446
409.6534, 262.5842
410.1355, 264.4465
410.6176, 264.5682
411.0998, 263.1167
411.5819, 261.0383
412.0640, 258.5225
412.5461, 255.4371
413.0282, 251.3409
413.5103, 246.3488
413.9925, 241.0750
414.4746, 235.4988
414.9567, 229.9313
415.4388, 224.8429
415.9209, 220.1989
416.4030, 216.2666
416.8852, 213.3593
417.3673, 211.2519
417.8494, 209.5582
418.3315, 207.9410
418.8136, 206.8267
419.2957, 206.6552
419.7779, 207.3206
420.2600, 208.1040
420.7421, 208.6877
421.2242, 209.2645
421.7063, 209.9299
422.1884, 210.5800
422.6706, 211.5721
423.1527, 213.2069
423.6348, 215.2254
424.1169, 217.1422
424.5990, 218.9255
425.0811, 220.5816
425.5633, 222.0107
426.0454, 223.1319
426.5275, 224.6021
427.0096, 226.7198
427.4917, 228.9592
427.9738, 230.8629
428.4560, 232.1441
428.9381, 233.6679
429.4202, 235.5351
429.9023, 237.6818
430.3844, 240.0285
430.8665, 242.6003
431.3487, 245.2630
431.8308, 247.9220
432.3129, 250.5562
432.7950, 253.5496
433.2771, 257.1019
433.7592, 260.4629
434.2414, 262.6997
434.7235, 263.8613
435.2056, 264.5031
435.6877, 264.7964
436.1698, 264.6907
436.6519, 264.2033
437.1341, 263.3059
437.6162, 261.6137
438.0983, 258.9547
438.5804, 255.2776
439.0625, 250.2915
439.5446, 243.6798
440.0268, 236.6762
440.5089, 230.2058
440.9910, 224.1324
441.4731, 218.2824
441.9552, 212.3356
442.4373, 206.7068
442.9195, 201.6151
443.4016, 197.0625
443.8837, 192.8602
444.3658, 188.9469
444.8479, 185.3240
445.3300, 182.0428
445.8122, 179.2860
446.2943, 176.5935
446.7764, 173.6062
447.2585, 170.6001
447.7406, 168.2857
448.2227, 167.0500
448.7049, 166.1826
449.1870, 165.5895
449.6691, 165.3792
450.1512, 164.8321
450.6333, 163.9022
451.1154, 162.7003
451.5976, 161.2168
452.0797, 159.2398
452.5618, 157.7760
453.0439, 157.1136
453.5260, 157.0029
454.0081, 156.6475
454.4903, 156.0232
454.9724, 155.3051
455.4545, 154.4473
455.9366, 153.5202
456.4187, 153.0797
456.9008, 153.2190
457.3830, 153.4358
457.8651, 152.9631
458.3472, 152.0477
458.8293, 151.5434
459.3114, 151.9693
459.7935, 152.6803
460.2757, 152.8508
460.7578, 152.5624
461.2399, 152.2448
461.7220, 152.3523
462.2041, 152.4526
462.6862, 151.9577
463.1684, 150.5603
463.6505, 149.5979
464.1326, 150.1258
464.6147, 151.3921
465.0968, 152.4360
465.5789, 152.9683
466.0611, 153.2234
466.5432, 153.1308
467.0253, 152.7387
467.5074, 152.5254
467.9895, 152.4776
468.4716, 152.6816
468.9538, 153.2178
469.4359, 154.3375
469.9180, 155.2120
470.4001, 155.7250
470.8822, 156.0782
471.3643, 156.5646
471.8465, 157.1878
472.3286, 157.9496
472.8107, 158.9700
473.2928, 160.1312
473.7749, 160.7252
474.2570, 160.6483
474.7392, 160.5240
475.2213, 160.7066
475.7034, 161.2105
476.1855, 162.1891
476.6676, 163.7188
477.1497, 165.5293
477.6319, 167.4608
478.1140, 169.4035
478.5961, 170.9638
479.0782, 171.7815
479.5603, 172.2462
480.0424, 172.6382
480.5246, 173.0016
481.0067, 173.6716
481.4888, 175.1166
481.9709, 176.8141
482.4530, 178.2807
482.9352, 179.3223
483.4173, 180.3770
483.8994, 181.5529
484.3815, 182.8669
484.8636, 184.3325
485.3457, 186.3859
485.8279, 188.1397
486.3100, 189.1658
486.7921, 189.4655
487.2742, 190.2006
487.7563, 192.0478
488.2384, 193.6587
488.7206, 194.2118
489.2027, 193.2622
489.6848, 192.5236
490.1669, 192.2542
490.6490, 191.9475
491.1311, 190.6989
491.6133, 188.4066
492.0954, 185.9365
492.5775, 183.4532
493.0596, 181.0176
493.5417, 178.8779
494.0238, 177.0445
494.5060, 175.2332
494.9881, 173.2622
495.4702, 171.1592
495.9523, 168.8109
496.4344, 166.1019
496.9165, 163.6746
497.3987, 162.4327
497.8808, 161.9017
498.3629, 161.2126
498.8450, 159.5623
499.3271, 158.0082
499.8092, 157.3802
500.2914, 157.5282
500.7735, 157.6505
501.2556, 157.5588
501.7377, 157.2566
502.2198, 156.7107
502.7019, 155.7907
503.1841, 154.9553
503.6662, 154.1385
504.1483, 153.4899
504.6304, 153.2046
505.1125, 153.5210
505.5946, 153.8242
506.0768, 154.0542
506.5589, 154.2007
507.0410, 154.1926
507.5231, 153.9653
508.0052, 153.7599
508.4873, 153.7231
508.9695, 153.8561
509.4516, 153.9084
509.9337, 153.8500
510.4158, 153.8228
510.8979, 154.0710
511.3800, 154.5182
511.8622, 154.7959
512.3443, 154.7298
512.8264, 154.5627
513.3085, 154.6535
513.7906, 154.9337
514.2728, 155.1555
514.7549, 155.1576
515.2370, 155.0577
515.7191, 154.8474
516.2012, 154.5093
516.6833, 154.4940
517.1655, 155.3922
517.6476, 156.5025
518.1297, 157.2181
518.6118, 156.7761
519.0939, 156.7294
519.5760, 157.7702
520.0582, 159.3424
520.5403, 160.1356
521.0224, 159.6302
521.5045, 159.0434
521.9866, 158.5785
522.4688, 158.2359
522.9509, 158.5424
523.4330, 159.7528
523.9151, 161.0178
524.3972, 161.5287
524.8793, 161.2566
525.3615, 161.5352
525.8436, 162.5600
526.3257, 163.9517
526.8078, 165.1753
527.2899, 166.2680
527.7720, 167.3981
528.2542, 168.7514
528.7363, 170.0673
529.2184, 170.8760
529.7005, 171.2711
530.1826, 171.8039
530.6647, 172.8392
531.1469, 174.1422
531.6290, 175.5602
532.1111, 177.0886
532.5932, 178.6212
533.0753, 180.2623
533.5574, 181.8314
534.0396, 183.1135
534.5217, 183.5454
535.0038, 184.3271
535.4859, 185.7095
535.9680, 187.5707
536.4501, 189.6104
536.9323, 192.1221
537.4144, 194.2987
537.8965, 195.6702
538.3786, 196.1994
538.8607, 197.3196
539.3428, 199.1137
539.8250, 201.2074
540.3071, 203.4174
540.7892, 205.6679
541.2713, 207.4033
541.7534, 208.3731
542.2355, 209.2218
542.7177, 211.2670
543.1998, 214.0332
543.6819, 215.9476
544.1640, 215.6522
544.6461, 214.6070
545.1282, 214.1862
545.6104, 214.2775
546.0925, 214.1515
546.5746, 213.1663
547.0567, 212.0242
547.5388, 211.3355
548.0209, 211.5355
548.5031, 210.9854
548.9852, 208.8321
549.4673, 206.0026
549.9494, 203.4838
550.4315, 201.6826
550.9136, 199.5643
551.3958, 196.8090
551.8779, 193.7086
552.3600, 191.2606
552.8421, 189.6443
553.3242, 187.9955
553.8063, 185.8694
554.2885, 183.3595
554.7706, 181.2410
555.2527, 179.5382
555.7348, 177.9760
556.2169, 176.2866
556.6990, 174.5608
557.1812, 172.9668
557.6633, 171.5124
558.1454, 170.2761
558.6275, 169.4595
559.1096, 168.9004
559.5917, 168.2934
560.0739, 167.5787
560.5560, 166.7389
561.0381, 165.6565
561.5202, 164.4130
562.0023, 163.3211
562.4844, 162.5289
562.9666, 161.8415
563.4487, 161.1174
563.9308, 160.2514
564.4129, 159.8850
564.8950, 160.4372
565.3771, 161.0280
565.8593, 160.8405
566.3414, 159.6199
566.8235, 158.6975
567.3056, 158.2089
567.7877, 158.0476
568.2698, 158.1402
568.7520, 158.4645
569.2341, 158.6090
569.7162, 158.2959
570.1983, 157.7930
570.6804, 157.6587
571.1625, 157.8351
571.6447, 157.9043
572.1268, 157.5004
572.6089, 156.9140
573.0910, 156.3711
573.5731, 155.8697
574.0552, 155.6101
574.5374, 155.9931
575.0195, 156.5021
575.5016, 156.6554
575.9837, 155.8089
576.4658, 155.2836
576.9479, 155.3369
577.4301, 155.7441
577.9122, 156.0781
578.3943, 156.3135
578.8764, 156.5281
579.3585, 156.7841
579.8406, 157.0430
580.3228, 156.9400
580.8049, 156.3945
581.2870, 156.0045
581.7691, 156.4070
582.2512, 157.3396
582.7333, 157.6091
583.2155, 157.0842
583.6975, 156.5619
584.1796, 156.9922
584.6617, 157.8876
585.1439, 158.4104
585.6260, 158.1395
586.1081, 157.8008
586.5902, 157.7735
587.0723, 158.0004
587.5544, 158.3665
588.0366, 159.2789
588.5187, 159.8825
589.0008, 159.6454
589.4829, 158.6317
589.9650, 158.2115
590.4471, 158.6336
590.9293, 159.3236
591.4114, 160.0719
591.8935, 160.9204
592.3756, 161.4948
592.8577, 161.7163
593.3398, 161.8762
593.8220, 162.3599
594.3041, 163.1074
594.7862, 163.6732
595.2683, 164.0161
595.7504, 164.0526
596.2325, 163.3803
596.7147, 162.2976
597.1968, 161.5871
597.6789, 161.6055
598.1610, 162.1037
598.6431, 163.3080
599.1252, 164.9739
599.6074, 166.0101
600.0895, 165.2204
600.5716, 164.4060
601.0537, 164.5236
601.5358, 165.8938
602.0179, 166.9995
602.5001, 167.8329
602.9822, 168.3889
603.4643, 168.5958
603.9464, 168.3103
604.4285, 168.2526
604.9106, 168.4919
605.3928, 168.9222
605.8749, 169.4032
606.3570, 169.9378
606.8391, 170.5452
607.3212, 171.2776
607.8033, 172.0235
608.2855, 172.5589
608.7676, 172.9454
609.2497, 173.4339
609.7318, 174.3990
610.2139, 175.3393
610.6960, 175.7444
611.1782, 175.6145
611.6603, 175.6321
612.1424, 175.9874
612.6245, 176.6022
613.1066, 177.4955
613.5887, 179.0206
614.0709, 179.9927
614.5530, 180.0749
615.0351, 179.9220
615.5172, 180.2235
615.9993, 181.0623
616.4814, 182.0303
616.9636, 183.1295
617.4457, 184.2379
617.9278, 185.0968
618.4099, 185.7283
618.8920, 186.3685
619.3741, 187.1445
619.8563, 187.9684
620.3384, 188.5898
620.8205, 189.0834
621.3026, 189.8305
621.7847, 191.3583
622.2668, 193.0063
622.7490, 194.3216
623.2311, 195.2742
623.7132, 195.8430
624.1953, 195.2442
624.6774, 194.7979
625.1595, 195.4871
625.6417, 198.2511
626.1238, 200.3372
626.6059, 201.6114
627.0880, 202.3419
627.5701, 202.6453
628.0522, 202.4111
628.5344, 202.9092
629.0165, 204.6050
629.4986, 206.8767
629.9807, 208.4859
630.4628, 209.5566
630.9449, 210.7159
631.4271, 212.3529
631.9092, 214.1953
632.3913, 215.9577
632.8734, 217.6592
633.3555, 219.3897
633.8376, 221.4431
634.3198, 223.3574
634.8019, 224.7799
635.2840, 225.5456
635.7661, 226.5348
636.2482, 228.0043
636.7303, 229.5966
637.2125, 231.0679
637.6946, 232.3579
638.1767, 233.7073
638.6588, 235.0850
639.1409, 236.5948
639.6230, 238.4453
640.1052, 240.6160
640.5873, 242.6467
641.0694, 244.3464
641.5515, 245.9534
642.0336, 247.9437
642.5157, 250.1267
642.9979, 251.9792
643.4800, 253.0314
643.9621, 253.8130
644.4442, 254.7883
644.9263, 255.8669
645.4084, 256.4659
645.8906, 256.6225
646.3727, 256.0516
646.8548, 254.4785
647.3369, 251.8304
647.8190, 249.0572
648.3011, 246.3566
648.7833, 243.2679
649.2654, 239.3493
649.7475, 234.4625
650.2296, 229.8743
650.7117, 225.6958
651.1938, 221.6126
651.6760, 217.0879
652.1581, 212.3503
652.6402, 208.3000
653.1223, 205.3540
653.6044, 202.7616
654.0865, 199.7150
654.5687, 196.4899
655.0508, 193.6036
655.5329, 191.3054
656.0150, 189.2818
656.4971, 187.4065
656.9792, 185.7037
657.4614, 184.3003
657.9435, 183.2680
658.4256, 182.4322
658.9077, 181.7840
659.3898, 181.3133
659.8719, 180.7224
660.3541, 179.9504
660.8362, 179.3427
661.3183, 179.3419
661.8004, 179.7318
662.2825, 179.5949
662.7646, 178.8608
663.2468, 177.9711
663.7289, 177.1342
664.2110, 176.4487
664.6931, 176.0606
665.1752, 176.0603
665.6573, 176.2078
666.1395, 176.5430
666.6216, 176.9141
667.1037, 177.1339
667.5858, 177.0389
668.0679, 176.9487
668.5500, 176.7522
669.0322, 176.6345
669.5143, 177.0822
669.9964, 178.2262
670.4785, 179.2988
670.9606, 180.0607
671.4427, 180.5974
671.9249, 181.0708
672.4070, 181.4977
672.8891, 182.0073
673.3712, 182.7697
673.8533, 183.5963
674.3354, 184.4318
674.8176, 185.2229
675.2997, 185.4605
675.7818, 184.7108
676.2639, 183.4625
676.7460, 181.9160
677.2281, 180.0034
677.7103, 178.2661
678.1924, 176.7367
678.6745, 175.3737
679.1566, 174.1339
679.6387, 173.0110
680.1208, 171.9790
680.6030, 170.9558
681.0851, 170.2062
681.5672, 170.2970
682.0493, 170.9933
682.5314, 171.2338
683.0135, 170.6027
683.4957, 169.8083
683.9778, 169.7204
684.4599, 169.9917
684.9420, 169.9748
685.4241, 168.9607
685.9063, 168.1072
686.3884, 167.9942
686.8705, 168.4075
687.3526, 168.5668
687.8347, 168.0777
688.3168, 167.8546
688.7990, 168.2190
689.2811, 169.0746
689.7632, 169.8639
690.2453, 170.6445
690.7274, 170.9676
691.2095, 170.1392
691.6917, 168.6790
692.1738, 168.2344
692.6559, 168.7923
693.1380, 169.5224
693.6201, 170.1074
694.1022, 170.3930
694.5844, 170.0339
695.0665, 168.8301
695.5486, 168.0809
696.0307, 168.7051
696.5128, 169.6540
696.9949, 170.0852
697.4771, 169.6343
697.9592, 169.3993
698.4413, 169.4476
698.9234, 169.6323
699.4055, 169.7841
699.8876, 169.9046
700.3698, 170.0414
700.8519, 170.1884
701.3340, 170.4005
701.8161, 170.9221
702.2982, 171.5735
702.7803, 171.8853
703.2625, 171.4497
703.7446, 170.9072
704.2267, 170.7196
704.7088, 170.7399
705.1909, 170.6459
705.6730, 170.1169
706.1552, 169.7286
706.6373, 169.6181
707.1194, 169.7508
707.6015, 170.0166
708.0836, 170.4854
708.5657, 170.8424
709.0479, 170.8357
709.5300, 170.6253
710.0121, 171.0134
710.4942, 171.9758
710.9763, 172.8979
711.4584, 173.4200
711.9406, 173.6433
712.4227, 173.5949
712.9048, 173.2941
713.3869, 173.1028
713.8690, 173.3275
714.3511, 173.6303
714.8333, 173.7536
715.3154, 173.5342
715.7975, 173.6182
716.2796, 174.1373
716.7617, 174.8099
717.2438, 175.4980
717.7260, 176.2291
718.2081, 176.6023
718.6902, 176.5403
719.1723, 176.3357
719.6544, 176.1103
720.1365, 176.0206
720.6187, 176.5560
721.1008, 178.0277
721.5829, 179.5253
722.0650, 180.1997
722.5471, 180.5450
723.0292, 181.2414
723.5114, 182.9938
723.9935, 184.4480
724.4756, 185.1247
724.9577, 185.4816
725.4398, 186.3532
725.9219, 187.9518
726.4041, 189.3777
726.8862, 190.3668
727.3683, 191.1446
727.8504, 192.2641
728.3325, 193.6669
728.8146, 194.9574
729.2968, 195.7136
729.7789, 196.4617
730.2610, 197.7792
730.7431, 199.5911
731.2252, 201.6493
731.7073, 204.1612
732.1895, 206.5925
732.6716, 208.6722
733.1537, 210.4153
733.6358, 212.2120
734.1179, 214.2624
734.6000, 216.0894
735.0822, 217.6856
735.5643, 218.9649
736.0464, 218.6945
736.5285, 216.8147
737.0106, 214.6152
737.4927, 212.8510
737.9749, 211.4381
738.4570, 210.1910
738.9391, 209.1173
739.4212, 208.4152
739.9033, 208.2564
740.3854, 208.4758
740.8676, 208.9561
741.3497, 209.6744
741.8318, 210.7175
742.3139, 212.1247
742.7960, 213.7961
743.2781, 215.7721
743.7603, 218.1409
744.2424, 220.1306
744.7245, 221.6582
745.2066, 223.1003
745.6887, 224.7716
746.1708, 226.7010
746.6530, 229.0221
747.1351, 231.8355
747.6172, 234.5899
748.0993, 236.8682
748.5814, 238.8728
749.0635, 240.7971
749.5457, 242.6556
750.0278, 244.5237
750.5099, 246.4315
750.9920, 248.3016
751.4741, 250.1264
751.9562, 252.0440
752.4384, 253.1933
752.9205, 253.3387
753.4026, 252.8880
753.8847, 252.4300
754.3668, 251.9219
754.8489, 251.2592
755.3311, 250.6367
755.8132, 249.4234
756.2953, 246.9257
756.7774, 243.4778
757.2595, 239.7225
757.7416, 235.1448
758.2238, 231.0866
758.7059, 228.1451
759.1880, 225.8016
759.6701, 222.9341
760.1522, 219.3262
760.6343, 215.8085
761.1165, 212.4841
761.5986, 209.4396
762.0807, 206.9572
762.5628, 204.9635
763.0449, 203.0231
763.5270, 200.8006
764.0092, 198.6657
764.4913, 197.0477
764.9734, 195.8039
765.4555, 194.4649
765.9376, 192.3109
766.4197, 190.6343
766.9019, 190.2153
767.3840, 190.7258
767.8661, 190.6660
768.3482, 189.8854
768.8303, 188.9651
769.3124, 188.0903
769.7946, 187.2725
770.2767, 186.5562
770.7588, 185.9290
771.2409, 185.2762
771.7230, 184.3455
772.2051, 183.4851
772.6873, 183.0870
773.1694, 183.1124
773.6515, 183.2116
774.1336, 183.5112
774.6157, 183.6130
775.0978, 183.2573
775.5800, 182.4702
776.0621, 181.8720
776.5442, 181.4665
777.0263, 181.2426
777.5084, 181.2812
777.9905, 181.5061
778.4727, 181.4862
778.9548, 181.2405
779.4369, 181.1304
779.9190, 181.6110
780.4011, 182.2198
780.8832, 182.4645
781.3654, 182.3134
781.8475, 182.2099
782.3296, 182.4358
782.8117, 182.6109
783.2938, 182.5007
783.7759, 182.0610
784.2581, 181.8823
784.7402, 182.0335
785.2223, 182.2437
785.7044, 182.3627
786.1865, 182.3922
786.6686, 182.2905
787.1508, 182.0609
787.6329, 181.8819
788.1150, 181.7540
788.5971, 181.8238
789.0792, 182.3877
789.5613, 183.5738
790.0435, 184.3240
790.5256, 183.9756
791.0077, 183.4776
791.4898, 183.3037
791.9719, 183.4855
792.4540, 183.7874
792.9362, 184.2326
793.4183, 184.6686
793.9004, 184.8414
794.3825, 184.9093
794.8646, 185.4561
795.3467, 186.5361
795.8289, 187.3941
796.3110, 187.3172
796.7931, 186.8891
797.2752, 186.5406
797.7573, 186.2986
798.2394, 186.2901
798.7216, 186.6402
799.2037, 187.0997
799.6858, 187.4860
800.1679, 187.7629
800.6500, 188.3279
801.1321, 189.2292
801.6143, 190.1684
802.0964, 190.9262
802.5785, 191.5145
803.0606, 191.8277
803.5427, 191.8188
804.0248, 192.1446
804.5070, 193.6281
804.9891, 195.3001
805.4712, 196.3343
805.9533, 196.2820
806.4354, 196.8143
806.9175, 198.2343
807.3997, 199.8039
807.8818, 200.9957
808.3639, 201.8064
808.8460, 202.5731
809.3281, 203.3131
809.8102, 203.9300
810.2924, 204.2141
810.7745, 204.3791
811.2566, 204.7086
811.7387, 205.2428
812.2208, 205.8963
812.7029, 206.7831
813.1851, 207.6680
813.6672, 208.3792
814.1493, 208.8736
814.6314, 209.3787
815.1135, 209.8767
815.5956, 210.4197
816.0778, 211.0240
816.5599, 211.6988
817.0420, 212.5788
817.5241, 213.6795
818.0062, 214.5730
818.4883, 215.0587
818.9705, 215.0975
819.4526, 214.5954
819.9347, 213.5036
820.4168, 212.1885
820.8989, 210.3363
821.3810, 208.6428
821.8632, 207.5774
822.3453, 207.2672
822.8274, 206.1919
823.3095, 204.2390
823.7916, 202.3432
824.2737, 201.4478
824.7559, 201.1100
825.2380, 200.4766
825.7201, 199.5038
826.2022, 198.3658
826.6843, 196.8250
827.1664, 195.4350
827.6486, 194.6804
828.1307, 194.7265
828.6128, 194.4273
829.0949, 193.5925
829.5770, 192.7245
830.0591, 192.0653
830.5413, 191.6091
831.0234, 191.2595
831.5055, 191.0158
831.9876, 190.9242
832.4697, 191.1471
832.9518, 191.4549
833.4340, 191.6228
833.9161, 191.6373
834.3982, 191.5378
834.8803, 191.1457
835.3624, 190.8387
835.8445, 190.8450
836.3267, 191.1419
836.8088, 191.1424
837.2909, 190.7875
837.7730, 190.4111
838.2551, 190.2270
838.7372, 190.1486
839.2194, 189.9535
839.7015, 189.6567
840.1836, 189.3422
840.6657, 188.8059
841.1478, 188.4917
841.6299, 188.9097
842.1121, 189.9402
842.5942, 190.4339
843.0763, 190.0946
843.5584, 189.6221
844.0405, 189.1105
844.5226, 188.6697
845.0048, 188.9170
845.4869, 189.7957
845.9690, 190.4477
846.4511, 190.2910
846.9332, 189.8136
847.4153, 189.4529
847.8975, 189.2005
848.3796, 189.0310
848.8617, 189.0773
849.3438, 189.0357
849.8259, 188.5886
850.3080, 188.0541
850.7902, 188.4116
851.2723, 189.8519
851.7544, 190.9979
852.2365, 191.3748
852.7186, 191.3846
853.2007, 191.7449
853.6829, 192.3254
854.1650, 192.7668
854.6471, 192.7650
855.1292, 192.8028
855.6113, 193.1828
856.0934, 193.7363
856.5756, 194.1617
857.0577, 194.4107
857.5398, 194.5704
858.0219, 194.5600
858.5040, 194.6072
858.9861, 195.1614
859.4683, 196.1314
859.9504, 197.0051
860.4325, 197.6173
860.9146, 198.2272
861.3967, 199.0530
861.8788, 200.0096
862.3610, 201.0107
862.8431, 202.0926
863.3252, 203.0984
863.8073, 203.9825
864.2894, 204.8205
864.7715, 205.6119
865.2537, 206.3413
865.7358, 207.5139
866.2179, 209.2677
866.7000, 210.8773
867.1821, 211.4571
867.6642, 211.5013
868.1464, 211.5758
868.6285, 211.6994
869.1106, 212.4002
869.5927, 214.1843
870.0748, 216.3898
870.5569, 218.5825
871.0391, 220.7484
871.5212, 222.8891
872.0033, 224.9744
872.4854, 227.0914
872.9675, 229.4067
873.4496, 231.7586
873.9318, 233.9449
874.4139, 235.8787
874.8960, 236.7822
875.3781, 236.0321
875.8602, 234.2517
876.3423, 231.7904
876.8245, 228.6441
877.3066, 224.5506
877.7887, 219.0445
878.2708, 213.6379
878.7529, 208.7313
879.2350, 204.4986
879.7172, 201.6112
880.1993, 199.9871
880.6814, 198.8136
881.1635, 197.7543
881.6456, 196.8980
882.1277, 196.4705
882.6099, 196.3073
883.0920, 195.9154
883.5741, 194.6395
884.0562, 193.9339
884.5383, 194.1716
885.0204, 194.9670
885.5026, 195.5867
885.9847, 196.0205
886.4668, 196.1419
886.9489, 195.8083
887.4310, 195.3868
887.9131, 195.3897
888.3953, 195.5444
888.8774, 195.4233
889.3595, 194.4272
889.8416, 193.9068
890.3237, 194.3805
890.8058, 195.1188
891.2880, 195.3315
891.7701, 194.9662
892.2522, 194.8058
892.7343, 194.9603
893.2164, 195.0458
893.6985, 194.5066
894.1807, 193.7076
894.6628, 193.1543
895.1449, 192.9373
895.6270, 192.8993
896.1091, 193.3591
896.5912, 193.6416
897.0734, 193.2264
897.5555, 192.0121
898.0376, 191.4438
898.5197, 191.5807
899.0018, 192.0482
899.4839, 192.7712
899.9661, 193.5740
900.4482, 194.1238
900.9303, 194.4390
901.4124, 194.6500
901.8945, 194.7872
902.3766, 194.8712
902.8588, 194.9350
903.3409, 194.9558
903.8230, 194.7879
904.3051, 194.3460
904.7872, 194.0525
905.2693, 194.1338
905.7515, 194.3274
906.2336, 193.9718
906.7157, 193.2705
907.1978, 192.8222
907.6799, 193.0961
908.1620, 193.3949
908.6442, 193.3451
909.1263, 193.1431
909.6084, 193.1390
910.0905, 193.4919
910.5726, 193.6061
911.0547, 193.3550
911.5369, 193.0391
912.0190, 193.1604
912.5011, 193.5345
912.9832, 193.5767
913.4653, 193.1311
913.9474, 192.7336
914.4296, 192.8521
914.9117, 193.0786
915.3938, 193.0469
915.8759, 192.6596
916.3580, 192.2920
916.8401, 191.8685
917.3223, 191.6433
917.8044, 191.9691
918.2865, 192.6358
918.7686, 192.7578
919.2507, 192.3979
919.7328, 192.1905
920.2150, 192.8385
920.6971, 193.4913
921.1792, 193.5889
921.6613, 193.1709
922.1434, 192.7465
922.6255, 192.2449
923.1077, 191.9403
923.5898, 191.9285
924.0719, 192.1436
924.5540, 192.5691
925.0361, 193.1134
925.5182, 193.3868
926.0004, 193.1086
926.4825, 192.7400
926.9646, 192.4412
927.4467, 192.2735
927.9288, 192.3622
928.4109, 192.9250
928.8931, 193.2703
929.3752, 193.3208
929.8573, 193.2366
930.3394, 193.1764
930.8215, 193.1358
931.3036, 193.0575
931.7858, 192.9267
932.2679, 192.9346
932.7500, 193.4209
933.2321, 193.9500
933.7142, 194.1421
934.1964, 193.9011
934.6785, 193.9377
935.1606, 194.4283
935.6427, 194.7549
936.1248, 194.3812
936.6069, 193.6543
937.0891, 193.9103
937.5712, 194.9720
938.0533, 195.9428
938.5354, 196.3533
939.0175, 196.5081
939.4996, 196.4224
939.9818, 196.2085
940.4639, 196.1802
940.9460, 196.3900
941.4281, 196.6576
941.9102, 196.9671
942.3923, 197.2817
942.8745, 197.5793
943.3566, 197.8343
943.8387, 197.9308
944.3208, 197.7810
944.8029, 197.6987
945.2850, 197.8398
945.7672, 198.1509
946.2493, 198.5904
946.7314, 199.1526
947.2135, 199.8767
947.6956, 200.8353
948.1777, 201.7122
948.6599, 202.2460
949.1420, 202.5049
949.6241, 202.5683
950.1062, 202.4680
950.5883, 202.4171
951.0704, 202.5106
951.5526, 202.6990
952.0347, 203.1145
952.5168, 203.6171
952.9989, 203.5700
953.4810, 202.7890
953.9631, 202.3626
954.4453, 202.7153
954.9274, 203.3740
955.4095, 203.5598
955.8916, 203.4510
956.3737, 203.4376
956.8558, 203.6995
957.3380, 203.9689
957.8201, 204.3372
958.3022, 204.5473
958.7843, 204.2204
959.2664, 203.1168
959.7485, 202.9935
960.2307, 204.0174
960.7128, 205.1519
961.1949, 205.2866
961.6770, 205.0575
962.1591, 205.5632
962.6412, 206.8059
963.1234, 207.5008
963.6055, 206.5501
964.0876, 205.6950
964.5697, 205.6218
965.0518, 206.1224
965.5339, 206.2822
966.0161, 206.0989
966.4982, 205.8145
966.9803, 205.3955
967.4624, 205.1196
967.9445, 205.5964
968.4266, 206.3595
968.9088, 206.6292
969.3909, 205.6529
969.8730, 204.9491
970.3551, 204.6855
970.8372, 204.6301
971.3193, 204.6206
971.8015, 204.6335
972.2836, 204.3210
972.7657, 203.6475
973.2478, 203.1133
973.7299, 203.2118
974.2120, 203.5371
974.6942, 203.7566
975.1763, 203.8432
975.6584, 204.0267
976.1405, 204.4581
976.6226, 204.6620
977.1047, 204.3410
977.5869, 203.7725
978.0690, 203.8570
978.5511, 204.4001
979.0332, 204.6721
979.5153, 204.2276
979.9974, 203.6595
980.4796, 203.1320
980.9617, 202.7413
981.4438, 202.6465
981.9259, 203.0190
982.4080, 203.0945
982.8901, 202.7456
983.3723, 202.4563
983.8544, 202.9797
984.3365, 203.8163
984.8186, 203.9257
985.3007, 203.2419
985.7828, 202.6047
986.2650, 202.2488
986.7471, 202.1820
987.2292, 202.5721
987.7113, 203.2461
988.1934, 203.1567
988.6755, 202.2605
989.1577, 201.6129
989.6398, 201.8042
990.1219, 202.1208
990.6040, 201.4548
991.0861, 200.3764
991.5682, 199.8545
992.0504, 200.5381
992.5325, 201.2617
993.0146, 202.1241
993.4967, 202.7432
993.9788, 202.5852
994.4609, 201.7785
994.9431, 201.4989
995.4252, 201.8069
995.9073, 202.1861
996.3894, 202.3006
996.8715, 202.3085
997.3536, 202.2997
997.8358, 202.2869
998.3179, 202.3362
998.8000, 202.5302
999.2821, 202.5500
999.7642, 202.2168
1000.246, 201.7826
1000.728, 201.7975
1001.211, 202.1279
1001.693, 202.4583
1002.175, 202.7848
1002.657, 202.8964
1003.139, 202.4082
1003.621, 201.8688
1004.103, 201.8090
1004.585, 202.3438
1005.068, 202.7119
1005.550, 202.9146
1006.032, 202.9464
1006.514, 202.5860
1006.996, 202.1901
1007.478, 202.3065
1007.960, 202.8428
1008.442, 203.1958
1008.924, 202.7885
1009.407, 202.7400
1009.889, 203.4143
1010.371, 204.4391
1010.853, 205.1282
1011.335, 205.4912
1011.817, 205.4525
1012.299, 204.8857
1012.781, 204.4224
1013.263, 204.7681
1013.746, 205.3067
1014.228, 205.3872
1014.710, 204.8421
1015.192, 204.5362
1015.674, 204.4680
1016.156, 204.6680
1016.638, 205.2604
1017.120, 206.0818
1017.603, 206.7757
1018.085, 207.3839
1018.567, 208.0368
1019.049, 208.9368
1019.531, 209.7014
1020.013, 210.1939
1020.495, 210.5027
1020.977, 210.7074
1021.459, 210.7999
1021.942, 210.9718
1022.424, 211.2442
1022.906, 211.6198
1023.388, 212.2119
1023.870, 212.8426
1024.352, 213.2833
1024.834, 213.4911
1025.316, 213.9270
1025.799, 214.6835
1026.281, 215.5419
1026.763, 216.4454
1027.245, 217.3749
1027.727, 218.4082
1028.209, 219.4707
1028.691, 220.2939
1029.173, 220.6022
1029.656, 220.9254
1030.138, 221.5593
1030.620, 222.2887
1031.102, 222.8401
1031.584, 223.1173
1032.066, 223.7965
1032.548, 224.9193
1033.030, 226.1723
1033.512, 227.3222
1033.995, 228.4267
1034.477, 229.5443
1034.959, 230.6644
1035.441, 231.7439
1035.923, 232.9455
1036.405, 233.8245
1036.887, 234.2155
1037.369, 234.3402
1037.851, 234.4908
1038.334, 234.7437
1038.816, 235.5213
1039.298, 237.0903
1039.780, 238.4092
1040.262, 238.6607
1040.744, 238.5493
1041.226, 238.6225
1041.708, 238.9071
1042.191, 239.2334
1042.673, 239.6281
1043.155, 239.8767
1043.637, 239.7471
1044.119, 239.5106
1044.601, 239.5228
1045.083, 239.7254
1045.565, 239.9835
1046.047, 240.6158
1046.530, 240.7287
1047.012, 240.0349
1047.494, 239.1296
1047.976, 238.7403
1048.458, 238.7319
1048.940, 238.4315
1049.422, 237.7952
1049.904, 237.2228
1050.386, 237.1420
1050.869, 237.0291
1051.351, 236.3361
1051.833, 235.3105
1052.315, 235.1549
1052.797, 236.0497
1053.279, 236.2998
1053.761, 235.1672
1054.243, 233.9753
1054.726, 234.3819
1055.208, 235.8022
1055.690, 237.4118
1056.172, 238.9604
1056.654, 240.9502
1057.136, 242.9213
1057.618, 246.1377
1058.100, 251.0288
1058.583, 257.8286
1059.065, 267.7396
1059.547, 280.4971
1060.029, 294.9901
1060.511, 312.4582
1060.993, 329.0262
1061.475, 343.2573
1061.957, 355.4267
1062.439, 365.6020
1062.922, 373.5611
1063.404, 381.3881
1063.886, 389.1505
1064.368, 397.3485
1064.850, 405.0294
1065.332, 414.4562
1065.814, 427.2196
1066.296, 443.5482
1066.778, 465.6513
1067.261, 493.4818
1067.743, 526.8501
1068.225, 566.1553
1068.707, 610.1269
1069.189, 655.5067
1069.671, 703.0810
1070.153, 757.3588
1070.635, 824.3140
1071.118, 877.5990
1071.600, 919.7958
1072.082, 928.8894
1072.564, 886.0499
1073.046, 795.5859
1073.528, 699.8790
1074.010, 600.6149
1074.492, 510.5722
1074.974, 435.8383
1075.457, 374.9690
1075.939, 329.2424
1076.421, 296.2426
1076.903, 271.7589
1077.385, 257.0546
1077.867, 245.3919
1078.349, 236.7330
1078.831, 230.3604
1079.313, 226.3147
1079.796, 223.7473
1080.278, 221.6251
1080.760, 219.8175
1081.242, 218.0794
1081.724, 215.9657
1082.206, 214.4833
1082.688, 214.1204
1083.170, 214.1791
1083.652, 213.2178
1084.135, 211.5518
1084.617, 210.4572
1085.099, 210.2355
1085.581, 210.1173
1086.063, 209.7097
1086.545, 209.2126
1087.027, 208.7630
1087.509, 208.2191
1087.992, 207.7740
1088.474, 207.0363
1088.956, 206.3062
1089.438, 205.5745
1089.920, 205.0132
1090.402, 204.8644
1090.884, 204.9491
1091.366, 205.0315
1091.849, 205.0877
1092.331, 205.1107
1092.813, 205.0860
1093.295, 205.0770
1093.777, 205.2376
1094.259, 205.3916
1094.741, 205.1667
1095.223, 204.6357
1095.705, 204.0668
1096.188, 203.3205
1096.670, 202.8921
1097.152, 202.9059
1097.634, 203.1798
1098.116, 203.5331
1098.598, 203.9478
1099.080, 204.3045
1099.562, 204.5960
1100.044, 204.9883
1100.527, 206.1148
1101.009, 206.8205
1101.491, 206.1366
1101.973, 204.6142
1102.455, 203.9939
1102.937, 204.2819
1103.419, 204.6785
1103.901, 205.0203
1104.384, 205.2855
1104.866, 205.3870
1105.348, 205.4396
1105.830, 205.6096
1106.312, 205.9519
1106.794, 205.9662
1107.276, 205.5891
1107.758, 205.1007
1108.240, 204.4627
1108.723, 203.9846
1109.205, 204.1921
1109.687, 204.9061
1110.169, 205.8019
1110.651, 207.1289
1111.133, 208.0175
1111.615, 208.4829
1112.097, 208.4169
1112.579, 207.2722
1113.062, 205.5724
1113.544, 205.4782
1114.026, 206.6609
1114.508, 207.4657
1114.990, 206.4161
1115.472, 205.7174
1115.954, 206.4112
1116.436, 207.5186
1116.919, 207.7774
1117.401, 207.2451
1117.883, 206.5106
1118.365, 205.6267
1118.847, 205.2054
1119.329, 206.2217
1119.811, 207.3482
1120.293, 207.6270
1120.776, 207.2797
1121.258, 207.1810
1121.740, 207.3909
1122.222, 207.1229
1122.704, 206.0625
1123.186, 205.1266
1123.668, 205.5214
1124.150, 206.3498
1124.632, 206.6285
1125.115, 206.1747
1125.597, 205.9254
1126.079, 205.9679
1126.561, 205.9451
1127.043, 205.6545
1127.525, 205.3420
1128.007, 205.5589
1128.489, 205.9990
1128.971, 206.1191
1129.454, 205.6735
1129.936, 205.1873
1130.418, 204.5310
1130.900, 204.2049
1131.382, 204.7007
1131.864, 205.6798
1132.346, 206.1189
1132.828, 206.1397
1133.311, 206.1443
1133.793, 206.4750
1134.275, 206.5493
1134.757, 205.8814
1135.239, 205.2892
1135.721, 205.7412
1136.203, 207.0574
1136.685, 207.8461
1137.167, 208.0615
1137.650, 207.7095
1138.132, 205.8045
1138.614, 204.4185
1139.096, 205.0338
1139.578, 206.6126
1140.060, 207.6194
1140.542, 208.0578
1141.024, 208.2355
1141.506, 208.1858
1141.989, 207.9332
1142.471, 207.2754
1142.953, 206.6212
1143.435, 206.2734
1143.917, 206.2160
1144.399, 206.2438
1144.881, 206.3434
1145.363, 206.6420
1145.846, 207.1892
1146.328, 207.8138
1146.810, 208.4365
1147.292, 208.9509
1147.774, 209.1934
1148.256, 209.1137
1148.738, 209.2083
1149.220, 209.5815
1149.703, 209.7727
1150.185, 209.6159
1150.667, 209.2083
1151.149, 208.4051
1151.631, 207.5568
1152.113, 207.2738
1152.595, 207.9010
1153.077, 208.3485
1153.559, 208.5597
1154.042, 208.5479
1154.524, 208.2101
1155.006, 207.7500
1155.488, 207.5645
1155.970, 207.6308
1156.452, 207.9130
1156.934, 208.6260
1157.416, 209.1513
1157.898, 209.4912
1158.381, 209.5396
1158.863, 209.0107
1159.345, 208.1313
1159.827, 207.8066
1160.309, 207.9677
1160.791, 208.3474
1161.273, 209.1090
1161.755, 209.6945
1162.238, 210.0171
1162.720, 210.0593
1163.202, 209.6345
1163.684, 208.8577
1164.166, 208.4327
1164.648, 208.3867
1165.130, 208.6838
1165.612, 209.8903
1166.094, 210.7502
1166.577, 210.5472
1167.059, 209.8092
1167.541, 209.2189
1168.023, 208.7886
1168.505, 208.8795
1168.987, 209.5352
1169.469, 209.8702
1169.951, 208.6754
1170.433, 207.5610
1170.916, 207.6565
1171.398, 208.5276
1171.880, 209.1965
1172.362, 209.6663
1172.844, 209.9486
1173.326, 210.0292
1173.808, 210.0143
1174.290, 209.7908
1174.773, 209.6692
1175.255, 209.9342
1175.737, 210.5293
1176.219, 211.3722
1176.701, 212.5166
1177.183, 212.7744
1177.665, 211.5915
1178.147, 210.2827
1178.630, 210.0425
1179.112, 210.3403
1179.594, 210.7661
1180.076, 211.2821
1180.558, 211.6141
1181.040, 211.7545
1181.522, 211.8248
1182.004, 211.8799
1182.486, 211.8678
1182.969, 211.4599
1183.451, 211.1004
1183.933, 211.4900
1184.415, 212.9064
1184.897, 213.4518
1185.379, 212.9712
1185.861, 212.6258
1186.343, 213.1385
1186.825, 213.9084
1187.308, 214.3459
1187.790, 214.5117
1188.272, 214.4769
1188.754, 214.2347
1189.236, 213.7870
1189.718, 213.0542
1190.200, 212.5548
1190.682, 212.7999
1191.165, 213.3272
1191.647, 213.6382
1192.129, 213.7571
1192.611, 213.7235
1193.093, 213.5219
1193.575, 213.1895
1194.057, 212.6672
1194.539, 212.2595
1195.021, 212.3622
1195.504, 212.6057
1195.986, 212.2294
1196.468, 212.7829
1196.950, 211.6932
1197.432, 213.4302
1197.914, 214.4243
1198.396, 214.4257
1198.878, 214.0590
1199.360, 213.6691
1199.843, 213.4368
1200.325, 213.8698
1200.807, 214.7460
1201.289, 215.0871
1201.771, 214.4657
1202.253, 213.8970
1202.735, 213.4586
1203.217, 213.2207
1203.700, 213.3285
1204.182, 213.6498
1204.664, 214.0097
1205.146, 214.3975
1205.628, 214.8716
1206.110, 215.5630
1206.592, 216.0442
1207.074, 216.2259
1207.557, 216.2337
1208.039, 216.1800
1208.521, 216.0772
1209.003, 215.9171
1209.485, 215.7050
1209.967, 215.5667
1210.449, 215.5394
1210.931, 215.5144
1211.413, 215.4552
1211.896, 215.4343
1212.378, 215.5577
1212.860, 215.7806
1213.342, 216.1355
1213.824, 216.6259
1214.306, 216.6828
1214.788, 216.1396
1215.270, 215.4871
1215.752, 214.7312
1216.235, 214.2420
1216.717, 214.8988
1217.199, 215.9908
1217.681, 216.5364
1218.163, 216.3826
1218.645, 215.6686
1219.127, 214.0163
1219.609, 213.1133
1220.092, 213.6766
1220.574, 214.8069
1221.056, 215.3804
1221.538, 215.5447
1222.020, 215.4089
1222.502, 214.9192
1222.984, 214.8167
1223.466, 215.2867
1223.948, 215.5643
1224.431, 215.2638
1224.913, 214.8479
1225.395, 215.1205
1225.877, 215.6452
1226.359, 215.7876
1226.841, 215.3349
1227.323, 215.0492
1227.805, 214.9754
1228.287, 214.9113
1228.770, 214.7790
1229.252, 214.6028
1229.734, 214.2403
1230.216, 213.9438
1230.698, 214.1835
1231.180, 215.2497
1231.662, 215.4943
1232.144, 214.7488
1232.627, 214.1993
1233.109, 214.5798
1233.591, 215.0925
1234.073, 214.5847
1234.555, 214.7947
1235.037, 214.6302
1235.519, 214.2005
1236.001, 214.1810
1236.484, 213.3167
1236.966, 212.9106
1237.448, 214.0021
1237.930, 215.2437
1238.412, 215.0854
1238.894, 214.3388
1239.376, 214.1836
1239.858, 214.8159
1240.340, 214.7612
1240.823, 213.9740
1241.305, 213.4610
1241.787, 214.0544
1242.269, 214.7063
1242.751, 214.1171
1243.233, 214.9896
1243.715, 213.7487
1244.197, 215.6438
1244.679, 216.4739
1245.162, 216.2599
1245.644, 215.6893
1246.126, 214.6921
1246.608, 214.0524
1247.090, 214.6721
1247.572, 215.7019
1248.054, 216.1780
1248.536, 216.0991
1249.019, 215.7780
1249.501, 215.2409
1249.983, 214.7111
1250.465, 213.9496
1250.947, 213.6914
1251.429, 214.9362
1251.911, 216.3791
1252.393, 216.7589
1252.875, 216.1319
1253.358, 215.4863
1253.840, 214.8725
1254.322, 214.6272
1254.804, 215.1306
1255.286, 215.7734
1255.768, 216.6570
1256.250, 217.2688
1256.732, 216.8770
1257.214, 215.7585
1257.697, 215.7954
1258.179, 216.7449
1258.661, 217.4459
1259.143, 217.3085
1259.625, 216.9301
1260.107, 216.1992
1260.589, 215.6559
1261.071, 215.9481
1261.554, 216.7554
1262.036, 217.1172
1262.518, 217.0821
1263.000, 216.8633
1263.482, 216.2910
1263.964, 215.9007
1264.446, 215.7122
1264.928, 215.7435
1265.411, 216.1590
1265.893, 216.7229
1266.375, 217.0638
1266.857, 217.1706
1267.339, 217.0138
1267.821, 216.1218
1268.303, 215.9231
1268.785, 216.6269
1269.267, 217.3627
1269.750, 217.3410
1270.232, 217.0296
1270.714, 217.1159
1271.196, 217.3771
1271.678, 217.1991
1272.160, 216.1342
1272.642, 216.0313
1273.124, 217.0381
1273.606, 218.0864
1274.089, 218.4719
1274.571, 218.4848
1275.053, 218.1924
1275.535, 217.7747
1276.017, 217.5453
1276.499, 217.5403
1276.981, 217.5157
1277.463, 217.4683
1277.946, 217.4584
1278.428, 217.3364
1278.910, 217.4825
1279.392, 218.6634
1279.874, 219.8840
1280.356, 219.7816
1280.838, 218.4082
1281.320, 218.1725
1281.802, 218.9531
1282.285, 219.3864
1282.767, 218.1675
1283.249, 217.1972
1283.731, 217.2674
1284.213, 217.7383
1284.695, 218.0907
1285.177, 218.3745
1285.659, 218.9519
1286.141, 219.7134
1286.624, 220.1942
1287.106, 220.0231
1287.588, 219.7690
1288.070, 219.4212
1288.552, 219.2078
1289.034, 219.4195
1289.516, 219.8603
1289.998, 220.1683
1290.481, 220.3276
1290.963, 220.2990
1291.445, 219.8259
1291.927, 219.6178
1292.409, 219.7172
1292.891, 219.9258
1293.373, 220.0915
1293.855, 220.2951
1294.338, 220.7734
1294.820, 221.3239
1295.302, 221.5121
1295.784, 221.1925
1296.266, 221.0807
1296.748, 221.1894
1297.230, 221.2744
1297.712, 221.1464
1298.194, 220.9796
1298.677, 220.7922
1299.159, 220.7253
1299.641, 220.9765
1300.123, 221.5571
1300.605, 221.8888
1301.087, 221.9546
1301.569, 221.5825
1302.051, 220.2548
1302.533, 219.1121
1303.016, 218.5337
##END=



