##NAMES=Boussingaultite
##RRUFFID=R061027
##IDEAL CHEMISTRY=(N^3-^H_4_)_2_Mg(S^6+^O_4_)_2_&#183;6H_2_O
##LOCALITY=Kladno, Bohmen, Czech Republic
##OWNER=RRUFF
##SOURCE=Michael Scott
##DESCRIPTION=White granular aggregates
##STATUS=The identification of this mineral has been made only by X-ray diffraction.
##URL=rruff.info/R061027
160.5736, 17672.75
161.0557, 17738.44
161.5378, 17784.68
162.0199, 17838.23
162.5020, 17932.57
162.9841, 18023.92
163.4663, 18081.57
163.9484, 18076.62
164.4305, 18064.89
164.9126, 18074.77
165.3947, 18102.61
165.8768, 18127.33
166.3590, 18135.93
166.8411, 18137.81
167.3232, 18142.63
167.8053, 18154.42
168.2874, 18170.69
168.7695, 18194.80
169.2517, 18226.90
169.7338, 18251.49
170.2159, 18243.80
170.6980, 18223.67
171.1801, 18222.13
171.6622, 18277.25
172.1444, 18344.05
172.6265, 18369.58
173.1086, 18343.34
173.5907, 18323.70
174.0728, 18376.61
174.5549, 18478.05
175.0371, 18564.83
175.5192, 18582.34
176.0013, 18571.44
176.4834, 18592.77
176.9655, 18662.83
177.4476, 18741.71
177.9298, 18781.89
178.4119, 18789.52
178.8940, 18794.85
179.3761, 18816.62
179.8582, 18850.29
180.3403, 18888.08
180.8225, 18931.53
181.3046, 18974.42
181.7867, 19006.62
182.2688, 19028.20
182.7509, 19047.68
183.2330, 19072.58
183.7152, 19100.73
184.1973, 19126.49
184.6794, 19145.30
185.1615, 19161.65
185.6436, 19188.32
186.1257, 19226.40
186.6079, 19261.97
187.0900, 19281.76
187.5721, 19286.69
188.0542, 19282.46
188.5363, 19266.92
189.0184, 19243.59
189.5006, 19222.06
189.9827, 19200.63
190.4648, 19189.14
190.9469, 19210.10
191.4290, 19262.19
191.9111, 19304.05
192.3932, 19313.72
192.8754, 19294.59
193.3575, 19276.43
193.8396, 19259.61
194.3217, 19245.41
194.8038, 19237.79
195.2859, 19237.49
195.7681, 19237.42
196.2502, 19230.66
196.7323, 19217.61
197.2144, 19217.99
197.6965, 19237.80
198.1786, 19267.21
198.6608, 19280.71
199.1429, 19274.78
199.6250, 19269.85
200.1071, 19279.66
200.5892, 19304.88
201.0714, 19333.12
201.5535, 19364.12
202.0356, 19395.69
202.5177, 19418.84
202.9998, 19430.10
203.4819, 19441.21
203.9641, 19463.91
204.4462, 19501.02
204.9283, 19528.35
205.4104, 19536.56
205.8925, 19529.58
206.3746, 19542.47
206.8568, 19584.16
207.3389, 19627.32
207.8210, 19640.95
208.3031, 19616.91
208.7852, 19600.88
209.2673, 19606.06
209.7495, 19632.78
210.2316, 19657.75
210.7137, 19682.65
211.1958, 19705.33
211.6779, 19724.23
212.1600, 19741.54
212.6422, 19749.43
213.1243, 19737.76
213.6064, 19701.19
214.0885, 19701.27
214.5706, 19751.72
215.0527, 19824.25
215.5349, 19874.39
216.0170, 19895.17
216.4991, 19907.08
216.9812, 19911.88
217.4633, 19902.16
217.9454, 19918.24
218.4276, 19975.79
218.9097, 20048.77
219.3918, 20081.78
219.8739, 20051.36
220.3560, 20026.08
220.8381, 20040.96
221.3203, 20124.72
221.8024, 20167.26
222.2845, 20152.45
222.7666, 20102.42
223.2487, 20075.02
223.7308, 20078.60
224.2129, 20092.86
224.6951, 20108.27
225.1772, 20124.22
225.6593, 20143.52
226.1414, 20169.27
226.6235, 20197.97
227.1056, 20215.82
227.5878, 20213.38
228.0699, 20212.38
228.5520, 20227.17
229.0341, 20269.95
229.5162, 20300.07
229.9983, 20309.90
230.4805, 20303.25
230.9626, 20305.44
231.4447, 20327.22
231.9268, 20344.86
232.4089, 20336.73
232.8910, 20271.15
233.3732, 20245.28
233.8553, 20274.88
234.3374, 20357.30
234.8195, 20463.66
235.3016, 20643.12
235.7837, 20792.55
236.2659, 20819.47
236.7480, 20639.82
237.2301, 20500.11
237.7122, 20444.76
238.1943, 20472.30
238.6764, 20493.02
239.1586, 20499.37
239.6407, 20507.11
240.1228, 20532.12
240.6049, 20588.13
241.0870, 20635.78
241.5691, 20666.11
242.0513, 20678.13
242.5334, 20690.03
243.0155, 20693.84
243.4976, 20703.66
243.9797, 20738.78
244.4618, 20824.17
244.9440, 20885.11
245.4261, 20897.75
245.9082, 20855.70
246.3903, 20831.26
246.8724, 20829.52
247.3545, 20840.29
247.8367, 20854.07
248.3188, 20877.56
248.8009, 20891.73
249.2830, 20888.12
249.7651, 20863.31
250.2472, 20857.79
250.7294, 20889.04
251.2115, 20927.03
251.6936, 20929.29
252.1757, 20873.39
252.6578, 20825.68
253.1399, 20804.22
253.6220, 20812.87
254.1042, 20827.76
254.5863, 20854.61
255.0684, 20883.19
255.5505, 20894.53
256.0326, 20870.07
256.5147, 20863.75
256.9969, 20895.39
257.4790, 20973.37
257.9611, 21043.66
258.4432, 21110.92
258.9253, 21165.93
259.4074, 21188.23
259.8896, 21156.53
260.3717, 21136.19
260.8538, 21152.52
261.3359, 21215.41
261.8180, 21261.85
262.3001, 21289.18
262.7823, 21302.22
263.2644, 21307.48
263.7465, 21300.86
264.2286, 21295.95
264.7107, 21298.60
265.1928, 21310.75
265.6750, 21319.61
266.1571, 21321.75
266.6392, 21324.72
267.1213, 21347.10
267.6034, 21401.95
268.0855, 21441.26
268.5677, 21435.82
269.0498, 21372.01
269.5319, 21357.39
270.0140, 21411.93
270.4961, 21494.70
270.9782, 21525.82
271.4604, 21488.41
271.9425, 21458.14
272.4246, 21475.50
272.9067, 21551.09
273.3888, 21585.56
273.8709, 21562.73
274.3531, 21519.58
274.8352, 21522.64
275.3173, 21579.96
275.7994, 21647.82
276.2815, 21710.85
276.7636, 21768.30
277.2458, 21817.99
277.7279, 21860.69
278.2100, 21892.79
278.6921, 21905.66
279.1742, 21897.05
279.6563, 21882.18
280.1385, 21859.15
280.6206, 21828.08
281.1027, 21830.61
281.5848, 21877.27
282.0669, 21938.85
282.5490, 21963.33
283.0312, 21948.00
283.5133, 21933.86
283.9954, 21945.67
284.4775, 21981.21
284.9596, 21997.49
285.4417, 21988.83
285.9239, 21973.85
286.4060, 21982.63
286.8881, 22015.07
287.3702, 22051.99
287.8523, 22092.36
288.3344, 22132.64
288.8166, 22141.40
289.2987, 22109.04
289.7808, 22074.00
290.2629, 22105.64
290.7450, 22196.70
291.2271, 22269.52
291.7093, 22277.92
292.1914, 22237.00
292.6735, 22200.05
293.1556, 22169.55
293.6377, 22143.13
294.1198, 22106.82
294.6020, 22067.07
295.0841, 22059.42
295.5662, 22132.76
296.0483, 22249.16
296.5304, 22304.67
297.0125, 22289.95
297.4947, 22260.46
297.9768, 22278.10
298.4589, 22332.91
298.9410, 22390.90
299.4231, 22431.71
299.9052, 22465.68
300.3873, 22509.56
300.8694, 22563.39
301.3516, 22622.96
301.8337, 22696.76
302.3158, 22774.08
302.7979, 22828.35
303.2800, 22819.26
303.7621, 22792.63
304.2443, 22810.81
304.7264, 22876.96
305.2085, 22952.81
305.6906, 23026.93
306.1727, 23088.00
306.6548, 23117.20
307.1370, 23079.97
307.6191, 23023.93
308.1012, 22989.29
308.5833, 22977.80
309.0654, 22984.93
309.5475, 23024.65
310.0297, 23077.63
310.5118, 23117.91
310.9939, 23124.27
311.4760, 23122.51
311.9581, 23133.82
312.4402, 23157.64
312.9224, 23170.77
313.4045, 23140.55
313.8866, 23100.31
314.3687, 23086.26
314.8508, 23153.25
315.3329, 23212.05
315.8151, 23203.53
316.2972, 23134.64
316.7793, 23088.96
317.2614, 23123.29
317.7435, 23185.44
318.2256, 23231.54
318.7078, 23233.98
319.1899, 23234.81
319.6720, 23241.00
320.1541, 23253.90
320.6362, 23283.47
321.1183, 23366.78
321.6005, 23446.27
322.0826, 23483.79
322.5647, 23419.17
323.0468, 23368.85
323.5289, 23356.58
324.0110, 23376.74
324.4932, 23402.19
324.9753, 23438.18
325.4574, 23470.87
325.9395, 23492.91
326.4216, 23481.17
326.9037, 23486.41
327.3859, 23527.39
327.8680, 23590.75
328.3501, 23628.45
328.8322, 23619.72
329.3143, 23603.54
329.7964, 23594.04
330.2786, 23585.47
330.7607, 23594.93
331.2428, 23635.00
331.7249, 23691.39
332.2070, 23731.88
332.6891, 23758.62
333.1713, 23766.97
333.6534, 23749.26
334.1355, 23686.36
334.6176, 23657.24
335.0997, 23672.44
335.5818, 23714.47
336.0640, 23755.25
336.5461, 23797.77
337.0282, 23830.71
337.5103, 23844.39
337.9924, 23833.41
338.4745, 23851.15
338.9567, 23911.79
339.4388, 23979.60
339.9209, 23999.17
340.4030, 23959.67
340.8851, 23929.38
341.3672, 23938.99
341.8494, 23983.73
342.3315, 23995.19
342.8136, 23966.95
343.2957, 23930.00
343.7778, 23918.16
344.2599, 23931.87
344.7421, 23954.74
345.2242, 23985.03
345.7063, 24020.42
346.1884, 24049.35
346.6705, 24070.69
347.1526, 24094.31
347.6348, 24127.54
348.1169, 24169.13
348.5990, 24218.97
349.0811, 24282.53
349.5632, 24345.53
350.0453, 24378.14
350.5275, 24381.88
351.0096, 24385.21
351.4917, 24421.59
351.9738, 24471.37
352.4559, 24492.65
352.9380, 24467.83
353.4202, 24429.07
353.9023, 24405.87
354.3844, 24398.18
354.8665, 24404.14
355.3486, 24434.07
355.8307, 24473.07
356.3129, 24505.68
356.7950, 24529.11
357.2771, 24546.46
357.7592, 24554.66
358.2413, 24558.21
358.7234, 24566.60
359.2056, 24580.66
359.6877, 24603.10
360.1698, 24640.14
360.6519, 24696.81
361.1340, 24744.44
361.6161, 24764.24
362.0982, 24768.81
362.5804, 24775.56
363.0625, 24796.10
363.5446, 24813.84
364.0267, 24818.43
364.5088, 24807.51
364.9909, 24806.57
365.4731, 24839.87
365.9552, 24877.70
366.4373, 24892.82
366.9194, 24847.12
367.4015, 24815.86
367.8836, 24820.51
368.3658, 24860.67
368.8479, 24887.85
369.3300, 24882.86
369.8121, 24877.92
370.2942, 24893.67
370.7763, 24948.43
371.2585, 24995.03
371.7406, 25027.48
372.2227, 25048.08
372.7048, 25069.78
373.1869, 25094.23
373.6690, 25115.32
374.1512, 25131.00
374.6333, 25143.07
375.1154, 25139.38
375.5975, 25108.94
376.0796, 25070.92
376.5617, 25071.53
377.0439, 25119.85
377.5260, 25171.73
378.0081, 25214.95
378.4902, 25250.79
378.9723, 25249.70
379.4544, 25203.09
379.9366, 25144.43
380.4187, 25110.55
380.9008, 25102.41
381.3829, 25128.41
381.8650, 25212.22
382.3471, 25330.58
382.8293, 25400.16
383.3114, 25418.77
383.7935, 25423.50
384.2756, 25452.02
384.7577, 25495.65
385.2398, 25525.67
385.7220, 25522.75
386.2041, 25512.54
386.6862, 25533.22
387.1683, 25580.94
387.6504, 25631.64
388.1325, 25679.13
388.6147, 25715.94
389.0968, 25727.28
389.5789, 25698.88
390.0610, 25669.74
390.5431, 25677.84
391.0252, 25710.25
391.5074, 25733.10
391.9895, 25712.95
392.4716, 25690.68
392.9537, 25700.55
393.4358, 25756.80
393.9179, 25806.11
394.4001, 25816.00
394.8822, 25810.01
395.3643, 25820.97
395.8464, 25888.07
396.3285, 25945.12
396.8106, 25959.36
397.2928, 25923.52
397.7749, 25906.57
398.2570, 25932.03
398.7391, 25971.13
399.2212, 26000.00
399.7033, 26004.86
400.1855, 26015.48
400.6676, 26039.55
401.1497, 26074.12
401.6318, 26098.08
402.1139, 26107.61
402.5960, 26112.02
403.0782, 26116.42
403.5603, 26121.51
404.0424, 26124.19
404.5245, 26119.77
405.0066, 26115.95
405.4887, 26132.72
405.9709, 26175.30
406.4530, 26219.76
406.9351, 26256.85
407.4172, 26286.38
407.8993, 26308.88
408.3814, 26321.54
408.8636, 26334.91
409.3457, 26369.94
409.8278, 26424.28
410.3099, 26463.97
410.7920, 26470.59
411.2741, 26456.81
411.7563, 26448.67
412.2384, 26446.08
412.7205, 26456.47
413.2026, 26496.31
413.6847, 26552.96
414.1668, 26597.30
414.6490, 26615.98
415.1311, 26629.39
415.6132, 26662.71
416.0953, 26710.65
416.5774, 26751.88
417.0595, 26771.68
417.5417, 26781.18
418.0238, 26789.73
418.5059, 26798.03
418.9880, 26807.87
419.4701, 26825.88
419.9522, 26845.69
420.4344, 26856.86
420.9165, 26850.86
421.3986, 26841.32
421.8807, 26830.02
422.3628, 26816.51
422.8449, 26816.10
423.3270, 26829.93
423.8091, 26859.57
424.2913, 26906.77
424.7734, 27012.10
425.2555, 27086.35
425.7376, 27102.51
426.2197, 27074.45
426.7018, 27079.18
427.1840, 27137.51
427.6661, 27201.87
428.1482, 27246.09
428.6303, 27256.62
429.1124, 27286.44
429.5945, 27342.80
430.0767, 27411.90
430.5588, 27471.59
431.0409, 27521.79
431.5230, 27560.42
432.0051, 27577.60
432.4872, 27578.00
432.9694, 27610.96
433.4515, 27680.34
433.9336, 27765.51
434.4157, 27853.40
434.8978, 27941.72
435.3799, 28014.98
435.8621, 28063.46
436.3442, 28101.20
436.8263, 28145.65
437.3084, 28197.78
437.7905, 28263.92
438.2726, 28354.86
438.7548, 28459.80
439.2369, 28563.46
439.7190, 28661.70
440.2011, 28762.81
440.6832, 28878.10
441.1653, 28999.30
441.6475, 29110.35
442.1296, 29176.68
442.6117, 29252.82
443.0938, 29381.80
443.5759, 29569.70
444.0580, 29740.04
444.5402, 29846.49
445.0223, 29932.35
445.5044, 30033.26
445.9865, 30183.74
446.4686, 30318.99
446.9507, 30421.19
447.4329, 30497.34
447.9150, 30580.22
448.3971, 30687.16
448.8792, 30782.71
449.3613, 30850.84
449.8434, 30878.68
450.3256, 30915.91
450.8077, 30973.17
451.2898, 31028.75
451.7719, 31043.97
452.2540, 31008.63
452.7361, 30972.10
453.2183, 30954.81
453.7004, 30950.79
454.1825, 30911.63
454.6646, 30833.35
455.1467, 30745.95
455.6288, 30678.80
456.1110, 30628.08
456.5931, 30573.05
457.0752, 30508.91
457.5573, 30443.07
458.0394, 30393.88
458.5215, 30356.38
459.0037, 30309.24
459.4858, 30225.74
459.9679, 30131.75
460.4500, 30069.24
460.9321, 30045.59
461.4142, 30009.96
461.8964, 29919.75
462.3785, 29798.13
462.8606, 29676.59
463.3427, 29536.98
463.8248, 29425.06
464.3069, 29379.81
464.7891, 29390.07
465.2712, 29382.04
465.7533, 29313.98
466.2354, 29238.12
466.7175, 29183.13
467.1996, 29152.15
467.6818, 29141.82
468.1639, 29175.94
468.6460, 29222.61
469.1281, 29225.22
469.6102, 29161.74
470.0923, 29089.64
470.5745, 29017.39
471.0566, 28944.34
471.5387, 28903.36
472.0208, 28903.96
472.5029, 28915.29
472.9850, 28914.58
473.4672, 28902.38
473.9493, 28866.42
474.4314, 28795.17
474.9135, 28713.68
475.3956, 28680.77
475.8777, 28693.31
476.3599, 28704.74
476.8420, 28669.73
477.3241, 28619.43
477.8062, 28625.89
478.2883, 28699.46
478.7704, 28774.54
479.2526, 28787.15
479.7347, 28763.39
480.2168, 28745.46
480.6989, 28740.07
481.1810, 28751.19
481.6631, 28788.49
482.1453, 28846.11
482.6274, 28898.83
483.1095, 28931.13
483.5916, 28956.52
484.0737, 28982.92
484.5558, 29015.25
485.0379, 29038.69
485.5201, 29046.36
486.0022, 29045.00
486.4843, 29045.62
486.9664, 29062.26
487.4485, 29063.36
487.9306, 29036.96
488.4128, 28985.41
488.8949, 28950.74
489.3770, 28936.45
489.8591, 28934.36
490.3412, 28941.47
490.8233, 28959.39
491.3055, 28974.62
491.7876, 28984.45
492.2697, 28993.48
492.7518, 29010.45
493.2339, 29034.40
493.7160, 29059.57
494.1982, 29086.29
494.6803, 29110.73
495.1624, 29124.36
495.6445, 29126.93
496.1266, 29121.14
496.6087, 29096.80
497.0909, 29069.42
497.5730, 29062.54
498.0551, 29093.15
498.5372, 29129.05
499.0193, 29146.33
499.5014, 29153.34
499.9836, 29170.05
500.4657, 29216.80
500.9478, 29264.37
501.4299, 29301.38
501.9120, 29326.45
502.3941, 29341.11
502.8763, 29319.96
503.3584, 29301.88
503.8405, 29321.99
504.3226, 29424.36
504.8047, 29488.65
505.2868, 29485.09
505.7690, 29437.95
506.2511, 29433.89
506.7332, 29488.80
507.2153, 29542.64
507.6974, 29563.65
508.1795, 29552.47
508.6617, 29554.33
509.1438, 29572.43
509.6259, 29592.81
510.1080, 29594.06
510.5901, 29582.33
511.0722, 29586.54
511.5544, 29622.64
512.0365, 29668.55
512.5186, 29687.69
513.0007, 29687.77
513.4828, 29700.29
513.9650, 29760.53
514.4471, 29831.55
514.9292, 29876.80
515.4113, 29888.20
515.8934, 29897.28
516.3755, 29914.20
516.8576, 29938.13
517.3397, 29968.51
517.8218, 30019.73
518.3040, 30061.17
518.7861, 30083.23
519.2682, 30088.54
519.7503, 30093.08
520.2324, 30087.75
520.7145, 30093.14
521.1967, 30121.54
521.6788, 30181.30
522.1609, 30228.53
522.6430, 30264.63
523.1251, 30286.75
523.6072, 30287.50
524.0894, 30265.90
524.5715, 30240.52
525.0536, 30209.63
525.5357, 30183.05
526.0178, 30184.82
526.4999, 30213.70
526.9821, 30254.38
527.4642, 30314.49
527.9463, 30374.43
528.4284, 30389.98
528.9105, 30352.10
529.3926, 30325.58
529.8748, 30386.13
530.3569, 30480.60
530.8390, 30538.99
531.3211, 30504.92
531.8032, 30464.92
532.2853, 30459.59
532.7675, 30477.38
533.2496, 30473.68
533.7317, 30383.36
534.2138, 30320.08
534.6959, 30345.48
535.1780, 30498.33
535.6602, 30585.72
536.1423, 30573.82
536.6244, 30533.33
537.1065, 30542.43
537.5886, 30624.39
538.0707, 30659.00
538.5529, 30607.86
539.0350, 30514.14
539.5171, 30490.40
539.9992, 30536.96
540.4813, 30614.18
540.9634, 30727.62
541.4456, 30853.00
541.9277, 30915.19
542.4098, 30910.05
542.8919, 30889.91
543.3740, 30899.13
543.8561, 30922.93
544.3383, 30937.36
544.8204, 30918.78
545.3025, 30916.95
545.7846, 30983.27
546.2667, 31088.94
546.7488, 31167.31
547.2310, 31191.63
547.7131, 31189.50
548.1952, 31160.38
548.6773, 31098.48
549.1594, 31064.21
549.6415, 31076.76
550.1237, 31101.45
550.6058, 31112.72
551.0879, 31099.06
551.5700, 31106.25
552.0521, 31143.99
552.5342, 31196.23
553.0164, 31234.24
553.4985, 31257.64
553.9806, 31271.31
554.4627, 31273.78
554.9448, 31269.00
555.4269, 31265.01
555.9091, 31262.34
556.3912, 31269.68
556.8733, 31312.01
557.3554, 31362.70
557.8375, 31375.73
558.3196, 31332.30
558.8018, 31294.88
559.2839, 31303.82
559.7660, 31344.68
560.2481, 31396.50
560.7302, 31465.84
561.2123, 31531.15
561.6945, 31588.84
562.1766, 31637.07
562.6587, 31668.71
563.1408, 31666.35
563.6229, 31663.96
564.1050, 31675.32
564.5872, 31703.46
565.0693, 31730.84
565.5514, 31755.47
566.0335, 31782.92
566.5156, 31826.89
566.9977, 31888.51
567.4799, 31922.91
567.9620, 31911.99
568.4441, 31882.10
568.9262, 31885.13
569.4083, 31916.40
569.8904, 31947.87
570.3726, 31969.90
570.8547, 31980.79
571.3368, 31967.50
571.8189, 31930.65
572.3010, 31915.03
572.7831, 31971.13
573.2653, 32048.10
573.7474, 32101.04
574.2295, 32118.61
574.7116, 32116.42
575.1937, 32086.63
575.6758, 32042.43
576.1580, 32005.93
576.6401, 31961.39
577.1222, 31949.54
577.6043, 31990.12
578.0864, 32076.87
578.5685, 32142.65
579.0507, 32187.60
579.5328, 32213.26
580.0149, 32210.74
580.4970, 32183.33
580.9791, 32176.00
581.4612, 32191.90
581.9434, 32219.73
582.4255, 32243.04
582.9076, 32267.22
583.3897, 32308.84
583.8718, 32388.88
584.3539, 32464.06
584.8361, 32490.99
585.3182, 32482.45
585.8003, 32474.83
586.2824, 32477.24
586.7645, 32490.33
587.2466, 32517.83
587.7288, 32561.41
588.2109, 32602.71
588.6930, 32641.23
589.1751, 32675.84
589.6572, 32705.53
590.1393, 32728.60
590.6215, 32752.46
591.1036, 32781.60
591.5857, 32807.44
592.0678, 32805.68
592.5499, 32772.96
593.0320, 32771.09
593.5142, 32831.74
593.9963, 32926.33
594.4784, 32986.57
594.9605, 33016.00
595.4426, 33038.71
595.9247, 33064.29
596.4069, 33095.21
596.8890, 33140.65
597.3711, 33203.78
597.8532, 33252.90
598.3353, 33245.70
598.8174, 33229.85
599.2996, 33249.96
599.7817, 33347.37
600.2638, 33439.40
600.7459, 33507.12
601.2280, 33563.30
601.7101, 33632.42
602.1923, 33722.66
602.6744, 33810.36
603.1565, 33887.63
603.6386, 33956.48
604.1207, 34026.72
604.6028, 34098.66
605.0850, 34171.35
605.5671, 34246.18
606.0492, 34321.04
606.5313, 34383.21
607.0134, 34430.20
607.4955, 34482.34
607.9777, 34573.21
608.4598, 34679.31
608.9419, 34763.78
609.4240, 34806.10
609.9061, 34836.74
610.3882, 34855.96
610.8704, 34876.62
611.3525, 34925.71
611.8346, 35065.36
612.3167, 35180.46
612.7988, 35225.34
613.2809, 35203.72
613.7631, 35191.32
614.2452, 35188.98
614.7273, 35195.49
615.2094, 35213.77
615.6915, 35246.08
616.1736, 35267.23
616.6558, 35273.85
617.1379, 35278.70
617.6200, 35299.10
618.1021, 35330.93
618.5842, 35357.38
619.0663, 35370.00
619.5485, 35381.87
620.0306, 35399.80
620.5127, 35427.35
620.9948, 35474.51
621.4769, 35583.58
621.9590, 35678.60
622.4412, 35714.23
622.9233, 35691.83
623.4054, 35660.77
623.8875, 35602.45
624.3696, 35562.20
624.8517, 35573.81
625.3339, 35675.21
625.8160, 35687.72
626.2981, 35577.84
626.7802, 35432.52
627.2623, 35352.49
627.7444, 35339.75
628.2266, 35314.02
628.7087, 35264.01
629.1908, 35190.73
629.6729, 35081.14
630.1550, 34946.83
630.6371, 34829.68
631.1193, 34758.84
631.6014, 34709.02
632.0835, 34666.73
632.5656, 34629.25
633.0477, 34582.30
633.5298, 34501.28
634.0120, 34422.83
634.4941, 34368.78
634.9762, 34345.80
635.4583, 34327.66
635.9404, 34322.49
636.4225, 34312.40
636.9047, 34277.24
637.3868, 34204.33
637.8689, 34158.89
638.3510, 34154.97
638.8331, 34166.36
639.3152, 34151.88
639.7973, 34113.34
640.2794, 34063.09
640.7615, 33997.79
641.2437, 33932.75
641.7258, 33889.20
642.2079, 33865.30
642.6900, 33850.28
643.1721, 33856.85
643.6542, 33857.00
644.1364, 33820.65
644.6185, 33743.40
645.1006, 33692.36
645.5827, 33713.79
646.0648, 33743.38
646.5469, 33738.29
647.0291, 33669.16
647.5112, 33631.30
647.9933, 33632.77
648.4754, 33651.69
648.9575, 33663.11
649.4396, 33666.55
649.9218, 33659.77
650.4039, 33640.52
650.8860, 33613.60
651.3681, 33590.45
651.8502, 33568.38
652.3323, 33536.47
652.8145, 33473.30
653.2966, 33411.74
653.7787, 33385.78
654.2608, 33391.16
654.7429, 33389.27
655.2250, 33358.33
655.7072, 33322.11
656.1893, 33291.47
656.6714, 33266.07
657.1535, 33254.59
657.6356, 33276.41
658.1177, 33288.36
658.5999, 33242.03
659.0820, 33121.86
659.5641, 33051.58
660.0462, 33051.19
660.5283, 33080.87
661.0104, 33096.03
661.4926, 33095.00
661.9747, 33065.70
662.4568, 32986.31
662.9389, 32902.71
663.4210, 32871.00
663.9031, 32876.63
664.3853, 32877.27
664.8674, 32831.80
665.3495, 32797.31
665.8316, 32807.48
666.3137, 32862.39
666.7958, 32902.86
667.2780, 32912.29
667.7601, 32917.96
668.2422, 32934.67
668.7243, 32966.12
669.2064, 32970.43
669.6885, 32940.50
670.1707, 32901.17
670.6528, 32877.44
671.1349, 32866.61
671.6170, 32858.30
672.0991, 32856.49
672.5812, 32841.80
673.0634, 32775.28
673.5455, 32686.68
674.0276, 32626.54
674.5097, 32642.48
674.9918, 32664.79
675.4739, 32666.85
675.9561, 32654.63
676.4382, 32643.98
676.9203, 32634.44
677.4024, 32629.40
677.8845, 32627.05
678.3666, 32627.50
678.8488, 32640.16
679.3309, 32664.87
679.8130, 32696.72
680.2951, 32740.75
680.7772, 32789.88
681.2593, 32809.43
681.7415, 32796.73
682.2236, 32783.16
682.7057, 32801.95
683.1878, 32833.94
683.6699, 32853.02
684.1520, 32851.44
684.6342, 32848.71
685.1163, 32847.30
685.5984, 32853.58
686.0805, 32874.82
686.5626, 32968.21
687.0447, 33001.07
687.5269, 32926.52
688.0090, 32807.07
688.4911, 32783.80
688.9732, 32879.51
689.4553, 32946.59
689.9374, 32922.24
690.4196, 32850.85
690.9017, 32856.14
691.3838, 32928.06
691.8659, 32998.25
692.3480, 33032.82
692.8301, 33041.47
693.3123, 33023.71
693.7944, 32981.99
694.2765, 32952.59
694.7586, 32968.96
695.2407, 32988.89
695.7228, 32982.21
696.2050, 32930.71
696.6871, 32911.96
697.1692, 32954.61
697.6513, 32997.39
698.1334, 32977.23
698.6155, 32885.50
699.0977, 32828.16
699.5798, 32818.88
700.0619, 32831.89
700.5440, 32836.35
701.0261, 32834.32
701.5082, 32828.93
701.9904, 32806.78
702.4725, 32804.64
702.9546, 32880.96
703.4367, 32996.23
703.9188, 33070.48
704.4009, 33036.86
704.8831, 33000.76
705.3652, 32997.44
705.8473, 33019.11
706.3294, 33031.56
706.8115, 33037.11
707.2936, 33027.54
707.7758, 32990.77
708.2579, 32934.04
708.7400, 32917.22
709.2221, 32942.23
709.7042, 32965.50
710.1863, 32944.01
710.6685, 32903.51
711.1506, 32884.91
711.6327, 32891.56
712.1148, 32913.39
712.5969, 32955.65
713.0790, 33002.91
713.5612, 33042.11
714.0433, 33066.97
714.5254, 33090.10
715.0075, 33111.72
715.4896, 33132.03
715.9717, 33003.45
716.4539, 33199.57
716.9360, 33314.96
717.4181, 33353.95
717.9002, 33087.73
718.3823, 33215.62
718.8644, 33185.58
719.3466, 33149.05
719.8287, 33332.42
720.3108, 33110.59
720.7929, 33290.48
721.2750, 33310.00
721.7571, 33402.92
722.2393, 33336.91
722.7214, 33320.00
723.2035, 33462.05
723.6856, 33516.08
724.1677, 33431.78
724.6498, 33529.36
725.1320, 33301.98
725.6141, 33359.76
726.0962, 33540.57
726.5783, 33464.26
727.0604, 33564.75
727.5425, 33597.90
728.0247, 33325.05
728.5068, 33584.38
728.9889, 33613.55
729.4710, 33406.41
729.9531, 33647.50
730.4352, 33472.94
730.9174, 33446.75
731.3995, 33532.20
731.8816, 33501.26
732.3637, 33653.82
732.8458, 33629.61
733.3279, 33589.59
733.8101, 33618.52
734.2922, 33452.11
734.7743, 33648.06
735.2564, 33596.50
735.7385, 33667.97
736.2206, 33767.33
736.7028, 33653.15
737.1849, 33765.04
737.6670, 33677.19
738.1491, 33689.75
738.6312, 33726.10
739.1133, 33772.15
739.5955, 33801.11
740.0776, 33775.55
740.5597, 33765.19
741.0418, 33792.87
741.5239, 33849.13
742.0060, 33914.41
742.4882, 33996.72
742.9703, 34062.07
743.4524, 34093.51
743.9345, 34098.86
744.4166, 34101.07
744.8987, 34100.18
745.3809, 34111.11
745.8630, 34152.56
746.3451, 34203.69
746.8272, 34241.12
747.3093, 34265.28
747.7914, 34286.48
748.2736, 34330.28
748.7557, 34357.89
749.2378, 34339.73
749.7199, 34267.05
750.2020, 34224.02
750.6841, 34234.97
751.1663, 34239.46
751.6484, 34175.31
752.1305, 34044.83
752.6126, 34000.32
753.0947, 34052.35
753.5768, 34141.52
754.0590, 34228.84
754.5411, 34307.31
755.0232, 34364.29
755.5053, 34396.57
755.9874, 34408.03
756.4695, 34369.88
756.9517, 34326.66
757.4338, 34323.82
757.9159, 34427.90
758.3980, 34482.45
758.8801, 34469.66
759.3622, 34426.05
759.8444, 34394.78
760.3265, 34377.13
760.8086, 34378.86
761.2907, 34403.86
761.7728, 34445.95
762.2549, 34501.93
762.7370, 34568.34
763.2191, 34636.93
763.7012, 34720.19
764.1833, 34785.11
764.6655, 34789.63
765.1476, 34762.98
765.6297, 34770.50
766.1118, 34854.38
766.5939, 34929.28
767.0760, 34972.29
767.5582, 34996.41
768.0403, 35051.03
768.5224, 35138.10
769.0045, 35217.87
769.4866, 35273.66
769.9688, 35310.51
770.4509, 35334.32
770.9330, 35347.43
771.4151, 35359.68
771.8972, 35384.82
772.3793, 35405.02
772.8615, 35402.30
773.3436, 35380.11
773.8257, 35375.30
774.3078, 35401.76
774.7899, 35438.82
775.2720, 35484.33
775.7542, 35537.76
776.2363, 35575.43
776.7184, 35594.58
777.2005, 35619.63
777.6826, 35681.96
778.1647, 35758.01
778.6469, 35782.62
779.1290, 35755.95
779.6111, 35751.21
780.0932, 35838.43
780.5753, 35948.80
781.0574, 36028.95
781.5396, 36067.25
782.0217, 36104.11
782.5038, 36150.24
782.9859, 36187.86
783.4680, 36200.30
783.9501, 36182.27
784.4323, 36190.12
784.9144, 36227.39
785.3965, 36277.96
785.8786, 36328.14
786.3607, 36380.49
786.8428, 36444.81
787.3250, 36525.55
787.8071, 36597.09
788.2892, 36652.52
788.7713, 36686.25
789.2534, 36689.68
789.7355, 36617.46
790.2177, 36596.53
790.6998, 36640.56
791.1819, 36722.53
791.6640, 36836.68
792.1461, 36987.07
792.6282, 37054.18
793.1104, 37011.82
793.5925, 36933.63
794.0746, 36890.89
794.5567, 36881.31
795.0388, 36899.98
795.5209, 36950.35
796.0031, 37020.17
796.4852, 37142.33
796.9673, 37266.84
797.4494, 37326.10
797.9315, 37260.27
798.4136, 37221.65
798.8958, 37223.48
799.3779, 37252.94
799.8600, 37297.35
800.3421, 37355.51
800.8242, 37401.18
801.3063, 37422.78
801.7885, 37440.50
802.2706, 37489.85
802.7527, 37551.43
803.2348, 37589.91
803.7169, 37553.24
804.1990, 37536.52
804.6812, 37585.30
805.1633, 37672.93
805.6454, 37747.79
806.1275, 37814.70
806.6096, 37853.30
807.0917, 37846.73
807.5739, 37827.52
808.0560, 37876.83
808.5381, 37983.84
809.0202, 38072.15
809.5023, 38111.76
809.9844, 38124.42
810.4666, 38104.80
810.9487, 38077.12
811.4308, 38093.65
811.9129, 38222.50
812.3950, 38339.32
812.8771, 38410.64
813.3593, 38449.49
813.8414, 38486.60
814.3235, 38526.54
814.8056, 38543.40
815.2877, 38520.77
815.7698, 38481.68
816.2520, 38477.52
816.7341, 38501.47
817.2162, 38527.19
817.6983, 38523.98
818.1804, 38535.86
818.6625, 38623.51
819.1447, 38751.92
819.6268, 38821.51
820.1089, 38738.44
820.5910, 38685.73
821.0731, 38706.54
821.5552, 38778.90
822.0374, 38839.55
822.5195, 38888.49
823.0016, 38923.71
823.4837, 38937.70
823.9658, 38943.87
824.4479, 38959.51
824.9301, 38984.75
825.4122, 39020.33
825.8943, 39088.20
826.3764, 39143.45
826.8585, 39148.41
827.3406, 39120.55
827.8228, 39141.13
828.3049, 39250.13
828.7870, 39319.98
829.2691, 39304.27
829.7512, 39232.48
830.2333, 39189.43
830.7155, 39172.32
831.1976, 39157.58
831.6797, 39130.01
832.1618, 39103.38
832.6439, 39093.64
833.1260, 39096.62
833.6082, 39098.93
834.0903, 39090.81
834.5724, 39088.03
835.0545, 39091.73
835.5366, 39103.64
836.0187, 39136.87
836.5009, 39198.91
836.9830, 39236.16
837.4651, 39213.16
837.9472, 39171.26
838.4293, 39210.81
838.9114, 39305.64
839.3936, 39363.96
839.8757, 39310.54
840.3578, 39238.14
840.8399, 39186.48
841.3220, 39154.20
841.8041, 39133.77
842.2863, 39132.05
842.7684, 39126.07
843.2505, 39106.49
843.7326, 39080.97
844.2147, 39080.58
844.6968, 39101.30
845.1790, 39100.07
845.6611, 39048.29
846.1432, 38977.69
846.6253, 38907.15
847.1074, 38844.89
847.5895, 38810.62
848.0717, 38840.23
848.5538, 38866.53
849.0359, 38879.43
849.5180, 38876.83
850.0001, 38846.57
850.4822, 38782.09
850.9644, 38734.55
851.4465, 38724.05
851.9286, 38730.27
852.4107, 38719.31
852.8928, 38694.90
853.3749, 38665.98
853.8571, 38625.09
854.3392, 38593.62
854.8213, 38577.62
855.3034, 38579.13
855.7855, 38605.40
856.2676, 38672.77
856.7498, 38726.33
857.2319, 38752.18
857.7140, 38765.55
858.1961, 38799.50
858.6782, 38849.95
859.1603, 38890.49
859.6425, 38915.58
860.1246, 38923.40
860.6067, 38899.76
861.0888, 38860.63
861.5709, 38831.77
862.0530, 38832.83
862.5352, 38826.98
863.0173, 38796.86
863.4994, 38767.96
863.9815, 38782.22
864.4636, 38844.41
864.9457, 38889.37
865.4279, 38906.59
865.9100, 38903.58
866.3921, 38883.01
866.8742, 38851.40
867.3563, 38816.24
867.8384, 38769.90
868.3206, 38745.21
868.8027, 38787.10
869.2848, 38840.62
869.7669, 38840.50
870.2490, 38749.82
870.7311, 38716.89
871.2133, 38758.62
871.6954, 38831.10
872.1775, 38894.11
872.6596, 38944.90
873.1417, 38974.90
873.6238, 38981.50
874.1060, 38972.28
874.5881, 38934.66
875.0702, 38893.44
875.5523, 38870.43
876.0344, 38870.05
876.5165, 38885.43
876.9987, 38919.68
877.4808, 38964.77
877.9629, 39024.82
878.4450, 39095.13
878.9271, 39125.32
879.4092, 39112.22
879.8914, 39100.52
880.3735, 39145.98
880.8556, 39199.80
881.3377, 39199.77
881.8198, 39130.50
882.3019, 39105.72
882.7841, 39181.75
883.2662, 39269.09
883.7483, 39328.96
884.2304, 39361.46
884.7125, 39383.25
885.1946, 39393.59
885.6768, 39404.98
886.1588, 39436.67
886.6409, 39468.85
887.1230, 39467.62
887.6052, 39437.72
888.0873, 39417.78
888.5694, 39425.67
889.0515, 39445.64
889.5336, 39470.97
890.0157, 39502.02
890.4979, 39547.72
890.9800, 39610.90
891.4621, 39665.61
891.9442, 39695.50
892.4263, 39711.62
892.9084, 39734.84
893.3906, 39762.77
893.8727, 39790.04
894.3548, 39816.07
894.8369, 39837.71
895.3190, 39847.96
895.8011, 39852.98
896.2833, 39875.49
896.7654, 39937.94
897.2475, 39950.03
897.7296, 39878.06
898.2117, 39773.00
898.6938, 39731.81
899.1760, 39739.84
899.6581, 39750.39
900.1402, 39755.07
900.6223, 39748.39
901.1044, 39714.58
901.5865, 39672.36
902.0687, 39648.64
902.5508, 39642.99
903.0329, 39658.95
903.5150, 39701.60
903.9971, 39754.49
904.4792, 39795.75
904.9614, 39827.90
905.4435, 39870.30
905.9256, 39930.23
906.4077, 39969.09
906.8898, 39936.52
907.3719, 39880.07
907.8541, 39846.12
908.3362, 39849.49
908.8183, 39855.08
909.3004, 39863.55
909.7825, 39871.70
910.2646, 39873.90
910.7468, 39871.94
911.2289, 39888.34
911.7110, 39923.22
912.1931, 39951.35
912.6752, 39949.08
913.1573, 39934.96
913.6395, 39921.98
914.1216, 39911.43
914.6037, 39908.82
915.0858, 39912.01
915.5679, 39929.93
916.0500, 39977.20
916.5322, 40042.40
917.0143, 40054.45
917.4964, 40018.12
917.9785, 39997.27
918.4606, 40044.57
918.9427, 40108.42
919.4249, 40134.33
919.9070, 40135.39
920.3891, 40148.02
920.8712, 40196.39
921.3533, 40235.52
921.8354, 40248.75
922.3176, 40252.14
922.7997, 40277.72
923.2818, 40324.43
923.7639, 40392.00
924.2460, 40492.24
924.7281, 40579.63
925.2103, 40592.02
925.6924, 40566.00
926.1745, 40554.79
926.6566, 40584.98
927.1387, 40609.70
927.6208, 40624.23
928.1030, 40632.35
928.5851, 40637.36
929.0672, 40640.00
929.5493, 40644.06
930.0314, 40651.57
930.5135, 40648.21
930.9957, 40600.87
931.4778, 40547.24
931.9599, 40533.29
932.4420, 40566.54
932.9241, 40605.18
933.4063, 40640.14
933.8884, 40677.98
934.3705, 40726.38
934.8526, 40782.54
935.3347, 40812.79
935.8168, 40817.05
936.2990, 40816.23
936.7811, 40823.59
937.2632, 40831.45
937.7453, 40837.11
938.2274, 40836.79
938.7095, 40818.15
939.1917, 40721.23
939.6738, 40681.29
940.1559, 40754.04
940.6380, 40882.32
941.1201, 40933.90
941.6022, 40910.11
942.0844, 40859.96
942.5665, 40782.44
943.0486, 40722.13
943.5307, 40745.08
944.0128, 40810.71
944.4949, 40861.86
944.9771, 40888.76
945.4592, 40890.60
945.9413, 40850.89
946.4234, 40808.38
946.9055, 40800.96
947.3876, 40827.35
947.8698, 40855.95
948.3519, 40884.80
948.8340, 40916.02
949.3161, 40959.14
949.7982, 40999.62
950.2803, 41017.54
950.7625, 41008.59
951.2446, 41017.84
951.7267, 41064.09
952.2088, 41107.29
952.6909, 41133.21
953.1730, 41141.79
953.6552, 41122.47
954.1373, 41079.90
954.6194, 41055.54
955.1015, 41091.16
955.5836, 41136.94
956.0657, 41139.34
956.5479, 41122.72
957.0300, 41152.52
957.5121, 41277.63
957.9942, 41383.15
958.4763, 41455.88
958.9584, 41498.70
959.4406, 41500.89
959.9227, 41472.73
960.4048, 41461.75
960.8869, 41476.86
961.3690, 41515.09
961.8511, 41595.21
962.3333, 41684.36
962.8154, 41744.46
963.2975, 41746.95
963.7796, 41811.37
964.2617, 41963.16
964.7438, 42117.56
965.2260, 42199.85
965.7081, 42233.81
966.1902, 42282.64
966.6723, 42349.93
967.1544, 42453.90
967.6365, 42605.57
968.1187, 42797.32
968.6008, 43020.49
969.0829, 43279.97
969.5650, 43586.15
970.0471, 43951.77
970.5292, 44323.83
971.0114, 44681.28
971.4935, 45052.78
971.9756, 45514.87
972.4577, 46034.98
972.9398, 46545.24
973.4219, 47010.82
973.9041, 47492.01
974.3862, 47983.62
974.8683, 48527.13
975.3504, 49157.54
975.8325, 49882.98
976.3146, 50701.64
976.7968, 51622.68
977.2789, 52592.78
977.7610, 53569.50
978.2431, 54570.86
978.7252, 55629.69
979.2073, 56743.64
979.6895, 57902.07
980.1716, 59074.52
980.6537, 60306.31
981.1358, 61716.97
981.6179, 63200.32
982.1000, 64314.13
982.5822, 65056.67
983.0643, 64981.59
983.5464, 63760.23
984.0285, 61810.66
984.5106, 59192.49
984.9927, 56225.00
985.4749, 53503.50
985.9570, 51066.05
986.4391, 49070.02
986.9212, 47559.41
987.4033, 46439.73
987.8854, 45668.30
988.3676, 45190.03
988.8497, 44693.72
989.3318, 44134.44
989.8139, 43675.29
990.2960, 43514.20
990.7781, 43445.66
991.2603, 43300.45
991.7424, 43055.64
992.2245, 42887.13
992.7066, 42808.06
993.1887, 42767.93
993.6708, 42751.75
994.1530, 42751.96
994.6351, 42759.97
995.1172, 42769.53
995.5993, 42759.96
996.0814, 42711.51
996.5635, 42653.46
997.0457, 42567.52
997.5278, 42490.88
998.0099, 42488.33
998.4920, 42573.11
998.9741, 42645.68
999.4562, 42695.58
999.9384, 42723.56
1000.420, 42702.92
1000.903, 42673.34
1001.385, 42699.51
1001.867, 42799.35
1002.349, 42872.62
1002.831, 42892.93
1003.313, 42883.66
1003.795, 42843.71
1004.277, 42781.35
1004.760, 42755.02
1005.242, 42762.31
1005.724, 42773.96
1006.206, 42782.50
1006.688, 42782.62
1007.170, 42757.13
1007.652, 42722.68
1008.134, 42718.24
1008.616, 42768.41
1009.099, 42799.52
1009.581, 42799.75
1010.063, 42790.01
1010.545, 42797.97
1011.027, 42816.61
1011.509, 42826.03
1011.991, 42822.29
1012.473, 42821.02
1012.955, 42839.97
1013.438, 42855.07
1013.920, 42854.98
1014.402, 42839.60
1014.884, 42787.37
1015.366, 42690.74
1015.848, 42635.44
1016.330, 42682.36
1016.812, 42774.63
1017.294, 42853.66
1017.777, 42916.12
1018.259, 42953.14
1018.741, 42956.62
1019.223, 42939.50
1019.705, 42889.32
1020.187, 42838.16
1020.669, 42828.49
1021.151, 42855.01
1021.634, 42880.03
1022.116, 42898.82
1022.598, 42923.39
1023.080, 42959.28
1023.562, 43005.64
1024.044, 43071.68
1024.526, 43156.63
1025.008, 43200.14
1025.490, 43193.06
1025.973, 43176.61
1026.455, 43163.10
1026.937, 43154.68
1027.419, 43158.72
1027.901, 43171.65
1028.383, 43184.49
1028.865, 43206.03
1029.347, 43211.64
1029.830, 43175.00
1030.312, 43139.03
1030.794, 43152.41
1031.276, 43217.66
1031.758, 43253.24
1032.240, 43254.26
1032.722, 43244.40
1033.204, 43216.96
1033.687, 43206.00
1034.169, 43252.66
1034.651, 43352.89
1035.133, 43433.75
1035.615, 43486.16
1036.097, 43524.84
1036.579, 43551.29
1037.061, 43567.86
1037.543, 43583.32
1038.026, 43592.86
1038.508, 43580.06
1038.990, 43521.98
1039.472, 43486.08
1039.954, 43529.57
1040.436, 43585.79
1040.918, 43600.50
1041.400, 43569.63
1041.882, 43551.50
1042.365, 43547.29
1042.847, 43554.34
1043.329, 43589.96
1043.811, 43622.25
1044.293, 43596.50
1044.775, 43535.05
1045.257, 43533.32
1045.739, 43670.38
1046.222, 43740.21
1046.704, 43680.73
1047.186, 43584.85
1047.668, 43613.61
1048.150, 43725.50
1048.632, 43798.14
1049.114, 43804.00
1049.596, 43802.85
1050.078, 43789.21
1050.561, 43815.25
1051.043, 43932.13
1051.525, 44134.16
1052.007, 44245.15
1052.489, 44261.55
1052.971, 44255.24
1053.453, 44238.46
1053.935, 44241.07
1054.417, 44320.42
1054.900, 44436.43
1055.382, 44514.10
1055.864, 44509.33
1056.346, 44507.50
1056.828, 44516.89
1057.310, 44520.29
1057.792, 44476.87
1058.274, 44416.77
1058.757, 44440.78
1059.239, 44553.19
1059.721, 44651.01
1060.203, 44689.73
1060.685, 44691.24
1061.167, 44647.36
1061.649, 44579.32
1062.131, 44574.95
1062.614, 44634.18
1063.096, 44667.76
1063.578, 44642.74
1064.060, 44602.31
1064.542, 44566.85
1065.024, 44553.91
1065.506, 44593.29
1065.988, 44727.55
1066.470, 44798.89
1066.953, 44784.58
1067.435, 44769.28
1067.917, 44828.05
1068.399, 44921.66
1068.881, 44932.75
1069.363, 44884.19
1069.845, 44864.85
1070.327, 44968.16
1070.809, 45035.14
1071.292, 45002.82
1071.774, 44926.69
1072.256, 44879.82
1072.738, 44861.44
1073.220, 44866.92
1073.702, 44897.48
1074.184, 44925.41
1074.666, 44938.92
1075.148, 44932.82
1075.631, 44892.42
1076.113, 44820.04
1076.595, 44778.63
1077.077, 44773.98
1077.559, 44784.22
1078.041, 44811.08
1078.523, 44835.19
1079.005, 44814.07
1079.488, 44771.79
1079.970, 44751.36
1080.452, 44769.35
1080.934, 44798.65
1081.416, 44833.05
1081.898, 44877.26
1082.380, 44939.11
1082.862, 45013.25
1083.344, 45075.39
1083.827, 45123.26
1084.309, 45152.80
1084.791, 45129.26
1085.273, 45119.74
1085.755, 45174.36
1086.237, 45257.89
1086.719, 45308.49
1087.201, 45322.96
1087.683, 45347.80
1088.166, 45392.42
1088.648, 45425.22
1089.130, 45395.48
1089.612, 45353.47
1090.094, 45355.33
1090.576, 45407.62
1091.058, 45445.14
1091.540, 45458.30
1092.023, 45472.53
1092.505, 45494.86
1092.987, 45523.35
1093.469, 45549.73
1093.951, 45579.60
1094.433, 45634.18
1094.915, 45751.45
1095.397, 45805.81
1095.880, 45712.52
1096.362, 45610.86
1096.844, 45595.59
1097.326, 45656.08
1097.808, 45704.35
1098.290, 45740.71
1098.772, 45763.66
1099.254, 45757.77
1099.736, 45755.86
1100.219, 45792.10
1100.701, 45837.63
1101.183, 45831.83
1101.665, 45758.34
1102.147, 45762.80
1102.629, 45867.58
1103.111, 45965.13
1103.593, 45943.99
1104.075, 45873.13
1104.558, 45803.23
1105.040, 45743.32
1105.522, 45740.68
1106.004, 45828.92
1106.486, 45888.80
1106.968, 45884.39
1107.450, 45852.32
1107.932, 45856.19
1108.415, 45876.22
1108.897, 45869.23
1109.379, 45816.07
1109.861, 45783.98
1110.343, 45803.05
1110.825, 45832.25
1111.307, 45863.46
1111.789, 45887.02
1112.271, 45839.09
1112.754, 45735.96
1113.236, 45661.30
1113.718, 45643.17
1114.200, 45670.48
1114.682, 45749.69
1115.164, 45864.91
1115.646, 46022.17
1116.128, 46235.94
1116.610, 46284.54
1117.093, 46158.51
1117.575, 46013.26
1118.057, 45949.89
1118.539, 45926.01
1119.021, 45898.64
1119.503, 45884.38
1119.985, 45947.63
1120.467, 46129.31
1120.950, 46246.91
1121.432, 46269.01
1121.914, 46247.62
1122.396, 46221.48
1122.878, 46200.58
1123.360, 46194.82
1123.842, 46205.23
1124.324, 46244.87
1124.807, 46321.14
1125.289, 46408.90
1125.771, 46504.33
1126.253, 46598.36
1126.735, 46677.68
1127.217, 46739.27
1127.699, 46771.70
1128.181, 46754.15
1128.663, 46756.90
1129.146, 46817.44
1129.628, 46884.11
1130.110, 46932.66
1130.592, 46962.65
1131.074, 46969.94
1131.556, 46956.30
1132.038, 46929.86
1132.520, 46885.63
1133.002, 46843.59
1133.485, 46808.56
1133.967, 46786.93
1134.449, 46790.43
1134.931, 46823.21
1135.413, 46843.09
1135.895, 46849.46
1136.377, 46843.32
1136.859, 46825.57
1137.342, 46794.82
1137.824, 46721.55
1138.306, 46635.08
1138.788, 46632.30
1139.270, 46735.13
1139.752, 46806.66
1140.234, 46823.18
1140.716, 46818.68
1141.198, 46826.39
1141.681, 46833.98
1142.163, 46834.20
1142.645, 46825.10
1143.127, 46776.68
1143.609, 46662.29
1144.091, 46587.40
1144.573, 46590.52
1145.055, 46633.64
1145.537, 46682.36
1146.020, 46719.48
1146.502, 46695.13
1146.984, 46568.75
1147.466, 46539.35
1147.948, 46701.48
1148.430, 46835.94
1148.912, 46817.94
1149.394, 46711.52
1149.877, 46689.25
1150.359, 46732.95
1150.841, 46795.43
1151.323, 46877.24
1151.805, 46937.98
1152.287, 46950.23
1152.769, 46954.91
1153.251, 46990.33
1153.734, 47048.89
1154.216, 47049.88
1154.698, 47005.52
1155.180, 46989.49
1155.662, 47105.95
1156.144, 47186.30
1156.626, 47114.88
1157.108, 46997.18
1157.590, 46956.20
1158.073, 46990.45
1158.555, 47015.74
1159.037, 47026.34
1159.519, 47035.61
1160.001, 47045.42
1160.483, 47063.43
1160.965, 47108.54
1161.447, 47161.86
1161.929, 47181.78
1162.412, 47168.30
1162.894, 47118.78
1163.376, 47029.61
1163.858, 46934.41
1164.340, 46830.63
1164.822, 46763.00
1165.304, 46798.70
1165.786, 46925.22
1166.269, 46966.39
1166.751, 46902.95
1167.233, 46888.26
1167.715, 46980.36
1168.197, 47091.55
1168.679, 47114.52
1169.161, 47097.28
1169.643, 47084.80
1170.125, 47076.04
1170.608, 47139.17
1171.090, 47298.95
1171.572, 47420.50
1172.054, 47420.13
1172.536, 47381.66
1173.018, 47439.58
1173.500, 47540.96
1173.982, 47599.66
1174.464, 47573.34
1174.947, 47556.23
1175.429, 47552.78
1175.911, 47552.98
1176.393, 47539.77
1176.875, 47533.94
1177.357, 47595.12
1177.839, 47694.02
1178.321, 47760.41
1178.804, 47744.14
1179.286, 47733.45
1179.768, 47730.75
1180.250, 47739.05
1180.732, 47763.05
1181.214, 47798.53
1181.696, 47847.09
1182.178, 47900.88
1182.661, 47929.88
1183.143, 47876.27
1183.625, 47867.47
1184.107, 47945.81
1184.589, 48030.64
1185.071, 48006.62
1185.553, 47915.41
1186.035, 47869.95
1186.517, 47875.50
1187.000, 47884.61
1187.482, 47877.77
1187.964, 47876.48
1188.446, 47898.82
1188.928, 47915.02
1189.410, 47847.27
1189.892, 47732.68
1190.374, 47698.37
1190.856, 47762.84
1191.339, 47830.76
1191.821, 47866.95
1192.303, 47887.77
1192.785, 47895.94
1193.267, 47895.27
1193.749, 47880.86
1194.231, 47864.86
1194.713, 47906.48
1195.195, 48033.38
1195.678, 48120.45
1196.160, 48046.66
1196.642, 47987.14
1197.124, 48044.32
1197.606, 48171.95
1198.088, 48190.03
1198.570, 48124.13
1199.052, 48080.16
1199.535, 48095.67
1200.017, 48124.85
1200.499, 48156.84
1200.981, 48186.19
1201.463, 48214.42
1201.945, 48237.14
1202.427, 48206.97
1202.909, 48139.65
1203.391, 48117.07
1203.874, 48189.64
1204.356, 48280.72
1204.838, 48392.11
1205.320, 48473.84
1205.802, 48474.46
1206.284, 48404.16
1206.766, 48392.36
1207.248, 48432.54
1207.730, 48481.31
1208.213, 48514.19
1208.695, 48554.34
1209.177, 48633.23
1209.659, 48706.80
1210.141, 48724.11
1210.623, 48689.97
1211.105, 48713.83
1211.587, 48788.08
1212.070, 48833.40
1212.552, 48762.14
1213.034, 48699.62
1213.516, 48722.11
1213.998, 48765.13
1214.480, 48744.35
1214.962, 48669.04
1215.444, 48667.00
1215.927, 48738.96
1216.409, 48807.22
1216.891, 48829.16
1217.373, 48832.52
1217.855, 48819.43
1218.337, 48803.88
1218.819, 48807.39
1219.301, 48828.07
1219.783, 48849.04
1220.266, 48868.64
1220.748, 48878.38
1221.230, 48857.76
1221.712, 48842.13
1222.194, 48835.30
1222.676, 48849.81
1223.158, 48930.17
1223.640, 49060.21
1224.122, 49129.96
1224.605, 49124.13
1225.087, 49120.11
1225.569, 49159.56
1226.051, 49219.18
1226.533, 49309.86
1227.015, 49395.44
1227.497, 49366.84
1227.979, 49256.07
1228.462, 49231.80
1228.944, 49329.39
1229.426, 49426.58
1229.908, 49477.32
1230.390, 49487.52
1230.872, 49441.10
1231.354, 49376.30
1231.836, 49411.30
1232.318, 49516.64
1232.801, 49562.90
1233.283, 49511.49
1233.765, 49487.45
1234.247, 49575.71
1234.729, 49674.48
1235.211, 49743.21
1235.693, 49788.64
1236.175, 49819.45
1236.657, 49842.43
1237.140, 49890.77
1237.622, 49987.13
1238.104, 50038.78
1238.586, 49999.86
1239.068, 49921.29
1239.550, 49797.14
1240.032, 49672.47
1240.514, 49698.86
1240.997, 49826.63
1241.479, 49923.51
1241.961, 49953.59
1242.443, 49951.11
1242.925, 49883.36
1243.407, 49854.13
1243.889, 49930.00
1244.371, 50062.41
1244.854, 50127.00
1245.336, 50146.62
1245.818, 50176.29
1246.300, 50241.71
1246.782, 50277.02
1247.264, 50261.16
1247.746, 50246.64
1248.228, 50272.61
1248.710, 50309.26
1249.193, 50276.93
1249.675, 50211.66
1250.157, 50192.12
1250.639, 50294.14
1251.121, 50298.52
1251.603, 50158.89
1252.085, 50039.78
1252.567, 50051.13
1253.049, 50131.48
1253.532, 50204.59
1254.014, 50265.40
1254.496, 50301.61
1254.978, 50281.44
1255.460, 50312.64
1255.942, 50407.84
1256.424, 50482.68
1256.906, 50459.40
1257.389, 50405.96
1257.871, 50415.48
1258.353, 50454.89
1258.835, 50463.91
1259.317, 50429.57
1259.799, 50388.04
1260.281, 50337.46
1260.763, 50309.70
1261.245, 50365.11
1261.728, 50418.33
1262.210, 50364.55
1262.692, 50267.64
1263.174, 50232.81
1263.656, 50273.90
1264.138, 50326.93
1264.620, 50392.82
1265.102, 50440.44
1265.584, 50429.74
1266.067, 50414.12
1266.549, 50403.12
1267.031, 50425.80
1267.513, 50528.09
1267.995, 50714.95
1268.477, 50849.28
1268.959, 50930.48
1269.441, 50996.25
1269.924, 51071.55
1270.406, 51130.15
1270.888, 51147.63
1271.370, 51148.46
1271.852, 51161.36
1272.334, 51181.73
1272.816, 51148.77
1273.298, 51074.23
1273.781, 51038.11
1274.263, 51134.44
1274.745, 51209.34
1275.227, 51210.71
1275.709, 51194.70
1276.191, 51234.32
1276.673, 51301.94
1277.155, 51264.51
1277.637, 51150.04
1278.120, 51091.76
1278.602, 51203.52
1279.084, 51288.09
1279.566, 51321.99
1280.048, 51322.12
1280.530, 51261.12
1281.012, 51198.23
1281.494, 51307.05
1281.976, 51521.35
1282.459, 51610.77
1282.941, 51398.54
1283.423, 51297.08
1283.905, 51344.09
1284.387, 51437.58
1284.869, 51496.96
1285.351, 51542.23
1285.833, 51608.95
1286.316, 51682.01
1286.798, 51714.13
1287.280, 51693.02
1287.762, 51671.48
1288.244, 51651.84
1288.726, 51643.97
1289.208, 51643.14
1289.690, 51671.13
1290.172, 51801.20
1290.655, 51948.99
1291.137, 51929.06
1291.619, 51727.31
##END=



