##NAMES=Braitschite-(Ce)
##RRUFFID=R060008
##IDEAL CHEMISTRY=Ca_6.15_Na_0.85_Ce_2_[B_6_O_7_(OH)_3_(O,OH)_3_]_4_&#183;H_2_O
##LOCALITY=Texas Gulf Sulfur Potash mine, Cisco, Utah, USA
##OWNER=RRUFF
##SOURCE=University of Arizona Mineral Museum
##DESCRIPTION=Pink blebs embedded in anhydrite
##STATUS=The identification of this mineral has been confirmed by X-ray diffraction.
##URL=rruff.info/R060008
89.15009, 13636.00
89.63220, 13968.67
90.11432, 14316.19
90.59644, 14648.40
91.07855, 14969.70
91.56067, 15276.92
92.04279, 15568.38
92.52490, 15843.27
93.00702, 16104.82
93.48914, 16363.23
93.97125, 16639.06
94.45337, 16842.23
94.93549, 16789.04
95.41760, 16594.71
95.89972, 16429.10
96.38184, 16315.64
96.86395, 16242.89
97.34607, 16172.67
97.82819, 16107.13
98.31030, 16039.50
98.79242, 15959.31
99.27454, 15865.93
99.75665, 15782.28
100.2388, 15725.58
100.7209, 15687.05
101.2030, 15654.82
101.6851, 15621.33
102.1672, 15591.53
102.6494, 15578.79
103.1315, 15590.51
103.6136, 15604.40
104.0957, 15606.24
104.5778, 15599.24
105.0599, 15592.02
105.5421, 15586.39
106.0242, 15579.95
106.5063, 15592.45
106.9884, 15654.18
107.4705, 15711.40
107.9526, 15738.86
108.4348, 15733.78
108.9169, 15711.19
109.3990, 15690.35
109.8811, 15654.50
110.3632, 15651.86
110.8453, 15705.75
111.3275, 15778.13
111.8096, 15833.90
112.2917, 15857.29
112.7738, 15858.72
113.2559, 15875.00
113.7380, 15912.53
114.2202, 15955.67
114.7023, 16013.37
115.1844, 16075.56
115.6665, 16118.24
116.1486, 16119.81
116.6307, 16086.17
117.1129, 16076.04
117.5950, 16112.56
118.0771, 16154.40
118.5592, 16163.13
119.0413, 16134.61
119.5234, 16110.73
120.0056, 16147.84
120.4877, 16222.89
120.9698, 16266.59
121.4519, 16219.91
121.9340, 16128.26
122.4161, 16106.75
122.8982, 16205.65
123.3804, 16317.01
123.8625, 16363.03
124.3446, 16352.26
124.8267, 16326.39
125.3088, 16307.35
125.7909, 16293.71
126.2731, 16306.89
126.7552, 16391.10
127.2373, 16476.06
127.7194, 16524.67
128.2015, 16531.51
128.6837, 16519.55
129.1658, 16526.81
129.6479, 16580.32
130.1300, 16597.09
130.6121, 16541.60
131.0942, 16467.53
131.5764, 16421.14
132.0585, 16423.07
132.5406, 16459.73
133.0227, 16483.73
133.5048, 16484.09
133.9869, 16482.69
134.4691, 16479.98
134.9512, 16477.32
135.4333, 16475.51
135.9154, 16474.17
136.3975, 16474.22
136.8796, 16488.27
137.3618, 16539.20
137.8439, 16581.16
138.3260, 16582.60
138.8081, 16547.84
139.2902, 16515.01
139.7723, 16520.55
140.2545, 16564.20
140.7366, 16587.63
141.2187, 16572.20
141.7008, 16542.15
142.1829, 16520.72
142.6650, 16509.74
143.1472, 16511.94
143.6293, 16544.61
144.1114, 16599.91
144.5935, 16636.33
145.0756, 16617.04
145.5577, 16561.77
146.0399, 16539.67
146.5220, 16582.08
147.0041, 16637.46
147.4862, 16664.99
147.9683, 16665.01
148.4504, 16655.06
148.9326, 16646.69
149.4147, 16639.46
149.8968, 16637.48
150.3789, 16635.61
150.8610, 16643.67
151.3431, 16672.67
151.8252, 16724.39
152.3074, 16784.38
152.7895, 16831.13
153.2716, 16863.19
153.7537, 16883.56
154.2358, 16892.40
154.7179, 16892.87
155.2001, 16889.04
155.6822, 16882.71
156.1643, 16870.47
156.6464, 16841.46
157.1285, 16767.63
157.6106, 16707.94
158.0928, 16672.68
158.5749, 16654.06
159.0570, 16641.84
159.5391, 16630.24
160.0212, 16619.29
160.5033, 16609.93
160.9855, 16611.98
161.4676, 16605.74
161.9497, 16574.93
162.4318, 16528.41
162.9139, 16491.55
163.3960, 16485.52
163.8782, 16511.93
164.3603, 16527.99
164.8424, 16540.39
165.3245, 16539.08
165.8066, 16508.75
166.2887, 16450.16
166.7709, 16391.73
167.2530, 16363.53
167.7351, 16365.04
168.2172, 16355.45
168.6993, 16318.91
169.1814, 16273.60
169.6636, 16246.69
170.1457, 16247.22
170.6278, 16245.54
171.1099, 16198.35
171.5920, 16115.01
172.0741, 16046.75
172.5563, 16024.52
173.0384, 16033.54
173.5205, 16029.97
174.0026, 15998.94
174.4847, 15965.09
174.9668, 15951.52
175.4490, 15956.75
175.9311, 15963.29
176.4132, 15964.01
176.8953, 15958.56
177.3774, 15934.53
177.8595, 15860.83
178.3417, 15790.75
178.8238, 15761.56
179.3059, 15775.96
179.7880, 15805.98
180.2701, 15826.29
180.7522, 15839.72
181.2344, 15830.55
181.7165, 15773.87
182.1986, 15708.94
182.6807, 15658.67
183.1628, 15629.56
183.6449, 15613.41
184.1271, 15596.19
184.6092, 15573.16
185.0913, 15559.40
185.5734, 15561.05
186.0555, 15568.45
186.5376, 15571.82
187.0198, 15567.26
187.5019, 15560.67
187.9840, 15568.55
188.4661, 15620.11
188.9482, 15648.56
189.4303, 15629.44
189.9125, 15591.15
190.3946, 15569.88
190.8767, 15584.99
191.3588, 15625.35
191.8409, 15638.52
192.3230, 15591.88
192.8052, 15554.25
193.2873, 15536.07
193.7694, 15535.24
194.2515, 15548.48
194.7336, 15575.41
195.2157, 15614.07
195.6979, 15646.41
196.1800, 15686.01
196.6621, 15707.79
197.1442, 15688.60
197.6263, 15640.59
198.1084, 15601.03
198.5906, 15597.50
199.0727, 15627.13
199.5548, 15641.38
200.0369, 15631.23
200.5190, 15615.14
201.0011, 15599.68
201.4833, 15586.10
201.9654, 15579.38
202.4475, 15583.58
202.9296, 15599.33
203.4117, 15620.43
203.8938, 15665.15
204.3760, 15703.89
204.8581, 15701.68
205.3402, 15654.74
205.8223, 15606.62
206.3044, 15592.27
206.7865, 15605.48
207.2687, 15625.55
207.7508, 15656.83
208.2329, 15689.74
208.7150, 15708.51
209.1971, 15708.54
209.6792, 15708.70
210.1614, 15728.82
210.6435, 15761.07
211.1256, 15787.56
211.6077, 15795.50
212.0898, 15793.83
212.5719, 15801.03
213.0541, 15817.16
213.5362, 15844.59
214.0183, 15892.91
214.5004, 15953.71
214.9825, 16005.78
215.4646, 16032.76
215.9468, 16040.42
216.4289, 16053.98
216.9110, 16084.47
217.3931, 16105.41
217.8752, 16094.65
218.3573, 16062.22
218.8395, 16036.84
219.3216, 16034.25
219.8037, 16054.32
220.2858, 16098.73
220.7679, 16201.53
221.2500, 16292.38
221.7322, 16326.12
222.2143, 16317.33
222.6964, 16314.03
223.1785, 16367.13
223.6606, 16480.87
224.1427, 16554.66
224.6249, 16547.38
225.1070, 16532.97
225.5891, 16536.13
226.0712, 16557.13
226.5533, 16586.59
227.0354, 16620.28
227.5176, 16661.18
227.9997, 16683.55
228.4818, 16670.25
228.9639, 16651.84
229.4460, 16640.03
229.9281, 16634.64
230.4103, 16628.41
230.8924, 16611.52
231.3745, 16578.02
231.8566, 16560.96
232.3387, 16574.73
232.8208, 16591.43
233.3030, 16597.17
233.7851, 16592.29
234.2672, 16586.62
234.7493, 16591.87
235.2314, 16613.03
235.7135, 16627.26
236.1957, 16630.76
236.6778, 16632.02
237.1599, 16638.21
237.6420, 16648.29
238.1241, 16653.62
238.6062, 16642.74
239.0884, 16607.37
239.5705, 16583.20
240.0526, 16564.93
240.5347, 16559.38
241.0168, 16581.31
241.4989, 16626.49
241.9811, 16667.75
242.4632, 16670.13
242.9453, 16609.03
243.4274, 16586.95
243.9095, 16634.92
244.3916, 16692.69
244.8738, 16722.11
245.3559, 16718.43
245.8380, 16702.36
246.3201, 16698.78
246.8022, 16717.00
247.2843, 16715.73
247.7665, 16674.37
248.2486, 16629.85
248.7307, 16610.29
249.2128, 16618.28
249.6949, 16635.63
250.1770, 16640.57
250.6592, 16624.79
251.1413, 16628.39
251.6234, 16671.17
252.1055, 16718.76
252.5876, 16744.93
253.0697, 16746.57
253.5519, 16738.40
254.0340, 16735.35
254.5161, 16738.25
254.9982, 16745.75
255.4803, 16769.22
255.9624, 16789.73
256.4445, 16780.52
256.9267, 16741.56
257.4088, 16714.69
257.8909, 16750.73
258.3730, 16870.70
258.8551, 16944.02
259.3372, 16941.38
259.8194, 16910.86
260.3015, 16886.14
260.7836, 16872.20
261.2657, 16863.88
261.7478, 16855.07
262.2299, 16845.21
262.7121, 16848.62
263.1942, 16881.30
263.6763, 16917.05
264.1584, 16934.02
264.6405, 16930.37
265.1227, 16918.63
265.6048, 16911.06
266.0869, 16907.69
266.5690, 16891.67
267.0511, 16842.12
267.5332, 16793.43
268.0154, 16776.29
268.4975, 16792.16
268.9796, 16820.68
269.4617, 16852.62
269.9438, 16885.56
270.4259, 16889.22
270.9081, 16838.54
271.3902, 16775.19
271.8723, 16730.29
272.3544, 16705.00
272.8365, 16687.78
273.3186, 16671.67
273.8008, 16656.51
274.2829, 16640.50
274.7650, 16616.52
275.2471, 16597.02
275.7292, 16598.79
276.2113, 16619.74
276.6935, 16631.00
277.1756, 16607.75
277.6577, 16555.97
278.1398, 16523.23
278.6219, 16512.70
279.1040, 16518.52
279.5862, 16547.72
280.0683, 16596.29
280.5504, 16633.65
281.0325, 16641.04
281.5146, 16620.26
281.9967, 16591.42
282.4789, 16534.62
282.9610, 16487.55
283.4431, 16482.38
283.9252, 16512.25
284.4073, 16537.62
284.8894, 16535.05
285.3716, 16514.32
285.8537, 16507.64
286.3358, 16522.06
286.8179, 16540.84
287.3000, 16551.49
287.7821, 16557.59
288.2643, 16575.25
288.7464, 16617.51
289.2285, 16671.49
289.7106, 16706.04
290.1927, 16719.12
290.6748, 16719.50
291.1570, 16706.44
291.6391, 16683.13
292.1212, 16658.99
292.6033, 16637.32
293.0854, 16617.37
293.5675, 16597.68
294.0497, 16578.28
294.5318, 16558.80
295.0139, 16541.56
295.4960, 16524.14
295.9781, 16499.43
296.4602, 16462.96
296.9424, 16422.82
297.4245, 16393.84
297.9066, 16376.41
298.3887, 16362.31
298.8708, 16348.18
299.3529, 16335.79
299.8351, 16333.44
300.3172, 16347.56
300.7993, 16356.38
301.2814, 16316.77
301.7635, 16222.28
302.2456, 16153.42
302.7278, 16140.81
303.2099, 16159.99
303.6920, 16184.37
304.1741, 16210.37
304.6562, 16227.37
305.1383, 16216.03
305.6205, 16173.92
306.1026, 16150.16
306.5847, 16168.53
307.0668, 16199.02
307.5489, 16208.92
308.0310, 16194.15
308.5132, 16175.42
308.9953, 16174.31
309.4774, 16191.45
309.9595, 16193.05
310.4416, 16158.24
310.9237, 16121.36
311.4059, 16107.50
311.8880, 16117.95
312.3701, 16146.32
312.8522, 16196.66
313.3343, 16264.55
313.8164, 16297.61
314.2986, 16269.68
314.7807, 16231.77
315.2628, 16209.90
315.7449, 16203.13
316.2270, 16201.89
316.7091, 16200.48
317.1913, 16199.97
317.6734, 16205.93
318.1555, 16219.04
318.6376, 16236.57
319.1197, 16259.61
319.6018, 16286.41
320.0840, 16314.18
320.5661, 16342.29
321.0482, 16368.89
321.5303, 16386.68
322.0124, 16395.15
322.4945, 16397.56
322.9767, 16391.29
323.4588, 16380.19
323.9409, 16368.38
324.4230, 16357.00
324.9051, 16349.04
325.3872, 16351.10
325.8694, 16369.91
326.3515, 16387.00
326.8336, 16401.09
327.3157, 16412.76
327.7978, 16421.30
328.2799, 16426.79
328.7621, 16433.21
329.2442, 16448.09
329.7263, 16483.53
330.2084, 16493.68
330.6905, 16451.10
331.1726, 16404.05
331.6548, 16390.91
332.1369, 16413.54
332.6190, 16444.13
333.1011, 16452.86
333.5832, 16432.63
334.0653, 16431.23
334.5475, 16458.91
335.0296, 16492.12
335.5117, 16531.68
335.9938, 16568.82
336.4759, 16581.21
336.9580, 16546.87
337.4402, 16467.04
337.9223, 16422.26
338.4044, 16439.11
338.8865, 16460.81
339.3686, 16477.34
339.8507, 16488.17
340.3329, 16495.21
340.8150, 16499.81
341.2971, 16500.86
341.7792, 16492.67
342.2613, 16449.35
342.7434, 16430.71
343.2256, 16465.85
343.7077, 16518.89
344.1898, 16548.73
344.6719, 16539.46
345.1540, 16510.50
345.6361, 16499.92
346.1183, 16511.16
346.6004, 16536.43
347.0825, 16593.66
347.5646, 16649.49
348.0467, 16681.90
348.5288, 16685.54
349.0110, 16667.60
349.4931, 16628.41
349.9752, 16554.31
350.4573, 16513.15
350.9394, 16532.08
351.4215, 16563.05
351.9037, 16591.24
352.3858, 16612.96
352.8679, 16625.56
353.3500, 16621.77
353.8321, 16602.46
354.3142, 16599.03
354.7964, 16629.29
355.2785, 16654.10
355.7606, 16653.17
356.2427, 16636.14
356.7248, 16623.21
357.2069, 16628.86
357.6891, 16644.49
358.1712, 16642.67
358.6533, 16611.78
359.1354, 16589.73
359.6175, 16604.47
360.0996, 16631.06
360.5818, 16640.64
361.0639, 16621.99
361.5460, 16588.43
362.0281, 16554.30
362.5102, 16518.66
362.9923, 16490.02
363.4745, 16476.48
363.9566, 16467.90
364.4387, 16458.92
364.9208, 16450.91
365.4029, 16428.35
365.8850, 16363.09
366.3672, 16266.72
366.8493, 16205.67
367.3314, 16211.13
367.8135, 16231.52
368.2956, 16209.35
368.7777, 16148.29
369.2599, 16092.42
369.7420, 16062.70
370.2241, 16049.04
370.7062, 16041.27
371.1883, 16042.05
371.6704, 16025.92
372.1526, 15954.93
372.6347, 15841.51
373.1168, 15759.01
373.5989, 15736.32
374.0810, 15732.82
374.5631, 15720.36
375.0453, 15697.81
375.5274, 15665.39
376.0095, 15619.00
376.4916, 15564.00
376.9737, 15523.09
377.4558, 15504.08
377.9380, 15487.98
378.4201, 15474.75
378.9022, 15458.92
379.3843, 15425.28
379.8664, 15365.49
380.3485, 15297.27
380.8307, 15260.44
381.3128, 15286.36
381.7949, 15284.96
382.2770, 15226.26
382.7591, 15151.07
383.2412, 15099.23
383.7234, 15077.65
384.2055, 15067.04
384.6876, 15044.54
385.1697, 15004.67
385.6518, 14976.82
386.1339, 14973.91
386.6161, 14968.94
387.0982, 14948.96
387.5803, 14915.26
388.0624, 14872.40
388.5445, 14820.03
389.0266, 14761.87
389.5088, 14739.49
389.9909, 14804.84
390.4730, 14847.55
390.9551, 14839.97
391.4372, 14802.33
391.9193, 14754.64
392.4015, 14704.73
392.8836, 14663.44
393.3657, 14657.53
393.8478, 14706.55
394.3299, 14742.92
394.8120, 14748.57
395.2942, 14745.45
395.7763, 14750.67
396.2584, 14765.71
396.7405, 14775.25
397.2226, 14760.60
397.7047, 14721.61
398.1869, 14686.71
398.6690, 14656.70
399.1511, 14632.85
399.6332, 14610.25
400.1153, 14593.00
400.5974, 14593.28
401.0796, 14636.88
401.5617, 14696.90
402.0438, 14708.33
402.5259, 14661.00
403.0080, 14605.22
403.4901, 14555.18
403.9723, 14517.86
404.4544, 14509.38
404.9365, 14548.92
405.4186, 14590.62
405.9007, 14593.60
406.3828, 14563.71
406.8650, 14531.87
407.3471, 14507.34
407.8292, 14487.94
408.3113, 14469.71
408.7934, 14452.13
409.2755, 14437.32
409.7577, 14436.60
410.2398, 14434.91
410.7219, 14403.59
411.2040, 14337.58
411.6861, 14274.31
412.1682, 14257.98
412.6504, 14298.03
413.1325, 14293.21
413.6146, 14207.52
414.0967, 14111.99
414.5788, 14039.50
415.0609, 13990.34
415.5431, 13956.69
416.0252, 13934.90
416.5073, 13923.15
416.9894, 13912.27
417.4715, 13911.09
417.9536, 13900.05
418.4358, 13860.82
418.9179, 13818.60
419.4000, 13806.18
419.8821, 13831.61
420.3642, 13867.62
420.8463, 13870.84
421.3285, 13826.40
421.8106, 13789.75
422.2927, 13760.93
422.7748, 13739.38
423.2569, 13728.08
423.7390, 13724.61
424.2212, 13722.10
424.7033, 13715.59
425.1854, 13705.49
425.6675, 13693.83
426.1496, 13678.27
426.6317, 13665.16
427.1139, 13656.74
427.5960, 13651.76
428.0781, 13649.67
428.5602, 13651.75
429.0423, 13652.65
429.5244, 13642.33
430.0066, 13620.38
430.4887, 13607.05
430.9708, 13613.56
431.4529, 13626.09
431.9350, 13626.60
432.4171, 13614.15
432.8993, 13607.57
433.3814, 13623.97
433.8635, 13650.25
434.3456, 13661.11
434.8277, 13652.07
435.3098, 13638.25
435.7920, 13635.59
436.2741, 13641.45
436.7562, 13628.09
437.2383, 13570.16
437.7204, 13515.25
438.2025, 13495.52
438.6847, 13502.27
439.1668, 13507.43
439.6489, 13496.48
440.1310, 13477.44
440.6131, 13472.35
441.0952, 13503.71
441.5774, 13517.21
442.0595, 13490.91
442.5416, 13457.13
443.0237, 13452.91
443.5058, 13480.45
443.9879, 13504.94
444.4701, 13482.32
444.9522, 13400.88
445.4343, 13356.42
445.9164, 13390.17
446.3985, 13419.80
446.8806, 13423.11
447.3628, 13402.89
447.8449, 13364.63
448.3270, 13307.08
448.8091, 13243.49
449.2912, 13208.42
449.7733, 13211.32
450.2555, 13216.76
450.7376, 13222.79
451.2197, 13223.37
451.7018, 13207.68
452.1839, 13174.46
452.6660, 13148.21
453.1482, 13157.38
453.6303, 13192.79
454.1124, 13212.51
454.5945, 13212.50
455.0766, 13195.10
455.5587, 13149.20
456.0409, 13085.18
456.5230, 13035.26
457.0051, 13010.08
457.4872, 12998.79
457.9693, 12999.12
458.4514, 13007.68
458.9336, 13005.36
459.4156, 12980.28
459.8978, 12942.06
460.3799, 12916.43
460.8620, 12904.41
461.3441, 12900.16
461.8262, 12916.34
462.3083, 12932.57
462.7905, 12923.62
463.2726, 12886.58
463.7547, 12840.52
464.2368, 12803.50
464.7189, 12774.87
465.2010, 12761.36
465.6832, 12776.59
466.1653, 12791.40
466.6474, 12795.25
467.1295, 12792.58
467.6116, 12792.59
468.0938, 12800.30
468.5759, 12810.47
469.0580, 12812.71
469.5401, 12808.92
470.0222, 12791.63
470.5043, 12739.72
470.9865, 12688.41
471.4686, 12665.19
471.9507, 12669.66
472.4328, 12672.56
472.9149, 12647.19
473.3970, 12602.18
473.8792, 12569.49
474.3613, 12553.21
474.8434, 12541.12
475.3255, 12526.98
475.8076, 12511.25
476.2897, 12494.57
476.7719, 12476.98
477.2540, 12458.60
477.7361, 12439.40
478.2182, 12419.50
478.7003, 12396.69
479.1824, 12368.24
479.6646, 12344.59
480.1467, 12346.79
480.6288, 12392.09
481.1109, 12406.78
481.5930, 12359.89
482.0751, 12302.56
482.5573, 12270.73
483.0394, 12263.54
483.5215, 12261.80
484.0036, 12251.74
484.4857, 12235.06
484.9678, 12223.73
485.4500, 12232.94
485.9321, 12226.35
486.4142, 12171.53
486.8963, 12114.40
487.3784, 12112.58
487.8605, 12175.86
488.3427, 12242.13
488.8248, 12227.36
489.3069, 12126.68
489.7890, 12062.76
490.2711, 12056.07
490.7532, 12069.27
491.2354, 12101.22
491.7175, 12134.84
492.1996, 12127.29
492.6817, 12032.97
493.1638, 11920.29
493.6459, 11873.84
494.1281, 11889.60
494.6102, 11914.04
495.0923, 11933.38
495.5744, 11943.36
496.0565, 11930.14
496.5386, 11884.94
497.0208, 11858.63
497.5029, 11882.83
497.9850, 11919.31
498.4671, 11926.62
498.9492, 11903.42
499.4313, 11876.84
499.9135, 11868.90
500.3956, 11877.80
500.8777, 11879.56
501.3598, 11877.67
501.8419, 11864.35
502.3240, 11818.76
502.8062, 11770.16
503.2883, 11761.42
503.7704, 11801.77
504.2525, 11845.03
504.7346, 11821.36
505.2167, 11717.21
505.6989, 11645.67
506.1810, 11628.12
506.6631, 11624.08
507.1452, 11618.17
507.6273, 11610.15
508.1094, 11600.07
508.5916, 11584.58
509.0737, 11571.20
509.5558, 11571.64
510.0379, 11585.48
510.5200, 11602.58
511.0021, 11622.42
511.4843, 11640.24
511.9664, 11649.40
512.4485, 11650.54
512.9306, 11643.42
513.4127, 11619.20
513.8948, 11592.30
514.3770, 11578.77
514.8591, 11578.13
515.3412, 11578.02
515.8233, 11569.75
516.3054, 11554.63
516.7875, 11541.17
517.2697, 11535.74
517.7518, 11523.86
518.2339, 11499.89
518.7160, 11471.21
519.1981, 11443.67
519.6802, 11418.97
520.1624, 11397.23
520.6445, 11376.10
521.1266, 11355.19
521.6087, 11351.47
522.0908, 11376.83
522.5729, 11402.13
523.0551, 11423.18
523.5372, 11433.83
524.0193, 11419.69
524.5014, 11365.80
524.9835, 11311.21
525.4656, 11303.86
525.9478, 11333.41
526.4299, 11344.79
526.9120, 11321.85
527.3941, 11282.36
527.8762, 11241.59
528.3583, 11198.89
528.8405, 11170.55
529.3226, 11164.40
529.8047, 11167.30
530.2868, 11174.62
530.7689, 11183.92
531.2510, 11191.41
531.7332, 11195.36
532.2153, 11195.11
532.6974, 11188.69
533.1795, 11171.96
533.6616, 11156.42
534.1437, 11144.68
534.6259, 11132.13
535.1080, 11111.08
535.5901, 11085.50
536.0722, 11070.19
536.5543, 11080.23
537.0364, 11105.76
537.5186, 11115.36
538.0007, 11106.07
538.4828, 11092.30
538.9649, 11077.63
539.4470, 11062.12
539.9291, 11044.66
540.4113, 11024.26
540.8934, 11008.32
541.3755, 11008.28
541.8576, 11011.97
542.3397, 10992.29
542.8218, 10947.52
543.3040, 10917.74
543.7861, 10938.47
544.2682, 11001.11
544.7503, 11031.79
545.2324, 11005.08
545.7145, 10982.76
546.1967, 10981.99
546.6788, 10988.81
547.1609, 10988.26
547.6430, 10977.04
548.1251, 10960.83
548.6072, 10942.23
549.0894, 10920.57
549.5715, 10920.59
550.0536, 10955.02
550.5357, 10993.99
551.0178, 11042.37
551.4999, 11082.65
551.9821, 11084.46
552.4642, 11030.17
552.9463, 10972.18
553.4284, 10961.86
553.9105, 10989.19
554.3926, 11017.33
554.8748, 11041.73
555.3569, 11056.26
555.8390, 11049.52
556.3211, 11022.21
556.8032, 11011.66
557.2853, 11041.64
557.7675, 11064.14
558.2496, 11045.31
558.7317, 11006.36
559.2138, 10984.30
559.6959, 10992.40
560.1780, 11017.74
560.6602, 11043.00
561.1423, 11070.76
561.6244, 11088.13
562.1065, 11086.29
562.5886, 11082.34
563.0707, 11085.61
563.5529, 11090.40
564.0350, 11081.76
564.5171, 11046.90
564.9992, 11015.51
565.4813, 11043.20
565.9634, 11124.39
566.4456, 11162.79
566.9277, 11119.72
567.4098, 11058.30
567.8919, 11048.22
568.3740, 11083.75
568.8561, 11118.05
569.3383, 11147.07
569.8204, 11170.40
570.3025, 11191.55
570.7846, 11206.80
571.2667, 11203.57
571.7488, 11176.19
572.2310, 11140.29
572.7131, 11125.24
573.1952, 11141.72
573.6773, 11150.13
574.1594, 11149.30
574.6415, 11142.12
575.1237, 11123.61
575.6058, 11100.25
576.0879, 11084.36
576.5700, 11082.17
577.0521, 11089.45
577.5342, 11102.99
578.0164, 11122.86
578.4985, 11136.57
578.9806, 11141.88
579.4627, 11139.14
579.9448, 11124.83
580.4269, 11100.54
580.9091, 11080.06
581.3912, 11073.32
581.8733, 11064.60
582.3554, 11033.83
582.8375, 10992.39
583.3196, 10974.23
583.8018, 10994.55
584.2839, 11025.60
584.7660, 11015.17
585.2481, 10936.88
585.7302, 10892.79
586.2123, 10909.85
586.6945, 10931.88
587.1766, 10937.47
587.6587, 10930.34
588.1408, 10920.66
588.6229, 10912.08
589.1050, 10906.14
589.5872, 10908.57
590.0693, 10918.75
590.5514, 10917.79
591.0335, 10896.51
591.5156, 10872.69
591.9977, 10864.16
592.4799, 10869.20
592.9620, 10877.90
593.4441, 10897.17
593.9262, 10911.60
594.4083, 10909.33
594.8904, 10896.05
595.3726, 10882.21
595.8547, 10871.62
596.3368, 10864.18
596.8189, 10860.83
597.3010, 10863.73
597.7831, 10860.25
598.2653, 10846.26
598.7474, 10829.80
599.2295, 10804.73
599.7116, 10781.38
600.1937, 10776.73
600.6758, 10798.81
601.1580, 10830.46
601.6401, 10864.34
602.1222, 10895.00
602.6043, 10885.72
603.0864, 10818.72
603.5685, 10758.22
604.0507, 10765.95
604.5328, 10834.28
605.0149, 10872.86
605.4970, 10865.59
605.9791, 10847.96
606.4612, 10827.24
606.9434, 10805.36
607.4255, 10784.39
607.9076, 10764.82
608.3897, 10744.60
608.8718, 10719.21
609.3539, 10689.12
609.8361, 10679.70
610.3182, 10710.66
610.8003, 10729.25
611.2824, 10703.42
611.7645, 10665.25
612.2466, 10654.76
612.7288, 10681.33
613.2109, 10698.20
613.6930, 10660.57
614.1751, 10597.18
614.6572, 10559.99
615.1393, 10553.31
615.6215, 10561.28
616.1036, 10579.35
616.5857, 10600.43
617.0678, 10598.69
617.5499, 10540.66
618.0320, 10506.56
618.5142, 10525.09
618.9963, 10549.17
619.4784, 10537.77
619.9605, 10496.21
620.4426, 10459.00
620.9247, 10451.54
621.4069, 10462.59
621.8890, 10463.34
622.3711, 10453.00
622.8532, 10436.56
623.3353, 10410.72
623.8174, 10383.73
624.2996, 10364.42
624.7817, 10352.29
625.2638, 10339.70
625.7459, 10323.34
626.2280, 10306.95
626.7101, 10286.84
627.1923, 10269.21
627.6744, 10275.13
628.1565, 10313.45
628.6386, 10358.32
629.1207, 10367.75
629.6028, 10335.11
630.0850, 10294.20
630.5671, 10222.41
631.0492, 10166.23
631.5313, 10152.92
632.0134, 10161.25
632.4955, 10156.05
632.9777, 10123.63
633.4598, 10090.62
633.9419, 10090.12
634.4240, 10110.55
634.9061, 10110.31
635.3882, 10081.66
635.8704, 10049.19
636.3525, 10029.74
636.8346, 10022.08
637.3167, 10018.25
637.7988, 10025.22
638.2809, 10026.38
638.7631, 10011.77
639.2452, 9994.933
639.7273, 9993.360
640.2094, 10004.64
640.6915, 10007.24
641.1736, 9980.401
641.6558, 9935.739
642.1379, 9918.409
642.6200, 9936.714
643.1021, 9945.115
643.5842, 9919.680
644.0663, 9889.479
644.5485, 9893.783
645.0306, 9931.046
645.5127, 9944.178
645.9948, 9888.759
646.4769, 9827.802
646.9590, 9819.248
647.4412, 9845.675
647.9233, 9859.857
648.4054, 9843.320
648.8875, 9809.741
649.3696, 9776.167
649.8517, 9738.663
650.3339, 9723.128
650.8160, 9756.537
651.2981, 9780.128
651.7802, 9765.692
652.2623, 9733.467
652.7444, 9712.696
653.2266, 9711.843
653.7087, 9715.468
654.1908, 9715.755
654.6729, 9710.908
655.1550, 9691.121
655.6371, 9655.841
656.1193, 9632.582
656.6014, 9643.457
657.0835, 9676.654
657.5656, 9687.300
658.0477, 9657.288
658.5298, 9628.517
659.0120, 9601.567
659.4941, 9575.549
659.9762, 9547.305
660.4583, 9519.061
660.9404, 9497.045
661.4225, 9484.306
661.9047, 9480.154
662.3868, 9484.638
662.8689, 9497.577
663.3510, 9513.660
663.8331, 9532.929
664.3152, 9552.503
664.7974, 9573.542
665.2795, 9594.627
665.7616, 9597.484
666.2437, 9561.205
666.7258, 9530.540
667.2079, 9527.981
667.6901, 9537.287
668.1722, 9537.993
668.6543, 9526.248
669.1364, 9511.178
669.6185, 9500.086
670.1006, 9493.157
670.5828, 9494.752
671.0649, 9511.829
671.5470, 9513.036
672.0291, 9466.521
672.5112, 9416.261
672.9933, 9416.018
673.4755, 9467.840
673.9576, 9516.193
674.4397, 9558.729
674.9218, 9580.130
675.4039, 9554.245
675.8860, 9498.821
676.3682, 9455.871
676.8503, 9441.791
677.3324, 9439.944
677.8145, 9423.504
678.2966, 9387.850
678.7787, 9377.260
679.2609, 9416.107
679.7430, 9444.063
680.2251, 9426.631
680.7072, 9391.118
681.1893, 9372.561
681.6714, 9378.293
682.1536, 9388.822
682.6357, 9395.504
683.1178, 9399.549
683.5999, 9401.234
684.0820, 9401.335
684.5641, 9403.124
685.0463, 9408.361
685.5284, 9416.356
686.0105, 9426.722
686.4926, 9445.800
686.9747, 9451.926
687.4568, 9436.041
687.9390, 9415.929
688.4211, 9392.134
688.9032, 9370.595
689.3853, 9363.435
689.8674, 9378.006
690.3495, 9393.993
690.8317, 9390.320
691.3138, 9376.264
691.7959, 9371.082
692.2780, 9377.420
692.7601, 9395.224
693.2422, 9427.954
693.7244, 9468.202
694.2065, 9486.312
694.6886, 9464.915
695.1707, 9448.992
695.6528, 9444.847
696.1349, 9441.776
696.6171, 9431.813
697.0992, 9417.462
697.5813, 9407.673
698.0634, 9409.431
698.5455, 9410.636
699.0276, 9386.951
699.5098, 9349.836
699.9919, 9348.681
700.4740, 9395.868
700.9561, 9441.271
701.4382, 9440.589
701.9203, 9401.216
702.4025, 9381.786
702.8846, 9412.060
703.3667, 9422.682
703.8488, 9386.582
704.3309, 9346.856
704.8130, 9335.609
705.2952, 9351.324
705.7773, 9375.348
706.2594, 9402.735
706.7415, 9424.077
707.2236, 9418.898
707.7057, 9392.678
708.1879, 9380.364
708.6700, 9391.178
709.1521, 9409.314
709.6342, 9421.089
710.1163, 9426.679
710.5984, 9429.886
711.0806, 9432.238
711.5627, 9430.314
712.0448, 9413.852
712.5269, 9399.970
713.0090, 9410.586
713.4911, 9440.685
713.9733, 9460.103
714.4554, 9444.813
714.9375, 9414.034
715.4196, 9396.194
715.9017, 9390.751
716.3839, 9395.418
716.8660, 9411.722
717.3481, 9429.141
717.8302, 9439.256
718.3123, 9441.993
718.7944, 9430.435
719.2766, 9382.260
719.7587, 9349.824
720.2408, 9351.895
720.7229, 9366.729
721.2050, 9377.977
721.6871, 9382.479
722.1693, 9381.055
722.6514, 9370.588
723.1335, 9358.310
723.6156, 9359.797
724.0977, 9372.367
724.5798, 9373.920
725.0620, 9356.516
725.5441, 9337.794
726.0262, 9337.798
726.5083, 9356.489
726.9904, 9361.451
727.4725, 9337.075
727.9547, 9319.621
728.4368, 9314.110
728.9189, 9318.341
729.4010, 9339.667
729.8831, 9371.586
730.3652, 9385.753
730.8474, 9350.455
731.3295, 9303.407
731.8116, 9304.532
732.2937, 9344.915
732.7758, 9381.278
733.2579, 9403.259
733.7401, 9415.787
734.2222, 9424.931
734.7043, 9430.198
735.1864, 9417.544
735.6685, 9359.373
736.1506, 9319.876
736.6328, 9312.277
737.1149, 9321.413
737.5970, 9349.343
738.0791, 9385.897
738.5612, 9395.102
739.0433, 9342.535
739.5255, 9273.673
740.0076, 9235.992
740.4897, 9224.764
740.9718, 9231.100
741.4539, 9253.020
741.9360, 9269.739
742.4182, 9259.930
742.9003, 9228.210
743.3824, 9216.358
743.8645, 9240.642
744.3466, 9256.909
744.8287, 9257.057
745.3109, 9250.442
745.7930, 9248.157
746.2751, 9245.292
746.7572, 9221.010
747.2393, 9145.691
747.7214, 9078.797
748.2036, 9083.506
748.6857, 9128.077
749.1678, 9150.841
749.6499, 9142.349
750.1320, 9127.864
750.6141, 9126.813
751.0963, 9135.132
751.5784, 9137.021
752.0605, 9132.000
752.5426, 9121.373
753.0247, 9095.586
753.5068, 9074.495
753.9890, 9073.771
754.4711, 9086.800
754.9532, 9095.432
755.4353, 9094.854
755.9174, 9091.261
756.3995, 9093.506
756.8817, 9091.147
757.3638, 9055.572
757.8459, 8998.055
758.3280, 8978.251
758.8101, 9037.617
759.2922, 9131.283
759.7744, 9158.838
760.2565, 9112.911
760.7386, 9073.006
761.2207, 9045.836
761.7028, 9026.474
762.1849, 9009.791
762.6671, 9010.529
763.1492, 9004.903
763.6313, 9033.702
764.1134, 9061.028
764.5955, 9094.488
765.0776, 9112.905
765.5598, 9083.535
766.0419, 9028.038
766.5240, 9001.566
767.0061, 9028.770
767.4882, 9065.229
767.9703, 9043.667
768.4525, 8978.076
768.9346, 8950.167
769.4167, 8968.469
769.8988, 8991.215
770.3809, 8997.043
770.8630, 9018.224
771.3452, 9008.734
771.8273, 9045.271
772.3094, 9066.724
772.7915, 9069.189
773.2736, 9061.755
773.7557, 9040.071
774.2379, 9014.321
774.7200, 8992.817
775.2021, 8978.380
775.6842, 8983.363
776.1663, 9036.400
776.6484, 9104.194
777.1306, 9129.846
777.6127, 9119.047
778.0948, 9105.807
778.5769, 9101.773
779.0590, 9104.266
779.5411, 9110.972
780.0233, 9122.036
780.5054, 9129.914
780.9875, 9140.433
781.4696, 9137.776
781.9517, 9095.002
782.4338, 9055.242
782.9160, 9065.463
783.3981, 9119.384
783.8802, 9150.930
784.3623, 9114.144
784.8444, 9073.056
785.3265, 9071.195
785.8087, 9091.120
786.2908, 9106.638
786.7729, 9112.964
787.2550, 9120.001
787.7371, 9137.612
788.2192, 9157.237
788.7014, 9148.441
789.1835, 9106.760
789.6656, 9082.111
790.1477, 9088.045
790.6298, 9101.171
791.1119, 9101.506
791.5941, 9116.077
792.0762, 9134.334
792.5583, 9141.013
793.0404, 9170.597
793.5225, 9184.714
794.0046, 9187.646
794.4868, 9173.637
794.9689, 9152.248
795.4510, 9144.711
795.9331, 9161.490
796.4152, 9182.149
796.8973, 9179.318
797.3795, 9165.058
797.8616, 9176.135
798.3437, 9213.129
798.8258, 9237.780
799.3079, 9228.861
799.7900, 9205.760
800.2722, 9204.074
800.7543, 9228.788
801.2364, 9252.750
801.7185, 9294.950
802.2006, 9309.448
802.6827, 9252.198
803.1649, 9179.364
803.6470, 9157.361
804.1291, 9192.482
804.6112, 9225.795
805.0933, 9226.711
805.5754, 9226.229
806.0576, 9254.669
806.5397, 9295.547
807.0218, 9318.891
807.5039, 9318.531
807.9860, 9307.802
808.4681, 9296.138
808.9503, 9285.669
809.4324, 9284.062
809.9145, 9291.717
810.3966, 9300.913
810.8787, 9309.852
811.3608, 9320.302
811.8430, 9335.706
812.3251, 9354.380
812.8072, 9364.320
813.2893, 9369.291
813.7714, 9360.490
814.2535, 9318.061
814.7357, 9279.222
815.2178, 9272.785
815.6999, 9288.945
816.1820, 9299.984
816.6641, 9293.468
817.1462, 9291.530
817.6284, 9318.064
818.1105, 9358.066
818.5926, 9389.694
819.0747, 9411.015
819.5568, 9423.740
820.0389, 9428.606
820.5211, 9426.326
821.0032, 9416.699
821.4853, 9399.142
821.9674, 9383.043
822.4495, 9366.075
822.9316, 9356.730
823.4138, 9363.812
823.8959, 9375.504
824.3780, 9371.933
824.8601, 9352.201
825.3422, 9351.599
825.8243, 9397.779
826.3065, 9435.312
826.7886, 9431.623
827.2707, 9415.468
827.7528, 9425.315
828.2349, 9458.228
828.7170, 9473.260
829.1992, 9435.990
829.6813, 9385.383
830.1633, 9376.188
830.6454, 9397.333
831.1276, 9412.545
831.6097, 9416.355
832.0918, 9423.832
832.5739, 9447.081
833.0560, 9476.564
833.5381, 9483.195
834.0203, 9456.114
834.5024, 9443.729
834.9845, 9454.036
835.4666, 9469.771
835.9487, 9489.367
836.4308, 9506.329
836.9130, 9508.751
837.3951, 9492.654
837.8772, 9480.454
838.3593, 9485.770
838.8414, 9488.138
839.3235, 9466.775
839.8057, 9438.057
840.2878, 9427.896
840.7699, 9441.104
841.2520, 9461.255
841.7341, 9479.018
842.2162, 9492.197
842.6984, 9492.591
843.1805, 9483.526
843.6626, 9483.644
844.1447, 9497.538
844.6268, 9512.172
845.1089, 9515.561
845.5911, 9511.537
846.0732, 9519.466
846.5553, 9547.903
847.0374, 9564.790
847.5195, 9561.862
848.0016, 9553.437
848.4838, 9546.892
848.9659, 9540.963
849.4480, 9531.885
849.9301, 9515.482
850.4122, 9508.104
850.8943, 9525.359
851.3765, 9542.279
851.8586, 9542.705
852.3407, 9530.295
852.8228, 9509.876
853.3049, 9484.015
853.7870, 9461.819
854.2692, 9451.960
854.7513, 9450.797
855.2334, 9455.726
855.7155, 9464.269
856.1976, 9461.032
856.6797, 9441.660
857.1619, 9425.387
857.6440, 9431.224
858.1261, 9454.179
858.6082, 9466.856
859.0903, 9465.325
859.5724, 9467.412
860.0546, 9485.918
860.5367, 9493.751
861.0188, 9457.937
861.5009, 9400.599
861.9830, 9376.475
862.4651, 9399.404
862.9473, 9425.102
863.4294, 9464.716
863.9115, 9485.283
864.3936, 9441.267
864.8757, 9374.844
865.3578, 9363.151
865.8400, 9422.201
866.3221, 9475.550
866.8042, 9449.869
867.2863, 9397.804
867.7684, 9396.306
868.2505, 9429.766
868.7327, 9449.690
869.2148, 9444.245
869.6969, 9427.082
870.1790, 9407.383
870.6611, 9389.504
871.1432, 9390.448
871.6254, 9412.411
872.1075, 9437.965
872.5896, 9471.851
873.0717, 9490.343
873.5538, 9467.905
874.0359, 9423.692
874.5181, 9411.465
875.0002, 9452.238
875.4823, 9478.578
875.9644, 9483.262
876.4465, 9481.299
876.9286, 9476.041
877.4108, 9469.105
877.8929, 9460.219
878.3750, 9449.852
878.8571, 9445.433
879.3392, 9457.450
879.8214, 9469.916
880.3035, 9468.423
880.7856, 9459.340
881.2677, 9449.292
881.7498, 9441.920
882.2319, 9446.205
882.7141, 9470.013
883.1962, 9502.960
883.6783, 9529.331
884.1604, 9548.661
884.6425, 9555.977
885.1246, 9550.101
885.6068, 9542.479
886.0889, 9537.869
886.5710, 9539.031
887.0531, 9554.121
887.5352, 9589.614
888.0173, 9600.180
888.4995, 9564.536
888.9816, 9540.596
889.4637, 9559.923
889.9458, 9588.617
890.4279, 9588.963
890.9100, 9563.824
891.3922, 9553.603
891.8743, 9567.586
892.3564, 9592.521
892.8385, 9638.114
893.3206, 9681.818
893.8027, 9704.211
894.2849, 9707.400
894.7670, 9698.818
895.2491, 9677.847
895.7312, 9666.477
896.2133, 9694.621
896.6954, 9737.609
897.1776, 9752.406
897.6597, 9746.273
898.1418, 9754.755
898.6239, 9790.104
899.1060, 9832.490
899.5881, 9862.080
900.0703, 9879.603
900.5524, 9886.399
901.0345, 9881.782
901.5166, 9881.324
901.9987, 9888.698
902.4808, 9900.263
902.9630, 9913.230
903.4451, 9927.962
903.9272, 9946.591
904.4093, 9976.948
904.8914, 9995.068
905.3735, 9985.190
905.8557, 9981.237
906.3378, 10005.09
906.8199, 10039.84
907.3020, 10060.90
907.7841, 10065.28
908.2662, 10068.58
908.7484, 10066.07
909.2305, 10073.12
909.7126, 10105.91
910.1947, 10146.96
910.6768, 10174.89
911.1589, 10189.54
911.6411, 10206.33
912.1232, 10236.77
912.6053, 10264.43
913.0874, 10266.62
913.5695, 10257.41
914.0516, 10256.50
914.5338, 10268.12
915.0159, 10304.97
915.4980, 10373.37
915.9801, 10438.12
916.4622, 10438.96
916.9443, 10389.65
917.4265, 10385.32
917.9086, 10427.71
918.3907, 10473.63
918.8728, 10512.29
919.3549, 10543.99
919.8370, 10567.30
920.3192, 10584.51
920.8013, 10611.73
921.2834, 10659.87
921.7655, 10691.19
922.2476, 10685.79
922.7297, 10684.53
923.2119, 10718.96
923.6940, 10769.35
924.1761, 10800.00
924.6582, 10804.24
925.1403, 10813.64
925.6224, 10834.10
926.1046, 10858.67
926.5867, 10882.05
927.0688, 10909.42
927.5509, 10953.44
928.0330, 11009.79
928.5151, 11051.50
928.9973, 11059.46
929.4794, 11060.75
929.9615, 11069.64
930.4436, 11086.94
930.9257, 11118.95
931.4078, 11160.52
931.8900, 11194.63
932.3721, 11213.99
932.8542, 11232.09
933.3363, 11270.65
933.8184, 11317.81
934.3005, 11334.33
934.7827, 11326.62
935.2648, 11341.17
935.7469, 11390.79
936.2290, 11445.98
936.7111, 11480.31
937.1932, 11499.53
937.6754, 11521.78
938.1575, 11545.87
938.6396, 11584.23
939.1217, 11643.55
939.6038, 11699.88
940.0859, 11742.57
940.5681, 11771.48
941.0502, 11783.31
941.5323, 11771.99
942.0144, 11775.43
942.4965, 11791.98
942.9786, 11826.01
943.4608, 11900.40
943.9429, 11974.46
944.4250, 12012.39
944.9071, 12020.35
945.3892, 12029.47
945.8713, 12042.47
946.3535, 12060.52
946.8356, 12075.91
947.3177, 12104.21
947.7998, 12165.33
948.2819, 12243.22
948.7640, 12313.73
949.2462, 12370.72
949.7283, 12413.42
950.2104, 12437.57
950.6925, 12451.27
951.1746, 12452.50
951.6567, 12452.49
952.1389, 12465.09
952.6210, 12494.67
953.1031, 12550.04
953.5852, 12641.40
954.0673, 12733.20
954.5494, 12771.13
955.0316, 12774.03
955.5137, 12785.29
955.9958, 12809.36
956.4779, 12858.73
956.9600, 12938.12
957.4421, 13015.55
957.9243, 13053.35
958.4064, 13060.42
958.8885, 13077.82
959.3706, 13106.09
959.8527, 13126.59
960.3348, 13128.77
960.8170, 13163.61
961.2991, 13278.47
961.7812, 13426.32
962.2633, 13491.26
962.7454, 13448.39
963.2275, 13436.68
963.7097, 13468.86
964.1918, 13508.45
964.6739, 13550.92
965.1560, 13589.44
965.6381, 13611.78
966.1202, 13620.30
966.6024, 13644.29
967.0845, 13680.15
967.5666, 13736.83
968.0487, 13852.38
968.5308, 13949.97
969.0129, 13963.25
969.4951, 13939.76
969.9772, 13965.38
970.4593, 14057.32
970.9414, 14132.52
971.4235, 14147.77
971.9056, 14158.13
972.3878, 14184.29
972.8699, 14226.20
973.3520, 14296.08
973.8341, 14381.55
974.3162, 14440.30
974.7983, 14447.54
975.2805, 14451.75
975.7626, 14498.46
976.2447, 14555.96
976.7268, 14573.96
977.2089, 14574.15
977.6910, 14621.52
978.1732, 14727.00
978.6553, 14821.19
979.1374, 14840.27
979.6195, 14827.00
980.1016, 14848.76
980.5837, 14895.26
981.0659, 14934.90
981.5480, 14966.03
982.0301, 15011.56
982.5122, 15084.29
982.9943, 15158.17
983.4764, 15188.76
983.9586, 15185.62
984.4407, 15206.28
984.9228, 15250.59
985.4049, 15296.92
985.8870, 15340.03
986.3691, 15383.70
986.8513, 15433.06
987.3334, 15461.98
987.8155, 15511.35
988.2976, 15516.21
988.7797, 15527.61
989.2618, 15543.62
989.7440, 15580.39
990.2261, 15657.19
990.7082, 15735.19
991.1903, 15759.35
991.6724, 15731.73
992.1545, 15746.74
992.6367, 15837.32
993.1188, 15902.05
993.6009, 15909.23
994.0830, 15914.06
994.5651, 15957.82
995.0472, 16018.13
995.5294, 16044.10
996.0115, 16021.51
996.4936, 16027.13
996.9757, 16099.38
997.4578, 16154.12
997.9399, 16143.31
998.4221, 16127.28
998.9042, 16162.33
999.3863, 16237.57
999.8684, 16305.47
1000.351, 16361.45
1000.833, 16399.80
1001.315, 16405.39
1001.797, 16407.92
1002.279, 16421.21
1002.761, 16444.63
1003.243, 16476.95
1003.725, 16517.39
1004.207, 16562.39
1004.690, 16625.84
1005.172, 16670.93
1005.654, 16642.83
1006.136, 16612.53
1006.618, 16673.48
1007.100, 16787.97
1007.582, 16852.96
1008.064, 16838.13
1008.547, 16821.98
1009.029, 16870.20
1009.511, 16936.67
1009.993, 16974.87
1010.475, 16997.57
1010.957, 17023.96
1011.439, 17058.05
1011.921, 17103.39
1012.403, 17163.54
1012.886, 17215.40
1013.368, 17217.75
1013.850, 17202.89
1014.332, 17238.01
1014.814, 17307.95
1015.296, 17355.73
1015.778, 17370.73
1016.260, 17389.45
1016.742, 17440.55
1017.225, 17471.74
1017.707, 17517.48
1018.189, 17572.10
1018.671, 17619.67
1019.153, 17687.90
1019.635, 17751.78
1020.117, 17802.05
1020.599, 17843.39
1021.082, 17878.69
1021.564, 17912.27
1022.046, 17960.43
1022.528, 18021.82
1023.010, 18079.78
1023.492, 18131.74
1023.974, 18189.01
1024.456, 18260.13
1024.938, 18324.81
1025.421, 18346.77
1025.903, 18331.90
1026.385, 18358.31
1026.867, 18430.72
1027.349, 18501.46
1027.831, 18562.25
1028.313, 18616.13
1028.795, 18663.42
1029.278, 18708.80
1029.760, 18763.40
1030.242, 18829.51
1030.724, 18887.19
1031.206, 18933.24
1031.688, 18983.20
1032.170, 19048.32
1032.652, 19100.01
1033.135, 19100.69
1033.617, 19073.63
1034.099, 19112.81
1034.581, 19251.93
1035.063, 19358.05
1035.545, 19418.00
1036.027, 19468.70
1036.509, 19514.62
1036.991, 19568.02
1037.474, 19648.18
1037.956, 19750.90
1038.438, 19833.10
1038.920, 19885.76
1039.402, 19935.53
1039.884, 19991.02
1040.366, 20033.22
1040.848, 20040.42
1041.330, 20038.18
1041.813, 20061.59
1042.295, 20111.65
1042.777, 20165.43
1043.259, 20222.30
1043.741, 20283.47
1044.223, 20345.30
1044.705, 20415.79
1045.187, 20515.21
1045.670, 20619.70
1046.152, 20683.03
1046.634, 20696.26
1047.116, 20723.95
1047.598, 20784.06
1048.080, 20841.27
1048.562, 20892.33
1049.044, 20933.33
1049.526, 20954.61
1050.009, 20965.42
1050.491, 20988.17
1050.973, 21028.80
1051.455, 21064.82
1051.937, 21082.56
1052.419, 21108.13
1052.901, 21154.28
1053.383, 21209.33
1053.865, 21261.21
1054.348, 21313.00
1054.830, 21380.21
1055.312, 21479.13
1055.794, 21549.66
1056.276, 21561.71
1056.758, 21560.62
1057.240, 21545.65
1057.722, 21544.53
1058.205, 21605.08
1058.687, 21708.78
1059.169, 21766.15
1059.651, 21730.71
1060.133, 21706.60
1060.615, 21717.65
1061.097, 21759.26
1061.579, 21855.06
1062.062, 21963.23
1062.544, 22033.07
1063.026, 22063.12
1063.508, 22086.35
1063.990, 22105.37
1064.472, 22132.58
1064.954, 22190.41
1065.436, 22239.52
1065.918, 22242.04
1066.401, 22224.05
1066.883, 22221.27
1067.365, 22239.40
1067.847, 22271.23
1068.329, 22324.51
1068.811, 22375.38
1069.293, 22414.26
1069.775, 22445.92
1070.257, 22470.62
1070.740, 22492.27
1071.222, 22509.80
1071.704, 22525.80
1072.186, 22567.34
1072.668, 22686.50
1073.150, 22780.74
1073.632, 22793.83
1074.114, 22768.47
1074.597, 22706.09
1075.079, 22645.86
1075.561, 22664.18
1076.043, 22772.79
1076.525, 22860.28
1077.007, 22854.99
1077.489, 22845.97
1077.971, 22889.45
1078.453, 22939.06
1078.936, 22947.33
1079.418, 22930.10
1079.900, 22925.17
1080.382, 22941.32
1080.864, 22963.23
1081.346, 22993.96
1081.828, 23016.52
1082.310, 23008.95
1082.792, 23000.10
1083.275, 23018.90
1083.757, 23058.21
1084.239, 23100.07
1084.721, 23140.42
1085.203, 23171.92
1085.685, 23195.63
1086.167, 23204.46
1086.649, 23177.44
1087.131, 23148.17
1087.614, 23148.92
1088.096, 23173.91
1088.578, 23206.53
1089.060, 23244.29
1089.542, 23268.78
1090.024, 23258.18
1090.506, 23250.24
1090.988, 23268.37
1091.471, 23295.10
1091.953, 23317.66
1092.435, 23333.49
1092.917, 23337.75
1093.399, 23327.23
1093.881, 23325.47
1094.363, 23342.03
1094.845, 23368.20
1095.328, 23416.21
1095.810, 23457.90
1096.292, 23451.44
1096.774, 23420.37
1097.256, 23430.56
1097.738, 23503.48
1098.220, 23561.37
1098.702, 23568.09
1099.184, 23568.86
1099.667, 23592.36
1100.149, 23610.35
1100.631, 23574.17
1101.113, 23516.24
1101.595, 23528.60
1102.077, 23646.09
1102.559, 23722.46
1103.041, 23680.35
1103.523, 23644.53
1104.006, 23663.13
1104.488, 23704.98
1104.970, 23758.49
1105.452, 23810.23
1105.934, 23829.80
1106.416, 23805.34
1106.898, 23791.16
1107.380, 23798.47
1107.863, 23814.73
1108.345, 23848.57
1108.827, 23878.40
1109.309, 23878.37
1109.791, 23863.73
1110.273, 23873.21
1110.755, 23915.93
1111.237, 23952.42
1111.719, 23974.37
1112.202, 23996.49
1112.684, 24017.16
1113.166, 24044.00
1113.648, 24091.15
1114.130, 24146.24
1114.612, 24179.03
1115.094, 24182.68
1115.576, 24194.08
1116.058, 24212.16
1116.541, 24240.24
1117.023, 24289.37
1117.505, 24335.73
1117.987, 24349.23
1118.469, 24358.40
1118.951, 24427.76
1119.433, 24571.85
1119.915, 24668.33
1120.398, 24688.18
1120.880, 24721.33
1121.362, 24784.12
1121.844, 24859.73
1122.326, 24942.91
1122.808, 25026.71
1123.290, 25094.81
1123.772, 25189.24
1124.255, 25282.27
1124.737, 25362.85
1125.219, 25476.91
1125.701, 25551.26
1126.183, 25631.89
1126.665, 25746.85
1127.147, 25876.28
1127.629, 25987.38
1128.111, 26082.48
1128.594, 26216.51
1129.076, 26402.08
1129.558, 26536.20
1130.040, 26594.14
1130.522, 26669.11
1131.004, 26808.06
1131.486, 26981.02
1131.968, 27149.80
1132.450, 27315.72
1132.933, 27479.84
1133.415, 27641.82
1133.897, 27795.95
1134.379, 27940.73
1134.861, 28092.75
1135.343, 28258.49
1135.825, 28437.31
1136.307, 28634.37
1136.790, 28834.58
1137.272, 28984.81
1137.754, 29097.12
1138.236, 29243.15
1138.718, 29426.12
1139.200, 29619.20
1139.682, 29812.45
1140.164, 30002.46
1140.646, 30182.01
1141.129, 30367.21
1141.611, 30605.66
1142.093, 30868.90
1142.575, 31072.64
1143.057, 31229.93
1143.539, 31408.16
1144.021, 31622.28
1144.503, 31827.26
1144.985, 31986.08
1145.468, 32137.72
1145.950, 32328.07
1146.432, 32541.37
1146.914, 32766.57
1147.396, 32989.50
1147.878, 33184.13
1148.360, 33347.41
1148.842, 33487.47
1149.325, 33597.63
1149.807, 33733.50
1150.289, 33968.69
1150.771, 34219.44
1151.253, 34401.11
1151.735, 34551.52
1152.217, 34730.16
1152.699, 34935.17
1153.182, 35126.84
1153.664, 35293.11
1154.146, 35442.11
1154.628, 35550.59
1155.110, 35674.49
1155.592, 35869.93
1156.074, 36075.59
1156.556, 36229.40
1157.038, 36341.25
1157.521, 36443.43
1158.003, 36536.01
1158.485, 36655.48
1158.967, 36862.00
1159.449, 37023.36
1159.931, 37048.27
1160.413, 37068.79
1160.895, 37193.38
1161.377, 37367.31
1161.860, 37479.14
1162.342, 37519.48
1162.824, 37589.36
1163.306, 37724.07
1163.788, 37823.53
1164.270, 37848.05
1164.752, 37888.19
1165.234, 38004.25
1165.717, 38136.89
1166.199, 38207.75
1166.681, 38223.94
1167.163, 38248.45
1167.645, 38285.05
1168.127, 38314.00
1168.609, 38332.91
1169.091, 38346.43
1169.573, 38353.14
1170.056, 38368.60
1170.538, 38410.93
1171.020, 38432.24
1171.502, 38499.41
1171.984, 38507.57
1172.466, 38536.61
1172.948, 38585.50
1173.430, 38593.98
1173.912, 38548.15
1174.395, 38527.84
1174.877, 38594.84
1175.359, 38681.56
1175.841, 38673.91
1176.323, 38605.21
1176.805, 38556.80
1177.287, 38525.10
1177.769, 38499.12
1178.252, 38473.70
1178.734, 38435.49
1179.216, 38377.77
1179.698, 38322.22
1180.180, 38294.41
1180.662, 38274.47
1181.144, 38238.34
1181.626, 38196.50
1182.109, 38160.34
1182.591, 38132.99
1183.073, 38124.96
1183.555, 38136.44
1184.037, 38126.52
1184.519, 38052.47
1185.001, 37979.77
1185.483, 37943.96
1185.965, 37919.91
1186.448, 37906.44
1186.930, 37881.14
1187.412, 37789.92
1187.894, 37643.44
1188.376, 37568.93
1188.858, 37637.66
1189.340, 37690.64
1189.822, 37728.24
1190.304, 37719.67
1190.787, 37615.93
1191.269, 37494.17
1191.751, 37417.57
1192.233, 37377.02
1192.715, 37345.34
1193.197, 37325.47
1193.679, 37302.36
1194.161, 37276.66
1194.644, 37246.81
1195.126, 37214.70
1195.608, 37170.31
1196.090, 37104.01
1196.572, 37029.19
1197.054, 36964.04
1197.536, 36910.69
1198.018, 36898.38
1198.500, 36923.53
1198.983, 36888.57
1199.465, 36785.12
1199.947, 36700.47
1200.429, 36670.02
1200.911, 36657.74
1201.393, 36634.96
1201.875, 36592.81
1202.357, 36491.14
1202.839, 36368.78
1203.322, 36321.64
1203.804, 36330.51
1204.286, 36331.66
1204.768, 36307.52
1205.250, 36259.53
1205.732, 36181.03
1206.214, 36110.70
1206.696, 36115.26
1207.179, 36103.60
1207.661, 35946.68
1208.143, 35759.57
1208.625, 35701.08
1209.107, 35746.32
1209.589, 35784.05
1210.071, 35792.32
1210.553, 35759.14
1211.036, 35663.06
1211.518, 35550.46
1212.000, 35394.98
1212.482, 35269.88
1212.964, 35242.53
1213.446, 35262.85
1213.928, 35252.18
1214.410, 35212.40
1214.892, 35187.23
1215.375, 35182.95
1215.857, 35178.73
1216.339, 35180.72
1216.821, 35158.47
1217.303, 35092.46
1217.785, 35028.47
1218.267, 35010.46
1218.749, 35018.03
1219.231, 35000.61
1219.714, 34959.63
1220.196, 34909.95
1220.678, 34854.31
1221.160, 34830.48
1221.642, 34841.29
1222.124, 34827.83
1222.606, 34757.57
1223.088, 34706.98
1223.571, 34792.39
1224.053, 34775.11
1224.535, 34926.85
1225.017, 34881.44
1225.499, 34917.42
1225.981, 35009.89
1226.463, 35056.96
1226.945, 35040.16
1227.427, 35035.93
1227.910, 35089.25
1228.392, 35149.77
1228.874, 35190.28
1229.356, 35229.29
1229.838, 35268.36
1230.320, 35321.38
1230.802, 35405.71
1231.284, 35517.36
1231.766, 35641.93
1232.249, 35791.56
1232.731, 35904.02
1233.213, 35941.52
1233.695, 36008.36
1234.177, 36145.22
1234.659, 36267.42
1235.141, 36305.71
1235.623, 36344.43
1236.106, 36519.07
1236.588, 36799.96
1237.070, 36987.11
1237.552, 37079.24
1238.034, 37147.07
1238.516, 37197.80
1238.998, 37328.37
1239.480, 37566.39
1239.963, 37800.39
1240.445, 37943.89
1240.927, 38046.09
1241.409, 38163.64
1241.891, 38299.50
1242.373, 38477.36
1242.855, 38668.82
1243.337, 38808.80
1243.819, 38905.30
1244.302, 39018.60
1244.784, 39168.78
1245.266, 39306.38
1245.748, 39385.90
1246.230, 39468.78
1246.712, 39606.19
1247.194, 39740.37
1247.676, 39821.62
1248.158, 39876.32
1248.641, 39932.31
1249.123, 39996.02
1249.605, 40096.25
1250.087, 40282.12
1250.569, 40382.17
1251.051, 40349.73
1251.533, 40328.23
1252.015, 40346.43
1252.498, 40398.07
1252.980, 40487.22
1253.462, 40587.76
1253.944, 40656.94
1254.426, 40698.16
1254.908, 40738.47
1255.390, 40774.50
1255.872, 40759.21
1256.354, 40698.36
1256.837, 40674.22
1257.319, 40710.89
1257.801, 40755.86
1258.283, 40776.13
1258.765, 40765.37
1259.247, 40686.94
1259.729, 40599.74
1260.211, 40591.96
1260.693, 40528.68
1261.176, 40573.98
1261.658, 40490.42
1262.140, 40455.49
1262.622, 40498.97
1263.104, 40503.29
1263.586, 40377.67
1264.068, 40286.84
1264.550, 40316.02
1265.033, 40343.09
1265.515, 40283.10
1265.997, 40207.40
1266.479, 40196.86
1266.961, 40237.33
1267.443, 40265.59
1267.925, 40276.42
1268.407, 40308.02
1268.890, 40363.05
1269.372, 40408.32
1269.854, 40435.96
1270.336, 40469.35
1270.818, 40521.65
1271.300, 40584.79
1271.782, 40663.89
1272.264, 40708.68
1272.746, 40872.09
1273.229, 40983.38
1273.711, 41137.40
1274.193, 41321.71
1274.675, 41480.50
1275.157, 41703.82
1275.639, 41910.35
1276.121, 42057.36
1276.603, 42210.34
1277.085, 42396.19
1277.568, 42602.22
1278.050, 42839.91
1278.532, 43077.80
1279.014, 43276.72
1279.496, 43463.54
1279.978, 43693.63
1280.460, 43967.19
1280.942, 44233.94
1281.425, 44493.99
1281.907, 44750.59
1282.389, 45005.82
1282.871, 45250.17
1283.353, 45484.20
1283.835, 45682.50
1284.317, 45816.77
1284.799, 45941.32
1285.281, 46163.61
1285.764, 46440.27
1286.246, 46663.54
1286.728, 46848.89
1287.210, 47040.36
1287.692, 47231.32
1288.174, 47390.59
1288.656, 47494.95
##END=



