##NAMES=Brendelite
##RRUFFID=R130059
##IDEAL CHEMISTRY=(Bi^3+^,Pb^2+^)_2_(Fe^3+^,Fe^2+^)O_2_(OH)PO_4_
##LOCALITY=Güldener Falk mine, Neustädtel, Schneeberg District, Erzgebirge, Saxony, Germany
##OWNER=RRUFF
##SOURCE=William W. Pinch
##DESCRIPTION=Tabular brown crystals, associated with eulytine
##STATUS=The identification of this mineral has been confirmed by single-crystal X-ray diffraction.
##URL=rruff.info/R130059
8.936163e+001, 0.000000e+000
8.984375e+001, 2.177295e+002
9.032587e+001, 2.184210e+002
9.080798e+001, 2.186320e+002
9.129010e+001, 2.184165e+002
9.177222e+001, 2.176490e+002
9.225433e+001, 2.161611e+002
9.273645e+001, 2.139630e+002
9.321857e+001, 2.111795e+002
9.370068e+001, 2.074232e+002
9.418280e+001, 2.030626e+002
9.466492e+001, 1.993582e+002
9.514703e+001, 1.968972e+002
9.562915e+001, 1.953561e+002
9.611127e+001, 1.938225e+002
9.659338e+001, 1.923165e+002
9.707550e+001, 1.907627e+002
9.755762e+001, 1.889413e+002
9.803973e+001, 1.868359e+002
9.852185e+001, 1.849555e+002
9.900397e+001, 1.835963e+002
9.948608e+001, 1.827675e+002
9.996820e+001, 1.818498e+002
1.004503e+002, 1.809377e+002
1.009324e+002, 1.798092e+002
1.014146e+002, 1.777883e+002
1.018967e+002, 1.744556e+002
1.023788e+002, 1.713780e+002
1.028609e+002, 1.694199e+002
1.033430e+002, 1.689236e+002
1.038251e+002, 1.685640e+002
1.043073e+002, 1.685321e+002
1.047894e+002, 1.686144e+002
1.052715e+002, 1.676429e+002
1.057536e+002, 1.651064e+002
1.062357e+002, 1.620713e+002
1.067178e+002, 1.591537e+002
1.072000e+002, 1.557946e+002
1.076821e+002, 1.534210e+002
1.081642e+002, 1.526273e+002
1.086463e+002, 1.535748e+002
1.091284e+002, 1.538629e+002
1.096105e+002, 1.534628e+002
1.100927e+002, 1.524109e+002
1.105748e+002, 1.507477e+002
1.110569e+002, 1.473596e+002
1.115390e+002, 1.444090e+002
1.120211e+002, 1.425614e+002
1.125032e+002, 1.422018e+002
1.129854e+002, 1.416029e+002
1.134675e+002, 1.405354e+002
1.139496e+002, 1.390990e+002
1.144317e+002, 1.374191e+002
1.149138e+002, 1.348253e+002
1.153959e+002, 1.325242e+002
1.158781e+002, 1.312523e+002
1.163602e+002, 1.318399e+002
1.168423e+002, 1.319091e+002
1.173244e+002, 1.301080e+002
1.178065e+002, 1.270879e+002
1.182886e+002, 1.245065e+002
1.187708e+002, 1.234495e+002
1.192529e+002, 1.229095e+002
1.197350e+002, 1.220687e+002
1.202171e+002, 1.202071e+002
1.206992e+002, 1.186048e+002
1.211813e+002, 1.185076e+002
1.216635e+002, 1.196248e+002
1.221456e+002, 1.203552e+002
1.226277e+002, 1.194697e+002
1.231098e+002, 1.176544e+002
1.235919e+002, 1.158067e+002
1.240740e+002, 1.140452e+002
1.245562e+002, 1.125074e+002
1.250383e+002, 1.114958e+002
1.255204e+002, 1.110022e+002
1.260025e+002, 1.105178e+002
1.264846e+002, 1.092568e+002
1.269667e+002, 1.076181e+002
1.274489e+002, 1.065993e+002
1.279310e+002, 1.074008e+002
1.284131e+002, 1.089894e+002
1.288952e+002, 1.092379e+002
1.293773e+002, 1.079475e+002
1.298594e+002, 1.059954e+002
1.303416e+002, 1.042136e+002
1.308237e+002, 1.026294e+002
1.313058e+002, 1.013232e+002
1.317879e+002, 1.004256e+002
1.322700e+002, 9.987488e+001
1.327521e+002, 9.937879e+001
1.332343e+002, 9.891678e+001
1.337164e+002, 9.849695e+001
1.341985e+002, 9.815823e+001
1.346806e+002, 9.791212e+001
1.351627e+002, 9.759392e+001
1.356448e+002, 9.712087e+001
1.361270e+002, 9.649189e+001
1.366091e+002, 9.567762e+001
1.370912e+002, 9.460183e+001
1.375733e+002, 9.337650e+001
1.380554e+002, 9.229561e+001
1.385375e+002, 9.136012e+001
1.390197e+002, 9.055997e+001
1.395018e+002, 8.989343e+001
1.399839e+002, 8.938802e+001
1.404660e+002, 8.891729e+001
1.409481e+002, 8.843204e+001
1.414302e+002, 8.794807e+001
1.419124e+002, 8.770227e+001
1.423945e+002, 8.789902e+001
1.428766e+002, 8.805473e+001
1.433587e+002, 8.764206e+001
1.438408e+002, 8.638133e+001
1.443229e+002, 8.512843e+001
1.448051e+002, 8.406834e+001
1.452872e+002, 8.320852e+001
1.457693e+002, 8.238085e+001
1.462514e+002, 8.146650e+001
1.467335e+002, 8.064629e+001
1.472156e+002, 8.015919e+001
1.476978e+002, 8.032899e+001
1.481799e+002, 8.043822e+001
1.486620e+002, 8.027840e+001
1.491441e+002, 7.970638e+001
1.496262e+002, 7.925852e+001
1.501083e+002, 7.908496e+001
1.505905e+002, 7.901779e+001
1.510726e+002, 7.875907e+001
1.515547e+002, 7.802238e+001
1.520368e+002, 7.734506e+001
1.525189e+002, 7.692286e+001
1.530010e+002, 7.709811e+001
1.534832e+002, 7.694083e+001
1.539653e+002, 7.621831e+001
1.544474e+002, 7.511333e+001
1.549295e+002, 7.406478e+001
1.554116e+002, 7.310086e+001
1.558937e+002, 7.222263e+001
1.563759e+002, 7.143167e+001
1.568580e+002, 7.062724e+001
1.573401e+002, 7.004570e+001
1.578222e+002, 6.977390e+001
1.583043e+002, 6.977261e+001
1.587864e+002, 6.989701e+001
1.592686e+002, 7.025527e+001
1.597507e+002, 7.064118e+001
1.602328e+002, 7.092416e+001
1.607149e+002, 7.111577e+001
1.611970e+002, 7.115776e+001
1.616791e+002, 7.070814e+001
1.621613e+002, 6.991887e+001
1.626434e+002, 6.975883e+001
1.631255e+002, 7.148212e+001
1.636076e+002, 7.364768e+001
1.640897e+002, 7.497181e+001
1.645718e+002, 7.444981e+001
1.650540e+002, 7.347908e+001
1.655361e+002, 7.263508e+001
1.660182e+002, 7.192286e+001
1.665003e+002, 7.134489e+001
1.669824e+002, 7.075481e+001
1.674645e+002, 7.032977e+001
1.679467e+002, 7.029248e+001
1.684288e+002, 7.091177e+001
1.689109e+002, 7.181812e+001
1.693930e+002, 7.270483e+001
1.698751e+002, 7.355562e+001
1.703572e+002, 7.466408e+001
1.708394e+002, 7.631826e+001
1.713215e+002, 7.837532e+001
1.718036e+002, 8.056384e+001
1.722857e+002, 8.281361e+001
1.727678e+002, 8.513255e+001
1.732499e+002, 8.735937e+001
1.737321e+002, 8.942794e+001
1.742142e+002, 9.199718e+001
1.746963e+002, 9.605245e+001
1.751784e+002, 1.011204e+002
1.756605e+002, 1.061006e+002
1.761426e+002, 1.101111e+002
1.766248e+002, 1.137671e+002
1.771069e+002, 1.179726e+002
1.775890e+002, 1.229353e+002
1.780711e+002, 1.279799e+002
1.785532e+002, 1.323301e+002
1.790353e+002, 1.361639e+002
1.795175e+002, 1.399489e+002
1.799996e+002, 1.441575e+002
1.804817e+002, 1.484899e+002
1.809638e+002, 1.523993e+002
1.814459e+002, 1.557518e+002
1.819280e+002, 1.588808e+002
1.824102e+002, 1.622693e+002
1.828923e+002, 1.658410e+002
1.833744e+002, 1.695205e+002
1.838565e+002, 1.732759e+002
1.843386e+002, 1.770881e+002
1.848207e+002, 1.806681e+002
1.853029e+002, 1.838240e+002
1.857850e+002, 1.870835e+002
1.862671e+002, 1.914659e+002
1.867492e+002, 1.969264e+002
1.872313e+002, 2.028357e+002
1.877134e+002, 2.086908e+002
1.881956e+002, 2.146292e+002
1.886777e+002, 2.210492e+002
1.891598e+002, 2.281698e+002
1.896419e+002, 2.357292e+002
1.901240e+002, 2.430700e+002
1.906061e+002, 2.502608e+002
1.910883e+002, 2.578466e+002
1.915704e+002, 2.664612e+002
1.920525e+002, 2.760892e+002
1.925346e+002, 2.858196e+002
1.930167e+002, 2.954943e+002
1.934988e+002, 3.049612e+002
1.939810e+002, 3.131322e+002
1.944631e+002, 3.196660e+002
1.949452e+002, 3.259710e+002
1.954273e+002, 3.317809e+002
1.959094e+002, 3.371115e+002
1.963915e+002, 3.428604e+002
1.968737e+002, 3.494943e+002
1.973558e+002, 3.565327e+002
1.978379e+002, 3.622020e+002
1.983200e+002, 3.662721e+002
1.988021e+002, 3.700344e+002
1.992842e+002, 3.745245e+002
1.997664e+002, 3.797784e+002
2.002485e+002, 3.853168e+002
2.007306e+002, 3.912171e+002
2.012127e+002, 3.973682e+002
2.016948e+002, 4.032668e+002
2.021769e+002, 4.089318e+002
2.026591e+002, 4.143848e+002
2.031412e+002, 4.194452e+002
2.036233e+002, 4.240502e+002
2.041054e+002, 4.289188e+002
2.045875e+002, 4.339820e+002
2.050696e+002, 4.393463e+002
2.055518e+002, 4.463058e+002
2.060339e+002, 4.552416e+002
2.065160e+002, 4.648598e+002
2.069981e+002, 4.739233e+002
2.074802e+002, 4.822881e+002
2.079623e+002, 4.903636e+002
2.084445e+002, 4.979975e+002
2.089266e+002, 5.052738e+002
2.094087e+002, 5.135499e+002
2.098908e+002, 5.230450e+002
2.103729e+002, 5.331950e+002
2.108550e+002, 5.434574e+002
2.113372e+002, 5.537059e+002
2.118193e+002, 5.641724e+002
2.123014e+002, 5.750607e+002
2.127835e+002, 5.862811e+002
2.132656e+002, 5.971443e+002
2.137477e+002, 6.076592e+002
2.142299e+002, 6.178613e+002
2.147120e+002, 6.275347e+002
2.151941e+002, 6.364828e+002
2.156762e+002, 6.456797e+002
2.161583e+002, 6.555477e+002
2.166404e+002, 6.660371e+002
2.171226e+002, 6.764016e+002
2.176047e+002, 6.867928e+002
2.180868e+002, 6.968870e+002
2.185689e+002, 7.064730e+002
2.190510e+002, 7.156703e+002
2.195331e+002, 7.241891e+002
2.200153e+002, 7.319710e+002
2.204974e+002, 7.389868e+002
2.209795e+002, 7.461277e+002
2.214616e+002, 7.538988e+002
2.219437e+002, 7.613734e+002
2.224258e+002, 7.674916e+002
2.229080e+002, 7.718956e+002
2.233901e+002, 7.756724e+002
2.238722e+002, 7.790636e+002
2.243543e+002, 7.821589e+002
2.248364e+002, 7.844619e+002
2.253185e+002, 7.859349e+002
2.258007e+002, 7.866142e+002
2.262828e+002, 7.866328e+002
2.267649e+002, 7.863326e+002
2.272470e+002, 7.846337e+002
2.277291e+002, 7.811744e+002
2.282112e+002, 7.757661e+002
2.286934e+002, 7.696075e+002
2.291755e+002, 7.625689e+002
2.296576e+002, 7.548895e+002
2.301397e+002, 7.471097e+002
2.306218e+002, 7.396415e+002
2.311039e+002, 7.311345e+002
2.315861e+002, 7.212483e+002
2.320682e+002, 7.096929e+002
2.325503e+002, 6.979446e+002
2.330324e+002, 6.859621e+002
2.335145e+002, 6.739067e+002
2.339966e+002, 6.617860e+002
2.344788e+002, 6.495723e+002
2.349609e+002, 6.375133e+002
2.354430e+002, 6.257377e+002
2.359251e+002, 6.143176e+002
2.364072e+002, 6.026398e+002
2.368893e+002, 5.905276e+002
2.373715e+002, 5.782849e+002
2.378536e+002, 5.663035e+002
2.383357e+002, 5.543663e+002
2.388178e+002, 5.428050e+002
2.392999e+002, 5.316401e+002
2.397820e+002, 5.209686e+002
2.402642e+002, 5.106087e+002
2.407463e+002, 5.004361e+002
2.412284e+002, 4.906555e+002
2.417105e+002, 4.815944e+002
2.421926e+002, 4.737103e+002
2.426747e+002, 4.657146e+002
2.431569e+002, 4.572514e+002
2.436390e+002, 4.481715e+002
2.441211e+002, 4.395822e+002
2.446032e+002, 4.314955e+002
2.450853e+002, 4.238158e+002
2.455674e+002, 4.164177e+002
2.460496e+002, 4.091767e+002
2.465317e+002, 4.024479e+002
2.470138e+002, 3.963846e+002
2.474959e+002, 3.910381e+002
2.479780e+002, 3.855482e+002
2.484601e+002, 3.796957e+002
2.489423e+002, 3.738839e+002
2.494244e+002, 3.685785e+002
2.499065e+002, 3.639802e+002
2.503886e+002, 3.594949e+002
2.508707e+002, 3.548764e+002
2.513528e+002, 3.501304e+002
2.518350e+002, 3.460730e+002
2.523171e+002, 3.430634e+002
2.527992e+002, 3.403980e+002
2.532813e+002, 3.372326e+002
2.537634e+002, 3.329655e+002
2.542455e+002, 3.295913e+002
2.547277e+002, 3.278223e+002
2.552098e+002, 3.276860e+002
2.556919e+002, 3.267115e+002
2.561740e+002, 3.246067e+002
2.566561e+002, 3.220227e+002
2.571382e+002, 3.195544e+002
2.576204e+002, 3.171238e+002
2.581025e+002, 3.149568e+002
2.585846e+002, 3.132157e+002
2.590667e+002, 3.118630e+002
2.595488e+002, 3.101738e+002
2.600309e+002, 3.078985e+002
2.605131e+002, 3.057036e+002
2.609952e+002, 3.043205e+002
2.614773e+002, 3.041334e+002
2.619594e+002, 3.036430e+002
2.624415e+002, 3.024828e+002
2.629236e+002, 3.007417e+002
2.634058e+002, 2.994489e+002
2.638879e+002, 2.987469e+002
2.643700e+002, 2.982355e+002
2.648521e+002, 2.975863e+002
2.653342e+002, 2.967677e+002
2.658163e+002, 2.959445e+002
2.662985e+002, 2.951678e+002
2.667806e+002, 2.944149e+002
2.672627e+002, 2.934584e+002
2.677448e+002, 2.921309e+002
2.682269e+002, 2.909590e+002
2.687090e+002, 2.904442e+002
2.691912e+002, 2.908031e+002
2.696733e+002, 2.908305e+002
2.701554e+002, 2.902745e+002
2.706375e+002, 2.892997e+002
2.711196e+002, 2.885163e+002
2.716017e+002, 2.878477e+002
2.720839e+002, 2.875728e+002
2.725660e+002, 2.880568e+002
2.730481e+002, 2.894697e+002
2.735302e+002, 2.905370e+002
2.740123e+002, 2.911360e+002
2.744944e+002, 2.913281e+002
2.749766e+002, 2.912011e+002
2.754587e+002, 2.906595e+002
2.759408e+002, 2.901836e+002
2.764229e+002, 2.900641e+002
2.769050e+002, 2.903137e+002
2.773871e+002, 2.907860e+002
2.778693e+002, 2.915410e+002
2.783514e+002, 2.924377e+002
2.788335e+002, 2.931371e+002
2.793156e+002, 2.936120e+002
2.797977e+002, 2.940927e+002
2.802798e+002, 2.947971e+002
2.807620e+002, 2.957218e+002
2.812441e+002, 2.962841e+002
2.817262e+002, 2.963654e+002
2.822083e+002, 2.962319e+002
2.826904e+002, 2.962395e+002
2.831725e+002, 2.963676e+002
2.836547e+002, 2.968946e+002
2.841368e+002, 2.981309e+002
2.846189e+002, 2.999968e+002
2.851010e+002, 3.017115e+002
2.855831e+002, 3.032753e+002
2.860652e+002, 3.046362e+002
2.865474e+002, 3.056279e+002
2.870295e+002, 3.062582e+002
2.875116e+002, 3.069056e+002
2.879937e+002, 3.075967e+002
2.884758e+002, 3.084081e+002
2.889579e+002, 3.098317e+002
2.894401e+002, 3.119687e+002
2.899222e+002, 3.142637e+002
2.904043e+002, 3.160467e+002
2.908864e+002, 3.173645e+002
2.913685e+002, 3.185853e+002
2.918506e+002, 3.197419e+002
2.923328e+002, 3.209139e+002
2.928149e+002, 3.223666e+002
2.932970e+002, 3.241283e+002
2.937791e+002, 3.258998e+002
2.942612e+002, 3.273026e+002
2.947433e+002, 3.284245e+002
2.952255e+002, 3.295961e+002
2.957076e+002, 3.309407e+002
2.961897e+002, 3.323867e+002
2.966718e+002, 3.336651e+002
2.971539e+002, 3.347793e+002
2.976360e+002, 3.361171e+002
2.981182e+002, 3.383786e+002
2.986003e+002, 3.411236e+002
2.990824e+002, 3.432565e+002
2.995645e+002, 3.442141e+002
3.000466e+002, 3.447165e+002
3.005287e+002, 3.457783e+002
3.010109e+002, 3.473390e+002
3.014930e+002, 3.490185e+002
3.019751e+002, 3.506664e+002
3.024572e+002, 3.522186e+002
3.029393e+002, 3.535172e+002
3.034214e+002, 3.545038e+002
3.039036e+002, 3.553101e+002
3.043857e+002, 3.559928e+002
3.048678e+002, 3.565926e+002
3.053499e+002, 3.572697e+002
3.058320e+002, 3.581444e+002
3.063141e+002, 3.591413e+002
3.067963e+002, 3.602117e+002
3.072784e+002, 3.614450e+002
3.077605e+002, 3.624967e+002
3.082426e+002, 3.630050e+002
3.087247e+002, 3.631029e+002
3.092068e+002, 3.631120e+002
3.096890e+002, 3.629338e+002
3.101711e+002, 3.628786e+002
3.106532e+002, 3.634449e+002
3.111353e+002, 3.648843e+002
3.116174e+002, 3.658385e+002
3.120995e+002, 3.651168e+002
3.125817e+002, 3.633650e+002
3.130638e+002, 3.616263e+002
3.135459e+002, 3.605075e+002
3.140280e+002, 3.593801e+002
3.145101e+002, 3.578092e+002
3.149922e+002, 3.557540e+002
3.154744e+002, 3.536553e+002
3.159565e+002, 3.517299e+002
3.164386e+002, 3.498922e+002
3.169207e+002, 3.480691e+002
3.174028e+002, 3.465654e+002
3.178849e+002, 3.447655e+002
3.183671e+002, 3.422630e+002
3.188492e+002, 3.390763e+002
3.193313e+002, 3.360244e+002
3.198134e+002, 3.335769e+002
3.202955e+002, 3.312571e+002
3.207776e+002, 3.287136e+002
3.212598e+002, 3.255795e+002
3.217419e+002, 3.224871e+002
3.222240e+002, 3.196623e+002
3.227061e+002, 3.170314e+002
3.231882e+002, 3.142202e+002
3.236703e+002, 3.107128e+002
3.241525e+002, 3.072928e+002
3.246346e+002, 3.044404e+002
3.251167e+002, 3.027370e+002
3.255988e+002, 3.008397e+002
3.260809e+002, 2.986289e+002
3.265630e+002, 2.961439e+002
3.270452e+002, 2.934784e+002
3.275273e+002, 2.901532e+002
3.280094e+002, 2.871046e+002
3.284915e+002, 2.846939e+002
3.289736e+002, 2.832728e+002
3.294557e+002, 2.817751e+002
3.299379e+002, 2.802977e+002
3.304200e+002, 2.787043e+002
3.309021e+002, 2.767738e+002
3.313842e+002, 2.740806e+002
3.318663e+002, 2.715857e+002
3.323484e+002, 2.695134e+002
3.328306e+002, 2.679165e+002
3.333127e+002, 2.666628e+002
3.337948e+002, 2.660950e+002
3.342769e+002, 2.655557e+002
3.347590e+002, 2.642234e+002
3.352411e+002, 2.615414e+002
3.357233e+002, 2.593017e+002
3.362054e+002, 2.579609e+002
3.366875e+002, 2.574601e+002
3.371696e+002, 2.570313e+002
3.376517e+002, 2.567672e+002
3.381339e+002, 2.564094e+002
3.386160e+002, 2.556956e+002
3.390981e+002, 2.545305e+002
3.395802e+002, 2.534591e+002
3.400623e+002, 2.525339e+002
3.405444e+002, 2.517668e+002
3.410266e+002, 2.513363e+002
3.415087e+002, 2.513184e+002
3.419908e+002, 2.512239e+002
3.424729e+002, 2.506141e+002
3.429550e+002, 2.494948e+002
3.434371e+002, 2.487118e+002
3.439193e+002, 2.483932e+002
3.444014e+002, 2.483268e+002
3.448835e+002, 2.481606e+002
3.453656e+002, 2.478956e+002
3.458477e+002, 2.476305e+002
3.463298e+002, 2.474936e+002
3.468120e+002, 2.474186e+002
3.472941e+002, 2.470251e+002
3.477762e+002, 2.462400e+002
3.482583e+002, 2.454879e+002
3.487404e+002, 2.453427e+002
3.492225e+002, 2.456934e+002
3.497047e+002, 2.460619e+002
3.501868e+002, 2.462730e+002
3.506689e+002, 2.463839e+002
3.511510e+002, 2.464761e+002
3.516331e+002, 2.465488e+002
3.521152e+002, 2.466361e+002
3.525974e+002, 2.467561e+002
3.530795e+002, 2.469098e+002
3.535616e+002, 2.471199e+002
3.540437e+002, 2.474929e+002
3.545258e+002, 2.477930e+002
3.550079e+002, 2.475654e+002
3.554901e+002, 2.469690e+002
3.559722e+002, 2.467076e+002
3.564543e+002, 2.476611e+002
3.569364e+002, 2.489607e+002
3.574185e+002, 2.496573e+002
3.579006e+002, 2.493773e+002
3.583828e+002, 2.490403e+002
3.588649e+002, 2.491435e+002
3.593470e+002, 2.496088e+002
3.598291e+002, 2.502749e+002
3.603112e+002, 2.515956e+002
3.607933e+002, 2.527015e+002
3.612755e+002, 2.529108e+002
3.617576e+002, 2.520142e+002
3.622397e+002, 2.513078e+002
3.627218e+002, 2.512842e+002
3.632039e+002, 2.517068e+002
3.636860e+002, 2.523120e+002
3.641682e+002, 2.532088e+002
3.646503e+002, 2.541103e+002
3.651324e+002, 2.547956e+002
3.656145e+002, 2.552897e+002
3.660966e+002, 2.561280e+002
3.665787e+002, 2.579608e+002
3.670609e+002, 2.598148e+002
3.675430e+002, 2.610667e+002
3.680251e+002, 2.609684e+002
3.685072e+002, 2.610964e+002
3.689893e+002, 2.615956e+002
3.694714e+002, 2.624010e+002
3.699536e+002, 2.633047e+002
3.704357e+002, 2.643725e+002
3.709178e+002, 2.654740e+002
3.713999e+002, 2.665135e+002
3.718820e+002, 2.673410e+002
3.723641e+002, 2.685421e+002
3.728463e+002, 2.703301e+002
3.733284e+002, 2.723360e+002
3.738105e+002, 2.739965e+002
3.742926e+002, 2.752024e+002
3.747747e+002, 2.762948e+002
3.752568e+002, 2.772628e+002
3.757390e+002, 2.781044e+002
3.762211e+002, 2.795703e+002
3.767032e+002, 2.819337e+002
3.771853e+002, 2.843763e+002
3.776674e+002, 2.859883e+002
3.781495e+002, 2.866297e+002
3.786317e+002, 2.877751e+002
3.791138e+002, 2.898658e+002
3.795959e+002, 2.925570e+002
3.800780e+002, 2.948922e+002
3.805601e+002, 2.968494e+002
3.810422e+002, 2.985844e+002
3.815244e+002, 3.001324e+002
3.820065e+002, 3.015385e+002
3.824886e+002, 3.029251e+002
3.829707e+002, 3.042894e+002
3.834528e+002, 3.057346e+002
3.839349e+002, 3.076234e+002
3.844171e+002, 3.098415e+002
3.848992e+002, 3.117427e+002
3.853813e+002, 3.128319e+002
3.858634e+002, 3.134853e+002
3.863455e+002, 3.144480e+002
3.868276e+002, 3.157530e+002
3.873098e+002, 3.169109e+002
3.877919e+002, 3.174888e+002
3.882740e+002, 3.176317e+002
3.887561e+002, 3.175972e+002
3.892382e+002, 3.173990e+002
3.897203e+002, 3.171222e+002
3.902025e+002, 3.168219e+002
3.906846e+002, 3.164981e+002
3.911667e+002, 3.161526e+002
3.916488e+002, 3.161323e+002
3.921309e+002, 3.159002e+002
3.926130e+002, 3.149052e+002
3.930952e+002, 3.126915e+002
3.935773e+002, 3.105229e+002
3.940594e+002, 3.092944e+002
3.945415e+002, 3.084627e+002
3.950236e+002, 3.070173e+002
3.955057e+002, 3.040019e+002
3.959879e+002, 3.008924e+002
3.964700e+002, 2.982587e+002
3.969521e+002, 2.961869e+002
3.974342e+002, 2.943219e+002
3.979163e+002, 2.929529e+002
3.983984e+002, 2.916050e+002
3.988806e+002, 2.898447e+002
3.993627e+002, 2.870086e+002
3.998448e+002, 2.844871e+002
4.003269e+002, 2.825028e+002
4.008090e+002, 2.809909e+002
4.012911e+002, 2.795545e+002
4.017733e+002, 2.783232e+002
4.022554e+002, 2.769996e+002
4.027375e+002, 2.753669e+002
4.032196e+002, 2.731226e+002
4.037017e+002, 2.713530e+002
4.041838e+002, 2.702495e+002
4.046660e+002, 2.695016e+002
4.051481e+002, 2.685286e+002
4.056302e+002, 2.672469e+002
4.061123e+002, 2.660343e+002
4.065944e+002, 2.650615e+002
4.070765e+002, 2.643092e+002
4.075587e+002, 2.633747e+002
4.080408e+002, 2.621690e+002
4.085229e+002, 2.610912e+002
4.090050e+002, 2.607166e+002
4.094871e+002, 2.609827e+002
4.099692e+002, 2.609489e+002
4.104514e+002, 2.602695e+002
4.109335e+002, 2.593236e+002
4.114156e+002, 2.589942e+002
4.118977e+002, 2.592281e+002
4.123798e+002, 2.593833e+002
4.128619e+002, 2.588456e+002
4.133441e+002, 2.579652e+002
4.138262e+002, 2.574655e+002
4.143083e+002, 2.574852e+002
4.147904e+002, 2.575993e+002
4.152725e+002, 2.574671e+002
4.157546e+002, 2.571214e+002
4.162368e+002, 2.566232e+002
4.167189e+002, 2.556087e+002
4.172010e+002, 2.547394e+002
4.176831e+002, 2.547123e+002
4.181652e+002, 2.554816e+002
4.186473e+002, 2.561546e+002
4.191295e+002, 2.561796e+002
4.196116e+002, 2.559179e+002
4.200937e+002, 2.556818e+002
4.205758e+002, 2.555226e+002
4.210579e+002, 2.554285e+002
4.215400e+002, 2.554654e+002
4.220222e+002, 2.555663e+002
4.225043e+002, 2.555669e+002
4.229864e+002, 2.552451e+002
4.234685e+002, 2.549825e+002
4.239506e+002, 2.549987e+002
4.244327e+002, 2.554923e+002
4.249149e+002, 2.556308e+002
4.253970e+002, 2.550354e+002
4.258791e+002, 2.542694e+002
4.263612e+002, 2.538985e+002
4.268433e+002, 2.542290e+002
4.273254e+002, 2.544678e+002
4.278076e+002, 2.544872e+002
4.282897e+002, 2.543089e+002
4.287718e+002, 2.540900e+002
4.292539e+002, 2.538118e+002
4.297360e+002, 2.535251e+002
4.302181e+002, 2.532396e+002
4.307003e+002, 2.529352e+002
4.311824e+002, 2.527599e+002
4.316645e+002, 2.527426e+002
4.321466e+002, 2.528167e+002
4.326287e+002, 2.529129e+002
4.331108e+002, 2.530352e+002
4.335930e+002, 2.530653e+002
4.340751e+002, 2.529816e+002
4.345572e+002, 2.527740e+002
4.350393e+002, 2.523405e+002
4.355214e+002, 2.516801e+002
4.360035e+002, 2.510198e+002
4.364857e+002, 2.506142e+002
4.369678e+002, 2.503709e+002
4.374499e+002, 2.500090e+002
4.379320e+002, 2.493511e+002
4.384141e+002, 2.487881e+002
4.388962e+002, 2.489392e+002
4.393784e+002, 2.495707e+002
4.398605e+002, 2.500004e+002
4.403426e+002, 2.496186e+002
4.408247e+002, 2.490280e+002
4.413068e+002, 2.488407e+002
4.417889e+002, 2.491610e+002
4.422711e+002, 2.492010e+002
4.427532e+002, 2.482308e+002
4.432353e+002, 2.469098e+002
4.437174e+002, 2.459227e+002
4.441995e+002, 2.456082e+002
4.446816e+002, 2.454966e+002
4.451638e+002, 2.456008e+002
4.456459e+002, 2.458434e+002
4.461280e+002, 2.458833e+002
4.466101e+002, 2.452968e+002
4.470922e+002, 2.448075e+002
4.475743e+002, 2.448152e+002
4.480565e+002, 2.457509e+002
4.485386e+002, 2.460787e+002
4.490207e+002, 2.454048e+002
4.495028e+002, 2.443692e+002
4.499849e+002, 2.438307e+002
4.504670e+002, 2.440261e+002
4.509492e+002, 2.441836e+002
4.514313e+002, 2.441436e+002
4.519134e+002, 2.439287e+002
4.523955e+002, 2.436375e+002
4.528776e+002, 2.432208e+002
4.533597e+002, 2.429262e+002
4.538419e+002, 2.429928e+002
4.543240e+002, 2.434104e+002
4.548061e+002, 2.437174e+002
4.552882e+002, 2.438217e+002
4.557703e+002, 2.439404e+002
4.562524e+002, 2.444668e+002
4.567346e+002, 2.453488e+002
4.572167e+002, 2.461936e+002
4.576988e+002, 2.470095e+002
4.581809e+002, 2.476170e+002
4.586630e+002, 2.475340e+002
4.591451e+002, 2.468035e+002
4.596273e+002, 2.461424e+002
4.601094e+002, 2.460954e+002
4.605915e+002, 2.464459e+002
4.610736e+002, 2.469269e+002
4.615557e+002, 2.475057e+002
4.620378e+002, 2.481590e+002
4.625200e+002, 2.490831e+002
4.630021e+002, 2.500653e+002
4.634842e+002, 2.506696e+002
4.639663e+002, 2.499369e+002
4.644484e+002, 2.494794e+002
4.649305e+002, 2.503507e+002
4.654127e+002, 2.526942e+002
4.658948e+002, 2.545227e+002
4.663769e+002, 2.550882e+002
4.668590e+002, 2.551914e+002
4.673411e+002, 2.554046e+002
4.678232e+002, 2.557114e+002
4.683054e+002, 2.562093e+002
4.687875e+002, 2.570042e+002
4.692696e+002, 2.579659e+002
4.697517e+002, 2.587760e+002
4.702338e+002, 2.593626e+002
4.707159e+002, 2.599075e+002
4.711981e+002, 2.603988e+002
4.716802e+002, 2.608188e+002
4.721623e+002, 2.617107e+002
4.726444e+002, 2.632039e+002
4.731265e+002, 2.647822e+002
4.736086e+002, 2.658665e+002
4.740908e+002, 2.664649e+002
4.745729e+002, 2.671240e+002
4.750550e+002, 2.679679e+002
4.755371e+002, 2.688754e+002
4.760192e+002, 2.695647e+002
4.765013e+002, 2.700719e+002
4.769835e+002, 2.706654e+002
4.774656e+002, 2.716206e+002
4.779477e+002, 2.727162e+002
4.784298e+002, 2.735286e+002
4.789119e+002, 2.740300e+002
4.793940e+002, 2.745938e+002
4.798762e+002, 2.757027e+002
4.803583e+002, 2.769923e+002
4.808404e+002, 2.779720e+002
4.813225e+002, 2.783251e+002
4.818046e+002, 2.785963e+002
4.822867e+002, 2.790972e+002
4.827689e+002, 2.797410e+002
4.832510e+002, 2.802980e+002
4.837331e+002, 2.807611e+002
4.842152e+002, 2.810747e+002
4.846973e+002, 2.811361e+002
4.851794e+002, 2.808463e+002
4.856616e+002, 2.808080e+002
4.861437e+002, 2.813126e+002
4.866258e+002, 2.819439e+002
4.871079e+002, 2.823832e+002
4.875900e+002, 2.824958e+002
4.880721e+002, 2.826360e+002
4.885543e+002, 2.827689e+002
4.890364e+002, 2.829630e+002
4.895185e+002, 2.835285e+002
4.900006e+002, 2.846599e+002
4.904827e+002, 2.855047e+002
4.909648e+002, 2.855514e+002
4.914470e+002, 2.848489e+002
4.919291e+002, 2.844772e+002
4.924112e+002, 2.845006e+002
4.928933e+002, 2.845555e+002
4.933754e+002, 2.841692e+002
4.938575e+002, 2.834669e+002
4.943397e+002, 2.829941e+002
4.948218e+002, 2.828831e+002
4.953039e+002, 2.830457e+002
4.957860e+002, 2.835776e+002
4.962681e+002, 2.843365e+002
4.967502e+002, 2.848273e+002
4.972324e+002, 2.846497e+002
4.977145e+002, 2.841722e+002
4.981966e+002, 2.836649e+002
4.986787e+002, 2.831391e+002
4.991608e+002, 2.827312e+002
4.996429e+002, 2.824235e+002
5.001251e+002, 2.823034e+002
5.006072e+002, 2.824670e+002
5.010893e+002, 2.834137e+002
5.015714e+002, 2.839693e+002
5.020535e+002, 2.835179e+002
5.025356e+002, 2.825097e+002
5.030178e+002, 2.819786e+002
5.034999e+002, 2.825834e+002
5.039820e+002, 2.830391e+002
5.044641e+002, 2.830279e+002
5.049462e+002, 2.825443e+002
5.054283e+002, 2.818929e+002
5.059105e+002, 2.809845e+002
5.063926e+002, 2.800648e+002
5.068747e+002, 2.793400e+002
5.073568e+002, 2.788504e+002
5.078389e+002, 2.782511e+002
5.083210e+002, 2.773922e+002
5.088032e+002, 2.766393e+002
5.092853e+002, 2.768968e+002
5.097674e+002, 2.780853e+002
5.102495e+002, 2.789051e+002
5.107316e+002, 2.786400e+002
5.112137e+002, 2.777272e+002
5.116959e+002, 2.770865e+002
5.121780e+002, 2.767012e+002
5.126601e+002, 2.763246e+002
5.131422e+002, 2.756284e+002
5.136243e+002, 2.748919e+002
5.141064e+002, 2.745380e+002
5.145886e+002, 2.747513e+002
5.150707e+002, 2.749438e+002
5.155528e+002, 2.747653e+002
5.160349e+002, 2.743379e+002
5.165170e+002, 2.738351e+002
5.169991e+002, 2.729213e+002
5.174813e+002, 2.723453e+002
5.179634e+002, 2.725325e+002
5.184455e+002, 2.733876e+002
5.189276e+002, 2.740824e+002
5.194097e+002, 2.745620e+002
5.198918e+002, 2.748189e+002
5.203740e+002, 2.747766e+002
5.208561e+002, 2.742368e+002
5.213382e+002, 2.740372e+002
5.218203e+002, 2.742184e+002
5.223024e+002, 2.746845e+002
5.227845e+002, 2.753599e+002
5.232667e+002, 2.762654e+002
5.237488e+002, 2.772391e+002
5.242309e+002, 2.782376e+002
5.247130e+002, 2.792778e+002
5.251951e+002, 2.804321e+002
5.256772e+002, 2.817045e+002
5.261594e+002, 2.830255e+002
5.266415e+002, 2.842732e+002
5.271236e+002, 2.855772e+002
5.276057e+002, 2.871854e+002
5.280878e+002, 2.891005e+002
5.285699e+002, 2.913413e+002
5.290521e+002, 2.942055e+002
5.295342e+002, 2.972867e+002
5.300163e+002, 2.999780e+002
5.304984e+002, 3.017566e+002
5.309805e+002, 3.037506e+002
5.314626e+002, 3.066724e+002
5.319448e+002, 3.102240e+002
5.324269e+002, 3.138135e+002
5.329090e+002, 3.171773e+002
5.333911e+002, 3.206665e+002
5.338732e+002, 3.244807e+002
5.343553e+002, 3.285998e+002
5.348375e+002, 3.326974e+002
5.353196e+002, 3.364460e+002
5.358017e+002, 3.404366e+002
5.362838e+002, 3.450323e+002
5.367659e+002, 3.505730e+002
5.372480e+002, 3.558254e+002
5.377302e+002, 3.605839e+002
5.382123e+002, 3.653024e+002
5.386944e+002, 3.707274e+002
5.391765e+002, 3.769859e+002
5.396586e+002, 3.828247e+002
5.401407e+002, 3.878362e+002
5.406229e+002, 3.922267e+002
5.411050e+002, 3.962046e+002
5.415871e+002, 3.997968e+002
5.420692e+002, 4.032022e+002
5.425513e+002, 4.073824e+002
5.430334e+002, 4.111945e+002
5.435156e+002, 4.128932e+002
5.439977e+002, 4.123696e+002
5.444798e+002, 4.102646e+002
5.449619e+002, 4.064244e+002
5.454440e+002, 4.014987e+002
5.459261e+002, 3.961607e+002
5.464083e+002, 3.903091e+002
5.468904e+002, 3.844670e+002
5.473725e+002, 3.784949e+002
5.478546e+002, 3.727215e+002
5.483367e+002, 3.677236e+002
5.488188e+002, 3.640991e+002
5.493010e+002, 3.607194e+002
5.497831e+002, 3.572930e+002
5.502652e+002, 3.538224e+002
5.507473e+002, 3.506489e+002
5.512294e+002, 3.477538e+002
5.517115e+002, 3.451837e+002
5.521937e+002, 3.429148e+002
5.526758e+002, 3.409339e+002
5.531579e+002, 3.394489e+002
5.536400e+002, 3.385074e+002
5.541221e+002, 3.379763e+002
5.546042e+002, 3.378223e+002
5.550864e+002, 3.379839e+002
5.555685e+002, 3.380664e+002
5.560506e+002, 3.379502e+002
5.565327e+002, 3.376972e+002
5.570148e+002, 3.373600e+002
5.574969e+002, 3.369486e+002
5.579791e+002, 3.365070e+002
5.584612e+002, 3.362471e+002
5.589433e+002, 3.358350e+002
5.594254e+002, 3.349272e+002
5.599075e+002, 3.334901e+002
5.603896e+002, 3.320158e+002
5.608718e+002, 3.306116e+002
5.613539e+002, 3.293201e+002
5.618360e+002, 3.281938e+002
5.623181e+002, 3.275266e+002
5.628002e+002, 3.265829e+002
5.632823e+002, 3.251087e+002
5.637645e+002, 3.234453e+002
5.642466e+002, 3.221657e+002
5.647287e+002, 3.215925e+002
5.652108e+002, 3.207041e+002
5.656929e+002, 3.191681e+002
5.661750e+002, 3.171584e+002
5.666572e+002, 3.153731e+002
5.671393e+002, 3.138331e+002
5.676214e+002, 3.124232e+002
5.681035e+002, 3.111951e+002
5.685856e+002, 3.100491e+002
5.690677e+002, 3.084471e+002
5.695499e+002, 3.063518e+002
5.700320e+002, 3.042792e+002
5.705141e+002, 3.028819e+002
5.709962e+002, 3.018097e+002
5.714783e+002, 3.005234e+002
5.719604e+002, 2.989232e+002
5.724426e+002, 2.969877e+002
5.729247e+002, 2.941389e+002
5.734068e+002, 2.910208e+002
5.738889e+002, 2.887221e+002
5.743710e+002, 2.885076e+002
5.748531e+002, 2.882926e+002
5.753353e+002, 2.873861e+002
5.758174e+002, 2.858130e+002
5.762995e+002, 2.841369e+002
5.767816e+002, 2.821088e+002
5.772637e+002, 2.803222e+002
5.777458e+002, 2.791812e+002
5.782280e+002, 2.789675e+002
5.787101e+002, 2.778077e+002
5.791922e+002, 2.754079e+002
5.796743e+002, 2.727053e+002
5.801564e+002, 2.707035e+002
5.806385e+002, 2.693729e+002
5.811207e+002, 2.680305e+002
5.816028e+002, 2.665275e+002
5.820849e+002, 2.650569e+002
5.825670e+002, 2.640055e+002
5.830491e+002, 2.632599e+002
5.835313e+002, 2.624002e+002
5.840134e+002, 2.610750e+002
5.844955e+002, 2.596680e+002
5.849776e+002, 2.586724e+002
5.854597e+002, 2.579789e+002
5.859418e+002, 2.569674e+002
5.864240e+002, 2.548503e+002
5.869061e+002, 2.527165e+002
5.873882e+002, 2.512275e+002
5.878703e+002, 2.506497e+002
5.883524e+002, 2.499874e+002
5.888345e+002, 2.489089e+002
5.893167e+002, 2.478395e+002
5.897988e+002, 2.471551e+002
5.902809e+002, 2.471705e+002
5.907630e+002, 2.468160e+002
5.912451e+002, 2.458808e+002
5.917272e+002, 2.446740e+002
5.922094e+002, 2.437693e+002
5.926915e+002, 2.431881e+002
5.931736e+002, 2.427132e+002
5.936557e+002, 2.423476e+002
5.941378e+002, 2.419925e+002
5.946199e+002, 2.413232e+002
5.951021e+002, 2.403896e+002
5.955842e+002, 2.395469e+002
5.960663e+002, 2.391773e+002
5.965484e+002, 2.389494e+002
5.970305e+002, 2.383942e+002
5.975126e+002, 2.374597e+002
5.979948e+002, 2.366634e+002
5.984769e+002, 2.364241e+002
5.989590e+002, 2.363863e+002
5.994411e+002, 2.362424e+002
5.999232e+002, 2.358530e+002
6.004053e+002, 2.354894e+002
6.008875e+002, 2.352745e+002
6.013696e+002, 2.350811e+002
6.018517e+002, 2.347153e+002
6.023338e+002, 2.340437e+002
6.028159e+002, 2.334942e+002
6.032980e+002, 2.332574e+002
6.037802e+002, 2.331628e+002
6.042623e+002, 2.324408e+002
6.047444e+002, 2.310032e+002
6.052265e+002, 2.297350e+002
6.057086e+002, 2.292331e+002
6.061907e+002, 2.292652e+002
6.066729e+002, 2.290229e+002
6.071550e+002, 2.285095e+002
6.076371e+002, 2.279127e+002
6.081192e+002, 2.272648e+002
6.086013e+002, 2.266736e+002
6.090834e+002, 2.263527e+002
6.095656e+002, 2.264179e+002
6.100477e+002, 2.263899e+002
6.105298e+002, 2.260990e+002
6.110119e+002, 2.255412e+002
6.114940e+002, 2.247063e+002
6.119761e+002, 2.230855e+002
6.124583e+002, 2.218129e+002
6.129404e+002, 2.212769e+002
6.134225e+002, 2.211679e+002
6.139046e+002, 2.207895e+002
6.143867e+002, 2.200588e+002
6.148688e+002, 2.192514e+002
6.153510e+002, 2.184221e+002
6.158331e+002, 2.175752e+002
6.163152e+002, 2.166746e+002
6.167973e+002, 2.156995e+002
6.172794e+002, 2.148621e+002
6.177615e+002, 2.144565e+002
6.182437e+002, 2.142934e+002
6.187258e+002, 2.138744e+002
6.192079e+002, 2.131675e+002
6.196900e+002, 2.121743e+002
6.201721e+002, 2.105711e+002
6.206542e+002, 2.088071e+002
6.211364e+002, 2.075177e+002
6.216185e+002, 2.071058e+002
6.221006e+002, 2.065597e+002
6.225827e+002, 2.052021e+002
6.230648e+002, 2.035107e+002
6.235469e+002, 2.021525e+002
6.240291e+002, 2.014511e+002
6.245112e+002, 2.008566e+002
6.249933e+002, 2.003196e+002
6.254754e+002, 1.998367e+002
6.259575e+002, 1.994810e+002
6.264396e+002, 1.994444e+002
6.269218e+002, 1.989631e+002
6.274039e+002, 1.975316e+002
6.278860e+002, 1.953744e+002
6.283681e+002, 1.938913e+002
6.288502e+002, 1.930973e+002
6.293323e+002, 1.925392e+002
6.298145e+002, 1.918716e+002
6.302966e+002, 1.912029e+002
6.307787e+002, 1.907333e+002
6.312608e+002, 1.904851e+002
6.317429e+002, 1.903703e+002
6.322250e+002, 1.906012e+002
6.327072e+002, 1.908016e+002
6.331893e+002, 1.905052e+002
6.336714e+002, 1.890344e+002
6.341535e+002, 1.880211e+002
6.346356e+002, 1.882564e+002
6.351177e+002, 1.891084e+002
6.355999e+002, 1.895787e+002
6.360820e+002, 1.896267e+002
6.365641e+002, 1.893011e+002
6.370462e+002, 1.884457e+002
6.375283e+002, 1.872659e+002
6.380104e+002, 1.864432e+002
6.384926e+002, 1.860060e+002
6.389747e+002, 1.857124e+002
6.394568e+002, 1.854868e+002
6.399389e+002, 1.853145e+002
6.404210e+002, 1.852308e+002
6.409031e+002, 1.852209e+002
6.413853e+002, 1.850059e+002
6.418674e+002, 1.841397e+002
6.423495e+002, 1.830769e+002
6.428316e+002, 1.823081e+002
6.433137e+002, 1.818698e+002
6.437958e+002, 1.818473e+002
6.442780e+002, 1.828618e+002
6.447601e+002, 1.839856e+002
6.452422e+002, 1.843792e+002
6.457243e+002, 1.832473e+002
6.462064e+002, 1.823941e+002
6.466885e+002, 1.821529e+002
6.471707e+002, 1.820884e+002
6.476528e+002, 1.815549e+002
6.481349e+002, 1.802855e+002
6.486170e+002, 1.793997e+002
6.490991e+002, 1.791468e+002
6.495812e+002, 1.793381e+002
6.500634e+002, 1.795790e+002
6.505455e+002, 1.798678e+002
6.510276e+002, 1.801562e+002
6.515097e+002, 1.805827e+002
6.519918e+002, 1.809031e+002
6.524739e+002, 1.805010e+002
6.529561e+002, 1.795473e+002
6.534382e+002, 1.789090e+002
6.539203e+002, 1.795202e+002
6.544024e+002, 1.803087e+002
6.548845e+002, 1.804994e+002
6.553666e+002, 1.799657e+002
6.558488e+002, 1.794612e+002
6.563309e+002, 1.790436e+002
6.568130e+002, 1.787959e+002
6.572951e+002, 1.787995e+002
6.577772e+002, 1.792356e+002
6.582593e+002, 1.794094e+002
6.587415e+002, 1.792131e+002
6.592236e+002, 1.789293e+002
6.597057e+002, 1.789588e+002
6.601878e+002, 1.792906e+002
6.606699e+002, 1.793228e+002
6.611520e+002, 1.788441e+002
6.616342e+002, 1.782925e+002
6.621163e+002, 1.785103e+002
6.625984e+002, 1.791675e+002
6.630805e+002, 1.793763e+002
6.635626e+002, 1.782327e+002
6.640447e+002, 1.770771e+002
6.645269e+002, 1.770940e+002
6.650090e+002, 1.778841e+002
6.654911e+002, 1.782791e+002
6.659732e+002, 1.774295e+002
6.664553e+002, 1.766076e+002
6.669374e+002, 1.762606e+002
6.674196e+002, 1.763676e+002
6.679017e+002, 1.767055e+002
6.683838e+002, 1.775285e+002
6.688659e+002, 1.781152e+002
6.693480e+002, 1.779893e+002
6.698301e+002, 1.771653e+002
6.703123e+002, 1.766505e+002
6.707944e+002, 1.764593e+002
6.712765e+002, 1.764645e+002
6.717586e+002, 1.764687e+002
6.722407e+002, 1.765954e+002
6.727228e+002, 1.773375e+002
6.732050e+002, 1.789279e+002
6.736871e+002, 1.800621e+002
6.741692e+002, 1.792267e+002
6.746513e+002, 1.776179e+002
6.751334e+002, 1.766567e+002
6.756155e+002, 1.772039e+002
6.760977e+002, 1.776434e+002
6.765798e+002, 1.775033e+002
6.770619e+002, 1.770783e+002
6.775440e+002, 1.767990e+002
6.780261e+002, 1.767029e+002
6.785082e+002, 1.767008e+002
6.789904e+002, 1.768508e+002
6.794725e+002, 1.770386e+002
6.799546e+002, 1.769137e+002
6.804367e+002, 1.764772e+002
6.809188e+002, 1.760610e+002
6.814009e+002, 1.757386e+002
6.818831e+002, 1.755762e+002
6.823652e+002, 1.758355e+002
6.828473e+002, 1.764285e+002
6.833294e+002, 1.768988e+002
6.838115e+002, 1.768656e+002
6.842936e+002, 1.767020e+002
6.847758e+002, 1.767191e+002
6.852579e+002, 1.769334e+002
6.857400e+002, 1.770003e+002
6.862221e+002, 1.765525e+002
6.867042e+002, 1.761703e+002
6.871863e+002, 1.761983e+002
6.876685e+002, 1.767945e+002
6.881506e+002, 1.770638e+002
6.886327e+002, 1.768472e+002
6.891148e+002, 1.766304e+002
6.895969e+002, 1.769852e+002
6.900790e+002, 1.778530e+002
6.905612e+002, 1.782744e+002
6.910433e+002, 1.781060e+002
6.915254e+002, 1.777109e+002
6.920075e+002, 1.774892e+002
6.924896e+002, 1.773458e+002
6.929717e+002, 1.770846e+002
6.934539e+002, 1.765388e+002
6.939360e+002, 1.760897e+002
6.944181e+002, 1.758706e+002
6.949002e+002, 1.759161e+002
6.953823e+002, 1.762821e+002
6.958644e+002, 1.777333e+002
6.963466e+002, 1.785576e+002
6.968287e+002, 1.782246e+002
6.973108e+002, 1.772007e+002
6.977929e+002, 1.767857e+002
6.982750e+002, 1.772270e+002
6.987571e+002, 1.773215e+002
6.992393e+002, 1.764413e+002
6.997214e+002, 1.750842e+002
7.002035e+002, 1.749514e+002
7.006856e+002, 1.759093e+002
7.011677e+002, 1.768061e+002
7.016498e+002, 1.769683e+002
7.021320e+002, 1.767071e+002
7.026141e+002, 1.761490e+002
7.030962e+002, 1.753751e+002
7.035783e+002, 1.749982e+002
7.040604e+002, 1.757181e+002
7.045425e+002, 1.765655e+002
7.050247e+002, 1.769290e+002
7.055068e+002, 1.766308e+002
7.059889e+002, 1.766111e+002
7.064710e+002, 1.771046e+002
7.069531e+002, 1.775737e+002
7.074352e+002, 1.776441e+002
7.079174e+002, 1.772803e+002
7.083995e+002, 1.769027e+002
7.088816e+002, 1.764972e+002
7.093637e+002, 1.761875e+002
7.098458e+002, 1.761977e+002
7.103279e+002, 1.763997e+002
7.108101e+002, 1.764373e+002
7.112922e+002, 1.762048e+002
7.117743e+002, 1.760111e+002
7.122564e+002, 1.760534e+002
7.127385e+002, 1.762866e+002
7.132206e+002, 1.766740e+002
7.137028e+002, 1.776058e+002
7.141849e+002, 1.781340e+002
7.146670e+002, 1.777363e+002
7.151491e+002, 1.769755e+002
7.156312e+002, 1.766162e+002
7.161133e+002, 1.768295e+002
7.165955e+002, 1.769614e+002
7.170776e+002, 1.768575e+002
7.175597e+002, 1.766621e+002
7.180418e+002, 1.766884e+002
7.185239e+002, 1.769203e+002
7.190060e+002, 1.772171e+002
7.194882e+002, 1.775460e+002
7.199703e+002, 1.778804e+002
7.204524e+002, 1.782914e+002
7.209345e+002, 1.786916e+002
7.214166e+002, 1.788404e+002
7.218987e+002, 1.783429e+002
7.223809e+002, 1.778299e+002
7.228630e+002, 1.775869e+002
7.233451e+002, 1.776065e+002
7.238272e+002, 1.777614e+002
7.243093e+002, 1.783663e+002
7.247914e+002, 1.786051e+002
7.252736e+002, 1.779389e+002
7.257557e+002, 1.765090e+002
7.262378e+002, 1.762604e+002
7.267199e+002, 1.773352e+002
7.272020e+002, 1.783848e+002
7.276841e+002, 1.783256e+002
7.281663e+002, 1.776497e+002
7.286484e+002, 1.774196e+002
7.291305e+002, 1.776664e+002
7.296126e+002, 1.781076e+002
7.300947e+002, 1.788535e+002
7.305768e+002, 1.795095e+002
7.310590e+002, 1.796602e+002
7.315411e+002, 1.791150e+002
7.320232e+002, 1.788016e+002
7.325053e+002, 1.790300e+002
7.329874e+002, 1.794201e+002
7.334695e+002, 1.797943e+002
7.339517e+002, 1.802295e+002
7.344338e+002, 1.803073e+002
7.349159e+002, 1.799366e+002
7.353980e+002, 1.794661e+002
7.358801e+002, 1.793288e+002
7.363622e+002, 1.794263e+002
7.368444e+002, 1.792693e+002
7.373265e+002, 1.787077e+002
7.378086e+002, 1.782810e+002
7.382907e+002, 1.786906e+002
7.387728e+002, 1.794743e+002
7.392549e+002, 1.800259e+002
7.397371e+002, 1.800904e+002
7.402192e+002, 1.800771e+002
7.407013e+002, 1.799677e+002
7.411834e+002, 1.799016e+002
7.416655e+002, 1.800789e+002
7.421476e+002, 1.806614e+002
7.426298e+002, 1.810920e+002
7.431119e+002, 1.812841e+002
7.435940e+002, 1.813161e+002
7.440761e+002, 1.812227e+002
7.445582e+002, 1.810366e+002
7.450403e+002, 1.811473e+002
7.455225e+002, 1.818000e+002
7.460046e+002, 1.825710e+002
7.464867e+002, 1.829894e+002
7.469688e+002, 1.831245e+002
7.474509e+002, 1.831218e+002
7.479330e+002, 1.827910e+002
7.484152e+002, 1.825983e+002
7.488973e+002, 1.828978e+002
7.493794e+002, 1.834958e+002
7.498615e+002, 1.837200e+002
7.503436e+002, 1.832522e+002
7.508257e+002, 1.829865e+002
7.513079e+002, 1.832196e+002
7.517900e+002, 1.837904e+002
7.522721e+002, 1.841214e+002
7.527542e+002, 1.842171e+002
7.532363e+002, 1.842129e+002
7.537184e+002, 1.841142e+002
7.542006e+002, 1.839967e+002
7.546827e+002, 1.839092e+002
7.551648e+002, 1.838880e+002
7.556469e+002, 1.840855e+002
7.561290e+002, 1.849736e+002
7.566111e+002, 1.857445e+002
7.570933e+002, 1.859236e+002
7.575754e+002, 1.855126e+002
7.580575e+002, 1.850319e+002
7.585396e+002, 1.842994e+002
7.590217e+002, 1.838289e+002
7.595038e+002, 1.839209e+002
7.599860e+002, 1.845028e+002
7.604681e+002, 1.847376e+002
7.609502e+002, 1.846034e+002
7.614323e+002, 1.843479e+002
7.619144e+002, 1.840051e+002
7.623965e+002, 1.836987e+002
7.628787e+002, 1.837539e+002
7.633608e+002, 1.841402e+002
7.638429e+002, 1.844235e+002
7.643250e+002, 1.841768e+002
7.648071e+002, 1.838628e+002
7.652892e+002, 1.838260e+002
7.657714e+002, 1.841388e+002
7.662535e+002, 1.843854e+002
7.667356e+002, 1.847087e+002
7.672177e+002, 1.847488e+002
7.676998e+002, 1.841454e+002
7.681819e+002, 1.828205e+002
7.686641e+002, 1.822451e+002
7.691462e+002, 1.825034e+002
7.696283e+002, 1.829093e+002
7.701104e+002, 1.828630e+002
7.705925e+002, 1.825639e+002
7.710746e+002, 1.823662e+002
7.715568e+002, 1.823027e+002
7.720389e+002, 1.823628e+002
7.725210e+002, 1.826611e+002
7.730031e+002, 1.829963e+002
7.734852e+002, 1.832468e+002
7.739673e+002, 1.834574e+002
7.744495e+002, 1.833395e+002
7.749316e+002, 1.827211e+002
7.754137e+002, 1.819766e+002
7.758958e+002, 1.813472e+002
7.763779e+002, 1.808271e+002
7.768600e+002, 1.805121e+002
7.773422e+002, 1.804276e+002
7.778243e+002, 1.804019e+002
7.783064e+002, 1.801678e+002
7.787885e+002, 1.798954e+002
7.792706e+002, 1.799983e+002
7.797527e+002, 1.806253e+002
7.802349e+002, 1.810955e+002
7.807170e+002, 1.808430e+002
7.811991e+002, 1.803469e+002
7.816812e+002, 1.800157e+002
7.821633e+002, 1.799003e+002
7.826454e+002, 1.800275e+002
7.831276e+002, 1.806167e+002
7.836097e+002, 1.811874e+002
7.840918e+002, 1.811841e+002
7.845739e+002, 1.805952e+002
7.850560e+002, 1.801477e+002
7.855381e+002, 1.799177e+002
7.860203e+002, 1.798142e+002
7.865024e+002, 1.798240e+002
7.869845e+002, 1.798687e+002
7.874666e+002, 1.797748e+002
7.879487e+002, 1.794194e+002
7.884308e+002, 1.791991e+002
7.889130e+002, 1.794154e+002
7.893951e+002, 1.798015e+002
7.898772e+002, 1.800791e+002
7.903593e+002, 1.800513e+002
7.908414e+002, 1.802416e+002
7.913235e+002, 1.807525e+002
7.918057e+002, 1.813396e+002
7.922878e+002, 1.817193e+002
7.927699e+002, 1.818999e+002
7.932520e+002, 1.818987e+002
7.937341e+002, 1.816657e+002
7.942162e+002, 1.814935e+002
7.946984e+002, 1.818004e+002
7.951805e+002, 1.823489e+002
7.956626e+002, 1.827864e+002
7.961447e+002, 1.830968e+002
7.966268e+002, 1.831446e+002
7.971089e+002, 1.824680e+002
7.975911e+002, 1.817262e+002
7.980732e+002, 1.816971e+002
7.985553e+002, 1.828998e+002
7.990374e+002, 1.835675e+002
7.995195e+002, 1.834597e+002
8.000016e+002, 1.830854e+002
8.004838e+002, 1.830787e+002
8.009659e+002, 1.833936e+002
8.014480e+002, 1.837658e+002
8.019301e+002, 1.841534e+002
8.024122e+002, 1.845588e+002
8.028943e+002, 1.850928e+002
8.033765e+002, 1.855976e+002
8.038586e+002, 1.858246e+002
8.043407e+002, 1.852980e+002
8.048228e+002, 1.852445e+002
8.053049e+002, 1.864646e+002
8.057870e+002, 1.879530e+002
8.062692e+002, 1.886766e+002
8.067513e+002, 1.884030e+002
8.072334e+002, 1.882757e+002
8.077155e+002, 1.884117e+002
8.081976e+002, 1.886525e+002
8.086797e+002, 1.887644e+002
8.091619e+002, 1.888121e+002
8.096440e+002, 1.889855e+002
8.101261e+002, 1.893262e+002
8.106082e+002, 1.897903e+002
8.110903e+002, 1.904702e+002
8.115724e+002, 1.911934e+002
8.120546e+002, 1.917705e+002
8.125367e+002, 1.921422e+002
8.130188e+002, 1.923917e+002
8.135009e+002, 1.924387e+002
8.139830e+002, 1.924633e+002
8.144651e+002, 1.926821e+002
8.149473e+002, 1.931139e+002
8.154294e+002, 1.935075e+002
8.159115e+002, 1.938512e+002
8.163936e+002, 1.941102e+002
8.168757e+002, 1.941104e+002
8.173578e+002, 1.940341e+002
8.178400e+002, 1.942423e+002
8.183221e+002, 1.949075e+002
8.188042e+002, 1.955195e+002
8.192863e+002, 1.959044e+002
8.197684e+002, 1.960746e+002
8.202505e+002, 1.959793e+002
8.207327e+002, 1.952079e+002
8.212148e+002, 1.951835e+002
8.216969e+002, 1.962613e+002
8.221790e+002, 1.974321e+002
8.226611e+002, 1.974063e+002
8.231432e+002, 1.964111e+002
8.236254e+002, 1.959617e+002
8.241075e+002, 1.962638e+002
8.245896e+002, 1.966912e+002
8.250717e+002, 1.966586e+002
8.255538e+002, 1.964386e+002
8.260359e+002, 1.963618e+002
8.265181e+002, 1.965597e+002
8.270002e+002, 1.966545e+002
8.274823e+002, 1.965237e+002
8.279644e+002, 1.962988e+002
8.284465e+002, 1.960488e+002
8.289286e+002, 1.957686e+002
8.294108e+002, 1.955043e+002
8.298929e+002, 1.952419e+002
8.303750e+002, 1.950871e+002
8.308571e+002, 1.953001e+002
8.313392e+002, 1.956588e+002
8.318214e+002, 1.955880e+002
8.323035e+002, 1.950135e+002
8.327856e+002, 1.945487e+002
8.332677e+002, 1.947702e+002
8.337498e+002, 1.951144e+002
8.342319e+002, 1.951609e+002
8.347141e+002, 1.947989e+002
8.351962e+002, 1.943186e+002
8.356783e+002, 1.935479e+002
8.361604e+002, 1.929406e+002
8.366425e+002, 1.928807e+002
8.371246e+002, 1.933237e+002
8.376068e+002, 1.936870e+002
8.380889e+002, 1.939681e+002
8.385710e+002, 1.939908e+002
8.390531e+002, 1.933010e+002
8.395352e+002, 1.924805e+002
8.400173e+002, 1.922294e+002
8.404995e+002, 1.925839e+002
8.409816e+002, 1.929000e+002
8.414637e+002, 1.931112e+002
8.419458e+002, 1.930799e+002
8.424279e+002, 1.926680e+002
8.429100e+002, 1.918861e+002
8.433922e+002, 1.913969e+002
8.438743e+002, 1.912454e+002
8.443564e+002, 1.911303e+002
8.448385e+002, 1.908791e+002
8.453206e+002, 1.905294e+002
8.458027e+002, 1.901246e+002
8.462849e+002, 1.896859e+002
8.467670e+002, 1.893468e+002
8.472491e+002, 1.893270e+002
8.477312e+002, 1.892969e+002
8.482133e+002, 1.890289e+002
8.486954e+002, 1.885498e+002
8.491776e+002, 1.881993e+002
8.496597e+002, 1.881041e+002
8.501418e+002, 1.878923e+002
8.506239e+002, 1.873627e+002
8.511060e+002, 1.866741e+002
8.515881e+002, 1.864147e+002
8.520703e+002, 1.865412e+002
8.525524e+002, 1.866810e+002
8.530345e+002, 1.865917e+002
8.535166e+002, 1.864844e+002
8.539987e+002, 1.866708e+002
8.544808e+002, 1.869895e+002
8.549630e+002, 1.870333e+002
8.554451e+002, 1.863058e+002
8.559272e+002, 1.857468e+002
8.564093e+002, 1.856069e+002
8.568914e+002, 1.857140e+002
8.573735e+002, 1.857231e+002
8.578557e+002, 1.856425e+002
8.583378e+002, 1.852738e+002
8.588199e+002, 1.844308e+002
8.593020e+002, 1.835463e+002
8.597841e+002, 1.833812e+002
8.602662e+002, 1.836512e+002
8.607484e+002, 1.837700e+002
8.612305e+002, 1.834259e+002
8.617126e+002, 1.830669e+002
8.621947e+002, 1.827034e+002
8.626768e+002, 1.824990e+002
8.631589e+002, 1.827449e+002
8.636411e+002, 1.838363e+002
8.641232e+002, 1.841837e+002
8.646053e+002, 1.834733e+002
8.650874e+002, 1.824017e+002
8.655695e+002, 1.817939e+002
8.660516e+002, 1.815777e+002
8.665338e+002, 1.815717e+002
8.670159e+002, 1.817940e+002
8.674980e+002, 1.819497e+002
8.679801e+002, 1.817780e+002
8.684622e+002, 1.814680e+002
8.689443e+002, 1.811796e+002
8.694265e+002, 1.808410e+002
8.699086e+002, 1.808169e+002
8.703907e+002, 1.813630e+002
8.708728e+002, 1.818230e+002
8.713549e+002, 1.815136e+002
8.718370e+002, 1.805231e+002
8.723192e+002, 1.799086e+002
8.728013e+002, 1.797035e+002
8.732834e+002, 1.797590e+002
8.737655e+002, 1.801487e+002
8.742476e+002, 1.806066e+002
8.747297e+002, 1.809030e+002
8.752119e+002, 1.810173e+002
8.756940e+002, 1.809092e+002
8.761761e+002, 1.803146e+002
8.766582e+002, 1.797603e+002
8.771403e+002, 1.794743e+002
8.776224e+002, 1.794327e+002
8.781046e+002, 1.792357e+002
8.785867e+002, 1.788640e+002
8.790688e+002, 1.787593e+002
8.795509e+002, 1.795696e+002
8.800330e+002, 1.805842e+002
8.805151e+002, 1.806823e+002
8.809973e+002, 1.800618e+002
8.814794e+002, 1.794890e+002
8.819615e+002, 1.793556e+002
8.824436e+002, 1.792527e+002
8.829257e+002, 1.789813e+002
8.834078e+002, 1.786330e+002
8.838900e+002, 1.784581e+002
8.843721e+002, 1.784684e+002
8.848542e+002, 1.786071e+002
8.853363e+002, 1.789129e+002
8.858184e+002, 1.792453e+002
8.863005e+002, 1.792877e+002
8.867827e+002, 1.791576e+002
8.872648e+002, 1.791721e+002
8.877469e+002, 1.796511e+002
8.882290e+002, 1.799828e+002
8.887111e+002, 1.797123e+002
8.891932e+002, 1.792048e+002
8.896754e+002, 1.789982e+002
8.901575e+002, 1.792109e+002
8.906396e+002, 1.794556e+002
8.911217e+002, 1.797306e+002
8.916038e+002, 1.799628e+002
8.920859e+002, 1.799963e+002
8.925681e+002, 1.799147e+002
8.930502e+002, 1.800289e+002
8.935323e+002, 1.804292e+002
8.940144e+002, 1.807173e+002
8.944965e+002, 1.805053e+002
8.949786e+002, 1.801323e+002
8.954608e+002, 1.798717e+002
8.959429e+002, 1.797662e+002
8.964250e+002, 1.797317e+002
8.969071e+002, 1.797191e+002
8.973892e+002, 1.798741e+002
8.978713e+002, 1.804429e+002
8.983535e+002, 1.813069e+002
8.988356e+002, 1.816949e+002
8.993177e+002, 1.816258e+002
8.997998e+002, 1.814555e+002
9.002819e+002, 1.813372e+002
9.007640e+002, 1.812825e+002
9.012462e+002, 1.813224e+002
9.017283e+002, 1.814478e+002
9.022104e+002, 1.815572e+002
9.026925e+002, 1.815449e+002
9.031746e+002, 1.816865e+002
9.036567e+002, 1.821501e+002
9.041389e+002, 1.827786e+002
9.046210e+002, 1.830124e+002
9.051031e+002, 1.828991e+002
9.055852e+002, 1.828875e+002
9.060673e+002, 1.832842e+002
9.065494e+002, 1.836848e+002
9.070316e+002, 1.836090e+002
9.075137e+002, 1.833006e+002
9.079958e+002, 1.831897e+002
9.084779e+002, 1.835606e+002
9.089600e+002, 1.839053e+002
9.094421e+002, 1.842080e+002
9.099243e+002, 1.844316e+002
9.104064e+002, 1.845674e+002
9.108885e+002, 1.846060e+002
9.113706e+002, 1.842923e+002
9.118527e+002, 1.835098e+002
9.123348e+002, 1.828919e+002
9.128170e+002, 1.831698e+002
9.132991e+002, 1.838882e+002
9.137812e+002, 1.845939e+002
9.142633e+002, 1.852720e+002
9.147454e+002, 1.856503e+002
9.152275e+002, 1.852931e+002
9.157097e+002, 1.851141e+002
9.161918e+002, 1.858427e+002
9.166739e+002, 1.874530e+002
9.171560e+002, 1.880804e+002
9.176381e+002, 1.877132e+002
9.181202e+002, 1.872178e+002
9.186024e+002, 1.871364e+002
9.190845e+002, 1.872808e+002
9.195666e+002, 1.875122e+002
9.200487e+002, 1.878015e+002
9.205308e+002, 1.880480e+002
9.210129e+002, 1.879038e+002
9.214951e+002, 1.881360e+002
9.219772e+002, 1.891842e+002
9.224593e+002, 1.906321e+002
9.229414e+002, 1.910276e+002
9.234235e+002, 1.903929e+002
9.239056e+002, 1.901706e+002
9.243878e+002, 1.909342e+002
9.248699e+002, 1.920983e+002
9.253520e+002, 1.931467e+002
9.258341e+002, 1.940999e+002
9.263162e+002, 1.950097e+002
9.267983e+002, 1.959214e+002
9.272805e+002, 1.967285e+002
9.277626e+002, 1.972512e+002
9.282447e+002, 1.978561e+002
9.287268e+002, 1.990167e+002
9.292089e+002, 2.007364e+002
9.296910e+002, 2.021315e+002
9.301732e+002, 2.031066e+002
9.306553e+002, 2.040516e+002
9.311374e+002, 2.053215e+002
9.316195e+002, 2.067510e+002
9.321016e+002, 2.082271e+002
9.325837e+002, 2.097174e+002
9.330659e+002, 2.110770e+002
9.335480e+002, 2.118542e+002
9.340301e+002, 2.129775e+002
9.345122e+002, 2.148753e+002
9.349943e+002, 2.174411e+002
9.354764e+002, 2.199429e+002
9.359586e+002, 2.223991e+002
9.364407e+002, 2.245720e+002
9.369228e+002, 2.262280e+002
9.374049e+002, 2.277126e+002
9.378870e+002, 2.291960e+002
9.383691e+002, 2.308126e+002
9.388513e+002, 2.328342e+002
9.393334e+002, 2.357581e+002
9.398155e+002, 2.385908e+002
9.402976e+002, 2.411529e+002
9.407797e+002, 2.435891e+002
9.412618e+002, 2.461343e+002
9.417440e+002, 2.487627e+002
9.422261e+002, 2.509306e+002
9.427082e+002, 2.524533e+002
9.431903e+002, 2.541775e+002
9.436724e+002, 2.572602e+002
9.441545e+002, 2.607412e+002
9.446367e+002, 2.635788e+002
9.451188e+002, 2.653622e+002
9.456009e+002, 2.674086e+002
9.460830e+002, 2.699240e+002
9.465651e+002, 2.725341e+002
9.470472e+002, 2.750367e+002
9.475294e+002, 2.774574e+002
9.480115e+002, 2.798092e+002
9.484936e+002, 2.820896e+002
9.489757e+002, 2.841857e+002
9.494578e+002, 2.860434e+002
9.499399e+002, 2.876782e+002
9.504221e+002, 2.889703e+002
9.509042e+002, 2.900406e+002
9.513863e+002, 2.913466e+002
9.518684e+002, 2.934555e+002
9.523505e+002, 2.948638e+002
9.528326e+002, 2.952230e+002
9.533148e+002, 2.948843e+002
9.537969e+002, 2.945408e+002
9.542790e+002, 2.940928e+002
9.547611e+002, 2.930844e+002
9.552432e+002, 2.913989e+002
9.557253e+002, 2.891893e+002
9.562075e+002, 2.862850e+002
9.566896e+002, 2.830721e+002
9.571717e+002, 2.799984e+002
9.576538e+002, 2.774834e+002
9.581359e+002, 2.736588e+002
9.586180e+002, 2.679907e+002
9.591002e+002, 2.622824e+002
9.595823e+002, 2.580560e+002
9.600644e+002, 2.547994e+002
9.605465e+002, 2.508978e+002
9.610286e+002, 2.464209e+002
9.615107e+002, 2.422876e+002
9.619929e+002, 2.391929e+002
9.624750e+002, 2.363531e+002
9.629571e+002, 2.331927e+002
9.634392e+002, 2.299309e+002
9.639213e+002, 2.273052e+002
9.644034e+002, 2.254461e+002
9.648856e+002, 2.238218e+002
9.653677e+002, 2.223479e+002
9.658498e+002, 2.209548e+002
9.663319e+002, 2.193420e+002
9.668140e+002, 2.177461e+002
9.672961e+002, 2.167021e+002
9.677783e+002, 2.163945e+002
9.682604e+002, 2.165045e+002
9.687425e+002, 2.174719e+002
9.692246e+002, 2.183746e+002
9.697067e+002, 2.183469e+002
9.701888e+002, 2.171389e+002
9.706710e+002, 2.168356e+002
9.711531e+002, 2.174810e+002
9.716352e+002, 2.186173e+002
9.721173e+002, 2.201218e+002
9.725994e+002, 2.217548e+002
9.730815e+002, 2.233084e+002
9.735637e+002, 2.247353e+002
9.740458e+002, 2.258898e+002
9.745279e+002, 2.260712e+002
9.750100e+002, 2.268071e+002
9.754921e+002, 2.287363e+002
9.759742e+002, 2.312980e+002
9.764564e+002, 2.331074e+002
9.769385e+002, 2.342136e+002
9.774206e+002, 2.351610e+002
9.779027e+002, 2.359819e+002
9.783848e+002, 2.370170e+002
9.788669e+002, 2.386125e+002
9.793491e+002, 2.406190e+002
9.798312e+002, 2.429198e+002
9.803133e+002, 2.457468e+002
9.807954e+002, 2.481712e+002
9.812775e+002, 2.500228e+002
9.817596e+002, 2.517683e+002
9.822418e+002, 2.536439e+002
9.827239e+002, 2.556971e+002
9.832060e+002, 2.583508e+002
9.836881e+002, 2.615291e+002
9.841702e+002, 2.645869e+002
9.846523e+002, 2.668193e+002
9.851345e+002, 2.691015e+002
9.856166e+002, 2.720086e+002
9.860987e+002, 2.754322e+002
9.865808e+002, 2.788954e+002
9.870629e+002, 2.824522e+002
9.875450e+002, 2.857955e+002
9.880272e+002, 2.887420e+002
9.885093e+002, 2.917661e+002
9.889914e+002, 2.957923e+002
9.894735e+002, 3.003548e+002
9.899556e+002, 3.044371e+002
9.904377e+002, 3.077303e+002
9.909199e+002, 3.109379e+002
9.914020e+002, 3.142521e+002
9.918841e+002, 3.176761e+002
9.923662e+002, 3.212777e+002
9.928483e+002, 3.250126e+002
9.933304e+002, 3.285539e+002
9.938126e+002, 3.319008e+002
9.942947e+002, 3.350694e+002
9.947768e+002, 3.380817e+002
9.952589e+002, 3.409052e+002
9.957410e+002, 3.434963e+002
9.962231e+002, 3.458860e+002
9.967053e+002, 3.482452e+002
9.971874e+002, 3.509532e+002
9.976695e+002, 3.531010e+002
9.981516e+002, 3.544926e+002
9.986337e+002, 3.553577e+002
9.991158e+002, 3.559953e+002
9.995980e+002, 3.564253e+002
1.000080e+003, 3.568050e+002
1.000562e+003, 3.571872e+002
1.001044e+003, 3.573108e+002
1.001526e+003, 3.568298e+002
1.002009e+003, 3.561186e+002
1.002491e+003, 3.555249e+002
1.002973e+003, 3.551039e+002
1.003455e+003, 3.544356e+002
1.003937e+003, 3.535529e+002
1.004419e+003, 3.523310e+002
1.004901e+003, 3.506276e+002
1.005383e+003, 3.486146e+002
1.005865e+003, 3.465711e+002
1.006348e+003, 3.445079e+002
1.006830e+003, 3.423945e+002
1.007312e+003, 3.403111e+002
1.007794e+003, 3.380881e+002
1.008276e+003, 3.354443e+002
1.008758e+003, 3.327368e+002
1.009240e+003, 3.303955e+002
1.009722e+003, 3.285060e+002
1.010205e+003, 3.260642e+002
1.010687e+003, 3.229131e+002
1.011169e+003, 3.198188e+002
1.011651e+003, 3.177305e+002
1.012133e+003, 3.158367e+002
1.012615e+003, 3.131660e+002
1.013097e+003, 3.097027e+002
1.013579e+003, 3.063155e+002
1.014061e+003, 3.030512e+002
1.014544e+003, 3.000350e+002
1.015026e+003, 2.973176e+002
1.015508e+003, 2.948984e+002
1.015990e+003, 2.929236e+002
1.016472e+003, 2.912291e+002
1.016954e+003, 2.890747e+002
1.017436e+003, 2.859521e+002
1.017918e+003, 2.829820e+002
1.018401e+003, 2.811869e+002
1.018883e+003, 2.796815e+002
1.019365e+003, 2.774595e+002
1.019847e+003, 2.742248e+002
1.020329e+003, 2.717069e+002
1.020811e+003, 2.700056e+002
1.021293e+003, 2.684841e+002
1.021775e+003, 2.666899e+002
1.022257e+003, 2.647872e+002
1.022740e+003, 2.629248e+002
1.023222e+003, 2.611433e+002
1.023704e+003, 2.595780e+002
1.024186e+003, 2.584177e+002
1.024668e+003, 2.573177e+002
1.025150e+003, 2.563029e+002
1.025632e+003, 2.552116e+002
1.026114e+003, 2.535280e+002
1.026596e+003, 2.514050e+002
1.027079e+003, 2.501641e+002
1.027561e+003, 2.501240e+002
1.028043e+003, 2.500678e+002
1.028525e+003, 2.486734e+002
1.029007e+003, 2.470707e+002
1.029489e+003, 2.463847e+002
1.029971e+003, 2.467744e+002
1.030453e+003, 2.465734e+002
1.030936e+003, 2.455844e+002
1.031418e+003, 2.446637e+002
1.031900e+003, 2.441790e+002
1.032382e+003, 2.439706e+002
1.032864e+003, 2.438692e+002
1.033346e+003, 2.437823e+002
1.033828e+003, 2.434861e+002
1.034310e+003, 2.427141e+002
1.034792e+003, 2.420163e+002
1.035275e+003, 2.416367e+002
1.035757e+003, 2.412851e+002
1.036239e+003, 2.405479e+002
1.036721e+003, 2.394319e+002
1.037203e+003, 2.392480e+002
1.037685e+003, 2.400348e+002
1.038167e+003, 2.407790e+002
1.038649e+003, 2.407902e+002
1.039132e+003, 2.404119e+002
1.039614e+003, 2.397478e+002
1.040096e+003, 2.389032e+002
1.040578e+003, 2.383119e+002
1.041060e+003, 2.380201e+002
1.041542e+003, 2.378815e+002
1.042024e+003, 2.378736e+002
1.042506e+003, 2.379736e+002
1.042989e+003, 2.381013e+002
1.043471e+003, 2.383193e+002
1.043953e+003, 2.388921e+002
1.044435e+003, 2.400085e+002
1.044917e+003, 2.406356e+002
1.045399e+003, 2.398364e+002
1.045881e+003, 2.389918e+002
1.046363e+003, 2.388597e+002
1.046845e+003, 2.393199e+002
1.047328e+003, 2.393777e+002
1.047810e+003, 2.390567e+002
1.048292e+003, 2.387170e+002
1.048774e+003, 2.384954e+002
1.049256e+003, 2.383651e+002
1.049738e+003, 2.384419e+002
1.050220e+003, 2.385505e+002
1.050702e+003, 2.383849e+002
1.051184e+003, 2.377792e+002
1.051667e+003, 2.372310e+002
1.052149e+003, 2.367076e+002
1.052631e+003, 2.363745e+002
1.053113e+003, 2.365570e+002
1.053595e+003, 2.369491e+002
1.054077e+003, 2.369738e+002
1.054559e+003, 2.366279e+002
1.055041e+003, 2.360937e+002
1.055523e+003, 2.351611e+002
1.056006e+003, 2.344066e+002
1.056488e+003, 2.340055e+002
1.056970e+003, 2.338432e+002
1.057452e+003, 2.336974e+002
1.057934e+003, 2.335765e+002
1.058416e+003, 2.336517e+002
1.058898e+003, 2.340477e+002
1.059380e+003, 2.340481e+002
1.059863e+003, 2.326142e+002
1.060345e+003, 2.308857e+002
1.060827e+003, 2.297948e+002
1.061309e+003, 2.294000e+002
1.061791e+003, 2.293699e+002
1.062273e+003, 2.298061e+002
1.062755e+003, 2.301215e+002
1.063237e+003, 2.300836e+002
1.063719e+003, 2.297428e+002
1.064202e+003, 2.290503e+002
1.064684e+003, 2.281385e+002
1.065166e+003, 2.272571e+002
1.065648e+003, 2.264945e+002
1.066130e+003, 2.257560e+002
1.066612e+003, 2.249854e+002
1.067094e+003, 2.242950e+002
1.067576e+003, 2.238752e+002
1.068059e+003, 2.236347e+002
1.068541e+003, 2.229810e+002
1.069023e+003, 2.219617e+002
1.069505e+003, 2.210375e+002
1.069987e+003, 2.205556e+002
1.070469e+003, 2.201680e+002
1.070951e+003, 2.198298e+002
1.071433e+003, 2.194240e+002
1.071916e+003, 2.186096e+002
1.072398e+003, 2.172790e+002
1.072880e+003, 2.167420e+002
1.073362e+003, 2.173264e+002
1.073844e+003, 2.177435e+002
1.074326e+003, 2.162795e+002
1.074808e+003, 2.142349e+002
1.075290e+003, 2.130295e+002
1.075772e+003, 2.128069e+002
1.076255e+003, 2.124697e+002
1.076737e+003, 2.119998e+002
1.077219e+003, 2.112571e+002
1.077701e+003, 2.101057e+002
1.078183e+003, 2.087994e+002
1.078665e+003, 2.078064e+002
1.079147e+003, 2.070564e+002
1.079629e+003, 2.063985e+002
1.080111e+003, 2.058008e+002
1.080594e+003, 2.052397e+002
1.081076e+003, 2.046050e+002
1.081558e+003, 2.041107e+002
1.082040e+003, 2.040093e+002
1.082522e+003, 2.042195e+002
1.083004e+003, 2.038763e+002
1.083486e+003, 2.030134e+002
1.083968e+003, 2.019878e+002
1.084450e+003, 2.007127e+002
1.084933e+003, 1.996435e+002
1.085415e+003, 1.991672e+002
1.085897e+003, 1.990575e+002
1.086379e+003, 1.989284e+002
1.086861e+003, 1.987741e+002
1.087343e+003, 1.986543e+002
1.087825e+003, 1.986159e+002
1.088307e+003, 1.983304e+002
1.088790e+003, 1.971243e+002
1.089272e+003, 1.957723e+002
1.089754e+003, 1.953793e+002
1.090236e+003, 1.957793e+002
1.090718e+003, 1.958110e+002
1.091200e+003, 1.951274e+002
1.091682e+003, 1.942678e+002
1.092164e+003, 1.931895e+002
1.092646e+003, 1.922163e+002
1.093129e+003, 1.919386e+002
1.093611e+003, 1.921423e+002
1.094093e+003, 1.923271e+002
1.094575e+003, 1.924184e+002
1.095057e+003, 1.924395e+002
1.095539e+003, 1.926230e+002
1.096021e+003, 1.924474e+002
1.096503e+003, 1.914918e+002
1.096986e+003, 1.900838e+002
1.097468e+003, 1.895413e+002
1.097950e+003, 1.897663e+002
1.098432e+003, 1.899435e+002
1.098914e+003, 1.898246e+002
1.099396e+003, 1.895623e+002
1.099878e+003, 1.892251e+002
1.100360e+003, 1.888237e+002
1.100843e+003, 1.883303e+002
1.101325e+003, 1.877125e+002
1.101807e+003, 1.873275e+002
1.102289e+003, 1.871831e+002
1.102771e+003, 1.871701e+002
1.103253e+003, 1.873914e+002
1.103735e+003, 1.875510e+002
1.104217e+003, 1.871531e+002
1.104699e+003, 1.864703e+002
1.105182e+003, 1.860213e+002
1.105664e+003, 1.861294e+002
1.106146e+003, 1.860638e+002
1.106628e+003, 1.857827e+002
1.107110e+003, 1.853944e+002
1.107592e+003, 1.848805e+002
1.108074e+003, 1.843728e+002
1.108556e+003, 1.841552e+002
1.109038e+003, 1.841997e+002
1.109521e+003, 1.842948e+002
1.110003e+003, 1.839684e+002
1.110485e+003, 1.843190e+002
1.110967e+003, 1.861213e+002
1.111449e+003, 1.880163e+002
1.111931e+003, 1.875782e+002
1.112413e+003, 1.853671e+002
1.112895e+003, 1.839873e+002
1.113377e+003, 1.837467e+002
1.113860e+003, 1.836054e+002
1.114342e+003, 1.826675e+002
1.114824e+003, 1.819285e+002
1.115306e+003, 1.819932e+002
1.115788e+003, 1.826691e+002
1.116270e+003, 1.835015e+002
1.116752e+003, 1.844873e+002
1.117234e+003, 1.850464e+002
1.117717e+003, 1.849931e+002
1.118199e+003, 1.846455e+002
1.118681e+003, 1.840587e+002
1.119163e+003, 1.834688e+002
1.119645e+003, 1.831140e+002
1.120127e+003, 1.830090e+002
1.120609e+003, 1.829974e+002
1.121091e+003, 1.831241e+002
1.121573e+003, 1.830167e+002
1.122056e+003, 1.823555e+002
1.122538e+003, 1.816427e+002
1.123020e+003, 1.816960e+002
1.123502e+003, 1.820634e+002
1.123984e+003, 1.819949e+002
1.124466e+003, 1.809084e+002
1.124948e+003, 1.804469e+002
1.125430e+003, 1.808155e+002
1.125913e+003, 1.813357e+002
1.126395e+003, 1.816731e+002
1.126877e+003, 1.817893e+002
1.127359e+003, 1.813606e+002
1.127841e+003, 1.806391e+002
1.128323e+003, 1.803287e+002
1.128805e+003, 1.812155e+002
1.129287e+003, 1.817733e+002
1.129770e+003, 1.816798e+002
1.130252e+003, 1.814005e+002
1.130734e+003, 1.813857e+002
1.131216e+003, 1.815711e+002
1.131698e+003, 1.816960e+002
1.132180e+003, 1.817592e+002
1.132662e+003, 1.818481e+002
1.133144e+003, 1.820215e+002
1.133626e+003, 1.822120e+002
1.134109e+003, 1.824655e+002
1.134591e+003, 1.826670e+002
1.135073e+003, 1.825704e+002
1.135555e+003, 1.822111e+002
1.136037e+003, 1.820703e+002
1.136519e+003, 1.822099e+002
1.137001e+003, 1.822652e+002
1.137483e+003, 1.817501e+002
1.137965e+003, 1.812840e+002
1.138448e+003, 1.814673e+002
1.138930e+003, 1.820087e+002
1.139412e+003, 1.819070e+002
1.139894e+003, 1.811200e+002
1.140376e+003, 1.806004e+002
1.140858e+003, 1.805641e+002
1.141340e+003, 1.807560e+002
1.141822e+003, 1.811810e+002
1.142304e+003, 1.815458e+002
1.142787e+003, 1.814681e+002
1.143269e+003, 1.809397e+002
1.143751e+003, 1.808057e+002
1.144233e+003, 1.811299e+002
1.144715e+003, 1.815001e+002
1.145197e+003, 1.818013e+002
1.145679e+003, 1.820070e+002
1.146161e+003, 1.821021e+002
1.146644e+003, 1.820619e+002
1.147126e+003, 1.818014e+002
1.147608e+003, 1.811830e+002
1.148090e+003, 1.808704e+002
1.148572e+003, 1.809270e+002
1.149054e+003, 1.811390e+002
1.149536e+003, 1.815576e+002
1.150018e+003, 1.818927e+002
1.150500e+003, 1.813609e+002
1.150983e+003, 1.804220e+002
1.151465e+003, 1.800204e+002
1.151947e+003, 1.808582e+002
1.152429e+003, 1.812878e+002
1.152911e+003, 1.810133e+002
1.153393e+003, 1.807175e+002
1.153875e+003, 1.809473e+002
1.154357e+003, 1.814818e+002
1.154840e+003, 1.817125e+002
1.155322e+003, 1.817233e+002
1.155804e+003, 1.817704e+002
1.156286e+003, 1.821433e+002
1.156768e+003, 1.822776e+002
1.157250e+003, 1.820291e+002
1.157732e+003, 1.816440e+002
1.158214e+003, 1.812684e+002
1.158697e+003, 1.809466e+002
1.159179e+003, 1.809168e+002
1.159661e+003, 1.811476e+002
1.160143e+003, 1.814311e+002
1.160625e+003, 1.819179e+002
1.161107e+003, 1.820985e+002
1.161589e+003, 1.816810e+002
1.162071e+003, 1.810391e+002
1.162553e+003, 1.805924e+002
1.163036e+003, 1.803367e+002
1.163518e+003, 1.802822e+002
1.164000e+003, 1.804153e+002
1.164482e+003, 1.805184e+002
1.164964e+003, 1.805273e+002
1.165446e+003, 1.803921e+002
1.165928e+003, 1.798961e+002
1.166410e+003, 1.793573e+002
1.166892e+003, 1.794802e+002
1.167375e+003, 1.802088e+002
1.167857e+003, 1.806675e+002
1.168339e+003, 1.807358e+002
1.168821e+003, 1.807357e+002
1.169303e+003, 1.809363e+002
1.169785e+003, 1.811073e+002
1.170267e+003, 1.810491e+002
1.170749e+003, 1.808484e+002
1.171231e+003, 1.806928e+002
1.171714e+003, 1.805807e+002
1.172196e+003, 1.808206e+002
1.172678e+003, 1.815457e+002
1.173160e+003, 1.821491e+002
1.173642e+003, 1.819226e+002
1.174124e+003, 1.815139e+002
1.174606e+003, 1.814120e+002
1.175088e+003, 1.816061e+002
1.175571e+003, 1.821526e+002
1.176053e+003, 1.831048e+002
1.176535e+003, 1.833497e+002
1.177017e+003, 1.823998e+002
1.177499e+003, 1.812658e+002
1.177981e+003, 1.809995e+002
1.178463e+003, 1.809742e+002
1.178945e+003, 1.803963e+002
1.179427e+003, 1.792382e+002
1.179910e+003, 1.791446e+002
1.180392e+003, 1.802471e+002
1.180874e+003, 1.810687e+002
1.181356e+003, 1.810045e+002
1.181838e+003, 1.805648e+002
1.182320e+003, 1.799968e+002
1.182802e+003, 1.795336e+002
1.183284e+003, 1.794404e+002
1.183767e+003, 1.797334e+002
1.184249e+003, 1.806490e+002
1.184731e+003, 1.823951e+002
1.185213e+003, 1.833394e+002
1.185695e+003, 1.822612e+002
1.186177e+003, 1.807053e+002
1.186659e+003, 1.804961e+002
1.187141e+003, 1.809621e+002
1.187624e+003, 1.811480e+002
1.188106e+003, 1.808488e+002
1.188588e+003, 1.805662e+002
1.189070e+003, 1.802812e+002
1.189552e+003, 1.801535e+002
1.190034e+003, 1.804090e+002
1.190516e+003, 1.807300e+002
1.190998e+003, 1.806981e+002
1.191480e+003, 1.804555e+002
1.191963e+003, 1.802424e+002
1.192445e+003, 1.801317e+002
1.192927e+003, 1.799227e+002
1.193409e+003, 1.795556e+002
1.193891e+003, 1.793517e+002
1.194373e+003, 1.796458e+002
1.194855e+003, 1.801360e+002
1.195337e+003, 1.804692e+002
1.195819e+003, 1.806796e+002
1.196302e+003, 1.808416e+002
1.196784e+003, 1.810015e+002
1.197266e+003, 1.809997e+002
1.197748e+003, 1.807775e+002
1.198230e+003, 1.806276e+002
1.198712e+003, 1.809484e+002
1.199194e+003, 1.813659e+002
1.199676e+003, 1.812981e+002
1.200158e+003, 1.809115e+002
1.200641e+003, 1.806780e+002
1.201123e+003, 1.807439e+002
1.201605e+003, 1.808185e+002
1.202087e+003, 1.809036e+002
1.202569e+003, 1.809381e+002
1.203051e+003, 1.808798e+002
1.203533e+003, 1.807299e+002
1.204015e+003, 1.803708e+002
1.204498e+003, 1.799119e+002
1.204980e+003, 1.797449e+002
1.205462e+003, 1.800750e+002
1.205944e+003, 1.802773e+002
1.206426e+003, 1.802437e+002
1.206908e+003, 1.803007e+002
1.207390e+003, 1.810337e+002
1.207872e+003, 1.818674e+002
1.208354e+003, 1.819043e+002
1.208837e+003, 1.813188e+002
1.209319e+003, 1.810833e+002
1.209801e+003, 1.814098e+002
1.210283e+003, 1.818536e+002
1.210765e+003, 1.824461e+002
1.211247e+003, 1.828284e+002
1.211729e+003, 1.822754e+002
1.212211e+003, 1.815361e+002
1.212694e+003, 1.818842e+002
1.213176e+003, 1.830741e+002
1.213658e+003, 1.831716e+002
1.214140e+003, 1.814120e+002
1.214622e+003, 1.805442e+002
1.215104e+003, 1.811165e+002
1.215586e+003, 1.820132e+002
1.216068e+003, 1.820743e+002
1.216551e+003, 1.817446e+002
1.217033e+003, 1.815244e+002
1.217515e+003, 1.814333e+002
1.217997e+003, 1.813190e+002
1.218479e+003, 1.811585e+002
1.218961e+003, 1.810043e+002
1.219443e+003, 1.808501e+002
1.219925e+003, 1.807616e+002
1.220407e+003, 1.808836e+002
1.220890e+003, 1.810583e+002
1.221372e+003, 1.811785e+002
1.221854e+003, 1.811933e+002
1.222336e+003, 1.807789e+002
1.222818e+003, 1.796547e+002
1.223300e+003, 1.793177e+002
1.223782e+003, 1.801969e+002
1.224264e+003, 1.812868e+002
1.224746e+003, 1.814268e+002
1.225229e+003, 1.812341e+002
1.225711e+003, 1.814545e+002
1.226193e+003, 1.820563e+002
1.226675e+003, 1.820879e+002
1.227157e+003, 1.814149e+002
1.227639e+003, 1.808667e+002
1.228121e+003, 1.806163e+002
1.228603e+003, 1.805549e+002
1.229085e+003, 1.805061e+002
1.229568e+003, 1.806378e+002
1.230050e+003, 1.813576e+002
1.230532e+003, 1.825300e+002
1.231014e+003, 1.827864e+002
1.231496e+003, 1.819983e+002
1.231978e+003, 1.814546e+002
1.232460e+003, 1.814805e+002
1.232942e+003, 1.816599e+002
1.233425e+003, 1.816742e+002
1.233907e+003, 1.815939e+002
1.234389e+003, 1.814682e+002
1.234871e+003, 1.813039e+002
1.235353e+003, 1.810869e+002
1.235835e+003, 1.808138e+002
1.236317e+003, 1.806709e+002
1.236799e+003, 1.807532e+002
1.237281e+003, 1.807089e+002
1.237764e+003, 1.798467e+002
1.238246e+003, 1.790743e+002
1.238728e+003, 1.793001e+002
1.239210e+003, 1.802595e+002
1.239692e+003, 1.809270e+002
1.240174e+003, 1.812985e+002
1.240656e+003, 1.815214e+002
1.241138e+003, 1.816286e+002
1.241621e+003, 1.815790e+002
1.242103e+003, 1.809630e+002
1.242585e+003, 1.805627e+002
1.243067e+003, 1.811090e+002
1.243549e+003, 1.822275e+002
1.244031e+003, 1.824820e+002
1.244513e+003, 1.819802e+002
1.244995e+003, 1.815567e+002
1.245478e+003, 1.813984e+002
1.245960e+003, 1.813605e+002
1.246442e+003, 1.815216e+002
1.246924e+003, 1.815819e+002
1.247406e+003, 1.813137e+002
1.247888e+003, 1.808799e+002
1.248370e+003, 1.808380e+002
1.248852e+003, 1.810959e+002
1.249334e+003, 1.812258e+002
1.249817e+003, 1.810938e+002
1.250299e+003, 1.811011e+002
1.250781e+003, 1.818241e+002
1.251263e+003, 1.822323e+002
1.251745e+003, 1.817341e+002
1.252227e+003, 1.808398e+002
1.252709e+003, 1.807787e+002
1.253191e+003, 1.813747e+002
1.253673e+003, 1.822220e+002
1.254156e+003, 1.833128e+002
1.254638e+003, 1.840581e+002
1.255120e+003, 1.844005e+002
1.255602e+003, 1.840907e+002
1.256084e+003, 1.827043e+002
1.256566e+003, 1.810846e+002
1.257048e+003, 1.811237e+002
1.257530e+003, 1.821521e+002
1.258012e+003, 1.828134e+002
1.258495e+003, 1.828428e+002
1.258977e+003, 1.828295e+002
1.259459e+003, 1.828116e+002
1.259941e+003, 1.829119e+002
1.260423e+003, 1.832338e+002
1.260905e+003, 1.835517e+002
1.261387e+003, 1.833006e+002
1.261869e+003, 1.829135e+002
1.262352e+003, 1.832007e+002
1.262834e+003, 1.843378e+002
1.263316e+003, 1.847034e+002
1.263798e+003, 1.840256e+002
1.264280e+003, 1.833270e+002
1.264762e+003, 1.829197e+002
1.265244e+003, 1.825804e+002
1.265726e+003, 1.817554e+002
1.266208e+003, 1.810300e+002
1.266691e+003, 1.812473e+002
1.267173e+003, 1.824509e+002
1.267655e+003, 1.831257e+002
1.268137e+003, 1.832302e+002
1.268619e+003, 1.831699e+002
1.269101e+003, 1.830382e+002
1.269583e+003, 1.828223e+002
1.270065e+003, 1.822582e+002
1.270548e+003, 1.818034e+002
1.271030e+003, 1.821214e+002
1.271512e+003, 1.829411e+002
1.271994e+003, 1.829225e+002
1.272476e+003, 1.820924e+002
1.272958e+003, 1.817452e+002
1.273440e+003, 1.822364e+002
1.273922e+003, 1.827276e+002
1.274405e+003, 1.825690e+002
1.274887e+003, 1.822632e+002
1.275369e+003, 1.820156e+002
1.275851e+003, 1.819052e+002
1.276333e+003, 1.822483e+002
1.276815e+003, 1.829440e+002
1.277297e+003, 1.834857e+002
1.277779e+003, 1.837705e+002
1.278261e+003, 1.839692e+002
1.278744e+003, 1.842527e+002
1.279226e+003, 1.843170e+002
1.279708e+003, 1.839510e+002
1.280190e+003, 1.834397e+002
1.280672e+003, 1.832785e+002
1.281154e+003, 1.834191e+002
1.281636e+003, 1.838562e+002
1.282118e+003, 1.845884e+002
1.282600e+003, 1.849860e+002
1.283083e+003, 1.846426e+002
1.283565e+003, 1.843274e+002
1.284047e+003, 1.842149e+002
1.284529e+003, 1.841944e+002
1.285011e+003, 1.841189e+002
1.285493e+003, 1.840270e+002
1.285975e+003, 1.839377e+002
1.286457e+003, 1.838706e+002
1.286939e+003, 1.840352e+002
1.287422e+003, 1.845486e+002
1.287904e+003, 1.849160e+002
1.288386e+003, 1.850383e+002
1.288868e+003, 1.850224e+002
1.289350e+003, 1.849736e+002
1.289832e+003, 1.848526e+002
1.290314e+003, 1.844267e+002
1.290796e+003, 1.838794e+002
1.291279e+003, 1.841128e+002
1.291761e+003, 1.852516e+002
1.292243e+003, 1.857809e+002
1.292725e+003, 1.854643e+002
1.293207e+003, 1.849056e+002
1.293689e+003, 1.841646e+002
1.294171e+003, 1.837694e+002
1.294653e+003, 1.845018e+002
1.295135e+003, 1.856181e+002
1.295618e+003, 1.857587e+002
1.296100e+003, 1.850443e+002
1.296582e+003, 1.846510e+002
1.297064e+003, 1.846969e+002
1.297546e+003, 1.848713e+002
1.298028e+003, 1.850148e+002
1.298510e+003, 1.851603e+002
1.298992e+003, 1.853600e+002
1.299475e+003, 1.855442e+002
1.299957e+003, 1.855761e+002
1.300439e+003, 1.855321e+002
1.300921e+003, 1.856659e+002
1.301403e+003, 1.859488e+002
1.301885e+003, 1.860923e+002
##END=



