##NAMES=Brizziite
##RRUFFID=R060611
##IDEAL CHEMISTRY=NaSb^5+^O_3_
##LOCALITY=Le Cetine di Cotorniano, Chiusdino, Siena Province, Tuscany, Italy
##OWNER=RRUFF
##SOURCE=Michael Scott
##DESCRIPTION=Colorless thin hexagonal plates associated with romeite, R060736
##STATUS=The identification of this mineral is confirmed by single-crystal X-ray diffraction and chemical analysis.
##URL=rruff.info/R060611
##MEASURED CHEMISTRY=Na_1.00_Sb_1.00_O_3_; = gray phase with trace amounts of Fe; bright phase: stibiconite
9.059570e+001, 4.217873e+003
9.107782e+001, 4.105264e+003
9.155994e+001, 4.065425e+003
9.204205e+001, 4.152072e+003
9.252417e+001, 4.275052e+003
9.300629e+001, 4.403493e+003
9.348840e+001, 4.504195e+003
9.397052e+001, 4.550115e+003
9.445264e+001, 4.534179e+003
9.493475e+001, 4.517740e+003
9.541687e+001, 4.497638e+003
9.589898e+001, 4.476692e+003
9.638110e+001, 4.456462e+003
9.686321e+001, 4.438034e+003
9.734533e+001, 4.418779e+003
9.782745e+001, 4.390572e+003
9.830956e+001, 4.367569e+003
9.879168e+001, 4.353592e+003
9.927380e+001, 4.340791e+003
9.975591e+001, 4.324393e+003
1.002380e+002, 4.306001e+003
1.007201e+002, 4.291788e+003
1.012023e+002, 4.286206e+003
1.016844e+002, 4.287430e+003
1.021665e+002, 4.286149e+003
1.026486e+002, 4.280076e+003
1.031307e+002, 4.272471e+003
1.036128e+002, 4.265716e+003
1.040950e+002, 4.259357e+003
1.045771e+002, 4.254648e+003
1.050592e+002, 4.251494e+003
1.055413e+002, 4.249255e+003
1.060234e+002, 4.247521e+003
1.065055e+002, 4.245388e+003
1.069877e+002, 4.243267e+003
1.074698e+002, 4.243814e+003
1.079519e+002, 4.251298e+003
1.084340e+002, 4.255476e+003
1.089161e+002, 4.251213e+003
1.093982e+002, 4.240195e+003
1.098804e+002, 4.226884e+003
1.103625e+002, 4.215073e+003
1.108446e+002, 4.205175e+003
1.113267e+002, 4.194503e+003
1.118088e+002, 4.182777e+003
1.122909e+002, 4.170515e+003
1.127731e+002, 4.157722e+003
1.132552e+002, 4.144521e+003
1.137373e+002, 4.131075e+003
1.142194e+002, 4.117825e+003
1.147015e+002, 4.105225e+003
1.151836e+002, 4.091583e+003
1.156658e+002, 4.077843e+003
1.161479e+002, 4.062683e+003
1.166300e+002, 4.044318e+003
1.171121e+002, 4.021939e+003
1.175942e+002, 3.997171e+003
1.180763e+002, 3.974043e+003
1.185584e+002, 3.953552e+003
1.190406e+002, 3.932196e+003
1.195227e+002, 3.908312e+003
1.200048e+002, 3.882702e+003
1.204869e+002, 3.857279e+003
1.209690e+002, 3.832727e+003
1.214511e+002, 3.809223e+003
1.219333e+002, 3.786603e+003
1.224154e+002, 3.764911e+003
1.228975e+002, 3.743939e+003
1.233796e+002, 3.724779e+003
1.238617e+002, 3.707851e+003
1.243438e+002, 3.688563e+003
1.248260e+002, 3.661538e+003
1.253081e+002, 3.632161e+003
1.257902e+002, 3.605057e+003
1.262723e+002, 3.582313e+003
1.267544e+002, 3.562436e+003
1.272365e+002, 3.542358e+003
1.277187e+002, 3.521329e+003
1.282008e+002, 3.501360e+003
1.286829e+002, 3.483525e+003
1.291650e+002, 3.466760e+003
1.296471e+002, 3.449785e+003
1.301292e+002, 3.431794e+003
1.306114e+002, 3.412850e+003
1.310935e+002, 3.393707e+003
1.315756e+002, 3.371987e+003
1.320577e+002, 3.352306e+003
1.325398e+002, 3.336919e+003
1.330219e+002, 3.324779e+003
1.335041e+002, 3.313397e+003
1.339862e+002, 3.300568e+003
1.344683e+002, 3.285952e+003
1.349504e+002, 3.271685e+003
1.354325e+002, 3.257558e+003
1.359146e+002, 3.243829e+003
1.363968e+002, 3.230515e+003
1.368789e+002, 3.217677e+003
1.373610e+002, 3.205660e+003
1.378431e+002, 3.195220e+003
1.383252e+002, 3.186705e+003
1.388073e+002, 3.177818e+003
1.392895e+002, 3.168009e+003
1.397716e+002, 3.157893e+003
1.402537e+002, 3.148146e+003
1.407358e+002, 3.138956e+003
1.412179e+002, 3.130136e+003
1.417000e+002, 3.121940e+003
1.421821e+002, 3.114369e+003
1.426643e+002, 3.105871e+003
1.431464e+002, 3.095152e+003
1.436285e+002, 3.082847e+003
1.441106e+002, 3.070986e+003
1.445927e+002, 3.059235e+003
1.450748e+002, 3.049215e+003
1.455570e+002, 3.042613e+003
1.460391e+002, 3.039413e+003
1.465212e+002, 3.036487e+003
1.470033e+002, 3.031109e+003
1.474854e+002, 3.023041e+003
1.479675e+002, 3.014740e+003
1.484497e+002, 3.004817e+003
1.489318e+002, 2.995925e+003
1.494139e+002, 2.990245e+003
1.498960e+002, 2.988111e+003
1.503781e+002, 2.987208e+003
1.508602e+002, 2.984060e+003
1.513424e+002, 2.977429e+003
1.518245e+002, 2.971088e+003
1.523066e+002, 2.965239e+003
1.527887e+002, 2.959839e+003
1.532708e+002, 2.954506e+003
1.537529e+002, 2.949180e+003
1.542351e+002, 2.944483e+003
1.547172e+002, 2.942047e+003
1.551993e+002, 2.944714e+003
1.556814e+002, 2.946440e+003
1.561635e+002, 2.946862e+003
1.566456e+002, 2.946226e+003
1.571278e+002, 2.944713e+003
1.576099e+002, 2.942375e+003
1.580920e+002, 2.939395e+003
1.585741e+002, 2.936547e+003
1.590562e+002, 2.935464e+003
1.595383e+002, 2.932705e+003
1.600205e+002, 2.926030e+003
1.605026e+002, 2.916916e+003
1.609847e+002, 2.908706e+003
1.614668e+002, 2.903338e+003
1.619489e+002, 2.900466e+003
1.624310e+002, 2.898000e+003
1.629131e+002, 2.896728e+003
1.633953e+002, 2.895113e+003
1.638774e+002, 2.891815e+003
1.643595e+002, 2.887029e+003
1.648416e+002, 2.882738e+003
1.653237e+002, 2.880497e+003
1.658058e+002, 2.879586e+003
1.662880e+002, 2.878242e+003
1.667701e+002, 2.876320e+003
1.672522e+002, 2.873861e+003
1.677343e+002, 2.870500e+003
1.682164e+002, 2.865890e+003
1.686985e+002, 2.862074e+003
1.691807e+002, 2.861270e+003
1.696628e+002, 2.861755e+003
1.701449e+002, 2.861382e+003
1.706270e+002, 2.858891e+003
1.711091e+002, 2.855320e+003
1.715912e+002, 2.853059e+003
1.720734e+002, 2.852495e+003
1.725555e+002, 2.852676e+003
1.730376e+002, 2.854124e+003
1.735197e+002, 2.855795e+003
1.740018e+002, 2.855954e+003
1.744839e+002, 2.852992e+003
1.749661e+002, 2.847764e+003
1.754482e+002, 2.845593e+003
1.759303e+002, 2.849693e+003
1.764124e+002, 2.853501e+003
1.768945e+002, 2.855186e+003
1.773766e+002, 2.855343e+003
1.778588e+002, 2.855116e+003
1.783409e+002, 2.855274e+003
1.788230e+002, 2.855819e+003
1.793051e+002, 2.856798e+003
1.797872e+002, 2.859094e+003
1.802693e+002, 2.860950e+003
1.807515e+002, 2.861657e+003
1.812336e+002, 2.861421e+003
1.817157e+002, 2.860820e+003
1.821978e+002, 2.860289e+003
1.826799e+002, 2.859784e+003
1.831620e+002, 2.859750e+003
1.836441e+002, 2.860180e+003
1.841263e+002, 2.860931e+003
1.846084e+002, 2.862712e+003
1.850905e+002, 2.865096e+003
1.855726e+002, 2.866152e+003
1.860547e+002, 2.863592e+003
1.865368e+002, 2.856675e+003
1.870190e+002, 2.853184e+003
1.875011e+002, 2.856081e+003
1.879832e+002, 2.860189e+003
1.884653e+002, 2.861792e+003
1.889474e+002, 2.860497e+003
1.894296e+002, 2.858052e+003
1.899117e+002, 2.855931e+003
1.903938e+002, 2.854140e+003
1.908759e+002, 2.852274e+003
1.913580e+002, 2.849248e+003
1.918401e+002, 2.846625e+003
1.923223e+002, 2.846965e+003
1.928044e+002, 2.851148e+003
1.932865e+002, 2.855175e+003
1.937686e+002, 2.853567e+003
1.942507e+002, 2.848174e+003
1.947328e+002, 2.844838e+003
1.952150e+002, 2.846554e+003
1.956971e+002, 2.851312e+003
1.961792e+002, 2.855399e+003
1.966613e+002, 2.858741e+003
1.971434e+002, 2.860828e+003
1.976255e+002, 2.860799e+003
1.981077e+002, 2.859271e+003
1.985898e+002, 2.857757e+003
1.990719e+002, 2.856994e+003
1.995540e+002, 2.856865e+003
2.000361e+002, 2.856910e+003
2.005182e+002, 2.857191e+003
2.010004e+002, 2.857563e+003
2.014825e+002, 2.857989e+003
2.019646e+002, 2.858444e+003
2.024467e+002, 2.858877e+003
2.029288e+002, 2.859334e+003
2.034109e+002, 2.859803e+003
2.038930e+002, 2.859945e+003
2.043752e+002, 2.859749e+003
2.048573e+002, 2.859209e+003
2.053394e+002, 2.858356e+003
2.058215e+002, 2.857193e+003
2.063036e+002, 2.855652e+003
2.067857e+002, 2.853446e+003
2.072679e+002, 2.850481e+003
2.077500e+002, 2.848758e+003
2.082321e+002, 2.850325e+003
2.087142e+002, 2.851313e+003
2.091963e+002, 2.850128e+003
2.096784e+002, 2.847202e+003
2.101606e+002, 2.843956e+003
2.106427e+002, 2.841620e+003
2.111248e+002, 2.840295e+003
2.116069e+002, 2.839054e+003
2.120890e+002, 2.837509e+003
2.125711e+002, 2.836377e+003
2.130533e+002, 2.836242e+003
2.135354e+002, 2.836863e+003
2.140175e+002, 2.837522e+003
2.144996e+002, 2.837622e+003
2.149817e+002, 2.837193e+003
2.154638e+002, 2.835805e+003
2.159460e+002, 2.832311e+003
2.164281e+002, 2.829092e+003
2.169102e+002, 2.827600e+003
2.173923e+002, 2.827647e+003
2.178744e+002, 2.827926e+003
2.183565e+002, 2.827300e+003
2.188387e+002, 2.825664e+003
2.193208e+002, 2.823644e+003
2.198029e+002, 2.820247e+003
2.202850e+002, 2.817293e+003
2.207671e+002, 2.816149e+003
2.212492e+002, 2.816723e+003
2.217314e+002, 2.817655e+003
2.222135e+002, 2.817671e+003
2.226956e+002, 2.816724e+003
2.231777e+002, 2.816926e+003
2.236598e+002, 2.819921e+003
2.241419e+002, 2.822856e+003
2.246240e+002, 2.823217e+003
2.251062e+002, 2.820980e+003
2.255883e+002, 2.818557e+003
2.260704e+002, 2.818442e+003
2.265525e+002, 2.820067e+003
2.270346e+002, 2.819194e+003
2.275167e+002, 2.811611e+003
2.279989e+002, 2.803898e+003
2.284810e+002, 2.803389e+003
2.289631e+002, 2.810631e+003
2.294452e+002, 2.818075e+003
2.299273e+002, 2.819645e+003
2.304094e+002, 2.817130e+003
2.308916e+002, 2.815584e+003
2.313737e+002, 2.816915e+003
2.318558e+002, 2.818958e+003
2.323379e+002, 2.819070e+003
2.328200e+002, 2.816993e+003
2.333021e+002, 2.814775e+003
2.337843e+002, 2.814156e+003
2.342664e+002, 2.814136e+003
2.347485e+002, 2.813099e+003
2.352306e+002, 2.810078e+003
2.357127e+002, 2.806333e+003
2.361948e+002, 2.803387e+003
2.366770e+002, 2.801196e+003
2.371591e+002, 2.799946e+003
2.376412e+002, 2.800570e+003
2.381233e+002, 2.801938e+003
2.386054e+002, 2.802775e+003
2.390875e+002, 2.802448e+003
2.395697e+002, 2.801776e+003
2.400518e+002, 2.802165e+003
2.405339e+002, 2.803957e+003
2.410160e+002, 2.805736e+003
2.414981e+002, 2.806214e+003
2.419802e+002, 2.806714e+003
2.424624e+002, 2.808793e+003
2.429445e+002, 2.813238e+003
2.434266e+002, 2.818616e+003
2.439087e+002, 2.822400e+003
2.443908e+002, 2.824041e+003
2.448729e+002, 2.825509e+003
2.453550e+002, 2.827782e+003
2.458372e+002, 2.829906e+003
2.463193e+002, 2.830418e+003
2.468014e+002, 2.828675e+003
2.472835e+002, 2.826925e+003
2.477656e+002, 2.829811e+003
2.482477e+002, 2.840419e+003
2.487299e+002, 2.848177e+003
2.492120e+002, 2.849888e+003
2.496941e+002, 2.849214e+003
2.501762e+002, 2.848591e+003
2.506583e+002, 2.848810e+003
2.511404e+002, 2.849562e+003
2.516226e+002, 2.850475e+003
2.521047e+002, 2.851972e+003
2.525868e+002, 2.852628e+003
2.530689e+002, 2.850979e+003
2.535510e+002, 2.849460e+003
2.540331e+002, 2.850359e+003
2.545153e+002, 2.854038e+003
2.549974e+002, 2.858433e+003
2.554795e+002, 2.860306e+003
2.559616e+002, 2.858386e+003
2.564437e+002, 2.856570e+003
2.569258e+002, 2.853404e+003
2.574080e+002, 2.851415e+003
2.578901e+002, 2.852970e+003
2.583722e+002, 2.858136e+003
2.588543e+002, 2.864501e+003
2.593364e+002, 2.868809e+003
2.598185e+002, 2.870249e+003
2.603007e+002, 2.871539e+003
2.607828e+002, 2.872432e+003
2.612649e+002, 2.873396e+003
2.617470e+002, 2.874906e+003
2.622291e+002, 2.876899e+003
2.627112e+002, 2.878732e+003
2.631934e+002, 2.879521e+003
2.636755e+002, 2.878557e+003
2.641576e+002, 2.879216e+003
2.646397e+002, 2.883345e+003
2.651218e+002, 2.887220e+003
2.656039e+002, 2.888404e+003
2.660861e+002, 2.887094e+003
2.665682e+002, 2.885282e+003
2.670503e+002, 2.884938e+003
2.675324e+002, 2.886361e+003
2.680145e+002, 2.887396e+003
2.684966e+002, 2.887849e+003
2.689788e+002, 2.888177e+003
2.694609e+002, 2.888655e+003
2.699430e+002, 2.889228e+003
2.704251e+002, 2.889551e+003
2.709072e+002, 2.889198e+003
2.713893e+002, 2.888107e+003
2.718715e+002, 2.888511e+003
2.723536e+002, 2.892023e+003
2.728357e+002, 2.895111e+003
2.733178e+002, 2.896201e+003
2.737999e+002, 2.895599e+003
2.742820e+002, 2.894177e+003
2.747642e+002, 2.892272e+003
2.752463e+002, 2.890064e+003
2.757284e+002, 2.890034e+003
2.762105e+002, 2.894438e+003
2.766926e+002, 2.898035e+003
2.771747e+002, 2.898367e+003
2.776568e+002, 2.896544e+003
2.781389e+002, 2.895082e+003
2.786211e+002, 2.895335e+003
2.791032e+002, 2.896996e+003
2.795853e+002, 2.898844e+003
2.800674e+002, 2.901136e+003
2.805495e+002, 2.903292e+003
2.810316e+002, 2.905086e+003
2.815138e+002, 2.906667e+003
2.819959e+002, 2.908500e+003
2.824780e+002, 2.910917e+003
2.829601e+002, 2.913285e+003
2.834422e+002, 2.913642e+003
2.839243e+002, 2.910416e+003
2.844065e+002, 2.908473e+003
2.848886e+002, 2.909820e+003
2.853707e+002, 2.912787e+003
2.858528e+002, 2.914924e+003
2.863349e+002, 2.915406e+003
2.868170e+002, 2.915021e+003
2.872992e+002, 2.915167e+003
2.877813e+002, 2.916234e+003
2.882634e+002, 2.916485e+003
2.887455e+002, 2.914412e+003
2.892276e+002, 2.911868e+003
2.897097e+002, 2.911480e+003
2.901919e+002, 2.913907e+003
2.906740e+002, 2.917011e+003
2.911561e+002, 2.917834e+003
2.916382e+002, 2.915853e+003
2.921203e+002, 2.915839e+003
2.926024e+002, 2.920355e+003
2.930846e+002, 2.925860e+003
2.935667e+002, 2.928389e+003
2.940488e+002, 2.927496e+003
2.945309e+002, 2.926504e+003
2.950130e+002, 2.928926e+003
2.954951e+002, 2.934774e+003
2.959773e+002, 2.938426e+003
2.964594e+002, 2.937599e+003
2.969415e+002, 2.936004e+003
2.974236e+002, 2.936636e+003
2.979057e+002, 2.939474e+003
2.983878e+002, 2.942595e+003
2.988700e+002, 2.944603e+003
2.993521e+002, 2.945718e+003
2.998342e+002, 2.947551e+003
3.003163e+002, 2.950360e+003
3.007984e+002, 2.953596e+003
3.012805e+002, 2.957174e+003
3.017627e+002, 2.960990e+003
3.022448e+002, 2.964724e+003
3.027269e+002, 2.968372e+003
3.032090e+002, 2.971700e+003
3.036911e+002, 2.974069e+003
3.041732e+002, 2.974784e+003
3.046554e+002, 2.975812e+003
3.051375e+002, 2.978483e+003
3.056196e+002, 2.982189e+003
3.061017e+002, 2.985213e+003
3.065838e+002, 2.986713e+003
3.070659e+002, 2.987635e+003
3.075481e+002, 2.989865e+003
3.080302e+002, 2.993599e+003
3.085123e+002, 2.997480e+003
3.089944e+002, 3.001644e+003
3.094765e+002, 3.005560e+003
3.099586e+002, 3.007873e+003
3.104408e+002, 3.007931e+003
3.109229e+002, 3.007625e+003
3.114050e+002, 3.009928e+003
3.118871e+002, 3.014958e+003
3.123692e+002, 3.018793e+003
3.128513e+002, 3.019550e+003
3.133335e+002, 3.019209e+003
3.138156e+002, 3.020657e+003
3.142977e+002, 3.024388e+003
3.147798e+002, 3.027501e+003
3.152619e+002, 3.027222e+003
3.157440e+002, 3.023589e+003
3.162262e+002, 3.019110e+003
3.167083e+002, 3.013059e+003
3.171904e+002, 3.006866e+003
3.176725e+002, 3.001353e+003
3.181546e+002, 2.996606e+003
3.186367e+002, 2.993257e+003
3.191188e+002, 2.992110e+003
3.196010e+002, 2.992768e+003
3.200831e+002, 2.992851e+003
3.205652e+002, 2.992041e+003
3.210473e+002, 2.991004e+003
3.215294e+002, 2.990093e+003
3.220115e+002, 2.989265e+003
3.224937e+002, 2.988272e+003
3.229758e+002, 2.986890e+003
3.234579e+002, 2.985433e+003
3.239400e+002, 2.984886e+003
3.244221e+002, 2.986108e+003
3.249042e+002, 2.986324e+003
3.253864e+002, 2.984302e+003
3.258685e+002, 2.980663e+003
3.263506e+002, 2.976675e+003
3.268327e+002, 2.972832e+003
3.273148e+002, 2.968343e+003
3.277969e+002, 2.961211e+003
3.282791e+002, 2.950667e+003
3.287612e+002, 2.942332e+003
3.292433e+002, 2.940458e+003
3.297254e+002, 2.939875e+003
3.302075e+002, 2.933992e+003
3.306896e+002, 2.921673e+003
3.311718e+002, 2.907349e+003
3.316539e+002, 2.894917e+003
3.321360e+002, 2.884595e+003
3.326181e+002, 2.875466e+003
3.331002e+002, 2.869465e+003
3.335823e+002, 2.863219e+003
3.340645e+002, 2.853390e+003
3.345466e+002, 2.840426e+003
3.350287e+002, 2.828095e+003
3.355108e+002, 2.819422e+003
3.359929e+002, 2.813680e+003
3.364750e+002, 2.805649e+003
3.369572e+002, 2.792723e+003
3.374393e+002, 2.780398e+003
3.379214e+002, 2.771291e+003
3.384035e+002, 2.764517e+003
3.388856e+002, 2.758149e+003
3.393677e+002, 2.751381e+003
3.398499e+002, 2.744262e+003
3.403320e+002, 2.736849e+003
3.408141e+002, 2.728534e+003
3.412962e+002, 2.721045e+003
3.417783e+002, 2.715655e+003
3.422604e+002, 2.710926e+003
3.427426e+002, 2.704777e+003
3.432247e+002, 2.696637e+003
3.437068e+002, 2.687927e+003
3.441889e+002, 2.680536e+003
3.446710e+002, 2.674699e+003
3.451531e+002, 2.670030e+003
3.456353e+002, 2.667789e+003
3.461174e+002, 2.665903e+003
3.465995e+002, 2.662921e+003
3.470816e+002, 2.658706e+003
3.475637e+002, 2.653613e+003
3.480458e+002, 2.647824e+003
3.485280e+002, 2.641259e+003
3.490101e+002, 2.635741e+003
3.494922e+002, 2.631253e+003
3.499743e+002, 2.627632e+003
3.504564e+002, 2.625074e+003
3.509385e+002, 2.623377e+003
3.514207e+002, 2.622286e+003
3.519028e+002, 2.621786e+003
3.523849e+002, 2.621523e+003
3.528670e+002, 2.619904e+003
3.533491e+002, 2.614899e+003
3.538312e+002, 2.611077e+003
3.543134e+002, 2.609439e+003
3.547955e+002, 2.609099e+003
3.552776e+002, 2.609359e+003
3.557597e+002, 2.609923e+003
3.562418e+002, 2.610189e+003
3.567239e+002, 2.609050e+003
3.572061e+002, 2.605410e+003
3.576882e+002, 2.602547e+003
3.581703e+002, 2.599829e+003
3.586524e+002, 2.598241e+003
3.591345e+002, 2.599431e+003
3.596166e+002, 2.602904e+003
3.600987e+002, 2.605895e+003
3.605808e+002, 2.605484e+003
3.610630e+002, 2.601152e+003
3.615451e+002, 2.598380e+003
3.620272e+002, 2.597697e+003
3.625093e+002, 2.597890e+003
3.629914e+002, 2.599188e+003
3.634735e+002, 2.601029e+003
3.639557e+002, 2.602252e+003
3.644378e+002, 2.602029e+003
3.649199e+002, 2.601053e+003
3.654020e+002, 2.602391e+003
3.658841e+002, 2.608765e+003
3.663662e+002, 2.613781e+003
3.668484e+002, 2.614272e+003
3.673305e+002, 2.614330e+003
3.678126e+002, 2.618587e+003
3.682947e+002, 2.628315e+003
3.687768e+002, 2.640255e+003
3.692589e+002, 2.649458e+003
3.697411e+002, 2.655164e+003
3.702232e+002, 2.660042e+003
3.707053e+002, 2.663906e+003
3.711874e+002, 2.667271e+003
3.716695e+002, 2.670250e+003
3.721516e+002, 2.672940e+003
3.726338e+002, 2.675667e+003
3.731159e+002, 2.679114e+003
3.735980e+002, 2.683183e+003
3.740801e+002, 2.684721e+003
3.745622e+002, 2.681254e+003
3.750443e+002, 2.678180e+003
3.755265e+002, 2.678456e+003
3.760086e+002, 2.680017e+003
3.764907e+002, 2.679701e+003
3.769728e+002, 2.675937e+003
3.774549e+002, 2.669509e+003
3.779370e+002, 2.661423e+003
3.784192e+002, 2.650196e+003
3.789013e+002, 2.641604e+003
3.793834e+002, 2.639301e+003
3.798655e+002, 2.638960e+003
3.803476e+002, 2.637016e+003
3.808297e+002, 2.632793e+003
3.813119e+002, 2.628979e+003
3.817940e+002, 2.628851e+003
3.822761e+002, 2.632324e+003
3.827582e+002, 2.634839e+003
3.832403e+002, 2.635086e+003
3.837224e+002, 2.635126e+003
3.842046e+002, 2.636406e+003
3.846867e+002, 2.638681e+003
3.851688e+002, 2.641061e+003
3.856509e+002, 2.642813e+003
3.861330e+002, 2.644359e+003
3.866151e+002, 2.646669e+003
3.870973e+002, 2.649780e+003
3.875794e+002, 2.653449e+003
3.880615e+002, 2.656853e+003
3.885436e+002, 2.660957e+003
3.890257e+002, 2.667740e+003
3.895078e+002, 2.679123e+003
3.899900e+002, 2.690390e+003
3.904721e+002, 2.696847e+003
3.909542e+002, 2.699065e+003
3.914363e+002, 2.701329e+003
3.919184e+002, 2.704904e+003
3.924005e+002, 2.709285e+003
3.928827e+002, 2.714219e+003
3.933648e+002, 2.719914e+003
3.938469e+002, 2.724110e+003
3.943290e+002, 2.724508e+003
3.948111e+002, 2.723326e+003
3.952932e+002, 2.724340e+003
3.957754e+002, 2.728269e+003
3.962575e+002, 2.732669e+003
3.967396e+002, 2.735452e+003
3.972217e+002, 2.736722e+003
3.977038e+002, 2.738177e+003
3.981859e+002, 2.740322e+003
3.986681e+002, 2.742325e+003
3.991501e+002, 2.743086e+003
3.996323e+002, 2.743108e+003
4.001144e+002, 2.744263e+003
4.005965e+002, 2.747596e+003
4.010786e+002, 2.752474e+003
4.015607e+002, 2.757171e+003
4.020428e+002, 2.762172e+003
4.025250e+002, 2.766186e+003
4.030071e+002, 2.768141e+003
4.034892e+002, 2.769361e+003
4.039713e+002, 2.771321e+003
4.044534e+002, 2.774348e+003
4.049355e+002, 2.777964e+003
4.054177e+002, 2.781738e+003
4.058998e+002, 2.785839e+003
4.063819e+002, 2.788987e+003
4.068640e+002, 2.790513e+003
4.073461e+002, 2.791853e+003
4.078282e+002, 2.793038e+003
4.083104e+002, 2.794613e+003
4.087925e+002, 2.798027e+003
4.092746e+002, 2.804497e+003
4.097567e+002, 2.812873e+003
4.102388e+002, 2.817904e+003
4.107209e+002, 2.815880e+003
4.112031e+002, 2.815159e+003
4.116852e+002, 2.817564e+003
4.121673e+002, 2.820932e+003
4.126494e+002, 2.823047e+003
4.131315e+002, 2.823398e+003
4.136136e+002, 2.823227e+003
4.140958e+002, 2.824207e+003
