##NAMES=Burbankite
##RRUFFID=R050646
##IDEAL CHEMISTRY=(Na,Ca)_3_(Sr,Ba,Ce)_3_(CO_3_)_5_
##LOCALITY=Cerro Sapo, Cochabamba Department, Bolivia
##OWNER=RRUFF
##SOURCE=Marcus Origlieri
##DESCRIPTION=Brown prismatic crystals associated with blue sodalite, R060405, and dolomite
##STATUS=The identification of this mineral has been confirmed by X-ray diffraction and chemical analysis
##URL=rruff.info/R050646
##MEASURED CHEMISTRY=gray: (Na_2.03_Ca_0.97_)_Σ=3_(Sr_3.14_Ba_0.18_Ce_0.17_[box]_0.15_Th_0.10_Nd_0.08_La_0.08_)_Σ=3_(CO_3_)_5_ ; light-gray: (Na_1.97_Ca_1.03_)_Σ=3_(Sr_1.87_[box]_0.40_Ba_0.37_Ce_0.14_Th_0.11_Nd_0.06_La_0.05_)_Σ=3_(CO_3_)_5_ ; C estimated by stoichiometry
92.02539, 17572.89
92.50751, 17513.66
92.98962, 17612.93
93.47174, 17683.72
93.95386, 17792.31
94.43597, 17876.31
94.91809, 17940.89
95.40021, 17997.47
95.88232, 18015.96
96.36444, 18002.42
96.84656, 17943.32
97.32867, 17829.98
97.81078, 17687.80
98.29290, 17551.76
98.77502, 17436.04
99.25713, 17311.98
99.73925, 17217.69
100.2214, 17172.39
100.7035, 17137.70
101.1856, 17092.49
101.6677, 17035.22
102.1498, 16979.67
102.6320, 16941.73
103.1141, 16920.66
103.5962, 16924.05
104.0783, 16962.08
104.5604, 17017.84
105.0425, 17075.97
105.5247, 17133.52
106.0068, 17184.69
106.4889, 17208.64
106.9710, 17198.38
107.4531, 17198.89
107.9352, 17234.31
108.4173, 17299.20
108.8995, 17367.30
109.3816, 17439.00
109.8637, 17500.64
110.3458, 17539.06
110.8279, 17551.09
111.3100, 17546.18
111.7922, 17523.16
112.2743, 17462.68
112.7564, 17449.17
113.2385, 17530.99
113.7206, 17654.26
114.2027, 17783.46
114.6849, 17905.86
115.1670, 18012.64
115.6491, 18068.20
116.1312, 18005.88
116.6133, 17967.17
117.0954, 17981.47
117.5776, 18033.28
118.0597, 18099.96
118.5418, 18168.16
119.0239, 18238.20
119.5060, 18283.91
119.9881, 18273.45
120.4703, 18272.88
120.9524, 18323.64
121.4345, 18416.62
121.9166, 18503.84
122.3987, 18539.23
122.8808, 18511.96
123.3630, 18487.64
123.8451, 18455.45
124.3272, 18431.41
124.8093, 18438.35
125.2914, 18483.79
125.7735, 18535.62
126.2557, 18548.87
126.7378, 18532.28
127.2199, 18526.30
127.7020, 18555.49
128.1841, 18608.75
128.6662, 18646.60
129.1483, 18643.63
129.6305, 18649.56
130.1126, 18713.85
130.5947, 18830.36
131.0768, 18940.14
131.5589, 18987.32
132.0410, 18964.09
132.5232, 18942.44
133.0053, 18904.87
133.4874, 18889.85
133.9695, 18935.13
134.4516, 19042.47
134.9337, 19165.87
135.4159, 19231.01
135.8980, 19190.39
136.3801, 19180.09
136.8622, 19224.92
137.3443, 19288.15
137.8264, 19335.27
138.3086, 19353.62
138.7907, 19359.71
139.2728, 19398.78
139.7549, 19493.29
140.2370, 19597.47
140.7191, 19723.24
141.2013, 19854.67
141.6834, 19973.12
142.1655, 20071.34
142.6476, 20143.92
143.1297, 20165.03
143.6118, 20086.68
144.0939, 20018.53
144.5761, 20001.03
145.0582, 20030.50
145.5403, 20091.46
146.0224, 20185.21
146.5045, 20303.32
146.9866, 20415.15
147.4688, 20513.51
147.9509, 20609.93
148.4330, 20712.57
148.9151, 20820.77
149.3972, 20940.43
149.8793, 21115.11
150.3615, 21297.00
150.8436, 21416.11
151.3257, 21409.64
151.8078, 21343.03
152.2899, 21373.00
152.7720, 21554.76
153.2542, 21740.86
153.7363, 21887.37
154.2184, 21996.42
154.7005, 22067.87
155.1826, 22088.90
155.6647, 22067.66
156.1469, 22088.36
156.6290, 22161.90
157.1111, 22274.29
157.5932, 22444.78
158.0753, 22653.16
158.5574, 22859.89
159.0396, 23031.04
159.5217, 23161.95
160.0038, 23298.82
160.4859, 23429.72
160.9680, 23575.88
161.4501, 23768.51
161.9323, 23993.99
162.4144, 24199.13
162.8965, 24322.96
163.3786, 24337.79
163.8607, 24390.89
164.3428, 24496.06
164.8250, 24625.59
165.3071, 24755.85
165.7892, 24884.14
166.2713, 25029.89
166.7534, 25228.15
167.2355, 25490.33
167.7177, 25715.39
168.1998, 25871.12
168.6819, 25992.56
169.1640, 26117.63
169.6461, 26250.22
170.1282, 26400.59
170.6104, 26577.48
171.0925, 26776.60
171.5746, 27011.71
172.0567, 27328.16
172.5388, 27688.82
173.0209, 27981.00
173.5031, 28164.27
173.9852, 28296.25
174.4673, 28411.89
174.9494, 28516.14
175.4315, 28663.49
175.9136, 28910.66
176.3958, 29254.45
176.8779, 29587.64
177.3600, 29907.86
177.8421, 30200.84
178.3242, 30432.54
178.8063, 30612.71
179.2885, 30806.59
179.7706, 31104.49
180.2527, 31546.59
180.7348, 31918.56
181.2169, 32144.55
181.6990, 32344.65
182.1812, 32561.81
182.6633, 32811.60
183.1454, 33100.46
183.6275, 33444.45
184.1096, 33877.46
184.5917, 34296.11
185.0738, 34700.74
185.5560, 35093.33
186.0381, 35461.84
186.5202, 35807.76
187.0023, 36156.41
187.4844, 36548.50
187.9665, 37012.27
188.4487, 37482.96
188.9308, 37967.34
189.4129, 38451.59
189.8950, 38916.68
190.3771, 39354.67
190.8592, 39786.55
191.3414, 40254.10
191.8235, 40777.82
192.3056, 41295.84
192.7877, 41787.23
193.2698, 42271.04
193.7519, 42775.06
194.2341, 43310.28
194.7162, 43867.39
195.1983, 44433.34
195.6804, 45009.12
196.1625, 45586.45
196.6446, 46149.16
197.1268, 46712.76
197.6089, 47321.76
198.0910, 48005.55
198.5731, 48718.65
199.0552, 49384.26
199.5373, 49998.39
200.0195, 50614.34
200.5016, 51244.84
200.9837, 51898.36
201.4658, 52617.47
201.9479, 53462.50
202.4300, 54338.07
202.9122, 55117.13
203.3943, 55791.29
203.8764, 56460.98
204.3585, 57211.56
204.8406, 58043.97
205.3227, 58872.66
205.8048, 59650.21
206.2870, 60436.77
206.7691, 61290.01
207.2512, 62213.16
207.7333, 63128.48
208.2154, 63922.91
208.6975, 64564.68
209.1797, 65274.80
209.6618, 66131.11
210.1439, 67042.04
210.6260, 67976.27
211.1081, 68922.66
211.5902, 69859.74
212.0724, 70755.78
212.5545, 71586.49
213.0366, 72432.82
213.5187, 73300.50
214.0008, 74180.60
214.4829, 75078.23
214.9651, 75988.20
215.4472, 76903.81
215.9293, 77812.64
216.4114, 78711.88
216.8935, 79611.11
217.3756, 80552.45
217.8578, 81468.20
218.3399, 82285.77
218.8220, 82999.60
219.3041, 83705.38
219.7862, 84554.55
220.2683, 85696.07
220.7505, 86686.34
221.2326, 87405.53
221.7147, 88069.12
222.1968, 88855.96
222.6789, 89803.89
223.1610, 90813.57
223.6432, 91738.06
224.1253, 92523.33
224.6074, 93323.96
225.0895, 94171.25
225.5716, 95017.63
226.0537, 95810.90
226.5358, 96541.96
227.0180, 97241.83
227.5001, 97951.84
227.9822, 98670.62
228.4643, 99398.52
228.9464, 100166.8
229.4285, 100929.0
229.9107, 101605.0
230.3928, 102173.4
230.8749, 102729.6
231.3570, 103413.5
231.8391, 104243.4
232.3212, 104999.6
232.8034, 105588.0
233.2855, 106106.0
233.7676, 106678.9
234.2497, 107334.1
234.7318, 108015.2
235.2139, 108675.0
235.6961, 109314.8
236.1782, 109922.4
236.6603, 110455.9
237.1424, 110965.9
237.6245, 111533.9
238.1066, 112178.2
238.5888, 112862.6
239.0709, 113603.3
239.5530, 114371.6
240.0351, 115071.4
240.5172, 115609.9
240.9993, 116070.4
241.4815, 116609.6
241.9636, 117253.9
242.4457, 117938.9
242.9278, 118618.7
243.4099, 119301.8
243.8920, 120009.7
244.3742, 120771.8
244.8563, 121559.7
245.3384, 122293.1
245.8205, 122927.8
246.3026, 123608.6
246.7847, 124462.0
247.2668, 125403.1
247.7490, 126294.8
248.2311, 127052.8
248.7132, 127730.4
249.1953, 128483.5
249.6774, 129359.1
250.1595, 130211.5
250.6417, 130931.2
251.1238, 131604.7
251.6059, 132344.0
252.0880, 133209.5
252.5701, 134159.8
253.0522, 135106.3
253.5344, 136040.0
254.0165, 136978.6
254.4986, 137896.2
254.9807, 138830.9
255.4628, 139837.2
255.9449, 140938.7
256.4271, 142107.1
256.9092, 143289.6
257.3913, 144490.9
257.8734, 145691.9
258.3555, 146850.1
258.8376, 148022.7
259.3198, 149284.0
259.8019, 150659.7
260.2840, 152095.0
260.7661, 153477.7
261.2482, 154797.8
261.7303, 156076.0
262.2125, 157245.0
262.6946, 158429.3
263.1767, 159750.5
263.6588, 161247.1
264.1409, 162814.9
264.6230, 164286.7
265.1052, 165637.0
265.5873, 166928.0
266.0694, 168135.7
266.5515, 169310.2
267.0336, 170486.2
267.5157, 171667.9
267.9979, 172832.5
268.4800, 173946.8
268.9621, 175006.8
269.4442, 176009.4
269.9263, 176997.5
270.4084, 177911.8
270.8906, 178708.1
271.3727, 179382.8
271.8548, 179960.5
272.3369, 180466.3
272.8190, 180881.2
273.3011, 181274.1
273.7833, 181722.2
274.2654, 182093.1
274.7475, 182261.7
275.2296, 182257.6
275.7117, 182238.1
276.1938, 182372.8
276.6760, 182713.6
277.1581, 182885.1
277.6402, 182839.1
278.1223, 182713.5
278.6044, 182531.9
279.0865, 182319.2
279.5686, 182119.6
280.0508, 181966.2
280.5329, 181858.8
281.0150, 181795.7
281.4971, 181814.9
281.9792, 181827.7
282.4613, 181826.6
282.9435, 181793.2
283.4256, 181693.5
283.9077, 181504.0
284.3898, 181227.9
284.8719, 180907.3
285.3540, 180516.3
285.8362, 180114.7
286.3183, 179697.2
286.8004, 179281.1
287.2825, 178894.0
287.7646, 178548.8
288.2467, 178244.8
288.7289, 177978.0
289.2110, 177822.0
289.6931, 177612.5
290.1752, 177350.5
290.6573, 177015.3
291.1394, 176561.1
291.6216, 175965.9
292.1037, 175292.8
292.5858, 174660.3
293.0679, 174102.4
293.5500, 173527.7
294.0321, 172898.9
294.5143, 172262.2
294.9964, 171681.8
295.4785, 171172.0
295.9606, 170682.0
296.4427, 170144.0
296.9248, 169553.8
297.4070, 168909.0
297.8891, 168130.0
298.3712, 167343.1
298.8533, 166672.4
299.3354, 166134.5
299.8175, 165634.8
300.2997, 165074.4
300.7818, 164437.3
301.2639, 163864.0
301.7460, 163387.4
302.2281, 162950.7
302.7102, 162519.2
303.1924, 162090.3
303.6745, 161658.9
304.1566, 161207.4
304.6387, 160744.5
305.1208, 160365.8
305.6029, 160094.4
306.0851, 159871.8
306.5672, 159653.5
307.0493, 159455.5
307.5314, 159329.7
308.0135, 159304.1
308.4956, 159376.1
308.9778, 159537.1
309.4599, 159880.3
309.9420, 160181.0
310.4241, 160317.6
310.9062, 160365.3
311.3883, 160454.8
311.8705, 160631.3
312.3526, 160900.8
312.8347, 161291.3
313.3168, 161826.4
313.7989, 162402.3
314.2810, 163000.5
314.7632, 163627.7
315.2453, 164298.4
315.7274, 165014.9
316.2095, 165771.8
316.6916, 166571.0
317.1737, 167424.1
317.6559, 168283.9
318.1380, 169101.8
318.6201, 169952.3
319.1022, 170933.4
319.5843, 172053.4
320.0664, 173185.4
320.5485, 174213.0
321.0306, 175120.3
321.5128, 176043.5
321.9949, 176938.9
322.4770, 177889.1
322.9591, 178984.4
323.4412, 180196.0
323.9233, 181412.9
324.4055, 182562.1
324.8876, 183648.8
325.3697, 184664.2
325.8518, 185470.5
326.3339, 186366.4
326.8160, 187560.5
327.2982, 188926.1
327.7803, 190198.8
328.2624, 191254.8
328.7445, 192151.9
329.2266, 193039.5
329.7087, 193905.6
330.1909, 194785.2
330.6730, 195687.0
331.1551, 196602.5
331.6372, 197529.9
332.1193, 198469.0
332.6014, 199394.0
333.0836, 200269.3
333.5657, 201073.0
334.0478, 201884.6
334.5299, 202751.1
335.0120, 203592.0
335.4941, 204339.8
335.9763, 204984.4
336.4584, 205573.6
336.9405, 206138.2
337.4226, 206676.3
337.9047, 207239.9
338.3868, 207939.3
338.8690, 208564.5
339.3511, 208998.2
339.8332, 209265.4
340.3153, 209449.3
340.7974, 209598.4
341.2795, 209712.9
341.7617, 209784.4
342.2438, 209820.5
342.7259, 209814.1
343.2080, 209763.1
343.6901, 209669.3
344.1722, 209543.4
344.6544, 209391.7
345.1365, 209193.2
345.6186, 208905.5
346.1007, 208540.8
346.5828, 208046.0
347.0649, 207367.7
347.5471, 206593.6
348.0292, 205794.9
348.5113, 204991.8
348.9934, 204156.2
349.4755, 203271.0
349.9576, 202340.6
350.4398, 201306.6
350.9219, 200089.3
351.4040, 198856.8
351.8861, 197728.7
352.3682, 196678.9
352.8503, 195596.3
353.3325, 194401.3
353.8146, 193101.1
354.2967, 191771.7
354.7788, 190367.0
355.2609, 188987.7
355.7430, 187698.7
356.2252, 186438.5
356.7073, 185103.3
357.1894, 183645.2
357.6715, 182117.7
358.1536, 180638.1
358.6357, 179244.8
359.1179, 177846.6
359.5999, 176417.6
360.0821, 174996.6
360.5642, 173646.1
361.0463, 172360.9
361.5284, 171071.0
362.0105, 169666.6
362.4926, 168097.6
362.9748, 166610.2
363.4569, 165234.3
363.9390, 163910.4
364.4211, 162645.9
364.9032, 161410.0
365.3853, 160161.8
365.8675, 158858.0
366.3496, 157510.8
366.8317, 156241.6
367.3138, 155110.4
367.7959, 153986.0
368.2780, 152804.5
368.7602, 151628.7
369.2423, 150543.6
369.7244, 149592.7
370.2065, 148720.7
370.6886, 147824.5
371.1707, 146913.6
371.6529, 145953.4
372.1350, 144896.3
372.6171, 143820.3
373.0992, 142741.7
373.5813, 141679.8
374.0634, 140664.9
374.5456, 139744.7
375.0277, 138924.3
375.5098, 138117.1
375.9919, 137315.7
376.4740, 136533.9
376.9561, 135793.9
377.4383, 135076.0
377.9204, 134341.8
378.4025, 133545.7
378.8846, 132726.6
379.3667, 131987.7
379.8488, 131337.0
380.3310, 130748.5
380.8131, 130277.3
381.2952, 129832.1
381.7773, 129314.4
382.2594, 128692.0
382.7415, 128026.4
383.2237, 127358.4
383.7058, 126687.1
384.1879, 126101.9
384.6700, 125646.3
385.1521, 125269.7
385.6342, 124939.6
386.1164, 124651.9
386.5985, 124334.9
387.0806, 123904.3
387.5627, 123423.5
388.0448, 123059.9
388.5269, 122859.2
389.0091, 122670.7
389.4912, 122364.6
389.9733, 121986.8
390.4554, 121635.3
390.9375, 121346.4
391.4196, 121075.5
391.9018, 120775.7
392.3839, 120450.9
392.8660, 120149.1
393.3481, 119896.3
393.8302, 119674.9
394.3123, 119433.3
394.7945, 119136.4
395.2766, 118925.6
395.7587, 118952.3
396.2408, 119077.5
396.7229, 119036.1
397.2050, 118754.8
397.6872, 118437.1
398.1693, 118328.8
398.6514, 118455.3
399.1335, 118462.7
399.6156, 118268.3
400.0977, 118004.0
400.5798, 117729.0
401.0620, 117459.8
401.5441, 117240.2
402.0262, 117108.0
402.5083, 117038.1
402.9904, 116904.6
403.4725, 116636.7
403.9547, 116402.7
404.4368, 116270.1
404.9189, 116175.0
405.4010, 116033.1
405.8831, 115820.4
406.3652, 115578.4
406.8474, 115369.8
407.3295, 115218.6
407.8116, 115034.7
408.2937, 114806.1
408.7758, 114561.1
409.2579, 114339.7
409.7401, 114119.8
410.2222, 113819.6
410.7043, 113356.9
411.1864, 112767.0
411.6685, 112347.9
412.1506, 112296.2
412.6328, 112182.6
413.1149, 111953.7
413.5970, 111628.4
414.0791, 111207.6
414.5612, 110696.7
415.0433, 110156.0
415.5255, 109684.9
416.0076, 109306.6
416.4897, 108910.5
416.9718, 108491.5
417.4539, 108053.1
417.9360, 107574.3
418.4182, 107070.0
418.9003, 106597.8
419.3824, 106210.2
419.8645, 105884.7
420.3466, 105512.8
420.8287, 105088.3
421.3109, 104631.4
421.7930, 104134.2
422.2751, 103620.5
422.7572, 103122.4
423.2393, 102653.0
423.7214, 102184.2
424.2036, 101684.6
424.6857, 101156.1
425.1678, 100627.0
425.6499, 100111.6
426.1320, 99588.25
426.6141, 99025.94
427.0963, 98431.84
427.5784, 97849.82
428.0605, 97307.37
428.5426, 96784.11
429.0247, 96252.05
429.5068, 95706.02
429.9890, 95164.22
430.4711, 94647.62
430.9532, 94142.95
431.4353, 93610.77
431.9174, 93019.29
432.3995, 92446.35
432.8817, 91938.98
433.3638, 91479.44
433.8459, 91036.72
434.3280, 90607.67
434.8101, 90164.02
435.2922, 89655.59
435.7744, 89052.50
436.2565, 88512.07
436.7386, 88105.73
437.2207, 87709.59
437.7028, 87234.89
438.1849, 86689.13
438.6671, 86130.18
439.1492, 85597.05
439.6313, 85083.19
440.1134, 84563.48
440.5955, 83995.60
441.0776, 83474.34
441.5598, 83024.59
442.0418, 82621.44
442.5240, 82262.23
443.0061, 81939.39
443.4882, 81607.67
443.9703, 81208.16
444.4524, 80726.21
444.9345, 80242.08
445.4167, 79691.23
445.8988, 79204.48
446.3809, 78890.77
446.8630, 78673.45
447.3451, 78392.64
447.8272, 77948.53
448.3094, 77415.64
448.7915, 76989.41
449.2736, 76710.25
449.7557, 76421.74
450.2378, 76092.29
450.7199, 75732.16
451.2021, 75321.52
451.6842, 74865.66
452.1663, 74442.25
452.6484, 74151.88
453.1305, 73954.41
453.6126, 73659.59
454.0948, 73204.16
454.5769, 72779.85
455.0590, 72580.80
455.5411, 72495.71
456.0232, 72328.19
456.5053, 72004.48
456.9875, 71631.17
457.4696, 71262.59
457.9517, 70911.37
458.4338, 70647.54
458.9159, 70528.78
459.3980, 70438.75
459.8802, 70167.95
460.3623, 69695.27
460.8444, 69302.48
461.3265, 69132.86
461.8086, 69001.01
462.2907, 68714.59
462.7729, 68285.27
463.2550, 67875.65
463.7371, 67599.55
464.2192, 67430.77
464.7013, 67208.84
465.1834, 66865.39
465.6656, 66559.61
466.1477, 66320.82
466.6298, 66124.98
467.1119, 65968.08
467.5940, 65838.73
468.0761, 65685.84
468.5583, 65436.17
469.0404, 65059.92
469.5225, 64768.66
470.0046, 64688.02
470.4867, 64562.51
470.9688, 64266.61
471.4510, 63883.73
471.9331, 63564.99
472.4152, 63387.41
472.8973, 63268.97
473.3794, 63041.36
473.8615, 62669.32
474.3437, 62338.91
474.8258, 62117.85
475.3079, 61923.43
475.7900, 61718.63
476.2721, 61498.66
476.7542, 61252.79
477.2364, 60962.80
477.7185, 60646.38
478.2006, 60335.67
478.6827, 60030.36
479.1648, 59742.64
479.6469, 59483.05
480.1291, 59244.82
480.6112, 59020.36
481.0933, 58821.93
481.5754, 58604.04
482.0575, 58305.40
482.5396, 57980.65
483.0217, 57751.27
483.5038, 57645.70
483.9860, 57544.61
484.4681, 57327.68
484.9502, 56989.11
485.4323, 56679.74
485.9144, 56418.64
486.3965, 56164.68
486.8787, 55879.59
487.3608, 55591.59
487.8429, 55364.84
488.3250, 55223.95
488.8071, 55115.41
489.2892, 54943.97
489.7714, 54676.54
490.2535, 54421.72
490.7356, 54178.13
491.2177, 53946.49
491.6998, 53747.21
492.1819, 53561.27
492.6641, 53339.83
493.1462, 53043.69
493.6283, 52711.88
494.1104, 52465.55
494.5925, 52338.04
495.0746, 52207.29
495.5568, 52061.49
496.0389, 51891.80
496.5210, 51675.96
497.0031, 51418.76
497.4852, 51169.91
497.9673, 50959.48
498.4495, 50785.80
498.9316, 50672.04
499.4137, 50645.10
499.8958, 50550.44
500.3779, 50246.92
500.8600, 49829.09
501.3422, 49496.66
501.8243, 49280.08
502.3064, 49102.59
502.7885, 48928.32
503.2706, 48765.29
503.7527, 48636.01
504.2349, 48546.48
504.7170, 48451.69
505.1991, 48303.34
505.6812, 48096.31
506.1633, 47918.01
506.6454, 47795.98
507.1276, 47668.98
507.6097, 47528.55
508.0918, 47364.52
508.5739, 47143.04
509.0560, 46855.48
509.5381, 46571.25
510.0203, 46409.73
510.5024, 46411.59
510.9845, 46396.64
511.4666, 46367.43
511.9487, 46318.82
512.4308, 46261.62
512.9130, 46181.41
513.3951, 46042.55
513.8772, 45815.09
514.3593, 45554.87
514.8414, 45357.48
515.3235, 45224.11
515.8057, 45145.04
516.2878, 45181.75
516.7699, 45207.06
517.2520, 45086.50
517.7341, 44842.80
518.2162, 44644.39
518.6984, 44597.54
519.1805, 44613.14
519.6626, 44584.80
520.1447, 44511.61
520.6268, 44412.20
521.1089, 44287.36
521.5911, 44150.86
522.0732, 44034.59
522.5553, 43932.56
523.0374, 43859.70
523.5195, 43869.46
524.0016, 43874.46
524.4838, 43767.97
524.9659, 43568.79
525.4480, 43399.20
525.9301, 43351.28
526.4122, 43401.48
526.8943, 43430.98
527.3765, 43483.49
527.8586, 43444.80
528.3407, 43204.77
528.8228, 42944.84
529.3049, 42815.83
529.7870, 42829.83
530.2692, 42900.49
530.7513, 42979.43
531.2334, 43053.28
531.7155, 43030.55
532.1976, 42871.43
532.6797, 42708.81
533.1619, 42555.92
533.6440, 42449.81
534.1261, 42455.90
534.6082, 42599.27
535.0903, 42731.71
535.5724, 42734.50
536.0546, 42662.39
536.5367, 42629.47
537.0188, 42650.21
537.5009, 42704.01
537.9830, 42798.29
538.4651, 42912.39
538.9473, 42937.66
539.4294, 42772.13
539.9115, 42654.11
540.3936, 42697.37
540.8757, 42801.73
541.3578, 42835.27
541.8400, 42776.91
542.3221, 42705.49
542.8042, 42700.75
543.2863, 42763.52
543.7684, 42841.87
544.2505, 42953.49
544.7326, 43059.56
545.2147, 43173.33
545.6968, 43267.70
546.1790, 43295.07
546.6611, 43249.29
547.1432, 43205.80
547.6253, 43266.55
548.1074, 43418.91
548.5895, 43499.70
549.0717, 43457.14
549.5538, 43440.76
550.0359, 43588.54
550.5180, 43807.27
551.0001, 43949.84
551.4822, 43954.04
551.9644, 43973.32
552.4465, 44140.25
552.9286, 44383.77
553.4107, 44548.61
553.8928, 44603.26
554.3749, 44636.91
554.8571, 44727.59
555.3392, 44874.18
555.8213, 45016.83
556.3034, 45169.80
556.7855, 45302.10
557.2676, 45374.46
557.7498, 45437.56
558.2319, 45556.25
558.7140, 45742.61
559.1961, 45951.70
559.6782, 46138.89
560.1603, 46303.16
560.6425, 46452.66
561.1246, 46575.32
561.6067, 46699.11
562.0888, 46830.09
562.5709, 46968.15
563.0530, 47112.95
563.5352, 47263.94
564.0173, 47426.33
564.4994, 47619.48
564.9815, 47828.38
565.4636, 47991.55
565.9457, 48092.21
566.4279, 48209.79
566.9100, 48404.12
567.3921, 48657.70
567.8742, 48901.89
568.3563, 49151.15
568.8384, 49367.12
569.3206, 49501.40
569.8027, 49612.87
570.2848, 49784.85
570.7669, 50022.18
571.2490, 50263.19
571.7311, 50451.75
572.2133, 50592.93
572.6954, 50733.87
573.1775, 50861.52
573.6596, 51008.71
574.1417, 51183.22
574.6238, 51376.19
575.1060, 51591.43
575.5881, 51823.34
576.0702, 52040.46
576.5523, 52195.77
577.0344, 52317.40
577.5165, 52536.60
577.9987, 52892.45
578.4808, 53170.00
578.9629, 53218.89
579.4450, 53175.70
579.9271, 53224.21
580.4092, 53371.46
580.8914, 53580.59
581.3735, 53889.22
581.8556, 54220.52
582.3377, 54500.82
582.8198, 54723.31
583.3019, 54894.37
583.7841, 55011.69
584.2662, 55094.00
584.7483, 55192.52
585.2304, 55299.42
585.7125, 55438.55
586.1946, 55627.58
586.6768, 55831.45
587.1589, 56045.66
587.6410, 56256.20
588.1231, 56435.17
588.6052, 56563.56
589.0873, 56659.61
589.5695, 56759.18
590.0516, 56863.82
590.5337, 56963.41
591.0158, 57067.98
591.4979, 57152.25
591.9800, 57187.82
592.4622, 57185.23
592.9443, 57186.94
593.4264, 57218.48
593.9085, 57247.80
594.3906, 57224.21
594.8727, 57176.74
595.3549, 57201.27
595.8370, 57332.84
596.3191, 57482.42
596.8012, 57535.54
597.2833, 57472.04
597.7654, 57456.21
598.2476, 57545.78
598.7297, 57609.21
599.2118, 57584.08
599.6939, 57518.91
600.1760, 57482.75
600.6581, 57493.32
601.1403, 57506.62
601.6224, 57468.06
602.1045, 57379.86
602.5866, 57296.16
603.0687, 57205.40
603.5508, 57145.35
604.0330, 57161.89
604.5151, 57209.02
604.9972, 57229.85
605.4793, 57214.87
605.9614, 57190.98
606.4435, 57171.43
606.9257, 57150.94
607.4078, 57135.89
607.8899, 57120.67
608.3720, 57049.83
608.8541, 56871.77
609.3362, 56641.96
609.8184, 56538.12
610.3005, 56697.16
610.7826, 56781.06
611.2647, 56741.04
611.7468, 56672.04
612.2289, 56638.27
612.7111, 56628.37
613.1932, 56594.41
613.6753, 56507.13
614.1574, 56387.69
614.6395, 56254.21
615.1216, 56098.91
615.6038, 56034.00
616.0859, 56121.69
616.5680, 56244.70
617.0501, 56312.96
617.5322, 56336.40
618.0143, 56343.57
618.4965, 56344.89
618.9786, 56325.84
619.4607, 56253.32
619.9428, 56160.01
620.4249, 56106.27
620.9070, 56106.48
621.3892, 56139.25
621.8713, 56186.02
622.3534, 56246.82
622.8355, 56304.64
623.3176, 56376.41
623.7997, 56422.43
624.2819, 56427.63
624.7640, 56411.49
625.2461, 56367.83
625.7282, 56309.90
626.2103, 56302.04
626.6924, 56424.88
627.1745, 56621.83
627.6566, 56748.27
628.1387, 56799.88
628.6208, 56845.46
629.1030, 56914.57
629.5851, 56985.67
630.0672, 57013.60
630.5493, 56992.93
631.0314, 57016.82
631.5135, 57135.36
631.9957, 57267.38
632.4778, 57367.80
632.9599, 57441.52
633.4420, 57493.09
633.9241, 57526.17
634.4063, 57578.09
634.8884, 57713.59
635.3705, 57949.75
635.8526, 58128.62
636.3347, 58222.20
636.8168, 58293.61
637.2990, 58337.68
637.7811, 58386.87
638.2632, 58492.47
638.7453, 58667.82
639.2274, 58833.79
639.7095, 58925.79
640.1917, 58975.02
640.6738, 59028.77
641.1559, 59091.70
641.6380, 59187.18
642.1201, 59340.34
642.6022, 59512.56
643.0844, 59613.91
643.5665, 59594.75
644.0486, 59605.18
644.5307, 59669.55
645.0128, 59739.93
645.4949, 59779.24
645.9771, 59806.42
646.4592, 59875.90
646.9413, 60013.52
647.4234, 60146.40
647.9055, 60153.98
648.3876, 60039.11
648.8698, 59946.19
649.3519, 59881.14
649.8340, 59851.87
650.3161, 59898.54
650.7982, 59975.43
651.2803, 59983.55
651.7625, 59882.00
652.2446, 59800.32
652.7267, 59850.06
653.2088, 59907.05
653.6909, 59782.04
654.1730, 59509.86
654.6552, 59323.96
655.1373, 59376.12
655.6194, 59561.16
656.1015, 59606.61
656.5836, 59470.94
657.0657, 59302.84
657.5479, 59050.79
658.0300, 58823.70
658.5121, 58697.22
658.9942, 58625.19
659.4763, 58514.68
659.9584, 58331.48
660.4406, 58112.95
660.9227, 57857.47
661.4048, 57596.43
661.8869, 57429.95
662.3690, 57374.82
662.8511, 57312.04
663.3333, 57161.26
663.8154, 56933.76
664.2975, 56678.41
664.7796, 56348.48
665.2617, 56057.09
665.7438, 55813.11
666.2260, 55601.66
666.7081, 55436.18
667.1902, 55293.77
667.6723, 55126.99
668.1544, 54910.96
668.6365, 54655.65
669.1187, 54352.96
669.6008, 54007.18
670.0829, 53723.04
670.5650, 53538.20
671.0471, 53357.49
671.5292, 53095.21
672.0114, 52783.59
672.4935, 52547.34
672.9756, 52463.69
673.4577, 52323.30
673.9398, 52019.39
674.4219, 51663.39
674.9041, 51346.70
675.3862, 51081.70
675.8683, 50857.26
676.3504, 50668.74
676.8325, 50498.37
677.3146, 50304.73
677.7968, 50086.54
678.2789, 49850.04
678.7610, 49575.74
679.2431, 49307.00
679.7252, 49105.93
680.2073, 48923.14
680.6895, 48646.16
681.1716, 48208.96
681.6537, 47782.78
682.1358, 47483.04
682.6179, 47246.25
683.1000, 46972.03
683.5822, 46657.66
684.0643, 46369.66
684.5464, 46155.05
685.0285, 45983.50
685.5106, 45765.11
685.9927, 45475.33
686.4749, 45197.63
686.9570, 44926.67
687.4391, 44679.02
687.9212, 44481.66
688.4033, 44309.23
688.8854, 44118.63
689.3676, 43900.02
689.8497, 43647.03
690.3318, 43311.17
690.8139, 42948.98
691.2960, 42704.65
691.7781, 42587.25
692.2603, 42467.09
692.7424, 42266.59
693.2245, 42006.40
693.7066, 41733.79
694.1887, 41405.80
694.6708, 41154.66
695.1530, 41055.25
695.6351, 40950.54
696.1172, 40750.81
696.5993, 40496.18
697.0814, 40269.38
697.5635, 40100.84
698.0457, 39931.71
698.5278, 39689.00
699.0099, 39397.95
699.4920, 39134.85
699.9741, 38907.29
700.4562, 38697.51
700.9384, 38498.92
701.4205, 38310.09
701.9026, 38133.17
702.3847, 37985.26
702.8668, 37803.41
703.3489, 37552.87
703.8311, 37303.92
704.3132, 37094.57
704.7953, 36909.30
705.2774, 36718.06
705.7595, 36512.87
706.2416, 36306.20
706.7238, 36128.04
707.2059, 35963.98
707.6880, 35726.98
708.1701, 35400.18
708.6522, 35127.37
709.1343, 34978.59
709.6164, 34901.11
710.0985, 34830.82
710.5806, 34778.31
711.0627, 34656.32
711.5449, 34425.30
712.0270, 34158.73
712.5091, 33841.37
712.9912, 33532.78
713.4733, 33328.49
713.9554, 33240.13
714.4376, 33177.21
714.9197, 33061.88
715.4018, 32898.96
715.8839, 32690.08
716.3660, 32425.62
716.8481, 32199.69
717.3303, 32065.94
717.8124, 31951.31
718.2945, 31758.41
718.7766, 31495.52
719.2587, 31274.62
719.7408, 31135.61
720.2230, 31005.07
720.7051, 30872.88
721.1872, 30723.32
721.6693, 30519.78
722.1514, 30271.81
722.6335, 30042.45
723.1157, 29880.54
723.5978, 29768.28
724.0799, 29669.03
724.5620, 29586.02
725.0441, 29475.18
725.5262, 29322.89
726.0084, 29151.22
726.4905, 28979.48
726.9726, 28802.94
727.4547, 28609.07
727.9368, 28379.60
728.4189, 28159.04
728.9011, 27944.74
729.3832, 27756.37
729.8653, 27636.19
730.3474, 27563.77
730.8295, 27471.34
731.3116, 27320.83
731.7938, 27137.21
732.2759, 26960.90
732.7580, 26792.41
733.2401, 26611.64
733.7222, 26400.45
734.2043, 26222.79
734.6865, 26149.25
735.1686, 26119.72
735.6507, 25991.17
736.1328, 25719.05
736.6149, 25504.73
737.0970, 25452.29
737.5792, 25410.71
738.0613, 25249.96
738.5434, 25025.61
739.0255, 24870.42
739.5076, 24825.18
739.9897, 24793.13
740.4719, 24644.07
740.9540, 24399.67
741.4361, 24216.84
741.9182, 24105.85
742.4003, 24008.54
742.8824, 23909.28
743.3646, 23808.21
743.8467, 23713.29
744.3288, 23625.66
744.8109, 23500.40
745.2930, 23276.63
745.7751, 23081.50
746.2573, 22994.35
746.7394, 22948.44
747.2215, 22865.62
747.7036, 22735.45
748.1857, 22591.14
748.6678, 22456.10
749.1500, 22327.11
749.6321, 22197.02
750.1142, 22065.66
750.5963, 21936.22
751.0784, 21805.27
751.5605, 21688.89
752.0427, 21602.78
752.5248, 21542.34
753.0069, 21479.19
753.4890, 21403.81
753.9711, 21340.71
754.4532, 21351.91
754.9354, 21323.97
755.4175, 21116.19
755.8996, 20811.15
756.3817, 20619.35
756.8638, 20636.03
757.3459, 20681.46
757.8281, 20496.37
758.3102, 20158.58
758.7923, 19985.60
759.2744, 20003.31
759.7565, 20043.22
760.2386, 20032.79
760.7208, 19984.56
761.2029, 19919.95
761.6850, 19840.50
762.1671, 19736.10
762.6492, 19576.63
763.1313, 19430.90
763.6135, 19315.17
764.0956, 19227.69
764.5777, 19181.08
765.0598, 19167.50
765.5419, 19131.28
766.0240, 19005.28
766.5062, 18864.06
766.9883, 18831.90
767.4704, 18881.32
767.9525, 18902.59
768.4346, 18869.68
768.9167, 18799.85
769.3989, 18706.89
769.8810, 18591.01
770.3631, 18454.53
770.8452, 18249.81
771.3273, 18111.08
771.8094, 18092.00
772.2916, 18094.51
772.7737, 18077.65
773.2558, 18042.08
773.7379, 17990.84
774.2200, 17917.77
774.7021, 17859.55
775.1843, 17858.08
775.6664, 17875.69
776.1485, 17871.31
776.6306, 17838.27
777.1127, 17757.26
777.5948, 17617.76
778.0770, 17474.43
778.5591, 17422.11
779.0412, 17468.49
779.5233, 17427.92
780.0054, 17233.41
780.4875, 17093.42
780.9697, 17112.56
781.4518, 17189.24
781.9339, 17243.96
782.4160, 17272.75
782.8981, 17248.96
783.3802, 17143.06
783.8624, 17009.92
784.3445, 16839.29
784.8266, 16677.94
785.3087, 16584.37
785.7908, 16564.05
786.2729, 16601.93
786.7551, 16698.69
787.2372, 16804.63
787.7193, 16802.46
788.2014, 16693.74
788.6835, 16628.63
789.1656, 16643.26
789.6478, 16628.24
790.1299, 16496.64
790.6120, 16303.80
791.0941, 16186.44
791.5762, 16167.71
792.0583, 16149.52
792.5404, 16136.75
793.0225, 16112.57
793.5046, 16039.33
793.9868, 15964.33
794.4689, 15962.70
794.9510, 16042.70
795.4331, 16124.42
795.9152, 16158.54
796.3973, 16149.81
796.8795, 16083.01
797.3616, 15973.88
797.8437, 15910.30
798.3258, 15915.56
798.8079, 15924.91
799.2900, 15880.21
799.7722, 15791.21
800.2543, 15711.41
800.7364, 15624.21
801.2185, 15579.51
801.7006, 15629.36
802.1827, 15674.69
802.6649, 15673.78
803.1470, 15635.04
803.6291, 15566.30
804.1112, 15458.53
804.5933, 15380.05
805.0754, 15386.06
805.5576, 15421.93
806.0397, 15447.10
806.5218, 15454.63
807.0039, 15432.15
807.4860, 15377.48
807.9681, 15314.99
808.4503, 15270.33
808.9324, 15241.67
809.4145, 15220.12
809.8966, 15205.69
810.3787, 15197.48
810.8608, 15194.93
811.3430, 15200.28
811.8251, 15233.48
812.3072, 15281.22
812.7893, 15256.80
813.2714, 15062.52
813.7535, 14942.80
814.2357, 14993.28
814.7178, 15072.63
815.1999, 15095.34
815.6820, 15068.24
816.1641, 15017.47
816.6462, 14951.69
817.1284, 14891.79
817.6105, 14854.69
818.0926, 14838.22
818.5747, 14838.32
819.0568, 14854.99
819.5389, 14898.97
820.0211, 14976.61
820.5032, 15041.65
820.9853, 15036.37
821.4674, 14966.33
821.9495, 14921.00
822.4316, 14921.16
822.9138, 14899.17
823.3959, 14816.53
823.8780, 14735.31
824.3601, 14710.75
824.8422, 14718.32
825.3243, 14686.86
825.8065, 14574.52
826.2886, 14496.97
826.7707, 14505.26
827.2528, 14561.12
827.7349, 14674.29
828.2170, 14799.00
828.6992, 14835.94
829.1813, 14754.64
829.6634, 14640.69
830.1455, 14585.27
830.6276, 14571.09
831.1097, 14531.42
831.5919, 14467.37
832.0740, 14444.15
832.5561, 14488.74
833.0382, 14544.26
833.5203, 14556.79
834.0024, 14531.58
834.4846, 14507.92
834.9667, 14461.94
835.4488, 14457.89
835.9309, 14560.74
836.4130, 14639.54
836.8951, 14600.58
837.3773, 14498.90
837.8594, 14441.64
838.3415, 14458.21
838.8236, 14464.79
839.3057, 14404.61
839.7878, 14326.03
840.2700, 14265.85
840.7521, 14226.68
841.2342, 14214.49
841.7163, 14227.56
842.1984, 14242.33
842.6805, 14233.73
843.1627, 14215.45
843.6448, 14237.96
844.1269, 14303.15
844.6090, 14341.15
845.0911, 14341.83
845.5732, 14301.66
846.0554, 14191.87
846.5375, 14056.33
847.0196, 14028.65
847.5017, 14190.65
847.9838, 14273.27
848.4659, 14218.14
848.9481, 14154.49
849.4302, 14125.52
849.9123, 14118.21
850.3944, 14119.40
850.8765, 14125.01
851.3586, 14123.55
851.8408, 14090.81
852.3229, 14066.81
852.8050, 14099.37
853.2871, 14158.36
853.7692, 14191.99
854.2513, 14195.09
854.7335, 14195.05
855.2156, 14210.42
855.6977, 14221.62
856.1798, 14170.75
856.6619, 14062.15
857.1440, 14057.41
857.6262, 14191.18
858.1083, 14283.27
858.5904, 14239.55
859.0725, 14141.77
859.5546, 14103.91
860.0367, 14132.79
860.5189, 14143.26
861.0010, 14107.64
861.4831, 14092.12
861.9652, 14121.16
862.4473, 14161.85
862.9294, 14203.10
863.4116, 14234.16
863.8937, 14229.66
864.3758, 14173.04
864.8579, 14110.67
865.3400, 14053.99
865.8221, 14019.76
866.3043, 14042.05
866.7864, 14102.10
867.2685, 14153.07
867.7506, 14177.96
868.2327, 14181.64
868.7148, 14162.42
869.1970, 14130.20
869.6791, 14122.57
870.1612, 14139.50
870.6433, 14141.17
871.1254, 14114.28
871.6075, 14095.04
872.0897, 14114.17
872.5718, 14158.97
873.0539, 14185.34
873.5360, 14237.98
874.0181, 14192.20
874.5002, 14347.28
874.9823, 14476.37
875.4644, 14534.18
875.9465, 14538.62
876.4286, 14493.31
876.9108, 14404.46
877.3929, 14341.86
877.8750, 14366.14
878.3571, 14380.21
878.8392, 14292.24
879.3214, 14188.60
879.8035, 14195.49
880.2856, 14290.40
880.7677, 14346.75
881.2498, 14298.18
881.7319, 14224.98
882.2141, 14242.80
882.6962, 14313.97
883.1783, 14312.54
883.6604, 14241.75
884.1425, 14191.88
884.6246, 14195.54
885.1068, 14226.09
885.5889, 14258.70
886.0710, 14290.52
886.5531, 14291.04
887.0352, 14229.99
887.5173, 14230.87
887.9995, 14360.45
888.4816, 14482.41
888.9637, 14503.98
889.4458, 14462.60
889.9279, 14427.77
890.4100, 14394.50
890.8922, 14394.68
891.3743, 14466.44
891.8564, 14533.43
892.3385, 14570.28
892.8206, 14577.78
893.3027, 14544.69
893.7849, 14481.84
894.2670, 14433.81
894.7491, 14424.39
895.2312, 14434.04
895.7133, 14446.77
896.1954, 14465.69
896.6776, 14499.21
897.1597, 14544.39
897.6418, 14590.82
898.1239, 14633.57
898.6060, 14666.37
899.0881, 14670.92
899.5703, 14659.68
900.0524, 14717.24
900.5345, 14849.96
901.0166, 14915.53
901.4987, 14866.87
901.9808, 14799.98
902.4630, 14792.32
902.9451, 14825.83
903.4272, 14834.76
903.9093, 14791.41
904.3914, 14788.61
904.8735, 14872.32
905.3557, 14939.13
905.8378, 14921.68
906.3199, 14889.75
906.8020, 14938.53
907.2841, 15064.24
907.7662, 15136.95
908.2484, 15059.30
908.7305, 15007.64
909.2126, 15077.67
909.6947, 15184.87
910.1768, 15266.22
910.6589, 15313.54
911.1411, 15317.05
911.6232, 15270.95
912.1053, 15257.70
912.5874, 15404.77
913.0695, 15593.66
913.5516, 15616.18
914.0338, 15521.89
914.5159, 15475.70
914.9980, 15514.88
915.4801, 15576.34
915.9622, 15613.84
916.4443, 15630.82
916.9265, 15633.96
917.4086, 15623.25
917.8907, 15601.62
918.3728, 15562.62
918.8549, 15551.43
919.3370, 15590.60
919.8192, 15663.49
920.3013, 15752.78
920.7834, 15860.09
921.2655, 15943.18
921.7476, 15997.04
922.2297, 16035.38
922.7119, 16045.17
923.1940, 16054.61
923.6761, 16086.50
924.1582, 16127.76
924.6403, 16150.07
925.1224, 16146.80
925.6046, 16142.05
926.0867, 16109.06
926.5688, 16112.94
927.0509, 16228.98
927.5330, 16374.91
928.0151, 16456.50
928.4973, 16467.82
928.9794, 16448.54
929.4615, 16401.51
929.9436, 16376.40
930.4257, 16428.67
930.9078, 16522.77
931.3900, 16617.90
931.8721, 16705.93
932.3542, 16783.08
932.8363, 16845.86
933.3184, 16868.31
933.8005, 16796.31
934.2827, 16696.11
934.7648, 16788.31
935.2469, 17044.17
935.7290, 17168.17
936.2111, 17107.28
936.6932, 17044.62
937.1754, 17086.97
937.6575, 17192.43
938.1396, 17292.58
938.6217, 17391.34
939.1038, 17425.30
939.5859, 17350.99
940.0681, 17330.89
940.5502, 17431.64
941.0323, 17563.73
941.5144, 17655.72
941.9965, 17716.44
942.4786, 17786.06
942.9608, 17890.87
943.4429, 17950.46
943.9250, 17914.59
944.4071, 17888.40
944.8892, 17921.29
945.3713, 17981.71
945.8535, 18041.12
946.3356, 18093.46
946.8177, 18125.06
947.2998, 18107.09
947.7819, 18105.26
948.2640, 18160.15
948.7462, 18237.68
949.2283, 18309.58
949.7104, 18377.31
950.1925, 18454.01
950.6746, 18542.72
951.1567, 18627.52
951.6389, 18704.80
952.1210, 18764.34
952.6031, 18764.25
953.0852, 18745.23
953.5673, 18811.91
954.0494, 18962.75
954.5316, 19101.82
955.0137, 19177.36
955.4958, 19233.26
955.9779, 19352.31
956.4600, 19398.92
956.9421, 19438.18
957.4242, 19517.86
957.9063, 19498.91
958.3884, 19539.54
958.8705, 19601.11
959.3527, 19652.00
959.8348, 19700.92
960.3169, 19773.94
960.7990, 19876.42
961.2811, 19977.28
961.7632, 20080.05
962.2454, 20169.79
962.7275, 20241.45
963.2096, 20294.84
963.6917, 20317.46
964.1738, 20315.85
964.6559, 20364.57
965.1381, 20524.74
965.6202, 20636.19
966.1023, 20623.02
966.5844, 20642.72
967.0665, 20798.14
967.5486, 21007.76
968.0308, 21169.12
968.5129, 21275.02
968.9950, 21348.90
969.4771, 21363.61
969.9592, 21389.63
970.4413, 21459.12
970.9235, 21541.20
971.4056, 21591.48
971.8877, 21639.83
972.3698, 21763.97
972.8519, 21984.71
973.3340, 22183.53
973.8162, 22280.42
974.2983, 22341.76
974.7804, 22398.41
975.2625, 22466.27
975.7446, 22579.46
976.2267, 22725.21
976.7089, 22850.85
977.1910, 22930.75
977.6731, 22996.65
978.1552, 23076.34
978.6373, 23166.82
979.1194, 23263.57
979.6016, 23367.43
980.0837, 23482.58
980.5658, 23608.44
981.0479, 23728.73
981.5300, 23830.52
982.0121, 23931.64
982.4943, 24072.55
982.9764, 24241.47
983.4585, 24357.31
983.9406, 24420.54
984.4227, 24544.74
984.9048, 24770.55
985.3870, 24994.12
985.8691, 25116.87
986.3512, 25171.10
986.8333, 25258.29
987.3154, 25378.28
987.7975, 25544.81
988.2797, 25780.20
988.7618, 25974.66
989.2439, 26074.15
989.7260, 26136.08
990.2081, 26220.48
990.6902, 26327.29
991.1724, 26457.48
991.6545, 26605.62
992.1366, 26796.48
992.6187, 27107.56
993.1008, 27346.42
993.5829, 27363.10
994.0651, 27301.74
994.5472, 27357.06
995.0293, 27530.34
995.5114, 27727.73
995.9935, 27978.03
996.4756, 28209.59
996.9578, 28424.77
997.4399, 28605.33
997.9220, 28703.39
998.4041, 28777.17
998.8862, 28924.84
999.3683, 29158.03
999.8505, 29375.82
1000.333, 29535.88
1000.815, 29698.58
1001.297, 29877.84
1001.779, 30074.55
1002.261, 30314.39
1002.743, 30563.45
1003.225, 30749.33
1003.707, 30853.24
1004.190, 30954.18
1004.672, 31086.18
1005.154, 31233.78
1005.636, 31386.85
1006.118, 31550.96
1006.600, 31755.98
1007.082, 31977.17
1007.564, 32134.69
1008.046, 32198.80
1008.529, 32277.92
1009.011, 32461.31
1009.493, 32698.24
1009.975, 32971.77
1010.457, 33240.41
1010.939, 33402.92
1011.421, 33480.97
1011.903, 33620.93
1012.385, 33895.29
1012.868, 34188.54
1013.350, 34360.19
1013.832, 34472.71
1014.314, 34648.73
1014.796, 34866.41
1015.278, 35040.15
1015.760, 35167.66
1016.242, 35348.11
1016.725, 35644.46
1017.207, 35962.87
1017.689, 36146.41
1018.171, 36241.57
1018.653, 36424.46
1019.135, 36680.59
1019.617, 36889.54
1020.099, 37027.59
1020.581, 37200.28
1021.064, 37484.24
1021.546, 37821.67
1022.028, 38108.62
1022.510, 38348.48
1022.992, 38597.93
1023.474, 38858.20
1023.956, 39087.96
1024.438, 39273.55
1024.921, 39459.57
1025.403, 39680.40
1025.885, 39924.55
1026.367, 40167.68
1026.849, 40409.88
1027.331, 40622.02
1027.813, 40787.66
1028.295, 41033.79
1028.777, 41419.78
1029.260, 41807.75
1029.742, 42081.27
1030.224, 42278.31
1030.706, 42497.09
1031.188, 42740.71
1031.670, 42993.83
1032.152, 43257.22
1032.634, 43532.30
1033.116, 43831.58
1033.599, 44118.15
1034.081, 44346.04
1034.563, 44546.90
1035.045, 44828.61
1035.527, 45231.13
1036.009, 45574.68
1036.491, 45818.66
1036.973, 46082.34
1037.456, 46407.97
1037.938, 46749.59
1038.420, 47078.73
1038.902, 47390.82
1039.384, 47667.86
1039.866, 47876.88
1040.348, 48140.15
1040.830, 48490.04
1041.313, 48846.15
1041.795, 49187.70
1042.277, 49528.88
1042.759, 49896.65
1043.241, 50272.02
1043.723, 50577.41
1044.205, 50748.26
1044.687, 51030.90
1045.169, 51566.53
1045.651, 52041.44
1046.134, 52338.68
1046.616, 52564.74
1047.098, 52758.09
1047.580, 52953.88
1048.062, 53258.14
1048.544, 53727.64
1049.026, 54135.60
1049.508, 54378.75
1049.991, 54650.29
1050.473, 55027.73
1050.955, 55448.94
1051.437, 55886.75
1051.919, 56323.59
1052.401, 56734.42
1052.883, 57119.53
1053.365, 57456.26
1053.848, 57640.57
1054.330, 57904.18
1054.812, 58410.37
1055.294, 58968.32
1055.776, 59411.43
1056.258, 59771.82
1056.740, 60151.14
1057.222, 60569.37
1057.704, 60992.29
1058.187, 61438.28
1058.669, 61850.19
1059.151, 62164.62
1059.633, 62465.66
1060.115, 62833.11
1060.597, 63246.29
1061.079, 63632.10
1061.561, 63968.19
1062.043, 64380.81
1062.526, 65028.97
1063.008, 65617.85
1063.490, 65931.59
1063.972, 66207.41
1064.454, 66679.23
1064.936, 67270.13
1065.418, 67785.47
1065.900, 68186.55
1066.383, 68585.84
1066.865, 69045.01
1067.347, 69489.78
1067.829, 69875.13
1068.311, 70241.20
1068.793, 70576.91
1069.275, 70934.71
1069.757, 71429.28
1070.240, 72074.92
1070.722, 72693.86
1071.204, 73192.88
1071.686, 73674.13
1072.168, 74204.80
1072.650, 74720.55
1073.132, 75153.69
1073.614, 75545.09
1074.096, 75977.66
1074.578, 76459.74
1075.061, 76923.09
1075.543, 77298.10
1076.025, 77715.18
1076.507, 78279.02
1076.989, 78867.08
1077.471, 79419.30
1077.953, 79914.05
1078.435, 80305.84
1078.918, 80608.81
1079.400, 80929.19
1079.882, 81303.02
1080.364, 81714.09
1080.846, 82144.10
1081.328, 82622.60
1081.810, 83255.24
1082.292, 83901.52
1082.774, 84355.84
1083.257, 84628.80
1083.739, 84888.45
1084.221, 85150.38
1084.703, 85534.78
1085.185, 86229.34
1085.667, 86916.32
1086.149, 87328.09
1086.631, 87655.21
1087.114, 88125.44
1087.596, 88733.27
1088.078, 89375.29
1088.560, 90043.19
1089.042, 90638.44
1089.524, 91048.66
1090.006, 91467.59
1090.488, 91998.26
1090.970, 92596.29
1091.453, 93240.39
1091.935, 93902.88
1092.417, 94512.74
1092.899, 95050.41
1093.381, 95602.22
1093.863, 96205.96
1094.345, 96823.30
1094.827, 97456.95
1095.309, 98072.07
1095.792, 98590.27
1096.274, 99085.40
1096.756, 99726.70
1097.238, 100540.8
1097.720, 101300.4
1098.202, 101923.7
1098.684, 102498.1
1099.166, 102990.6
1099.649, 103516.6
1100.131, 104173.5
1100.613, 104906.8
1101.095, 105653.7
1101.577, 106399.7
1102.059, 107098.6
1102.541, 107672.3
1103.023, 108301.7
1103.505, 109082.1
1103.988, 109871.1
1104.470, 110626.2
1104.952, 111320.7
1105.434, 111856.2
1105.916, 112291.1
1106.398, 112924.0
1106.880, 113906.4
1107.362, 114828.6
1107.844, 115616.7
1108.327, 116349.6
1108.809, 116982.4
1109.291, 117641.6
1109.773, 118488.4
1110.255, 119446.6
1110.737, 120270.7
1111.219, 120897.9
1111.701, 121575.7
1112.184, 122417.2
1112.666, 123173.9
1113.148, 123738.4
1113.630, 124261.0
1114.112, 124774.4
1114.594, 125336.2
1115.076, 126088.2
1115.558, 127057.2
1116.041, 127921.0
1116.523, 128570.4
1117.005, 129296.8
1117.487, 130134.8
1117.969, 131052.6
1118.451, 132149.6
1118.933, 133207.3
1119.415, 133881.6
1119.897, 134220.4
1120.380, 134818.5
1120.862, 135821.0
1121.344, 136709.7
1121.826, 137376.3
1122.308, 138141.8
1122.790, 139196.0
1123.272, 140257.8
1123.754, 141038.2
1124.236, 141625.9
1124.719, 142320.9
1125.201, 143143.1
1125.683, 144000.5
1126.165, 144929.7
1126.647, 145736.1
1127.129, 146326.7
1127.611, 146952.8
1128.093, 147799.5
1128.576, 148504.2
1129.058, 149556.2
1129.540, 150234.6
1130.022, 151123.1
1130.504, 152239.5
1130.986, 153315.7
1131.468, 154313.3
1131.950, 155200.5
1132.432, 155946.7
1132.915, 156671.8
1133.397, 157520.7
1133.879, 158459.5
1134.361, 159363.2
1134.843, 160242.7
1135.325, 161165.0
1135.807, 162132.5
1136.289, 163110.3
1136.771, 164085.8
1137.254, 165014.6
1137.736, 165847.9
1138.218, 166673.4
1138.700, 167685.6
1139.182, 168815.9
1139.664, 169822.4
1140.146, 170731.3
1140.628, 171681.4
1141.111, 172691.9
1141.593, 173660.1
1142.075, 174540.8
1142.557, 175370.9
1143.039, 176143.5
1143.521, 176936.3
1144.003, 177871.3
1144.485, 178927.9
1144.968, 180128.0
1145.450, 181406.9
1145.932, 182567.9
1146.414, 183564.5
1146.896, 184556.7
1147.378, 185672.7
1147.860, 186798.1
1148.342, 187841.8
1148.824, 188817.2
1149.307, 189688.3
1149.789, 190528.8
1150.271, 191448.2
1150.753, 192463.7
1151.235, 193542.4
1151.717, 194681.1
1152.199, 195844.3
1152.681, 197062.8
1153.163, 198240.9
1153.646, 199223.5
1154.128, 200209.1
1154.610, 201470.5
1155.092, 202891.9
1155.574, 204175.6
1156.056, 205267.9
1156.538, 206302.9
1157.020, 207235.2
1157.503, 208235.2
1157.985, 209314.3
1158.467, 210521.1
1158.949, 212032.3
1159.431, 213599.6
1159.913, 214853.0
1160.395, 215831.6
1160.877, 216911.1
1161.359, 218160.7
1161.842, 219418.7
1162.324, 220695.9
1162.806, 221965.0
1163.288, 223192.7
1163.770, 224438.5
1164.252, 225760.4
1164.734, 227120.1
1165.216, 228419.3
1165.698, 229644.8
1166.181, 230994.0
1166.663, 232538.3
1167.145, 233920.9
1167.627, 235071.2
1168.109, 236137.5
1168.591, 237148.9
1169.073, 238269.9
1169.555, 239732.2
1170.037, 241418.8
1170.520, 242889.2
1171.002, 244143.9
1171.484, 245340.7
1171.966, 246489.3
1172.448, 247873.9
1172.930, 249566.9
1173.412, 251249.1
1173.894, 252705.5
1174.377, 254057.3
1174.859, 255473.0
1175.341, 256940.0
1175.823, 258466.1
1176.305, 260012.8
1176.787, 261406.3
1177.269, 262697.1
1177.751, 264158.1
1178.234, 265878.1
1178.716, 267631.8
1179.198, 269213.4
1179.680, 270822.0
1180.162, 272765.7
1180.644, 274792.5
1181.126, 276563.3
1181.608, 278193.8
1182.090, 279895.5
1182.573, 281676.1
1183.055, 283415.0
1183.537, 285053.2
1184.019, 286688.6
1184.501, 288370.3
1184.983, 290053.4
1185.465, 291646.6
1185.947, 293288.9
1186.429, 295131.4
1186.912, 297107.1
1187.394, 299124.5
1187.876, 301165.2
1188.358, 303051.3
1188.840, 304452.8
1189.322, 306182.7
1189.804, 308522.4
1190.286, 310937.0
1190.769, 313295.3
1191.251, 315581.6
1191.733, 317733.5
1192.215, 319795.6
1192.697, 321907.4
1193.179, 324078.0
1193.661, 326134.7
1194.143, 327984.3
1194.625, 330080.7
1195.108, 332538.3
1195.590, 335039.6
1196.072, 337423.7
1196.554, 339803.4
1197.036, 342303.6
1197.518, 344874.1
1198.000, 347330.9
1198.482, 349938.7
1198.964, 352516.1
1199.447, 355085.4
1199.929, 357754.2
1200.411, 360244.5
1200.893, 362888.3
1201.375, 365870.8
1201.857, 369009.9
1202.339, 372163.5
1202.821, 375319.2
1203.304, 378554.0
1203.786, 381741.4
1204.268, 384500.9
1204.750, 387053.3
1205.232, 389996.7
1205.714, 393430.0
1206.196, 396948.0
1206.678, 400345.1
1207.161, 403727.8
1207.643, 407015.5
1208.125, 410458.9
1208.607, 414357.1
1209.089, 418425.0
1209.571, 422422.7
1210.053, 426317.6
1210.535, 430074.9
1211.017, 433660.5
1211.500, 437559.3
1211.982, 442075.9
1212.464, 446602.9
1212.946, 451233.7
1213.428, 455606.4
1213.910, 459327.8
1214.392, 463021.6
1214.874, 467215.6
1215.356, 471851.5
1215.839, 476801.3
1216.321, 482108.7
1216.803, 487275.6
1217.285, 492280.1
1217.767, 497283.7
1218.249, 502288.8
1218.731, 507377.1
1219.213, 512587.8
1219.696, 517900.2
1220.178, 523261.7
1220.660, 528720.5
1221.142, 534364.6
1221.624, 540246.9
1222.106, 546548.1
1222.588, 553198.1
1223.070, 559967.0
1223.552, 566800.5
1224.035, 573553.8
1224.517, 580161.8
1224.999, 586930.1
1225.481, 594056.3
1225.963, 601526.7
1226.445, 609348.8
1226.927, 617377.7
1227.409, 625472.4
1227.891, 633610.9
1228.374, 641889.6
1228.856, 650277.4
1229.338, 658814.1
1229.820, 667474.1
1230.302, 676258.4
1230.784, 685031.7
1231.266, 694131.5
1231.748, 703674.5
1232.231, 713586.2
1232.713, 723865.9
1233.195, 734448.9
1233.677, 745164.1
1234.159, 756033.4
1234.641, 767205.8
1235.123, 778726.4
1235.605, 790587.9
1236.088, 802863.8
1236.570, 815130.9
1237.052, 827295.6
1237.534, 839570.1
1238.016, 852082.3
1238.498, 864971.5
1238.980, 878619.0
1239.462, 892725.1
1239.944, 906723.6
1240.427, 920709.8
1240.909, 934949.7
1241.391, 949570.0
1241.873, 965029.8
1242.355, 981366.9
1242.837, 998025.0
1243.319, 1014759.
1243.801, 1031669.
1244.283, 1048865.
1244.766, 1066491.
1245.248, 1084718.
1245.730, 1103446.
1246.212, 1122477.
1246.694, 1141903.
1247.176, 1161850.
1247.658, 1182239.
1248.140, 1202529.
1248.622, 1222517.
1249.105, 1242774.
1249.587, 1263092.
1250.069, 1284082.
1250.551, 1305989.
1251.033, 1328371.
1251.515, 1351065.
1251.997, 1374109.
1252.479, 1397740.
1252.962, 1421751.
1253.444, 1444753.
1253.926, 1466854.
1254.408, 1489947.
1254.890, 1514098.
1255.372, 1538770.
1255.854, 1563647.
1256.336, 1588588.
1256.818, 1613319.
1257.301, 1637382.
1257.783, 1659525.
1258.265, 1681353.
1258.747, 1704906.
1259.229, 1729195.
1259.711, 1753319.
1260.193, 1776985.
1260.675, 1799966.
1261.157, 1822348.
1261.640, 1844949.
1262.122, 1868308.
1262.604, 1890377.
1263.086, 1909786.
1263.568, 1928965.
1264.050, 1948776.
1264.532, 1968517.
1265.014, 1988484.
1265.497, 2007355.
1265.979, 2023025.
1266.461, 2036221.
1266.943, 2049960.
1267.425, 2064358.
1267.907, 2078264.
1268.389, 2091820.
1268.871, 2103492.
1269.354, 2113009.
1269.836, 2121158.
1270.318, 2128362.
1270.800, 2134676.
1271.282, 2140118.
1271.764, 2144906.
1272.246, 2149621.
1272.728, 2153804.
1273.210, 2156866.
1273.693, 2158646.
1274.175, 2158616.
1274.657, 2157118.
1275.139, 2155008.
1275.621, 2152575.
1276.103, 2150570.
1276.585, 2149494.
1277.067, 2148531.
1277.549, 2148617.
1278.032, 2147217.
1278.514, 2141909.
1278.996, 2135728.
1279.478, 2131082.
1279.960, 2127633.
1280.442, 2124628.
1280.924, 2122096.
1281.406, 2120937.
1281.889, 2120415.
1282.371, 2121851.
1282.853, 2122290.
1283.335, 2123972.
1283.817, 2127321.
1284.299, 2132732.
1284.781, 2140438.
1285.263, 2149712.
1285.745, 2159613.
1286.228, 2170128.
##END=



