##NAMES=Cadmoindite
##RRUFFID=R060748
##IDEAL CHEMISTRY=Cd^2+^In^3+^_2_S^2-^_4_
##LOCALITY=Kudriavy (Kudryaviy) volcano, Iturup island, Kuril Islands, Russia
##OWNER=RRUFF
##SOURCE=Michael Scott
##DESCRIPTION=Black octahedra
##STATUS=The identification of this mineral is confirmed by single-crystal X-ray diffraction and chemical analysis.
##URL=rruff.info/R060748
##MEASURED CHEMISTRY=(Cd_0.78_Fe^2+^_0.17_Ti_0.05_)_Î£=1_In_2.00_S_4.00_
132.1293, 1438.902
132.6114, 1469.824
133.0936, 1492.122
133.5757, 1503.064
134.0578, 1510.568
134.5399, 1530.243
135.0220, 1563.509
135.5041, 1596.154
135.9863, 1619.842
136.4684, 1634.464
136.9505, 1645.710
137.4326, 1652.923
137.9147, 1657.613
138.3968, 1666.804
138.8789, 1682.924
139.3611, 1697.991
139.8432, 1704.088
140.3253, 1697.659
140.8074, 1695.240
141.2895, 1700.966
141.7716, 1715.008
142.2538, 1728.537
142.7359, 1741.370
143.2180, 1753.759
143.7001, 1766.729
144.1822, 1783.851
144.6643, 1795.341
145.1465, 1796.352
145.6286, 1779.743
146.1107, 1773.028
146.5928, 1781.258
147.0749, 1798.718
147.5570, 1811.100
148.0392, 1816.497
148.5213, 1818.838
149.0034, 1819.571
149.4855, 1812.595
149.9676, 1811.813
150.4497, 1822.930
150.9319, 1843.508
151.4140, 1854.948
151.8961, 1848.191
152.3782, 1838.215
152.8603, 1834.253
153.3424, 1840.523
153.8246, 1849.148
154.3067, 1854.822
154.7888, 1847.574
155.2709, 1861.410
155.7530, 1870.261
156.2351, 1874.397
156.7173, 1859.689
157.1994, 1869.313
157.6815, 1869.186
158.1636, 1868.659
158.6457, 1881.707
159.1278, 1869.740
159.6100, 1891.853
160.0921, 1914.040
160.5742, 1927.152
161.0563, 1912.388
161.5384, 1895.002
162.0205, 1889.894
162.5027, 1905.965
162.9848, 1923.385
163.4669, 1932.432
163.9490, 1935.658
164.4311, 1941.641
164.9132, 1959.499
165.3954, 1979.382
165.8775, 1992.714
166.3596, 1989.146
166.8417, 1986.170
167.3238, 1996.640
167.8059, 2019.096
168.2881, 2040.253
168.7702, 2055.500
169.2523, 2064.064
169.7344, 2065.208
170.2165, 2045.400
170.6986, 2026.230
171.1808, 2026.702
171.6629, 2047.939
172.1450, 2078.051
172.6271, 2115.009
173.1092, 2154.198
173.5913, 2186.085
174.0734, 2201.724
174.5556, 2209.243
175.0377, 2217.971
175.5198, 2228.869
176.0019, 2240.751
176.4840, 2251.772
176.9661, 2262.587
177.4483, 2275.311
177.9304, 2294.852
178.4125, 2316.521
178.8946, 2332.410
179.3767, 2340.967
179.8588, 2343.806
180.3410, 2341.631
180.8231, 2334.912
181.3052, 2327.296
181.7873, 2322.413
182.2694, 2318.850
182.7515, 2312.187
183.2337, 2299.800
183.7158, 2285.001
184.1979, 2273.224
184.6800, 2255.775
185.1621, 2259.452
185.6442, 2258.144
186.1264, 2252.118
186.6085, 2227.250
187.0906, 2226.714
187.5727, 2216.427
188.0548, 2205.740
188.5369, 2208.630
189.0191, 2186.501
189.5012, 2189.175
189.9833, 2181.948
190.4654, 2179.253
190.9475, 2168.035
191.4296, 2169.215
191.9118, 2167.181
192.3939, 2161.607
192.8760, 2153.851
193.3581, 2146.063
193.8402, 2138.292
194.3223, 2129.598
194.8045, 2118.615
195.2866, 2105.570
195.7687, 2092.688
196.2508, 2077.320
196.7329, 2066.086
197.2150, 2078.333
197.6972, 2117.938
198.1793, 2154.755
198.6614, 2167.156
199.1435, 2154.073
199.6256, 2143.963
200.1077, 2140.608
200.5899, 2141.972
201.0720, 2141.184
201.5541, 2137.340
202.0362, 2134.507
202.5183, 2135.142
203.0004, 2139.046
203.4826, 2148.787
203.9647, 2169.570
204.4468, 2197.029
204.9289, 2200.183
205.4110, 2170.118
205.8931, 2137.379
206.3753, 2131.525
206.8574, 2157.215
207.3395, 2189.593
207.8216, 2228.165
208.3037, 2272.166
208.7858, 2294.460
209.2679, 2287.301
209.7501, 2271.856
210.2322, 2275.139
210.7143, 2304.490
211.1964, 2328.317
211.6785, 2334.814
212.1606, 2321.643
212.6428, 2320.615
213.1249, 2334.957
213.6070, 2357.670
214.0891, 2380.262
214.5712, 2405.736
215.0533, 2423.559
215.5355, 2426.422
216.0176, 2407.593
216.4997, 2404.819
216.9818, 2421.463
217.4639, 2451.564
217.9460, 2486.324
218.4282, 2531.729
218.9103, 2568.734
219.3924, 2587.721
219.8745, 2581.540
220.3566, 2576.768
220.8387, 2572.056
221.3209, 2569.402
221.8030, 2575.198
222.2851, 2593.408
222.7672, 2613.486
223.2493, 2629.345
223.7314, 2637.275
224.2136, 2650.875
224.6957, 2672.103
225.1778, 2699.324
225.6599, 2728.279
226.1420, 2759.378
226.6241, 2791.275
227.1063, 2821.473
227.5884, 2844.603
228.0705, 2879.486
228.5526, 2934.837
229.0347, 3005.229
229.5168, 3053.729
229.9990, 3062.538
230.4811, 3071.962
230.9632, 3112.272
231.4453, 3201.885
231.9274, 3286.460
232.4095, 3359.044
232.8917, 3420.305
233.3738, 3479.015
233.8559, 3531.238
234.3380, 3585.069
234.8201, 3647.786
235.3022, 3721.035
235.7844, 3799.903
236.2665, 3886.819
236.7486, 3981.854
237.2307, 4066.322
237.7128, 4131.205
238.1949, 4194.467
238.6771, 4275.085
239.1592, 4387.540
239.6413, 4491.002
240.1234, 4576.928
240.6055, 4645.453
241.0876, 4707.584
241.5698, 4762.373
242.0519, 4812.152
242.5340, 4860.400
243.0161, 4912.415
243.4982, 4953.395
243.9803, 4980.076
244.4624, 4992.066
244.9446, 4990.510
245.4267, 4971.030
245.9088, 4941.155
246.3909, 4911.479
246.8730, 4889.068
247.3551, 4853.581
247.8373, 4792.924
248.3194, 4698.410
248.8015, 4630.672
249.2836, 4600.005
249.7657, 4589.146
250.2478, 4576.254
250.7300, 4568.076
251.2121, 4545.809
251.6942, 4498.923
252.1763, 4417.677
252.6584, 4358.186
253.1405, 4328.949
253.6227, 4315.962
254.1048, 4295.201
254.5869, 4259.499
255.0690, 4229.640
255.5511, 4214.837
256.0333, 4221.255
256.5154, 4217.867
256.9975, 4197.730
257.4796, 4172.208
257.9617, 4162.692
258.4438, 4178.092
258.9260, 4191.813
259.4081, 4193.737
259.8902, 4180.713
260.3723, 4164.951
260.8544, 4141.076
261.3365, 4117.747
261.8186, 4113.969
262.3008, 4139.344
262.7829, 4163.251
263.2650, 4173.075
263.7471, 4166.515
264.2292, 4153.631
264.7113, 4131.623
265.1935, 4105.088
265.6756, 4083.733
266.1577, 4069.005
266.6398, 4056.058
267.1219, 4043.667
267.6040, 4032.563
268.0862, 4019.485
268.5683, 4006.616
269.0504, 3990.101
269.5325, 3961.470
270.0146, 3918.341
270.4967, 3869.184
270.9789, 3814.054
271.4610, 3748.458
271.9431, 3702.338
272.4252, 3684.442
272.9073, 3679.229
273.3894, 3650.645
273.8716, 3593.793
274.3537, 3532.756
274.8358, 3477.835
275.3179, 3428.304
275.8000, 3388.057
276.2821, 3360.333
276.7643, 3338.444
277.2464, 3307.678
277.7285, 3266.581
278.2106, 3223.504
278.6927, 3181.692
279.1748, 3141.000
279.6570, 3104.702
280.1391, 3074.461
280.6212, 3046.582
281.1033, 3010.094
281.5854, 2963.408
282.0675, 2924.283
282.5497, 2905.780
283.0318, 2907.141
283.5139, 2906.547
283.9960, 2903.032
284.4781, 2896.485
284.9602, 2882.958
285.4424, 2861.701
285.9245, 2847.772
286.4066, 2852.056
286.8887, 2872.650
287.3708, 2893.310
287.8529, 2912.485
288.3351, 2932.322
288.8172, 2954.750
289.2993, 2980.095
289.7814, 3012.228
290.2635, 3056.289
290.7456, 3110.023
291.2278, 3165.387
291.7099, 3223.836
292.1920, 3278.392
292.6741, 3310.172
293.1562, 3322.487
293.6383, 3344.382
294.1205, 3398.595
294.6026, 3475.019
295.0847, 3547.216
295.5668, 3614.029
296.0489, 3674.151
296.5310, 3718.840
297.0132, 3752.833
297.4953, 3798.917
297.9774, 3883.064
298.4595, 3986.325
298.9416, 4063.875
299.4237, 4108.130
299.9059, 4148.204
300.3880, 4215.721
300.8701, 4307.009
301.3522, 4407.916
301.8343, 4519.202
302.3164, 4632.306
302.7986, 4735.554
303.2807, 4825.962
303.7628, 4911.689
304.2449, 4996.979
304.7270, 5082.585
305.2091, 5168.475
305.6913, 5257.372
306.1734, 5345.200
306.6555, 5427.877
307.1376, 5505.996
307.6197, 5578.048
308.1018, 5642.139
308.5840, 5700.295
309.0661, 5756.726
309.5482, 5816.658
310.0303, 5873.762
310.5124, 5921.693
310.9945, 5960.068
311.4767, 5995.928
311.9588, 6036.854
312.4409, 6077.322
312.9230, 6110.026
313.4051, 6132.941
313.8872, 6146.030
314.3694, 6145.135
314.8515, 6129.458
315.3336, 6117.500
315.8157, 6120.839
316.2978, 6131.741
316.7799, 6141.430
317.2621, 6136.661
317.7442, 6139.513
318.2263, 6163.006
318.7084, 6207.804
319.1905, 6252.382
319.6726, 6289.666
320.1548, 6323.593
320.6369, 6357.743
321.1190, 6393.743
321.6011, 6429.328
322.0832, 6455.350
322.5653, 6472.914
323.0475, 6514.412
323.5296, 6605.718
324.0117, 6712.143
324.4938, 6808.296
324.9759, 6884.329
325.4580, 6957.113
325.9402, 7026.414
326.4223, 7092.944
326.9044, 7161.954
327.3865, 7228.772
327.8686, 7301.635
328.3507, 7384.998
328.8329, 7507.523
329.3150, 7605.001
329.7971, 7665.143
330.2792, 7694.531
330.7613, 7726.901
331.2434, 7772.059
331.7255, 7809.905
332.2076, 7828.769
332.6898, 7814.552
333.1719, 7809.135
333.6540, 7826.547
334.1361, 7852.367
334.6182, 7838.241
335.1003, 7768.417
335.5825, 7685.945
336.0646, 7613.125
336.5467, 7560.019
337.0288, 7485.674
337.5109, 7386.755
337.9930, 7267.845
338.4752, 7130.978
338.9573, 6973.572
339.4394, 6809.749
339.9215, 6649.642
340.4036, 6494.211
340.8857, 6321.694
341.3679, 6127.708
341.8500, 5926.021
342.3321, 5744.177
342.8142, 5580.341
343.2963, 5430.204
343.7784, 5288.522
344.2606, 5157.130
344.7427, 5046.573
345.2248, 4956.720
345.7069, 4884.694
346.1890, 4828.668
346.6711, 4788.021
347.1533, 4757.300
347.6354, 4734.224
348.1175, 4719.393
348.5996, 4714.807
349.0817, 4720.629
349.5638, 4733.219
350.0460, 4753.964
350.5281, 4779.153
351.0102, 4797.278
351.4923, 4800.611
351.9744, 4797.913
352.4565, 4800.895
352.9387, 4809.318
353.4208, 4820.696
353.9029, 4833.265
354.3850, 4847.603
354.8671, 4865.735
355.3492, 4895.668
355.8314, 4919.609
356.3135, 4920.526
356.7956, 4901.722
357.2777, 4875.363
357.7598, 4844.761
358.2419, 4812.314
358.7241, 4782.219
359.2062, 4762.225
359.6883, 4730.738
360.1704, 4664.998
360.6525, 4578.269
361.1346, 4501.783
361.6168, 4456.582
362.0989, 4419.170
362.5810, 4379.283
363.0631, 4341.112
363.5452, 4283.168
364.0273, 4182.662
364.5095, 4061.521
364.9916, 3953.829
365.4737, 3885.828
365.9558, 3815.282
366.4379, 3724.926
366.9200, 3607.017
367.4022, 3499.404
367.8843, 3414.647
368.3664, 3338.048
368.8485, 3253.314
369.3306, 3143.589
369.8127, 3045.870
370.2949, 2971.223
370.7770, 2919.972
371.2591, 2862.421
371.7412, 2799.403
372.2233, 2729.927
372.7054, 2649.854
373.1876, 2545.266
373.6697, 2462.187
374.1518, 2412.420
374.6339, 2389.523
375.1160, 2363.291
375.5981, 2334.277
376.0803, 2300.145
376.5624, 2256.866
377.0445, 2201.939
377.5266, 2152.365
378.0087, 2109.533
378.4908, 2072.926
378.9730, 2042.543
379.4551, 2019.024
379.9372, 1995.623
380.4193, 1967.466
380.9014, 1935.595
381.3835, 1906.244
381.8657, 1879.768
382.3478, 1856.294
382.8299, 1836.617
383.3120, 1820.471
383.7941, 1805.702
384.2762, 1791.477
384.7584, 1777.985
385.2405, 1768.739
385.7226, 1764.272
386.2047, 1753.989
386.6868, 1719.790
387.1689, 1673.000
387.6511, 1637.319
388.1332, 1624.922
388.6153, 1623.791
389.0974, 1628.033
389.5795, 1636.041
390.0616, 1635.698
390.5438, 1608.388
391.0259, 1573.957
391.5080, 1553.969
391.9901, 1565.011
392.4722, 1574.052
392.9543, 1558.203
393.4365, 1526.036
393.9186, 1502.155
394.4007, 1504.190
394.8828, 1510.590
395.3649, 1508.983
395.8470, 1493.521
396.3292, 1480.956
396.8113, 1481.165
397.2934, 1485.248
397.7755, 1479.295
398.2576, 1444.680
398.7397, 1416.025
399.2219, 1405.821
399.7040, 1418.746
400.1861, 1422.910
400.6682, 1412.718
401.1503, 1397.472
401.6324, 1385.320
402.1145, 1375.091
402.5966, 1370.839
403.0788, 1377.105
403.5609, 1391.609
404.0430, 1392.741
404.5251, 1375.119
405.0072, 1354.251
405.4893, 1340.791
405.9715, 1335.614
406.4536, 1332.281
406.9357, 1329.728
407.4178, 1329.168
407.8999, 1337.357
408.3820, 1355.694
408.8642, 1365.823
409.3463, 1348.277
409.8284, 1309.571
410.3105, 1298.087
410.7926, 1319.898
411.2747, 1347.765
411.7569, 1342.830
412.2390, 1312.777
412.7211, 1289.415
413.2032, 1292.148
413.6853, 1307.060
414.1674, 1314.606
414.6496, 1314.781
415.1317, 1308.237
415.6138, 1288.301
416.0959, 1263.879
416.5780, 1247.767
417.0602, 1248.484
417.5423, 1252.648
418.0244, 1253.378
418.5065, 1250.412
418.9886, 1242.860
419.4707, 1220.479
419.9529, 1199.826
420.4350, 1194.820
420.9171, 1216.918
421.3992, 1231.551
421.8813, 1218.508
422.3634, 1193.155
422.8456, 1180.120
423.3277, 1200.836
423.8098, 1218.227
424.2919, 1219.447
424.7740, 1200.453
425.2561, 1185.787
425.7383, 1175.404
426.2204, 1169.667
426.7025, 1170.007
427.1846, 1184.532
427.6667, 1189.828
428.1488, 1177.983
428.6310, 1153.605
429.1131, 1142.584
429.5952, 1149.677
430.0773, 1160.156
430.5594, 1166.602
431.0415, 1169.184
431.5237, 1163.986
432.0058, 1146.599
432.4879, 1128.211
432.9700, 1134.114
433.4521, 1164.585
433.9342, 1187.989
434.4164, 1186.453
434.8985, 1166.537
435.3806, 1149.641
435.8627, 1135.468
436.3448, 1127.780
436.8269, 1136.114
437.3091, 1154.107
437.7912, 1165.212
438.2733, 1159.392
438.7554, 1149.705
439.2375, 1153.115
439.7196, 1166.546
440.2018, 1175.040
440.6839, 1166.607
441.1660, 1150.511
441.6481, 1135.136
442.1302, 1121.972
442.6123, 1109.380
443.0945, 1092.003
443.5766, 1075.388
444.0587, 1069.116
444.5408, 1090.777
445.0229, 1110.037
445.5050, 1112.990
445.9872, 1096.392
446.4693, 1083.823
446.9514, 1079.711
447.4335, 1079.490
447.9156, 1079.681
448.3977, 1084.252
448.8799, 1082.958
449.3620, 1069.863
449.8441, 1049.359
450.3262, 1043.435
450.8083, 1058.827
451.2904, 1075.764
451.7726, 1083.761
452.2547, 1081.644
452.7368, 1077.452
453.2189, 1070.173
453.7010, 1062.948
454.1831, 1062.855
454.6653, 1069.956
455.1474, 1071.980
455.6295, 1060.952
456.1116, 1041.958
456.5937, 1029.634
457.0758, 1023.867
457.5580, 1025.496
458.0401, 1043.750
458.5222, 1069.083
459.0043, 1080.180
459.4864, 1066.004
459.9685, 1046.621
460.4507, 1044.380
460.9328, 1053.814
461.4149, 1058.750
461.8970, 1047.685
462.3791, 1031.005
462.8612, 1013.629
463.3434, 994.4697
463.8255, 985.1119
464.3076, 1001.739
464.7897, 1026.490
465.2718, 1039.570
465.7539, 1024.626
466.2361, 1010.303
466.7182, 1002.085
467.2003, 999.9883
467.6824, 1001.149
468.1645, 1009.805
468.6466, 1017.532
469.1288, 1020.068
469.6109, 1014.889
470.0930, 1009.726
470.5751, 1004.239
471.0572, 999.0375
471.5393, 995.1569
472.0214, 992.7121
472.5035, 991.2944
472.9857, 991.5055
473.4678, 992.8787
473.9499, 991.3653
474.4320, 986.6576
474.9141, 981.1534
475.3962, 974.2064
475.8784, 967.5712
476.3605, 971.0203
476.8426, 991.7841
477.3247, 1013.999
477.8068, 1011.300
478.2889, 989.9995
478.7711, 973.6910
479.2532, 984.0101
479.7353, 1001.423
480.2174, 1004.250
480.6995, 989.1697
481.1816, 974.2544
481.6638, 968.4226
482.1459, 969.0065
482.6280, 972.8561
483.1101, 983.6959
483.5922, 992.8090
484.0743, 993.1412
484.5565, 987.4827
485.0386, 991.8977
485.5207, 1027.810
486.0028, 1058.156
486.4849, 1064.965
486.9670, 1033.845
487.4492, 1014.066
487.9313, 1009.453
488.4134, 1013.518
488.8955, 1018.583
489.3776, 1026.724
489.8597, 1029.110
490.3419, 1020.614
490.8240, 1004.178
491.3061, 998.5610
491.7882, 1004.726
492.2703, 1015.546
492.7524, 1028.239
493.2346, 1041.635
493.7167, 1048.835
494.1988, 1048.181
494.6809, 1043.844
495.1630, 1039.159
495.6451, 1034.913
496.1273, 1033.466
496.6094, 1040.592
497.0915, 1048.229
497.5736, 1045.174
498.0557, 1032.070
498.5378, 1023.970
499.0200, 1034.612
499.5021, 1051.518
499.9842, 1063.242
500.4663, 1062.799
500.9484, 1063.992
501.4305, 1077.302
501.9127, 1094.771
502.3948, 1098.960
502.8769, 1071.865
503.3590, 1046.712
503.8411, 1032.460
504.3232, 1029.818
504.8054, 1032.775
505.2875, 1046.301
505.7696, 1059.293
506.2517, 1060.685
506.7338, 1046.391
507.2159, 1038.080
507.6981, 1040.076
508.1802, 1047.971
508.6623, 1050.508
509.1444, 1047.509
509.6265, 1046.577
510.1086, 1056.361
510.5908, 1071.319
511.0729, 1070.979
511.5550, 1054.140
512.0371, 1038.133
512.5192, 1044.579
513.0013, 1061.850
513.4835, 1069.435
513.9656, 1055.717
514.4477, 1039.170
514.9298, 1033.031
515.4119, 1034.696
515.8940, 1037.066
516.3762, 1037.216
516.8583, 1037.234
517.3404, 1038.064
517.8225, 1039.771
518.3046, 1042.355
518.7867, 1047.767
519.2689, 1052.984
519.7510, 1055.117
520.2331, 1050.104
520.7152, 1048.854
521.1973, 1055.541
521.6794, 1066.041
522.1616, 1065.260
522.6437, 1048.341
523.1258, 1034.229
523.6079, 1034.110
524.0900, 1047.358
524.5721, 1051.029
525.0543, 1043.739
525.5364, 1033.553
526.0185, 1028.511
526.5006, 1027.724
526.9827, 1027.505
527.4648, 1026.386
527.9470, 1026.336
528.4291, 1031.790
528.9112, 1040.854
529.3933, 1047.144
529.8754, 1042.803
530.3575, 1037.450
530.8397, 1040.607
531.3218, 1054.071
531.8039, 1063.010
532.2860, 1062.472
532.7681, 1054.285
533.2502, 1039.961
533.7324, 1003.917
534.2145, 980.8898
534.6966, 979.6639
535.1787, 993.9207
535.6608, 1008.106
536.1429, 1025.019
536.6251, 1037.605
537.1072, 1043.386
537.5893, 1042.285
538.0714, 1036.656
538.5535, 1024.554
539.0356, 1013.353
539.5178, 1010.776
539.9999, 1016.238
540.4820, 1023.091
540.9641, 1031.702
541.4462, 1038.097
541.9283, 1035.015
542.4105, 1024.139
542.8926, 1012.165
543.3747, 998.6858
543.8568, 987.9288
544.3389, 987.1470
544.8210, 995.9105
545.3032, 1001.769
545.7853, 993.7350
546.2674, 982.3965
546.7495, 976.7007
547.2316, 981.7814
547.7137, 986.9426
548.1959, 989.4482
548.6780, 990.7466
549.1601, 993.6304
549.6422, 1002.694
550.1243, 1006.948
550.6064, 1000.647
551.0886, 985.0236
551.5707, 975.5886
552.0528, 948.8906
552.5349, 962.1664
553.0170, 968.5885
553.4991, 968.5255
553.9813, 942.5519
554.4634, 950.0363
554.9455, 944.1124
555.4276, 937.6385
555.9097, 949.8316
556.3918, 927.6274
556.8740, 939.5239
557.3561, 937.8085
557.8382, 942.3230
558.3203, 933.3467
558.8024, 936.2028
559.2845, 923.8885
559.7667, 907.6942
560.2488, 896.0067
560.7309, 889.9722
561.2130, 887.9823
561.6951, 892.6901
562.1772, 899.7477
562.6594, 904.8032
563.1415, 907.4832
563.6236, 908.2169
564.1057, 906.4435
564.5878, 902.7932
565.0699, 897.7269
565.5521, 888.0010
566.0342, 886.7718
566.5163, 907.8270
566.9984, 947.5126
567.4805, 950.9872
567.9626, 914.1276
568.4448, 872.8689
568.9269, 862.2222
569.4090, 873.4133
569.8911, 881.3705
570.3732, 879.9381
570.8553, 877.7589
571.3375, 886.0536
571.8196, 899.7814
572.3017, 908.9100
572.7838, 902.4781
573.2659, 896.0663
573.7480, 897.6689
574.2302, 907.0843
574.7123, 918.6829
575.1944, 936.5822
575.6765, 951.9754
576.1586, 960.4531
576.6407, 962.1051
577.1228, 955.9180
577.6049, 935.8724
578.0870, 913.9261
578.5692, 905.4405
579.0513, 912.9800
579.5334, 922.1232
580.0155, 931.0729
580.4976, 938.9279
580.9797, 942.6811
581.4619, 942.4886
581.9440, 941.0582
582.4261, 940.3778
582.9082, 939.2900
583.3903, 935.0081
583.8724, 927.4253
584.3546, 920.2349
584.8367, 913.2706
585.3188, 909.3727
585.8009, 912.1817
586.2830, 927.4192
586.7651, 940.7740
587.2473, 946.9960
587.7294, 948.1793
588.2115, 947.8269
588.6936, 943.9031
589.1757, 941.2891
589.6578, 940.7964
590.1400, 942.3682
590.6221, 945.9844
591.1042, 939.7890
591.5863, 959.6600
592.0684, 972.6773
592.5505, 979.2088
593.0327, 959.8321
593.5148, 973.9109
593.9969, 974.5822
594.4790, 974.7037
594.9611, 993.4920
595.4432, 977.8823
595.9254, 996.3757
596.4075, 1001.255
596.8896, 1012.365
597.3717, 1009.984
597.8538, 1011.770
598.3359, 1027.050
598.8181, 1034.860
599.3002, 1023.599
599.7823, 1033.905
600.2644, 1041.969
600.7465, 1025.677
601.2286, 1023.912
601.7108, 1052.842
602.1929, 1066.178
602.6750, 1072.661
603.1571, 1072.658
603.6392, 1046.745
604.1213, 1054.290
604.6035, 1048.426
605.0856, 1042.013
605.5677, 1054.266
606.0498, 1032.122
606.5319, 1044.079
607.0140, 1042.424
607.4962, 1046.999
607.9783, 1038.083
608.4604, 1033.334
608.9425, 1042.080
609.4246, 1043.354
609.9067, 1032.885
610.3889, 1037.855
610.8710, 1018.605
611.3531, 1014.759
611.8352, 1011.850
612.3173, 1009.415
612.7994, 1009.058
613.2816, 1008.411
613.7637, 1004.108
614.2458, 993.1818
614.7279, 985.7039
615.2100, 984.7303
615.6921, 987.6271
616.1743, 985.0066
616.6564, 976.2583
617.1385, 970.5152
617.6206, 977.5358
618.1027, 990.5681
618.5848, 988.5065
619.0670, 971.6125
619.5491, 955.7371
620.0312, 957.8479
620.5133, 965.5898
620.9954, 963.0759
621.4775, 942.9016
621.9597, 925.8315
622.4418, 922.5297
622.9239, 927.1777
623.4060, 932.7430
623.8881, 944.6909
624.3702, 949.1791
624.8524, 941.5168
625.3345, 925.5104
625.8166, 912.5197
626.2987, 901.7335
626.7808, 896.6800
627.2629, 900.6059
627.7451, 912.0715
628.2272, 922.1974
628.7093, 931.3809
629.1914, 933.7480
629.6735, 916.9040
630.1556, 891.5878
630.6378, 880.2933
631.1199, 887.3988
631.6020, 899.0629
632.0841, 910.8022
632.5662, 918.7375
633.0483, 917.9050
633.5305, 896.3616
634.0126, 877.8438
634.4947, 867.4144
634.9768, 864.3841
635.4589, 867.3786
635.9410, 883.7901
636.4232, 894.6779
636.9053, 892.5991
637.3874, 879.2482
637.8695, 875.1046
638.3516, 881.7563
638.8337, 890.2255
639.3159, 894.2485
639.7980, 894.9471
640.2801, 897.6339
640.7622, 902.7374
641.2443, 907.6418
641.7264, 908.1190
642.2086, 907.2507
642.6907, 910.6323
643.1728, 924.4061
643.6549, 933.2208
644.1370, 924.0241
644.6191, 905.5419
645.1013, 892.3748
645.5834, 891.5345
646.0655, 891.9971
646.5476, 891.6787
647.0297, 890.8574
647.5118, 889.8687
647.9940, 885.8880
648.4761, 888.8715
648.9582, 908.8258
649.4403, 942.7950
649.9224, 954.6333
650.4045, 942.8229
650.8867, 927.9580
651.3688, 929.6990
651.8509, 940.2813
652.3330, 943.2443
652.8151, 934.7507
653.2972, 926.0203
653.7794, 922.7111
654.2615, 924.7989
654.7436, 932.3231
655.2257, 955.3821
655.7078, 972.1493
656.1899, 974.3792
656.6721, 967.3092
657.1542, 964.0525
657.6363, 966.3415
658.1184, 969.2802
658.6005, 971.5101
659.0826, 973.3182
659.5648, 961.6154
660.0469, 980.1902
660.5290, 991.9118
661.0111, 997.1481
661.4932, 976.4745
661.9753, 989.2577
662.4575, 988.6339
662.9396, 987.4592
663.4217, 1004.952
663.9038, 988.0466
664.3859, 1005.243
664.8680, 1008.826
665.3502, 1018.641
665.8323, 1014.964
666.3144, 1015.454
666.7965, 1029.439
667.2786, 1035.952
667.7607, 1030.721
668.2429, 1040.932
668.7250, 1023.555
669.2071, 1030.386
669.6892, 1047.662
670.1713, 1041.970
670.6534, 1048.660
671.1356, 1055.787
671.6177, 1058.686
672.0998, 1057.711
672.5819, 1056.119
673.0640, 1057.083
673.5461, 1057.895
674.0283, 1055.469
674.5104, 1049.532
674.9925, 1043.144
675.4746, 1038.810
675.9567, 1033.853
676.4388, 1025.608
676.9210, 1008.303
677.4031, 1000.165
677.8852, 1007.088
678.3673, 1017.498
678.8494, 1017.760
679.3315, 1006.636
679.8137, 993.5276
680.2958, 978.6382
680.7779, 964.6959
681.2600, 957.5679
681.7421, 955.6434
682.2242, 952.0099
682.7064, 944.8047
683.1885, 933.5684
683.6706, 913.8213
684.1527, 888.7476
684.6348, 870.0245
685.1169, 869.7860
685.5991, 870.3359
686.0812, 861.0378
686.5633, 839.9078
687.0454, 830.7436
687.5275, 841.4456
688.0096, 853.2628
688.4918, 855.3010
688.9739, 846.9352
689.4560, 835.0822
689.9381, 818.8275
690.4202, 803.3813
690.9023, 793.0455
691.3845, 787.7648
691.8666, 788.8453
692.3487, 798.7475
692.8308, 807.0339
693.3129, 802.6748
693.7950, 791.5403
694.2772, 782.1758
694.7593, 778.9670
695.2414, 775.9651
695.7235, 771.3715
696.2056, 765.9249
696.6877, 761.8672
697.1699, 761.9088
697.6520, 757.6248
698.1341, 744.0843
698.6162, 724.8817
699.0983, 717.2204
699.5804, 721.4670
700.0626, 729.1611
700.5447, 736.4514
701.0268, 743.5009
701.5089, 753.3979
701.9910, 765.4825
702.4731, 769.6659
702.9553, 749.8560
703.4374, 725.6066
703.9195, 713.1466
704.4016, 716.5762
704.8837, 723.1157
705.3658, 739.0497
705.8480, 751.0672
706.3301, 747.6689
706.8122, 720.5386
707.2943, 702.7275
707.7764, 697.3493
708.2585, 698.8790
708.7407, 699.7560
709.2228, 682.4168
709.7049, 701.7374
710.1870, 711.9198
710.6691, 713.4550
711.1512, 680.4442
711.6334, 692.0421
712.1155, 685.7632
712.5976, 678.7510
713.0797, 696.6279
713.5618, 668.6416
714.0439, 686.1240
714.5261, 685.4556
715.0082, 693.0947
715.4903, 682.7458
715.9724, 677.9528
716.4545, 691.1533
716.9366, 694.3909
717.4188, 681.9709
717.9009, 690.1380
718.3829, 661.5237
718.8651, 665.1851
719.3472, 682.7726
719.8293, 671.2576
720.3114, 685.8948
720.7935, 676.5255
721.2756, 658.0646
721.7578, 649.3868
722.2399, 655.8508
722.7220, 663.2822
723.2041, 671.5789
723.6862, 677.0184
724.1683, 675.8789
724.6505, 663.3505
725.1326, 656.8727
725.6147, 659.0112
726.0968, 664.2701
726.5789, 663.5578
727.0610, 657.8959
727.5432, 657.4874
728.0253, 667.6136
728.5074, 677.7446
728.9895, 671.3974
729.4716, 655.5889
729.9537, 645.2137
730.4359, 652.4677
730.9180, 660.3507
731.4001, 664.9550
731.8822, 665.0029
732.3643, 655.2992
732.8464, 623.1319
733.3286, 600.5724
733.8107, 599.0172
734.2928, 614.2923
734.7749, 621.8654
735.2570, 621.3063
735.7391, 618.5071
736.2213, 617.6083
736.7034, 616.5936
737.1855, 608.9965
737.6676, 595.5341
738.1497, 584.9728
738.6318, 584.3140
739.1140, 587.6136
739.5961, 590.6553
740.0782, 592.9004
740.5603, 595.5594
741.0424, 598.5256
741.5245, 602.2924
742.0067, 608.9003
742.4888, 621.9688
742.9709, 619.0563
743.4530, 594.4370
743.9351, 570.6364
744.4172, 577.5870
744.8994, 606.9047
745.3815, 623.9797
745.8636, 621.5652
746.3457, 614.3674
746.8278, 612.4591
747.3099, 614.8512
747.7921, 620.6798
748.2742, 639.1479
748.7563, 647.6013
749.2384, 632.3897
749.7205, 607.0472
750.2026, 592.2612
750.6848, 593.0623
751.1669, 591.6884
751.6490, 567.0374
752.1311, 587.3292
752.6132, 598.4830
753.0953, 600.9896
753.5775, 568.9496
754.0596, 581.5193
754.5417, 576.2115
755.0238, 570.1707
755.5059, 589.0189
755.9880, 562.0039
756.4702, 580.4573
756.9523, 552.9193
757.4344, 552.6735
757.9165, 575.5574
758.3986, 582.4816
758.8807, 563.0854
759.3629, 548.3488
759.8450, 553.4715
760.3271, 573.7664
760.8092, 576.7368
761.2913, 562.2820
761.7734, 548.3323
762.2556, 547.3135
762.7377, 553.6272
763.2198, 560.7491
763.7019, 568.2475
764.1840, 574.7455
764.6661, 579.0844
765.1483, 582.6261
765.6304, 586.6751
766.1125, 591.9689
766.5946, 594.3344
767.0767, 593.8171
767.5588, 590.2296
768.0410, 581.6710
768.5231, 568.0842
769.0052, 560.1934
769.4873, 558.8128
769.9694, 559.8093
770.4515, 560.8111
770.9337, 561.0599
771.4158, 558.3889
771.8979, 551.2697
772.3800, 546.6859
772.8621, 549.9968
773.3442, 556.7228
773.8264, 562.8243
774.3085, 571.4410
774.7906, 572.8369
775.2727, 563.4526
775.7548, 551.0911
776.2369, 546.0791
776.7191, 548.4469
777.2012, 548.1626
777.6833, 542.6517
778.1654, 537.2293
778.6475, 539.3730
779.1296, 546.3599
779.6118, 553.1779
780.0939, 559.7790
780.5760, 563.2728
781.0581, 559.0707
781.5402, 551.7639
782.0223, 549.4124
782.5045, 556.3016
782.9866, 561.5596
783.4687, 564.4259
783.9508, 564.4274
784.4329, 557.1659
784.9150, 543.0356
785.3972, 539.4020
785.8793, 557.8109
786.3614, 580.5739
786.8435, 579.9504
787.3256, 564.0826
787.8077, 553.3152
788.2899, 561.1551
788.7720, 571.3771
789.2541, 580.1073
789.7362, 586.1453
790.2183, 586.3114
790.7004, 578.5512
791.1826, 568.2877
791.6647, 554.2122
792.1468, 539.9506
792.6289, 540.2021
793.1110, 554.2444
793.5931, 568.8381
794.0753, 580.7103
794.5574, 587.3119
795.0395, 581.3267
795.5216, 566.2452
796.0037, 555.9102
796.4858, 562.5405
796.9680, 568.9923
797.4501, 567.5124
797.9322, 558.8150
798.4143, 549.3312
798.8964, 537.6247
799.3785, 528.6713
799.8607, 524.6786
800.3428, 525.1265
800.8249, 529.8561
801.3070, 538.2728
801.7891, 543.6837
802.2712, 536.2927
802.7534, 527.3990
803.2355, 531.3554
803.7176, 546.8456
804.1997, 556.5050
804.6818, 546.9839
805.1639, 537.6470
805.6461, 539.1068
806.1282, 551.4155
806.6103, 550.7306
807.0924, 532.7994
807.5745, 517.3670
808.0566, 521.7483
808.5388, 537.8707
809.0209, 535.8453
809.5030, 516.8555
809.9851, 500.9153
810.4672, 506.0082
810.9493, 516.5634
811.4315, 518.9174
811.9136, 511.2424
812.3957, 509.3129
812.8778, 521.5167
813.3599, 533.4989
813.8420, 539.0434
814.3242, 538.0291
814.8063, 531.9412
815.2884, 519.9100
815.7705, 510.0515
816.2526, 509.6197
816.7347, 515.3284
817.2169, 523.4832
817.6990, 533.5439
818.1811, 537.7817
818.6632, 520.2341
819.1453, 503.9984
819.6274, 507.7887
820.1096, 539.0054
820.5917, 558.5384
821.0738, 563.4846
821.5559, 561.4011
822.0380, 554.7306
822.5201, 544.0449
823.0023, 537.0304
823.4844, 533.7860
823.9665, 533.0392
824.4486, 536.7022
824.9307, 540.6155
825.4128, 538.1734
825.8950, 528.0919
826.3771, 522.0208
826.8592, 527.8581
827.3413, 535.7051
827.8234, 540.1045
828.3055, 540.8081
828.7877, 538.3063
829.2698, 530.9066
829.7519, 525.9910
830.2340, 533.0643
830.7161, 547.0983
831.1982, 551.0432
831.6804, 544.1435
832.1625, 537.8400
832.6446, 543.4044
833.1267, 550.8672
833.6088, 551.1045
834.0909, 541.2144
834.5731, 536.2957
835.0552, 542.0703
835.5373, 547.0029
836.0194, 543.3260
836.5015, 530.8276
836.9836, 523.4672
837.4658, 521.6739
837.9479, 520.5706
838.4300, 514.5127
838.9121, 507.5240
839.3942, 505.6627
839.8763, 509.4333
840.3585, 514.5903
840.8406, 521.4797
841.3227, 527.2527
841.8048, 529.7574
842.2869, 528.6541
842.7690, 528.2097
843.2512, 527.9894
843.7333, 529.6311
844.2154, 534.6782
844.6975, 542.5427
845.1796, 552.5706
845.6617, 564.3363
846.1439, 571.9218
846.6260, 570.1910
847.1081, 563.2582
847.5902, 553.5551
848.0723, 541.2509
848.5544, 528.1644
849.0366, 508.4589
849.5187, 496.1700
850.0008, 500.1974
850.4829, 519.3034
850.9650, 530.6442
851.4471, 534.0232
851.9293, 534.0567
852.4114, 530.6320
852.8935, 527.5259
853.3756, 533.1748
853.8577, 546.0101
854.3398, 552.3107
854.8220, 536.8542
855.3041, 522.2302
855.7862, 522.5814
856.2683, 535.8888
856.7504, 537.5305
857.2325, 523.8801
857.7147, 511.9821
858.1968, 511.4520
858.6789, 518.0491
859.1610, 519.1778
859.6431, 515.9276
860.1252, 514.8099
860.6073, 521.2086
861.0894, 529.3672
861.5715, 538.6510
862.0536, 547.5654
862.5358, 547.1129
863.0179, 527.9991
863.5000, 514.4921
863.9821, 514.5527
864.4642, 524.8109
864.9464, 536.6567
865.4285, 549.4904
865.9106, 553.6660
866.3927, 537.4261
866.8748, 517.4202
867.3569, 511.8446
867.8391, 516.7778
868.3212, 521.1583
868.8033, 520.4570
869.2854, 520.0141
869.7675, 520.2498
870.2496, 521.8737
870.7318, 528.1204
871.2139, 540.0682
871.6960, 546.9120
872.1781, 544.2379
872.6602, 537.4001
873.1423, 532.8783
873.6245, 530.8553
874.1066, 531.9254
874.5887, 544.1963
875.0708, 549.7637
875.5529, 531.8514
876.0350, 506.2264
876.5172, 499.7318
876.9993, 519.9991
877.4814, 537.3589
877.9635, 547.8388
878.4456, 554.3235
878.9277, 561.0374
879.4099, 567.3922
879.8920, 572.5463
880.3741, 577.9319
880.8562, 576.9639
881.3383, 554.9466
881.8204, 528.9418
882.3026, 518.6076
882.7847, 540.2420
883.2668, 555.9789
883.7489, 567.9497
884.2310, 570.9360
884.7131, 552.3579
885.1953, 516.5788
885.6774, 499.5334
886.1595, 506.4347
886.6416, 515.7273
887.1237, 503.0994
887.6058, 486.4370
888.0880, 486.0474
888.5701, 509.5293
889.0522, 529.0264
889.5343, 541.0602
890.0164, 547.7940
890.4985, 549.2815
890.9807, 545.4094
891.4628, 543.5440
891.9449, 543.9376
892.4270, 541.6207
892.9091, 528.5561
893.3912, 512.9934
893.8734, 504.6038
894.3555, 503.8629
894.8376, 506.9026
895.3197, 516.5153
895.8018, 525.4534
896.2839, 530.6204
896.7661, 532.3589
897.2482, 534.7999
897.7303, 538.6484
898.2124, 537.0931
898.6945, 521.1391
899.1766, 501.7106
899.6588, 500.7525
900.1409, 512.7630
900.6230, 518.6525
901.1051, 498.5966
901.5872, 482.6093
902.0693, 489.6689
902.5515, 508.8756
903.0336, 511.1508
903.5157, 490.3636
903.9978, 479.4909
904.4799, 489.1889
904.9620, 509.2556
905.4442, 525.3551
905.9263, 537.3627
906.4084, 544.4780
906.8905, 542.2071
907.3726, 541.9438
907.8547, 550.9171
908.3369, 564.2003
908.8190, 576.0378
909.3011, 591.2637
909.7832, 590.1461
910.2653, 567.2181
910.7474, 538.3280
911.2296, 521.0718
911.7117, 513.7576
912.1938, 512.6348
912.6759, 517.8153
913.1580, 524.5847
913.6401, 531.5167
914.1223, 537.7342
914.6044, 542.9305
915.0865, 548.0305
915.5686, 547.6517
916.0507, 540.0770
916.5328, 531.1752
917.0150, 523.4802
917.4971, 517.9547
917.9792, 520.1306
918.4613, 529.3917
918.9434, 536.8802
919.4255, 537.5331
919.9077, 533.8723
920.3898, 525.6511
920.8719, 513.4010
921.3540, 504.5656
921.8361, 499.3191
922.3182, 497.1521
922.8004, 497.4205
923.2825, 500.9413
923.7646, 514.0327
924.2467, 533.8099
924.7288, 547.2063
925.2109, 543.7090
925.6931, 536.1460
926.1752, 532.6444
926.6573, 531.1923
927.1394, 527.7157
927.6215, 524.5723
928.1036, 512.1960
928.5858, 482.3865
929.0679, 454.1670
929.5500, 464.4555
930.0321, 504.0317
930.5142, 531.1583
930.9963, 536.4609
931.4785, 531.4870
931.9606, 515.8917
932.4427, 499.7469
932.9248, 494.8063
933.4069, 510.9298
933.8890, 516.1640
934.3712, 507.0905
934.8533, 493.7811
935.3354, 480.8291
935.8175, 469.8570
936.2996, 471.6125
936.7817, 485.8297
937.2639, 499.0949
937.7460, 501.5694
938.2281, 500.4169
938.7102, 498.2275
939.1923, 495.7729
939.6744, 503.4221
940.1566, 530.5538
940.6387, 547.6758
941.1208, 541.0967
941.6029, 519.3884
942.0850, 503.1958
942.5671, 493.0991
943.0493, 491.8323
943.5314, 511.5544
944.0135, 527.9485
944.4956, 519.3687
944.9777, 498.5834
945.4598, 492.2063
945.9420, 512.1299
946.4241, 521.7885
946.9062, 514.0757
947.3883, 501.4105
947.8704, 502.8418
948.3525, 513.6284
948.8347, 518.1691
949.3168, 512.7831
949.7989, 505.8416
950.2810, 501.3342
950.7631, 498.5673
951.2452, 496.3239
951.7274, 493.3723
952.2095, 497.2543
952.6916, 509.6475
953.1737, 523.7695
953.6558, 538.5070
954.1379, 550.8013
954.6201, 547.6490
955.1022, 531.6431
955.5843, 520.3087
956.0664, 532.2092
956.5485, 542.4976
957.0306, 534.5335
957.5128, 513.6200
957.9949, 502.1008
958.4770, 502.2609
958.9591, 502.7658
959.4412, 500.2312
959.9233, 497.0473
960.4055, 498.9948
960.8876, 503.2258
961.3697, 502.6200
961.8518, 489.7595
962.3339, 481.2264
962.8160, 484.4285
963.2982, 494.2332
963.7803, 507.3539
964.2624, 527.0942
964.7445, 530.8134
965.2266, 515.1484
965.7087, 498.5023
966.1909, 499.1087
966.6730, 509.8758
967.1551, 524.4406
967.6372, 541.8729
968.1193, 548.6840
968.6014, 529.8697
969.0836, 509.2640
969.5657, 495.2389
970.0478, 487.7121
970.5299, 489.4908
971.0120, 500.6102
971.4941, 511.1394
971.9763, 518.3349
972.4584, 520.5543
972.9405, 512.8895
973.4226, 499.1308
973.9047, 487.0034
974.3868, 474.3918
974.8690, 470.2269
975.3511, 477.9085
975.8332, 491.2486
976.3153, 504.6270
976.7974, 517.4052
977.2795, 521.8742
977.7617, 516.5995
978.2438, 508.1684
978.7259, 500.8674
979.2080, 493.9905
979.6901, 484.6378
980.1722, 470.3868
980.6544, 471.8624
981.1365, 499.4785
981.6186, 521.6078
982.1007, 519.5814
982.5828, 500.8503
983.0649, 487.3419
983.5471, 479.8634
984.0292, 482.2508
984.5113, 511.8692
984.9934, 536.0214
985.4755, 530.7712
985.9576, 508.3441
986.4398, 498.9137
986.9219, 507.1937
987.4040, 514.4658
987.8861, 519.1533
988.3682, 519.1771
988.8503, 503.5057
989.3325, 483.2762
989.8146, 485.1355
990.2967, 518.9871
990.7788, 543.3427
991.2609, 531.1306
991.7430, 512.6605
992.2252, 507.5410
992.7073, 515.9540
993.1894, 515.4493
993.6715, 505.5027
994.1536, 496.4546
994.6357, 496.7457
995.1179, 499.8979
995.6000, 495.6290
996.0821, 487.4119
996.5642, 485.7294
997.0463, 503.7560
997.5284, 514.7848
998.0106, 512.5367
998.4927, 503.8674
998.9748, 499.6005
999.4569, 499.4286
999.9390, 502.5397
1000.421, 509.7648
1000.903, 514.2693
1001.385, 508.9243
1001.867, 499.2480
1002.350, 487.8128
1002.832, 472.1057
1003.314, 474.0879
1003.796, 501.1113
1004.278, 525.1701
1004.760, 529.5323
1005.242, 518.9185
1005.724, 498.7693
1006.206, 473.2939
1006.689, 459.6536
1007.171, 480.3753
1007.653, 498.6251
1008.135, 495.5354
1008.617, 482.0783
1009.099, 476.4008
1009.581, 479.3344
1010.063, 482.8379
1010.546, 485.4080
1011.028, 489.6075
1011.510, 500.3828
1011.992, 513.5106
1012.474, 524.8566
1012.956, 534.8586
1013.438, 534.9182
1013.920, 516.5983
1014.402, 497.6330
1014.885, 484.6153
1015.367, 477.9083
1015.849, 482.2525
1016.331, 496.2261
1016.813, 508.7624
1017.295, 513.4417
1017.777, 515.1738
1018.259, 519.4869
1018.742, 522.4548
1019.224, 514.7057
1019.706, 488.5301
1020.188, 474.2575
1020.670, 477.0199
1021.152, 485.4201
1021.634, 485.7250
1022.116, 481.9676
1022.598, 481.2868
1023.081, 484.5480
1023.563, 491.7555
1024.045, 511.2802
1024.527, 525.8737
1025.009, 526.1253
1025.491, 514.2811
1025.973, 505.4476
1026.455, 499.5753
1026.938, 496.9051
1027.420, 499.5231
1027.902, 502.6431
1028.384, 500.3139
1028.866, 495.6046
1029.348, 493.7553
1029.830, 496.9275
1030.312, 501.3797
1030.794, 507.9004
1031.277, 513.9617
1031.759, 517.3333
1032.241, 518.1151
1032.723, 515.0403
1033.205, 508.4310
1033.687, 504.1578
1034.169, 512.4681
1034.651, 516.8354
1035.134, 504.2554
1035.616, 480.6535
1036.098, 470.7340
1036.580, 475.6631
1037.062, 479.7154
1037.544, 477.7186
1038.026, 474.3421
1038.508, 475.1279
1038.990, 478.1363
1039.473, 480.6416
1039.955, 481.6246
1040.437, 483.3126
1040.919, 487.2300
1041.401, 489.4843
1041.883, 484.5157
1042.365, 475.2445
1042.847, 478.0150
1043.329, 490.8909
1043.812, 499.8966
1044.294, 495.0412
1044.776, 486.1591
1045.258, 474.7964
1045.740, 463.6137
1046.222, 458.9635
1046.704, 462.1146
1047.186, 462.4040
1047.669, 456.8968
1048.151, 453.0497
1048.633, 460.5491
1049.115, 473.9782
1049.597, 488.6821
1050.079, 505.4928
1050.561, 510.4180
1051.043, 494.9900
1051.526, 478.9206
1052.008, 464.2973
1052.490, 443.6385
1052.972, 463.9026
1053.454, 475.0287
1053.936, 477.5075
1054.418, 445.4401
1054.900, 457.9819
1055.382, 452.6465
1055.865, 446.5766
1056.347, 465.3970
1056.829, 438.3542
1057.311, 456.7799
1057.793, 457.0555
1058.275, 465.6379
1058.757, 456.2326
1059.239, 458.1549
1059.721, 469.2114
1060.204, 482.5305
1060.686, 490.8273
1061.168, 490.1730
1061.650, 489.5514
1062.132, 491.5165
1062.614, 493.8970
1063.096, 491.1309
1063.578, 485.1399
1064.061, 481.8951
1064.543, 483.1476
1065.025, 485.8074
1065.507, 492.4398
1065.989, 496.0847
1066.471, 489.2875
1066.953, 471.8645
1067.435, 474.5915
1067.917, 497.7684
1068.400, 513.1684
1068.882, 492.1258
1069.364, 467.1154
1069.846, 474.9081
1070.328, 501.3612
1070.810, 515.9622
1071.292, 507.7145
1071.774, 501.3658
1072.256, 497.9372
1072.739, 498.1906
1073.221, 506.8596
1073.703, 518.6748
1074.185, 521.4442
1074.667, 514.6960
1075.149, 507.0373
1075.631, 503.4337
1076.113, 497.5810
1076.595, 484.6090
1077.078, 469.2273
1077.560, 467.4386
1078.042, 477.4393
1078.524, 483.3016
1079.006, 480.2468
1079.488, 473.8432
1079.970, 465.0272
1080.452, 457.2279
1080.935, 454.1079
1081.417, 456.0156
1081.899, 460.6335
1082.381, 468.6435
1082.863, 475.1162
1083.345, 473.9396
1083.827, 471.9737
1084.309, 483.6694
1084.792, 502.4210
1085.274, 512.4194
1085.756, 500.2340
1086.238, 491.3050
1086.720, 488.3275
1087.202, 487.9887
1087.684, 489.3904
1088.166, 490.3471
1088.648, 477.9398
1089.130, 452.8286
1089.613, 439.0491
1090.095, 463.4478
1090.577, 487.4968
1091.059, 492.0026
1091.541, 483.3063
1092.023, 478.9747
1092.505, 478.9107
1092.987, 473.2190
1093.470, 457.8845
1093.952, 443.6083
1094.434, 438.6920
1094.916, 440.7824
1095.398, 450.4675
1095.880, 469.9367
1096.362, 475.3639
1096.844, 462.8337
1097.327, 453.0456
1097.809, 458.9489
1098.291, 470.6986
1098.773, 470.1225
1099.255, 462.6642
1099.737, 459.7505
1100.219, 470.2649
1100.701, 477.0779
1101.183, 477.0440
1101.666, 476.1834
1102.148, 481.6962
1102.630, 491.0443
1103.112, 492.8854
1103.594, 487.6335
1104.076, 481.1741
1104.558, 469.2881
1105.040, 465.4763
1105.522, 483.5898
1106.005, 508.9377
1106.487, 513.4703
1106.969, 497.3950
1107.451, 483.6941
1107.933, 475.5964
1108.415, 471.9696
1108.897, 478.0984
1109.379, 483.5761
1109.862, 474.8897
1110.344, 452.8281
1110.826, 451.3408
1111.308, 475.2426
1111.790, 492.5974
1112.272, 489.9681
1112.754, 481.1162
1113.236, 486.0154
1113.719, 496.9724
1114.201, 502.2449
1114.683, 497.4114
1115.165, 491.6660
1115.647, 484.3318
1116.129, 478.9120
1116.611, 477.8047
1117.093, 480.1864
1117.575, 489.1348
1118.057, 500.1096
1118.540, 498.4697
1119.022, 456.4440
1119.504, 430.8744
1119.986, 443.1134
1120.468, 465.5801
1120.950, 467.1440
1121.432, 451.2499
1121.914, 451.4804
1122.397, 468.5034
1122.879, 485.1765
1123.361, 492.5399
1123.843, 494.5370
1124.325, 490.7931
1124.807, 483.8583
1125.289, 477.8806
1125.771, 472.7115
1126.254, 474.5555
1126.736, 486.0822
1127.218, 493.8297
1127.700, 479.1779
1128.182, 459.1661
1128.664, 449.7371
1129.146, 452.5079
1129.628, 455.2198
1130.110, 458.4608
1130.593, 458.5789
##END=



