##NAMES=Chabazite-Na
##RRUFFID=R061095
##IDEAL CHEMISTRY=(Na_3_K)Al_4_Si_8_O_24_&#183;11H_2_O
##LOCALITY=Vaitape, Bora Bora, French Polynesia
##OWNER=RRUFF
##SOURCE=Michael Scott
##DESCRIPTION=Clusters and druse of clear, colorless rhombohedral crystals
##STATUS=The identification of this mineral has been confirmed only by single crystal X-ray diffraction.
##URL=rruff.info/R061095
119.1542, 3796.178
119.6363, 4048.303
120.1184, 4340.876
120.6006, 4651.398
121.0827, 4963.563
121.5648, 5279.211
122.0469, 5600.871
122.5290, 5925.902
123.0111, 6258.756
123.4933, 6606.053
123.9754, 6990.375
124.4575, 7379.470
124.9396, 7731.586
125.4217, 8042.058
125.9038, 8347.549
126.3860, 8644.696
126.8681, 8847.266
127.3502, 8950.932
127.8323, 8997.479
128.3144, 9001.320
128.7965, 8986.141
129.2787, 8951.807
129.7608, 8905.771
130.2429, 8852.910
130.7250, 8792.911
131.2071, 8734.059
131.6892, 8680.987
132.1714, 8631.378
132.6535, 8578.778
133.1356, 8517.328
133.6177, 8451.532
134.0998, 8394.975
134.5819, 8345.388
135.0640, 8308.385
135.5462, 8292.875
136.0283, 8299.592
136.5104, 8305.981
136.9925, 8303.651
137.4746, 8293.270
137.9567, 8296.265
138.4389, 8315.604
138.9210, 8342.677
139.4031, 8370.438
139.8852, 8407.142
140.3673, 8423.974
140.8494, 8405.927
141.3316, 8339.732
141.8137, 8295.844
142.2958, 8285.914
142.7779, 8293.510
143.2600, 8272.197
143.7421, 8201.604
144.2243, 8135.037
144.7064, 8103.364
145.1885, 8139.514
145.6706, 8148.823
146.1527, 8117.157
146.6348, 8049.656
147.1170, 7990.970
147.5991, 7939.675
148.0812, 7897.478
148.5633, 7866.395
149.0454, 7861.107
149.5275, 7848.619
150.0097, 7819.910
150.4918, 7770.103
150.9739, 7731.589
151.4560, 7719.339
151.9381, 7712.844
152.4202, 7689.267
152.9024, 7621.756
153.3845, 7559.532
153.8666, 7517.393
154.3487, 7507.251
154.8308, 7491.529
155.3129, 7456.203
155.7950, 7412.307
156.2772, 7382.256
156.7593, 7391.376
157.2414, 7400.610
157.7235, 7390.064
158.2056, 7337.484
158.6877, 7292.505
159.1699, 7272.733
159.6520, 7272.968
160.1341, 7271.816
160.6162, 7258.889
161.0983, 7243.836
161.5804, 7233.849
162.0626, 7247.390
162.5447, 7252.214
163.0268, 7228.946
163.5089, 7179.208
163.9910, 7133.683
164.4731, 7108.362
164.9553, 7094.585
165.4374, 7082.223
165.9195, 7070.465
166.4016, 7056.532
166.8837, 7036.904
167.3658, 7010.381
167.8480, 6984.882
168.3301, 6962.583
168.8122, 6944.643
169.2943, 6933.363
169.7764, 6939.601
170.2585, 6948.067
170.7407, 6943.358
171.2228, 6921.253
171.7049, 6892.542
172.1870, 6861.148
172.6691, 6828.987
173.1512, 6803.169
173.6334, 6797.613
174.1155, 6798.116
174.5976, 6783.562
175.0797, 6744.057
175.5618, 6696.394
176.0439, 6658.475
176.5260, 6629.320
177.0082, 6602.359
177.4903, 6574.911
177.9724, 6545.743
178.4545, 6512.721
178.9366, 6471.039
179.4187, 6427.456
179.9009, 6394.002
180.3830, 6370.580
180.8651, 6350.771
181.3472, 6330.926
181.8293, 6310.165
182.3114, 6285.656
182.7936, 6254.221
183.2757, 6218.506
183.7578, 6180.311
184.2399, 6138.453
184.7220, 6101.727
185.2041, 6085.386
185.6863, 6086.579
186.1684, 6087.053
186.6505, 6077.137
187.1326, 6058.764
187.6147, 6041.604
188.0968, 6027.844
188.5790, 6009.723
189.0611, 5967.412
189.5432, 5901.399
190.0253, 5843.010
190.5074, 5821.647
190.9895, 5830.886
191.4717, 5812.185
191.9538, 5750.840
192.4359, 5670.258
192.9180, 5624.220
193.4001, 5615.172
193.8822, 5613.039
194.3644, 5596.548
194.8465, 5566.137
195.3286, 5535.298
195.8107, 5505.176
196.2928, 5476.649
196.7749, 5455.458
197.2570, 5444.011
197.7392, 5429.045
198.2213, 5396.024
198.7034, 5343.023
199.1855, 5291.569
199.6676, 5242.037
200.1497, 5196.529
200.6319, 5176.233
201.1140, 5189.267
201.5961, 5205.803
202.0782, 5188.066
202.5603, 5129.213
203.0424, 5074.651
203.5246, 5037.771
204.0067, 5018.211
204.4888, 5005.508
204.9709, 5003.029
205.4530, 5001.963
205.9352, 4988.536
206.4173, 4959.333
206.8994, 4930.203
207.3815, 4907.297
207.8636, 4890.934
208.3457, 4876.071
208.8279, 4863.471
209.3100, 4851.672
209.7921, 4837.863
210.2742, 4821.516
210.7563, 4804.551
211.2384, 4789.982
211.7206, 4780.809
212.2027, 4759.026
212.6848, 4717.692
213.1669, 4667.290
213.6490, 4636.697
214.1311, 4633.745
214.6133, 4633.290
215.0954, 4621.501
215.5775, 4594.286
216.0596, 4569.499
216.5417, 4547.561
217.0238, 4528.847
217.5059, 4514.893
217.9881, 4508.681
218.4702, 4502.272
218.9523, 4490.629
219.4344, 4472.480
219.9165, 4452.551
220.3986, 4429.070
220.8808, 4403.779
221.3629, 4386.748
221.8450, 4382.353
222.3271, 4380.315
222.8092, 4372.457
223.2913, 4354.657
223.7735, 4340.308
224.2556, 4331.532
224.7377, 4327.945
225.2198, 4326.042
225.7019, 4327.849
226.1840, 4328.649
226.6662, 4324.055
227.1483, 4311.647
227.6304, 4298.140
228.1125, 4283.365
228.5946, 4267.274
229.0767, 4255.575
229.5589, 4251.069
230.0410, 4248.377
230.5231, 4241.574
231.0052, 4227.495
231.4873, 4215.486
231.9694, 4208.129
232.4516, 4206.235
232.9337, 4202.586
233.4158, 4197.703
233.8979, 4190.888
234.3800, 4180.814
234.8621, 4164.552
235.3443, 4150.396
235.8264, 4141.362
236.3085, 4138.971
236.7906, 4132.991
237.2727, 4121.247
237.7548, 4107.449
238.2369, 4095.864
238.7191, 4082.908
239.2012, 4078.284
239.6833, 4088.315
240.1654, 4120.515
240.6475, 4136.298
241.1296, 4127.297
241.6118, 4106.580
242.0939, 4096.766
242.5760, 4106.124
243.0581, 4113.094
243.5402, 4108.530
244.0223, 4085.572
244.5045, 4074.384
244.9866, 4082.675
245.4687, 4099.184
245.9508, 4100.193
246.4329, 4073.402
246.9150, 4050.543
247.3972, 4045.906
247.8793, 4070.917
248.3614, 4082.885
248.8435, 4074.734
249.3256, 4056.022
249.8077, 4049.886
250.2899, 4062.944
250.7720, 4077.859
251.2541, 4087.451
251.7362, 4090.234
252.2183, 4090.453
252.7004, 4086.155
253.1826, 4079.754
253.6647, 4077.470
254.1468, 4079.241
254.6289, 4085.064
255.1110, 4095.860
255.5931, 4115.043
256.0753, 4130.885
256.5574, 4144.530
257.0395, 4154.438
257.5216, 4153.801
258.0037, 4134.444
258.4858, 4118.865
258.9680, 4122.498
259.4501, 4159.156
259.9322, 4174.784
260.4143, 4160.175
260.8964, 4125.030
261.3785, 4099.110
261.8607, 4080.987
262.3428, 4074.539
262.8249, 4086.119
263.3070, 4125.607
263.7891, 4149.846
264.2712, 4151.052
264.7534, 4136.637
265.2355, 4131.847
265.7176, 4141.477
266.1997, 4150.450
266.6818, 4146.954
267.1639, 4124.410
267.6461, 4116.375
268.1282, 4131.761
268.6103, 4161.196
269.0924, 4171.741
269.5745, 4157.489
270.0566, 4138.424
270.5387, 4124.132
271.0208, 4112.955
271.5030, 4116.654
271.9851, 4141.689
272.4672, 4179.966
272.9493, 4204.004
273.4314, 4210.813
273.9135, 4212.741
274.3957, 4218.570
274.8778, 4229.513
275.3599, 4234.450
275.8420, 4228.783
276.3241, 4218.458
276.8062, 4224.945
277.2884, 4252.563
277.7705, 4279.582
278.2526, 4290.485
278.7347, 4284.425
279.2168, 4275.550
279.6989, 4262.493
280.1811, 4249.851
280.6632, 4251.701
281.1453, 4269.697
281.6274, 4291.732
282.1095, 4311.016
282.5916, 4327.455
283.0738, 4339.607
283.5559, 4346.401
284.0380, 4349.476
284.5201, 4352.899
285.0022, 4356.745
285.4843, 4359.663
285.9665, 4359.265
286.4486, 4356.147
286.9307, 4357.772
287.4128, 4367.604
287.8949, 4379.680
288.3770, 4377.238
288.8592, 4360.253
289.3413, 4347.885
289.8234, 4358.174
290.3055, 4386.640
290.7876, 4408.322
291.2697, 4419.149
291.7519, 4423.308
292.2340, 4427.218
292.7161, 4430.882
293.1982, 4434.429
293.6803, 4436.840
294.1624, 4439.021
294.6446, 4444.151
295.1267, 4453.118
295.6088, 4463.991
296.0909, 4472.159
296.5730, 4478.350
297.0551, 4489.177
297.5373, 4517.500
298.0194, 4552.659
298.5015, 4568.984
298.9836, 4557.934
299.4657, 4539.045
299.9478, 4535.993
300.4300, 4546.276
300.9121, 4560.435
301.3942, 4575.425
301.8763, 4589.994
302.3584, 4601.604
302.8405, 4609.676
303.3227, 4616.196
303.8048, 4623.688
304.2869, 4631.458
304.7690, 4637.761
305.2511, 4637.416
305.7332, 4636.820
306.2154, 4643.852
306.6975, 4660.456
307.1796, 4680.718
307.6617, 4701.722
308.1438, 4722.458
308.6259, 4741.559
309.1081, 4752.467
309.5901, 4764.414
310.0723, 4787.888
310.5544, 4826.759
311.0365, 4863.698
311.5186, 4885.309
312.0007, 4897.891
312.4828, 4912.803
312.9650, 4934.939
313.4471, 4961.244
313.9292, 4993.635
314.4113, 5035.212
314.8934, 5065.338
315.3755, 5061.193
315.8577, 5042.267
316.3398, 5036.432
316.8219, 5061.922
317.3040, 5095.671
317.7861, 5129.962
318.2682, 5165.057
318.7504, 5192.576
319.2325, 5204.469
319.7146, 5209.232
320.1967, 5216.753
320.6788, 5223.501
321.1609, 5238.928
321.6431, 5274.833
322.1252, 5334.960
322.6073, 5372.822
323.0894, 5355.636
323.5715, 5322.739
324.0536, 5310.555
324.5358, 5347.746
325.0179, 5381.932
325.5000, 5403.314
325.9821, 5411.117
326.4642, 5414.265
326.9464, 5414.408
327.4285, 5409.311
327.9106, 5397.225
328.3927, 5375.663
328.8748, 5350.085
329.3569, 5312.937
329.8391, 5266.653
330.3212, 5248.053
330.8033, 5281.841
331.2854, 5321.280
331.7675, 5335.446
332.2496, 5310.745
332.7318, 5285.677
333.2139, 5262.697
333.6960, 5241.818
334.1781, 5220.564
334.6602, 5193.770
335.1423, 5174.562
335.6245, 5175.195
336.1066, 5210.145
336.5887, 5219.369
337.0708, 5191.716
337.5529, 5139.678
338.0350, 5099.433
338.5172, 5071.939
338.9993, 5052.029
339.4814, 5038.986
339.9635, 5034.071
340.4456, 5024.777
340.9277, 5009.859
341.4099, 4991.099
341.8920, 4969.980
342.3741, 4946.053
342.8562, 4925.019
343.3383, 4911.528
343.8204, 4904.808
344.3026, 4895.725
344.7847, 4884.391
345.2668, 4870.199
345.7489, 4850.623
346.2310, 4826.113
346.7131, 4803.920
347.1953, 4791.160
347.6774, 4783.297
348.1595, 4763.837
348.6416, 4731.857
349.1237, 4699.584
349.6058, 4681.966
350.0880, 4675.593
350.5700, 4669.371
351.0522, 4659.055
351.5343, 4646.684
352.0164, 4635.333
352.4985, 4625.011
352.9806, 4614.525
353.4627, 4601.862
353.9449, 4588.500
354.4270, 4576.813
354.9091, 4567.062
355.3912, 4559.497
355.8733, 4555.706
356.3554, 4554.953
356.8376, 4553.183
357.3197, 4544.037
357.8018, 4534.182
358.2839, 4531.424
358.7660, 4545.832
359.2481, 4555.225
359.7303, 4539.821
360.2124, 4508.674
360.6945, 4487.671
361.1766, 4503.519
361.6587, 4522.896
362.1408, 4522.478
362.6230, 4487.136
363.1051, 4458.052
363.5872, 4448.679
364.0693, 4453.580
364.5514, 4462.119
365.0335, 4482.750
365.5157, 4497.433
365.9978, 4496.675
366.4799, 4472.439
366.9620, 4455.896
367.4441, 4455.770
367.9262, 4462.931
368.4084, 4465.541
368.8905, 4461.766
369.3726, 4454.632
369.8547, 4441.420
370.3368, 4419.946
370.8189, 4411.948
371.3011, 4428.579
371.7832, 4449.160
372.2653, 4454.112
372.7474, 4434.887
373.2295, 4418.223
373.7116, 4409.658
374.1938, 4407.998
374.6759, 4402.446
375.1580, 4390.992
375.6401, 4380.492
376.1222, 4376.302
376.6043, 4379.372
377.0865, 4383.795
377.5686, 4388.221
378.0507, 4394.318
378.5328, 4410.173
379.0149, 4438.053
379.4970, 4458.385
379.9792, 4451.280
380.4613, 4420.548
380.9434, 4409.741
381.4255, 4425.882
381.9076, 4450.520
382.3897, 4455.828
382.8719, 4443.791
383.3540, 4429.341
383.8361, 4415.416
384.3182, 4404.719
384.8003, 4405.542
385.2824, 4418.937
385.7646, 4434.064
386.2467, 4443.076
386.7288, 4446.116
387.2109, 4443.645
387.6930, 4427.990
388.1751, 4411.975
388.6573, 4408.735
389.1394, 4417.603
389.6215, 4431.313
390.1036, 4454.253
390.5857, 4475.880
391.0678, 4484.083
391.5499, 4461.744
392.0320, 4442.259
392.5142, 4449.154
392.9963, 4474.610
393.4784, 4493.063
393.9605, 4488.695
394.4426, 4478.223
394.9247, 4471.793
395.4069, 4474.223
395.8890, 4474.013
396.3711, 4461.170
396.8532, 4444.945
397.3353, 4442.145
397.8174, 4467.848
398.2996, 4495.268
398.7817, 4519.685
399.2638, 4545.205
399.7459, 4549.996
400.2280, 4509.773
400.7101, 4463.159
401.1923, 4451.981
401.6744, 4499.257
402.1565, 4542.174
402.6386, 4570.710
403.1207, 4585.243
403.6028, 4589.733
404.0850, 4579.676
404.5671, 4567.680
405.0492, 4562.765
405.5313, 4565.565
406.0134, 4572.169
406.4955, 4582.390
406.9777, 4595.831
407.4598, 4612.635
407.9419, 4633.392
408.4240, 4652.811
408.9061, 4666.154
409.3882, 4674.782
409.8704, 4687.402
410.3525, 4705.382
410.8346, 4724.433
411.3167, 4739.525
411.7988, 4751.112
412.2809, 4760.857
412.7631, 4762.737
413.2452, 4765.835
413.7273, 4790.697
414.2094, 4837.445
414.6915, 4880.046
415.1736, 4888.997
415.6558, 4881.621
416.1379, 4884.352
416.6200, 4911.955
417.1021, 4945.118
417.5842, 4971.742
418.0663, 4992.992
418.5485, 5013.289
419.0306, 5026.117
419.5127, 5044.466
419.9948, 5080.953
420.4769, 5150.594
420.9590, 5210.065
421.4412, 5238.176
421.9233, 5248.965
422.4054, 5269.174
422.8875, 5309.720
423.3696, 5354.889
423.8517, 5400.150
424.3339, 5444.636
424.8160, 5489.519
425.2981, 5534.032
425.7802, 5578.953
426.2623, 5625.303
426.7444, 5671.031
427.2266, 5721.465
427.7087, 5780.162
428.1908, 5844.997
428.6729, 5904.289
429.1550, 5953.131
429.6371, 6006.963
430.1193, 6077.859
430.6014, 6168.466
431.0835, 6255.684
431.5656, 6338.281
432.0477, 6415.883
432.5298, 6483.087
433.0119, 6539.532
433.4940, 6604.350
433.9762, 6694.072
434.4583, 6800.360
434.9404, 6889.094
435.4225, 6957.654
435.9046, 7027.358
436.3867, 7118.950
436.8689, 7228.243
437.3510, 7345.047
437.8331, 7473.804
438.3152, 7601.132
438.7973, 7708.966
439.2794, 7800.310
439.7616, 7892.831
440.2437, 7989.891
440.7258, 8096.207
441.2079, 8218.839
441.6900, 8368.799
442.1721, 8513.380
442.6543, 8635.221
443.1364, 8741.376
443.6185, 8845.687
444.1006, 8945.091
444.5827, 9048.691
445.0648, 9162.692
445.5470, 9289.902
446.0291, 9413.544
446.5112, 9532.517
446.9933, 9646.642
447.4754, 9757.635
447.9576, 9866.203
448.4397, 9969.323
448.9218, 10065.95
449.4039, 10156.34
449.8860, 10237.58
450.3681, 10300.22
450.8503, 10369.25
451.3324, 10462.79
451.8145, 10586.51
452.2966, 10697.42
452.7787, 10794.05
453.2608, 10879.15
453.7430, 10958.97
454.2251, 11032.98
454.7072, 11099.79
455.1893, 11158.15
455.6714, 11209.19
456.1535, 11257.22
456.6357, 11302.34
457.1178, 11343.79
457.5999, 11380.09
458.0820, 11412.10
458.5641, 11438.22
459.0462, 11450.07
459.5284, 11469.50
460.0105, 11524.60
460.4926, 11606.78
460.9747, 11687.99
461.4568, 11757.44
461.9389, 11817.81
462.4211, 11867.58
462.9032, 11903.55
463.3853, 11945.36
463.8674, 12008.54
464.3495, 12078.95
464.8316, 12140.04
465.3138, 12174.97
465.7959, 12213.75
466.2780, 12264.47
466.7601, 12326.86
467.2422, 12389.95
467.7243, 12454.35
468.2065, 12519.92
468.6886, 12587.90
469.1707, 12661.20
469.6528, 12731.49
470.1349, 12798.27
470.6170, 12862.45
471.0992, 12926.47
471.5813, 12992.29
472.0634, 13052.02
472.5455, 13104.30
473.0276, 13148.82
473.5097, 13180.80
473.9918, 13198.94
474.4739, 13212.62
474.9561, 13234.95
475.4382, 13262.06
475.9203, 13275.91
476.4024, 13273.19
476.8845, 13254.72
477.3666, 13222.36
477.8488, 13175.47
478.3309, 13111.68
478.8130, 13022.64
479.2951, 12919.31
479.7772, 12813.23
480.2593, 12705.31
480.7415, 12591.01
481.2236, 12467.51
481.7057, 12336.13
482.1878, 12198.45
482.6699, 12068.68
483.1520, 11917.76
483.6342, 11720.78
484.1163, 11486.74
484.5984, 11275.75
485.0805, 11121.75
485.5626, 10972.53
486.0447, 10802.07
486.5269, 10598.76
487.0090, 10399.69
487.4911, 10208.85
487.9732, 10021.97
488.4553, 9829.797
488.9374, 9632.567
489.4196, 9434.285
489.9017, 9229.434
490.3838, 9024.583
490.8659, 8856.499
491.3480, 8732.255
491.8301, 8610.957
492.3123, 8453.798
492.7944, 8269.301
493.2765, 8095.064
493.7586, 7937.619
494.2407, 7791.668
494.7228, 7653.206
495.2050, 7522.587
495.6871, 7401.499
496.1692, 7292.496
496.6513, 7191.426
497.1334, 7096.933
497.6155, 7009.097
498.0977, 6913.104
498.5798, 6789.911
499.0619, 6660.146
499.5440, 6545.693
500.0261, 6457.409
500.5082, 6374.472
500.9904, 6294.175
501.4725, 6215.922
501.9546, 6136.985
502.4367, 6057.086
502.9188, 5976.707
503.4009, 5892.149
503.8831, 5800.267
504.3652, 5729.708
504.8473, 5692.529
505.3294, 5661.817
505.8115, 5612.813
506.2936, 5539.222
506.7758, 5473.340
507.2579, 5420.137
507.7400, 5376.011
508.2221, 5335.082
508.7042, 5297.694
509.1863, 5255.625
509.6685, 5200.961
510.1506, 5138.518
510.6327, 5080.909
511.1148, 5028.282
511.5969, 4984.624
512.0790, 4963.315
512.5612, 4952.032
513.0433, 4928.020
513.5254, 4877.217
514.0075, 4822.356
514.4896, 4777.425
514.9717, 4741.701
515.4539, 4711.927
515.9360, 4688.507
516.4181, 4669.079
516.9002, 4653.292
517.3823, 4642.029
517.8644, 4629.282
518.3466, 4612.560
518.8287, 4594.442
519.3108, 4577.463
519.7929, 4562.280
520.2750, 4546.913
520.7571, 4530.955
521.2393, 4514.831
521.7214, 4500.465
522.2035, 4490.207
522.6856, 4475.042
523.1677, 4447.427
523.6498, 4408.268
524.1320, 4380.736
524.6141, 4366.246
525.0962, 4356.513
525.5783, 4343.539
526.0604, 4327.882
526.5425, 4310.894
527.0247, 4291.040
527.5068, 4273.679
527.9889, 4270.160
528.4710, 4275.978
528.9531, 4276.113
529.4352, 4254.310
529.9174, 4229.108
530.3995, 4215.979
530.8816, 4217.414
531.3637, 4219.420
531.8458, 4218.212
532.3279, 4214.282
532.8101, 4208.077
533.2922, 4195.501
533.7743, 4185.602
534.2564, 4179.944
534.7385, 4177.551
535.2206, 4176.156
535.7027, 4177.646
536.1848, 4176.893
536.6669, 4171.974
537.1490, 4162.823
537.6312, 4150.587
538.1133, 4133.501
538.5954, 4118.462
539.0775, 4116.195
539.5596, 4124.883
540.0417, 4121.512
540.5239, 4098.119
541.0060, 4069.798
541.4881, 4062.089
541.9702, 4070.234
542.4523, 4076.075
542.9344, 4067.054
543.4166, 4053.301
543.8987, 4047.124
544.3808, 4048.231
544.8629, 4044.466
545.3450, 4021.265
545.8271, 3994.856
546.3093, 3978.920
546.7914, 3982.284
547.2735, 3986.237
547.7556, 3987.322
548.2377, 3986.643
548.7198, 3986.155
549.2020, 3985.666
549.6841, 3985.622
550.1662, 3986.168
550.6483, 3987.211
551.1304, 3986.011
551.6125, 3978.136
552.0947, 3978.938
552.5768, 4008.854
553.0589, 4067.109
553.5410, 4092.641
554.0231, 4076.719
554.5052, 4042.010
554.9874, 4014.309
555.4695, 3992.842
555.9516, 3975.154
556.4337, 3957.104
556.9158, 3945.464
557.3979, 3955.782
557.8801, 3982.238
558.3622, 3998.038
558.8443, 3978.149
559.3264, 3950.004
559.8085, 3933.089
560.2906, 3931.518
560.7728, 3932.844
561.2549, 3940.745
561.7370, 3946.938
562.2191, 3942.502
562.7012, 3915.645
563.1833, 3894.641
563.6655, 3881.114
564.1476, 3875.249
564.6297, 3881.100
565.1118, 3905.121
565.5939, 3921.301
566.0760, 3914.538
566.5582, 3887.721
567.0403, 3870.734
567.5224, 3864.105
568.0045, 3864.026
568.4866, 3868.827
568.9688, 3877.480
569.4509, 3888.308
569.9330, 3902.592
570.4151, 3914.016
570.8972, 3913.521
571.3793, 3905.542
571.8615, 3899.025
572.3436, 3897.031
572.8257, 3898.070
573.3078, 3903.112
573.7899, 3911.574
574.2720, 3917.163
574.7542, 3915.829
575.2363, 3913.259
575.7184, 3911.953
576.2005, 3910.539
576.6826, 3914.873
577.1647, 3930.797
577.6469, 3946.809
578.1290, 3947.049
578.6111, 3928.773
579.0932, 3910.177
579.5753, 3893.765
580.0574, 3880.573
580.5396, 3875.283
581.0217, 3877.385
581.5038, 3878.138
581.9859, 3864.868
582.4680, 3849.671
582.9501, 3860.610
583.4323, 3898.328
583.9144, 3926.486
584.3965, 3905.451
584.8786, 3867.601
585.3607, 3847.917
585.8428, 3865.248
586.3250, 3880.826
586.8071, 3876.751
587.2892, 3863.889
587.7713, 3860.665
588.2534, 3888.417
588.7355, 3903.518
589.2177, 3892.573
589.6998, 3860.098
590.1819, 3840.636
590.6640, 3837.137
591.1461, 3839.546
591.6282, 3843.316
592.1104, 3848.402
592.5925, 3853.630
593.0746, 3859.182
593.5567, 3863.382
594.0388, 3864.495
594.5209, 3862.632
595.0031, 3857.798
595.4852, 3848.604
595.9673, 3838.880
596.4494, 3831.350
596.9315, 3826.103
597.4136, 3823.468
597.8958, 3822.185
598.3779, 3824.876
598.8600, 3838.790
599.3421, 3863.792
599.8242, 3872.910
600.3063, 3841.137
600.7885, 3809.597
601.2706, 3800.791
601.7527, 3825.538
602.2348, 3842.618
602.7169, 3850.851
603.1990, 3852.814
603.6812, 3850.517
604.1633, 3843.692
604.6454, 3835.719
605.1275, 3825.614
605.6096, 3816.958
606.0917, 3819.012
606.5739, 3829.701
607.0560, 3838.596
607.5381, 3841.366
608.0202, 3838.363
608.5023, 3826.655
608.9844, 3806.849
609.4666, 3791.289
609.9487, 3789.459
610.4308, 3792.294
610.9129, 3792.409
611.3950, 3784.009
611.8771, 3783.435
612.3593, 3803.640
612.8414, 3827.581
613.3235, 3835.048
613.8056, 3818.298
614.2877, 3803.258
614.7698, 3793.580
615.2520, 3788.579
615.7341, 3787.324
616.2162, 3789.940
