##NAMES=Chalcocite
##RRUFFID=R050067
##IDEAL CHEMISTRY=Cu^1+^_2_S^2-^
##LOCALITY=Flambeau, Rusk County, Wisconsin, USA
##OWNER=RRUFF
##SOURCE=Rock Currier
##DESCRIPTION=Iridescent blue irregular hexagonal tablet
##STATUS=The identification of this mineral has been confirmed by X-ray diffraction and chemical analysis
##URL=rruff.info/R050067
##MEASURED CHEMISTRY=Cu_2.00_S_1.00_
160.2684, 1700.409
160.7505, 1707.957
161.2326, 1712.003
161.7148, 1716.743
162.1969, 1724.531
162.6790, 1733.681
163.1611, 1742.466
163.6432, 1752.687
164.1253, 1760.615
164.6075, 1762.724
165.0896, 1758.831
165.5717, 1755.990
166.0538, 1756.839
166.5359, 1761.467
167.0180, 1769.929
167.5002, 1788.744
167.9823, 1807.412
168.4644, 1816.629
168.9465, 1814.577
169.4286, 1810.993
169.9107, 1811.823
170.3929, 1816.314
170.8750, 1822.910
171.3571, 1836.044
171.8392, 1848.562
172.3213, 1850.284
172.8034, 1836.554
173.2856, 1823.137
173.7677, 1827.688
174.2498, 1845.856
174.7319, 1862.581
175.2140, 1866.969
175.6961, 1864.604
176.1783, 1864.410
176.6604, 1869.439
177.1425, 1874.507
177.6246, 1873.195
178.1067, 1866.012
178.5888, 1856.110
179.0710, 1842.142
179.5531, 1827.243
180.0352, 1818.523
180.5173, 1817.553
180.9994, 1823.817
181.4815, 1840.537
181.9637, 1867.462
182.4458, 1892.046
182.9279, 1903.343
183.4100, 1903.388
183.8921, 1899.818
184.3742, 1892.779
184.8564, 1884.411
185.3385, 1880.409
185.8206, 1880.992
186.3027, 1882.862
186.7848, 1879.448
187.2669, 1872.395
187.7491, 1874.359
188.2312, 1897.331
188.7133, 1933.005
189.1954, 1947.974
189.6775, 1938.983
190.1596, 1923.344
190.6418, 1923.435
191.1239, 1938.850
191.6060, 1952.486
192.0881, 1956.192
192.5702, 1951.202
193.0524, 1948.544
193.5345, 1948.786
194.0166, 1949.901
194.4987, 1947.985
194.9808, 1942.731
195.4629, 1939.109
195.9451, 1940.338
196.4272, 1946.315
196.9093, 1950.790
197.3914, 1953.127
197.8735, 1954.650
198.3556, 1958.529
198.8378, 1965.329
199.3199, 1970.821
199.8020, 1970.731
200.2841, 1964.279
200.7662, 1965.237
201.2483, 1977.671
201.7305, 1994.951
202.2126, 1998.847
202.6947, 1985.943
203.1768, 1972.411
203.6589, 1969.903
204.1410, 1980.853
204.6232, 1984.760
205.1053, 1976.671
205.5874, 1961.755
206.0695, 1958.442
206.5516, 1970.112
207.0337, 1984.507
207.5159, 1993.208
207.9980, 1994.822
208.4801, 1996.594
208.9622, 1999.339
209.4443, 2002.911
209.9264, 2006.891
210.4086, 2011.889
210.8907, 2016.083
211.3728, 2017.839
211.8549, 2016.575
212.3370, 2014.354
212.8191, 2008.919
213.3013, 2001.853
213.7834, 2009.114
214.2655, 2039.587
214.7476, 2070.159
215.2297, 2078.466
215.7118, 2055.304
216.1940, 2035.475
216.6761, 2025.000
217.1582, 2023.542
217.6403, 2025.562
218.1224, 2032.083
218.6045, 2040.673
219.0867, 2049.740
219.5688, 2060.951
220.0509, 2068.257
220.5330, 2068.492
221.0151, 2061.390
221.4972, 2060.717
221.9794, 2070.005
222.4615, 2081.766
222.9436, 2088.510
223.4257, 2090.172
223.9078, 2086.511
224.3899, 2074.987
224.8721, 2054.145
225.3542, 2042.680
225.8363, 2042.698
226.3184, 2049.976
226.8005, 2060.496
227.2827, 2077.128
227.7648, 2091.453
228.2469, 2101.849
228.7290, 2108.457
229.2111, 2109.163
229.6932, 2099.366
230.1754, 2087.391
230.6575, 2084.721
231.1396, 2096.689
231.6217, 2108.611
232.1038, 2116.459
232.5859, 2119.492
233.0681, 2122.674
233.5502, 2127.553
234.0323, 2131.475
234.5144, 2129.768
234.9965, 2117.503
235.4786, 2107.999
235.9608, 2105.924
236.4429, 2113.150
236.9250, 2119.072
237.4071, 2122.841
237.8892, 2125.787
238.3713, 2130.394
238.8535, 2138.951
239.3356, 2145.275
239.8177, 2146.476
240.2998, 2140.183
240.7819, 2138.047
241.2640, 2141.585
241.7462, 2148.357
242.2283, 2154.195
242.7104, 2158.434
243.1925, 2162.840
243.6746, 2168.181
244.1567, 2175.073
244.6389, 2181.070
245.1210, 2187.146
245.6031, 2191.762
246.0852, 2191.574
246.5673, 2183.542
247.0494, 2175.873
247.5316, 2171.362
248.0137, 2170.518
248.4958, 2171.220
248.9779, 2173.836
249.4600, 2177.795
249.9421, 2182.114
250.4243, 2187.250
250.9064, 2191.977
251.3885, 2195.703
251.8706, 2197.975
252.3527, 2201.080
252.8348, 2206.369
253.3170, 2211.660
253.7991, 2212.050
254.2812, 2204.398
254.7633, 2197.864
255.2454, 2196.198
255.7275, 2200.849
256.2097, 2204.865
256.6918, 2207.176
257.1739, 2209.539
257.6560, 2215.749
258.1381, 2227.835
258.6202, 2239.635
259.1024, 2248.993
259.5845, 2255.490
260.0666, 2261.522
260.5487, 2269.418
261.0308, 2275.042
261.5129, 2268.154
261.9951, 2240.907
262.4772, 2220.133
262.9593, 2219.579
263.4414, 2245.761
263.9235, 2259.892
264.4056, 2256.914
264.8878, 2246.744
265.3699, 2248.288
265.8520, 2266.489
266.3341, 2282.317
266.8162, 2287.345
267.2983, 2279.377
267.7805, 2274.396
268.2626, 2272.925
268.7447, 2273.924
269.2268, 2275.690
269.7089, 2278.159
270.1910, 2281.669
270.6732, 2288.242
271.1553, 2298.982
271.6374, 2299.664
272.1195, 2286.319
272.6016, 2268.726
273.0837, 2264.330
273.5659, 2275.590
274.0480, 2287.248
274.5301, 2293.433
275.0122, 2293.911
275.4943, 2294.469
275.9764, 2295.239
276.4586, 2295.839
276.9407, 2295.426
277.4228, 2293.835
277.9049, 2292.560
278.3870, 2289.892
278.8691, 2286.312
279.3513, 2296.142
279.8334, 2323.801
280.3155, 2353.507
280.7976, 2361.901
281.2798, 2348.073
281.7619, 2332.552
282.2440, 2320.878
282.7261, 2313.386
283.2082, 2314.409
283.6903, 2325.604
284.1725, 2339.217
284.6546, 2346.278
285.1367, 2346.857
285.6188, 2344.126
286.1009, 2337.719
286.5830, 2328.757
287.0652, 2320.376
287.5473, 2311.854
288.0294, 2308.648
288.5115, 2321.188
288.9936, 2347.352
289.4757, 2369.149
289.9579, 2380.797
290.4400, 2383.838
290.9221, 2380.920
291.4042, 2371.618
291.8863, 2361.687
292.3684, 2356.636
292.8506, 2355.872
293.3327, 2356.826
293.8148, 2359.844
294.2969, 2363.420
294.7790, 2364.027
295.2611, 2361.660
295.7433, 2359.416
296.2254, 2359.877
296.7075, 2362.597
297.1896, 2366.429
297.6717, 2372.272
298.1538, 2378.075
298.6360, 2378.495
299.1181, 2374.212
299.6002, 2373.222
300.0823, 2388.421
300.5644, 2410.522
301.0465, 2421.344
301.5287, 2411.609
302.0108, 2394.376
302.4929, 2381.579
302.9750, 2373.235
303.4571, 2370.170
303.9392, 2378.294
304.4214, 2390.361
304.9035, 2396.254
305.3856, 2390.978
305.8677, 2382.886
306.3498, 2377.771
306.8319, 2375.578
307.3141, 2376.065
307.7962, 2382.001
308.2783, 2389.207
308.7604, 2393.117
309.2425, 2390.988
309.7246, 2389.308
310.2068, 2393.060
310.6889, 2400.617
311.1710, 2407.775
311.6531, 2414.228
312.1352, 2418.468
312.6173, 2418.774
313.0995, 2413.707
313.5816, 2408.137
314.0637, 2402.024
314.5458, 2397.110
315.0279, 2396.584
315.5100, 2407.840
315.9922, 2419.155
316.4743, 2423.305
316.9564, 2417.465
317.4385, 2412.744
317.9206, 2416.874
318.4027, 2423.395
318.8849, 2423.275
319.3670, 2402.900
319.8491, 2385.314
320.3312, 2379.793
320.8133, 2388.590
321.2954, 2399.905
321.7776, 2413.025
322.2597, 2426.984
322.7418, 2440.757
323.2239, 2459.154
323.7060, 2472.404
324.1881, 2478.225
324.6703, 2476.378
325.1524, 2469.167
325.6345, 2447.579
326.1166, 2425.607
326.5987, 2414.401
327.0808, 2425.611
327.5630, 2433.925
328.0451, 2434.918
328.5272, 2429.049
329.0093, 2426.332
329.4914, 2428.310
329.9735, 2432.081
330.4557, 2435.869
330.9378, 2439.845
331.4199, 2443.694
331.9020, 2448.515
332.3841, 2453.396
332.8662, 2453.434
333.3484, 2446.123
333.8305, 2437.764
334.3126, 2430.801
334.7947, 2423.589
335.2768, 2423.924
335.7589, 2435.919
336.2411, 2453.613
336.7232, 2461.750
337.2053, 2458.030
337.6874, 2451.272
338.1695, 2444.544
338.6516, 2437.570
339.1338, 2434.207
339.6159, 2435.943
340.0980, 2439.096
340.5801, 2435.477
341.0622, 2423.827
341.5443, 2416.856
342.0265, 2422.697
342.5086, 2439.433
342.9907, 2449.513
343.4728, 2452.357
343.9549, 2450.456
344.4370, 2444.228
344.9192, 2434.437
345.4013, 2428.236
345.8834, 2428.940
346.3655, 2434.891
346.8476, 2442.699
347.3297, 2452.401
347.8119, 2461.978
348.2940, 2469.637
348.7761, 2475.609
349.2582, 2480.774
349.7403, 2487.219
350.2225, 2491.245
350.7046, 2485.437
351.1867, 2470.888
351.6688, 2456.443
352.1509, 2444.883
352.6331, 2438.377
353.1152, 2441.721
353.5973, 2460.705
354.0794, 2480.857
354.5615, 2488.775
355.0436, 2487.129
355.5258, 2484.035
356.0079, 2483.630
356.4900, 2483.910
356.9721, 2483.820
357.4542, 2484.122
357.9363, 2480.924
358.4185, 2464.849
358.9006, 2444.549
359.3827, 2434.996
359.8648, 2452.567
360.3469, 2474.033
360.8290, 2487.177
361.3112, 2489.969
361.7933, 2491.786
362.2754, 2495.965
362.7575, 2500.618
363.2396, 2503.709
363.7217, 2502.692
364.2039, 2502.109
364.6860, 2503.777
365.1681, 2507.760
365.6502, 2510.150
366.1323, 2512.772
366.6144, 2512.340
367.0966, 2506.422
367.5787, 2479.748
368.0608, 2466.536
368.5429, 2476.201
369.0250, 2503.383
369.5071, 2519.910
369.9893, 2517.149
370.4714, 2513.737
370.9535, 2520.618
371.4356, 2550.120
371.9177, 2560.186
372.3998, 2540.803
372.8820, 2506.480
373.3641, 2490.426
373.8462, 2498.184
374.3283, 2509.917
374.8104, 2518.786
375.2925, 2524.858
375.7747, 2528.024
376.2568, 2528.196
376.7389, 2525.697
377.2210, 2519.222
377.7031, 2508.237
378.1852, 2500.975
378.6674, 2499.815
379.1495, 2504.364
379.6316, 2515.099
380.1137, 2532.728
380.5958, 2549.326
381.0779, 2555.659
381.5601, 2553.809
382.0422, 2554.317
382.5243, 2561.877
383.0064, 2569.968
383.4885, 2564.266
383.9706, 2546.792
384.4528, 2532.830
384.9349, 2536.019
385.4170, 2548.619
385.8991, 2557.515
386.3812, 2559.925
386.8633, 2561.489
387.3455, 2571.138
387.8276, 2584.169
388.3097, 2589.902
388.7918, 2574.941
389.2739, 2555.544
389.7560, 2543.198
390.2382, 2538.694
390.7203, 2542.436
391.2024, 2564.664
391.6845, 2591.823
392.1666, 2608.531
392.6487, 2600.938
393.1309, 2589.943
393.6130, 2582.701
394.0951, 2579.168
394.5772, 2577.106
395.0593, 2575.042
395.5414, 2574.832
396.0236, 2577.677
396.5057, 2586.811
396.9878, 2595.384
397.4699, 2603.763
397.9520, 2611.233
398.4341, 2615.552
398.9163, 2616.286
399.3984, 2614.307
399.8805, 2609.864
400.3626, 2602.847
400.8447, 2593.088
401.3268, 2576.649
401.8090, 2560.396
402.2911, 2554.417
402.7732, 2561.811
403.2553, 2571.694
403.7374, 2582.235
404.2195, 2593.253
404.7017, 2601.221
405.1838, 2605.637
405.6659, 2608.393
406.1480, 2611.803
406.6301, 2615.947
407.1122, 2616.280
407.5944, 2610.145
408.0765, 2601.629
408.5586, 2601.545
409.0407, 2609.738
409.5228, 2618.746
410.0049, 2624.170
410.4871, 2626.548
410.9692, 2627.004
411.4513, 2625.276
411.9334, 2623.133
412.4155, 2622.806
412.8976, 2623.733
413.3798, 2624.298
413.8619, 2619.731
414.3440, 2616.747
414.8261, 2625.274
415.3082, 2645.435
415.7903, 2663.092
416.2725, 2670.403
416.7546, 2669.712
417.2367, 2663.429
417.7188, 2644.961
418.2009, 2629.259
418.6830, 2626.606
419.1652, 2633.346
419.6473, 2636.166
420.1294, 2619.926
420.6115, 2606.465
421.0937, 2609.283
421.5758, 2640.459
422.0579, 2665.567
422.5400, 2678.217
423.0221, 2682.622
423.5042, 2685.861
423.9864, 2687.291
424.4685, 2688.617
424.9506, 2691.391
425.4327, 2696.129
425.9148, 2694.130
426.3969, 2679.123
426.8791, 2664.523
427.3612, 2664.038
427.8433, 2684.379
428.3254, 2697.220
428.8075, 2696.185
429.2896, 2685.896
429.7718, 2682.642
430.2539, 2687.638
430.7360, 2693.109
431.2181, 2692.876
431.7002, 2687.649
432.1823, 2688.944
432.6645, 2698.649
433.1466, 2710.512
433.6287, 2717.097
434.1108, 2718.635
434.5929, 2715.882
435.0750, 2705.645
435.5572, 2692.819
436.0393, 2686.007
436.5214, 2685.060
437.0035, 2686.860
437.4856, 2690.718
437.9677, 2695.286
438.4499, 2698.530
438.9320, 2699.175
439.4141, 2699.667
439.8962, 2700.555
440.3783, 2702.528
440.8604, 2707.393
441.3426, 2721.035
441.8247, 2733.885
442.3068, 2739.426
442.7889, 2735.152
443.2710, 2732.292
443.7531, 2734.935
444.2353, 2740.086
444.7174, 2744.482
445.1995, 2749.666
445.6816, 2751.810
446.1637, 2749.302
446.6458, 2742.600
447.1280, 2735.636
447.6101, 2724.076
448.0922, 2717.042
448.5743, 2721.193
449.0564, 2743.949
449.5385, 2757.826
450.0207, 2759.768
450.5028, 2754.671
450.9849, 2750.095
451.4670, 2745.153
451.9491, 2745.814
452.4312, 2759.225
452.9134, 2782.047
453.3955, 2785.065
453.8776, 2765.837
454.3597, 2744.311
454.8418, 2740.216
455.3239, 2750.641
455.8061, 2764.429
456.2882, 2781.105
456.7703, 2797.059
457.2524, 2808.509
457.7345, 2815.214
458.2166, 2816.310
458.6988, 2805.350
459.1809, 2791.421
459.6630, 2784.627
460.1451, 2786.431
460.6272, 2791.668
461.1093, 2801.464
461.5915, 2811.425
462.0736, 2815.856
462.5557, 2802.113
463.0378, 2793.083
463.5199, 2804.067
464.0020, 2831.162
464.4842, 2845.068
464.9663, 2823.357
465.4484, 2798.859
465.9305, 2789.198
466.4126, 2805.104
466.8947, 2818.099
467.3769, 2828.579
467.8590, 2835.957
468.3411, 2839.293
468.8232, 2838.108
469.3053, 2833.360
469.7874, 2822.934
470.2696, 2807.579
470.7517, 2802.046
471.2338, 2808.109
471.7159, 2818.503
472.1980, 2828.816
472.6801, 2838.972
473.1623, 2843.666
473.6444, 2840.519
474.1265, 2834.909
474.6086, 2838.021
475.0907, 2848.240
475.5728, 2855.117
476.0550, 2847.208
476.5371, 2834.486
477.0192, 2835.906
477.5013, 2852.283
477.9834, 2867.445
478.4655, 2866.293
478.9477, 2857.244
479.4298, 2851.346
479.9119, 2853.385
480.3940, 2857.351
480.8761, 2858.089
481.3582, 2857.983
481.8404, 2863.955
482.3225, 2891.385
482.8046, 2914.572
483.2867, 2919.646
483.7688, 2898.736
484.2509, 2883.006
484.7331, 2875.537
485.2152, 2874.249
485.6973, 2878.165
486.1794, 2895.306
486.6615, 2903.348
487.1436, 2895.024
487.6258, 2875.053
488.1079, 2865.956
488.5900, 2869.691
489.0721, 2879.147
489.5542, 2893.859
490.0363, 2914.031
490.5185, 2922.592
491.0006, 2917.161
491.4827, 2906.352
491.9648, 2899.950
492.4470, 2897.615
492.9291, 2897.812
493.4112, 2900.476
493.8933, 2905.007
494.3754, 2911.429
494.8575, 2919.385
495.3397, 2926.234
495.8218, 2931.366
496.3039, 2934.029
496.7860, 2931.573
497.2681, 2921.065
497.7502, 2915.510
498.2324, 2924.575
498.7145, 2941.925
499.1966, 2959.129
499.6787, 2976.580
500.1608, 2990.481
500.6429, 3001.216
501.1251, 3008.412
501.6072, 3006.793
502.0893, 2987.458
502.5714, 2966.796
503.0535, 2951.464
503.5356, 2939.036
504.0178, 2939.089
504.4999, 2958.463
504.9820, 2984.097
505.4641, 2996.160
505.9462, 2992.800
506.4283, 2984.875
506.9105, 2972.644
507.3926, 2958.871
507.8747, 2955.542
508.3568, 2963.039
508.8389, 2974.225
509.3210, 2984.781
509.8032, 2995.033
510.2853, 3007.772
510.7674, 3025.059
511.2495, 3037.460
511.7316, 3030.054
512.2137, 3010.836
512.6959, 2996.204
513.1780, 2993.326
513.6601, 2996.894
514.1422, 3007.564
514.6243, 3023.621
515.1064, 3034.006
515.5886, 3026.972
516.0707, 3018.127
516.5528, 3017.882
517.0349, 3034.363
517.5170, 3045.167
517.9991, 3045.061
518.4813, 3039.292
518.9634, 3033.711
519.4455, 3025.138
519.9276, 3022.620
520.4097, 3030.898
520.8918, 3047.390
521.3740, 3054.712
521.8561, 3050.228
522.3382, 3045.311
522.8203, 3050.279
523.3024, 3064.000
523.7845, 3066.074
524.2667, 3053.548
524.7488, 3036.238
525.2309, 3022.401
525.7130, 3012.956
526.1951, 3011.454
526.6772, 3021.630
527.1594, 3037.892
527.6415, 3057.953
528.1236, 3079.740
528.6057, 3094.502
529.0878, 3088.691
529.5699, 3079.372
530.0521, 3081.651
530.5342, 3101.501
531.0163, 3114.550
531.4984, 3109.752
531.9805, 3095.714
532.4626, 3081.618
532.9448, 3063.069
533.4269, 3051.270
533.9090, 3047.750
534.3911, 3051.915
534.8732, 3062.915
535.3553, 3086.819
535.8375, 3106.233
536.3196, 3109.300
536.8017, 3094.463
537.2838, 3101.456
537.7659, 3136.685
538.2480, 3172.816
538.7302, 3175.569
539.2123, 3150.054
539.6944, 3132.154
540.1765, 3132.136
540.6586, 3138.493
541.1407, 3132.299
541.6229, 3117.793
542.1050, 3110.061
542.5871, 3128.536
543.0692, 3149.998
543.5513, 3149.825
544.0334, 3126.959
544.5156, 3107.514
544.9977, 3102.421
545.4798, 3106.524
545.9619, 3116.385
546.4440, 3138.184
546.9261, 3155.536
547.4083, 3167.313
547.8904, 3172.958
548.3725, 3170.472
548.8546, 3150.749
549.3367, 3138.163
549.8188, 3141.624
550.3010, 3159.167
550.7831, 3166.181
551.2652, 3159.411
551.7473, 3152.961
552.2294, 3159.397
552.7115, 3176.989
553.1937, 3188.881
553.6758, 3194.073
554.1579, 3192.171
554.6400, 3174.989
555.1221, 3149.461
555.6042, 3136.076
556.0864, 3149.025
556.5685, 3170.070
557.0506, 3183.606
557.5327, 3190.780
558.0148, 3195.559
558.4969, 3197.069
558.9791, 3198.914
559.4612, 3205.043
559.9433, 3218.010
560.4254, 3223.848
560.9075, 3208.979
561.3896, 3192.159
561.8718, 3190.475
562.3539, 3220.072
562.8360, 3236.780
563.3181, 3232.301
563.8002, 3215.289
564.2823, 3206.538
564.7645, 3207.607
565.2466, 3210.103
565.7287, 3209.079
566.2108, 3206.636
566.6929, 3216.975
567.1750, 3240.719
567.6572, 3261.241
568.1393, 3260.052
568.6214, 3246.111
569.1035, 3236.844
569.5856, 3234.981
570.0677, 3237.625
570.5499, 3246.424
571.0320, 3257.296
571.5141, 3263.856
571.9962, 3256.628
572.4783, 3251.746
572.9604, 3259.578
573.4426, 3276.836
573.9247, 3286.447
574.4068, 3279.881
574.8889, 3270.233
575.3710, 3261.819
575.8531, 3254.549
576.3353, 3249.374
576.8174, 3246.186
577.2995, 3245.327
577.7816, 3246.813
578.2637, 3250.513
578.7458, 3259.168
579.2280, 3275.253
579.7101, 3292.649
580.1922, 3299.872
580.6743, 3298.168
581.1564, 3294.587
581.6385, 3290.194
582.1207, 3286.936
582.6028, 3288.381
583.0849, 3293.988
583.5670, 3299.604
584.0491, 3302.803
584.5313, 3305.013
585.0134, 3308.678
585.4955, 3317.044
585.9776, 3317.357
586.4597, 3295.021
586.9418, 3267.706
587.4240, 3256.028
587.9061, 3271.465
588.3882, 3285.007
588.8703, 3291.907
589.3524, 3295.383
589.8345, 3307.145
590.3167, 3331.114
590.7988, 3348.014
591.2809, 3344.833
591.7630, 3326.904
592.2451, 3324.776
592.7272, 3339.162
593.2094, 3351.950
593.6915, 3340.866
594.1736, 3318.922
594.6557, 3313.859
595.1378, 3334.341
595.6199, 3354.163
596.1021, 3345.759
596.5842, 3326.391
597.0663, 3320.661
597.5485, 3356.059
598.0306, 3386.100
598.5127, 3392.430
598.9948, 3380.150
599.4769, 3372.339
599.9590, 3376.924
600.4412, 3378.012
600.9233, 3365.911
601.4054, 3338.245
601.8875, 3338.180
602.3696, 3376.203
602.8517, 3416.106
603.3339, 3423.137
603.8160, 3400.135
604.2981, 3381.066
604.7802, 3368.777
605.2623, 3364.956
605.7444, 3378.890
606.2266, 3403.750
606.7087, 3420.389
607.1908, 3416.043
607.6729, 3407.150
608.1550, 3405.045
608.6371, 3408.925
609.1193, 3416.109
609.6014, 3434.688
610.0835, 3448.415
610.5656, 3445.587
611.0477, 3422.138
611.5298, 3409.714
612.0120, 3416.500
612.4941, 3427.441
612.9762, 3431.770
613.4583, 3425.747
613.9404, 3426.697
614.4225, 3436.043
614.9047, 3451.263
615.3868, 3474.335
615.8689, 3503.909
616.3510, 3518.595
616.8331, 3507.585
617.3152, 3484.579
617.7974, 3467.057
618.2795, 3455.042
618.7616, 3447.584
619.2437, 3446.971
619.7258, 3448.674
620.2079, 3450.962
620.6901, 3453.594
621.1722, 3451.594
621.6543, 3433.023
622.1364, 3416.391
622.6185, 3414.876
623.1006, 3437.477
623.5828, 3456.645
624.0649, 3472.493
624.5470, 3484.803
625.0291, 3493.254
625.5112, 3497.756
625.9933, 3498.250
626.4755, 3493.193
626.9576, 3486.194
627.4397, 3485.804
627.9218, 3491.135
628.4039, 3495.412
628.8860, 3493.510
629.3682, 3489.566
629.8503, 3489.102
630.3324, 3491.855
630.8145, 3495.708
631.2966, 3499.615
631.7787, 3504.010
632.2609, 3510.069
632.7430, 3519.396
633.2251, 3524.566
633.7072, 3518.416
634.1893, 3511.000
634.6714, 3510.763
635.1536, 3520.860
635.6357, 3532.157
636.1178, 3546.946
636.5999, 3559.443
637.0820, 3554.956
637.5641, 3532.556
638.0463, 3516.809
638.5284, 3517.597
639.0105, 3528.111
639.4926, 3537.371
639.9747, 3544.975
640.4568, 3548.459
640.9390, 3540.157
641.4211, 3531.137
641.9032, 3532.729
642.3853, 3545.690
642.8674, 3559.740
643.3495, 3576.713
643.8317, 3589.335
644.3138, 3592.090
644.7959, 3577.181
645.2780, 3565.780
645.7601, 3557.943
646.2422, 3553.574
646.7244, 3552.534
647.2065, 3554.823
647.6886, 3561.287
648.1707, 3574.038
648.6528, 3588.180
649.1349, 3592.693
649.6171, 3588.794
650.0992, 3585.314
650.5813, 3589.384
651.0634, 3594.251
651.5455, 3587.375
652.0276, 3571.834
652.5098, 3564.544
652.9919, 3585.272
653.4740, 3608.706
653.9561, 3619.099
654.4382, 3613.386
654.9203, 3603.688
655.4025, 3583.584
655.8846, 3566.383
656.3667, 3561.865
656.8488, 3574.438
657.3309, 3586.862
657.8130, 3598.988
658.2952, 3610.158
658.7773, 3620.086
659.2594, 3628.667
659.7415, 3633.745
660.2236, 3635.031
660.7057, 3632.107
661.1879, 3618.754
661.6700, 3600.078
662.1521, 3590.550
662.6342, 3606.684
663.1163, 3625.999
663.5984, 3633.765
664.0806, 3631.128
664.5627, 3630.436
665.0448, 3639.798
665.5269, 3646.893
666.0090, 3643.405
666.4911, 3625.750
666.9733, 3626.491
667.4554, 3653.246
667.9375, 3683.295
668.4196, 3698.221
668.9017, 3698.393
669.3839, 3694.633
669.8660, 3687.752
670.3481, 3677.955
670.8302, 3660.615
671.3123, 3640.946
671.7944, 3630.910
672.2766, 3639.197
672.7587, 3650.114
673.2408, 3651.937
673.7229, 3649.210
674.2050, 3650.864
674.6871, 3668.542
675.1693, 3680.889
675.6514, 3678.878
676.1335, 3665.862
676.6156, 3659.464
677.0977, 3662.316
677.5798, 3665.822
678.0620, 3666.155
678.5441, 3663.689
679.0262, 3661.642
679.5083, 3659.942
679.9904, 3659.589
680.4725, 3661.117
680.9547, 3664.591
681.4368, 3669.522
681.9189, 3675.514
682.4010, 3685.892
682.8831, 3710.022
683.3652, 3736.132
683.8474, 3752.526
684.3295, 3759.926
684.8116, 3752.068
685.2937, 3707.412
685.7758, 3656.227
686.2579, 3642.049
686.7401, 3683.036
687.2222, 3710.058
687.7043, 3706.057
688.1864, 3685.407
688.6685, 3683.598
689.1506, 3699.540
689.6328, 3715.599
690.1149, 3722.344
690.5970, 3725.756
691.0791, 3737.144
691.5612, 3754.410
692.0433, 3766.596
692.5255, 3768.059
693.0076, 3762.666
693.4897, 3751.253
693.9718, 3733.408
694.4539, 3716.345
694.9360, 3695.602
695.4182, 3680.993
695.9003, 3679.269
696.3824, 3694.500
696.8645, 3704.832
697.3466, 3708.569
697.8287, 3711.847
698.3109, 3722.188
698.7930, 3738.248
699.2751, 3753.818
699.7572, 3768.643
700.2393, 3779.227
700.7214, 3778.263
701.2036, 3771.246
701.6857, 3767.359
702.1678, 3772.461
702.6499, 3778.222
703.1320, 3784.321
703.6141, 3788.733
704.0963, 3785.680
704.5784, 3764.103
705.0605, 3752.287
705.5426, 3760.895
706.0247, 3783.550
706.5068, 3790.589
706.9890, 3780.568
707.4711, 3767.466
707.9532, 3756.265
708.4353, 3747.795
708.9174, 3744.255
709.3995, 3745.604
709.8817, 3751.879
710.3638, 3766.733
710.8459, 3784.147
711.3280, 3800.460
711.8101, 3816.132
712.2922, 3823.675
712.7744, 3811.149
713.2565, 3797.111
713.7386, 3794.726
714.2207, 3811.383
714.7028, 3820.299
715.1849, 3819.662
715.6671, 3814.567
716.1492, 3809.701
716.6313, 3805.189
717.1134, 3802.523
717.5955, 3802.660
718.0776, 3802.520
718.5598, 3795.202
719.0419, 3785.291
719.5240, 3781.866
720.0061, 3793.939
720.4882, 3806.111
720.9703, 3809.947
721.4525, 3808.877
721.9346, 3810.761
722.4167, 3820.526
722.8988, 3828.190
723.3809, 3830.860
723.8630, 3830.158
724.3452, 3831.859
724.8273, 3835.648
725.3094, 3844.361
725.7915, 3866.534
726.2736, 3891.964
726.7557, 3888.944
727.2379, 3860.873
727.7200, 3834.521
728.2021, 3823.164
728.6842, 3823.757
729.1663, 3838.718
729.6484, 3868.688
730.1306, 3891.221
730.6127, 3900.476
731.0948, 3899.585
731.5769, 3888.491
732.0590, 3862.004
732.5411, 3847.336
733.0233, 3846.954
733.5054, 3852.860
733.9875, 3861.302
734.4696, 3870.911
734.9517, 3868.627
735.4338, 3850.936
735.9160, 3833.903
736.3981, 3837.587
736.8802, 3851.295
737.3623, 3858.658
737.8444, 3850.736
738.3266, 3844.871
738.8087, 3846.932
739.2908, 3855.257
739.7729, 3867.889
740.2551, 3889.652
740.7372, 3907.350
741.2193, 3922.415
741.7014, 3930.181
742.1835, 3912.746
742.6656, 3869.772
743.1478, 3845.024
743.6299, 3860.010
744.1120, 3891.147
744.5941, 3902.555
745.0762, 3898.796
745.5583, 3894.403
746.0405, 3897.643
746.5226, 3901.178
747.0047, 3901.000
747.4868, 3897.503
747.9689, 3893.279
748.4510, 3884.209
748.9332, 3880.463
749.4153, 3888.235
749.8974, 3905.759
750.3795, 3909.753
750.8616, 3898.030
751.3438, 3889.591
751.8259, 3901.335
752.3080, 3924.164
752.7901, 3935.696
753.2722, 3935.885
753.7543, 3935.430
754.2365, 3943.007
754.7186, 3951.833
755.2007, 3957.854
755.6828, 3961.573
756.1649, 3956.470
756.6470, 3928.355
757.1292, 3902.630
757.6113, 3895.658
758.0934, 3912.205
758.5755, 3925.892
759.0576, 3935.969
759.5397, 3946.090
760.0219, 3964.653
760.5040, 3986.710
760.9861, 3993.999
761.4682, 3981.507
761.9503, 3965.997
762.4324, 3958.761
762.9146, 3956.785
763.3967, 3956.429
763.8788, 3955.930
764.3609, 3958.500
764.8430, 3967.073
765.3251, 3977.608
765.8073, 3985.084
766.2894, 3987.726
766.7715, 3995.908
767.2536, 4014.778
767.7357, 4032.629
768.2178, 4023.673
768.7000, 3994.854
769.1821, 3976.118
769.6642, 3982.327
770.1463, 3993.360
770.6284, 3992.621
771.1105, 3984.112
771.5927, 3975.569
772.0748, 3958.320
772.5569, 3954.722
773.0390, 3982.793
773.5211, 4025.510
774.0032, 4035.356
774.4854, 4000.917
774.9675, 3977.113
775.4496, 3983.836
775.9317, 4008.637
776.4138, 4019.895
776.8959, 4020.134
777.3781, 4023.576
777.8602, 4049.554
778.3423, 4072.273
778.8244, 4063.215
779.3065, 4030.168
779.7886, 4006.835
780.2708, 4017.133
780.7529, 4023.910
781.2350, 4007.087
781.7171, 3972.035
782.1992, 3976.428
782.6813, 4032.625
783.1635, 4078.809
783.6456, 4075.877
784.1277, 4039.741
784.6098, 4020.014
785.0919, 4016.093
785.5740, 4020.612
786.0562, 4036.926
786.5383, 4053.752
787.0204, 4060.682
787.5025, 4057.198
787.9846, 4053.172
788.4667, 4047.369
788.9489, 4045.222
789.4310, 4051.157
789.9131, 4066.038
790.3952, 4070.293
790.8773, 4061.851
791.3594, 4052.290
791.8416, 4051.825
792.3237, 4056.726
792.8058, 4056.119
793.2879, 4049.575
793.7700, 4044.094
794.2521, 4043.107
794.7343, 4046.189
795.2164, 4054.818
795.6985, 4071.826
796.1806, 4081.846
796.6627, 4080.359
797.1448, 4075.142
797.6270, 4070.890
798.1091, 4067.855
798.5912, 4061.945
799.0733, 4051.613
799.5554, 4046.444
800.0375, 4062.435
800.5197, 4088.406
801.0018, 4102.226
801.4839, 4099.838
801.9660, 4093.593
802.4481, 4088.212
802.9302, 4083.960
803.4124, 4080.369
803.8945, 4073.352
804.3766, 4078.147
804.8587, 4103.915
805.3408, 4129.393
805.8229, 4131.830
806.3051, 4111.418
806.7872, 4099.389
807.2693, 4099.160
807.7514, 4102.530
808.2335, 4099.474
808.7156, 4094.966
809.1978, 4097.874
809.6799, 4113.155
810.1620, 4125.323
810.6441, 4124.972
811.1262, 4120.113
811.6083, 4118.771
812.0905, 4123.815
812.5726, 4125.918
813.0547, 4123.675
813.5368, 4120.806
814.0189, 4122.157
814.5010, 4126.993
814.9832, 4130.629
815.4653, 4131.862
815.9474, 4133.994
816.4295, 4142.695
816.9116, 4153.019
817.3937, 4158.158
817.8759, 4151.293
818.3580, 4149.361
818.8401, 4164.354
819.3222, 4180.101
819.8043, 4178.908
820.2864, 4154.679
820.7686, 4143.505
821.2507, 4151.837
821.7328, 4164.111
822.2149, 4153.210
822.6970, 4130.749
823.1791, 4130.043
823.6613, 4166.794
824.1434, 4198.586
824.6255, 4190.402
825.1076, 4164.825
825.5897, 4147.071
826.0718, 4146.400
826.5540, 4146.801
827.0361, 4147.046
827.5182, 4149.617
828.0003, 4160.966
828.4824, 4180.787
828.9645, 4187.987
829.4467, 4177.330
829.9288, 4162.228
830.4109, 4155.291
830.8930, 4154.881
831.3751, 4158.605
831.8572, 4166.284
832.3394, 4177.048
832.8215, 4197.729
833.3036, 4217.439
833.7857, 4223.768
834.2678, 4210.519
834.7499, 4201.395
835.2321, 4197.521
835.7142, 4198.791
836.1963, 4209.703
836.6784, 4226.262
837.1605, 4231.356
837.6426, 4218.979
838.1248, 4207.343
838.6069, 4216.470
839.0890, 4231.265
839.5711, 4234.398
840.0532, 4212.834
840.5353, 4196.571
841.0175, 4185.837
841.4996, 4182.561
841.9817, 4191.620
842.4638, 4213.764
842.9459, 4230.143
843.4280, 4238.983
843.9102, 4241.941
844.3923, 4235.668
844.8744, 4226.406
845.3565, 4225.010
845.8386, 4235.541
846.3207, 4246.628
846.8029, 4258.316
847.2850, 4265.422
847.7671, 4262.856
848.2492, 4245.321
848.7313, 4232.031
849.2134, 4222.609
849.6956, 4218.672
850.1777, 4225.657
850.6598, 4239.693
851.1419, 4246.361
851.6240, 4243.393
852.1061, 4239.021
852.5883, 4238.969
853.0704, 4240.773
853.5525, 4241.096
854.0346, 4236.134
854.5167, 4241.254
854.9988, 4263.598
855.4810, 4287.639
855.9631, 4302.189
856.4452, 4307.135
856.9273, 4313.371
857.4094, 4321.481
857.8915, 4326.305
858.3737, 4321.339
858.8558, 4311.344
859.3379, 4301.576
859.8200, 4292.646
860.3021, 4285.375
860.7842, 4280.009
861.2664, 4276.729
861.7485, 4275.049
862.2306, 4274.614
862.7127, 4281.419
863.1948, 4298.025
863.6769, 4310.827
864.1591, 4304.818
864.6412, 4289.120
865.1233, 4288.102
865.6054, 4301.189
866.0875, 4310.717
866.5696, 4299.727
867.0518, 4287.224
867.5339, 4288.398
868.0160, 4305.009
868.4981, 4307.085
868.9802, 4285.175
869.4623, 4268.634
869.9445, 4273.849
870.4266, 4295.640
870.9087, 4309.856
871.3908, 4317.367
871.8729, 4325.464
872.3550, 4343.157
872.8372, 4359.807
873.3193, 4364.826
873.8014, 4360.012
874.2835, 4356.427
874.7656, 4363.216
875.2477, 4362.706
875.7299, 4345.391
876.2120, 4318.503
876.6941, 4312.966
877.1762, 4328.722
877.6583, 4342.112
878.1404, 4340.618
878.6226, 4333.581
879.1047, 4330.889
879.5869, 4332.625
880.0690, 4338.914
880.5511, 4356.774
881.0332, 4371.223
881.5153, 4380.254
881.9974, 4382.359
882.4796, 4369.309
882.9617, 4335.406
883.4438, 4320.363
883.9259, 4338.078
884.4080, 4369.720
884.8901, 4391.257
885.3723, 4402.928
885.8544, 4404.634
886.3365, 4390.676
886.8186, 4375.965
887.3007, 4361.746
887.7828, 4353.136
888.2650, 4358.029
888.7471, 4383.160
889.2292, 4403.657
889.7113, 4417.715
890.1934, 4426.226
890.6755, 4430.164
891.1577, 4429.656
891.6398, 4423.697
892.1219, 4410.671
892.6040, 4399.961
893.0861, 4401.543
893.5682, 4406.618
894.0504, 4406.138
894.5325, 4393.627
895.0146, 4389.377
895.4967, 4394.893
895.9788, 4405.848
896.4609, 4424.042
896.9431, 4446.201
897.4252, 4446.851
897.9073, 4424.366
898.3894, 4403.059
898.8715, 4401.055
899.3536, 4408.109
899.8358, 4417.504
900.3179, 4428.898
900.8000, 4435.605
901.2821, 4431.496
901.7642, 4431.040
902.2463, 4444.628
902.7285, 4468.541
903.2106, 4472.866
903.6927, 4458.302
904.1748, 4444.286
904.6569, 4445.290
905.1390, 4450.609
905.6212, 4446.554
906.1033, 4436.419
906.5854, 4435.115
907.0675, 4462.149
907.5496, 4479.723
908.0317, 4476.356
908.5139, 4458.548
908.9960, 4443.034
909.4781, 4429.881
909.9602, 4426.996
910.4423, 4442.551
910.9244, 4460.971
911.4066, 4459.966
911.8887, 4448.759
912.3708, 4444.337
912.8529, 4461.692
913.3350, 4474.464
913.8171, 4476.322
914.2993, 4472.580
914.7814, 4469.425
915.2635, 4466.800
915.7456, 4465.985
916.2277, 4467.632
916.7098, 4469.067
917.1920, 4465.793
917.6741, 4460.844
918.1562, 4458.296
918.6383, 4458.565
919.1204, 4462.905
919.6025, 4471.401
920.0847, 4484.668
920.5668, 4507.780
921.0489, 4546.079
921.5310, 4549.468
922.0131, 4513.741
922.4952, 4478.321
922.9774, 4481.981
923.4595, 4502.926
923.9416, 4508.247
924.4237, 4496.886
924.9058, 4485.790
925.3879, 4476.642
925.8701, 4474.870
926.3522, 4486.195
926.8343, 4507.812
927.3164, 4515.081
927.7985, 4506.477
928.2806, 4497.745
928.7628, 4494.257
929.2449, 4496.629
929.7270, 4508.802
930.2091, 4527.713
930.6912, 4545.417
931.1733, 4565.477
931.6555, 4575.517
932.1376, 4565.027
932.6197, 4545.039
933.1018, 4532.723
933.5839, 4528.339
934.0660, 4530.145
934.5482, 4539.505
935.0303, 4549.692
935.5124, 4554.781
935.9945, 4553.870
936.4766, 4542.473
936.9587, 4510.025
937.4409, 4493.463
937.9230, 4519.938
938.4051, 4555.406
938.8872, 4573.264
939.3693, 4569.838
939.8514, 4572.844
940.3336, 4583.722
940.8157, 4590.624
941.2978, 4573.599
941.7799, 4551.446
942.2620, 4561.053
942.7441, 4601.402
943.2263, 4620.092
943.7084, 4563.240
944.1905, 4516.098
944.6726, 4518.154
945.1547, 4559.902
945.6368, 4581.469
946.1190, 4582.060
946.6011, 4578.328
947.0832, 4575.114
947.5653, 4574.474
948.0474, 4584.885
948.5295, 4599.662
949.0117, 4603.256
949.4938, 4570.545
949.9759, 4551.873
950.4580, 4561.913
950.9401, 4586.171
951.4222, 4606.538
951.9044, 4623.311
952.3865, 4621.450
952.8686, 4594.031
953.3507, 4569.444
953.8328, 4588.164
954.3149, 4622.876
954.7971, 4636.971
955.2792, 4615.875
955.7613, 4602.906
956.2434, 4608.910
956.7255, 4619.549
957.2076, 4626.328
957.6898, 4629.462
958.1719, 4636.096
958.6540, 4646.231
959.1361, 4656.592
959.6182, 4670.137
960.1003, 4678.915
960.5825, 4672.063
961.0646, 4652.364
961.5467, 4637.509
962.0288, 4636.830
962.5109, 4631.052
962.9930, 4611.365
963.4752, 4587.679
963.9573, 4587.132
964.4394, 4606.743
964.9215, 4629.283
965.4036, 4653.256
965.8857, 4669.889
966.3679, 4667.921
966.8500, 4656.232
967.3321, 4646.302
967.8142, 4640.894
968.2963, 4634.401
968.7784, 4623.720
969.2606, 4618.293
969.7427, 4633.645
970.2248, 4662.507
970.7069, 4676.780
971.1890, 4674.459
971.6711, 4671.405
972.1533, 4681.035
972.6354, 4690.872
973.1175, 4690.354
973.5996, 4679.594
974.0817, 4676.588
974.5638, 4683.900
975.0460, 4689.547
975.5281, 4686.277
976.0102, 4680.355
976.4923, 4689.452
976.9744, 4707.500
977.4565, 4716.680
977.9387, 4702.961
978.4208, 4686.374
978.9029, 4667.833
979.3850, 4653.476
979.8671, 4652.953
980.3492, 4668.735
980.8314, 4685.110
981.3135, 4701.297
981.7956, 4713.870
982.2777, 4718.815
982.7598, 4718.080
983.2419, 4713.402
983.7241, 4704.473
984.2062, 4696.624
984.6883, 4689.040
985.1704, 4685.671
985.6525, 4689.767
986.1346, 4700.349
986.6168, 4707.090
987.0989, 4710.057
987.5810, 4711.410
988.0631, 4710.443
988.5452, 4710.065
989.0273, 4715.032
989.5095, 4722.708
989.9916, 4726.102
990.4737, 4717.356
990.9558, 4714.888
991.4379, 4722.564
991.9200, 4734.914
992.4022, 4748.257
992.8843, 4759.608
993.3664, 4751.572
993.8485, 4716.799
994.3306, 4689.536
994.8127, 4701.296
995.2949, 4725.690
995.7770, 4740.654
996.2591, 4744.196
996.7412, 4741.277
997.2233, 4728.014
997.7054, 4722.609
998.1876, 4746.294
998.6697, 4781.483
999.1518, 4786.066
999.6339, 4766.446
1000.116, 4748.526
1000.598, 4743.714
1001.080, 4742.663
1001.562, 4740.523
1002.044, 4740.698
1002.527, 4751.814
1003.009, 4774.842
1003.491, 4796.000
1003.973, 4815.077
1004.455, 4820.625
1004.937, 4779.547
1005.419, 4727.045
1005.901, 4711.669
1006.384, 4752.565
1006.866, 4785.262
1007.348, 4801.820
1007.830, 4809.224
1008.312, 4810.013
1008.794, 4804.852
1009.276, 4795.330
1009.758, 4782.317
1010.240, 4772.675
1010.723, 4773.803
1011.205, 4776.218
1011.687, 4771.105
1012.169, 4763.046
1012.651, 4764.451
1013.133, 4778.296
1013.615, 4795.094
1014.097, 4816.351
1014.580, 4832.400
1015.062, 4820.133
1015.544, 4795.542
1016.026, 4794.154
1016.508, 4828.512
1016.990, 4849.884
1017.472, 4819.312
1017.954, 4788.238
1018.436, 4787.874
1018.919, 4816.537
1019.401, 4838.476
1019.883, 4853.687
1020.365, 4863.745
1020.847, 4868.804
1021.329, 4869.766
1021.811, 4866.115
1022.293, 4859.166
1022.776, 4851.863
1023.258, 4839.741
1023.740, 4836.091
1024.222, 4843.800
1024.704, 4857.810
1025.186, 4878.649
1025.668, 4900.119
1026.150, 4892.713
1026.632, 4849.379
1027.115, 4819.187
1027.597, 4851.120
1028.079, 4890.018
1028.561, 4895.436
1029.043, 4868.873
1029.525, 4851.582
1030.007, 4843.632
1030.489, 4847.801
1030.972, 4877.157
1031.454, 4906.104
1031.936, 4886.511
1032.418, 4840.732
1032.900, 4816.924
1033.382, 4859.859
1033.864, 4882.186
1034.346, 4864.219
1034.828, 4837.722
1035.311, 4845.383
1035.793, 4879.506
1036.275, 4881.529
1036.757, 4846.569
1037.239, 4820.795
1037.721, 4849.179
1038.203, 4887.881
1038.685, 4905.586
1039.167, 4903.321
1039.650, 4907.621
1040.132, 4922.006
1040.614, 4925.990
1041.096, 4907.544
1041.578, 4883.887
1042.060, 4887.791
1042.542, 4905.697
1043.024, 4910.903
1043.507, 4882.291
1043.989, 4867.306
1044.471, 4878.948
1044.953, 4901.069
1045.435, 4926.684
1045.917, 4954.274
1046.399, 4960.633
1046.881, 4946.203
1047.364, 4930.111
1047.846, 4924.839
1048.328, 4922.744
1048.810, 4922.186
1049.292, 4920.543
1049.774, 4906.511
1050.256, 4871.785
1050.738, 4855.437
1051.220, 4868.518
1051.703, 4894.025
1052.185, 4911.594
1052.667, 4922.873
1053.149, 4929.920
1053.631, 4932.492
1054.113, 4933.914
1054.595, 4934.638
1055.077, 4934.827
1055.559, 4933.772
1056.042, 4932.111
1056.524, 4933.152
1057.006, 4937.224
1057.488, 4947.014
1057.970, 4975.789
1058.452, 4998.542
1058.934, 4993.551
1059.416, 4973.564
1059.899, 4963.742
1060.381, 4968.439
1060.863, 4968.639
1061.345, 4961.395
1061.827, 4955.606
1062.309, 4962.318
1062.791, 4975.458
1063.273, 4986.364
1063.755, 4994.345
1064.238, 5001.812
1064.720, 5018.238
1065.202, 5021.325
1065.684, 4997.728
1066.166, 4961.155
1066.648, 4950.843
1067.130, 4963.051
1067.612, 4981.134
1068.094, 5004.542
1068.577, 5021.231
1069.059, 5022.876
1069.541, 5014.834
1070.023, 4999.940
1070.505, 4973.979
1070.987, 4968.966
1071.469, 4986.371
1071.951, 5009.386
1072.434, 5037.509
1072.916, 5056.916
1073.398, 5042.466
1073.880, 5004.330
1074.362, 4978.455
1074.844, 4971.266
1075.326, 4980.966
1075.808, 5016.552
1076.291, 5052.902
1076.773, 5043.104
1077.255, 5006.513
1077.737, 5005.429
1078.219, 5050.830
1078.701, 5085.058
1079.183, 5066.080
1079.665, 5040.756
1080.147, 5034.900
1080.630, 5043.736
1081.112, 5033.380
1081.594, 5004.927
1082.076, 4994.404
1082.558, 5026.690
1083.040, 5060.185
1083.522, 5052.268
1084.004, 5025.364
1084.486, 5009.842
1084.969, 5013.531
1085.451, 5014.525
1085.933, 5011.970
1086.415, 5009.913
1086.897, 5011.241
1087.379, 5015.234
1087.861, 5020.918
1088.343, 5028.178
1088.826, 5036.706
1089.308, 5045.833
1089.790, 5058.080
1090.272, 5079.583
1090.754, 5097.398
1091.236, 5083.516
1091.718, 5046.571
1092.200, 5027.884
1092.682, 5034.647
1093.165, 5045.637
1093.647, 5049.865
1094.129, 5052.004
1094.611, 5054.718
1095.093, 5058.033
1095.575, 5060.894
1096.057, 5063.121
1096.539, 5070.540
1097.022, 5089.517
1097.504, 5105.805
1097.986, 5100.185
1098.468, 5084.526
1098.950, 5075.252
1099.432, 5077.122
1099.914, 5078.861
1100.396, 5079.413
1100.879, 5083.129
1101.361, 5096.771
1101.843, 5114.068
1102.325, 5123.934
1102.807, 5126.880
1103.289, 5125.199
1103.771, 5117.360
1104.253, 5107.346
1104.735, 5092.404
1105.218, 5079.909
1105.700, 5080.385
1106.182, 5092.514
1106.664, 5114.992
1107.146, 5148.198
1107.628, 5169.001
1108.110, 5149.575
1108.592, 5127.791
1109.074, 5129.647
1109.557, 5146.693
1110.039, 5140.134
1110.521, 5109.485
1111.003, 5089.743
1111.485, 5092.096
1111.967, 5105.896
1112.449, 5128.870
1112.931, 5153.249
1113.414, 5171.970
1113.896, 5185.595
1114.378, 5183.134
1114.860, 5160.997
1115.342, 5138.207
1115.824, 5121.991
1116.306, 5114.542
1116.788, 5126.028
1117.271, 5148.194
1117.753, 5162.791
1118.235, 5156.033
1118.717, 5153.037
1119.199, 5155.584
1119.681, 5161.817
1120.163, 5172.525
1120.645, 5185.056
1121.127, 5191.615
1121.609, 5192.111
1122.092, 5189.062
1122.574, 5178.883
1123.056, 5171.280
1123.538, 5169.498
1124.020, 5171.857
1124.502, 5175.581
1124.984, 5180.575
1125.466, 5185.667
1125.949, 5190.305
1126.431, 5197.242
1126.913, 5213.593
1127.395, 5228.500
1127.877, 5235.407
1128.359, 5234.264
1128.841, 5217.865
1129.323, 5184.696
1129.806, 5163.242
1130.288, 5166.321
1130.770, 5179.831
1131.252, 5194.472
1131.734, 5208.635
1132.216, 5220.765
1132.698, 5233.045
1133.180, 5232.332
1133.662, 5214.516
1134.145, 5201.104
1134.627, 5208.554
1135.109, 5226.965
1135.591, 5245.787
1136.073, 5262.592
1136.555, 5270.740
1137.037, 5261.463
1137.519, 5253.447
1138.001, 5248.386
1138.484, 5243.578
1138.966, 5234.101
1139.448, 5223.319
1139.930, 5220.695
1140.412, 5225.918
1140.894, 5231.586
1141.376, 5232.724
1141.858, 5237.115
1142.341, 5250.226
1142.823, 5263.972
1143.305, 5257.951
1143.787, 5238.551
1144.269, 5238.288
1144.751, 5264.801
1145.233, 5285.237
1145.715, 5274.832
1146.198, 5258.899
1146.680, 5249.999
1147.162, 5247.657
1147.644, 5250.185
1148.126, 5257.517
1148.608, 5268.689
1149.090, 5284.687
1149.572, 5301.390
1150.054, 5327.294
1150.536, 5343.815
1151.019, 5326.019
1151.501, 5269.247
1151.983, 5252.644
1152.465, 5277.674
1152.947, 5303.891
1153.429, 5311.748
1153.911, 5308.469
1154.393, 5292.891
1154.876, 5273.310
1155.358, 5265.506
1155.840, 5276.030
1156.322, 5278.472
1156.804, 5270.086
1157.286, 5266.086
1157.768, 5287.137
1158.250, 5313.733
1158.733, 5316.985
1159.215, 5303.509
1159.697, 5302.003
1160.179, 5328.773
1160.661, 5339.347
1161.143, 5324.234
1161.625, 5304.322
1162.107, 5303.854
1162.589, 5314.923
1163.072, 5329.186
1163.554, 5344.686
1164.036, 5344.373
1164.518, 5302.729
1165.000, 5284.070
1165.482, 5315.120
1165.964, 5358.248
1166.446, 5330.757
1166.928, 5265.558
1167.411, 5240.556
1167.893, 5276.339
1168.375, 5306.093
1168.857, 5301.307
1169.339, 5295.207
1169.821, 5301.227
1170.303, 5313.881
1170.785, 5316.940
1171.268, 5312.816
1171.750, 5308.958
1172.232, 5306.020
1172.714, 5308.096
1173.196, 5320.465
1173.678, 5335.191
1174.160, 5348.162
1174.642, 5359.395
1175.125, 5366.691
1175.607, 5370.930
1176.089, 5376.792
1176.571, 5395.143
1177.053, 5404.204
1177.535, 5383.427
1178.017, 5357.043
1178.499, 5346.416
1178.981, 5351.378
1179.464, 5366.589
1179.946, 5391.097
1180.428, 5411.518
1180.910, 5419.607
1181.392, 5421.202
1181.874, 5415.897
1182.356, 5407.809
1182.838, 5404.035
1183.320, 5404.861
1183.803, 5397.019
1184.285, 5378.999
1184.767, 5369.014
1185.249, 5390.282
1185.731, 5415.071
1186.213, 5425.481
1186.695, 5423.708
1187.177, 5413.905
1187.660, 5394.651
1188.142, 5393.236
1188.624, 5416.745
1189.106, 5436.914
1189.588, 5418.937
1190.070, 5395.397
1190.552, 5395.661
1191.034, 5416.907
1191.516, 5430.200
1191.999, 5435.014
1192.481, 5436.405
1192.963, 5434.455
1193.445, 5434.339
1193.927, 5447.894
1194.409, 5461.381
1194.891, 5457.304
1195.373, 5434.253
1195.855, 5424.156
1196.338, 5428.579
1196.820, 5432.071
1197.302, 5429.000
1197.784, 5421.773
1198.266, 5402.637
1198.748, 5386.373
1199.230, 5396.330
1199.712, 5440.653
1200.195, 5469.531
1200.677, 5482.463
1201.159, 5482.679
1201.641, 5463.699
1202.123, 5443.063
1202.605, 5440.942
1203.087, 5451.055
1203.569, 5464.055
1204.052, 5482.401
1204.534, 5492.112
1205.016, 5492.503
1205.498, 5488.780
1205.980, 5483.617
1206.462, 5477.017
1206.944, 5468.726
1207.426, 5459.009
1207.908, 5447.278
1208.391, 5425.236
1208.873, 5427.737
1209.355, 5460.707
1209.837, 5494.280
1210.319, 5502.030
1210.801, 5497.238
1211.283, 5493.060
1211.765, 5489.116
1212.247, 5481.250
1212.730, 5464.779
1213.212, 5459.927
1213.694, 5470.843
1214.176, 5483.752
1214.658, 5481.637
1215.140, 5476.940
1215.622, 5491.332
1216.104, 5518.927
1216.587, 5516.646
1217.069, 5464.859
1217.551, 5448.526
1218.033, 5487.904
1218.515, 5537.479
1218.997, 5546.836
1219.479, 5538.231
1219.961, 5538.452
1220.443, 5547.825
1220.926, 5538.447
1221.408, 5500.017
1221.890, 5483.555
1222.372, 5505.625
1222.854, 5536.889
1223.336, 5545.293
1223.818, 5541.259
1224.300, 5534.947
1224.782, 5527.443
1225.265, 5522.171
1225.747, 5519.680
1226.229, 5515.853
1226.711, 5507.546
1227.193, 5502.606
1227.675, 5516.465
1228.157, 5535.667
1228.639, 5541.636
1229.122, 5530.564
1229.604, 5535.256
1230.086, 5560.031
1230.568, 5569.990
1231.050, 5543.446
1231.532, 5513.787
1232.014, 5521.238
1232.496, 5547.087
1232.979, 5571.771
1233.461, 5595.217
1233.943, 5595.525
1234.425, 5569.634
1234.907, 5552.057
1235.389, 5565.358
1235.871, 5583.672
1236.353, 5574.822
1236.835, 5559.133
1237.318, 5567.361
1237.800, 5605.823
1238.282, 5621.345
1238.764, 5612.725
1239.246, 5603.448
1239.728, 5605.696
1240.210, 5613.623
1240.692, 5629.927
1241.175, 5644.714
1241.657, 5643.487
1242.139, 5623.007
1242.621, 5609.418
1243.103, 5602.648
1243.585, 5590.965
1244.067, 5544.376
1244.549, 5514.574
1245.031, 5558.443
1245.514, 5628.607
1245.996, 5657.853
1246.478, 5642.884
1246.960, 5626.789
1247.442, 5610.638
1247.924, 5600.396
1248.406, 5600.379
1248.888, 5607.032
1249.370, 5625.632
1249.853, 5645.416
1250.335, 5652.647
1250.817, 5647.549
1251.299, 5635.205
1251.781, 5616.562
1252.263, 5601.237
1252.745, 5592.804
1253.227, 5592.033
1253.710, 5603.365
1254.192, 5619.225
1254.674, 5632.845
1255.156, 5643.342
1255.638, 5640.484
1256.120, 5625.248
1256.602, 5615.565
1257.084, 5627.588
1257.567, 5638.532
1258.049, 5637.521
1258.531, 5635.935
1259.013, 5653.563
1259.495, 5684.007
1259.977, 5706.952
1260.459, 5720.130
1260.941, 5719.048
1261.423, 5684.091
1261.906, 5658.728
1262.388, 5654.963
1262.870, 5660.701
1263.352, 5657.170
1263.834, 5650.106
1264.316, 5655.247
1264.798, 5672.688
1265.280, 5685.739
1265.762, 5688.713
1266.245, 5687.593
1266.727, 5682.935
1267.209, 5675.634
1267.691, 5661.593
1268.173, 5648.335
1268.655, 5650.524
1269.137, 5668.434
1269.619, 5684.378
1270.102, 5697.451
1270.584, 5704.306
1271.066, 5702.093
1271.548, 5700.568
1272.030, 5720.872
1272.512, 5742.874
1272.994, 5737.025
1273.476, 5703.704
1273.958, 5687.100
1274.441, 5690.905
1274.923, 5701.157
1275.405, 5717.146
1275.887, 5727.904
1276.369, 5710.394
1276.851, 5691.173
1277.333, 5705.116
1277.815, 5744.000
1278.297, 5744.423
1278.780, 5703.730
1279.262, 5684.177
1279.744, 5703.140
1280.226, 5726.095
1280.708, 5727.107
1281.190, 5719.522
1281.672, 5708.032
1282.154, 5697.082
1282.637, 5706.196
1283.119, 5732.878
1283.601, 5754.013
1284.083, 5765.427
1284.565, 5767.218
1285.047, 5748.689
1285.529, 5732.675
1286.011, 5731.308
1286.494, 5739.372
1286.976, 5743.767
1287.458, 5744.973
1287.940, 5744.021
1288.422, 5740.797
1288.904, 5738.100
1289.386, 5729.849
1289.868, 5734.135
1290.350, 5763.552
1290.833, 5799.488
1291.315, 5802.705
1291.797, 5784.977
1292.279, 5766.837
1292.761, 5750.858
1293.243, 5745.762
1293.725, 5753.811
1294.207, 5768.182
1294.689, 5790.606
1295.172, 5809.140
1295.654, 5799.294
1296.136, 5778.748
1296.618, 5773.088
1297.100, 5787.670
1297.582, 5788.380
1298.064, 5772.573
1298.546, 5758.947
1299.029, 5752.200
1299.511, 5753.291
1299.993, 5772.768
1300.475, 5793.511
1300.957, 5794.507
1301.439, 5779.510
1301.921, 5776.909
1302.403, 5786.127
1302.885, 5789.491
1303.368, 5780.519
1303.850, 5771.896
1304.332, 5766.431
1304.814, 5771.831
1305.296, 5797.802
##END=



