##NAMES=Chesnokovite
##RRUFFID=R070234
##IDEAL CHEMISTRY=Na_2_SiO_2_(OH)_2_&#183;8H_2_O
##LOCALITY=Kedykverpakhk Mt, Lovozero Massif, Kola Peninsula, Murmanskaya Oblast'; Northern Region, Russia
##OWNER=RRUFF
##SOURCE=Michael Scott
##DESCRIPTION=Light purple massive fragment in a sealed glass vial
##STATUS=The identification of this mineral is not yet confirmed.
##URL=rruff.info/R070234
146.7691, 1568.498
147.2512, 1559.119
147.7334, 1556.759
148.2155, 1559.574
148.6976, 1577.983
149.1797, 1619.505
149.6618, 1674.625
150.1439, 1730.276
150.6261, 1784.173
151.1082, 1840.013
151.5903, 1897.221
152.0724, 1951.735
152.5545, 2016.487
153.0366, 2095.531
153.5188, 2185.065
154.0009, 2277.216
154.4830, 2385.507
154.9651, 2486.264
155.4472, 2571.213
155.9294, 2645.876
156.4115, 2694.544
156.8936, 2711.541
157.3757, 2699.539
157.8578, 2668.690
158.3399, 2616.505
158.8221, 2549.529
159.3042, 2471.473
159.7863, 2368.175
160.2684, 2268.695
160.7505, 2177.420
161.2326, 2094.861
161.7148, 2031.802
162.1969, 2002.192
162.6790, 1990.418
163.1611, 1981.675
163.6432, 1972.365
164.1253, 1963.626
164.6075, 1954.610
165.0896, 1945.236
165.5717, 1940.569
166.0538, 1942.442
166.5359, 1951.030
167.0180, 1966.450
167.5002, 1991.180
167.9823, 2021.315
168.4644, 2055.260
168.9465, 2093.507
169.4286, 2131.316
169.9107, 2167.152
170.3929, 2199.919
170.8750, 2228.240
171.3571, 2257.478
171.8392, 2278.946
172.3213, 2283.368
172.8034, 2269.298
173.2856, 2238.967
173.7677, 2186.167
174.2498, 2116.002
174.7319, 2047.046
175.2140, 1992.163
175.6961, 1945.112
176.1783, 1894.617
176.6604, 1834.328
177.1425, 1778.856
177.6246, 1750.505
178.1067, 1746.407
178.5888, 1746.114
179.0710, 1733.138
179.5531, 1713.207
180.0352, 1699.754
180.5173, 1698.778
180.9994, 1703.034
181.4815, 1699.472
181.9637, 1688.339
182.4458, 1678.393
182.9279, 1675.811
183.4100, 1680.280
183.8921, 1691.228
184.3742, 1713.577
184.8564, 1740.093
185.3385, 1749.876
185.8206, 1741.704
186.3027, 1732.650
186.7848, 1743.099
187.2669, 1770.378
187.7491, 1794.209
188.2312, 1804.179
188.7133, 1805.013
189.1954, 1815.232
189.6775, 1835.939
190.1596, 1860.894
190.6418, 1884.743
191.1239, 1907.298
191.6060, 1925.818
192.0881, 1937.858
192.5702, 1944.131
193.0524, 1950.562
193.5345, 1956.927
194.0166, 1963.972
194.4987, 1973.522
194.9808, 1985.820
195.4629, 1997.021
195.9451, 2004.412
196.4272, 2008.188
196.9093, 2014.372
197.3914, 2024.746
197.8735, 2035.026
198.3556, 2037.202
198.8378, 2030.854
199.3199, 2019.251
199.8020, 2000.953
200.2841, 1975.137
200.7662, 1958.519
201.2483, 1955.201
201.7305, 1958.734
202.2126, 1952.943
202.6947, 1936.262
203.1768, 1916.096
203.6589, 1894.442
204.1410, 1870.093
204.6232, 1855.365
205.1053, 1855.094
205.5874, 1863.518
206.0695, 1859.345
206.5516, 1837.547
207.0337, 1816.354
207.5159, 1810.967
207.9980, 1826.531
208.4801, 1833.307
208.9622, 1824.942
209.4443, 1805.074
209.9264, 1791.747
210.4086, 1786.678
210.8907, 1784.692
211.3728, 1781.938
211.8549, 1777.917
212.3370, 1774.493
212.8191, 1770.772
213.3013, 1767.453
213.7834, 1772.249
214.2655, 1791.164
214.7476, 1808.560
215.2297, 1807.759
215.7118, 1778.549
216.1940, 1760.026
216.6761, 1762.562
217.1582, 1784.896
217.6403, 1798.488
218.1224, 1800.006
218.6045, 1797.045
219.0867, 1796.838
219.5688, 1800.761
220.0509, 1804.226
220.5330, 1806.363
221.0151, 1807.197
221.4972, 1806.876
221.9794, 1804.998
222.4615, 1802.414
222.9436, 1800.264
223.4257, 1799.684
223.9078, 1796.956
224.3899, 1789.895
224.8721, 1777.639
225.3542, 1770.895
225.8363, 1769.284
226.3184, 1773.459
226.8005, 1785.640
227.2827, 1811.787
227.7648, 1834.363
228.2469, 1848.253
228.7290, 1852.201
229.2111, 1856.517
229.6932, 1859.562
230.1754, 1864.243
230.6575, 1875.376
231.1396, 1897.893
231.6217, 1917.922
232.1038, 1930.575
232.5859, 1933.702
233.0681, 1941.056
233.5502, 1953.587
234.0323, 1969.594
234.5144, 1987.837
234.9965, 2012.679
235.4786, 2032.140
235.9608, 2042.553
236.4429, 2042.989
236.9250, 2038.108
237.4071, 2026.349
237.8892, 2010.249
238.3713, 1993.044
238.8535, 1971.595
239.3356, 1954.358
239.8177, 1945.077
240.2998, 1946.530
240.7819, 1944.803
241.2640, 1936.841
241.7462, 1927.446
242.2283, 1925.009
242.7104, 1932.022
243.1925, 1942.006
243.6746, 1954.421
244.1567, 1972.642
244.6389, 1980.513
245.1210, 1970.445
245.6031, 1954.530
246.0852, 1955.067
246.5673, 1979.856
247.0494, 2007.821
247.5316, 2031.281
248.0137, 2047.715
248.4958, 2067.873
248.9779, 2090.024
249.4600, 2116.820
249.9421, 2155.220
250.4243, 2217.202
250.9064, 2269.692
251.3885, 2296.516
251.8706, 2284.595
252.3527, 2291.775
252.8348, 2324.007
253.3170, 2371.497
253.7991, 2415.711
254.2812, 2453.469
254.7633, 2493.168
255.2454, 2539.024
255.7275, 2593.313
256.2097, 2643.645
256.6918, 2688.309
257.1739, 2729.626
257.6560, 2771.836
258.1381, 2813.948
258.6202, 2859.247
259.1024, 2910.200
259.5845, 2967.862
260.0666, 3026.450
260.5487, 3092.490
261.0308, 3154.325
261.5129, 3190.678
261.9951, 3192.860
262.4772, 3189.621
262.9593, 3194.581
263.4414, 3213.394
263.9235, 3212.594
264.4056, 3187.608
264.8878, 3147.144
265.3699, 3108.097
265.8520, 3075.591
266.3341, 3028.728
266.8162, 2952.468
267.2983, 2839.986
267.7805, 2746.476
268.2626, 2675.606
268.7447, 2620.616
269.2268, 2571.712
269.7089, 2530.295
270.1910, 2490.155
270.6732, 2449.367
271.1553, 2408.422
271.6374, 2362.197
272.1195, 2307.635
272.6016, 2252.174
273.0837, 2209.203
273.5659, 2179.269
274.0480, 2157.758
274.5301, 2143.869
275.0122, 2137.861
275.4943, 2135.600
275.9764, 2138.715
276.4586, 2142.518
276.9407, 2138.016
277.4228, 2123.887
277.9049, 2113.460
278.3870, 2114.974
278.8691, 2127.565
279.3513, 2129.048
279.8334, 2115.943
280.3155, 2100.678
280.7976, 2102.657
281.2798, 2122.702
281.7619, 2140.223
282.2440, 2144.863
282.7261, 2139.041
283.2082, 2142.433
283.6903, 2156.714
284.1725, 2174.046
284.6546, 2184.133
285.1367, 2187.193
285.6188, 2191.250
286.1009, 2199.542
286.5830, 2211.157
287.0652, 2220.982
287.5473, 2228.143
288.0294, 2238.179
288.5115, 2261.016
288.9936, 2294.764
289.4757, 2322.600
289.9579, 2334.902
290.4400, 2338.374
290.9221, 2353.668
291.4042, 2381.615
291.8863, 2411.036
292.3684, 2430.183
292.8506, 2440.906
293.3327, 2451.597
293.8148, 2465.552
294.2969, 2480.804
294.7790, 2491.781
295.2611, 2498.531
295.7433, 2508.840
296.2254, 2535.605
296.7075, 2572.299
297.1896, 2599.442
297.6717, 2609.364
298.1538, 2609.410
298.6360, 2608.124
299.1181, 2605.733
299.6002, 2605.049
300.0823, 2609.340
300.5644, 2616.740
301.0465, 2624.226
301.5287, 2633.027
302.0108, 2639.055
302.4929, 2639.279
302.9750, 2633.296
303.4571, 2618.823
303.9392, 2590.622
304.4214, 2554.094
304.9035, 2515.206
305.3856, 2474.478
305.8677, 2434.614
306.3498, 2398.396
306.8319, 2365.671
307.3141, 2335.120
307.7962, 2304.568
308.2783, 2276.945
308.7604, 2255.588
309.2425, 2244.067
309.7246, 2233.538
310.2068, 2214.480
310.6889, 2191.479
311.1710, 2176.161
311.6531, 2182.416
312.1352, 2193.429
312.6173, 2196.482
313.0995, 2187.566
313.5816, 2176.362
314.0637, 2160.789
314.5458, 2146.424
315.0279, 2143.548
315.5100, 2170.377
315.9922, 2198.978
316.4743, 2214.788
316.9564, 2214.812
317.4385, 2207.461
317.9206, 2186.443
318.4027, 2161.757
318.8849, 2147.380
319.3670, 2151.716
319.8491, 2162.902
320.3312, 2176.844
320.8133, 2193.072
321.2954, 2213.418
321.7776, 2245.283
322.2597, 2278.882
322.7418, 2303.781
323.2239, 2308.469
323.7060, 2314.319
324.1881, 2325.541
324.6703, 2342.358
325.1524, 2363.791
325.6345, 2397.886
326.1166, 2432.045
326.5987, 2456.325
327.0808, 2457.027
327.5630, 2463.933
328.0451, 2483.036
328.5272, 2513.639
329.0093, 2541.128
329.4914, 2568.526
329.9735, 2589.508
330.4557, 2598.798
330.9378, 2586.713
331.4199, 2580.512
331.9020, 2588.724
332.3841, 2605.513
332.8662, 2601.464
333.3484, 2569.761
333.8305, 2527.609
334.3126, 2480.973
334.7947, 2424.414
335.2768, 2382.317
335.7589, 2359.604
336.2411, 2350.051
336.7232, 2336.370
337.2053, 2315.466
337.6874, 2299.798
338.1695, 2298.285
338.6516, 2313.542
339.1338, 2319.344
339.6159, 2312.913
340.0980, 2300.567
340.5801, 2291.989
341.0622, 2287.090
341.5443, 2286.074
342.0265, 2288.843
342.5086, 2295.421
342.9907, 2308.521
343.4728, 2329.865
343.9549, 2350.540
344.4370, 2354.597
344.9192, 2344.351
345.4013, 2343.076
345.8834, 2367.138
346.3655, 2403.754
346.8476, 2412.281
347.3297, 2391.666
347.8119, 2372.639
348.2940, 2388.452
348.7761, 2429.776
349.2582, 2468.491
349.7404, 2497.926
350.2225, 2520.698
350.7046, 2539.944
351.1867, 2555.891
351.6688, 2568.934
352.1509, 2573.726
352.6331, 2577.279
353.1152, 2590.402
353.5973, 2616.953
354.0794, 2650.885
354.5615, 2695.730
355.0436, 2745.436
355.5258, 2781.590
356.0079, 2777.600
356.4900, 2764.763
356.9721, 2771.810
357.4542, 2807.682
357.9363, 2848.060
358.4185, 2887.668
358.9006, 2921.684
359.3827, 2941.765
359.8648, 2928.805
360.3469, 2913.635
360.8290, 2914.235
361.3112, 2934.633
361.7933, 2952.513
362.2754, 2962.569
362.7575, 2965.920
363.2396, 2963.771
363.7217, 2951.153
364.2039, 2938.310
364.6860, 2927.662
365.1681, 2919.263
365.6502, 2911.830
366.1323, 2905.025
366.6144, 2899.182
367.0966, 2894.581
367.5787, 2898.626
368.0608, 2894.840
368.5429, 2879.984
369.0250, 2855.688
369.5071, 2830.547
369.9893, 2803.189
370.4714, 2776.692
370.9535, 2752.553
371.4356, 2731.706
371.9177, 2712.403
372.3998, 2698.452
372.8820, 2683.978
373.3641, 2653.919
373.8462, 2601.575
374.3283, 2551.241
374.8104, 2513.015
375.2925, 2487.300
375.7747, 2464.894
376.2568, 2444.736
376.7389, 2429.588
377.2210, 2426.488
377.7031, 2436.569
378.1852, 2442.134
378.6674, 2435.893
379.1495, 2420.918
379.6316, 2408.623
380.1137, 2398.819
380.5958, 2394.334
381.0779, 2402.258
381.5601, 2419.533
382.0422, 2429.985
382.5243, 2428.170
383.0064, 2420.466
383.4885, 2415.192
383.9706, 2412.618
384.4528, 2415.069
384.9349, 2424.013
385.4170, 2439.052
385.8991, 2462.413
386.3812, 2498.385
386.8633, 2530.437
387.3455, 2537.616
387.8276, 2528.839
388.3097, 2524.620
388.7918, 2539.238
389.2739, 2560.074
389.7560, 2576.522
390.2382, 2587.255
390.7203, 2599.830
391.2024, 2625.535
391.6845, 2652.827
392.1666, 2668.666
392.6487, 2655.561
393.1309, 2642.318
393.6130, 2642.287
394.0951, 2654.299
394.5772, 2662.776
395.0593, 2662.995
395.5414, 2658.927
396.0236, 2653.026
396.5057, 2645.427
396.9878, 2636.210
397.4699, 2625.990
397.9520, 2614.248
398.4341, 2599.405
398.9163, 2576.906
399.3984, 2556.058
399.8805, 2540.755
400.3626, 2533.688
400.8447, 2523.816
401.3268, 2508.183
401.8090, 2491.945
402.2911, 2482.053
402.7732, 2479.391
403.2553, 2481.177
403.7374, 2487.882
404.2195, 2499.157
404.7017, 2509.112
405.1838, 2518.259
405.6659, 2524.736
406.1480, 2523.947
406.6301, 2515.656
407.1122, 2515.522
407.5944, 2528.082
408.0765, 2548.687
408.5586, 2568.449
409.0407, 2587.393
409.5228, 2601.118
410.0049, 2600.715
410.4871, 2592.593
410.9692, 2597.983
411.4513, 2622.426
411.9334, 2646.704
412.4155, 2640.681
412.8976, 2615.449
413.3798, 2603.074
413.8619, 2630.770
414.3440, 2671.118
414.8261, 2694.145
415.3082, 2699.319
415.7903, 2705.086
416.2725, 2720.037
416.7546, 2743.637
417.2367, 2776.073
417.7188, 2825.503
418.2009, 2874.057
418.6830, 2912.898
419.1652, 2943.901
419.6473, 2972.408
420.1294, 2995.909
420.6115, 3020.847
421.0937, 3052.502
421.5758, 3097.674
422.0579, 3134.962
422.5400, 3164.269
423.0221, 3183.627
423.5042, 3190.097
423.9864, 3171.737
424.4685, 3153.972
424.9506, 3144.608
425.4327, 3145.275
425.9148, 3134.406
426.3969, 3107.778
426.8791, 3074.463
427.3612, 3042.317
427.8433, 3012.199
428.3254, 2980.348
428.8075, 2944.522
429.2896, 2907.385
429.7718, 2879.421
430.2539, 2861.692
430.7360, 2847.008
431.2181, 2831.663
431.7002, 2815.768
432.1823, 2800.002
432.6645, 2783.468
433.1466, 2770.144
433.6287, 2766.948
434.1108, 2772.458
434.5929, 2779.979
435.0750, 2790.999
435.5572, 2800.423
436.0393, 2795.813
436.5214, 2777.868
437.0035, 2761.390
437.4856, 2761.214
437.9677, 2768.862
438.4499, 2772.465
438.9320, 2767.601
439.4141, 2760.396
439.8962, 2753.676
440.3783, 2747.892
440.8604, 2744.005
441.3426, 2743.867
441.8247, 2744.730
442.3068, 2745.059
442.7889, 2744.536
443.2710, 2744.199
443.7531, 2741.460
444.2353, 2740.167
444.7174, 2744.533
445.1995, 2758.343
445.6816, 2774.356
446.1637, 2795.216
446.6458, 2819.495
447.1280, 2832.538
447.6101, 2823.918
448.0922, 2815.569
448.5743, 2820.049
449.0564, 2842.500
449.5385, 2864.730
450.0207, 2887.193
450.5028, 2908.313
450.9849, 2923.039
451.4670, 2929.082
451.9491, 2939.631
452.4312, 2959.952
452.9134, 2989.315
453.3955, 3024.578
453.8776, 3066.578
454.3597, 3107.619
454.8418, 3137.214
455.3239, 3158.464
455.8061, 3181.966
456.2882, 3207.857
456.7703, 3241.140
457.2524, 3294.660
457.7345, 3363.664
458.2166, 3430.133
458.6988, 3479.799
459.1809, 3522.518
459.6630, 3565.123
460.1451, 3607.436
460.6272, 3659.789
461.1093, 3732.208
461.5915, 3817.142
462.0736, 3903.872
462.5557, 3993.795
463.0378, 4080.185
463.5199, 4151.748
464.0020, 4212.173
464.4842, 4291.702
464.9663, 4415.458
465.4484, 4545.275
465.9305, 4661.682
466.4126, 4760.217
466.8947, 4853.667
467.3769, 4933.812
467.8590, 5012.058
468.3411, 5111.181
468.8232, 5246.748
469.3053, 5371.225
469.7874, 5471.125
470.2696, 5547.677
470.7517, 5625.737
471.2338, 5708.748
471.7159, 5782.163
472.1980, 5827.758
472.6801, 5846.385
473.1623, 5872.131
473.6444, 5916.395
474.1265, 5957.398
474.6086, 5956.079
475.0907, 5916.026
475.5728, 5860.477
476.0550, 5797.787
476.5371, 5728.484
477.0192, 5650.744
477.5013, 5563.990
477.9834, 5481.988
478.4655, 5416.194
478.9477, 5361.030
479.4298, 5309.427
479.9119, 5250.725
480.3940, 5204.946
480.8761, 5185.548
481.3582, 5187.882
481.8404, 5199.103
482.3225, 5218.098
482.8046, 5242.526
483.2867, 5270.686
483.7688, 5300.751
484.2509, 5340.401
484.7331, 5394.564
485.2152, 5456.316
485.6973, 5522.681
486.1794, 5610.895
486.6615, 5675.356
487.1436, 5715.536
487.6258, 5727.821
488.1079, 5693.225
488.5900, 5607.390
489.0721, 5486.563
489.5542, 5331.246
490.0363, 5140.515
490.5185, 4955.097
491.0006, 4778.264
491.4827, 4604.452
491.9648, 4425.364
492.4470, 4243.338
492.9291, 4073.591
493.4112, 3920.963
493.8933, 3787.508
494.3754, 3686.834
494.8575, 3614.711
495.3397, 3550.569
495.8218, 3479.942
496.3039, 3409.396
496.7860, 3346.345
497.2681, 3290.773
497.7502, 3243.069
498.2324, 3196.848
498.7145, 3160.047
499.1966, 3142.597
499.6787, 3190.470
500.1608, 3215.092
500.6429, 3173.728
501.1251, 3071.366
501.6072, 2995.018
502.0893, 2960.134
502.5714, 2943.154
503.0535, 2934.747
503.5356, 2940.011
504.0178, 2941.526
504.4999, 2937.740
504.9820, 2931.595
505.4641, 2928.649
505.9462, 2930.508
506.4283, 2927.049
506.9105, 2913.757
507.3926, 2893.312
507.8747, 2875.575
508.3568, 2860.484
508.8389, 2848.394
509.3210, 2837.443
509.8032, 2829.494
510.2853, 2832.175
510.7674, 2849.121
511.2495, 2865.153
511.7316, 2860.627
512.2137, 2843.867
512.6959, 2831.886
513.1780, 2836.682
513.6601, 2844.446
514.1422, 2844.944
514.6243, 2839.479
515.1064, 2837.569
515.5886, 2847.285
516.0707, 2858.685
516.5528, 2865.090
517.0349, 2861.397
517.5170, 2861.769
517.9991, 2876.341
518.4813, 2892.256
518.9634, 2892.004
519.4455, 2863.201
519.9276, 2839.475
520.4097, 2828.025
520.8918, 2827.508
521.3740, 2828.827
521.8561, 2832.907
522.3382, 2835.759
522.8203, 2832.055
523.3024, 2822.655
523.7845, 2824.966
524.2667, 2843.127
524.7488, 2860.853
525.2309, 2853.844
525.7130, 2828.847
526.1951, 2809.546
526.6772, 2805.921
527.1594, 2810.084
527.6415, 2813.244
528.1236, 2816.161
528.6057, 2822.316
529.0878, 2845.696
529.5699, 2865.122
530.0521, 2860.780
530.5342, 2824.045
531.0163, 2791.450
531.4984, 2774.591
531.9805, 2767.527
532.4626, 2763.808
532.9448, 2759.412
533.4269, 2762.704
533.9090, 2782.282
534.3911, 2811.066
534.8732, 2818.866
535.3553, 2794.002
535.8375, 2770.049
536.3196, 2762.073
536.8017, 2770.658
537.2838, 2781.253
537.7659, 2794.849
538.2480, 2807.515
538.7302, 2815.219
539.2123, 2818.294
539.6944, 2817.864
540.1765, 2812.462
540.6586, 2806.817
541.1407, 2809.426
541.6229, 2817.945
542.1050, 2823.988
542.5871, 2820.870
543.0692, 2814.694
543.5513, 2808.761
544.0334, 2803.407
544.5156, 2804.469
544.9977, 2820.408
545.4798, 2840.605
545.9619, 2856.364
546.4440, 2861.129
546.9261, 2868.748
547.4083, 2882.021
547.8904, 2899.236
548.3725, 2917.509
548.8546, 2940.561
549.3367, 2958.557
549.8188, 2967.317
550.3010, 2967.915
550.7831, 2972.759
551.2652, 2982.141
551.7473, 2994.851
552.2294, 3009.431
552.7115, 3026.173
553.1937, 3048.945
553.6758, 3079.302
554.1579, 3110.505
554.6400, 3133.335
555.1221, 3150.231
555.6042, 3167.739
556.0864, 3188.731
556.5685, 3211.114
557.0506, 3230.217
557.5327, 3248.152
558.0148, 3272.589
558.4969, 3316.937
558.9791, 3361.783
559.4612, 3394.616
559.9433, 3412.354
560.4254, 3426.938
560.9075, 3435.115
561.3896, 3444.074
561.8718, 3460.793
562.3539, 3495.574
562.8360, 3520.416
563.3181, 3530.898
563.8002, 3531.133
564.2823, 3531.068
564.7645, 3531.366
565.2466, 3528.560
565.7287, 3522.921
566.2108, 3513.221
566.6929, 3490.728
567.1750, 3455.155
567.6572, 3417.337
568.1393, 3387.007
568.6214, 3361.368
569.1035, 3336.361
569.5856, 3311.520
570.0677, 3285.547
570.5499, 3254.301
571.0320, 3221.538
571.5141, 3192.984
571.9962, 3176.433
572.4783, 3158.813
572.9604, 3133.306
573.4426, 3101.768
573.9247, 3073.348
574.4068, 3051.890
574.8889, 3031.921
575.3710, 3010.936
575.8531, 2988.108
576.3353, 2969.479
576.8174, 2954.182
577.2995, 2944.641
577.7816, 2946.296
578.2637, 2960.904
578.7458, 2966.671
579.2280, 2958.174
579.7101, 2943.676
580.1922, 2937.711
580.6743, 2939.124
581.1564, 2941.391
581.6385, 2943.393
582.1207, 2943.527
582.6028, 2939.525
583.0849, 2931.582
583.5670, 2920.987
584.0491, 2901.342
584.5313, 2883.935
585.0134, 2878.979
585.4955, 2892.045
585.9776, 2904.247
586.4597, 2908.368
586.9418, 2910.196
587.4240, 2916.734
587.9061, 2938.799
588.3882, 2948.751
588.8703, 2939.092
589.3524, 2916.668
589.8345, 2901.112
590.3167, 2893.070
590.7988, 2889.423
591.2809, 2889.146
591.7630, 2892.202
592.2451, 2901.678
592.7272, 2918.047
593.2094, 2929.281
593.6915, 2920.574
594.1736, 2900.586
594.6557, 2885.115
595.1378, 2876.869
595.6199, 2873.813
596.1021, 2876.228
596.5842, 2882.493
597.0663, 2890.334
597.5485, 2901.039
598.0306, 2910.925
598.5127, 2920.098
598.9948, 2927.802
599.4769, 2930.924
599.9590, 2926.843
600.4412, 2921.276
600.9233, 2915.526
601.4054, 2909.426
601.8875, 2905.461
602.3696, 2904.065
602.8517, 2903.823
603.3339, 2903.128
603.8160, 2902.164
604.2981, 2903.709
604.7802, 2908.185
605.2623, 2914.786
605.7444, 2925.642
606.2266, 2938.020
606.7087, 2943.888
607.1908, 2934.565
607.6729, 2923.780
608.1550, 2923.308
608.6371, 2930.555
609.1193, 2937.078
609.6014, 2940.981
610.0835, 2942.047
610.5656, 2938.435
611.0477, 2928.861
611.5298, 2924.387
612.0120, 2926.846
612.4941, 2932.964
612.9762, 2942.091
613.4583, 2957.419
613.9404, 2963.577
614.4225, 2958.167
614.9047, 2946.464
615.3868, 2933.355
615.8689, 2919.243
616.3510, 2911.550
616.8331, 2915.269
617.3152, 2922.785
617.7974, 2920.428
618.2795, 2911.045
618.7616, 2905.555
619.2437, 2914.415
619.7258, 2926.145
620.2079, 2929.631
620.6901, 2924.486
621.1722, 2926.907
621.6543, 2960.012
622.1364, 2990.285
622.6185, 2992.844
623.1006, 2944.940
623.5828, 2918.026
624.0649, 2920.504
624.5470, 2936.269
625.0291, 2947.173
625.5112, 2952.782
625.9933, 2954.990
626.4755, 2952.011
626.9576, 2948.642
627.4397, 2957.900
627.9218, 2977.887
628.4039, 2994.127
628.8860, 2994.218
629.3682, 2989.242
629.8503, 2998.168
630.3324, 3018.497
630.8145, 3030.815
631.2966, 3014.229
631.7787, 2992.141
632.2609, 2981.167
632.7430, 2985.514
633.2251, 2992.840
633.7072, 3007.658
634.1893, 3020.196
634.6714, 3021.219
635.1536, 3001.168
635.6357, 2991.088
636.1178, 2995.493
636.5999, 3008.531
637.0820, 3022.792
637.5641, 3038.605
638.0463, 3044.182
638.5284, 3030.144
639.0105, 3008.446
639.4926, 3003.524
639.9747, 3013.301
640.4568, 3025.678
640.9390, 3033.870
641.4211, 3041.024
641.9032, 3050.384
642.3853, 3062.133
642.8674, 3073.473
643.3495, 3084.146
643.8317, 3093.411
644.3138, 3100.539
644.7959, 3102.296
645.2780, 3108.362
645.7601, 3122.726
646.2422, 3137.876
646.7244, 3144.793
647.2065, 3142.243
647.6886, 3136.700
648.1707, 3127.285
648.6528, 3118.309
649.1349, 3118.370
649.6171, 3126.946
650.0992, 3140.161
650.5813, 3163.384
651.0634, 3185.801
651.5455, 3190.423
652.0276, 3180.532
652.5098, 3173.520
652.9919, 3181.632
653.4740, 3193.212
653.9561, 3199.572
654.4382, 3197.818
654.9203, 3203.699
655.4025, 3226.783
655.8846, 3251.858
656.3667, 3268.912
656.8488, 3276.569
657.3309, 3278.702
657.8130, 3271.813
658.2952, 3266.075
658.7773, 3283.727
659.2594, 3321.577
659.7415, 3336.821
660.2236, 3308.992
660.7057, 3269.008
661.1879, 3262.069
661.6700, 3279.538
662.1521, 3297.554
662.6342, 3302.216
663.1163, 3305.742
663.5984, 3318.996
664.0806, 3340.055
664.5627, 3352.219
665.0448, 3343.793
665.5269, 3332.190
666.0090, 3322.912
666.4911, 3314.941
666.9733, 3318.869
667.4554, 3339.575
667.9375, 3362.510
668.4196, 3375.226
668.9017, 3378.083
669.3839, 3381.281
669.8660, 3385.682
670.3481, 3390.659
670.8302, 3398.974
671.3123, 3407.014
671.7944, 3406.769
672.2766, 3394.089
672.7587, 3375.182
673.2408, 3350.820
673.7229, 3323.495
674.2050, 3297.612
674.6871, 3271.884
675.1693, 3250.543
675.6514, 3236.016
676.1335, 3226.982
676.6156, 3216.294
677.0977, 3200.413
677.5798, 3191.370
678.0620, 3200.099
678.5441, 3223.058
679.0262, 3219.097
679.5083, 3186.302
679.9904, 3157.435
680.4725, 3165.378
680.9547, 3193.050
681.4368, 3210.951
681.9189, 3215.077
682.4010, 3214.025
682.8831, 3214.551
683.3652, 3212.249
683.8474, 3201.965
684.3295, 3172.383
684.8116, 3150.954
685.2937, 3146.224
685.7758, 3149.698
686.2579, 3150.851
686.7401, 3148.446
687.2222, 3146.944
687.7043, 3146.702
688.1864, 3148.245
688.6685, 3154.262
689.1506, 3164.380
689.6328, 3172.564
690.1149, 3174.943
690.5970, 3174.654
691.0791, 3175.879
691.5612, 3178.550
692.0433, 3182.227
692.5255, 3188.213
693.0076, 3193.972
693.4897, 3197.836
693.9718, 3199.563
694.4539, 3200.822
694.9360, 3202.015
695.4182, 3202.646
695.9003, 3202.562
696.3824, 3201.963
696.8645, 3199.046
697.3466, 3192.503
697.8287, 3187.074
698.3109, 3189.000
698.7930, 3196.956
699.2751, 3204.067
699.7572, 3209.144
700.2393, 3212.935
700.7214, 3217.716
701.2036, 3221.408
701.6857, 3220.370
702.1678, 3204.377
702.6499, 3193.860
703.1320, 3200.319
703.6141, 3217.794
704.0963, 3231.218
704.5784, 3236.081
705.0605, 3242.853
705.5426, 3256.312
706.0247, 3273.223
706.5068, 3277.775
706.9890, 3268.865
707.4711, 3257.161
707.9532, 3246.920
708.4353, 3238.223
708.9174, 3229.482
709.3995, 3221.331
709.8817, 3220.674
710.3638, 3239.877
710.8459, 3263.760
711.3280, 3277.552
711.8101, 3278.476
712.2922, 3281.755
712.7744, 3293.211
713.2565, 3307.441
713.7386, 3321.325
714.2207, 3336.717
714.7028, 3346.192
715.1849, 3347.317
715.6671, 3346.912
716.1492, 3352.978
716.6313, 3365.008
717.1134, 3378.080
717.5955, 3391.844
718.0776, 3404.485
718.5598, 3413.635
719.0419, 3419.893
719.5240, 3424.447
720.0061, 3429.113
720.4882, 3430.544
720.9703, 3421.886
721.4525, 3409.229
721.9346, 3406.485
722.4167, 3426.762
722.8988, 3442.516
723.3809, 3449.130
723.8630, 3447.386
724.3452, 3439.319
724.8273, 3424.311
725.3094, 3407.548
725.7915, 3389.206
726.2736, 3371.778
726.7557, 3362.453
727.2379, 3360.636
727.7200, 3361.653
728.2021, 3367.616
728.6842, 3371.483
729.1663, 3363.720
729.6484, 3343.089
730.1306, 3331.401
730.6127, 3338.944
731.0948, 3354.134
731.5769, 3372.221
732.0590, 3396.694
732.5411, 3409.258
733.0233, 3407.429
733.5054, 3399.263
733.9875, 3387.468
734.4696, 3374.003
734.9517, 3376.001
735.4338, 3397.220
735.9160, 3422.494
736.3981, 3436.534
736.8802, 3444.642
737.3623, 3455.287
737.8445, 3474.887
738.3266, 3489.207
738.8087, 3484.585
739.2908, 3474.334
739.7729, 3478.441
740.2551, 3506.907
740.7372, 3532.679
741.2193, 3552.797
741.7014, 3568.519
742.1835, 3580.989
742.6656, 3590.101
743.1478, 3602.382
743.6299, 3621.650
744.1120, 3643.189
744.5941, 3660.248
745.0762, 3673.309
745.5583, 3684.418
746.0405, 3687.526
746.5226, 3695.382
747.0047, 3717.974
747.4868, 3752.763
747.9689, 3784.308
748.4510, 3811.155
748.9332, 3833.712
749.4153, 3851.988
749.8974, 3865.941
750.3795, 3874.254
750.8616, 3875.769
751.3438, 3880.281
751.8259, 3903.091
752.3080, 3931.525
752.7901, 3932.493
753.2722, 3906.322
753.7543, 3875.277
754.2365, 3852.685
754.7186, 3832.386
755.2007, 3809.675
755.6828, 3783.269
756.1649, 3757.752
756.6470, 3737.620
757.1292, 3714.916
757.6113, 3682.147
758.0934, 3633.522
758.5755, 3603.463
759.0576, 3595.818
759.5397, 3593.015
760.0219, 3572.914
760.5040, 3542.275
760.9861, 3526.574
761.4682, 3533.402
761.9503, 3535.877
762.4324, 3498.938
762.9146, 3451.446
763.3967, 3428.660
763.8788, 3463.089
764.3609, 3483.332
764.8430, 3461.011
765.3251, 3428.262
765.8073, 3424.448
766.2894, 3460.584
766.7715, 3481.621
767.2536, 3477.628
767.7357, 3459.709
768.2178, 3438.917
768.7000, 3418.632
769.1821, 3415.270
769.6642, 3445.786
770.1463, 3475.931
770.6284, 3472.457
771.1105, 3447.824
771.5927, 3426.124
772.0748, 3407.564
772.5569, 3401.567
773.0390, 3420.126
773.5211, 3450.711
774.0032, 3458.551
774.4854, 3435.344
774.9675, 3421.605
775.4496, 3434.240
775.9317, 3459.885
776.4138, 3460.312
776.8959, 3440.780
777.3781, 3429.845
777.8602, 3458.785
778.3423, 3489.520
778.8244, 3481.717
779.3065, 3445.511
779.7886, 3425.011
780.2708, 3453.776
780.7529, 3479.167
781.2350, 3482.555
781.7171, 3466.424
782.1992, 3451.625
782.6813, 3435.766
783.1635, 3431.414
783.6456, 3451.816
784.1277, 3487.653
784.6098, 3511.413
785.0919, 3523.024
785.5740, 3523.386
786.0562, 3498.723
786.5383, 3473.545
787.0204, 3474.000
787.5025, 3501.248
787.9846, 3517.045
788.4667, 3499.101
788.9489, 3480.356
789.4310, 3474.927
789.9131, 3483.684
790.3952, 3490.305
790.8773, 3494.608
791.3594, 3497.380
791.8416, 3495.208
792.3237, 3492.422
792.8058, 3503.268
793.2879, 3528.275
793.7700, 3552.508
794.2521, 3567.945
794.7343, 3576.711
795.2164, 3579.069
795.6985, 3573.463
796.1806, 3569.174
796.6627, 3566.166
797.1448, 3565.773
797.6270, 3568.688
798.1091, 3574.824
798.5912, 3586.672
799.0733, 3605.729
799.5554, 3623.057
800.0375, 3623.471
800.5197, 3617.544
801.0018, 3629.295
801.4839, 3664.422
801.9660, 3695.463
802.4481, 3704.539
802.9302, 3703.004
803.4124, 3699.508
803.8945, 3691.547
804.3766, 3690.725
804.8587, 3701.367
805.3408, 3713.437
805.8229, 3718.135
806.3051, 3715.487
806.7872, 3706.976
807.2693, 3691.114
807.7514, 3679.229
808.2335, 3692.423
808.7156, 3713.821
809.1978, 3715.213
809.6799, 3683.855
810.1620, 3655.668
810.6441, 3648.648
811.1262, 3650.143
811.6083, 3647.553
812.0905, 3636.535
812.5726, 3631.011
813.0547, 3633.258
813.5368, 3637.234
814.0189, 3633.737
814.5010, 3624.823
814.9832, 3624.149
815.4653, 3635.629
815.9474, 3647.085
816.4295, 3644.779
816.9116, 3636.939
817.3937, 3633.577
817.8759, 3637.061
818.3580, 3645.392
818.8401, 3665.589
819.3222, 3685.494
819.8043, 3691.639
820.2864, 3679.112
820.7686, 3677.119
821.2507, 3690.950
821.7328, 3707.563
822.2149, 3707.646
822.6970, 3697.213
823.1791, 3692.184
823.6613, 3698.038
824.1434, 3703.463
824.6255, 3701.140
825.1076, 3694.193
825.5897, 3686.121
826.0718, 3669.754
826.5540, 3664.863
827.0361, 3679.311
827.5182, 3696.127
828.0003, 3691.027
828.4824, 3664.426
828.9645, 3650.576
829.4467, 3656.557
829.9288, 3667.885
830.4109, 3665.645
830.8930, 3658.586
831.3751, 3662.239
831.8572, 3689.764
832.3394, 3707.072
832.8215, 3693.673
833.3036, 3668.636
833.7857, 3653.245
834.2678, 3650.306
834.7499, 3649.916
835.2321, 3652.575
835.7142, 3655.218
836.1963, 3653.928
836.6784, 3649.340
837.1605, 3642.885
837.6426, 3633.929
838.1248, 3627.573
838.6069, 3629.082
839.0890, 3634.753
839.5711, 3640.584
840.0532, 3645.896
840.5353, 3651.248
841.0175, 3658.092
841.4996, 3663.565
841.9817, 3663.646
842.4638, 3658.017
842.9459, 3655.960
843.4280, 3659.134
843.9102, 3661.818
844.3923, 3652.545
844.8744, 3640.252
845.3565, 3641.730
845.8386, 3665.237
846.3207, 3683.765
846.8029, 3686.492
847.2850, 3679.161
847.7671, 3665.076
848.2492, 3634.526
848.7313, 3626.630
849.2134, 3647.921
849.6956, 3675.364
850.1777, 3688.107
850.6598, 3688.053
851.1419, 3678.188
851.6240, 3657.345
852.1061, 3642.408
852.5883, 3649.693
853.0704, 3666.567
853.5525, 3682.118
854.0346, 3694.631
854.5167, 3705.569
854.9988, 3716.916
855.4810, 3724.455
855.9631, 3724.689
856.4452, 3717.507
856.9273, 3706.742
857.4094, 3691.961
857.8915, 3681.147
858.3737, 3684.069
858.8558, 3693.841
859.3379, 3702.204
859.8200, 3708.047
860.3021, 3713.619
860.7842, 3723.271
861.2664, 3729.429
861.7485, 3726.482
862.2306, 3712.885
862.7127, 3705.905
863.1948, 3706.218
863.6769, 3709.935
864.1591, 3715.298
864.6412, 3721.783
865.1233, 3728.237
865.6054, 3734.709
866.0875, 3741.663
866.5696, 3752.032
867.0518, 3760.855
867.5339, 3765.946
868.0160, 3766.942
868.4981, 3759.002
868.9802, 3732.306
869.4623, 3717.852
869.9445, 3737.684
870.4266, 3781.339
870.9087, 3797.647
871.3908, 3789.033
871.8729, 3779.312
872.3550, 3787.718
872.8372, 3797.400
873.3193, 3791.630
873.8014, 3773.145
874.2835, 3759.514
874.7656, 3751.250
875.2477, 3753.517
875.7299, 3772.971
876.2120, 3802.892
876.6941, 3817.532
877.1762, 3816.908
877.6583, 3809.013
878.1404, 3791.207
878.6226, 3774.349
879.1047, 3777.748
879.5869, 3793.788
880.0690, 3802.944
880.5511, 3786.511
881.0332, 3775.246
881.5153, 3779.355
881.9974, 3793.964
882.4796, 3812.542
882.9617, 3837.636
883.4438, 3850.294
883.9259, 3841.240
884.4080, 3827.351
884.8901, 3838.542
885.3723, 3865.677
885.8544, 3888.135
886.3365, 3902.517
886.8186, 3904.426
887.3007, 3875.281
887.7828, 3839.378
888.2650, 3832.187
888.7471, 3868.334
889.2292, 3894.575
889.7113, 3905.187
890.1934, 3908.120
890.6755, 3913.568
891.1577, 3920.015
891.6398, 3921.174
892.1219, 3914.066
892.6040, 3911.059
893.0861, 3925.738
893.5682, 3945.662
894.0504, 3959.062
894.5325, 3961.937
895.0146, 3964.219
895.4967, 3967.003
895.9788, 3967.184
896.4609, 3956.676
896.9431, 3939.417
897.4252, 3945.354
897.9073, 3976.368
898.3894, 4004.732
898.8715, 4006.885
899.3536, 3999.568
899.8358, 3996.236
900.3179, 3998.500
900.8000, 4001.732
901.2821, 4004.903
901.7642, 4009.672
902.2463, 4018.365
902.7285, 4029.674
903.2106, 4034.550
903.6927, 4033.054
904.1748, 4027.907
904.6569, 4010.405
905.1390, 3997.781
905.6212, 4017.334
906.1033, 4059.699
906.5854, 4084.489
907.0675, 4055.999
907.5496, 4038.432
908.0317, 4053.367
908.5139, 4086.984
908.9960, 4093.814
909.4781, 4073.675
909.9602, 4059.721
910.4423, 4067.018
910.9244, 4080.504
911.4066, 4082.368
911.8887, 4077.149
912.3708, 4073.209
912.8529, 4070.408
913.3350, 4073.161
913.8171, 4083.740
914.2993, 4098.863
914.7814, 4116.255
915.2635, 4136.667
915.7456, 4148.380
916.2277, 4148.591
916.7098, 4144.821
917.1920, 4143.205
917.6741, 4144.242
918.1562, 4148.719
918.6383, 4156.818
919.1204, 4168.142
919.6025, 4183.135
920.0847, 4201.033
920.5668, 4222.000
921.0489, 4246.849
921.5310, 4268.954
922.0131, 4287.805
922.4952, 4307.404
922.9774, 4328.313
923.4595, 4353.267
923.9416, 4388.125
924.4237, 4432.506
924.9058, 4477.758
925.3879, 4523.677
925.8701, 4566.611
926.3522, 4604.015
926.8343, 4637.189
927.3164, 4675.982
927.7985, 4721.204
928.2806, 4765.727
928.7628, 4800.598
929.2449, 4837.659
929.7270, 4901.174
930.2091, 4982.601
930.6912, 5060.657
931.1733, 5115.828
931.6555, 5178.276
932.1376, 5270.716
932.6197, 5369.583
933.1018, 5432.585
933.5839, 5455.707
934.0660, 5480.043
934.5482, 5518.647
935.0303, 5543.969
935.5124, 5512.044
935.9945, 5444.190
936.4766, 5378.345
936.9587, 5324.720
937.4409, 5267.395
937.9230, 5211.473
938.4051, 5140.609
938.8872, 5033.563
939.3693, 4874.616
939.8514, 4771.799
940.3336, 4731.052
940.8157, 4710.439
941.2978, 4668.105
941.7799, 4627.375
942.2620, 4636.604
942.7441, 4693.890
943.2263, 4722.880
943.7084, 4657.868
944.1905, 4596.224
944.6726, 4583.356
945.1547, 4608.547
945.6368, 4601.056
946.1190, 4558.748
946.6011, 4518.589
947.0832, 4496.760
947.5653, 4486.271
948.0474, 4479.170
948.5295, 4475.619
949.0117, 4475.997
949.4938, 4494.037
949.9759, 4497.379
950.4580, 4467.313
950.9401, 4429.564
951.4222, 4427.376
951.9044, 4461.438
952.3865, 4487.516
952.8686, 4498.684
953.3507, 4500.061
953.8328, 4488.146
954.3149, 4473.940
954.7971, 4473.308
955.2792, 4494.429
955.7613, 4509.095
956.2434, 4510.433
956.7255, 4507.399
957.2076, 4503.832
957.6898, 4499.866
958.1719, 4499.799
958.6540, 4503.654
959.1361, 4512.711
959.6182, 4534.354
960.1003, 4556.580
960.5825, 4569.642
961.0646, 4573.618
961.5467, 4570.917
962.0288, 4552.792
962.5109, 4543.027
962.9930, 4551.694
963.4752, 4568.467
963.9573, 4562.182
964.4394, 4537.861
964.9215, 4527.430
965.4036, 4547.397
965.8857, 4572.481
966.3679, 4586.880
966.8500, 4592.257
967.3321, 4590.132
967.8142, 4569.385
968.2963, 4563.671
968.7784, 4578.790
969.2606, 4597.615
969.7427, 4602.134
970.2248, 4595.754
970.7069, 4590.972
971.1890, 4588.725
971.6711, 4584.490
972.1533, 4569.669
972.6354, 4556.606
973.1175, 4555.521
973.5996, 4566.369
974.0817, 4574.594
974.5638, 4580.670
975.0460, 4581.516
975.5281, 4570.168
976.0102, 4558.084
976.4923, 4579.601
976.9744, 4621.675
977.4565, 4645.993
977.9387, 4617.913
978.4208, 4590.224
978.9029, 4581.087
979.3850, 4583.127
979.8671, 4587.762
980.3492, 4595.808
980.8314, 4600.226
981.3135, 4598.881
981.7956, 4600.143
982.2777, 4622.235
982.7598, 4648.771
983.2419, 4652.488
983.7241, 4626.021
984.2062, 4605.891
984.6883, 4602.305
985.1704, 4609.165
985.6525, 4629.512
986.1346, 4660.378
986.6168, 4668.181
987.0989, 4653.432
987.5810, 4632.239
988.0631, 4606.368
988.5452, 4584.499
989.0273, 4582.145
989.5095, 4590.217
989.9916, 4585.140
990.4737, 4550.229
990.9558, 4520.819
991.4379, 4502.009
991.9200, 4489.295
992.4022, 4475.045
992.8843, 4460.799
993.3664, 4455.624
993.8485, 4463.760
994.3306, 4464.885
994.8127, 4437.254
995.2949, 4401.598
995.7770, 4374.193
996.2591, 4355.160
996.7412, 4351.172
997.2233, 4364.705
997.7054, 4384.443
998.1876, 4413.232
998.6697, 4439.458
999.1518, 4428.970
999.6339, 4391.018
1000.116, 4362.583
1000.598, 4366.456
1001.080, 4375.433
1001.562, 4384.869
1002.044, 4391.246
1002.527, 4385.594
1003.009, 4366.669
1003.491, 4353.784
1003.973, 4350.247
1004.455, 4355.126
1004.937, 4380.124
1005.419, 4406.837
1005.901, 4407.744
1006.384, 4368.749
1006.866, 4344.601
1007.348, 4348.095
1007.830, 4357.222
1008.312, 4359.361
1008.794, 4356.413
1009.276, 4360.255
1009.758, 4370.294
1010.240, 4381.574
1010.723, 4393.725
1011.205, 4403.716
1011.687, 4407.526
1012.169, 4407.854
1012.651, 4411.834
1013.133, 4419.997
1013.615, 4431.236
1014.097, 4446.245
1014.580, 4462.056
1015.062, 4476.577
1015.544, 4488.180
1016.026, 4492.783
1016.508, 4488.525
1016.990, 4483.620
1017.472, 4474.220
1017.954, 4472.432
1018.436, 4488.735
1018.919, 4521.603
1019.401, 4538.745
1019.883, 4540.129
1020.365, 4537.517
1020.847, 4534.391
1021.329, 4533.237
1021.811, 4538.571
1022.293, 4547.683
1022.776, 4554.188
1023.258, 4561.992
1023.740, 4557.544
1024.222, 4536.023
1024.704, 4507.558
1025.186, 4482.087
1025.668, 4461.365
1026.150, 4454.805
1026.632, 4464.629
1027.115, 4474.424
1027.597, 4474.877
1028.079, 4471.292
1028.561, 4465.347
1029.043, 4457.495
1029.525, 4458.400
1030.007, 4469.534
1030.489, 4476.803
1030.972, 4470.065
1031.454, 4460.022
1031.936, 4459.201
1032.418, 4466.893
1032.900, 4481.471
1033.382, 4516.125
1033.864, 4537.305
1034.346, 4534.726
1034.828, 4527.448
1035.311, 4534.116
1035.793, 4554.643
1036.275, 4595.576
1036.757, 4657.900
1037.239, 4706.698
1037.721, 4696.838
1038.203, 4682.287
1038.685, 4709.154
1039.167, 4772.158
1039.650, 4802.616
1040.132, 4790.930
1040.614, 4788.329
1041.096, 4815.280
1041.578, 4854.373
1042.060, 4884.759
1042.542, 4904.818
1043.024, 4910.256
1043.507, 4887.238
1043.989, 4874.761
1044.471, 4886.693
1044.953, 4903.045
1045.435, 4907.247
1045.917, 4900.575
1046.399, 4898.989
1046.881, 4902.890
1047.364, 4913.417
1047.846, 4940.968
1048.328, 4966.520
1048.810, 4974.035
1049.292, 4967.553
1049.774, 4968.358
1050.256, 4980.354
1050.738, 4983.745
1051.220, 4969.603
1051.703, 4958.882
1052.185, 4989.057
1052.667, 5041.161
1053.149, 5083.821
1053.631, 5110.058
1054.113, 5130.403
1054.595, 5141.383
1055.077, 5154.516
1055.559, 5178.611
1056.042, 5210.413
1056.524, 5226.877
1057.006, 5229.583
1057.488, 5231.447
1057.970, 5252.749
1058.452, 5261.707
1058.934, 5232.136
1059.416, 5177.821
1059.899, 5125.241
1060.381, 5072.811
1060.863, 5030.331
1061.345, 4999.365
1061.827, 4974.723
1062.309, 4958.086
1062.791, 4940.243
1063.273, 4901.087
1063.755, 4839.723
1064.238, 4795.535
1064.720, 4793.362
1065.202, 4791.046
1065.684, 4774.302
1066.166, 4750.837
1066.648, 4744.786
1067.130, 4752.528
1067.612, 4756.443
1068.094, 4749.107
1068.577, 4741.101
1069.059, 4738.768
1069.541, 4738.845
1070.023, 4738.158
1070.505, 4736.563
1070.987, 4733.272
1071.469, 4727.564
1071.951, 4726.642
1072.434, 4740.988
1072.916, 4758.827
1073.398, 4764.976
1073.880, 4762.542
1074.362, 4763.063
1074.844, 4770.230
1075.326, 4777.566
1075.808, 4781.522
1076.291, 4790.491
1076.773, 4822.662
1077.255, 4868.970
1077.737, 4902.713
1078.219, 4919.468
1078.701, 4930.235
1079.183, 4940.464
1079.665, 4945.401
1080.147, 4942.958
1080.630, 4933.703
1081.112, 4918.466
1081.594, 4897.615
1082.076, 4882.513
1082.558, 4878.294
1083.040, 4879.777
1083.522, 4881.847
1084.004, 4887.015
1084.486, 4898.963
1084.969, 4918.795
1085.451, 4944.296
1085.933, 4977.229
1086.415, 5008.363
1086.897, 5029.668
1087.379, 5044.854
1087.861, 5061.346
1088.343, 5077.890
1088.826, 5088.644
1089.308, 5071.119
1089.790, 5077.350
1090.272, 5126.888
1090.754, 5190.877
1091.236, 5221.918
1091.718, 5226.979
1092.200, 5240.737
1092.682, 5269.377
1093.165, 5289.164
1093.647, 5276.469
1094.129, 5257.886
1094.611, 5249.115
1095.093, 5249.440
1095.575, 5257.115
1096.057, 5273.004
1096.539, 5273.782
1097.022, 5247.084
1097.504, 5209.443
1097.986, 5169.906
1098.468, 5133.388
1098.950, 5108.110
1099.432, 5100.765
1099.914, 5089.167
1100.396, 5072.856
1100.879, 5054.506
1101.361, 5033.024
1101.843, 5012.327
1102.325, 5002.882
1102.807, 5001.229
1103.289, 4994.505
1103.771, 4972.421
1104.253, 4951.950
1104.735, 4935.835
1105.218, 4922.395
1105.700, 4907.531
1106.182, 4892.991
1106.664, 4889.573
1107.146, 4898.567
1107.628, 4908.203
1108.110, 4913.394
1108.592, 4915.041
1109.074, 4912.446
1109.557, 4906.861
1110.039, 4904.604
1110.521, 4905.783
1111.003, 4898.272
1111.485, 4875.468
1111.967, 4852.622
1112.449, 4848.855
1112.931, 4850.596
1113.414, 4842.055
1113.896, 4819.192
1114.378, 4797.537
1114.860, 4775.048
1115.342, 4763.165
1115.824, 4777.475
1116.306, 4798.539
1116.788, 4791.852
1117.271, 4768.053
1117.753, 4750.755
1118.235, 4756.149
1118.717, 4754.713
1119.199, 4741.652
1119.681, 4726.966
1120.163, 4722.362
1120.645, 4723.827
1121.127, 4717.729
1121.609, 4704.584
1122.092, 4695.527
1122.574, 4699.152
1123.056, 4704.639
1123.538, 4710.973
1124.020, 4714.902
1124.502, 4707.089
1124.984, 4689.394
1125.466, 4677.007
1125.949, 4672.686
1126.431, 4675.124
1126.913, 4696.555
1127.395, 4713.134
1127.877, 4701.849
1128.359, 4667.517
1128.841, 4648.884
1129.323, 4646.713
1129.806, 4645.135
1130.288, 4635.272
1130.770, 4630.292
1131.252, 4654.335
1131.734, 4686.263
1132.216, 4695.645
1132.698, 4669.570
1133.180, 4658.879
1133.662, 4667.547
1134.145, 4675.055
1134.627, 4661.049
1135.109, 4642.675
1135.591, 4655.354
1136.073, 4685.369
1136.555, 4697.660
1137.037, 4660.759
1137.519, 4638.570
1138.001, 4639.017
1138.484, 4645.992
1138.966, 4639.109
1139.448, 4626.831
1139.930, 4631.529
1140.412, 4652.973
1140.894, 4676.370
1141.376, 4707.375
1141.858, 4723.720
1142.341, 4716.041
1142.823, 4695.702
1143.305, 4681.909
1143.787, 4673.690
1144.269, 4665.115
1144.751, 4654.538
1145.233, 4651.033
1145.715, 4666.370
1146.198, 4683.892
1146.680, 4696.183
1147.162, 4702.871
1147.644, 4698.625
1148.126, 4684.553
1148.608, 4676.294
1149.090, 4680.406
1149.572, 4687.038
1150.054, 4690.619
1150.536, 4691.831
1151.019, 4691.200
1151.501, 4688.736
1151.983, 4683.947
1152.465, 4676.464
1152.947, 4674.991
1153.429, 4687.623
1153.911, 4704.522
1154.393, 4721.799
1154.876, 4735.011
1155.358, 4733.435
1155.840, 4704.830
1156.322, 4702.271
1156.804, 4731.527
1157.286, 4760.431
1157.768, 4762.793
1158.250, 4750.102
1158.733, 4728.359
1159.215, 4703.332
1159.697, 4695.113
1160.179, 4714.942
1160.661, 4733.737
1161.143, 4750.168
1161.625, 4759.190
1162.107, 4750.654
1162.589, 4732.903
1163.072, 4716.266
1163.554, 4702.431
1164.036, 4702.397
1164.518, 4730.284
1165.000, 4753.568
1165.482, 4766.251
1165.964, 4767.904
1166.446, 4747.983
1166.928, 4718.608
1167.411, 4708.934
1167.893, 4727.090
1168.375, 4744.618
1168.857, 4751.783
1169.339, 4757.173
1169.821, 4762.964
1170.303, 4769.844
1170.785, 4781.824
1171.268, 4796.791
1171.750, 4808.562
1172.232, 4816.162
1172.714, 4817.479
1173.196, 4802.172
1173.678, 4789.587
1174.160, 4793.662
1174.642, 4811.105
1175.125, 4821.813
1175.607, 4825.894
1176.089, 4823.273
1176.571, 4806.266
1177.053, 4792.734
1177.535, 4794.284
1178.017, 4800.235
1178.499, 4800.185
1178.981, 4794.256
1179.464, 4794.334
1179.946, 4800.144
1180.428, 4805.026
1180.910, 4801.477
1181.392, 4799.491
1181.874, 4810.841
1182.356, 4823.833
1182.838, 4817.375
1183.320, 4790.367
1183.803, 4776.068
1184.285, 4777.238
1184.767, 4785.344
1185.249, 4802.331
1185.731, 4816.036
1186.213, 4812.844
1186.695, 4800.250
1187.177, 4797.174
1187.660, 4803.263
1188.142, 4830.313
1188.624, 4883.755
1189.106, 4927.983
1189.588, 4922.259
1190.070, 4901.808
1190.552, 4895.740
1191.034, 4902.604
1191.516, 4897.367
1191.999, 4876.857
1192.481, 4880.398
1192.963, 4926.340
1193.445, 4967.174
1193.927, 4949.314
1194.409, 4906.504
1194.891, 4867.658
1195.373, 4835.075
1195.855, 4822.495
1196.338, 4832.402
1196.820, 4839.593
1197.302, 4831.656
1197.784, 4822.396
1198.266, 4825.699
1198.748, 4837.296
1199.230, 4854.654
1199.712, 4880.142
1200.195, 4891.344
1200.677, 4887.555
1201.159, 4873.459
1201.641, 4841.835
1202.123, 4813.463
1202.605, 4820.346
1203.087, 4844.097
1203.569, 4852.048
1204.052, 4825.243
1204.534, 4836.357
1205.016, 4893.265
1205.498, 4941.416
1205.980, 4933.730
1206.462, 4905.035
1206.944, 4892.454
1207.426, 4890.708
1207.908, 4887.592
1208.391, 4880.325
1208.873, 4874.673
1209.355, 4870.060
1209.837, 4871.245
1210.319, 4888.967
1210.801, 4909.472
1211.283, 4918.632
1211.765, 4916.809
1212.247, 4905.314
1212.730, 4879.808
1213.212, 4859.588
1213.694, 4845.326
1214.176, 4843.417
1214.658, 4871.062
1215.140, 4906.416
1215.622, 4925.130
1216.104, 4927.813
1216.587, 4926.087
1217.069, 4918.660
1217.551, 4915.266
1218.033, 4917.728
1218.515, 4923.502
1218.997, 4939.133
1219.479, 4950.152
1219.961, 4929.165
1220.443, 4879.394
1220.926, 4869.347
1221.408, 4913.885
1221.890, 4948.267
1222.372, 4958.102
1222.854, 4950.699
1223.336, 4914.685
1223.818, 4879.118
1224.300, 4883.848
1224.782, 4935.331
1225.265, 4969.279
1225.747, 4985.066
1226.229, 4982.446
1226.711, 4954.834
1227.193, 4926.766
1227.675, 4933.896
1228.157, 4954.077
1228.639, 4958.845
1229.122, 4942.992
1229.604, 4940.582
1230.086, 4952.958
1230.568, 4971.109
1231.050, 4996.864
1231.532, 5015.718
1232.014, 5003.750
1232.496, 4979.108
1232.979, 4962.614
1233.461, 4955.642
1233.943, 4963.968
1234.425, 4990.055
1234.907, 5004.833
1235.389, 4984.808
1235.871, 4963.547
1236.353, 4977.799
1236.835, 5008.958
1237.318, 5035.805
1237.800, 5060.155
1238.282, 5054.781
1238.764, 5018.231
1239.246, 4982.297
1239.728, 4958.490
1240.210, 4950.944
1240.692, 4977.263
1241.175, 5015.142
1241.657, 5034.187
1242.139, 5032.027
1242.621, 5018.706
1243.103, 4993.911
1243.585, 4983.310
1244.067, 5018.385
1244.549, 5055.689
1245.031, 5062.088
1245.514, 5054.843
1245.996, 5060.300
1246.478, 5080.474
1246.960, 5089.312
1247.442, 5086.631
1247.924, 5076.640
1248.406, 5055.967
1248.888, 5035.557
1249.370, 5016.009
1249.853, 5003.934
1250.335, 5010.581
1250.817, 5035.117
1251.299, 5054.966
1251.781, 5069.302
1252.263, 5082.223
1252.745, 5097.354
1253.227, 5110.297
1253.710, 5119.552
1254.192, 5125.202
1254.674, 5128.531
1255.156, 5128.575
1255.638, 5113.247
1256.120, 5083.900
1256.602, 5063.896
1257.084, 5071.547
1257.567, 5084.504
1258.049, 5096.833
1258.531, 5108.349
1259.013, 5120.150
1259.495, 5130.865
1259.977, 5132.740
1260.459, 5126.428
1260.941, 5125.161
1261.423, 5150.162
1261.906, 5157.313
1262.388, 5127.212
1262.870, 5091.708
1263.352, 5107.028
1263.834, 5149.420
1264.316, 5157.560
1264.798, 5129.804
1265.280, 5119.956
1265.762, 5165.254
1266.245, 5194.146
1266.727, 5190.086
1267.209, 5174.503
1267.691, 5174.428
1268.173, 5184.018
1268.655, 5196.878
1269.137, 5211.633
1269.619, 5215.806
1270.102, 5204.203
1270.584, 5194.104
1271.066, 5188.858
1271.548, 5187.118
1272.030, 5188.539
1272.512, 5191.729
1272.994, 5195.090
1273.476, 5198.553
1273.958, 5203.959
1274.441, 5212.820
1274.923, 5215.893
1275.405, 5210.564
1275.887, 5201.487
1276.369, 5183.879
1276.851, 5172.338
1277.333, 5189.350
1277.815, 5228.106
1278.297, 5241.722
1278.780, 5228.729
1279.262, 5220.541
1279.744, 5225.148
1280.226, 5230.306
1280.708, 5223.044
1281.190, 5215.566
1281.672, 5219.150
1282.154, 5229.346
1282.637, 5229.332
1283.119, 5220.028
1283.601, 5207.935
1284.083, 5192.521
1284.565, 5187.984
1285.047, 5219.857
1285.529, 5245.228
1286.011, 5239.981
1286.494, 5216.426
1286.976, 5208.181
1287.458, 5211.632
1287.940, 5214.891
1288.422, 5215.292
1288.904, 5217.547
1289.386, 5227.344
1289.868, 5233.375
1290.350, 5229.758
1290.833, 5223.335
1291.315, 5231.972
1291.797, 5246.725
1292.279, 5248.081
1292.761, 5230.443
1293.243, 5218.455
1293.725, 5216.479
1294.207, 5216.475
1294.689, 5217.207
1295.172, 5215.335
1295.654, 5202.545
1296.136, 5186.059
1296.618, 5173.365
1297.100, 5165.742
1297.582, 5175.794
1298.064, 5208.844
1298.546, 5222.479
1299.029, 5196.309
1299.511, 5169.499
1299.993, 5190.164
1300.475, 5225.214
1300.957, 5244.745
1301.439, 5248.613
1301.921, 5236.799
1302.403, 5210.119
1302.885, 5193.536
1303.368, 5193.966
1303.850, 5205.130
1304.332, 5238.063
1304.814, 5263.615
1305.296, 5259.676
1305.778, 5237.739
1306.260, 5240.311
1306.742, 5261.640
1307.224, 5280.950
1307.707, 5295.023
1308.189, 5295.416
1308.671, 5256.610
1309.153, 5234.402
1309.635, 5255.612
1310.117, 5296.932
1310.599, 5311.879
1311.081, 5308.372
1311.564, 5300.451
1312.046, 5290.232
1312.528, 5279.571
1313.010, 5265.019
##END=



