##NAMES=Chevkinite-(Ce)
##RRUFFID=R060282
##IDEAL CHEMISTRY=Ce^3+^_4_(Ti^4+^,Fe^2+^,Fe^3+^)_5_O_8_(Si_2_O_7_)_2_
##LOCALITY=Arondu, Basha Valley, Baltistan, Pakistan
##OWNER=RRUFF
##SOURCE=Herb Obodda
##DESCRIPTION=Black fragment
##STATUS=The identification of this mineral has been confirmed by X-ray diffraction and chemical analysis
##URL=rruff.info/R060282
##MEASURED CHEMISTRY=(Ce_2.04_La_0.79_Nd_0.75_Ca_0.42_)_Σ=4_(Ti_2.79_Fe^2+^_1.83_Fe^3+^_0.14_Mg_0.11_Th_0.05_Nb^5+^_0.05_Al_0.03_)_Σ=5_O_8_(Si_2.00_O_7_)_2_ ; lighter phase
93.46167, 633.0024
93.94379, 633.4453
94.42590, 632.8264
94.90802, 631.1873
95.39014, 626.4855
95.87225, 617.8063
96.35437, 610.1100
96.83649, 606.7109
97.31860, 605.2590
97.80072, 603.2908
98.28284, 598.8149
98.76495, 591.8763
99.24707, 585.5225
99.72919, 580.0715
100.2113, 575.0867
100.6934, 569.9928
101.1755, 565.0808
101.6577, 561.0735
102.1398, 558.6144
102.6219, 557.9176
103.1040, 557.5050
103.5861, 558.1719
104.0682, 558.3429
104.5504, 556.2971
105.0325, 552.1036
105.5146, 548.0958
105.9967, 547.9055
106.4788, 554.2776
106.9609, 557.0572
107.4431, 553.4407
107.9252, 546.4943
108.4073, 540.0401
108.8894, 535.0673
109.3715, 531.6140
109.8536, 529.8778
110.3358, 529.9661
110.8179, 530.5291
111.3000, 530.8206
111.7821, 530.8992
112.2642, 531.4258
112.7463, 533.5186
113.2285, 535.6259
113.7106, 536.0462
114.1927, 534.1867
114.6748, 531.4363
115.1569, 529.7952
115.6390, 529.7801
116.1212, 529.5114
116.6033, 528.3890
117.0854, 526.7855
117.5675, 524.9080
118.0496, 522.7516
118.5317, 520.5342
119.0139, 519.3519
119.4960, 520.4166
119.9781, 521.3179
120.4602, 521.5026
120.9423, 521.2119
121.4244, 520.9965
121.9066, 521.3568
122.3887, 522.4102
122.8708, 522.2485
123.3529, 519.5640
123.8350, 517.1066
124.3171, 516.4907
124.7993, 517.6124
125.2814, 518.9685
125.7635, 519.0052
126.2456, 517.3422
126.7277, 516.0823
127.2098, 515.4852
127.6920, 515.1982
128.1741, 514.7192
128.6562, 513.8615
129.1383, 513.2437
129.6204, 514.1900
130.1025, 516.5274
130.5847, 518.0332
131.0668, 517.0338
131.5489, 514.3199
132.0310, 512.7136
132.5131, 513.2922
132.9952, 514.6920
133.4774, 515.9767
133.9595, 517.1038
134.4416, 517.5416
134.9237, 516.6608
135.4058, 514.3032
135.8879, 511.7196
136.3701, 508.2883
136.8522, 505.2632
137.3343, 503.3958
137.8164, 502.8687
138.2985, 503.4057
138.7806, 504.6039
139.2628, 506.8105
139.7449, 509.1249
140.2270, 513.1534
140.7091, 516.4952
141.1912, 516.1700
141.6733, 510.8542
142.1555, 502.6066
142.6376, 498.5980
143.1197, 503.9931
143.6018, 508.1608
144.0839, 508.9798
144.5660, 507.9620
145.0482, 507.8713
145.5303, 510.5634
146.0124, 515.3377
146.4945, 516.9122
146.9766, 513.4109
147.4587, 509.3510
147.9409, 506.2165
148.4230, 504.0314
148.9051, 502.6740
149.3872, 502.3849
149.8693, 502.9286
150.3514, 502.7600
150.8336, 501.3574
151.3157, 499.5426
151.7978, 497.9700
152.2799, 496.6481
152.7620, 495.5513
153.2441, 494.4561
153.7263, 493.5746
154.2084, 493.4171
154.6905, 494.9829
155.1726, 497.2781
155.6547, 497.8956
156.1368, 495.8773
156.6190, 493.8653
157.1011, 493.3681
157.5832, 493.9070
158.0653, 494.5826
158.5474, 494.9286
159.0295, 494.9462
159.5117, 494.6589
159.9938, 493.9312
160.4759, 492.9758
160.9580, 491.4266
161.4401, 489.6352
161.9222, 488.4822
162.4044, 489.1298
162.8865, 492.2460
163.3686, 493.1419
163.8507, 490.1664
164.3328, 486.5815
164.8149, 483.2036
165.2971, 480.3958
165.7792, 478.6390
166.2613, 478.6214
166.7434, 481.2821
167.2255, 483.0230
167.7076, 483.5291
168.1898, 483.4977
168.6719, 483.5252
169.1540, 483.6986
169.6361, 483.4830
170.1182, 481.9232
170.6003, 477.8615
171.0825, 475.5483
171.5646, 477.4519
172.0467, 480.3268
172.5288, 479.6853
173.0109, 473.8586
173.4930, 466.7155
173.9752, 465.4190
174.4573, 470.5772
174.9394, 474.8707
175.4215, 475.7119
175.9036, 474.1667
176.3857, 472.4029
176.8679, 470.6335
177.3500, 469.5006
177.8321, 469.9874
178.3142, 472.2129
178.7963, 474.4278
179.2784, 475.6934
179.7606, 476.0693
180.2427, 475.9237
180.7248, 475.1031
181.2069, 473.9608
181.6890, 472.8486
182.1711, 471.7921
182.6533, 470.6323
183.1354, 468.8637
183.6175, 466.2656
184.0996, 464.8181
184.5817, 465.6628
185.0638, 467.4487
185.5460, 470.2151
186.0281, 473.8599
186.5102, 476.7096
186.9923, 475.7391
187.4744, 468.6306
187.9565, 463.9176
188.4387, 463.7603
188.9208, 465.3473
189.4029, 467.2107
189.8850, 468.7943
190.3671, 469.7482
190.8492, 469.2365
191.3314, 465.5466
191.8135, 463.2036
192.2956, 463.4786
192.7777, 464.5578
193.2598, 464.5479
193.7419, 462.7526
194.2241, 460.2949
194.7062, 459.8858
195.1883, 464.7434
195.6704, 468.0285
196.1525, 469.1160
196.6346, 468.7049
197.1168, 467.1209
197.5989, 464.4166
198.0810, 461.4931
198.5631, 461.1315
199.0452, 466.6453
199.5273, 470.1984
200.0095, 468.7730
200.4916, 464.8230
200.9737, 462.6484
201.4558, 464.4852
201.9379, 468.5855
202.4200, 469.7028
202.9022, 466.1140
203.3843, 463.2124
203.8664, 463.8910
204.3485, 466.8640
204.8306, 468.4613
205.3127, 466.7606
205.7949, 463.0895
206.2770, 460.4628
206.7591, 458.9757
207.2412, 458.1313
207.7233, 457.5521
208.2054, 457.3097
208.6876, 457.9400
209.1697, 460.0733
209.6518, 462.9427
210.1339, 465.5851
210.6160, 468.2432
211.0981, 469.8369
211.5803, 468.5915
212.0624, 464.4972
212.5445, 461.7475
213.0266, 462.9015
213.5087, 465.5087
213.9908, 467.5637
214.4730, 468.8517
214.9551, 469.1637
215.4372, 467.6284
215.9193, 463.7387
216.4014, 461.1390
216.8836, 462.0783
217.3657, 464.0538
217.8478, 465.6568
218.3299, 466.5518
218.8120, 466.8608
219.2941, 466.5998
219.7763, 465.5312
220.2584, 464.6716
220.7405, 464.6502
221.2226, 464.6083
221.7047, 463.6930
222.1868, 461.7221
222.6690, 459.6037
223.1511, 458.8893
223.6332, 460.3203
224.1153, 461.5042
224.5974, 462.0855
225.0795, 462.4546
225.5617, 463.0033
226.0438, 463.8058
226.5259, 464.4892
227.0080, 464.3105
227.4901, 462.4641
227.9722, 461.2359
228.4544, 460.8732
228.9365, 460.9560
229.4186, 461.1947
229.9007, 461.4977
230.3828, 461.9387
230.8649, 462.6992
231.3471, 464.5446
231.8292, 465.4027
232.3113, 464.8409
232.7934, 463.6423
233.2755, 462.1659
233.7576, 460.5960
234.2398, 459.3156
234.7219, 458.9958
235.2040, 460.2501
235.6861, 461.4872
236.1682, 463.2579
236.6503, 464.7231
237.1325, 464.8938
237.6146, 463.5534
238.0967, 461.5618
238.5788, 460.1082
239.0609, 459.0964
239.5430, 459.0955
240.0252, 461.1132
240.5073, 463.6768
240.9894, 465.2621
241.4715, 465.5157
241.9536, 465.1882
242.4357, 465.2831
242.9179, 465.9587
243.4000, 466.3444
243.8821, 466.3544
244.3642, 466.0378
244.8463, 465.0938
245.3284, 463.3975
245.8106, 462.1422
246.2927, 463.2298
246.7748, 466.7923
247.2569, 469.2222
247.7390, 469.6456
248.2211, 468.8170
248.7033, 467.0367
249.1854, 464.1165
249.6675, 462.0727
250.1496, 464.1467
250.6317, 469.5856
251.1138, 472.9418
251.5960, 471.5719
252.0781, 468.1671
252.5602, 466.1327
253.0423, 465.8897
253.5244, 466.3724
254.0065, 467.0618
254.4887, 467.8250
254.9708, 468.2266
255.4529, 468.0533
255.9350, 467.4992
256.4171, 466.7108
256.8992, 465.6049
257.3813, 464.6719
257.8635, 464.2679
258.3456, 464.2766
258.8277, 464.6079
259.3098, 465.4472
259.7919, 466.4680
260.2740, 467.0600
260.7562, 467.0414
261.2383, 467.3682
261.7204, 469.4610
262.2025, 472.0145
262.6846, 473.3202
263.1667, 472.5426
263.6489, 470.7301
264.1310, 469.1251
264.6131, 467.6149
265.0952, 466.8066
265.5773, 467.8067
266.0594, 469.3328
266.5416, 470.0893
267.0237, 469.5455
267.5058, 468.6386
267.9879, 468.6496
268.4700, 469.7397
268.9521, 471.0274
269.4343, 473.1481
269.9164, 474.8582
270.3985, 474.7044
270.8806, 472.1867
271.3627, 469.3106
271.8448, 469.0063
272.3270, 471.9902
272.8091, 473.7837
273.2912, 472.7241
273.7733, 470.4553
274.2554, 467.2275
274.7375, 463.1893
275.2197, 459.9026
275.7018, 459.4217
276.1839, 462.1896
276.6660, 464.8699
277.1481, 467.7891
277.6302, 469.8910
278.1124, 470.1357
278.5945, 468.6725
279.0766, 466.8976
279.5587, 466.1190
280.0408, 466.4043
280.5229, 467.0662
281.0051, 468.7378
281.4872, 470.2336
281.9693, 471.5036
282.4514, 472.2623
282.9335, 471.7659
283.4156, 468.5693
283.8978, 462.5546
284.3799, 459.4697
284.8620, 462.4532
285.3441, 465.4000
285.8262, 466.1811
286.3083, 465.2744
286.7905, 464.0071
287.2726, 463.2836
287.7547, 463.0398
288.2368, 462.6895
288.7189, 462.1699
289.2010, 461.6022
289.6832, 460.4525
290.1653, 459.3825
290.6474, 459.5955
291.1295, 462.0275
291.6116, 465.8438
292.0938, 467.5249
292.5759, 465.2970
293.0580, 463.3495
293.5401, 462.9849
294.0222, 463.1439
294.5043, 462.4525
294.9865, 460.2617
295.4686, 457.4000
295.9507, 455.9420
296.4328, 456.7703
296.9149, 457.5077
297.3970, 457.9959
297.8792, 458.2073
298.3613, 457.8776
298.8434, 456.9908
299.3255, 456.1651
299.8076, 456.7984
300.2897, 460.6779
300.7719, 461.8127
301.2540, 456.8072
301.7361, 451.6686
302.2182, 450.8221
302.7003, 454.6240
303.1824, 459.6678
303.6646, 461.8300
304.1467, 460.2844
304.6288, 458.7480
305.1109, 456.1768
305.5930, 454.4951
306.0751, 455.3899
306.5573, 458.2739
307.0394, 460.8947
307.5215, 460.9185
308.0036, 458.0377
308.4857, 457.1223
308.9678, 460.9022
309.4500, 464.0329
309.9321, 464.9649
310.4142, 464.0534
310.8963, 462.2100
311.3784, 459.9274
311.8605, 457.3066
312.3427, 455.1661
312.8248, 453.2221
313.3069, 452.1881
313.7890, 452.9335
314.2711, 454.4198
314.7532, 455.2545
315.2354, 454.7209
315.7175, 453.3607
316.1996, 452.7485
316.6817, 453.4031
317.1638, 454.0370
317.6459, 454.5740
318.1281, 454.9950
318.6102, 455.1916
319.0923, 455.1554
319.5744, 455.1281
320.0565, 455.5331
320.5386, 456.5577
321.0208, 457.5959
321.5029, 459.3260
321.9850, 460.5415
322.4671, 460.1218
322.9492, 458.1564
323.4313, 455.9148
323.9135, 454.7686
324.3956, 454.9045
324.8777, 455.2188
325.3598, 456.5691
325.8419, 457.3012
326.3240, 455.9943
326.8062, 453.3992
327.2883, 451.5978
327.7704, 452.4294
328.2525, 455.6920
328.7346, 457.7807
329.2167, 458.3402
329.6989, 457.9774
330.1810, 455.9003
330.6631, 453.2278
331.1452, 451.6920
331.6273, 452.3319
332.1094, 454.3400
332.5916, 455.1121
333.0737, 453.5722
333.5558, 452.6286
334.0379, 453.6685
334.5200, 454.9905
335.0021, 454.6210
335.4843, 451.9803
335.9664, 448.7768
336.4485, 447.9733
336.9306, 450.5693
337.4127, 452.5850
337.8948, 453.5883
338.3770, 453.9727
338.8591, 453.5269
339.3412, 452.4595
339.8233, 451.6877
340.3055, 452.6566
340.7876, 455.7256
341.2697, 456.8202
341.7518, 453.9752
342.2339, 450.9504
342.7160, 448.9033
343.1982, 447.8339
343.6803, 447.4912
344.1624, 447.8734
344.6445, 448.8197
345.1266, 449.5306
345.6087, 449.9630
346.0909, 450.2065
346.5730, 450.3178
347.0551, 450.2894
347.5372, 450.1062
348.0193, 449.7564
348.5014, 449.2678
348.9836, 448.6707
349.4657, 447.9477
349.9478, 447.1842
350.4299, 445.8271
350.9120, 444.7919
351.3941, 444.7362
351.8763, 445.7850
352.3584, 447.7558
352.8405, 451.6283
353.3226, 457.5673
353.8047, 459.5457
354.2868, 452.5845
354.7690, 445.7807
355.2511, 445.7111
355.7332, 451.1587
356.2153, 456.3562
356.6974, 457.4997
357.1795, 455.3768
357.6617, 452.6502
358.1438, 448.4230
358.6259, 445.6041
359.1080, 446.7847
359.5901, 450.1836
360.0722, 453.0831
360.5544, 454.5742
361.0365, 455.0791
361.5186, 455.2518
362.0007, 455.1453
362.4828, 454.1178
362.9649, 449.8313
363.4471, 445.7424
363.9292, 446.7143
364.4113, 454.4964
364.8934, 461.6464
365.3755, 461.2631
365.8576, 454.7518
366.3398, 449.8331
366.8219, 448.3669
367.3040, 448.9187
367.7861, 450.2302
368.2682, 452.2268
368.7503, 454.2244
369.2325, 456.3107
369.7146, 458.1307
370.1967, 458.9278
370.6788, 458.5271
371.1609, 457.8459
371.6430, 457.9552
372.1252, 458.3540
372.6073, 457.3681
373.0894, 452.6632
373.5715, 448.1880
374.0536, 447.5030
374.5357, 450.0979
375.0179, 453.1181
375.5000, 455.6047
375.9821, 457.2292
376.4642, 457.0515
376.9463, 453.9346
377.4284, 451.8560
377.9106, 453.6278
378.3927, 457.1105
378.8748, 458.3200
379.3569, 456.0397
379.8390, 452.6087
380.3211, 451.1037
380.8033, 452.0023
381.2854, 452.0527
381.7675, 449.9081
382.2496, 447.6406
382.7317, 446.9783
383.2138, 447.9247
383.6960, 449.4203
384.1781, 450.8363
384.6602, 452.1139
385.1423, 452.5294
385.6244, 451.3521
386.1065, 450.2953
386.5887, 449.7206
387.0708, 449.6772
387.5529, 450.3650
388.0350, 451.9072
388.5171, 453.8391
388.9992, 455.1575
389.4814, 455.7166
389.9635, 455.7786
390.4456, 454.6500
390.9277, 453.4915
391.4098, 453.5703
391.8919, 454.8618
392.3741, 455.9670
392.8562, 455.1559
393.3383, 451.8507
393.8204, 451.1465
394.3025, 456.5900
394.7846, 460.7844
395.2668, 459.8969
395.7489, 456.0530
396.2310, 453.6292
396.7131, 455.3306
397.1952, 459.6684
397.6773, 461.2927
398.1595, 457.6943
398.6416, 455.5071
399.1237, 456.5528
399.6058, 458.5942
400.0879, 460.0018
400.5700, 460.2963
401.0522, 459.5836
401.5343, 457.1169
402.0164, 452.0448
402.4985, 450.5097
402.9806, 457.3421
403.4627, 463.4449
403.9449, 464.0149
404.4270, 460.5838
404.9091, 457.6217
405.3912, 458.2382
405.8733, 461.1494
406.3554, 462.1576
406.8376, 460.3952
407.3197, 458.9052
407.8018, 459.3927
408.2839, 460.5363
408.7660, 460.8958
409.2481, 460.0029
409.7303, 459.0278
410.2124, 459.3571
410.6945, 460.8875
411.1766, 462.0256
411.6587, 462.5526
412.1408, 462.3996
412.6230, 461.2925
413.1051, 459.3768
413.5872, 457.7257
414.0693, 456.6877
414.5514, 456.2275
415.0335, 456.4499
415.5157, 457.4137
415.9978, 458.4516
416.4799, 459.0036
416.9620, 459.3380
417.4441, 460.3180
417.9262, 462.9776
418.4084, 464.9503
418.8905, 464.5761
419.3726, 462.4646
419.8547, 460.0091
420.3368, 457.5491
420.8189, 455.3799
421.3011, 454.0775
421.7832, 453.8126
422.2653, 453.6374
422.7474, 452.6920
423.2295, 452.3145
423.7116, 454.7625
424.1938, 459.5631
424.6759, 462.7733
425.1580, 460.7843
425.6401, 454.0655
426.1222, 451.4141
426.6043, 456.9187
427.0865, 461.0712
427.5686, 460.5848
428.0507, 457.6255
428.5328, 455.1104
429.0149, 454.1759
429.4970, 454.4039
429.9792, 455.1276
430.4613, 456.6877
430.9434, 458.0141
431.4255, 459.5143
431.9076, 460.4886
432.3897, 460.2999
432.8719, 459.1777
433.3540, 457.9588
433.8361, 457.3768
434.3182, 457.2603
434.8003, 456.1901
435.2824, 452.7816
435.7646, 450.6181
436.2467, 451.5165
436.7288, 453.5059
437.2109, 454.3861
437.6930, 453.4582
438.1751, 452.0226
438.6573, 451.9493
439.1394, 453.3974
439.6215, 453.9401
440.1036, 452.9969
440.5857, 451.2901
441.0678, 449.0921
441.5500, 446.5375
442.0321, 444.0598
442.5142, 440.6083
442.9963, 437.8569
443.4784, 440.0768
443.9605, 448.1148
444.4427, 454.5030
444.9248, 454.8770
445.4069, 451.4763
445.8890, 448.2457
446.3711, 445.1009
446.8532, 442.7859
447.3354, 442.3207
447.8175, 442.9215
448.2996, 442.8013
448.7817, 441.4969
449.2638, 439.8499
449.7459, 438.5255
450.2281, 437.5440
450.7102, 437.7709
451.1923, 439.9438
451.6744, 442.7067
452.1565, 446.0638
452.6386, 449.3932
453.1208, 450.8461
453.6029, 449.2883
454.0850, 445.8438
454.5671, 443.6266
455.0492, 443.5824
455.5313, 443.5606
456.0135, 443.7327
456.4956, 443.7869
456.9777, 443.3250
457.4598, 442.3961
457.9419, 441.5474
458.4240, 441.4061
458.9062, 441.9955
459.3883, 441.6602
459.8704, 438.5745
460.3525, 436.6431
460.8346, 437.4017
461.3167, 439.5328
461.7989, 441.5401
462.2810, 442.8721
462.7631, 443.4627
463.2452, 443.0398
463.7273, 441.4160
464.2094, 439.8603
464.6916, 438.2728
465.1737, 437.0558
465.6558, 437.0046
466.1379, 437.6447
466.6200, 437.2526
467.1021, 433.3366
467.5843, 428.4713
468.0664, 428.9103
468.5485, 435.6017
469.0306, 440.6402
469.5127, 439.3173
469.9948, 434.8801
470.4770, 432.4957
470.9591, 432.6819
471.4412, 433.6203
471.9233, 434.7287
472.4054, 435.9009
472.8875, 437.0731
473.3697, 438.2664
473.8518, 438.9826
474.3339, 438.7512
474.8160, 437.5263
475.2981, 435.9070
475.7802, 432.8809
476.2624, 430.5337
476.7445, 430.3260
477.2266, 431.3676
477.7087, 431.8792
478.1908, 431.1461
478.6729, 429.9200
479.1551, 429.5567
479.6372, 430.3889
480.1193, 431.3591
480.6014, 433.5347
481.0835, 434.8869
481.5656, 433.4217
482.0478, 430.0863
482.5299, 427.5908
483.0120, 427.8516
483.4941, 430.0392
483.9762, 430.8646
484.4583, 429.1442
484.9405, 428.5124
485.4226, 430.8430
485.9047, 433.6596
486.3868, 435.1323
486.8689, 435.0063
487.3510, 434.0277
487.8332, 431.9101
488.3153, 429.2392
488.7974, 429.1938
489.2795, 432.8052
489.7616, 436.7884
490.2437, 439.6397
490.7259, 441.4494
491.2080, 442.0999
491.6901, 441.0942
492.1722, 439.8391
492.6543, 439.6588
493.1364, 440.0523
493.6186, 439.2591
494.1007, 436.5403
494.5828, 433.7835
495.0649, 433.2980
495.5470, 435.3499
496.0291, 436.9998
496.5113, 438.0129
496.9934, 438.7418
497.4755, 439.8614
497.9576, 440.8610
498.4397, 440.0331
498.9218, 436.4255
499.4040, 431.8922
499.8861, 430.7531
500.3682, 435.6922
500.8503, 439.1842
501.3324, 440.6982
501.8145, 441.4139
502.2967, 441.8686
502.7788, 442.1754
503.2609, 442.2888
503.7430, 442.0981
504.2251, 441.7836
504.7072, 442.1778
505.1894, 443.8463
505.6715, 444.9201
506.1536, 444.5654
506.6357, 443.6823
507.1178, 442.5178
507.5999, 441.2206
508.0821, 440.9499
508.5642, 443.6955
509.0463, 448.1037
509.5284, 449.8367
510.0105, 448.1229
510.4926, 446.0497
510.9748, 445.3688
511.4569, 445.7279
511.9390, 446.2633
512.4211, 447.1709
512.9032, 447.8072
513.3853, 447.3260
513.8674, 446.5004
514.3495, 446.9166
514.8317, 448.9254
515.3138, 451.1411
515.7959, 452.2044
516.2780, 452.0575
516.7601, 451.4362
517.2422, 449.7431
517.7244, 448.3192
518.2065, 447.4355
518.6886, 447.1617
519.1707, 447.8911
519.6528, 449.6805
520.1349, 451.5034
520.6171, 451.6027
521.0992, 449.3871
521.5813, 447.8760
522.0634, 447.5904
522.5455, 447.5428
523.0276, 446.9619
523.5098, 446.4327
523.9919, 447.2184
524.4740, 450.1599
524.9561, 453.8316
525.4382, 456.5236
525.9203, 458.2252
526.4025, 458.2628
526.8846, 455.3848
527.3667, 452.2311
527.8488, 451.8709
528.3309, 453.7926
528.8130, 454.6288
529.2952, 452.1402
529.7773, 449.1106
530.2594, 448.5120
530.7415, 449.8179
531.2236, 450.2148
531.7057, 448.2460
532.1879, 445.3474
532.6700, 444.3593
533.1521, 446.5364
533.6342, 447.8117
534.1163, 447.1979
534.5984, 446.4429
535.0806, 447.1339
535.5627, 448.7254
536.0448, 449.3453
536.5269, 447.7452
537.0090, 444.7658
537.4911, 442.9704
537.9733, 442.7088
538.4554, 442.8626
538.9375, 444.1258
539.4196, 445.0668
539.9017, 444.4010
540.3839, 442.4464
540.8660, 440.8561
541.3481, 441.0909
541.8302, 442.1827
542.3123, 441.7340
542.7944, 439.5323
543.2766, 437.7163
543.7587, 437.3629
544.2408, 437.6426
544.7229, 437.5006
545.2050, 436.9909
545.6871, 435.7307
546.1693, 433.0229
546.6514, 429.8525
547.1335, 426.8314
547.6156, 424.2157
548.0977, 423.0469
548.5798, 424.2147
549.0620, 426.8826
549.5441, 428.2210
550.0262, 427.1202
550.5083, 426.0789
550.9904, 424.1981
551.4725, 423.0615
551.9547, 424.9822
552.4368, 429.0600
552.9189, 431.7055
553.4010, 429.9837
553.8831, 425.0428
554.3652, 421.4737
554.8474, 419.6327
555.3295, 418.3134
555.8116, 417.4183
556.2937, 416.8133
556.7758, 416.5447
557.2579, 416.5712
557.7401, 416.5252
558.2222, 416.3707
558.7043, 415.9385
559.1864, 414.6385
559.6685, 412.4591
560.1506, 410.7943
560.6328, 410.5235
561.1149, 410.9958
561.5970, 410.7054
562.0791, 409.3347
562.5612, 408.3646
563.0433, 408.4119
563.5255, 408.7041
564.0076, 408.4628
564.4897, 407.8044
564.9718, 407.5753
565.4539, 408.4198
565.9360, 409.7503
566.4182, 409.4861
566.9003, 406.4305
567.3824, 404.0228
567.8645, 402.7514
568.3466, 401.9057
568.8287, 401.3542
569.3109, 400.8711
569.7930, 399.7928
570.2751, 396.9894
570.7572, 394.0712
571.2393, 395.3146
571.7214, 401.1893
572.2036, 405.3850
572.6857, 405.2401
573.1678, 403.2388
573.6499, 402.3215
574.1320, 402.4555
574.6141, 402.2978
575.0963, 401.3016
575.5784, 400.0108
576.0605, 398.2780
576.5426, 396.5761
577.0247, 396.8790
577.5068, 400.3549
577.9890, 404.5161
578.4711, 404.4402
578.9532, 397.4439
579.4353, 393.0240
579.9174, 392.2748
580.3995, 392.6511
580.8817, 393.3089
581.3638, 394.1176
581.8459, 395.2552
582.3280, 396.8785
582.8101, 398.2731
583.2922, 398.0079
583.7744, 395.9335
584.2565, 394.3826
584.7386, 393.7370
585.2207, 393.5489
585.7029, 394.0923
586.1850, 394.8330
586.6671, 394.1791
587.1492, 390.0127
587.6313, 386.6836
588.1135, 388.3848
588.5956, 393.2255
589.0777, 397.0323
589.5598, 398.7676
590.0419, 398.8314
590.5240, 397.3904
591.0062, 394.3633
591.4883, 391.8629
591.9704, 389.6758
592.4525, 388.1974
592.9346, 387.7154
593.4167, 387.9026
593.8989, 388.4453
594.3810, 389.2441
594.8631, 390.3092
595.3452, 391.8075
595.8273, 393.6619
596.3094, 395.0222
596.7916, 395.9341
597.2737, 396.2662
597.7558, 395.8915
598.2379, 394.9177
598.7200, 393.0836
599.2021, 390.1983
599.6843, 388.0412
600.1664, 387.6730
600.6485, 388.4869
601.1306, 390.1664
601.6127, 392.4673
602.0948, 393.7076
602.5770, 392.6646
603.0591, 390.3449
603.5412, 389.5731
604.0233, 392.3560
604.5054, 393.3677
604.9875, 390.7798
605.4697, 388.0543
605.9518, 387.6653
606.4339, 389.0240
606.9160, 390.1085
607.3981, 389.7537
607.8802, 388.6987
608.3624, 388.5174
608.8445, 389.3853
609.3266, 389.5873
609.8087, 387.6196
610.2908, 386.5796
610.7729, 389.8998
611.2551, 396.0007
611.7372, 400.1570
612.2193, 400.6773
612.7014, 399.5293
613.1835, 397.3655
613.6656, 394.6810
614.1478, 392.4370
614.6299, 390.8826
615.1120, 390.0712
615.5941, 390.0496
616.0762, 390.8185
616.5583, 392.4643
617.0405, 396.4389
617.5226, 399.4718
618.0047, 400.9114
618.4868, 401.2497
618.9689, 400.5575
619.4510, 399.1039
619.9332, 397.9278
620.4153, 398.2461
620.8974, 399.4671
621.3795, 399.1070
621.8616, 396.7026
622.3438, 395.2653
622.8259, 396.4578
623.3080, 398.7035
623.7901, 399.8363
624.2722, 399.8043
624.7543, 399.8915
625.2365, 401.1342
625.7186, 402.0536
626.2007, 400.8659
626.6828, 398.3098
627.1649, 396.4630
627.6470, 396.1875
628.1292, 397.0595
628.6113, 398.5150
629.0934, 400.7951
629.5755, 402.6428
630.0576, 404.8089
630.5397, 405.6521
631.0219, 403.5349
631.5040, 400.2226
631.9861, 398.2852
632.4682, 398.5021
632.9503, 398.9917
633.4324, 397.2759
633.9146, 394.4503
634.3967, 394.6043
634.8788, 398.4062
635.3609, 401.8373
635.8430, 402.4187
636.3251, 401.0585
636.8073, 400.3379
637.2894, 400.5669
637.7715, 400.5861
638.2536, 399.8028
638.7357, 399.0869
639.2178, 399.2656
639.7000, 400.1153
640.1821, 400.7712
640.6642, 400.7334
641.1463, 400.5219
641.6284, 401.4759
642.1105, 404.0458
642.5927, 405.3103
643.0748, 404.4695
643.5569, 402.9384
644.0390, 400.6495
644.5211, 398.4349
645.0032, 398.3739
645.4854, 402.2310
645.9675, 405.1938
646.4496, 402.6983
646.9317, 397.4983
647.4138, 394.7944
647.8959, 395.2662
648.3781, 396.5904
648.8602, 397.0772
649.3423, 396.9736
649.8244, 397.4299
650.3065, 399.1686
650.7886, 400.3895
651.2708, 401.1728
651.7529, 401.3303
652.2350, 400.4110
652.7171, 398.7448
653.1992, 397.1267
653.6813, 395.8435
654.1635, 395.1264
654.6456, 395.6794
655.1277, 397.3627
655.6098, 398.3983
656.0919, 398.3429
656.5740, 397.8936
657.0562, 397.7342
657.5383, 397.7167
658.0204, 396.9536
658.5025, 394.3581
658.9846, 392.3788
659.4667, 391.7891
659.9489, 392.1331
660.4310, 393.3441
660.9131, 395.1177
661.3952, 396.5533
661.8773, 396.9918
662.3594, 396.6091
662.8416, 395.9321
663.3237, 394.8621
663.8058, 393.8406
664.2879, 392.7474
664.7700, 391.9417
665.2521, 391.6580
665.7343, 391.8484
666.2164, 392.3969
666.6985, 393.9692
667.1806, 394.9654
667.6627, 393.2796
668.1448, 390.4693
668.6270, 390.1082
669.1091, 392.7006
669.5912, 394.8289
670.0733, 393.1882
670.5554, 388.5679
671.0375, 386.7719
671.5197, 390.2808
672.0018, 392.5759
672.4839, 392.2865
672.9660, 391.2592
673.4481, 390.4500
673.9302, 390.0121
674.4124, 390.0274
674.8945, 390.8672
675.3766, 391.6454
675.8587, 391.0601
676.3408, 389.3833
676.8229, 387.8347
677.3051, 386.6600
677.7872, 385.7151
678.2693, 384.8507
678.7514, 384.0887
679.2335, 383.6926
679.7156, 384.4988
680.1978, 384.5114
680.6799, 382.6099
681.1620, 380.4350
681.6441, 379.4363
682.1262, 379.5230
682.6083, 379.7296
683.0905, 379.4448
683.5726, 378.9437
684.0547, 378.8290
684.5368, 379.0989
685.0189, 378.8317
685.5010, 377.2359
685.9832, 376.5499
686.4653, 379.9615
686.9474, 386.1528
687.4295, 388.4056
687.9116, 384.1592
688.3937, 379.2554
688.8759, 373.4557
689.3580, 369.0715
689.8401, 369.7812
690.3222, 374.6399
690.8043, 378.6958
691.2864, 378.6132
691.7686, 376.1008
692.2507, 375.3453
692.7328, 376.6895
693.2149, 377.6693
693.6970, 378.1864
694.1791, 377.9477
694.6613, 376.1758
695.1434, 373.5724
695.6255, 371.6480
696.1076, 370.5594
696.5897, 370.3143
697.0718, 371.9856
697.5540, 373.8719
698.0361, 373.4422
698.5182, 370.9585
699.0003, 368.7890
699.4824, 368.3762
699.9645, 369.2540
700.4467, 370.5938
700.9288, 372.9504
701.4109, 373.6374
701.8930, 371.4984
702.3751, 368.8610
702.8572, 366.6848
703.3394, 364.8794
703.8215, 363.3117
704.3036, 361.9972
704.7857, 360.7835
705.2678, 358.9046
705.7499, 357.4615
706.2321, 358.7399
706.7142, 362.2442
707.1963, 364.7314
707.6784, 364.4703
708.1605, 362.5763
708.6426, 361.2431
709.1248, 360.6531
709.6069, 359.9708
710.0890, 359.0172
710.5711, 358.1804
711.0532, 357.1859
711.5353, 356.5652
712.0175, 357.5084
712.4996, 360.3509
712.9817, 362.1491
713.4638, 359.9662
713.9459, 356.3156
714.4280, 354.5984
714.9102, 354.7441
715.3923, 355.6893
715.8744, 357.0552
716.3565, 358.5221
716.8386, 359.7856
717.3207, 361.0572
717.8029, 360.5443
718.2850, 355.9963
718.7671, 352.4497
719.2492, 351.4285
719.7313, 351.6751
720.2134, 352.2503
720.6956, 352.9042
721.1777, 353.1368
721.6598, 352.2394
722.1419, 351.0424
722.6240, 350.4896
723.1061, 350.5606
723.5883, 351.2828
724.0704, 352.6976
724.5525, 354.3611
725.0346, 356.0509
725.5167, 357.7065
725.9988, 357.2820
726.4810, 352.7469
726.9631, 349.0245
727.4452, 346.3726
727.9273, 344.9459
728.4094, 345.3281
728.8915, 347.0939
729.3737, 348.9095
729.8558, 350.6062
730.3379, 351.3426
730.8200, 349.2005
731.3021, 345.4579
731.7842, 343.9320
732.2664, 345.2603
732.7485, 347.1964
733.2306, 348.2657
733.7127, 348.3652
734.1948, 346.8928
734.6769, 341.4155
735.1591, 338.8601
735.6412, 342.0163
736.1233, 345.2805
736.6054, 345.4599
737.0875, 343.7878
737.5696, 342.9286
738.0518, 343.8536
738.5339, 344.8268
739.0160, 344.3450
739.4981, 343.0142
739.9802, 341.6904
740.4623, 340.5255
740.9445, 340.1407
741.4266, 340.9524
741.9087, 342.2067
742.3908, 342.4164
742.8729, 341.0373
743.3550, 340.9901
743.8372, 344.3048
744.3193, 346.5044
744.8014, 345.7531
745.2835, 343.6625
745.7656, 341.8486
746.2477, 340.5706
746.7299, 339.5515
747.2120, 338.1878
747.6941, 337.3336
748.1762, 338.7414
748.6583, 341.5306
749.1404, 342.7507
749.6226, 341.5814
750.1047, 339.7585
750.5868, 339.0449
751.0689, 339.3299
751.5510, 339.3383
752.0331, 338.7586
752.5153, 338.5047
752.9974, 339.7443
753.4795, 340.4519
753.9616, 338.4894
754.4437, 334.8604
754.9258, 332.9080
755.4080, 334.4500
755.8901, 336.3055
756.3722, 336.4491
756.8543, 335.4758
757.3364, 333.4005
757.8185, 330.8172
758.3007, 330.5750
758.7828, 334.6767
759.2649, 340.4560
759.7470, 341.8274
760.2291, 337.6428
760.7112, 334.6609
761.1934, 333.6731
761.6755, 332.8862
762.1576, 330.9551
762.6397, 328.9834
763.1218, 328.7386
763.6039, 330.6248
764.0861, 331.7534
764.5682, 330.3602
765.0503, 328.5495
765.5324, 327.6516
766.0145, 327.6630
766.4966, 328.7847
766.9788, 330.8903
767.4609, 332.6128
767.9430, 332.3871
768.4251, 330.6646
768.9072, 329.8355
769.3893, 330.1420
769.8715, 330.0549
770.3536, 328.9385
770.8357, 327.6888
771.3178, 327.1515
771.7999, 327.2185
772.2820, 327.3408
772.7642, 327.8536
773.2463, 327.9200
773.7284, 325.9864
774.2105, 324.5369
774.6926, 326.8725
775.1747, 331.7226
775.6569, 334.9713
776.1390, 334.5262
776.6211, 332.1130
777.1032, 329.4133
777.5853, 326.6797
778.0674, 325.5983
778.5496, 326.4698
779.0317, 327.4675
779.5138, 327.8072
779.9959, 327.6023
780.4780, 326.9518
780.9601, 325.6231
781.4423, 324.8119
781.9244, 325.0388
782.4065, 325.1288
782.8886, 324.4426
783.3707, 323.5939
783.8528, 323.5623
784.3350, 324.2437
784.8171, 324.1631
785.2992, 321.6613
785.7813, 318.7851
786.2634, 318.3142
786.7455, 319.7177
787.2277, 321.6567
787.7098, 323.8205
788.1919, 324.9997
788.6740, 324.0386
789.1561, 321.6544
789.6382, 320.5456
790.1204, 321.3994
790.6025, 321.8746
791.0846, 321.5948
791.5667, 321.2056
792.0488, 320.8151
792.5309, 320.5632
793.0131, 320.8609
793.4952, 321.9382
793.9773, 322.3198
794.4594, 320.6825
794.9415, 318.5840
795.4236, 316.7812
795.9058, 315.8228
796.3879, 317.4497
796.8700, 321.8953
797.3521, 325.9272
797.8342, 325.8437
798.3163, 322.6176
798.7985, 321.7454
799.2806, 323.9254
799.7627, 324.0986
800.2448, 319.6982
800.7269, 315.3638
801.2090, 315.7720
801.6912, 319.8895
802.1733, 321.7942
802.6554, 319.6087
803.1375, 318.1713
803.6196, 318.9999
804.1017, 320.2997
804.5839, 321.1819
805.0660, 321.4171
805.5481, 320.5143
806.0302, 318.2808
806.5123, 316.3385
806.9944, 316.7757
807.4766, 318.5904
807.9587, 319.1084
808.4408, 318.4131
808.9229, 318.6918
809.4050, 320.9062
809.8871, 323.3569
810.3693, 324.0950
810.8514, 323.1223
811.3335, 320.9800
811.8156, 315.8525
812.2977, 312.5990
812.7798, 312.5318
813.2620, 313.9279
813.7441, 316.7566
814.2262, 320.0954
814.7083, 321.4059
815.1904, 318.9489
815.6725, 317.0626
816.1547, 319.2755
816.6368, 322.5812
817.1189, 323.4552
817.6010, 322.2092
818.0831, 320.9028
818.5652, 320.4059
819.0474, 319.7117
819.5295, 317.0102
820.0116, 312.6982
820.4937, 310.4748
820.9758, 310.4915
821.4579, 311.9189
821.9401, 315.2885
822.4222, 318.5978
822.9043, 319.6525
823.3864, 318.5115
823.8685, 317.3334
824.3506, 315.2281
824.8328, 314.3368
825.3149, 316.3212
825.7970, 318.4387
826.2791, 318.2704
826.7612, 316.6841
827.2433, 316.1685
827.7255, 317.7502
828.2076, 319.5026
828.6897, 319.9632
829.1718, 319.4502
829.6539, 318.0780
830.1360, 316.1459
830.6182, 314.7893
831.1003, 314.4431
831.5824, 314.7836
832.0645, 315.6316
832.5466, 316.8484
833.0287, 316.3698
833.5109, 313.2217
833.9930, 311.3452
834.4751, 312.1190
834.9572, 313.7079
835.4393, 314.7889
835.9214, 315.4977
836.4036, 316.2320
836.8857, 317.0872
837.3678, 317.8226
837.8499, 318.6492
838.3320, 319.0816
838.8141, 318.7766
839.2963, 317.8123
839.7784, 315.9578
840.2605, 313.2682
840.7426, 311.3781
841.2247, 312.8514
841.7068, 315.6071
842.1890, 314.8712
842.6711, 311.3882
843.1532, 309.3304
843.6353, 309.7813
844.1174, 311.9448
844.5995, 315.6332
845.0817, 319.8731
845.5638, 319.7465
846.0459, 313.0130
846.5280, 308.0899
847.0101, 305.0593
847.4922, 304.6424
847.9744, 309.3041
848.4565, 315.8802
848.9386, 319.5658
849.4207, 319.7483
849.9028, 318.8320
850.3849, 316.1933
850.8671, 313.9896
851.3492, 313.9869
851.8313, 314.9494
852.3134, 315.2268
852.7955, 314.5557
853.2776, 313.5103
853.7598, 312.2528
854.2419, 311.3145
854.7240, 312.1036
855.2061, 313.9645
855.6882, 313.5900
856.1703, 310.6512
856.6525, 309.3775
857.1346, 312.4724
857.6167, 317.3299
858.0988, 318.7762
858.5809, 316.0609
859.0630, 315.0075
859.5452, 316.8476
860.0273, 318.1561
860.5094, 317.4071
860.9915, 316.0928
861.4736, 315.7899
861.9557, 316.2318
862.4379, 315.6492
862.9200, 312.7371
863.4021, 310.1693
863.8842, 308.7558
864.3663, 308.1793
864.8484, 308.4913
865.3306, 309.3537
865.8127, 310.2314
866.2948, 310.9126
866.7769, 311.1523
867.2590, 310.2320
867.7411, 308.8830
868.2233, 308.6122
868.7054, 309.3598
869.1875, 310.8403
869.6696, 312.9856
870.1517, 314.9407
870.6339, 315.9154
871.1160, 316.0025
871.5981, 315.4694
872.0802, 313.9396
872.5623, 313.2421
873.0444, 314.2762
873.5266, 314.9582
874.0087, 313.8317
874.4908, 311.7325
874.9729, 310.2647
875.4550, 309.5849
875.9371, 308.6387
876.4193, 306.1045
876.9014, 304.6912
877.3835, 306.9356
877.8656, 309.9421
878.3477, 310.2266
878.8298, 308.0487
879.3120, 306.3821
879.7941, 306.7874
880.2762, 307.9698
880.7583, 309.0933
881.2404, 309.9490
881.7225, 309.7834
882.2047, 308.8874
882.6868, 308.9413
883.1689, 310.6671
883.6510, 312.5302
884.1331, 312.3732
884.6152, 310.5748
885.0974, 310.3893
885.5795, 312.2485
886.0616, 312.3913
886.5437, 309.3377
887.0258, 305.8523
887.5079, 304.0427
887.9901, 303.6588
888.4722, 303.7152
888.9543, 304.7266
889.4364, 305.1978
889.9185, 304.3166
890.4006, 303.8482
890.8828, 305.2283
891.3649, 306.9779
891.8470, 306.9551
892.3291, 305.0883
892.8112, 303.8661
893.2933, 304.5420
893.7755, 305.8679
894.2576, 308.0031
894.7397, 309.7561
895.2218, 309.0857
895.7039, 306.5254
896.1860, 304.3933
896.6682, 303.7779
897.1503, 304.1555
897.6324, 305.4549
898.1145, 307.1227
898.5966, 306.9568
899.0787, 305.2216
899.5609, 305.5218
900.0430, 309.1777
900.5251, 312.2625
901.0072, 310.7157
901.4893, 305.6574
901.9714, 302.6216
902.4536, 302.2358
902.9357, 301.5600
903.4178, 300.1340
903.8999, 298.7666
904.3820, 297.7986
904.8641, 297.2057
905.3463, 297.0797
905.8284, 297.5324
906.3105, 297.5454
906.7926, 296.2505
907.2747, 295.5365
907.7568, 296.7748
908.2390, 298.1924
908.7211, 297.9051
909.2032, 296.4091
909.6853, 295.6426
910.1674, 296.4238
910.6495, 297.4819
911.1317, 298.1049
911.6138, 298.4653
912.0959, 298.8476
912.5780, 299.1077
913.0601, 298.6499
913.5422, 297.4476
914.0244, 296.5981
914.5065, 297.1675
914.9886, 298.4930
915.4707, 299.2172
915.9528, 299.4127
916.4349, 299.5670
916.9171, 299.7436
917.3992, 299.8055
917.8813, 299.7206
918.3634, 299.2744
918.8455, 297.8740
919.3276, 295.3685
919.8098, 294.7949
920.2919, 297.1860
920.7740, 298.8454
921.2561, 298.5394
921.7382, 297.7289
922.2203, 297.8270
922.7025, 298.4128
923.1846, 297.7239
923.6667, 294.3968
924.1488, 292.7806
924.6309, 294.7202
925.1130, 296.8076
925.5952, 297.8161
926.0773, 297.9101
926.5594, 296.9418
927.0415, 295.1721
927.5236, 294.1672
928.0057, 295.5411
928.4879, 296.4416
928.9700, 293.9518
929.4521, 290.7094
929.9342, 289.8052
930.4163, 290.9730
930.8984, 292.7830
931.3806, 294.6423
931.8627, 296.1553
932.3448, 296.9917
932.8269, 297.1732
933.3090, 296.5020
933.7911, 295.1820
934.2733, 293.8674
934.7554, 292.7442
935.2375, 292.6916
935.7196, 294.4659
936.2017, 296.8691
936.6838, 297.3173
937.1660, 295.7343
937.6481, 293.5298
938.1302, 290.2666
938.6123, 288.5671
939.0944, 289.8933
939.5765, 291.8405
940.0587, 291.8689
940.5408, 290.3179
941.0229, 289.6291
941.5050, 289.8427
941.9871, 290.8449
942.4692, 294.1284
942.9514, 296.4866
943.4335, 295.5589
943.9156, 293.5997
944.3977, 293.7452
944.8798, 296.1270
945.3619, 297.7179
945.8441, 297.6566
946.3262, 296.9955
946.8083, 295.3299
947.2904, 293.8867
947.7725, 294.3062
948.2546, 295.6411
948.7368, 295.5366
949.2189, 293.2552
949.7010, 290.7825
950.1831, 288.9854
950.6652, 287.9949
951.1473, 288.2183
951.6295, 289.2198
952.1116, 290.7616
952.5937, 292.3883
953.0758, 292.4447
953.5579, 289.8310
954.0400, 286.6280
954.5222, 285.9956
955.0043, 286.9813
955.4864, 286.4835
955.9685, 284.6907
956.4506, 283.8549
956.9327, 284.6465
957.4149, 285.9178
957.8970, 286.6317
958.3791, 287.1063
958.8612, 288.6225
959.3433, 291.3384
959.8254, 292.4462
960.3076, 291.2890
960.7897, 290.8560
961.2718, 293.0646
961.7539, 295.1787
962.2360, 293.3636
962.7181, 287.8501
963.2003, 284.1191
963.6824, 282.3595
964.1645, 282.0375
964.6466, 283.9220
965.1287, 286.2198
965.6108, 288.4510
966.0930, 290.2919
966.5751, 291.2399
967.0572, 291.2605
967.5393, 290.6568
968.0214, 288.5010
968.5035, 287.0036
968.9857, 287.0984
969.4678, 287.7587
969.9499, 288.9849
970.4320, 289.9526
970.9141, 288.4389
971.3962, 283.4398
971.8784, 280.4959
972.3605, 283.9533
972.8426, 288.3905
973.3247, 290.6208
973.8068, 291.2621
974.2889, 291.1809
974.7711, 290.4939
975.2532, 288.6302
975.7353, 285.0218
976.2174, 282.3306
976.6995, 283.8664
977.1816, 287.1498
977.6638, 288.8853
978.1459, 289.3910
978.6280, 289.9253
979.1101, 290.7047
979.5922, 290.9291
980.0743, 289.9582
980.5565, 288.5060
981.0386, 287.6075
981.5207, 287.2202
982.0028, 287.1919
982.4849, 287.5231
982.9670, 288.6349
983.4492, 290.6801
983.9313, 291.9190
984.4134, 290.5446
984.8955, 287.3766
985.3776, 284.7820
985.8597, 282.7407
986.3419, 282.1188
986.8240, 283.1909
987.3061, 284.3386
987.7882, 284.8582
988.2703, 285.2379
988.7524, 286.2570
989.2346, 287.7204
989.7167, 287.3300
990.1988, 284.0415
990.6809, 282.0483
991.1630, 281.8083
991.6451, 282.8740
992.1273, 286.0874
992.6094, 289.5437
993.0915, 290.1178
993.5736, 287.6115
994.0557, 285.9921
994.5378, 285.9271
995.0200, 285.7897
995.5021, 285.4428
995.9842, 284.9719
996.4663, 283.9317
996.9484, 283.0030
997.4305, 283.5892
997.9127, 285.9582
998.3948, 287.4973
998.8769, 288.1349
999.3590, 287.4168
999.8411, 283.2110
1000.323, 279.4256
1000.805, 279.7228
1001.287, 282.5910
1001.770, 284.7832
1002.252, 285.6140
1002.734, 285.6092
1003.216, 284.3604
1003.698, 283.0663
1004.180, 282.6519
1004.662, 282.3991
1005.144, 280.9988
1005.627, 279.1037
1006.109, 278.9566
1006.591, 281.4348
1007.073, 283.5700
1007.555, 282.3286
1008.037, 280.7216
1008.519, 282.2180
1009.001, 285.0481
1009.483, 286.6557
1009.966, 286.6369
1010.448, 284.9793
1010.930, 281.5851
1011.412, 278.6312
1011.894, 278.6236
1012.376, 280.2365
1012.858, 281.9538
1013.340, 283.4663
1013.823, 284.0402
1014.305, 283.6575
1014.787, 282.9833
1015.269, 282.4023
1015.751, 281.6514
1016.233, 280.2580
1016.715, 278.4512
1017.197, 276.5779
1017.679, 274.8464
1018.162, 274.0804
1018.644, 274.4837
1019.126, 276.3521
1019.608, 280.0478
1020.090, 283.9920
1020.572, 285.1364
1021.054, 283.9190
1021.536, 283.4692
1022.018, 283.7939
1022.501, 284.5514
1022.983, 285.7023
1023.465, 286.5471
1023.947, 286.6207
1024.429, 285.9019
1024.911, 283.8030
1025.393, 280.2411
1025.875, 279.7823
1026.358, 282.9202
1026.840, 284.9696
1027.322, 284.5297
1027.804, 283.6692
1028.286, 284.1044
1028.768, 285.0366
1029.250, 284.2179
1029.732, 281.2336
1030.214, 279.8943
1030.697, 280.7601
1031.179, 281.4440
1031.661, 281.5922
1032.143, 280.6511
1032.625, 277.5881
1033.107, 273.5960
1033.589, 272.0850
1034.071, 273.3674
1034.553, 275.9421
1035.036, 281.2762
1035.518, 284.6860
1036.000, 284.2343
1036.482, 282.5607
1036.964, 281.2716
1037.446, 280.5310
1037.928, 281.0198
1038.410, 283.5448
1038.893, 284.4254
1039.375, 282.1499
1039.857, 280.6519
1040.339, 281.3756
1040.821, 282.6506
1041.303, 284.0374
1041.785, 284.8920
1042.267, 282.6899
1042.750, 275.0432
1043.232, 272.3023
1043.714, 279.8902
1044.196, 285.1927
1044.678, 283.4651
1045.160, 280.2543
1045.642, 279.7112
1046.124, 280.7778
1046.606, 280.6732
1047.089, 278.9947
1047.571, 277.1535
1048.053, 273.8266
1048.535, 272.3338
1049.017, 275.1453
1049.499, 278.6555
1049.981, 280.1113
1050.463, 280.1705
1050.945, 280.7122
1051.428, 282.1961
1051.910, 282.5135
1052.392, 280.5490
1052.874, 278.3338
1053.356, 275.2093
1053.838, 273.2897
1054.320, 275.6175
1054.802, 279.8999
1055.285, 281.2518
1055.767, 278.7061
1056.249, 276.4012
1056.731, 274.5118
1057.213, 274.2429
1057.695, 278.0834
1058.177, 281.7661
1058.659, 281.5188
1059.141, 278.8705
1059.624, 276.9234
1060.106, 276.2173
1060.588, 275.7602
1061.070, 274.6078
1061.552, 274.4907
1062.034, 277.6788
1062.516, 280.6429
1062.998, 280.1166
1063.480, 277.6155
1063.963, 275.6997
1064.445, 274.8627
1064.927, 274.9978
1065.409, 277.2262
1065.891, 278.8466
1066.373, 278.8448
1066.855, 277.7266
1067.337, 275.1578
1067.820, 272.1055
1068.302, 269.3136
1068.784, 267.2310
1069.266, 267.8782
1069.748, 274.1891
1070.230, 279.5524
1070.712, 280.6777
1071.194, 280.1625
1071.677, 279.4704
1072.159, 278.7008
1072.641, 277.5050
1073.123, 276.0499
1073.605, 275.4896
1074.087, 276.8683
1074.569, 277.6871
1075.051, 276.2703
1075.533, 274.4207
1076.016, 273.5415
1076.498, 272.9423
1076.980, 271.0075
1077.462, 268.2840
1077.944, 267.7870
1078.426, 271.3912
1078.908, 274.1684
1079.390, 272.9183
1079.873, 271.1097
1080.355, 271.0563
1080.837, 271.6942
1081.319, 271.6555
1081.801, 271.0504
1082.283, 270.6746
1082.765, 270.7177
1083.247, 271.2720
1083.729, 272.9727
1084.212, 274.4846
1084.694, 275.5842
1085.176, 275.6560
1085.658, 272.8578
1086.140, 268.8294
1086.622, 267.9246
1087.104, 271.3420
1087.586, 273.4763
1088.068, 270.1040
1088.551, 267.2641
1089.033, 268.5537
1089.515, 271.1260
1089.997, 273.3159
1090.479, 274.5325
1090.961, 273.7005
1091.443, 270.7894
1091.925, 268.5984
1092.408, 268.0663
1092.890, 268.6025
1093.372, 271.5688
1093.854, 273.8831
1094.336, 272.3605
1094.818, 269.2525
1095.300, 268.2568
1095.782, 269.4933
1096.265, 269.8370
1096.747, 266.8340
1097.229, 265.8634
1097.711, 271.2275
1098.193, 276.2925
1098.675, 276.9326
1099.157, 275.2983
1099.639, 273.7808
1100.121, 272.5443
1100.604, 270.9201
1101.086, 268.3852
1101.568, 266.6409
1102.050, 265.8495
1102.532, 266.2885
1103.014, 269.6974
1103.496, 272.9967
1103.978, 273.3124
1104.460, 271.2721
1104.943, 268.4918
1105.425, 264.6776
1105.907, 263.2290
1106.389, 267.1529
1106.871, 270.2134
1107.353, 270.0202
1107.835, 268.9669
1108.317, 268.4110
1108.800, 268.2702
1109.282, 268.5635
1109.764, 269.3417
1110.246, 268.9223
1110.728, 265.6612
1111.210, 263.4365
1111.692, 263.3014
1112.174, 263.6873
1112.656, 263.8648
1113.139, 264.1348
1113.621, 264.9193
1114.103, 266.1835
1114.585, 267.5346
1115.067, 269.7039
1115.549, 270.6071
1116.031, 268.8824
1116.513, 267.8763
1116.995, 270.1610
1117.478, 271.8862
1117.960, 268.3573
1118.442, 261.9108
1118.924, 260.3395
1119.406, 265.5635
1119.888, 268.0439
1120.370, 266.8760
1120.852, 264.7090
1121.335, 261.1877
1121.817, 258.3980
1122.299, 257.8269
1122.781, 258.7082
1123.263, 259.6819
1123.745, 260.7366
1124.227, 262.6302
1124.709, 266.0915
1125.192, 267.6510
1125.674, 266.3975
1126.156, 264.6295
1126.638, 263.2828
1127.120, 262.1463
1127.602, 260.8455
1128.084, 259.6241
1128.566, 259.8282
1129.048, 261.6347
1129.531, 263.3984
1130.013, 265.1282
1130.495, 266.2431
1130.977, 266.5420
1131.459, 266.2913
1131.941, 265.6921
1132.423, 264.7399
1132.905, 263.2264
1133.387, 261.2350
1133.870, 260.0949
1134.352, 259.7784
1134.834, 259.2642
1135.316, 258.3842
1135.798, 259.3062
1136.280, 263.3439
1136.762, 267.6255
1137.244, 268.2807
1137.727, 266.4545
1138.209, 265.3231
1138.691, 264.8233
1139.173, 264.7632
1139.655, 265.0875
1140.137, 265.9962
1140.619, 267.4212
1141.101, 267.5665
1141.583, 264.5225
1142.066, 260.8929
1142.548, 261.6495
1143.030, 264.2407
1143.512, 263.0071
1143.994, 259.1409
1144.476, 255.9177
1144.958, 254.3517
1145.440, 255.5183
1145.922, 260.1444
1146.405, 264.7711
1146.887, 265.6901
1147.369, 265.3526
1147.851, 267.0890
1148.333, 269.0630
1148.815, 267.8318
1149.297, 264.4512
1149.779, 262.1576
1150.262, 261.8960
1150.744, 262.8886
1151.226, 265.7767
1151.708, 268.0031
1152.190, 267.5550
1152.672, 266.1100
1153.154, 264.5700
1153.636, 263.2798
1154.119, 262.7228
1154.601, 262.7516
1155.083, 262.5025
1155.565, 261.5718
1156.047, 260.9402
1156.529, 261.4249
1157.011, 261.6353
1157.493, 260.0412
1157.975, 258.7730
1158.458, 260.3604
1158.940, 263.3691
1159.422, 264.9210
1159.904, 264.7753
1160.386, 263.0818
1160.868, 257.1594
1161.350, 253.8468
1161.832, 255.2290
1162.314, 257.5926
1162.797, 260.4687
1163.279, 262.5673
1163.761, 262.0244
1164.243, 259.5608
1164.725, 258.7036
1165.207, 260.3116
1165.689, 260.3001
1166.171, 257.6667
1166.654, 256.6237
1167.136, 258.8123
1167.618, 260.7105
1168.100, 259.6207
1168.582, 257.8652
1169.064, 259.9215
1169.546, 265.0047
1170.028, 264.8734
1170.510, 259.3223
1170.993, 258.0750
1171.475, 262.2344
1171.957, 265.5126
1172.439, 265.5494
1172.921, 264.3143
1173.403, 263.5386
1173.885, 262.8641
1174.367, 261.1470
1174.849, 259.0195
1175.332, 259.1356
1175.814, 260.8601
1176.296, 261.6135
1176.778, 260.9437
1177.260, 259.1349
1177.742, 256.3449
1178.224, 254.4177
1178.706, 255.3987
1179.189, 257.8907
1179.671, 261.2276
1180.153, 264.1137
1180.635, 264.1045
1181.117, 262.1718
1181.599, 260.6576
1182.081, 260.0358
1182.563, 259.4189
1183.046, 258.2621
1183.528, 257.4986
1184.010, 257.7864
1184.492, 258.5356
1184.974, 259.8402
1185.456, 260.9891
1185.938, 261.2636
1186.420, 260.7941
1186.902, 259.8798
1187.385, 258.5323
1187.867, 257.6345
1188.349, 257.1825
1188.831, 257.4524
1189.313, 259.8454
1189.795, 261.3554
1190.277, 259.0795
1190.759, 256.4541
1191.241, 257.5242
1191.724, 261.0806
1192.206, 262.2002
1192.688, 259.9479
1193.170, 259.4301
1193.652, 261.6330
1194.134, 262.2936
1194.616, 259.8958
1195.098, 258.3418
1195.581, 260.2662
1196.063, 262.6955
1196.545, 261.2345
1197.027, 257.1006
1197.509, 255.3951
1197.991, 256.0599
1198.473, 259.2759
1198.955, 264.6178
1199.438, 266.2338
1199.920, 262.7591
1200.402, 258.6870
1200.884, 256.9452
1201.366, 256.7819
1201.848, 257.8940
1202.330, 259.4200
1202.812, 260.1238
1203.294, 259.7856
1203.776, 256.9429
1204.259, 252.8079
1204.741, 251.2070
1205.223, 252.8926
1205.705, 254.4796
1206.187, 253.8190
1206.669, 253.1386
1207.151, 253.8807
1207.633, 255.3221
1208.116, 257.6275
1208.598, 259.7452
1209.080, 260.2091
1209.562, 259.5599
1210.044, 259.7156
1210.526, 261.1711
1211.008, 261.0944
1211.490, 257.4709
1211.973, 254.4924
1212.455, 252.5963
1212.937, 251.9379
1213.419, 253.4234
1213.901, 255.2550
1214.383, 255.6191
1214.865, 254.8806
1215.347, 254.1318
1215.829, 253.1506
1216.312, 253.9271
1216.794, 256.9725
1217.276, 259.0983
1217.758, 259.6194
1218.240, 260.2420
1218.722, 261.9317
1219.204, 263.0891
1219.686, 261.6277
1220.168, 258.9973
1220.651, 259.5210
1221.133, 262.0622
1221.615, 261.6519
1222.097, 258.8530
1222.579, 256.4763
1223.061, 255.2729
1223.543, 255.7415
1224.025, 258.1037
1224.508, 260.7659
1224.990, 262.9982
1225.472, 264.0271
1225.954, 261.8633
1226.436, 259.0920
1226.918, 258.9642
1227.400, 260.2518
1227.882, 261.0497
1228.365, 260.8320
1228.847, 258.7914
1229.329, 253.7760
1229.811, 250.9145
1230.293, 253.3058
1230.775, 255.7063
1231.257, 256.9058
1231.739, 257.0387
1232.221, 255.1492
1232.703, 253.0366
1233.186, 253.3882
1233.668, 255.6733
1234.150, 256.2351
1234.632, 254.4451
1235.114, 253.3564
1235.596, 252.9859
1236.078, 253.5291
1236.560, 255.2072
1237.043, 256.6408
1237.525, 257.0770
1238.007, 256.4867
1238.489, 254.3857
1238.971, 251.9298
1239.453, 252.5695
1239.935, 255.4950
1240.417, 258.8069
1240.900, 261.7523
1241.382, 262.0847
1241.864, 259.8045
1242.346, 257.2547
1242.828, 255.5417
1243.310, 254.5143
1243.792, 254.0080
1244.274, 254.1833
1244.756, 255.6512
1245.239, 257.3958
1245.721, 258.7533
1246.203, 259.5271
1246.685, 259.2757
1247.167, 258.2287
1247.649, 257.5638
1248.131, 257.4271
1248.613, 257.8483
1249.095, 260.9111
1249.578, 261.1774
1250.060, 255.0100
1250.542, 250.3530
1251.024, 252.2703
1251.506, 255.8344
1251.988, 254.7025
1252.470, 250.6997
1252.952, 251.6456
1253.435, 257.7468
1253.917, 259.9137
1254.399, 258.1602
1254.881, 256.3946
1255.363, 255.4119
1255.845, 255.6074
1256.327, 257.1084
1256.809, 257.7356
1257.292, 254.7824
1257.774, 251.3951
1258.256, 252.1647
1258.738, 255.0279
1259.220, 257.6991
1259.702, 259.9030
1260.184, 261.8993
1260.666, 263.2775
1261.148, 262.6523
1261.630, 259.6335
1262.113, 256.6116
1262.595, 253.7355
1263.077, 252.0595
1263.559, 253.5944
1264.041, 254.2819
1264.523, 250.2449
1265.005, 246.3462
1265.487, 247.3588
1265.970, 251.2804
1266.452, 253.5084
1266.934, 254.0150
1267.416, 255.2927
1267.898, 257.7042
1268.380, 257.6274
1268.862, 254.5258
1269.344, 252.6882
1269.827, 253.5111
1270.309, 255.0117
1270.791, 255.7893
1271.273, 256.1337
1271.755, 256.2874
1272.237, 256.4130
1272.719, 257.1395
1273.201, 257.8585
1273.683, 257.4323
1274.166, 256.0703
1274.648, 254.0350
1275.130, 251.7689
1275.612, 250.9060
1276.094, 252.4707
1276.576, 253.6240
1277.058, 252.7408
1277.540, 251.9251
1278.022, 251.8271
1278.505, 252.2276
1278.987, 253.3205
1279.469, 254.5636
1279.951, 255.2798
1280.433, 255.6466
1280.915, 256.5997
1281.397, 258.4870
1281.879, 258.1769
1282.362, 255.3767
1282.844, 253.6817
1283.326, 253.6739
1283.808, 254.5837
1284.290, 256.0527
1284.772, 257.0295
1285.254, 256.5417
1285.736, 254.5877
##END=



