##NAMES=Childrenite
##RRUFFID=R060146
##IDEAL CHEMISTRY=Fe^2+^AlPO_4_(OH)_2_&#183;H_2_O
##LOCALITY=George and Charlotte mine, Tavistock, Devon, England
##OWNER=RRUFF
##SOURCE=Marcus Origlieri
##DESCRIPTION=Brown transparent pyramidal single crystals
##STATUS=The identification of this mineral is confirmed by single-crystal X-ray diffraction and chemical analysis.
##URL=rruff.info/R060146
##MEASURED CHEMISTRY=(Fe^2+^_0.83_Mn_0.15_Ca_0.02_)_Σ=1_Al_1.00_(P_1.00_O_4_)(OH)_2_·H_2_O
92.02539, 276.1138
92.50751, 277.9900
92.98962, 280.8774
93.47174, 281.3129
93.95386, 280.8951
94.43597, 278.8803
94.91809, 275.1914
95.40021, 270.4903
95.88232, 265.9001
96.36444, 261.7232
96.84656, 257.2601
97.32867, 252.3055
97.81078, 247.1504
98.29290, 242.2265
98.77502, 237.7025
99.25713, 233.2029
99.73925, 229.0869
100.2214, 225.5314
100.7035, 222.1445
101.1856, 218.6831
101.6677, 215.1279
102.1498, 211.6746
102.6320, 208.5526
103.1141, 205.7526
103.5962, 203.3546
104.0783, 201.4417
104.5604, 199.8451
105.0425, 198.3772
105.5247, 196.9498
106.0068, 195.6851
106.4889, 194.8011
106.9710, 194.2881
107.4531, 193.8802
107.9352, 193.4066
108.4173, 192.9031
108.8995, 192.5999
109.3816, 192.6983
109.8637, 192.9456
110.3458, 193.0011
110.8279, 192.7555
111.3100, 192.5897
111.7922, 192.9704
112.2743, 193.9840
112.7564, 195.2856
113.2385, 197.0051
113.7206, 198.8332
114.2027, 200.5240
114.6849, 201.9631
115.1670, 203.1814
115.6491, 204.2402
116.1312, 204.7439
116.6133, 205.5774
117.0954, 207.0786
117.5776, 208.9742
118.0597, 210.8026
118.5418, 212.2073
119.0239, 213.1753
119.5060, 214.8706
119.9881, 218.0754
120.4703, 221.1249
120.9524, 223.6362
121.4345, 225.4619
121.9166, 226.3670
122.3987, 226.0786
122.8808, 224.3555
123.3630, 222.0573
123.8451, 218.7557
124.3272, 215.0903
124.8093, 211.7202
125.2914, 208.7606
125.7735, 205.9381
126.2557, 202.8521
126.7378, 199.5773
127.2199, 196.5972
127.7020, 194.4573
128.1841, 192.8233
128.6662, 190.6311
129.1483, 187.4523
129.6305, 183.9384
130.1126, 180.4729
130.5947, 177.0819
131.0768, 173.9586
131.5589, 171.3044
132.0410, 169.1588
132.5232, 167.1715
133.0053, 165.1776
133.4874, 163.4117
133.9695, 162.0019
134.4516, 160.9767
134.9337, 160.3139
135.4159, 160.0074
135.8980, 160.2501
136.3801, 160.5174
136.8622, 160.9886
137.3443, 161.3648
137.8264, 161.3403
138.3086, 160.8084
138.7907, 159.9501
139.2728, 159.2742
139.7549, 158.9420
140.2370, 158.6138
140.7191, 158.1584
141.2013, 157.7074
141.6834, 157.5064
142.1655, 157.7268
142.6476, 158.2270
143.1297, 158.3678
143.6118, 157.8262
144.0939, 157.3440
144.5761, 157.1951
145.0582, 157.3546
145.5403, 157.7333
146.0224, 158.4169
146.5045, 159.2419
146.9866, 159.7516
147.4688, 159.7841
147.9509, 159.6123
148.4330, 159.4926
148.9151, 159.4415
149.3972, 159.3350
149.8793, 158.8197
150.3615, 158.2527
150.8436, 158.1509
151.3257, 158.9130
151.8078, 160.1486
152.2899, 160.9865
152.7720, 161.3948
153.2542, 161.4069
153.7363, 160.8207
154.2184, 159.9585
154.7005, 159.3119
155.1826, 159.2269
155.6647, 159.6463
156.1469, 159.9915
156.6290, 160.2164
157.1111, 160.3990
157.5932, 160.6555
158.0753, 160.8936
158.5574, 160.8933
159.0396, 160.4039
159.5217, 159.3164
160.0038, 158.7668
160.4859, 159.0527
160.9680, 159.5215
161.4501, 159.9515
161.9323, 160.3157
162.4144, 160.6938
162.8965, 161.1896
163.3786, 161.8886
163.8607, 162.2738
164.3428, 162.0616
164.8250, 161.7595
165.3071, 161.7273
165.7892, 162.0214
166.2713, 162.4782
166.7534, 162.9261
167.2355, 163.3625
167.7177, 163.8093
168.1998, 164.2529
168.6819, 164.7163
169.1640, 165.2399
169.6461, 165.8423
170.1282, 166.4637
170.6104, 166.9638
171.0925, 167.3552
171.5746, 167.9124
172.0567, 168.9227
172.5388, 170.2002
173.0209, 171.1617
173.5031, 171.5344
173.9852, 171.7906
174.4673, 172.5088
174.9494, 173.6204
175.4315, 174.4678
175.9136, 174.4189
176.3958, 173.5086
176.8779, 172.7722
177.3600, 172.3710
177.8421, 172.1897
178.3242, 172.2125
178.8063, 172.4182
179.2885, 172.7068
179.7706, 173.0052
180.2527, 173.3367
180.7348, 173.5734
181.2169, 173.5843
181.6990, 173.5916
182.1812, 173.7234
182.6633, 173.9942
183.1454, 174.3206
183.6275, 174.5567
184.1096, 174.5338
184.5917, 174.8024
185.0738, 175.7164
185.5560, 176.6364
186.0381, 177.0028
186.5202, 176.7174
187.0023, 176.2136
187.4844, 176.2338
187.9665, 177.1897
188.4487, 178.0701
188.9308, 178.7548
189.4129, 179.4196
189.8950, 180.3496
190.3771, 181.6250
190.8592, 182.8904
191.3414, 183.3794
191.8235, 182.4160
192.3056, 181.9568
192.7877, 182.4042
193.2698, 183.4144
193.7519, 184.5524
194.2341, 185.6723
194.7162, 186.8479
195.1983, 188.3349
195.6804, 190.3031
196.1625, 191.9751
196.6446, 193.0371
197.1268, 193.6353
197.6089, 194.0745
198.0910, 194.4004
198.5731, 194.6890
199.0552, 195.0189
199.5373, 195.3551
200.0195, 195.8691
200.5016, 196.7439
200.9837, 197.9164
201.4658, 199.0678
201.9479, 200.1851
202.4300, 201.1534
202.9122, 201.8395
203.3943, 202.2236
203.8764, 202.5302
204.3585, 202.9500
204.8406, 203.4832
205.3227, 203.9434
205.8048, 204.2620
206.2870, 204.5007
206.7691, 204.7110
207.2512, 204.8976
207.7333, 205.0163
208.2154, 205.0238
208.6975, 204.9187
209.1797, 204.7084
209.6618, 204.3598
210.1439, 203.9229
210.6260, 203.4182
211.1081, 202.8490
211.5902, 202.2053
212.0724, 201.5198
212.5545, 200.9030
213.0366, 199.8951
213.5187, 197.9926
214.0008, 196.0622
214.4829, 194.5052
214.9651, 193.4567
215.4472, 192.9228
215.9293, 193.0599
216.4114, 194.6001
216.8935, 195.2519
217.3756, 194.6477
217.8578, 193.5874
218.3399, 192.5173
218.8220, 191.5809
219.3041, 190.7401
219.7862, 189.9488
220.2683, 189.2346
220.7505, 188.5250
221.2326, 187.7750
221.7147, 187.0539
222.1968, 186.4111
222.6789, 185.8592
223.1610, 185.3811
223.6432, 184.9498
224.1253, 184.5508
224.6074, 184.2535
225.0895, 184.0213
225.5716, 183.9065
226.0537, 184.0395
226.5358, 184.4373
227.0180, 184.8488
227.5001, 184.8587
227.9822, 184.2007
228.4643, 184.0305
228.9464, 184.6904
229.4285, 185.7457
229.9107, 186.7805
230.3928, 187.7048
230.8749, 188.5578
231.3570, 189.3760
231.8391, 190.1617
232.3212, 190.9026
232.8034, 191.5400
233.2855, 192.1515
233.7676, 192.8348
234.2497, 193.6104
234.7318, 194.4397
235.2139, 195.2642
235.6961, 196.0880
236.1782, 197.0381
236.6603, 198.2626
237.1424, 199.5969
237.6245, 200.7781
238.1066, 201.7475
238.5888, 202.6734
239.0709, 203.7869
239.5530, 205.0110
240.0351, 206.0926
240.5172, 206.6142
240.9993, 207.0027
241.4815, 208.2029
241.9636, 210.5717
242.4457, 212.9791
242.9278, 214.4250
243.4099, 215.2924
243.8920, 216.3582
244.3742, 217.9740
244.8563, 220.0005
245.3384, 222.1994
245.8205, 224.7229
246.3026, 227.0580
246.7847, 228.7938
247.2668, 230.1813
247.7490, 231.6216
248.2311, 233.3874
248.7132, 235.2744
249.1953, 236.8716
249.6774, 238.2967
250.1595, 239.1227
250.6417, 238.9824
251.1238, 238.2805
251.6059, 237.4992
252.0880, 236.8452
252.5701, 236.2589
253.0522, 235.6524
253.5344, 235.2805
254.0165, 234.3436
254.4986, 232.6684
254.9807, 230.3909
255.4628, 227.5474
255.9449, 224.1101
256.4271, 220.3173
256.9092, 216.6618
257.3913, 213.1025
257.8734, 209.8161
258.3555, 206.8376
258.8376, 204.0904
259.3198, 201.5572
259.8019, 199.2451
260.2840, 196.9903
260.7661, 194.3694
261.2482, 190.8599
261.7303, 188.0225
262.2125, 186.3321
262.6946, 185.0635
263.1767, 183.6470
263.6588, 181.8887
264.1409, 179.9600
264.6230, 178.1525
265.1052, 176.5557
265.5873, 174.9028
266.0694, 173.1584
266.5515, 171.3826
267.0336, 169.6311
267.5157, 167.9176
267.9979, 166.2063
268.4800, 164.3931
268.9621, 162.1773
269.4442, 160.5834
269.9263, 159.8416
270.4084, 159.4199
270.8906, 159.1100
271.3727, 158.8159
271.8548, 158.4155
272.3369, 157.7204
272.8190, 156.5532
273.3011, 155.7146
273.7833, 155.3162
274.2654, 155.0831
274.7475, 154.9102
275.2296, 154.7657
275.7117, 154.6298
276.1938, 154.4699
276.6760, 154.2554
277.1581, 154.2237
277.6402, 154.4952
278.1223, 154.7930
278.6044, 154.8871
279.0865, 154.8662
279.5686, 155.0833
280.0508, 155.8980
280.5329, 157.3359
281.0150, 158.0153
281.4971, 157.2076
281.9792, 156.5418
282.4613, 156.7279
282.9435, 157.5489
283.4256, 158.4140
283.9077, 158.9436
284.3898, 159.1817
284.8719, 159.4941
285.3540, 160.0974
285.8362, 160.5242
286.3183, 160.3766
286.8004, 159.9931
287.2825, 160.0275
287.7646, 160.8523
288.2467, 162.2180
288.7289, 163.2651
289.2110, 163.8874
289.6931, 164.3540
290.1752, 164.4674
290.6573, 164.5061
291.1394, 164.9627
291.6216, 166.0536
292.1037, 167.3714
292.5858, 168.0473
293.0679, 167.5981
293.5500, 167.4379
294.0321, 167.8365
294.5143, 168.5344
294.9964, 169.3372
295.4785, 170.1925
295.9606, 170.9179
296.4427, 171.1858
296.9248, 170.6897
297.4070, 170.7086
297.8891, 171.7491
298.3712, 173.0460
298.8533, 173.9233
299.3354, 174.2799
299.8175, 174.4248
300.2997, 174.6306
300.7818, 174.9007
301.2639, 175.3120
301.7460, 176.3162
302.2281, 177.1059
302.7102, 176.8103
303.1924, 175.5752
303.6745, 174.6440
304.1566, 175.1146
304.6387, 176.8829
305.1208, 177.7185
305.6029, 176.9909
306.0851, 176.0478
306.5672, 175.5206
307.0493, 175.3359
307.5314, 175.1868
308.0135, 174.9121
308.4956, 174.5308
308.9778, 174.1330
309.4599, 173.7473
309.9420, 173.3151
310.4241, 172.9129
310.9062, 172.4451
311.3883, 171.6689
311.8705, 170.4419
312.3526, 169.0015
312.8347, 167.9058
313.3168, 167.2574
313.7989, 166.6295
314.2810, 165.9536
314.7632, 165.2487
315.2453, 164.5249
315.7274, 163.7858
316.2095, 163.0582
316.6916, 162.4021
317.1737, 161.8665
317.6559, 161.1607
318.1380, 160.2999
318.6201, 159.2364
319.1022, 157.7147
319.5843, 155.7503
320.0664, 154.0359
320.5485, 153.3259
321.0306, 153.7286
321.5128, 153.6145
321.9949, 152.6346
322.4770, 151.4505
322.9591, 150.4180
323.4412, 149.5534
323.9233, 148.7594
324.4055, 147.9657
324.8876, 147.1945
325.3697, 146.6233
325.8518, 146.2147
326.3339, 146.0029
326.8160, 146.1758
327.2982, 146.5520
327.7803, 146.7371
328.2624, 146.5382
328.7445, 146.0647
329.2266, 145.5988
329.7087, 145.2057
330.1909, 144.7075
330.6730, 143.8277
331.1551, 142.9112
331.6372, 142.5148
332.1193, 142.8080
332.6014, 143.2953
333.0836, 143.2465
333.5657, 142.4186
334.0478, 141.7398
334.5299, 141.2063
335.0120, 140.8556
335.4941, 140.7807
335.9763, 140.9666
336.4584, 141.2397
336.9405, 141.4647
337.4226, 141.6438
337.9047, 141.6294
338.3868, 141.1349
338.8690, 140.7363
339.3511, 140.8337
339.8332, 141.2995
340.3153, 141.6970
340.7974, 141.7318
341.2795, 141.4817
341.7617, 141.4487
342.2438, 141.9588
342.7259, 142.2711
343.2080, 142.0826
343.6901, 141.6269
344.1722, 141.2557
344.6544, 141.1162
345.1365, 141.1067
345.6186, 141.0145
346.1007, 140.6863
346.5828, 140.5180
347.0649, 140.6821
347.5471, 140.9090
348.0292, 140.9187
348.5113, 140.6786
348.9934, 140.4027
349.4755, 140.3380
349.9576, 140.5000
350.4398, 140.8531
350.9219, 141.6596
351.4040, 142.3899
351.8861, 142.6836
352.3682, 142.6309
352.8503, 142.5790
353.3325, 142.7972
353.8146, 143.2619
354.2967, 143.6106
354.7788, 143.8813
355.2609, 143.9928
355.7430, 143.9872
356.2252, 143.7947
356.7073, 143.2237
357.1894, 142.1751
357.6715, 140.9229
358.1536, 140.1578
358.6357, 140.2659
359.1179, 140.3086
359.5999, 140.2254
360.0821, 140.0858
360.5642, 139.9207
361.0463, 139.7495
361.5284, 139.6192
362.0105, 139.6270
362.4926, 139.8849
362.9748, 139.8366
363.4569, 139.1807
363.9390, 138.5232
364.4211, 138.0317
364.9032, 137.7535
365.3853, 137.7425
365.8675, 138.0692
366.3496, 138.6967
366.8317, 139.2800
367.3138, 139.9299
367.7959, 140.3721
368.2780, 140.3835
368.7602, 140.2206
369.2423, 140.2252
369.7244, 140.5511
370.2065, 141.0057
370.6886, 141.1819
371.1707, 140.9283
371.6529, 140.7754
372.1350, 140.8728
372.6171, 141.0333
373.0992, 141.1345
373.5813, 141.1612
374.0634, 141.1833
374.5456, 141.2306
375.0277, 141.2949
375.5098, 141.5666
375.9919, 142.3094
376.4740, 142.9754
376.9561, 143.3047
377.4383, 143.3685
377.9204, 143.3171
378.4025, 143.1231
378.8846, 142.9378
379.3667, 143.2783
379.8488, 144.4174
380.3310, 145.3725
380.8131, 145.6165
381.2952, 145.5379
381.7773, 145.4743
382.2594, 145.4919
382.7415, 145.6255
383.2237, 145.9561
383.7058, 146.4829
384.1879, 146.9824
384.6700, 147.3669
385.1521, 147.7446
385.6342, 148.2477
386.1164, 148.8611
386.5985, 149.4129
387.0806, 149.7857
387.5627, 150.0259
388.0448, 150.2780
388.5269, 150.5981
389.0091, 150.7735
389.4912, 150.4213
389.9733, 149.8069
390.4554, 149.5387
390.9375, 149.8781
391.4196, 150.4808
391.9018, 151.1208
392.3839, 151.7866
392.8660, 152.3380
393.3481, 152.6738
393.8302, 152.8947
394.3123, 153.2337
394.7945, 153.7765
395.2766, 154.1614
395.7587, 154.0972
396.2408, 153.8191
396.7229, 153.7839
397.2050, 154.1183
397.6872, 154.4495
398.1693, 154.3176
398.6514, 153.6683
399.1335, 153.1999
399.6156, 153.0810
400.0977, 153.0352
400.5798, 152.8604
401.0620, 152.5736
401.5441, 152.3226
402.0262, 152.2273
402.5083, 152.2186
402.9904, 151.9382
403.4725, 151.2512
403.9547, 150.5057
404.4368, 149.8289
404.9189, 149.1051
405.4010, 148.0982
405.8831, 146.7578
406.3652, 145.4025
406.8474, 144.5266
407.3295, 144.3725
407.8116, 144.0252
408.2937, 143.3755
408.7758, 142.6573
409.2579, 141.9714
409.7401, 141.3310
410.2222, 140.7295
410.7043, 140.1679
411.1864, 139.6312
411.6685, 138.9623
412.1506, 137.8596
412.6328, 137.0072
413.1149, 136.7520
413.5970, 136.6836
414.0791, 136.2952
414.5612, 135.4260
415.0433, 134.4119
415.5255, 133.8178
416.0076, 133.8094
416.4897, 133.6378
416.9718, 133.0791
417.4539, 132.5003
417.9360, 132.0406
418.4182, 131.7083
418.9003, 131.4797
419.3824, 131.3604
419.8645, 131.3261
420.3466, 131.2926
420.8287, 131.3376
421.3109, 131.2124
421.7930, 130.6902
422.2751, 130.0099
422.7572, 129.4207
423.2393, 128.9854
423.7214, 128.6763
424.2036, 128.5083
424.6857, 128.4757
425.1678, 128.4082
425.6499, 128.2469
426.1320, 128.0680
426.6141, 127.8945
427.0963, 127.7405
427.5784, 127.7301
428.0605, 128.0465
428.5426, 128.4867
429.0247, 128.6499
429.5068, 128.4907
429.9890, 128.3844
430.4711, 128.6097
430.9532, 128.7516
431.4353, 128.8145
431.9174, 128.5618
432.3995, 128.7166
432.8817, 128.7080
433.3638, 128.6928
433.8459, 128.9050
434.3280, 128.6982
434.8101, 128.9067
435.2922, 128.9431
435.7744, 129.3777
436.2565, 129.9263
436.7386, 130.6741
437.2207, 131.4577
437.7028, 132.2220
438.1849, 132.9272
438.6671, 133.4618
439.1492, 133.7269
439.6313, 133.7847
440.1134, 133.9938
440.5955, 134.4097
441.0776, 134.9160
441.5598, 135.5970
442.0418, 136.3140
442.5240, 136.8375
443.0061, 137.1445
443.4882, 137.5419
443.9703, 138.5042
444.4524, 140.2558
444.9345, 141.5308
445.4167, 141.5428
445.8988, 141.8510
446.3809, 143.1919
446.8630, 145.2215
447.3451, 147.2527
447.8272, 148.8864
448.3094, 150.2650
448.7915, 151.7636
449.2736, 153.4635
449.7557, 155.0436
450.2378, 156.3799
450.7199, 157.6040
451.2021, 158.7548
451.6842, 159.8515
452.1663, 161.0142
452.6484, 162.2650
453.1305, 163.6447
453.6126, 165.3863
454.0948, 167.6762
454.5769, 169.8943
455.0590, 171.3043
455.5411, 172.3901
456.0232, 174.0419
456.5053, 176.5750
456.9875, 179.5506
457.4696, 182.7307
457.9517, 186.0726
458.4338, 189.4324
458.9159, 192.7525
459.3980, 196.0999
459.8802, 199.6306
460.3623, 203.3651
460.8444, 207.0012
461.3265, 210.6600
461.8086, 214.0626
462.2907, 217.0042
462.7729, 219.4564
463.2550, 221.4680
463.7371, 223.1594
464.2192, 224.3926
464.7013, 224.3705
465.1834, 222.5362
465.6656, 220.2581
466.1477, 217.8844
466.6298, 215.0624
467.1119, 211.0670
467.5940, 205.8756
468.0761, 200.6639
468.5583, 196.9373
469.0404, 194.9788
469.5225, 192.4886
470.0046, 188.8514
470.4867, 185.3104
470.9688, 182.2178
471.4510, 179.4858
471.9331, 176.9470
472.4152, 174.5168
472.8973, 172.2566
473.3794, 170.3515
473.8615, 168.9162
474.3437, 167.3536
474.8258, 165.4215
475.3079, 163.4422
475.7900, 161.6039
476.2721, 159.9133
476.7542, 158.2654
477.2364, 156.6517
477.7185, 155.0375
478.2006, 153.2784
478.6827, 151.3423
479.1648, 149.4990
479.6469, 147.9025
480.1291, 146.4882
480.6112, 145.1625
481.0933, 143.9920
481.5754, 142.7220
482.0575, 140.9924
482.5396, 139.1299
483.0217, 137.8064
483.5038, 137.1718
483.9860, 136.7382
484.4681, 136.0746
484.9502, 135.1671
485.4323, 134.1566
485.9144, 132.7947
486.3965, 131.5996
486.8787, 131.0143
487.3608, 130.7035
487.8429, 129.9255
488.3250, 128.3819
488.8071, 126.6845
489.2892, 126.0067
489.7714, 127.0660
490.2535, 127.3639
490.7356, 126.6096
491.2177, 125.5013
491.6998, 124.1175
492.1819, 122.6770
492.6641, 121.5708
493.1462, 121.0688
493.6283, 121.0268
494.1104, 121.0807
494.5925, 121.3423
495.0746, 121.3950
495.5568, 121.0572
496.0389, 120.5313
496.5210, 119.8320
497.0031, 119.0078
497.4852, 118.3547
497.9673, 118.2094
498.4495, 118.3888
498.9316, 118.4025
499.4137, 118.2266
499.8958, 117.9089
500.3779, 117.3477
500.8600, 116.7008
501.3422, 116.3043
501.8243, 116.2762
502.3064, 116.2749
502.7885, 116.1317
503.2706, 115.8994
503.7527, 115.6410
504.2349, 115.3695
504.7170, 115.1689
505.1991, 115.1456
505.6812, 115.3134
506.1633, 115.3704
506.6454, 115.2965
507.1276, 115.1492
507.6097, 114.9232
508.0918, 114.6452
508.5739, 114.2957
509.0560, 113.8780
509.5381, 113.5563
510.0203, 113.6452
510.5024, 114.3435
510.9845, 114.7712
511.4666, 114.7726
511.9487, 114.6550
512.4308, 114.5278
512.9130, 114.3691
513.3951, 114.0948
513.8772, 113.6345
514.3593, 113.1198
514.8414, 112.7918
515.3235, 112.6649
515.8057, 112.6105
516.2878, 112.6551
516.7699, 112.7088
517.2520, 112.7540
517.7341, 112.7677
518.2162, 112.6023
518.6984, 111.9635
519.1805, 111.2429
519.6626, 111.0346
520.1447, 111.3052
520.6268, 111.4610
521.1089, 111.1557
521.5911, 110.6421
522.0732, 110.5660
522.5553, 111.1521
523.0374, 111.4428
523.5195, 111.0091
524.0016, 110.4037
524.4838, 110.1059
524.9659, 110.1290
525.4480, 110.2433
525.9301, 110.2949
526.4122, 110.2869
526.8943, 110.2279
527.3765, 110.0073
527.8586, 109.8999
528.3407, 109.9897
528.8228, 110.1518
529.3049, 110.2779
529.7870, 110.3619
530.2692, 110.4841
530.7513, 110.7701
531.2334, 111.1621
531.7155, 111.2743
532.1976, 110.9581
532.6797, 110.7090
533.1619, 110.8548
533.6440, 111.1161
534.1261, 111.1843
534.6082, 110.9885
535.0903, 110.8145
535.5724, 110.9014
536.0546, 111.1319
536.5367, 111.1840
537.0188, 110.9940
537.5009, 110.9735
537.9830, 111.4640
538.4651, 112.3877
538.9473, 113.2429
539.4294, 114.0516
539.9115, 114.7743
540.3936, 115.4411
540.8757, 115.9995
541.3578, 116.2818
541.8400, 116.3046
542.3221, 116.4178
542.8042, 117.0117
543.2863, 118.0971
543.7684, 118.9914
544.2505, 119.3820
544.7326, 119.9531
545.2147, 121.0969
545.6968, 122.3520
546.1790, 123.1065
546.6611, 123.2399
547.1432, 123.3337
547.6253, 123.9859
548.1074, 125.1702
548.5895, 126.5876
549.0717, 128.3222
549.5538, 130.0766
550.0359, 131.6781
550.5180, 133.1821
551.0001, 134.6439
551.4822, 135.9754
551.9644, 137.4886
552.4465, 139.4979
552.9286, 141.8107
553.4107, 144.1476
553.8928, 146.4627
554.3749, 148.4304
554.8571, 149.6674
555.3392, 150.2027
555.8213, 151.0454
556.3034, 152.9848
556.7855, 154.2301
557.2676, 154.1661
557.7498, 153.2393
558.2319, 151.9894
558.7140, 150.5373
559.1961, 148.6399
559.6782, 145.9019
560.1603, 142.3258
560.6425, 139.0825
561.1246, 136.2970
561.6067, 133.7235
562.0888, 131.4081
562.5709, 129.1711
563.0530, 126.6403
563.5352, 123.7111
564.0173, 121.1502
564.4994, 119.8691
564.9815, 119.4936
565.4636, 118.7271
565.9457, 117.3507
566.4279, 116.0842
566.9100, 115.4789
567.3921, 115.3591
567.8742, 115.0208
568.3563, 114.2036
568.8384, 113.6011
569.3206, 113.4750
569.8027, 113.6781
570.2848, 114.1299
570.7669, 114.7649
571.2490, 115.3488
571.7311, 115.6305
572.2133, 115.6706
572.6954, 116.1304
573.1775, 117.4448
573.6596, 118.5947
574.1417, 119.1604
574.6238, 119.7122
575.1060, 120.9074
575.5881, 122.7254
576.0702, 124.4057
576.5523, 125.1272
577.0344, 125.2231
577.5165, 126.0151
577.9987, 127.6706
578.4808, 129.2750
578.9629, 130.3004
579.4450, 131.1527
579.9271, 132.5111
580.4092, 134.5099
580.8914, 136.1221
581.3735, 136.4769
581.8556, 136.5509
582.3377, 137.5178
582.8198, 139.3276
583.3019, 141.1902
583.7841, 142.6385
584.2662, 143.8691
584.7483, 145.4244
585.2304, 147.3832
585.7125, 149.5799
586.1946, 152.5025
586.6768, 155.2279
587.1589, 156.9510
587.6410, 157.9831
588.1231, 159.2551
588.6052, 161.3396
589.0873, 163.8564
589.5695, 166.0227
590.0516, 167.8177
590.5337, 169.4286
591.0158, 170.8624
591.4979, 172.1557
591.9800, 173.4124
592.4622, 174.5825
592.9443, 175.4349
593.4264, 175.8184
593.9085, 175.9297
594.3906, 175.9682
594.8727, 175.8615
595.3549, 175.4480
595.8370, 174.6882
596.3191, 173.4528
596.8012, 171.4730
597.2833, 168.5666
597.7654, 166.1938
598.2476, 164.6967
598.7297, 163.2537
599.2118, 161.5914
599.6939, 159.8382
600.1760, 158.2031
600.6581, 156.7320
601.1403, 155.2565
601.6224, 153.5982
602.1045, 151.7524
602.5866, 149.7000
603.0687, 147.2535
603.5508, 145.0311
604.0330, 143.4758
604.5151, 142.2720
604.9972, 141.0811
605.4793, 139.8537
605.9614, 138.6791
606.4435, 137.4685
606.9257, 136.3947
607.4078, 135.8629
607.8899, 135.8266
608.3720, 135.5804
608.8541, 134.5951
609.3362, 133.2293
609.8184, 132.6196
610.3005, 133.1959
610.7826, 133.9448
611.2647, 135.1518
611.7468, 136.2765
612.2289, 136.8334
612.7111, 137.0072
613.1932, 137.3322
613.6753, 138.1038
614.1574, 139.2154
614.6395, 140.5930
615.1216, 142.2861
615.6038, 143.6335
616.0859, 144.3197
616.5680, 144.9175
617.0501, 145.9323
617.5322, 147.2643
618.0143, 148.5968
618.4965, 150.0848
618.9786, 151.3107
619.4607, 151.8783
619.9428, 152.0422
620.4249, 152.3308
620.9070, 152.8572
621.3892, 153.2744
621.8713, 153.2651
622.3534, 152.8279
622.8355, 151.8735
623.3176, 149.9160
623.7997, 148.0472
624.2819, 146.4725
624.7640, 145.0320
625.2461, 143.6173
625.7282, 142.2043
626.2103, 140.7705
626.6924, 139.3329
627.1745, 137.8592
627.6566, 136.2103
628.1387, 134.3589
628.6208, 132.7142
629.1030, 131.5623
629.5851, 130.5231
630.0672, 128.9079
630.5493, 126.6807
631.0314, 124.7396
631.5135, 123.3673
631.9957, 122.1663
632.4778, 120.9186
632.9599, 119.6369
633.4420, 118.3522
633.9241, 117.0856
634.4063, 115.8904
634.8884, 114.8458
635.3705, 113.9528
635.8526, 113.1704
636.3347, 112.5256
636.8168, 111.9654
637.2990, 111.6276
637.7811, 111.2813
638.2632, 110.6244
638.7453, 109.5891
639.2274, 108.4324
639.7095, 107.2228
640.1917, 106.0578
640.6738, 105.1228
641.1559, 104.4277
641.6380, 103.8035
642.1201, 103.1515
642.6022, 102.5324
643.0844, 102.1021
643.5665, 102.0977
644.0486, 101.7774
644.5307, 100.8550
645.0128, 99.89684
645.4949, 99.21500
645.9771, 98.73377
646.4592, 98.25490
646.9413, 97.69376
647.4234, 97.09887
647.9055, 96.52538
648.3876, 95.97385
648.8698, 95.44254
649.3519, 94.83095
649.8340, 94.48256
650.3161, 94.92416
650.7982, 95.69418
651.2803, 95.82697
651.7625, 95.02817
652.2446, 94.18779
652.7267, 93.59168
653.2088, 93.16792
653.6909, 92.92710
654.1730, 92.80772
654.6552, 92.57437
655.1373, 92.06705
655.6194, 91.43356
656.1015, 91.08296
656.5836, 91.19481
657.0657, 91.12794
657.5479, 90.62549
658.0300, 90.15247
658.5121, 89.92442
658.9942, 89.86873
659.4763, 89.82980
659.9584, 89.75936
660.4406, 89.68076
660.9227, 89.64463
661.4048, 89.61336
661.8869, 88.91281
662.3690, 89.25774
662.8511, 89.39995
663.3333, 89.35026
663.8154, 88.53415
664.2975, 88.70776
664.7796, 88.48473
665.2617, 88.24545
665.7438, 88.55836
666.2260, 87.85369
666.7081, 88.15784
667.1902, 88.05931
667.6723, 88.14507
668.1544, 87.83173
668.6365, 87.64169
669.1187, 87.85081
669.6008, 87.83891
670.0829, 87.47965
670.5650, 87.57712
671.0471, 86.85854
671.5292, 86.85607
672.0114, 87.16251
672.4935, 87.36081
672.9756, 87.56957
673.4577, 87.58649
673.9398, 86.83694
674.4219, 87.07712
674.9041, 86.92065
675.3862, 86.74792
675.8683, 87.12740
676.3504, 86.48933
676.8325, 86.86004
677.3146, 86.82806
677.7968, 86.98038
678.2789, 86.73362
678.7610, 86.61012
679.2431, 86.88583
679.7252, 86.94051
680.2073, 86.64780
680.6895, 86.81183
681.1716, 86.15982
681.6537, 86.82303
682.1358, 86.63278
682.6179, 86.21517
683.1000, 86.00381
683.5822, 86.02493
684.0643, 86.03915
684.5464, 85.88094
685.0285, 85.64388
685.5106, 85.62849
685.9927, 86.05735
686.4749, 86.18461
686.9570, 85.63412
687.4391, 85.12508
687.9212, 85.01895
688.4033, 85.16635
688.8854, 85.29214
689.3676, 85.17567
689.8497, 85.29147
690.3318, 85.32376
690.8139, 85.27706
691.2960, 84.91477
691.7781, 84.96001
692.2603, 84.84191
692.7424, 84.71714
693.2245, 84.81973
693.7066, 84.50334
694.1887, 84.60233
694.6708, 84.53551
695.1530, 84.54456
695.6351, 84.38931
696.1172, 84.28480
696.5993, 84.06046
697.0814, 84.17900
697.5635, 84.21407
698.0457, 84.17012
698.5278, 83.81059
699.0099, 83.85859
699.4920, 83.74327
699.9741, 83.62125
700.4562, 83.72662
700.9384, 83.41296
701.4205, 83.51472
701.9026, 83.45066
702.3847, 83.46249
702.8668, 83.79940
703.3489, 83.75087
703.8311, 83.60129
704.3132, 83.35707
704.7953, 83.14419
705.2774, 82.71181
705.7595, 82.89030
706.2416, 82.98530
706.7238, 83.00130
707.2059, 82.70171
707.6880, 82.80965
708.1701, 82.75427
708.6522, 82.69219
709.1343, 82.85749
709.6164, 82.60380
710.0985, 82.76549
710.5806, 82.76136
711.0627, 82.83313
711.5449, 82.74056
712.0270, 82.69875
712.5091, 82.97715
712.9912, 83.07297
713.4733, 83.18128
713.9554, 83.27677
714.4376, 83.30531
714.9197, 83.19673
715.4018, 82.98633
715.8839, 82.78305
716.3660, 82.57202
716.8481, 82.50791
717.3303, 82.74153
717.8124, 83.00122
718.2945, 82.91404
718.7766, 82.51318
719.2587, 82.27619
719.7408, 82.47282
720.2230, 82.56944
720.7051, 82.21786
721.1872, 81.73195
721.6693, 81.50424
722.1514, 81.56208
722.6335, 81.65018
723.1157, 81.57656
723.5978, 81.39533
724.0799, 81.23772
724.5620, 81.09952
725.0441, 81.01832
725.5262, 81.00722
726.0084, 81.04694
726.4905, 81.19219
726.9726, 81.38248
727.4547, 81.36961
727.9368, 80.91917
728.4189, 80.61294
728.9011, 80.71908
729.3832, 80.97547
729.8653, 81.22664
730.3474, 81.39887
730.8295, 81.33276
731.3116, 80.91518
731.7938, 80.42957
732.2759, 80.43972
732.7580, 80.95561
733.2401, 81.29405
733.7222, 81.40816
734.2043, 81.31311
734.6865, 80.86649
735.1686, 80.27710
735.6507, 80.04012
736.1328, 80.31713
736.6149, 80.38821
737.0970, 79.74685
737.5792, 79.18813
738.0613, 79.44672
738.5434, 80.16121
739.0255, 80.59367
739.5076, 80.48741
739.9897, 80.08709
740.4719, 79.55692
740.9540, 78.95571
741.4361, 78.76386
741.9182, 79.06910
742.4003, 79.33922
742.8824, 79.36610
743.3646, 79.28165
743.8467, 79.25000
744.3288, 79.27101
744.8109, 79.29295
745.2930, 79.22517
745.7751, 79.25877
746.2573, 79.57763
746.7394, 79.98062
747.2215, 80.29926
747.7036, 80.46293
748.1857, 80.35056
748.6678, 79.77151
749.1500, 79.01601
749.6321, 78.82724
750.1142, 79.20460
750.5963, 79.35959
751.0784, 79.08813
751.5605, 78.70871
752.0427, 78.43806
752.5248, 78.27386
753.0069, 78.19223
753.4890, 78.27090
753.9711, 78.30383
754.4532, 78.06104
754.9354, 77.94360
755.4175, 78.46262
755.8996, 79.31001
756.3817, 79.74797
756.8638, 79.45214
757.3459, 78.87868
757.8281, 78.47808
758.3102, 78.24809
758.7923, 78.27542
759.2744, 78.58459
759.7565, 78.67673
760.2386, 78.20924
760.7208, 77.58286
761.2029, 77.52189
761.6850, 78.22543
762.1671, 78.68630
762.6492, 78.84040
763.1313, 78.84758
763.6135, 78.60759
764.0956, 78.33676
764.5777, 78.33326
765.0598, 78.59235
765.5419, 78.74343
766.0240, 78.42676
766.5062, 77.97349
766.9883, 77.90604
767.4704, 78.12686
767.9525, 78.22283
768.4346, 78.09248
768.9167, 77.90211
769.3989, 77.80070
769.8810, 77.76602
770.3631, 77.66206
770.8452, 77.39672
771.3273, 77.22935
771.8094, 77.27614
772.2916, 77.32427
772.7737, 77.18074
773.2558, 76.96997
773.7379, 76.99162
774.2200, 77.39223
774.7021, 77.75652
775.1843, 77.69994
775.6664, 77.51054
776.1485, 77.68278
776.6306, 78.12389
777.1127, 78.28214
777.5948, 77.90515
778.0770, 77.34794
778.5591, 77.15140
779.0412, 77.33387
779.5233, 77.47324
780.0054, 77.54747
780.4875, 77.62621
780.9697, 77.76790
781.4518, 77.89524
781.9339, 77.89418
782.4160, 77.78188
782.8981, 77.76550
783.3802, 78.08399
783.8624, 78.29298
784.3445, 78.00909
784.8266, 77.57059
785.3087, 77.43973
785.7908, 77.63293
786.2729, 77.84843
786.7551, 77.88057
787.2372, 77.84144
787.7193, 78.04961
788.2014, 78.49725
788.6835, 78.47293
789.1656, 77.73349
789.6478, 77.10121
790.1299, 77.06201
790.6120, 77.47588
791.0941, 78.08034
791.5762, 79.08442
792.0583, 79.65064
792.5404, 79.44785
793.0225, 79.11140
793.5046, 78.80225
793.9868, 78.60571
794.4689, 78.62663
794.9510, 78.87348
795.4331, 79.21962
795.9152, 79.77674
796.3973, 80.22976
796.8795, 79.77403
797.3616, 78.66045
797.8437, 78.26350
798.3258, 78.94872
798.8079, 79.70643
799.2900, 79.60048
799.7722, 78.83298
800.2543, 78.57049
800.7364, 79.24170
801.2185, 79.53793
801.7006, 78.97176
802.1827, 78.39793
802.6649, 78.18291
803.1470, 78.24678
803.6291, 78.47070
804.1112, 78.87959
804.5933, 79.18259
805.0754, 79.13168
805.5576, 78.98571
806.0397, 79.03039
806.5218, 79.19421
807.0039, 79.20602
807.4860, 78.99460
807.9681, 78.88571
808.4503, 79.31433
808.9324, 80.13821
809.4145, 80.59156
809.8966, 80.65182
810.3787, 80.43803
810.8608, 79.79174
811.3430, 79.22291
811.8251, 79.25407
812.3072, 79.79727
812.7893, 80.19860
813.2714, 80.41530
813.7535, 80.55399
814.2357, 80.59084
814.7178, 80.58835
815.1999, 80.60292
815.6820, 80.60793
816.1641, 80.53664
816.6462, 80.36562
817.1284, 80.15767
817.6105, 79.95365
818.0926, 79.76101
818.5747, 79.58376
819.0568, 79.42789
819.5389, 79.34820
820.0211, 79.37009
820.5032, 79.37206
820.9853, 79.19590
821.4674, 78.86048
821.9495, 78.67285
822.4316, 78.71791
822.9138, 78.72342
823.3959, 78.67691
823.8780, 78.54085
824.3601, 78.11954
824.8422, 77.60339
825.3243, 77.55889
825.8065, 78.39939
826.2886, 78.92969
826.7707, 78.35607
827.2528, 77.56371
827.7349, 77.39568
828.2170, 77.64201
828.6992, 77.67655
829.1813, 77.28945
829.6634, 76.82938
830.1455, 76.69612
830.6276, 76.78487
831.1097, 76.69972
831.5919, 76.44626
832.0740, 76.40095
832.5561, 76.74424
833.0382, 76.99961
833.5203, 76.64075
834.0024, 75.78369
834.4846, 75.31055
834.9667, 75.57085
835.4488, 75.64754
835.9309, 75.44860
836.4130, 75.11790
836.8951, 74.46871
837.3773, 73.81965
837.8594, 73.81209
838.3415, 74.67010
838.8236, 75.43052
839.3057, 75.62710
839.7878, 75.47537
840.2700, 74.98503
840.7521, 74.35870
841.2342, 73.99021
841.7163, 73.97932
842.1984, 74.16183
842.6805, 74.40475
843.1627, 74.03766
843.6448, 74.46911
844.1269, 74.69781
844.6090, 74.73466
845.0911, 74.00507
845.5732, 74.26519
846.0554, 74.12867
846.5375, 73.97589
847.0196, 74.37531
847.5017, 73.75719
847.9838, 74.14784
848.4659, 74.13582
848.9481, 74.30808
849.4302, 74.08128
849.9123, 73.97773
850.3944, 74.27339
850.8765, 74.34801
851.3586, 74.07526
851.8408, 74.25925
852.3229, 73.62719
852.8050, 74.39230
853.2871, 74.21935
853.7692, 74.06384
854.2513, 74.00868
854.7335, 73.94936
855.2156, 73.81062
855.6977, 73.70710
856.1798, 73.98020
856.6619, 74.60417
857.1440, 74.64487
857.6262, 73.92653
858.1083, 73.31385
858.5904, 73.18539
859.0725, 73.35041
859.5546, 73.62856
860.0367, 74.06430
860.5189, 74.07674
861.0010, 73.01437
861.4831, 72.43208
861.9652, 72.99413
862.4473, 73.75620
862.9294, 73.97591
863.4116, 73.79190
863.8937, 73.74257
864.3758, 74.01742
864.8579, 74.36581
865.3400, 74.86618
865.8221, 75.18405
866.3043, 74.69083
866.7864, 73.70579
867.2685, 73.17152
867.7506, 73.37560
868.2327, 73.70899
868.7148, 73.49800
869.1970, 72.94421
869.6791, 72.76051
870.1612, 72.94740
870.6433, 73.03135
871.1254, 72.87626
871.6075, 72.80357
872.0897, 73.12953
872.5718, 73.66235
873.0539, 73.75476
873.5360, 73.09728
874.0181, 72.70957
874.5002, 72.55869
874.9823, 72.73097
875.4644, 73.61935
875.9465, 74.62888
876.4286, 75.06667
876.9108, 74.89001
877.3929, 74.60463
877.8750, 74.24381
878.3571, 73.97787
878.8392, 73.98601
879.3214, 74.08794
879.8035, 74.05379
880.2856, 73.89876
880.7677, 73.75835
881.2498, 73.69367
881.7319, 73.74612
882.2141, 74.12138
882.6962, 74.63210
883.1783, 74.54168
883.6604, 73.90828
884.1425, 73.73089
884.6246, 74.40568
885.1068, 75.21905
885.5889, 75.35975
886.0710, 74.93144
886.5531, 74.73356
887.0352, 74.77821
887.5173, 75.04881
887.9995, 75.81866
888.4816, 76.42437
888.9637, 76.30015
889.4458, 75.77614
889.9279, 75.50136
890.4100, 75.51157
890.8922, 75.67656
891.3743, 76.12244
891.8564, 76.55180
892.3385, 76.77394
892.8206, 76.94226
893.3027, 77.32276
893.7849, 77.85934
894.2670, 78.14368
894.7491, 77.87531
895.2312, 77.49727
895.7133, 77.39494
896.1954, 77.46419
896.6776, 77.56848
897.1597, 77.68265
897.6418, 77.83671
898.1239, 78.03784
898.6060, 78.08643
899.0881, 77.62449
899.5703, 76.80480
900.0524, 76.44382
900.5345, 76.55960
901.0166, 76.83109
901.4987, 77.21843
901.9808, 77.62883
902.4630, 78.03381
902.9451, 78.37086
903.4272, 78.38852
903.9093, 77.78935
904.3914, 77.56908
904.8735, 78.21564
905.3557, 78.62962
905.8378, 78.17001
906.3199, 77.45934
906.8020, 77.18819
907.2841, 77.37251
907.7662, 77.56483
908.2484, 77.62092
908.7305, 77.71480
909.2126, 78.17705
909.6947, 78.49718
910.1768, 78.01530
910.6589, 77.00758
911.1411, 76.19485
911.6232, 75.84667
912.1053, 75.78834
912.5874, 76.07754
913.0695, 76.43079
913.5516, 76.32761
914.0338, 75.91058
914.5159, 75.67205
914.9980, 75.71078
915.4801, 75.71419
915.9622, 75.41484
916.4443, 74.98852
916.9265, 74.85722
917.4086, 75.02049
917.8907, 75.32887
918.3728, 75.86208
918.8549, 75.96598
919.3370, 75.19794
919.8192, 74.18220
920.3013, 73.81059
920.7834, 74.10227
921.2655, 74.14278
921.7476, 73.69689
922.2297, 73.40710
922.7119, 73.49028
923.1940, 73.62605
923.6761, 73.47092
924.1582, 73.27913
924.6403, 73.66826
925.1224, 74.88719
925.6046, 75.80922
926.0867, 76.21066
926.5688, 76.18392
927.0509, 75.43423
927.5330, 74.50118
928.0151, 74.06850
928.4973, 74.10727
928.9794, 74.00700
929.4615, 73.32365
929.9436, 72.83064
930.4257, 73.51778
930.9078, 74.62800
931.3900, 74.94094
931.8721, 74.63894
932.3542, 74.63578
932.8363, 75.21546
933.3184, 75.79307
933.8005, 75.74580
934.2827, 75.31416
934.7648, 75.12511
935.2469, 75.15881
935.7290, 75.16648
936.2111, 75.09514
936.6932, 75.35450
937.1754, 76.24779
937.6575, 77.40405
938.1396, 78.14634
938.6217, 78.45034
939.1038, 78.60883
939.5859, 78.46802
940.0681, 78.60609
940.5502, 79.28907
941.0323, 80.13371
941.5144, 80.83420
941.9965, 81.42825
942.4786, 82.09000
942.9608, 82.91904
943.4429, 83.61086
943.9250, 83.81775
944.4071, 84.28001
944.8892, 85.32504
945.3713, 86.76450
945.8535, 88.44791
946.3356, 90.32693
946.8177, 92.22647
947.2998, 94.13344
947.7819, 95.99692
948.2640, 97.54456
948.7462, 99.22529
949.2283, 101.4512
949.7104, 104.1470
950.1925, 107.1145
950.6746, 110.2927
951.1567, 113.6678
951.6389, 117.1412
952.1210, 120.9056
952.6031, 125.2437
953.0852, 130.0818
953.5673, 135.2990
954.0494, 140.8642
954.5316, 146.7131
955.0137, 152.8321
955.4958, 159.3468
955.9779, 166.5903
956.4600, 174.4156
956.9421, 181.8372
957.4242, 188.9464
957.9063, 197.1462
958.3884, 206.8290
958.8705, 217.5995
959.3527, 229.0911
959.8348, 241.3905
960.3169, 254.4077
960.7990, 268.1159
961.2811, 282.9584
961.7632, 298.9180
962.2454, 316.0564
962.7275, 334.7972
963.2096, 353.9600
963.6917, 372.2933
964.1738, 389.8259
964.6559, 407.3126
965.1381, 426.7832
965.6202, 442.7987
966.1023, 456.4718
966.5844, 465.3390
967.0665, 468.3459
967.5486, 465.9640
968.0308, 458.5583
968.5129, 446.1953
968.9950, 430.1667
969.4771, 409.1289
969.9592, 386.5631
970.4413, 362.4327
970.9235, 338.3780
971.4056, 315.4759
971.8877, 293.8642
972.3698, 273.4782
972.8519, 254.3467
973.3340, 236.9059
973.8162, 221.6580
974.2983, 207.9342
974.7804, 195.2412
975.2625, 183.7965
975.7446, 174.1259
976.2267, 166.0552
976.7089, 158.8278
977.1910, 152.1310
977.6731, 146.0221
978.1552, 140.6821
978.6373, 135.9051
979.1194, 131.1737
979.6016, 126.6447
980.0837, 123.0554
980.5658, 120.4576
981.0479, 118.1287
981.5300, 115.5983
982.0121, 112.9585
982.4943, 110.2951
982.9764, 107.6860
983.4585, 105.6242
983.9406, 104.1145
984.4227, 102.6084
984.9048, 100.9297
985.3870, 99.33696
985.8691, 98.06859
986.3512, 97.06527
986.8333, 96.18248
987.3154, 95.46502
987.7975, 94.41785
988.2797, 92.86121
988.7618, 91.61710
989.2439, 91.12783
989.7260, 90.83149
990.2081, 90.02702
990.6902, 88.80473
991.1724, 88.02601
991.6545, 87.98595
992.1366, 87.68926
992.6187, 86.83533
993.1008, 86.07453
993.5829, 85.68431
994.0651, 85.56387
994.5472, 85.64947
995.0293, 85.94627
995.5114, 86.10488
995.9935, 85.92986
996.4756, 85.89465
996.9578, 86.04306
997.4399, 86.36177
997.9220, 87.05554
998.4041, 87.81726
998.8862, 88.09180
999.3683, 87.80773
999.8505, 87.70982
1000.333, 87.93701
1000.815, 88.43867
1001.297, 89.39394
1001.779, 90.43961
1002.261, 91.18781
1002.743, 91.81617
1003.225, 92.75575
1003.707, 94.11389
1004.190, 95.48328
1004.672, 96.53606
1005.154, 97.67015
1005.636, 99.43819
1006.118, 101.2493
1006.600, 102.0944
1007.082, 102.3774
1007.564, 103.4553
1008.046, 105.8356
1008.529, 108.5036
1009.011, 110.6931
1009.493, 112.7263
1009.975, 114.9806
1010.457, 117.3223
1010.939, 119.5122
1011.421, 121.5266
1011.903, 123.5008
1012.385, 125.4933
1012.868, 127.3778
1013.350, 129.1331
1013.832, 130.6173
1014.314, 131.6203
1014.796, 132.1243
1015.278, 132.0065
1015.760, 131.3022
1016.242, 130.3393
1016.725, 129.3102
1017.207, 128.1211
1017.689, 126.6914
1018.171, 124.9790
1018.653, 122.8039
1019.135, 120.2079
1019.617, 117.4056
1020.099, 114.4505
1020.581, 111.3045
1021.064, 107.8782
1021.546, 104.5872
1022.028, 102.3010
1022.510, 100.9337
1022.992, 99.30727
1023.474, 97.40357
1023.956, 95.86958
1024.438, 94.89122
1024.921, 94.05148
1025.403, 92.99673
1025.885, 91.96813
1026.367, 91.59641
1026.849, 91.92947
1027.331, 92.17367
1027.813, 92.32470
1028.295, 92.38786
1028.777, 92.31462
1029.260, 92.31746
1029.742, 92.54710
1030.224, 93.00757
1030.706, 93.75162
1031.188, 94.88570
1031.670, 95.72684
1032.152, 96.18174
1032.634, 96.60287
1033.116, 97.00507
1033.599, 97.57956
1034.081, 98.58611
1034.563, 99.82771
1035.045, 100.6632
1035.527, 100.9086
1036.009, 101.3973
1036.491, 102.2239
1036.973, 103.1317
1037.456, 104.2501
1037.938, 105.1626
1038.420, 105.4318
1038.902, 105.2319
1039.384, 105.1212
1039.866, 104.9865
1040.348, 105.2735
1040.830, 106.4631
1041.313, 107.3860
1041.795, 107.9143
1042.277, 107.9092
1042.759, 106.9145
1043.241, 105.3100
1043.723, 104.2975
1044.205, 104.0121
1044.687, 103.9769
1045.169, 104.5128
1045.651, 104.8475
1046.134, 104.7129
1046.616, 104.3376
1047.098, 103.6937
1047.580, 102.9820
1048.062, 102.8117
1048.544, 103.4795
1049.026, 103.8274
1049.508, 103.4844
1049.991, 103.0857
1050.473, 102.9390
1050.955, 102.7386
1051.437, 102.1273
1051.919, 101.2625
1052.401, 100.6236
1052.883, 100.3823
1053.365, 99.90763
1053.848, 98.80872
1054.330, 97.78503
1054.812, 97.48420
1055.294, 97.03908
1055.776, 95.49195
1056.258, 93.23029
1056.740, 91.27553
1057.222, 89.81174
1057.704, 88.62510
1058.187, 87.91727
1058.669, 87.14019
1059.151, 86.05408
1059.633, 84.81013
1060.115, 83.44230
1060.597, 82.04983
1061.079, 80.82790
1061.561, 79.82631
1062.043, 78.84070
1062.526, 77.79066
1063.008, 76.74969
1063.490, 75.64046
1063.972, 74.64635
1064.454, 74.02415
1064.936, 73.61583
1065.418, 73.08768
1065.900, 72.36803
1066.383, 71.62186
1066.865, 70.92296
1067.347, 70.19886
1067.829, 69.33781
1068.311, 68.50797
1068.793, 67.84695
1069.275, 67.33538
1069.757, 66.91737
1070.240, 66.57959
1070.722, 66.30013
1071.204, 66.18149
1071.686, 65.97207
1072.168, 65.43289
1072.650, 64.86871
1073.132, 64.41762
1073.614, 64.17124
1074.096, 64.40552
1074.578, 65.07211
1075.061, 65.35096
1075.543, 64.62607
1076.025, 63.89113
1076.507, 63.65694
1076.989, 63.56721
1077.471, 63.36583
1077.953, 63.10289
1078.435, 62.90977
1078.918, 62.78454
1079.400, 62.56605
1079.882, 62.04541
1080.364, 61.73687
1080.846, 62.05603
1081.328, 62.49667
1081.810, 62.78074
1082.292, 62.90106
1082.774, 62.80047
1083.257, 62.54760
1083.739, 62.42002
1084.221, 62.51973
1084.703, 62.72715
1085.185, 63.20709
1085.667, 63.53302
1086.149, 63.33724
1086.631, 62.89150
1087.114, 62.40414
1087.596, 61.98047
1088.078, 61.84088
1088.560, 62.12410
1089.042, 62.31641
1089.524, 62.08772
1090.006, 61.84835
1090.488, 61.76400
1090.970, 61.83941
1091.453, 62.10498
1091.935, 62.51945
1092.417, 63.07431
1092.899, 63.81923
1093.381, 64.15247
1093.863, 63.44363
1094.345, 62.79970
1094.827, 62.71171
1095.309, 62.92283
1095.792, 63.41407
1096.274, 63.95112
1096.756, 64.04334
1097.238, 63.61225
1097.720, 63.48357
1098.202, 64.22600
1098.684, 64.87663
1099.166, 65.02925
1099.649, 65.06821
1100.131, 65.24160
1100.613, 65.48801
1101.095, 65.74108
1101.577, 65.97253
1102.059, 66.01236
1102.541, 65.61013
1103.023, 65.35569
1103.505, 65.59391
1103.988, 65.77546
1104.470, 65.48527
1104.952, 65.06261
1105.434, 64.93964
1105.916, 65.07298
1106.398, 65.10059
1106.880, 64.94454
1107.362, 64.73894
1107.844, 64.45000
1108.327, 64.18442
1108.809, 63.96962
1109.291, 63.80440
1109.773, 63.78796
1110.255, 63.80956
1110.737, 63.52470
1111.219, 62.80943
1111.701, 62.18254
1112.184, 61.52684
1112.666, 61.18128
1113.148, 61.72171
1113.630, 62.08429
1114.112, 61.28241
1114.594, 59.94514
1115.076, 59.24833
1115.558, 59.25692
1116.041, 59.28001
1116.523, 59.42013
1117.005, 59.39374
1117.487, 59.04819
1117.969, 58.71006
1118.451, 58.58450
1118.933, 58.49772
1119.415, 58.18177
1119.897, 57.67510
1120.380, 57.41844
1120.862, 57.64746
1121.344, 57.49757
1121.826, 56.60715
1122.308, 56.08679
1122.790, 56.54422
1123.272, 57.11995
1123.754, 56.94837
1124.236, 56.28320
1124.719, 55.98957
1125.201, 56.12663
1125.683, 56.37497
1126.165, 56.85323
1126.647, 56.95005
1127.129, 56.42720
1127.611, 55.79764
1128.093, 55.38053
1128.576, 55.15359
1129.058, 55.10759
1129.540, 55.22980
1130.022, 55.20692
1130.504, 55.01873
1130.986, 54.94184
1131.468, 55.03006
1131.950, 55.08453
1132.432, 54.99920
1132.915, 54.91564
1133.397, 55.03094
1133.879, 55.25172
1134.361, 55.24018
1134.843, 55.00977
1135.325, 54.69628
1135.807, 54.31706
1136.289, 53.95179
1136.771, 53.62848
1137.254, 53.40898
1137.736, 53.33181
1138.218, 53.44237
1138.700, 53.95141
1139.182, 54.69139
1139.664, 55.12512
1140.146, 55.26540
1140.628, 55.17219
1141.111, 54.90036
1141.593, 54.66431
1142.075, 54.57546
1142.557, 54.56054
1143.039, 54.62067
1143.521, 54.63186
1144.003, 54.31540
1144.485, 53.82056
1144.968, 53.27412
1145.450, 52.85715
1145.932, 53.15003
1146.414, 54.24329
1146.896, 55.20586
1147.378, 55.35901
1147.860, 55.17028
1148.342, 54.90950
1148.824, 54.70788
1149.307, 54.74128
1149.789, 54.93989
1150.271, 55.21123
1150.753, 55.50447
1151.235, 55.74398
1151.717, 55.92403
1152.199, 55.92536
1152.681, 55.47430
1153.163, 55.06370
1153.646, 55.09205
1154.128, 55.27003
1154.610, 55.27810
1155.092, 55.17653
1155.574, 55.22778
1156.056, 55.49091
1156.538, 55.51064
1157.020, 54.84207
1157.503, 54.36459
1157.985, 54.46142
1158.467, 54.67405
1158.949, 54.93082
1159.431, 55.00994
1159.913, 54.52164
1160.395, 53.54058
1160.877, 52.78933
1161.359, 52.36804
1161.842, 52.05303
1162.324, 51.85522
1162.806, 51.73932
1163.288, 51.72981
1163.770, 51.75781
1164.252, 51.78632
1164.734, 51.80497
1165.216, 51.77460
1165.698, 51.68187
1166.181, 51.75988
1166.663, 52.12305
1167.145, 52.19146
1167.627, 51.78007
1168.109, 51.46455
1168.591, 51.53046
1169.073, 51.77735
1169.555, 52.00647
1170.037, 52.18077
1170.520, 52.10719
1171.002, 51.79610
1171.484, 51.68482
1171.966, 51.78712
1172.448, 51.84195
1172.930, 51.78083
1173.412, 51.78198
1173.894, 51.99556
1174.377, 52.04626
1174.859, 51.00334
1175.341, 49.52062
1175.823, 49.69718
1176.305, 50.92345
1176.787, 51.27250
1177.269, 50.74270
1177.751, 50.56974
1178.234, 51.15082
1178.716, 51.63697
1179.198, 51.29604
1179.680, 50.74098
1180.162, 50.57115
1180.644, 50.63786
1181.126, 51.00157
1181.608, 51.33400
1182.090, 50.92041
1182.573, 49.89919
1183.055, 49.18916
1183.537, 49.16442
1184.019, 49.24070
1184.501, 49.13468
1184.983, 49.01982
1185.465, 48.92279
1185.947, 48.92450
1186.429, 49.16619
1186.912, 49.52177
1187.394, 49.81781
1187.876, 50.02373
1188.358, 49.99015
1188.840, 49.15948
1189.322, 48.94124
1189.804, 50.21999
1190.286, 51.15243
1190.769, 50.80322
1191.251, 50.19130
1191.733, 50.23961
1192.215, 50.63868
1192.697, 50.55614
1193.179, 49.92154
1193.661, 49.39164
1194.143, 48.92644
1194.625, 48.72558
1195.108, 48.82784
1195.590, 49.21959
1196.072, 49.98498
1196.554, 50.65715
1197.036, 50.69530
1197.518, 50.22791
1198.000, 49.41733
1198.482, 48.38909
1198.964, 48.50244
1199.447, 49.61893
1199.929, 50.03193
1200.411, 49.42368
1200.893, 48.83388
1201.375, 48.86094
1201.857, 49.17597
1202.339, 49.56563
1202.821, 49.84777
1203.304, 49.61833
1203.786, 49.13010
1204.268, 48.77925
1204.750, 48.58749
1205.232, 48.43785
1205.714, 48.33607
1206.196, 48.53524
1206.678, 49.30883
1207.161, 49.94326
1207.643, 49.84459
1208.125, 49.62299
1208.607, 49.74160
1209.089, 49.92768
1209.571, 49.89686
1210.053, 49.67572
1210.535, 49.33960
1211.017, 48.88529
1211.500, 48.62322
1211.982, 48.74230
1212.464, 48.82997
1212.946, 48.76056
1213.428, 48.74752
1213.910, 48.90900
1214.392, 49.10981
1214.874, 49.20149
1215.356, 49.24531
1215.839, 49.46563
1216.321, 49.91430
1216.803, 50.00875
1217.285, 49.69836
1217.767, 49.33004
1218.249, 48.93829
1218.731, 48.78163
1219.213, 49.01331
1219.696, 49.20985
1220.178, 48.84898
1220.660, 48.26061
1221.142, 48.30293
1221.624, 48.74591
1222.106, 48.82473
1222.588, 48.58607
1223.070, 48.26514
1223.552, 47.95782
1224.035, 47.81738
1224.517, 47.91522
1224.999, 48.14912
1225.481, 48.58332
1225.963, 48.94298
1226.445, 48.85215
1226.927, 48.66338
1227.409, 48.89896
1227.891, 49.22958
1228.374, 48.88196
1228.856, 47.98153
1229.338, 47.74323
1229.820, 48.86909
1230.302, 49.34469
1230.784, 47.82048
1231.266, 46.81120
1231.748, 47.71640
1232.231, 48.68586
1232.713, 48.42445
1233.195, 47.67712
1233.677, 47.53280
1234.159, 47.89843
1234.641, 47.87171
1235.123, 47.24468
1235.605, 47.33509
1236.088, 48.37330
1236.570, 48.92188
1237.052, 48.58080
1237.534, 47.93948
1238.016, 47.33080
1238.498, 46.96322
1238.980, 47.24135
1239.462, 47.86340
1239.944, 47.99722
1240.427, 47.79665
1240.909, 47.65296
1241.391, 47.62063
1241.873, 47.81740
1242.355, 48.19041
1242.837, 48.32152
1243.319, 47.96636
1243.801, 47.50340
1244.283, 47.07607
1244.766, 46.81593
1245.248, 46.88631
1245.730, 47.11570
1246.212, 47.42573
1246.694, 47.72217
1247.176, 47.84579
1247.658, 47.80080
1248.140, 47.81388
1248.622, 48.06246
1249.105, 48.05382
1249.587, 47.34877
1250.069, 47.09801
1250.551, 47.98695
1251.033, 48.60357
1251.515, 47.87233
1251.997, 46.72150
1252.479, 46.57552
1252.962, 47.23331
1253.444, 47.59303
1253.926, 47.65812
1254.408, 47.53847
1254.890, 47.24942
1255.372, 46.83588
1255.854, 46.34321
1256.336, 46.10807
1256.818, 46.33161
1257.301, 46.68721
1257.783, 46.91107
1258.265, 46.95298
1258.747, 46.53481
1259.229, 46.04863
1259.711, 46.07634
1260.193, 46.44596
1260.675, 46.85437
1261.157, 47.18801
1261.640, 47.26170
1262.122, 46.94110
1262.604, 46.75038
1263.086, 46.99443
1263.568, 47.19339
1264.050, 47.11958
1264.532, 47.04100
1265.014, 47.09578
1265.497, 47.25383
1265.979, 47.56464
1266.461, 47.92255
1266.943, 47.82372
1267.425, 47.16408
1267.907, 46.84818
1268.389, 46.90205
1268.871, 47.07206
1269.354, 47.31852
1269.836, 47.30219
1270.318, 46.86246
1270.800, 46.52361
1271.282, 46.82123
1271.764, 47.43675
1272.246, 48.04867
1272.728, 48.49242
1273.210, 48.39888
1273.693, 47.95801
1274.175, 47.41034
1274.657, 46.89336
1275.139, 46.64339
1275.621, 46.71401
1276.103, 46.83234
1276.585, 46.92355
1277.067, 46.97779
1277.549, 47.07665
1278.032, 47.03156
1278.514, 46.52431
1278.996, 46.05785
1279.478, 46.12164
1279.960, 46.48169
1280.442, 46.68730
1280.924, 46.74412
1281.406, 46.87187
1281.889, 47.11062
1282.371, 47.06888
1282.853, 46.70155
1283.335, 46.44029
1283.817, 46.40579
1284.299, 46.40232
1284.781, 46.30272
1285.263, 46.19619
1285.745, 46.17006
1286.228, 46.22394
##END=



