##NAMES=Chrysoberyl
##RRUFFID=R110103
##IDEAL CHEMISTRY=BeAl_2_O_4_
##LOCALITY=Synthetic
##OWNER=RRUFF
##SOURCE=Gemological Institute of America
##DESCRIPTION=A cut (1.15ct) alexandrite gemstone, blue-green under fluorescent light, which appears purple under halogen light; flux grown.
##STATUS=The identification of this mineral has been confirmed by single-crystal X-ray diffraction.
##URL=rruff.info/R110103
176.7911, 910.9713
177.2732, 910.9239
177.7553, 909.2139
178.2374, 904.6183
178.7195, 898.6166
179.2017, 891.3972
179.6838, 883.5034
180.1659, 875.8098
180.6480, 868.2675
181.1301, 861.0223
181.6122, 853.9015
182.0944, 847.0304
182.5765, 840.9675
183.0586, 836.2701
183.5407, 832.4721
184.0228, 828.3875
184.5049, 824.0128
184.9871, 819.4039
185.4692, 814.3802
185.9513, 809.0403
186.4334, 804.2779
186.9155, 800.6800
187.3976, 797.9460
187.8798, 795.1882
188.3619, 792.4492
188.8440, 789.3820
189.3261, 785.3080
189.8082, 780.2701
190.2903, 775.3836
190.7725, 770.8604
191.2546, 766.7811
191.7367, 764.3143
192.2188, 763.8338
192.7009, 764.0629
193.1830, 762.8341
193.6652, 760.1530
194.1473, 757.3275
194.6294, 755.4276
195.1115, 754.3017
195.5936, 751.7585
196.0757, 747.2709
196.5579, 742.0190
197.0400, 738.2399
197.5221, 736.0019
198.0042, 734.4030
198.4863, 733.2252
198.9684, 732.4877
199.4506, 731.0411
199.9327, 728.6417
200.4148, 725.7486
200.8969, 723.3493
201.3790, 721.4616
201.8611, 719.8625
202.3433, 718.5085
202.8254, 717.4329
203.3075, 716.2321
203.7896, 714.8925
204.2717, 713.4092
204.7538, 711.7175
205.2360, 709.7301
205.7181, 707.8043
206.2002, 706.1746
206.6823, 704.8771
207.1644, 703.5707
207.6465, 702.2650
208.1287, 700.8992
208.6108, 699.1442
209.0929, 696.7808
209.5750, 694.6042
210.0571, 693.3175
210.5392, 693.2407
211.0214, 692.4373
211.5035, 690.4140
211.9856, 687.6776
212.4677, 686.0692
212.9498, 686.0928
213.4319, 686.1500
213.9141, 685.1680
214.3962, 682.7910
214.8783, 680.7100
215.3604, 679.1632
215.8425, 678.0137
216.3246, 676.7669
216.8067, 675.3528
217.2889, 673.9431
217.7710, 672.4996
218.2531, 670.7133
218.7352, 669.8287
219.2173, 670.2595
219.6994, 671.6550
220.1816, 672.3766
220.6637, 672.2609
221.1458, 671.7469
221.6279, 671.0956
222.1100, 670.3076
222.5921, 669.3508
223.0743, 668.2087
223.5564, 666.9020
224.0385, 665.3924
224.5206, 663.5001
225.0027, 661.7664
225.4848, 660.5801
225.9670, 660.2197
226.4491, 659.8068
226.9312, 659.3243
227.4133, 658.7575
227.8954, 657.8730
228.3775, 656.2408
228.8597, 654.9500
229.3418, 654.8572
229.8239, 656.8710
230.3060, 657.9108
230.7881, 657.3522
231.2702, 655.5805
231.7524, 654.4400
232.2345, 653.9733
232.7166, 654.0492
233.1987, 654.6667
233.6808, 656.1240
234.1629, 657.4257
234.6451, 658.5300
235.1272, 659.4264
235.6093, 660.1615
236.0914, 660.9831
236.5735, 661.3085
237.0556, 660.7041
237.5378, 658.5455
238.0199, 656.8642
238.5020, 655.9471
238.9841, 655.6036
239.4662, 654.9903
239.9483, 653.5900
240.4305, 652.6641
240.9126, 653.0711
241.3947, 655.9516
241.8768, 657.6874
242.3589, 657.9648
242.8410, 657.0164
243.3232, 655.6278
243.8053, 653.9034
244.2874, 651.5847
244.7695, 648.3994
245.2516, 643.5119
245.7337, 639.5492
246.2159, 636.7350
246.6980, 634.8464
247.1801, 633.2683
247.6622, 632.0553
248.1443, 631.0211
248.6264, 630.1201
249.1086, 629.4574
249.5907, 628.6609
250.0728, 627.7463
250.5549, 626.6959
251.0370, 625.3267
251.5191, 623.0341
252.0013, 621.4034
252.4834, 621.3886
252.9655, 624.1511
253.4476, 625.4625
253.9297, 624.8026
254.4118, 622.9362
254.8940, 621.5148
255.3761, 620.6291
255.8582, 620.0197
256.3403, 619.5950
256.8224, 619.3612
257.3046, 619.2988
257.7867, 619.5862
258.2688, 619.9128
258.7509, 619.6229
259.2330, 618.4551
259.7151, 617.1893
260.1973, 616.0994
260.6794, 615.2354
261.1615, 614.3847
261.6436, 613.5034
262.1257, 612.6898
262.6078, 612.1663
263.0900, 612.1049
263.5721, 611.9667
264.0542, 611.5182
264.5363, 610.6774
265.0184, 610.1355
265.5005, 609.9366
265.9827, 609.9963
266.4648, 610.3301
266.9469, 611.2167
267.4290, 611.5507
267.9111, 610.7693
268.3932, 608.7641
268.8754, 607.4163
269.3575, 606.8323
269.8396, 606.7131
270.3217, 606.8002
270.8038, 607.1996
271.2859, 607.3225
271.7681, 606.8665
272.2502, 605.8577
272.7323, 605.2848
273.2144, 605.2576
273.6965, 605.4537
274.1786, 605.5548
274.6608, 605.5529
275.1429, 605.5226
275.6250, 605.5325
276.1071, 605.5485
276.5892, 605.2429
277.0714, 604.5529
277.5535, 603.7385
278.0356, 602.9504
278.5177, 602.1557
278.9998, 601.7350
279.4819, 601.9304
279.9641, 602.5211
280.4462, 602.5250
280.9283, 601.8714
281.4104, 600.9202
281.8925, 599.8746
282.3746, 598.7346
282.8568, 597.7283
283.3389, 596.9678
283.8210, 596.3297
284.3031, 595.2888
284.7852, 593.7688
285.2673, 592.6022
285.7495, 592.6267
286.2316, 593.7421
286.7137, 594.5422
287.1958, 594.8763
287.6779, 594.7903
288.1600, 594.2254
288.6422, 593.1714
289.1243, 592.1158
289.6064, 591.3511
290.0885, 590.8377
290.5706, 590.3866
291.0527, 589.8896
291.5349, 589.6315
292.0170, 590.4264
292.4991, 592.1374
292.9812, 593.4092
293.4633, 593.1655
293.9454, 591.8604
294.4276, 590.9667
294.9097, 590.6286
295.3918, 590.4562
295.8739, 589.9332
296.3560, 589.1386
296.8381, 588.4113
297.3203, 587.7719
297.8024, 587.3457
298.2845, 587.4885
298.7666, 588.2505
299.2487, 589.1755
299.7308, 589.9508
300.2130, 590.5479
300.6951, 590.8746
301.1772, 590.9398
301.6593, 590.6932
302.1414, 589.8461
302.6235, 588.4203
303.1057, 587.1253
303.5878, 586.6736
304.0699, 586.7663
304.5520, 586.8704
305.0341, 586.8338
305.5162, 586.7176
305.9984, 586.6993
306.4805, 586.7281
306.9626, 586.4457
307.4447, 584.9906
307.9268, 583.2692
308.4089, 582.5952
308.8911, 583.9330
309.3732, 585.4335
309.8553, 585.3964
310.3374, 584.2221
310.8195, 583.2585
311.3016, 583.8073
311.7838, 584.6383
312.2659, 584.5573
312.7480, 582.9944
313.2301, 581.3043
313.7122, 580.0731
314.1943, 579.2819
314.6765, 578.9244
315.1586, 579.4064
315.6407, 580.0330
316.1228, 580.3818
316.6049, 580.3683
317.0870, 580.2094
317.5692, 579.8504
318.0513, 579.4412
318.5334, 579.1936
319.0155, 579.6914
319.4976, 579.9265
319.9797, 579.2235
320.4619, 577.4343
320.9440, 576.0529
321.4261, 575.9894
321.9082, 576.3422
322.3903, 576.2585
322.8724, 575.1956
323.3546, 574.0292
323.8367, 572.7630
324.3188, 571.4277
324.8009, 570.6909
325.2830, 571.3719
325.7651, 572.2607
326.2473, 572.5770
326.7294, 571.9219
327.2115, 571.0960
327.6936, 569.8221
328.1757, 568.3290
328.6578, 567.6581
329.1400, 568.6428
329.6221, 569.7822
330.1042, 570.4385
330.5863, 570.1718
331.0684, 570.1586
331.5505, 570.4874
332.0327, 571.0422
332.5148, 571.5671
332.9969, 571.9733
333.4790, 572.4299
333.9611, 572.9987
334.4432, 573.6945
334.9254, 574.4216
335.4075, 575.4599
335.8896, 576.2548
336.3717, 575.8226
336.8538, 573.4103
337.3359, 571.5865
337.8180, 571.1533
338.3001, 572.0896
338.7823, 573.1081
339.2644, 574.2668
339.7465, 575.4005
340.2286, 576.4111
340.7107, 577.3417
341.1928, 577.8552
341.6750, 577.6487
342.1571, 577.0590
342.6392, 577.5129
343.1213, 579.1707
343.6034, 581.0681
344.0855, 582.4724
344.5677, 583.4028
345.0498, 584.5128
345.5319, 585.7295
346.0140, 587.3976
346.4961, 590.3000
346.9782, 594.3910
347.4604, 598.9759
347.9425, 603.8232
348.4246, 608.8671
348.9067, 613.9375
349.3888, 619.1842
349.8709, 623.6804
350.3531, 626.7283
350.8352, 628.1891
351.3173, 627.5530
351.7994, 622.8724
352.2815, 616.5187
352.7636, 612.4323
353.2458, 610.6092
353.7279, 609.7399
354.2100, 609.4856
354.6921, 609.3113
355.1742, 608.2996
355.6563, 606.0593
356.1385, 602.9542
356.6206, 599.0448
357.1027, 594.4333
357.5848, 589.7604
358.0669, 584.9816
358.5490, 580.4891
359.0312, 576.6947
359.5133, 573.7450
359.9954, 571.2709
360.4775, 569.0182
360.9596, 567.0802
361.4417, 565.6815
361.9239, 565.4081
362.4060, 565.3073
362.8881, 564.8065
363.3702, 563.7512
363.8523, 562.8240
364.3344, 562.1045
364.8166, 561.6794
365.2987, 561.6469
365.7808, 562.6318
366.2629, 563.4131
366.7450, 563.5264
367.2271, 562.9691
367.7093, 562.6292
368.1914, 562.6877
368.6735, 562.9367
369.1556, 563.2432
369.6377, 563.5496
370.1198, 563.9720
370.6020, 564.9492
371.0841, 566.1006
371.5662, 565.9895
372.0483, 563.7224
372.5304, 561.2726
373.0125, 559.4600
373.4947, 558.5626
373.9768, 557.5136
374.4589, 556.1720
374.9410, 554.7791
375.4231, 553.7836
375.9052, 553.3398
376.3874, 552.8647
376.8695, 552.1635
377.3516, 551.2460
377.8337, 550.4688
378.3158, 549.7708
378.7979, 549.3821
379.2801, 549.8660
379.7622, 551.3105
380.2443, 551.7834
380.7264, 550.5700
381.2085, 548.4355
381.6906, 547.4141
382.1728, 547.5146
382.6549, 548.0221
383.1370, 548.6479
383.6191, 549.3085
384.1012, 549.7066
384.5833, 549.8302
385.0655, 549.5833
385.5476, 548.3683
386.0297, 546.5306
386.5118, 545.4161
386.9939, 546.3828
387.4760, 548.1634
387.9582, 548.8206
388.4403, 548.3157
388.9224, 547.6611
389.4045, 547.7225
389.8866, 548.1530
390.3687, 548.4513
390.8509, 548.2538
391.3330, 548.1033
391.8151, 548.3568
392.2972, 548.9835
392.7793, 549.8421
393.2614, 551.0175
393.7436, 552.2946
394.2257, 553.5289
394.7078, 554.6237
395.1899, 555.8151
395.6720, 556.8619
396.1541, 558.1049
396.6363, 560.0957
397.1184, 565.8229
397.6005, 569.6547
398.0826, 569.0366
398.5647, 563.2919
399.0468, 557.9391
399.5290, 553.0941
400.0111, 549.0764
400.4932, 546.1402
400.9753, 544.9469
401.4574, 543.9413
401.9395, 542.8968
402.4217, 541.9222
402.9038, 541.6036
403.3859, 542.3080
403.8680, 543.1356
404.3501, 543.7385
404.8322, 544.2184
405.3144, 543.9946
405.7965, 542.7346
406.2786, 541.1687
406.7607, 540.5596
407.2428, 541.0771
407.7249, 541.6147
408.2071, 541.7802
408.6892, 541.6443
409.1713, 541.6534
409.6534, 541.8150
410.1355, 542.0656
410.6176, 542.2767
411.0998, 542.4913
411.5819, 543.0907
412.0640, 544.4083
412.5461, 545.6976
413.0282, 545.4010
413.5103, 543.7903
413.9925, 542.4732
414.4746, 542.5720
414.9567, 543.4888
415.4388, 544.3058
415.9209, 544.9417
416.4030, 545.6244
416.8852, 546.5784
417.3673, 547.7138
417.8494, 548.8830
418.3315, 550.2517
418.8136, 551.4734
419.2957, 552.3434
419.7779, 552.8793
420.2600, 553.2278
420.7421, 553.2056
421.2242, 553.1813
421.7063, 553.6090
422.1884, 555.6552
422.6706, 556.1315
423.1527, 553.0167
423.6348, 547.9572
424.1169, 544.0462
424.5990, 542.4017
425.0811, 541.2711
425.5633, 540.1115
426.0454, 538.8259
426.5275, 538.0596
427.0096, 538.0394
427.4917, 538.3339
427.9738, 538.5620
428.4560, 538.4955
428.9381, 538.8301
429.4202, 539.7509
429.9023, 541.0883
430.3844, 542.4631
430.8665, 544.0873
431.3487, 545.1133
431.8308, 544.7676
432.3129, 542.9441
432.7950, 542.0505
433.2771, 542.2043
433.7592, 543.0715
434.2414, 544.6886
434.7235, 546.9355
435.2056, 548.2276
435.6877, 547.5544
436.1698, 545.9791
436.6519, 545.9235
437.1341, 547.3182
437.6162, 548.7859
438.0983, 548.9851
438.5804, 548.6584
439.0625, 549.1501
439.5446, 550.8163
440.0268, 552.8661
440.5089, 554.7813
440.9910, 556.5602
441.4731, 558.1707
441.9552, 559.6600
442.4373, 560.9401
442.9195, 561.5428
443.4016, 561.5109
443.8837, 562.5018
444.3658, 565.5791
444.8479, 569.7436
445.3300, 574.2419
445.8122, 580.6262
446.2943, 585.1423
446.7764, 587.3055
447.2585, 587.1836
447.7406, 584.9421
448.2227, 579.1943
448.7049, 572.6885
449.1870, 565.7816
449.6691, 558.2401
450.1512, 552.0696
450.6333, 547.4568
451.1154, 544.0963
451.5976, 541.8334
452.0797, 540.9029
452.5618, 540.4295
453.0439, 540.4391
453.5260, 540.7542
454.0081, 540.7879
454.4903, 540.5016
454.9724, 540.2068
455.4545, 539.9352
455.9366, 539.7447
456.4187, 540.1611
456.9008, 541.2712
457.3830, 542.5534
457.8651, 543.3631
458.3472, 543.8170
458.8293, 544.2639
459.3114, 544.8262
459.7935, 545.4175
460.2757, 546.2407
460.7578, 547.1259
461.2399, 547.2699
461.7220, 545.3922
462.2041, 542.9673
462.6862, 541.3146
463.1684, 540.6113
463.6505, 540.7700
464.1326, 542.7778
464.6147, 545.3291
465.0968, 546.7593
465.5789, 545.0784
466.0611, 543.7067
466.5432, 543.5955
467.0253, 544.7285
467.5074, 546.4971
467.9895, 549.7154
468.4716, 552.8549
468.9538, 555.0482
469.4359, 555.2352
469.9180, 556.7349
470.4001, 559.7717
470.8822, 563.9750
471.3643, 568.8860
471.8465, 574.6346
472.3286, 580.6231
472.8107, 586.3776
473.2928, 592.1496
473.7749, 599.8624
474.2570, 609.4597
474.7392, 621.1302
475.2213, 634.6814
475.7034, 650.2792
476.1855, 669.7592
476.6676, 694.0547
477.1497, 719.8149
477.6319, 746.2128
478.1140, 770.9528
478.5961, 786.0485
479.0782, 788.0723
479.5603, 778.6361
480.0424, 755.7266
480.5246, 720.6304
481.0067, 684.8191
481.4888, 651.8317
481.9709, 623.3358
482.4530, 601.3425
482.9352, 587.5023
483.4173, 576.9765
483.8994, 568.9397
484.3815, 562.7487
484.8636, 557.5059
485.3457, 553.1102
485.8279, 549.5320
486.3100, 546.9675
486.7921, 545.4214
487.2742, 544.0143
487.7563, 543.1121
488.2384, 541.9796
488.7206, 540.0848
489.2027, 536.8167
489.6848, 534.4838
490.1669, 533.2184
490.6490, 532.7953
491.1311, 533.0775
491.6133, 534.2196
492.0954, 534.9469
492.5775, 534.6487
493.0596, 533.6879
493.5417, 533.4951
494.0238, 534.0733
494.5060, 534.7677
494.9881, 534.8431
495.4702, 534.6617
495.9523, 535.2244
496.4344, 536.7450
496.9165, 538.5759
497.3987, 540.0041
497.8808, 541.2896
498.3629, 542.8983
498.8450, 544.9421
499.3271, 547.4477
499.8092, 550.4850
500.2914, 554.0505
500.7735, 557.8427
501.2556, 561.4375
501.7377, 565.5464
502.2198, 571.2148
502.7019, 580.7149
503.1841, 586.2768
503.6662, 585.6827
504.1483, 581.1556
504.6304, 575.0966
505.1125, 565.9709
505.5946, 557.9144
506.0768, 551.4932
506.5589, 546.5981
507.0410, 542.6074
507.5231, 539.6083
508.0052, 537.2554
508.4873, 535.1056
508.9695, 533.1741
509.4516, 533.1436
509.9337, 535.3199
510.4158, 538.1347
510.8979, 539.9638
511.3800, 540.9210
511.8622, 541.3295
512.3443, 540.8713
512.8264, 540.5060
513.3085, 541.6917
513.7906, 544.1255
514.2728, 546.7171
514.7549, 548.5860
515.2370, 550.5279
515.7191, 553.1716
516.2012, 556.5875
516.6833, 560.6367
517.1655, 566.4486
517.6476, 572.2741
518.1297, 576.6289
518.6118, 579.4559
519.0939, 580.4949
519.5760, 579.0846
520.0582, 575.8551
520.5403, 572.2667
521.0224, 567.4088
521.5045, 563.5319
521.9866, 561.4811
522.4688, 561.2451
522.9509, 560.7126
523.4330, 559.8184
523.9151, 558.7565
524.3972, 557.8084
524.8793, 556.9880
525.3615, 555.4216
525.8436, 552.9626
526.3257, 549.8842
526.8078, 546.3710
527.2899, 542.5293
527.7720, 538.9078
528.2542, 535.4892
528.7363, 532.6349
529.2184, 531.3438
529.7005, 531.2947
530.1826, 530.6744
530.6647, 527.1178
531.1469, 523.2787
531.6290, 521.5270
532.1111, 522.5099
532.5932, 524.1049
533.0753, 526.6718
533.5574, 528.9275
534.0396, 529.4998
534.5217, 526.5855
535.0038, 523.8330
535.4859, 521.2413
535.9680, 519.1375
536.4501, 518.6816
536.9323, 520.8377
537.4144, 523.0162
537.8965, 524.3256
538.3786, 524.7513
538.8607, 524.6899
539.3428, 523.9871
539.8250, 523.2534
540.3071, 523.0548
540.7892, 523.3519
541.2713, 523.7646
541.7534, 524.1855
542.2355, 524.8344
542.7177, 526.4658
543.1998, 528.6735
543.6819, 530.1182
544.1640, 529.0194
544.6461, 527.6813
545.1282, 528.6935
545.6104, 531.6691
546.0925, 534.1896
546.5746, 534.7146
547.0567, 534.5580
547.5388, 534.5590
548.0209, 534.8604
548.5031, 535.2372
548.9852, 536.0234
549.4673, 536.6817
549.9494, 536.6580
550.4315, 535.9224
550.9136, 534.4808
551.3958, 531.8438
551.8779, 528.6058
552.3600, 526.6625
552.8421, 526.2645
553.3242, 526.2316
553.8063, 526.1534
554.2885, 526.0325
554.7706, 525.9145
555.2527, 525.8096
555.7348, 525.6165
556.2169, 524.9099
556.6990, 524.0624
557.1812, 524.1629
557.6633, 525.5750
558.1454, 527.2184
558.6275, 527.8561
559.1096, 528.0253
559.5917, 528.6849
560.0739, 530.4299
560.5560, 532.5527
561.0381, 534.5675
561.5202, 536.6042
562.0023, 539.3220
562.4844, 543.2211
562.9666, 547.5559
563.4487, 552.0754
563.9308, 556.8348
564.4129, 561.4825
564.8950, 567.0045
565.3771, 571.3239
565.8593, 572.7012
566.3414, 570.7765
566.8235, 567.2460
567.3056, 561.9182
567.7877, 555.5374
568.2698, 549.0646
568.7520, 542.5030
569.2341, 536.8228
569.7162, 532.5142
570.1983, 529.1836
570.6804, 526.0443
571.1625, 523.1472
571.6447, 520.7032
572.1268, 518.9116
572.6089, 517.6078
573.0910, 516.7703
573.5731, 516.4490
574.0552, 516.1096
574.5374, 515.2982
575.0195, 514.4502
575.5016, 513.9670
575.9837, 514.3293
576.4658, 514.5417
576.9479, 514.4102
577.4301, 514.0773
577.9122, 513.7606
578.3943, 513.1476
578.8764, 513.2006
579.3585, 514.5787
579.8406, 516.9208
580.3228, 517.5691
580.8049, 516.3426
581.2870, 514.5872
581.7691, 513.0306
582.2512, 511.6736
582.7333, 510.3600
583.2155, 509.0410
583.6976, 508.2303
584.1797, 508.8780
584.6617, 510.2467
585.1439, 511.1086
585.6260, 511.0378
586.1081, 510.5695
586.5902, 509.8794
587.0723, 509.0384
587.5544, 508.1960
588.0366, 506.7489
588.5187, 505.9294
589.0008, 506.3199
589.4829, 507.8707
589.9650, 509.4267
590.4471, 511.5287
590.9293, 512.8964
591.4114, 512.6896
591.8935, 510.6012
592.3756, 509.0946
592.8577, 508.2347
593.3398, 507.7686
593.8220, 507.3424
594.3041, 507.0178
594.7862, 507.4586
595.2683, 509.1090
595.7504, 510.7221
596.2325, 510.4056
596.7147, 508.7499
597.1968, 507.2922
597.6789, 506.6666
598.1610, 506.5199
598.6431, 506.9619
599.1252, 507.7875
599.6074, 508.0702
600.0895, 506.6839
600.5716, 505.3554
601.0537, 505.0811
601.5358, 506.2836
602.0179, 506.8337
602.5001, 506.4724
602.9822, 505.6856
603.4643, 504.6921
603.9464, 503.2464
604.4285, 502.5289
604.9106, 502.6283
605.3928, 503.4294
605.8749, 505.3290
606.3570, 508.1661
606.8391, 509.6617
607.3212, 508.5959
607.8033, 506.5048
608.2855, 505.6440
608.7676, 505.7749
609.2497, 505.9961
609.7318, 505.6713
610.2139, 505.3348
610.6960, 505.4790
611.1782, 506.1057
611.6603, 506.6573
612.1424, 506.9679
612.6245, 507.1264
613.1066, 507.1461
613.5887, 506.8217
614.0709, 506.8983
614.5530, 507.7514
615.0351, 508.6846
615.5172, 508.9301
615.9993, 508.3382
616.4814, 507.7478
616.9636, 507.2470
617.4457, 506.8541
617.9278, 506.5977
618.4099, 506.4751
618.8920, 506.4742
619.3741, 506.6502
619.8563, 506.8881
620.3384, 507.1550
620.8205, 507.3810
621.3026, 507.2350
621.7847, 506.1331
622.2668, 504.8619
622.7490, 503.8738
623.2311, 503.1728
623.7132, 503.1953
624.1953, 505.0159
624.6774, 506.9608
625.1595, 507.8101
625.6417, 506.6037
626.1238, 506.2815
626.6059, 507.4325
627.0880, 508.8468
627.5701, 508.6525
628.0522, 506.6224
628.5344, 505.2943
629.0165, 505.4079
629.4986, 506.1932
629.9807, 505.8558
630.4628, 504.6888
630.9449, 504.2834
631.4271, 506.1117
631.9092, 508.6412
632.3913, 510.2942
632.8734, 511.1386
633.3555, 511.6774
633.8376, 511.5541
634.3198, 511.6754
634.8019, 512.8217
635.2840, 515.4008
635.7661, 517.2086
636.2482, 517.2513
636.7303, 517.1122
637.2125, 517.8450
637.6946, 519.6202
638.1767, 521.9517
638.6588, 525.1285
639.1409, 528.3320
639.6230, 530.5665
640.1052, 531.8333
640.5873, 531.7274
641.0694, 529.8368
641.5515, 527.0720
642.0336, 524.4942
642.5157, 522.1667
642.9979, 520.2303
643.4800, 518.5585
643.9621, 517.4884
644.4442, 517.6115
644.9263, 518.7095
645.4084, 519.5373
645.8906, 519.8187
646.3727, 519.6279
646.8548, 518.6981
647.3369, 516.8029
647.8190, 516.0829
648.3011, 517.0698
648.7833, 518.4482
649.2654, 519.1747
649.7475, 519.1766
650.2296, 519.5817
650.7117, 520.5052
651.1938, 521.6313
651.6760, 522.5466
652.1581, 523.3341
652.6402, 524.2078
653.1223, 525.1835
653.6044, 526.3412
654.0865, 528.1160
654.5687, 530.0990
655.0508, 531.5178
655.5329, 531.3975
656.0150, 531.3854
656.4971, 532.4288
656.9792, 534.2205
657.4614, 535.1009
657.9435, 534.4918
658.4256, 533.6971
658.9077, 533.1072
659.3898, 532.7119
659.8719, 532.3352
660.3541, 532.0160
660.8362, 531.5302
661.3183, 530.5134
661.8004, 529.1739
662.2825, 528.2761
662.7646, 527.8688
663.2468, 527.8030
663.7289, 528.0953
664.2110, 528.5967
664.6931, 529.1287
665.1752, 529.6833
665.6573, 530.2015
666.1395, 530.5784
666.6216, 530.9473
667.1037, 531.4702
667.5858, 532.0655
668.0679, 532.9665
668.5500, 534.1402
669.0322, 535.6499
669.5143, 537.6505
669.9964, 540.2203
670.4785, 542.9254
670.9606, 545.6190
671.4427, 548.3748
671.9249, 551.2883
672.4070, 554.3824
672.8891, 557.7900
673.3712, 561.2597
