##NAMES=Churchite-(Y)
##RRUFFID=R050421
##IDEAL CHEMISTRY=YPO_4_&#183;2H_2_O
##LOCALITY=Vesuvius, Virginia, USA
##OWNER=RRUFF
##SOURCE=Marcus Origlieri
##DESCRIPTION=Colorless acicular radiating groups
##STATUS=The identification of this mineral is confirmed by single-crystal X-ray diffraction and chemical analysis.
##URL=rruff.info/R050421
##MEASURED CHEMISTRY=(Y_0.94_Er_0.01_Gd_0.01_Dy_0.01_Yb_0.01_Ca_0.02_)_Î£=1.00_(PO_4_)_0.97_&#183;1.28H_2_O
94.721, 72338.023
95.203, 72294.891
95.685, 71960.500
96.167, 71575.344
96.649, 71659.828
97.131, 72221.547
97.614, 72801.477
98.096, 72912.102
98.578, 72587.977
99.060, 72640.742
99.542, 73301.008
100.024, 74422.227
100.506, 75383.297
100.988, 76128.453
101.470, 76845.312
101.953, 77740.328
102.435, 78902.094
102.917, 79929.844
103.399, 80711.109
103.881, 81243.602
104.363, 81764.562
104.845, 82297.547
105.327, 82801.547
105.810, 83236.070
106.292, 83600.594
106.774, 83890.812
107.256, 84106.992
107.738, 84256.156
108.220, 84311.477
108.702, 84195.406
109.184, 83997.750
109.666, 83895.633
110.149, 84055.344
110.631, 84171.883
111.113, 84159.188
111.595, 84045.852
112.077, 83756.320
112.559, 83105.383
113.041, 82244.320
113.523, 81620.000
114.006, 81430.977
114.488, 81412.789
114.970, 81427.688
115.452, 81420.703
115.934, 81478.508
116.416, 81675.961
116.898, 81981.797
117.380, 82228.281
117.862, 82310.703
118.345, 82326.453
118.827, 82356.477
119.309, 82452.109
119.791, 82547.211
120.273, 82590.609
120.755, 82585.594
121.237, 82608.852
121.719, 82678.609
122.201, 82809.367
122.684, 83021.891
123.166, 83374.070
123.648, 83779.289
124.130, 84195.594
124.612, 84624.727
125.094, 84984.398
125.576, 85197.750
126.058, 85286.500
126.540, 85302.906
127.023, 85247.320
127.505, 85142.008
127.987, 85016.500
128.469, 84870.297
128.951, 84714.719
129.433, 84525.273
129.915, 84318.867
130.398, 84192.047
130.880, 84218.242
131.362, 84372.844
131.844, 84593.047
132.326, 84899.422
132.808, 85213.047
133.290, 85370.883
133.772, 85369.344
134.254, 85340.742
134.736, 85365.172
135.219, 85441.789
135.701, 85546.117
136.183, 85676.078
136.665, 85831.352
137.147, 86027.844
137.629, 86279.023
138.111, 86522.117
138.594, 86691.117
139.076, 86765.797
139.558, 86901.820
140.040, 87153.430
140.522, 87498.109
141.004, 87739.969
141.486, 87839.602
141.968, 87908.156
142.450, 88043.711
142.932, 88256.406
143.415, 88525.922
143.897, 88921.969
144.379, 89460.789
144.861, 89661.789
145.343, 89423.406
145.825, 88931.320
146.307, 88382.531
146.790, 87709.031
147.272, 87070.922
147.754, 86523.727
148.236, 86105.477
148.718, 85600.273
149.200, 84936.109
149.682, 84218.570
150.164, 83576.000
150.646, 82995.820
151.128, 82506.773
151.611, 82142.672
152.093, 81957.633
152.575, 81748.492
153.057, 81503.406
153.539, 81234.828
154.021, 80963.859
154.503, 80657.242
154.985, 80374.273
155.468, 80140.750
155.950, 79989.031
156.432, 79823.227
156.914, 79580.859
157.396, 79316.344
157.878, 79139.133
158.360, 79176.578
158.842, 79229.531
159.324, 79191.047
159.807, 78964.453
160.289, 78787.859
160.771, 78749.594
161.253, 78813.281
161.735, 78885.188
162.217, 78989.039
162.699, 79055.930
163.181, 79034.609
163.663, 78862.703
164.146, 78676.000
164.628, 78491.430
165.110, 78327.547
165.592, 78249.797
166.074, 78358.344
166.556, 78534.172
167.038, 78674.180
167.520, 78733.594
168.003, 78770.758
168.485, 78820.180
168.967, 78878.906
169.449, 78932.133
169.931, 78985.602
170.413, 79023.477
170.895, 79022.773
171.377, 78913.711
171.859, 78821.648
172.342, 78888.297
172.824, 79095.633
173.306, 79288.828
173.788, 79332.328
174.270, 79298.242
174.752, 79298.344
175.234, 79400.977
175.717, 79534.844
176.199, 79625.102
176.681, 79673.203
177.163, 79691.742
177.645, 79646.289
178.127, 79578.570
178.609, 79580.703
179.091, 79753.594
179.573, 79985.469
180.055, 80104.539
180.538, 80112.562
181.020, 80047.047
181.502, 79864.781
181.984, 79621.391
182.466, 79492.633
182.948, 79588.344
183.430, 79832.797
183.913, 80085.141
184.395, 80352.633
184.877, 80584.477
185.359, 80663.953
185.841, 80636.727
186.323, 80730.453
186.805, 81145.312
187.287, 81753.773
187.769, 82123.672
188.251, 82234.617
188.734, 82238.883
189.216, 82318.797
189.698, 82465.273
190.180, 82582.219
190.662, 82663.188
191.144, 82691.422
191.626, 82552.359
192.108, 82213.727
192.591, 81817.023
193.073, 81585.062
193.555, 81511.953
194.037, 81391.633
194.519, 81093.453
195.001, 80643.883
195.483, 80297.352
195.965, 80069.352
196.447, 79911.047
196.930, 79759.117
197.412, 79612.688
197.894, 79483.148
198.376, 79363.633
198.858, 79254.930
199.340, 79217.102
199.822, 79254.797
200.304, 79354.281
200.786, 79503.820
201.269, 79708.312
201.751, 79930.141
202.233, 80163.031
202.715, 80408.953
203.197, 80621.156
203.679, 80785.711
204.161, 80937.461
204.643, 81132.047
205.126, 81368.156
205.608, 81644.930
206.090, 81986.891
206.572, 82411.039
207.054, 82745.797
207.536, 82969.703
208.018, 83129.828
208.500, 83314.852
208.982, 83537.719
209.465, 83736.898
209.947, 83902.203
210.429, 84043.547
210.911, 84080.703
211.393, 84015.250
211.875, 83843.977
212.357, 83554.211
212.839, 83128.938
213.322, 82623.109
213.804, 82054.719
214.286, 81416.922
214.768, 80724.492
215.250, 79930.969
215.732, 79121.859
216.214, 78442.438
216.696, 77920.797
217.178, 77461.477
217.661, 77027.047
218.143, 76605.406
218.625, 76252.117
219.107, 75983.359
219.589, 75774.422
220.071, 75589.320
220.553, 75447.367
221.036, 75292.367
221.518, 75103.906
222.000, 74869.867
222.482, 74638.750
222.964, 74393.977
223.446, 74164.656
223.928, 74010.906
224.410, 73951.227
224.892, 73931.438
225.374, 73948.953
225.857, 74031.047
226.339, 74029.906
226.821, 73899.312
227.303, 73715.203
227.785, 73613.461
228.267, 73631.523
228.749, 73664.773
229.231, 73675.883
229.714, 73652.898
230.196, 73656.203
230.678, 73683.453
231.160, 73738.508
231.642, 73830.508
232.124, 73977.211
232.606, 74129.773
233.088, 74274.383
233.570, 74409.383
234.053, 74535.461
234.535, 74647.078
235.017, 74752.609
235.499, 74857.609
235.981, 74932.250
236.463, 75060.180
236.945, 75281.469
237.427, 75617.383
237.910, 75915.344
238.392, 76159.922
238.874, 76375.328
239.356, 76592.859
239.838, 76811.594
240.320, 77032.758
240.802, 77243.750
241.284, 77430.742
241.766, 77703.703
242.249, 78106.703
242.731, 78560.109
243.213, 78966.211
243.695, 79305.406
244.177, 79631.391
244.659, 79951.547
245.141, 80264.977
245.623, 80597.523
246.105, 80976.812
246.588, 81352.844
247.070, 81668.438
247.552, 81904.961
248.034, 82118.992
248.516, 82340.781
248.998, 82578.867
249.480, 82681.648
249.962, 82615.562
250.445, 82451.188
250.927, 82251.898
251.409, 82004.109
251.891, 81749.312
252.373, 81509.523
252.855, 81283.211
253.337, 80982.930
253.819, 80576.406
254.301, 80137.273
254.784, 79733.883
255.266, 79367.109
255.748, 79025.953
256.230, 78707.359
256.712, 78411.797
257.194, 78166.109
257.676, 77984.656
258.158, 77836.547
258.641, 77697.812
259.123, 77565.898
259.605, 77448.523
260.087, 77342.773
260.569, 77251.477
261.051, 77191.242
261.533, 77177.953
262.015, 77169.797
262.497, 77136.203
262.980, 77068.008
263.462, 77001.500
263.944, 76933.633
264.426, 76870.992
264.908, 76849.500
265.390, 76888.969
265.872, 76929.281
266.354, 76939.422
266.837, 76921.117
267.319, 76861.570
267.801, 76745.938
268.283, 76594.953
268.765, 76475.102
269.247, 76396.023
269.729, 76323.094
270.211, 76239.039
270.694, 76142.992
271.176, 76045.430
271.658, 75955.789
272.140, 75857.969
272.622, 75700.930
273.104, 75462.070
273.586, 75244.219
274.068, 75099.570
274.550, 75036.242
275.033, 74981.820
275.515, 74938.633
275.997, 74900.906
276.479, 74862.352
276.961, 74824.773
277.443, 74776.367
277.925, 74707.352
278.407, 74617.773
278.889, 74545.453
279.372, 74497.250
279.854, 74452.719
280.336, 74365.812
280.818, 74227.578
281.300, 74142.812
281.782, 74173.750
282.264, 74301.508
282.746, 74365.047
283.228, 74357.562
283.711, 74310.477
284.193, 74250.609
284.675, 74177.930
285.157, 74107.094
285.639, 74039.320
286.121, 73977.297
286.603, 73926.156
287.086, 73884.781
287.568, 73862.039
288.050, 73872.203
288.532, 73912.797
289.014, 73960.156
289.496, 74017.969
289.978, 74072.602
290.460, 74076.523
290.942, 74029.000
291.424, 73980.938
291.907, 73971.641
292.389, 73996.609
292.871, 74036.344
293.353, 74093.391
293.835, 74154.727
294.317, 74197.258
294.799, 74221.453
295.281, 74234.633
295.764, 74222.992
296.246, 74202.820
296.728, 74231.312
297.210, 74330.344
297.692, 74440.188
298.174, 74473.977
298.656, 74442.883
299.138, 74394.219
299.621, 74330.359
300.103, 74272.328
300.585, 74269.273
301.067, 74331.227
301.549, 74411.188
302.031, 74458.852
302.513, 74483.438
302.995, 74507.609
303.477, 74554.969
303.960, 74602.703
304.442, 74617.273
304.924, 74596.383
305.406, 74567.344
305.888, 74551.211
306.370, 74543.703
306.852, 74537.500
307.334, 74511.180
307.816, 74496.711
308.299, 74534.273
308.781, 74620.523
309.263, 74708.359
309.745, 74778.711
310.227, 74828.312
310.709, 74850.406
311.191, 74812.117
311.673, 74780.367
312.155, 74820.383
312.638, 74914.430
313.120, 74984.852
313.602, 74959.148
314.084, 74908.852
314.566, 74898.406
315.048, 74962.523
315.530, 75030.023
316.013, 75063.961
316.495, 75074.258
316.977, 75085.047
317.459, 75092.047
317.941, 75112.344
318.423, 75166.898
318.905, 75281.148
319.387, 75359.719
319.869, 75330.742
320.352, 75252.992
320.834, 75217.023
321.316, 75302.531
321.798, 75387.008
322.280, 75410.406
322.762, 75355.562
323.244, 75331.953
323.726, 75388.672
324.208, 75475.547
324.691, 75542.281
325.173, 75567.031
325.655, 75585.852
326.137, 75614.070
326.619, 75652.047
327.101, 75657.844
327.583, 75562.953
328.065, 75475.109
328.547, 75466.633
329.030, 75644.602
329.512, 75772.219
329.994, 75814.938
330.476, 75789.617
330.958, 75780.250
331.440, 75783.297
331.922, 75805.992
332.404, 75852.648
332.887, 75932.031
333.369, 76021.031
333.851, 76132.977
334.333, 76248.922
334.815, 76327.750
335.297, 76355.969
335.779, 76369.453
336.261, 76371.094
336.743, 76349.969
337.226, 76384.789
337.708, 76500.047
338.190, 76642.227
338.672, 76744.578
339.154, 76800.203
339.636, 76838.656
340.118, 76853.656
340.600, 76851.562
341.083, 76920.477
341.565, 77078.398
342.047, 77252.711
342.529, 77368.227
343.011, 77421.547
343.493, 77485.273
343.975, 77574.133
344.457, 77680.172
344.940, 77789.812
345.422, 77903.359
345.904, 78003.430
346.386, 78049.891
346.868, 78060.219
347.350, 78141.094
347.832, 78315.781
348.314, 78533.383
348.796, 78694.039
349.279, 78811.000
349.761, 78979.711
350.243, 79304.391
350.725, 79705.523
351.207, 80004.953
351.689, 80182.609
352.171, 80355.273
352.653, 80638.789
353.135, 81009.727
353.618, 81407.117
354.100, 81804.797
354.582, 82212.180
355.064, 82651.102
355.546, 83117.398
356.028, 83582.398
356.510, 84023.500
356.992, 84452.281
357.474, 84881.570
357.957, 85307.281
358.439, 85745.523
358.921, 86237.227
359.403, 86756.961
359.885, 87225.422
360.367, 87589.742
360.849, 87897.172
361.332, 88186.922
361.814, 88480.523
362.296, 88710.820
362.778, 88871.438
363.260, 88949.930
363.742, 88927.328
364.224, 88709.633
364.706, 88468.711
365.188, 88279.531
365.671, 88154.398
366.153, 87991.547
366.635, 87707.383
367.117, 87410.102
367.599, 87190.812
368.081, 87116.117
368.563, 87056.852
369.045, 87022.977
369.527, 87004.562
370.010, 86917.609
370.492, 86699.852
370.974, 86471.281
371.456, 86292.273
371.938, 86214.680
372.420, 86096.633
372.902, 85929.828
373.384, 85724.656
373.866, 85502.297
374.349, 85252.641
374.831, 85006.852
375.313, 84779.438
375.795, 84571.102
376.277, 84359.031
376.759, 84138.219
377.241, 83925.898
377.723, 83756.242
378.206, 83643.430
378.688, 83485.289
379.170, 83239.703
379.652, 82934.273
380.134, 82656.406
380.616, 82387.727
381.098, 82260.906
381.580, 82127.047
382.062, 81994.156
382.545, 81861.383
383.027, 81728.547
383.509, 81595.422
383.991, 81462.727
384.473, 81329.180
384.955, 81197.758
385.437, 81137.906
385.919, 81077.227
386.402, 80969.641
386.884, 80809.062
387.366, 80640.039
387.848, 80486.297
388.330, 80354.680
388.812, 80262.523
389.294, 80237.422
389.776, 80236.789
390.259, 80227.531
390.741, 80210.156
391.223, 80187.141
391.705, 80160.477
392.187, 80128.703
392.669, 80089.297
393.151, 80037.594
393.633, 79986.812
394.115, 79936.359
394.598, 79892.297
395.080, 79867.352
395.562, 79892.047
396.044, 79914.492
396.526, 79900.633
397.008, 79834.523
397.490, 79807.953
397.972, 79899.500
398.454, 80011.258
398.937, 80049.773
399.419, 79905.812
399.901, 79800.773
400.383, 79770.977
400.865, 79809.297
401.347, 79860.898
401.829, 79946.250
402.311, 80023.227
402.793, 80068.242
403.276, 80058.297
403.758, 80071.273
404.240, 80125.031
404.722, 80190.547
405.204, 80206.203
405.686, 80153.977
406.168, 80106.430
406.651, 80092.406
407.133, 80110.141
407.615, 80100.344
408.097, 80049.812
408.579, 80014.148
409.061, 80073.969
409.543, 80224.453
410.025, 80319.242
410.507, 80310.633
410.990, 80247.219
411.472, 80222.750
411.954, 80236.391
412.436, 80273.609
412.918, 80351.938
413.400, 80444.750
413.882, 80483.227
414.364, 80456.977
414.846, 80408.773
415.329, 80356.562
415.811, 80315.406
416.293, 80317.812
416.775, 80417.430
417.257, 80539.906
417.739, 80624.148
418.221, 80671.297
418.703, 80697.094
419.185, 80687.156
419.668, 80672.180
420.150, 80679.773
420.632, 80721.328
421.114, 80777.344
421.596, 80854.203
422.078, 80939.750
422.560, 81008.023
423.042, 81050.070
423.525, 81076.539
424.007, 81083.852
424.489, 81063.039
424.971, 81067.047
425.453, 81152.406
425.935, 81235.773
426.417, 81239.492
426.899, 81041.180
427.382, 80950.453
427.864, 81043.977
428.346, 81278.883
428.828, 81444.898
429.310, 81527.297
429.792, 81567.820
430.274, 81579.828
430.756, 81556.602
431.238, 81537.703
431.721, 81518.547
432.203, 81512.148
432.685, 81549.477
433.167, 81633.773
433.649, 81698.047
434.131, 81711.562
434.613, 81692.531
435.095, 81691.453
435.578, 81708.211
436.060, 81747.617
436.542, 81839.633
437.024, 81957.477
437.506, 82024.508
437.988, 82017.062
438.470, 81987.461
438.952, 82000.727
439.434, 82038.828
439.917, 82054.922
440.399, 81965.547
440.881, 81883.211
441.363, 81939.203
441.845, 82135.344
442.327, 82299.820
442.809, 82276.977
443.291, 82206.492
443.773, 82222.070
444.256, 82448.570
444.738, 82649.094
445.220, 82748.156
445.702, 82766.703
446.184, 82761.359
446.666, 82683.500
447.148, 82637.250
447.630, 82678.883
448.112, 82854.359
448.595, 82953.328
449.077, 82909.820
449.559, 82834.859
450.041, 82842.156
450.523, 82986.891
451.005, 83095.133
451.487, 83131.188
451.970, 83113.609
452.452, 83116.883
452.934, 83139.281
453.416, 83188.188
453.898, 83272.961
454.380, 83394.609
454.862, 83525.953
455.344, 83674.891
455.826, 83809.008
456.309, 83880.477
456.791, 83896.500
457.273, 83906.727
457.755, 83920.344
458.237, 83943.562
458.719, 83996.977
459.201, 84076.008
459.683, 84149.180
460.165, 84181.570
460.648, 84199.422
461.130, 84237.977
461.612, 84304.594
462.094, 84380.453
462.576, 84433.539
463.058, 84490.773
463.540, 84591.961
464.022, 84809.133
464.504, 85021.031
464.987, 85164.961
465.469, 85245.633
465.951, 85328.156
466.433, 85458.133
466.915, 85574.039
467.397, 85634.531
467.879, 85556.547
468.361, 85560.898
468.844, 85709.211
469.326, 85920.258
469.808, 86062.156
470.290, 86075.523
470.772, 86128.078
471.254, 86277.148
471.736, 86513.359
472.218, 86695.977
472.701, 86818.406
473.183, 86908.797
473.665, 86976.453
474.147, 87020.312
474.629, 87088.508
475.111, 87184.688
475.593, 87308.133
476.075, 87464.227
476.557, 87650.023
477.039, 87845.203
477.522, 88048.531
478.004, 88251.898
478.486, 88449.852
478.968, 88641.398
479.450, 88814.359
479.932, 88941.078
480.414, 89051.461
480.897, 89179.461
481.379, 89326.250
481.861, 89504.070
482.343, 89748.227
482.825, 90022.422
483.307, 90264.969
483.789, 90408.273
484.271, 90559.898
484.753, 90785.742
485.236, 91085.594
485.718, 91323.430
486.200, 91393.594
486.682, 91461.852
487.164, 91626.133
487.646, 91958.648
488.128, 92259.539
488.610, 92531.570
489.092, 92770.648
489.575, 92959.547
490.057, 93071.609
490.539, 93218.773
491.021, 93449.180
491.503, 93747.539
491.985, 93996.750
492.467, 94195.508
492.949, 94362.367
493.431, 94495.227
493.914, 94602.508
494.396, 94736.180
494.878, 94912.883
495.360, 95081.922
495.842, 95188.328
496.324, 95237.859
496.806, 95249.656
497.289, 95201.773
497.771, 95140.094
498.253, 95114.289
498.735, 95118.203
499.217, 95115.359
499.699, 95105.633
500.181, 95068.648
500.663, 94982.531
501.145, 94825.969
501.628, 94670.938
502.110, 94540.289
502.592, 94421.430
503.074, 94300.297
503.556, 94188.688
504.038, 94058.688
504.520, 93896.656
505.002, 93708.797
505.484, 93546.094
505.967, 93440.789
506.449, 93309.383
506.931, 93104.602
507.413, 92810.117
507.895, 92514.156
508.377, 92204.000
508.859, 91918.977
509.341, 91730.633
509.823, 91633.367
510.306, 91523.758
510.788, 91376.297
511.270, 91200.852
511.752, 91003.617
512.234, 90789.344
512.716, 90588.023
513.198, 90411.039
513.680, 90263.094
514.162, 90167.328
514.645, 90128.773
515.127, 90075.148
515.609, 89949.578
516.091, 89786.773
516.573, 89622.953
517.055, 89458.930
517.537, 89310.000
518.019, 89168.547
518.502, 89045.539
518.984, 88968.203
519.466, 88990.250
519.948, 89010.641
520.430, 88995.617
520.912, 88941.797
521.394, 88894.633
521.876, 88852.203
522.359, 88818.820
522.841, 88813.648
523.323, 88860.617
523.805, 88808.844
524.287, 88611.719
524.769, 88361.570
525.251, 88240.328
525.733, 88242.727
526.216, 88260.000
526.698, 88252.211
527.180, 88229.594
527.662, 88211.008
528.144, 88196.773
528.626, 88191.711
529.108, 88209.406
529.590, 88233.898
530.072, 88247.023
530.555, 88247.953
531.037, 88229.148
531.519, 88150.688
532.001, 88060.383
532.483, 88021.023
532.965, 88110.828
533.447, 88191.492
533.929, 88211.359
534.411, 88184.383
534.894, 88181.078
535.376, 88237.461
535.858, 88287.688
536.340, 88297.812
536.822, 88252.398
537.304, 88273.438
537.786, 88396.719
538.268, 88530.367
538.750, 88574.102
539.233, 88516.828
539.715, 88486.688
540.197, 88507.039
540.679, 88554.492
541.161, 88586.656
541.643, 88605.703
542.125, 88628.828
542.607, 88667.102
543.089, 88713.469
543.572, 88761.594
544.054, 88810.219
544.536, 88847.117
545.018, 88852.273
545.500, 88847.812
545.982, 88852.211
546.464, 88864.781
546.946, 88899.406
547.429, 88985.727
547.911, 89089.648
548.393, 89167.047
548.875, 89168.617
549.357, 89190.977
549.839, 89258.539
550.321, 89360.977
550.803, 89458.188
551.286, 89548.203
551.768, 89637.617
552.250, 89726.383
552.732, 89812.797
553.214, 89914.906
553.696, 90029.953
554.178, 90169.641
554.660, 90355.273
555.143, 90579.844
555.625, 90806.000
556.107, 91033.180
556.589, 91246.633
557.071, 91392.477
557.553, 91506.547
558.035, 91690.461
558.517, 92054.797
558.999, 92463.383
559.482, 92787.523
559.964, 93043.578
560.446, 93316.297
560.928, 93643.312
561.410, 94003.961
561.892, 94388.602
562.374, 94810.453
562.856, 95215.977
563.338, 95723.477
563.821, 96140.188
564.303, 96280.172
564.785, 96019.633
565.267, 95735.000
565.749, 95478.617
566.231, 95209.797
566.713, 94817.297
567.195, 94281.953
567.677, 93730.000
568.160, 93210.148
568.642, 92719.172
569.124, 92269.391
569.606, 91857.242
570.088, 91497.977
570.570, 91206.930
571.052, 90970.094
571.534, 90764.227
572.016, 90583.242
572.499, 90448.562
572.981, 90395.203
573.463, 90390.844
573.945, 90394.883
574.427, 90396.188
574.909, 90402.070
575.391, 90432.609
575.873, 90471.922
576.356, 90468.727
576.838, 90397.352
577.320, 90305.492
577.802, 90174.820
578.284, 90001.703
578.766, 89993.578
579.248, 90223.203
579.730, 90457.703
580.213, 90488.938
580.695, 90320.062
581.177, 90240.008
581.659, 90281.852
582.141, 90373.398
582.623, 90435.977
583.105, 90472.594
583.587, 90491.148
584.070, 90483.641
584.552, 90473.344
585.034, 90495.961
585.516, 90536.812
585.998, 90554.227
586.480, 90465.258
586.962, 90400.391
587.444, 90466.141
587.927, 90670.469
588.409, 90807.977
588.891, 90775.008
589.373, 90711.500
589.855, 90700.477
590.337, 90774.688
590.819, 90827.047
591.301, 90857.031
591.783, 90865.727
592.266, 90838.672
592.748, 90765.812
593.230, 90755.094
593.712, 90854.859
594.194, 90994.602
594.676, 90998.922
595.158, 90891.492
595.640, 90838.078
596.122, 90992.578
596.605, 91213.102
597.087, 91304.961
597.569, 91275.594
598.051, 91243.297
598.533, 91279.883
599.015, 91339.977
599.497, 91391.273
599.979, 91431.531
600.461, 91453.344
600.944, 91442.023
601.426, 91417.656
601.908, 91400.508
602.390, 91390.297
602.872, 91387.531
603.354, 91389.578
603.836, 91400.758
604.318, 91432.859
604.800, 91488.430
605.283, 91551.977
605.765, 91631.000
606.247, 91708.797
606.729, 91712.703
607.211, 91647.078
607.693, 91590.008
608.175, 91605.961
608.657, 91659.352
609.140, 91699.367
609.622, 91720.898
610.104, 91746.273
610.586, 91800.711
611.068, 91860.398
611.550, 91901.211
612.032, 91896.438
612.514, 91907.633
612.997, 91958.469
613.479, 92029.000
613.961, 92079.594
614.443, 92044.477
614.925, 92121.617
615.407, 92422.508
615.889, 92848.047
616.371, 92955.453
616.854, 92702.461
617.336, 92436.078
617.818, 92349.453
618.300, 92395.461
618.782, 92395.602
619.264, 92350.812
619.746, 92326.070
620.228, 92394.992
620.710, 92505.578
621.193, 92584.859
621.675, 92612.719
622.157, 92652.312
622.639, 92776.203
623.121, 92913.953
623.603, 92988.469
624.085, 92907.680
624.567, 92854.523
625.049, 92863.258
625.532, 92911.180
626.014, 92952.133
626.496, 92980.703
626.978, 93014.492
627.460, 93053.867
627.942, 93102.977
628.424, 93194.641
628.906, 93331.430
629.388, 93454.062
629.871, 93511.453
630.353, 93529.477
630.835, 93578.656
631.317, 93661.492
631.799, 93723.148
632.281, 93673.680
632.763, 93603.703
633.245, 93613.406
633.727, 93738.562
634.210, 93903.633
634.692, 94170.211
635.174, 94428.844
635.656, 94542.148
636.138, 94325.969
636.620, 94204.891
637.102, 94246.477
637.584, 94397.539
638.067, 94534.477
638.549, 94663.703
639.031, 94744.438
639.513, 94734.852
639.995, 94675.258
640.477, 94711.172
640.959, 94839.359
641.441, 94986.477
641.924, 95149.273
642.406, 95280.227
642.888, 95286.492
643.370, 95160.180
643.852, 95054.250
644.334, 95087.547
644.816, 95162.031
645.298, 95197.547
645.781, 95171.680
646.263, 95123.078
646.745, 95047.812
647.227, 94957.008
647.709, 94853.070
648.191, 94695.617
648.673, 94632.906
649.155, 94718.594
649.637, 94873.227
650.120, 94914.492
650.602, 94844.508
651.084, 94764.438
651.566, 94705.961
652.048, 94666.578
652.530, 94645.594
653.012, 94641.703
653.494, 94648.461
653.976, 94653.438
654.459, 94673.820
654.941, 94744.539
655.423, 94868.047
655.905, 94938.859
656.387, 94866.227
656.869, 94773.930
657.351, 94734.828
657.833, 94753.539
658.315, 94822.703
658.798, 94972.281
659.280, 95132.281
659.762, 95227.023
660.244, 95253.156
660.726, 95270.242
661.208, 95280.844
661.690, 95299.758
662.172, 95378.242
662.654, 95487.969
663.137, 95533.547
663.619, 95422.773
664.101, 95301.203
664.583, 95310.469
665.065, 95411.188
665.547, 95496.680
666.029, 95523.227
666.511, 95531.477
666.994, 95530.820
667.476, 95522.391
667.958, 95523.109
668.440, 95541.867
668.922, 95556.312
669.404, 95545.453
669.886, 95507.094
670.368, 95535.891
670.851, 95644.047
671.333, 95754.742
671.815, 95798.500
672.297, 95790.453
672.779, 95770.523
673.261, 95740.906
673.743, 95720.047
674.225, 95716.977
674.708, 95735.047
675.190, 95781.148
675.672, 95880.438
676.154, 95970.703
676.636, 96038.844
677.118, 96084.492
677.600, 96107.070
678.082, 96095.844
678.564, 96077.578
679.047, 96038.477
679.529, 96002.594
680.011, 96057.820
680.493, 96215.391
680.975, 96369.023
681.457, 96481.047
681.939, 96558.609
682.421, 96622.023
682.903, 96668.953
683.386, 96679.047
683.868, 96582.531
684.350, 96481.633
684.832, 96479.070
685.314, 96582.203
685.796, 96692.047
686.278, 96797.000
686.760, 96881.789
687.242, 96930.922
687.725, 96924.023
688.207, 96946.633
688.689, 97004.969
689.171, 97084.008
689.653, 97178.320
690.135, 97290.070
690.617, 97373.977
691.099, 97423.031
691.581, 97450.258
692.064, 97458.906
692.546, 97459.523
693.028, 97479.258
693.510, 97530.719
693.992, 97596.203
694.474, 97673.344
694.956, 97753.617
695.438, 97820.906
695.921, 97850.453
696.403, 97888.727
696.885, 97960.047
697.367, 98050.359
697.849, 98109.492
698.331, 98122.773
698.813, 98140.812
699.295, 98182.203
699.778, 98243.312
700.260, 98306.477
700.742, 98371.922
701.224, 98437.898
701.706, 98511.023
702.188, 98580.531
702.670, 98639.773
703.152, 98686.852
703.635, 98691.641
704.117, 98552.742
704.599, 98423.938
705.081, 98435.492
705.563, 98663.602
706.045, 98818.547
706.527, 98841.422
707.009, 98822.023
707.491, 98832.500
707.974, 98887.641
708.456, 98900.242
708.938, 98858.594
709.420, 98792.852
709.902, 98730.383
710.384, 98674.742
710.866, 98649.039
711.348, 98677.117
711.830, 98689.180
712.313, 98564.289
712.795, 98388.477
713.277, 98303.359
713.759, 98462.211
714.241, 98603.680
714.723, 98630.430
715.205, 98583.727
715.687, 98581.102
716.169, 98675.453
716.652, 98708.922
717.134, 98612.172
717.616, 98438.531
718.098, 98400.430
718.580, 98500.211
719.062, 98624.547
719.544, 98730.203
720.026, 98816.656
720.508, 98882.562
720.991, 98929.648
721.473, 98971.906
721.955, 99050.773
722.437, 99100.312
722.919, 99054.578
723.401, 98903.438
723.883, 98797.391
724.365, 98768.398
724.848, 98781.180
725.330, 98828.891
725.812, 98919.281
726.294, 98984.633
726.776, 99020.141
727.258, 99049.578
727.740, 99101.617
728.222, 99166.539
728.705, 99198.594
729.187, 99188.773
729.669, 99186.461
730.151, 99242.250
730.633, 99326.773
731.115, 99407.094
731.597, 99486.680
732.079, 99538.617
732.562, 99534.531
733.044, 99508.641
733.526, 99498.133
734.008, 99494.711
734.490, 99530.297
734.972, 99621.703
735.454, 99732.773
735.936, 99808.789
736.419, 99850.594
736.901, 99863.531
737.383, 99835.508
737.865, 99804.453
738.347, 99820.250
738.829, 99870.547
739.311, 99927.883
739.793, 99971.281
740.275, 100029.102
740.758, 100134.000
741.240, 100265.398
741.722, 100354.398
742.204, 100402.000
742.686, 100397.000
743.168, 100306.203
743.650, 100166.703
744.132, 100152.203
744.614, 100270.102
745.097, 100386.602
745.579, 100427.500
746.061, 100424.703
746.543, 100428.297
747.025, 100439.898
747.507, 100467.398
747.989, 100540.500
748.471, 100610.398
748.953, 100640.000
749.436, 100626.602
749.918, 100621.500
750.400, 100618.797
750.882, 100640.203
751.364, 100701.500
751.846, 100805.500
752.328, 100901.297
752.810, 100993.102
753.292, 101059.703
753.775, 101067.297
754.257, 101040.297
754.739, 101049.602
755.221, 101100.703
755.703, 101138.898
756.185, 101090.898
756.667, 101032.102
757.149, 101043.000
757.632, 101171.297
758.114, 101242.000
758.596, 101158.898
759.078, 101064.797
759.560, 101061.203
760.042, 101168.602
760.524, 101292.602
761.006, 101444.398
761.489, 101575.797
761.971, 101611.500
762.453, 101579.500
762.935, 101566.297
763.417, 101586.602
763.899, 101630.797
764.381, 101703.102
764.863, 101789.602
765.346, 101875.297
765.828, 102002.000
766.310, 102056.602
766.792, 101932.000
767.274, 101776.500
767.756, 101774.297
768.238, 101983.602
768.720, 102129.297
769.202, 102161.297
769.685, 102144.500
770.167, 102184.703
770.649, 102266.500
771.131, 102327.398
771.613, 102335.500
772.095, 102341.398
772.577, 102405.703
773.059, 102495.398
773.541, 102554.203
774.024, 102528.398
774.506, 102513.703
774.988, 102521.297
775.470, 102554.797
775.952, 102637.602
776.434, 102799.297
776.916, 102892.102
777.398, 102853.898
777.880, 102762.602
778.363, 102797.398
778.845, 102930.703
779.327, 103041.102
779.809, 103067.203
780.291, 103056.102
780.773, 103005.602
781.255, 102947.500
781.737, 102963.797
782.219, 103163.000
782.702, 103344.797
783.184, 103468.602
783.666, 103536.703
784.148, 103538.000
784.630, 103449.797
785.112, 103398.602
785.594, 103440.398
786.076, 103541.398
786.559, 103645.703
787.041, 103742.797
787.523, 103776.898
788.005, 103631.398
788.487, 103485.398
788.969, 103492.500
789.451, 103624.102
789.933, 103730.203
790.416, 103754.797
790.898, 103772.898
791.380, 103791.500
791.862, 103818.297
792.344, 103930.102
792.826, 104151.297
793.308, 104297.000
793.790, 104229.203
794.273, 104043.102
794.755, 103940.000
795.237, 103915.102
795.719, 103945.500
796.201, 104065.000
796.683, 104195.000
797.165, 104292.398
797.647, 104355.797
798.129, 104386.102
798.612, 104366.102
799.094, 104338.500
799.576, 104317.703
800.058, 104302.898
800.540, 104270.398
801.022, 104216.203
801.504, 104207.398
801.986, 104330.703
802.468, 104506.797
802.951, 104581.500
803.433, 104568.797
803.915, 104583.102
804.397, 104754.602
804.879, 104908.203
805.361, 104922.203
805.843, 104783.602
806.325, 104726.203
806.807, 104788.297
807.290, 104864.398
807.772, 104901.500
808.254, 104908.297
808.736, 104960.203
809.218, 105055.602
809.700, 105118.703
810.182, 105061.297
810.664, 104965.602
811.146, 104920.102
811.629, 104927.500
812.111, 104972.797
812.593, 105114.102
813.075, 105232.297
813.557, 105254.602
814.039, 105183.000
814.521, 105156.898
815.003, 105189.898
815.486, 105229.203
815.968, 105245.102
816.450, 105244.500
816.932, 105254.102
817.414, 105272.898
817.896, 105289.602
818.378, 105280.797
818.860, 105278.602
819.343, 105324.000
819.825, 105415.898
820.307, 105471.398
820.789, 105416.898
821.271, 105385.000
821.753, 105436.398
822.235, 105564.000
822.717, 105637.102
823.200, 105649.602
823.682, 105655.398
824.164, 105691.898
824.646, 105741.797
825.128, 105773.703
825.610, 105788.602
826.092, 105797.102
826.574, 105785.703
827.056, 105786.898
827.539, 105837.398
828.021, 105935.398
828.503, 105964.297
828.985, 105867.102
829.467, 105812.297
829.949, 105901.000
830.431, 106088.797
830.913, 106146.703
831.395, 106082.602
831.878, 106019.898
832.360, 106010.500
832.842, 106058.203
833.324, 106224.500
833.806, 106475.000
834.288, 106618.500
834.770, 106504.102
835.252, 106367.000
835.734, 106265.703
836.217, 106206.297
836.699, 106257.203
837.181, 106445.297
837.663, 106596.102
838.145, 106612.602
838.627, 106552.898
839.109, 106545.297
839.591, 106577.102
840.073, 106594.000
840.556, 106525.000
841.038, 106473.000
841.520, 106514.297
842.002, 106629.703
842.484, 106715.000
842.966, 106745.398
843.448, 106781.898
843.930, 106848.297
844.413, 106927.898
844.895, 106966.898
845.377, 106967.000
845.859, 106950.898
846.341, 106911.703
846.823, 106879.102
847.305, 106888.297
847.787, 106929.203
848.269, 106976.703
848.752, 107018.797
849.234, 107071.898
849.716, 107157.500
850.198, 107250.703
850.680, 107278.398
851.162, 107220.797
851.644, 107226.398
852.127, 107361.898
852.609, 107529.703
853.091, 107548.797
853.573, 107465.398
854.055, 107392.703
854.537, 107363.203
855.019, 107370.398
855.501, 107442.102
855.983, 107541.203
856.466, 107597.797
856.948, 107566.703
857.430, 107587.297
857.912, 107689.398
858.394, 107825.703
858.876, 107934.000
859.358, 108011.703
859.840, 108033.703
860.322, 107967.898
860.805, 107926.500
861.287, 108069.297
861.769, 108271.898
862.251, 108373.500
862.733, 108231.297
863.215, 108156.297
863.697, 108202.398
864.179, 108296.797
864.661, 108363.703
865.144, 108402.000
865.626, 108457.297
866.108, 108540.602
866.590, 108603.500
867.072, 108550.203
867.554, 108459.398
868.036, 108462.898
868.518, 108604.398
869.001, 108736.797
869.483, 108803.203
869.965, 108840.398
870.447, 108877.797
870.929, 108919.398
871.411, 108937.297
871.893, 108921.602
872.375, 108917.602
872.857, 108984.898
873.340, 109088.898
873.822, 109121.297
874.304, 109079.000
874.786, 109071.297
875.268, 109229.898
875.750, 109396.000
876.232, 109444.797
876.714, 109350.000
877.197, 109330.602
877.679, 109415.602
878.161, 109516.602
878.643, 109606.102
879.125, 109674.297
879.607, 109651.297
880.089, 109546.703
880.571, 109448.703
881.054, 109392.898
881.536, 109382.203
882.018, 109448.500
882.500, 109572.102
882.982, 109651.703
883.464, 109641.102
883.946, 109616.398
884.428, 109583.297
884.911, 109553.500
885.393, 109580.000
885.875, 109660.000
886.357, 109723.000
886.839, 109729.797
887.321, 109721.797
887.803, 109748.898
888.285, 109798.102
888.767, 109841.797
889.250, 109834.898
889.732, 109869.898
890.214, 110025.203
890.696, 110198.703
891.178, 110192.797
891.660, 109983.102
892.142, 109849.500
892.624, 109851.297
893.106, 109920.797
893.589, 110011.797
894.071, 110098.898
894.553, 110134.602
895.035, 110089.898
895.517, 110034.500
895.999, 109953.500
896.481, 109900.703
896.963, 109930.602
897.445, 110080.398
897.928, 110178.898
898.410, 110218.797
898.892, 110227.602
899.374, 110215.797
899.856, 110197.602
900.338, 110197.703
900.820, 110218.500
901.302, 110272.398
901.784, 110425.703
902.267, 110566.602
902.749, 110596.898
903.231, 110507.500
903.713, 110490.898
904.195, 110569.203
904.677, 110653.602
905.159, 110695.398
905.641, 110705.602
906.124, 110707.297
906.606, 110705.500
907.088, 110729.000
907.570, 110825.102
908.052, 110922.000
908.534, 110970.500
909.016, 110980.398
909.498, 111005.602
909.981, 111041.703
910.463, 111111.500
910.945, 111243.602
911.427, 111385.000
911.909, 111385.000
912.391, 111281.898
912.873, 111236.297
913.355, 111345.297
913.838, 111462.000
914.320, 111478.000
914.802, 111441.602
915.284, 111425.203
915.766, 111439.500
916.248, 111470.797
916.730, 111521.203
917.212, 111584.297
917.694, 111659.203
918.177, 111741.297
918.659, 111802.000
919.141, 111834.102
919.623, 111874.203
920.105, 111976.398
920.587, 112084.703
921.069, 112141.000
921.551, 112119.297
922.033, 112125.297
922.516, 112183.398
922.998, 112230.602
923.480, 112205.203
923.962, 112126.703
924.444, 112151.602
924.926, 112272.000
925.408, 112391.203
925.890, 112429.000
926.372, 112454.898
926.855, 112532.203
927.337, 112652.500
927.819, 112745.898
928.301, 112808.500
928.783, 112832.398
929.265, 112789.500
929.747, 112727.500
930.229, 112808.297
930.711, 113004.000
931.194, 113126.602
931.676, 113060.500
932.158, 112977.102
932.640, 113025.000
933.122, 113144.898
933.604, 113247.297
934.086, 113315.203
934.568, 113361.797
935.051, 113372.102
935.533, 113384.398
936.015, 113464.000
936.497, 113593.500
936.979, 113666.000
937.461, 113665.297
937.943, 113653.602
938.425, 113683.703
938.907, 113723.703
939.390, 113737.102
939.872, 113708.398
940.354, 113727.398
940.836, 113809.102
941.318, 113914.500
941.800, 114038.797
942.282, 114168.500
942.765, 114229.602
943.247, 114228.703
943.729, 114225.000
944.211, 114239.102
944.693, 114275.602
945.175, 114339.797
945.657, 114429.398
946.139, 114542.797
946.621, 114728.797
947.104, 114826.000
947.586, 114770.398
948.068, 114652.203
948.550, 114641.898
949.032, 114718.297
949.514, 114802.797
949.996, 114876.797
950.478, 114945.297
950.960, 115008.203
951.443, 115069.203
951.925, 115128.000
952.407, 115155.602
952.889, 115267.797
953.371, 115496.898
953.853, 115728.000
954.335, 115850.602
954.817, 115894.602
955.299, 115955.500
955.782, 116035.898
956.264, 116083.297
956.746, 116014.297
957.228, 115948.602
957.710, 115982.797
958.192, 116103.500
958.674, 116141.398
959.156, 116066.602
959.638, 116018.102
960.121, 116045.203
960.603, 116131.398
961.085, 116279.102
961.567, 116459.500
962.049, 116592.703
962.531, 116578.398
963.013, 116592.602
963.495, 116725.797
963.978, 116910.297
964.460, 117061.203
964.942, 117174.500
965.424, 117263.703
965.906, 117320.203
966.388, 117400.602
966.870, 117562.000
967.352, 117790.500
967.834, 118061.703
968.317, 118374.500
968.799, 118730.898
969.281, 119217.797
969.763, 119664.297
970.245, 119941.297
970.727, 120074.000
971.209, 120439.797
971.692, 121039.500
972.174, 121747.398
972.656, 122443.102
973.138, 123253.297
973.620, 124245.602
974.102, 125457.500
974.584, 126996.898
975.066, 128953.102
975.548, 131172.594
976.031, 133623.703
976.513, 136298.000
976.995, 139176.000
977.477, 142291.797
977.959, 145610.406
978.441, 149143.594
978.923, 152814.094
979.405, 156455.203
979.888, 160209.406
980.370, 164309.500
980.852, 168956.406
981.334, 173235.594
981.816, 177470.703
982.298, 180673.906
982.780, 182604.797
983.262, 183021.406
983.744, 180634.703
984.227, 175639.703
984.709, 169391.500
985.191, 161392.406
985.673, 153460.703
986.155, 146250.500
986.637, 139966.906
987.119, 134898.594
987.601, 131196.094
988.083, 128262.500
988.566, 126062.102
989.048, 124429.898
989.530, 123216.398
990.012, 122345.000
990.494, 121660.102
990.976, 121154.203
991.458, 120720.500
991.940, 120330.000
992.422, 119987.797
992.905, 119693.500
993.387, 119447.297
993.869, 119233.398
994.351, 119052.297
994.833, 118883.398
995.315, 118677.398
995.797, 118500.102
996.279, 118489.500
996.761, 118587.000
997.244, 118600.898
997.726, 118350.703
998.208, 118176.102
998.690, 118148.297
999.172, 118207.898
999.654, 118258.703
1000.136, 118301.297
1000.618, 118348.102
1001.101, 118408.500
1001.583, 118438.102
1002.065, 118386.500
1002.547, 118294.703
1003.029, 118193.898
1003.511, 118079.000
1003.993, 118002.898
1004.475, 117969.398
1004.958, 117963.602
1005.440, 117985.000
1005.922, 118024.602
1006.404, 118055.703
1006.886, 118082.297
1007.368, 118122.898
1007.850, 118202.898
1008.332, 118280.297
1008.815, 118342.102
1009.297, 118387.797
1009.779, 118417.797
1010.261, 118433.500
1010.743, 118412.602
1011.225, 118342.703
1011.707, 118276.703
1012.189, 118281.398
1012.671, 118322.102
1013.154, 118339.203
1013.636, 118305.000
1014.118, 118368.898
1014.600, 118660.500
1015.082, 118909.000
1015.564, 118968.500
1016.046, 118877.703
1016.528, 118835.500
1017.010, 118840.203
1017.493, 118880.500
1017.975, 118973.398
1018.457, 119076.602
1018.939, 119176.500
1019.421, 119265.000
1019.903, 119322.500
1020.385, 119327.102
1020.867, 119364.898
1021.350, 119448.898
1021.832, 119553.297
1022.314, 119655.398
1022.796, 119753.297
1023.278, 119836.797
1023.760, 119903.203
1024.242, 119997.703
1024.724, 120213.602
1025.206, 120381.297
1025.689, 120408.203
1026.171, 120319.898
1026.653, 120267.602
1027.135, 120251.398
1027.617, 120269.703
1028.099, 120330.898
1028.581, 120412.898
1029.063, 120527.500
1029.546, 120637.797
1030.028, 120682.398
1030.510, 120582.297
1030.992, 120534.297
1031.474, 120556.000
1031.956, 120600.703
1032.438, 120620.203
1032.920, 120624.797
1033.402, 120641.500
1033.885, 120672.602
1034.367, 120724.898
1034.849, 120839.500
1035.331, 120938.398
1035.813, 120960.102
1036.295, 120936.297
1036.777, 120998.797
1037.259, 121159.102
1037.741, 121243.602
1038.224, 121168.102
1038.706, 121083.602
1039.188, 121215.500
1039.670, 121433.398
1040.152, 121551.797
1040.634, 121471.898
1041.116, 121428.703
1041.598, 121434.102
1042.081, 121482.500
1042.563, 121581.102
1043.045, 121720.000
1043.527, 121862.398
1044.009, 122006.398
1044.491, 122143.602
1044.973, 122280.102
1045.455, 122396.898
1045.938, 122458.102
1046.420, 122501.297
1046.902, 122612.797
1047.384, 122804.602
1047.866, 122974.898
1048.348, 123099.500
1048.830, 123223.602
1049.312, 123390.000
1049.794, 123589.398
1050.276, 123806.102
1050.759, 124035.398
1051.241, 124305.898
1051.723, 124647.297
1052.205, 124979.102
1052.687, 125253.297
1053.169, 125505.000
1053.651, 125862.000
1054.133, 126309.797
1054.616, 126785.602
1055.098, 127212.703
1055.580, 127729.797
1056.062, 128472.297
1056.544, 129310.500
1057.026, 130082.602
1057.508, 130779.102
1057.990, 131451.500
1058.473, 132095.500
1058.955, 132771.797
1059.437, 133556.203
1059.919, 134376.594
1060.401, 135156.203
1060.883, 135894.797
1061.365, 136605.297
1061.847, 137312.906
1062.329, 137967.500
1062.812, 138562.797
1063.294, 139091.500
1063.776, 139564.203
1064.258, 139965.906
1064.740, 140277.594
1065.222, 140514.406
1065.704, 140580.406
1066.186, 140393.594
1066.668, 140032.406
1067.151, 139582.797
1067.633, 139041.297
1068.115, 138260.406
1068.597, 137234.406
1069.079, 136174.906
1069.561, 135200.594
1070.043, 134261.406
1070.525, 133329.094
1071.008, 132412.203
1071.490, 131541.094
1071.972, 130695.898
1072.454, 129960.703
1072.936, 129362.602
1073.418, 128836.898
1073.900, 128295.102
1074.382, 127785.602
1074.865, 127444.297
1075.347, 127271.500
1075.829, 127088.703
1076.311, 126778.102
1076.793, 126487.898
1077.275, 126267.797
1077.757, 126104.703
1078.239, 125977.398
1078.721, 125877.797
1079.204, 125734.203
1079.686, 125504.203
1080.168, 125297.297
1080.650, 125209.797
1081.132, 125185.898
1081.614, 125182.000
1082.096, 125204.102
1082.578, 125162.203
1083.061, 125040.000
1083.543, 124946.898
1084.025, 124973.602
1084.507, 125055.102
1084.989, 125127.898
1085.471, 125174.203
1085.953, 125150.398
1086.435, 124921.898
1086.917, 124808.602
1087.400, 124897.602
1087.882, 125017.398
1088.364, 124921.297
1088.846, 124686.797
1089.328, 124610.297
1089.810, 124711.102
1090.292, 124852.703
1090.774, 125033.000
1091.256, 125155.297
1091.739, 125136.898
1092.221, 125034.297
1092.703, 125044.898
1093.185, 125166.797
1093.667, 125218.203
1094.149, 125131.500
1094.631, 125030.703
1095.113, 125037.500
1095.596, 125089.797
1096.078, 125121.797
1096.560, 125121.703
1097.042, 125124.602
1097.524, 125131.898
1098.006, 125136.398
1098.488, 125130.102
1098.970, 125121.898
1099.453, 125117.898
1099.935, 125125.398
1100.417, 125161.297
1100.899, 125237.500
1101.381, 125337.797
1101.863, 125469.898
1102.345, 125609.898
1102.827, 125769.500
1103.309, 125919.000
1103.792, 125886.000
1104.274, 125679.602
1104.756, 125489.500
1105.238, 125405.500
1105.720, 125386.203
1106.202, 125448.102
1106.684, 125547.297
1107.166, 125584.500
1107.648, 125559.797
1108.131, 125539.297
1108.613, 125530.102
1109.095, 125560.398
1109.577, 125709.602
1110.059, 125872.703
1110.541, 125930.602
1111.023, 125867.500
1111.505, 125894.602
1111.988, 126041.000
1112.470, 126134.398
1112.952, 126076.602
1113.434, 125965.703
1113.916, 125927.703
1114.398, 125950.398
1114.880, 126017.000
1115.362, 126165.102
1115.844, 126270.102
1116.327, 126317.797
1116.809, 126337.797
1117.291, 126342.602
1117.773, 126338.203
1118.255, 126346.102
1118.737, 126363.000
1119.219, 126372.500
1119.701, 126330.000
1120.183, 126327.898
1120.666, 126404.398
1121.148, 126519.797
1121.630, 126641.102
1122.112, 126763.398
1122.594, 126804.203
1123.076, 126755.703
1123.558, 126707.102
1124.040, 126707.602
1124.523, 126740.797
1125.005, 126829.398
1125.487, 126943.000
1125.969, 126961.898
1126.451, 126879.000
1126.933, 126809.898
1127.415, 126783.000
1127.897, 126779.203
1128.380, 126792.500
1128.862, 126809.703
1129.344, 126802.297
1129.826, 126753.703
1130.308, 126808.898
1130.790, 126999.703
1131.272, 127172.898
1131.754, 127257.703
1132.236, 127283.102
1132.719, 127272.797
1133.201, 127244.203
1133.683, 127230.703
1134.165, 127257.898
1134.647, 127267.398
1135.129, 127244.000
1135.611, 127227.297
1136.093, 127247.297
1136.575, 127298.703
1137.058, 127374.898
1137.540, 127469.297
1138.022, 127556.500
1138.504, 127640.000
1138.986, 127693.102
1139.468, 127705.602
1139.950, 127694.102
1140.432, 127671.500
1140.915, 127642.602
1141.397, 127636.297
1141.879, 127655.203
1142.361, 127686.898
1142.843, 127745.398
1143.325, 127791.500
1143.807, 127778.000
1144.289, 127745.000
1144.771, 127830.203
1145.254, 128028.602
1145.736, 128119.500
1146.218, 128037.797
1146.700, 127935.500
1147.182, 127919.102
1147.664, 127955.297
1148.146, 128034.398
1148.628, 128151.203
1149.110, 128212.703
1149.593, 128213.797
1150.075, 128208.602
1150.557, 128204.500
1151.039, 128229.102
1151.521, 128339.102
1152.003, 128484.500
1152.485, 128605.297
1152.967, 128706.500
1153.450, 128718.000
1153.932, 128615.398
1154.414, 128522.398
1154.896, 128533.500
1155.378, 128590.797
1155.860, 128601.797
1156.342, 128585.000
1156.824, 128583.898
1157.307, 128597.602
1157.789, 128657.297
1158.271, 128783.602
1158.753, 128910.500
1159.235, 128954.500
1159.717, 128960.297
1160.199, 129044.898
1160.681, 129191.102
1161.163, 129277.102
1161.646, 129221.203
1162.128, 129136.797
1162.610, 129009.602
1163.092, 128919.000
1163.574, 129050.398
1164.056, 129311.500
1164.538, 129390.398
1165.020, 129252.203
1165.502, 129121.898
1165.985, 129099.898
1166.467, 129116.203
1166.949, 129158.000
1167.431, 129205.898
1167.913, 129193.000
1168.395, 129137.500
1168.877, 129128.398
1169.359, 129189.703
1169.842, 129275.898
1170.324, 129394.703
1170.806, 129497.602
1171.288, 129553.797
1171.770, 129570.797
1172.252, 129595.102
1172.734, 129625.602
1173.216, 129650.297
1173.698, 129667.203
1174.181, 129672.703
1174.663, 129647.500
1175.145, 129622.297
1175.627, 129623.797
1176.109, 129652.500
1176.591, 129700.000
1177.073, 129766.797
1177.555, 129846.602
1178.037, 129980.102
1178.520, 130076.797
1179.002, 130015.797
1179.484, 129903.602
1179.966, 129912.102
1180.448, 130083.898
1180.930, 130151.102
1181.412, 130104.102
1181.894, 130048.602
1182.377, 130066.602
1182.859, 130106.297
1183.341, 130124.898
1183.823, 130130.203
1184.305, 130137.000
1184.787, 130126.297
1185.269, 130221.703
1185.751, 130450.898
1186.234, 130671.203
1186.716, 130741.898
1187.198, 130741.898
1187.680, 130741.703
1188.162, 130742.898
1188.644, 130719.898
1189.126, 130652.297
1189.608, 130645.602
1190.090, 130733.602
1190.573, 130826.602
1191.055, 130801.297
1191.537, 130731.297
1192.019, 130698.000
1192.501, 130711.297
1192.983, 130761.797
1193.465, 130861.398
1193.947, 130960.500
1194.429, 131062.203
1194.912, 131114.094
1195.394, 130973.898
1195.876, 130768.500
1196.358, 130682.000
1196.840, 130760.797
1197.322, 130859.297
1197.804, 130975.297
1198.286, 131091.797
1198.769, 131200.703
1199.251, 131308.906
1199.733, 131458.203
1200.215, 131604.797
1200.697, 131667.500
1201.179, 131588.703
1201.661, 131539.500
1202.143, 131537.297
1202.625, 131537.203
1203.108, 131496.500
1203.590, 131457.297
1204.072, 131526.094
1204.554, 131651.000
1205.036, 131721.406
1205.518, 131642.797
1206.000, 131625.094
1206.482, 131697.703
1206.964, 131771.000
1207.447, 131753.703
1207.929, 131702.406
1208.411, 131753.703
1208.893, 131867.094
1209.375, 131925.000
1209.857, 131837.906
1210.339, 131762.094
1210.821, 131689.797
1211.304, 131671.297
1211.786, 131781.203
1212.268, 131967.406
1212.750, 132155.500
1213.232, 132332.297
1213.714, 132444.000
1214.196, 132437.797
1214.678, 132418.000
1215.161, 132383.000
1215.643, 132365.797
1216.125, 132429.000
1216.607, 132526.406
1217.089, 132557.797
1217.571, 132527.703
1218.053, 132526.203
1218.535, 132588.000
1219.017, 132668.297
1219.500, 132780.094
1219.982, 132863.797
1220.464, 132788.297
1220.946, 132646.594
1221.428, 132618.906
1221.910, 132720.500
1222.392, 132780.594
1222.874, 132721.906
1223.357, 132706.797
1223.839, 132786.594
1224.321, 132904.406
1224.803, 132980.203
1225.285, 133025.406
1225.767, 133045.406
1226.249, 133035.906
1226.731, 133081.203
1227.214, 133222.594
1227.696, 133343.906
1228.178, 133409.000
1228.660, 133431.094
1229.142, 133422.203
1229.624, 133391.500
1230.106, 133342.594
1230.588, 133262.594
1231.070, 133259.906
1231.552, 133373.297
1232.035, 133473.203
1232.517, 133486.297
1232.999, 133488.000
1233.481, 133645.094
1233.963, 133865.500
1234.445, 133994.094
1234.927, 133970.703
1235.409, 133924.594
1235.892, 133839.500
1236.374, 133807.094
1236.856, 133908.094
1237.338, 134046.000
1237.820, 134031.297
1238.302, 133955.906
1238.784, 133992.500
1239.266, 134287.000
1239.749, 134351.594
1240.231, 134111.594
1240.713, 133948.406
1241.195, 134166.203
1241.677, 134513.797
1242.159, 134672.094
1242.641, 134691.703
1243.123, 134654.406
1243.605, 134531.594
1244.088, 134474.500
1244.570, 134491.094
1245.052, 134525.500
1245.534, 134538.797
1246.016, 134550.406
1246.498, 134597.406
1246.980, 134655.703
1247.462, 134667.406
1247.944, 134594.297
1248.427, 134618.906
1248.909, 134757.406
1249.391, 134872.203
1249.873, 134782.594
1250.355, 134689.906
1250.837, 134823.406
1251.319, 135074.703
1251.801, 135190.797
1252.284, 135125.500
1252.766, 135179.797
1253.248, 135378.906
1253.730, 135531.906
1254.212, 135444.000
1254.694, 135306.297
1255.176, 135237.000
1255.658, 135229.797
1256.141, 135262.406
1256.623, 135339.000
1257.105, 135399.500
1257.587, 135438.703
1258.069, 135466.000
1258.551, 135477.297
1259.033, 135489.297
1259.515, 135508.000
1259.997, 135536.906
1260.479, 135580.297
1260.962, 135638.203
1261.444, 135733.500
1261.926, 135867.406
1262.408, 135969.500
1262.890, 135961.203
1263.372, 135945.906
1263.854, 135961.500
1264.336, 136009.094
1264.819, 136115.000
1265.301, 136260.703
1265.783, 136330.906
1266.265, 136312.797
1266.747, 136282.094
1267.229, 136291.594
1267.711, 136274.406
1268.193, 136184.703
1268.676, 136086.297
1269.158, 136108.594
##END=



