##NAMES=Clinoptilolite-Ca
##RRUFFID=R061098
##IDEAL CHEMISTRY=Ca_3_(Si_30_Al_6_)O_72_&#183;20H_2_O
##LOCALITY=Fish Creek Quarry, Clackamas River, Estacada, Clackamas County, Oregon, USA
##OWNER=RRUFF
##SOURCE=Michael Scott
##DESCRIPTION=Druse of colorless, clear tabular somewhat pseudohexagonal crystals in vug
##STATUS=The identification of this mineral is confirmed by single-crystal X-ray diffraction and chemical analysis.
##URL=rruff.info/R061098
##MEASURED CHEMISTRY=(Ca_1.90_K_1.85_Na_0.23_Mg_0.11_)_Σ=4.09_(Si_29.90_Al_6.10_)_Σ=36_O_72_·21.90H_2_O; H_2_O estimated by difference
128.8611, 2002.726
129.3432, 2156.514
129.8254, 2290.193
130.3075, 2416.696
130.7896, 2514.509
131.2717, 2567.242
131.7538, 2583.050
132.2359, 2583.766
132.7181, 2587.271
133.2002, 2594.928
133.6823, 2574.685
134.1644, 2515.803
134.6465, 2444.912
135.1286, 2364.622
135.6108, 2280.888
136.0929, 2208.480
136.5750, 2160.798
137.0571, 2141.180
137.5392, 2137.191
138.0213, 2150.957
138.5035, 2177.111
138.9856, 2208.062
139.4677, 2244.485
139.9498, 2298.974
140.4319, 2386.481
140.9140, 2514.311
141.3961, 2641.546
141.8783, 2771.293
142.3604, 2898.205
142.8425, 3012.282
143.3246, 3111.818
143.8067, 3215.298
144.2888, 3344.796
144.7710, 3501.717
145.2531, 3664.884
145.7352, 3838.775
146.2173, 3960.789
146.6994, 3998.517
147.1815, 3990.814
147.6637, 3963.252
148.1458, 3942.570
148.6279, 3928.375
149.1100, 3901.484
149.5921, 3846.338
150.0742, 3777.955
150.5564, 3721.745
151.0385, 3682.714
151.5206, 3650.635
152.0027, 3612.408
152.4848, 3567.793
152.9669, 3529.000
153.4491, 3502.058
153.9312, 3483.156
154.4133, 3465.140
154.8954, 3447.259
155.3775, 3426.964
155.8596, 3398.742
156.3418, 3362.769
156.8239, 3331.413
157.3060, 3313.264
157.7881, 3304.797
158.2702, 3293.264
158.7523, 3274.072
159.2345, 3254.400
159.7166, 3241.303
160.1987, 3234.539
160.6808, 3228.799
161.1629, 3221.333
161.6451, 3212.576
162.1272, 3204.454
162.6093, 3199.968
163.0914, 3193.716
163.5735, 3185.323
164.0556, 3174.755
164.5378, 3154.044
165.0199, 3110.084
165.5020, 3046.035
165.9841, 2996.369
166.4662, 2973.812
166.9483, 2961.194
167.4305, 2948.604
167.9126, 2935.303
168.3947, 2917.739
168.8768, 2886.735
169.3589, 2842.502
169.8410, 2815.820
170.3232, 2832.511
170.8053, 2849.629
171.2874, 2834.317
171.7695, 2786.140
172.2516, 2736.255
172.7337, 2715.694
173.2159, 2726.023
173.6980, 2729.885
174.1801, 2718.991
174.6622, 2701.426
175.1443, 2678.467
175.6264, 2651.098
176.1085, 2626.444
176.5907, 2612.857
177.0728, 2611.304
177.5549, 2609.117
178.0370, 2602.249
178.5191, 2596.127
179.0012, 2595.727
179.4834, 2600.688
179.9655, 2603.993
180.4476, 2598.828
180.9297, 2584.718
181.4118, 2565.677
181.8939, 2529.195
182.3761, 2497.445
182.8582, 2485.662
183.3403, 2493.440
183.8224, 2504.542
184.3045, 2500.002
184.7866, 2476.399
185.2688, 2460.277
185.7509, 2461.858
186.2330, 2465.864
186.7151, 2465.917
187.1972, 2461.310
187.6793, 2454.505
188.1615, 2449.589
188.6436, 2448.439
189.1257, 2438.328
189.6078, 2401.173
190.0899, 2368.309
190.5720, 2358.808
191.0542, 2371.130
191.5363, 2386.091
192.0184, 2379.238
192.5005, 2343.728
192.9826, 2327.965
193.4647, 2360.183
193.9469, 2391.613
194.4290, 2398.923
194.9111, 2383.052
195.3932, 2361.970
195.8753, 2354.075
196.3574, 2362.112
196.8396, 2365.685
197.3217, 2364.661
197.8038, 2358.816
198.2859, 2345.564
198.7680, 2326.306
199.2501, 2306.141
199.7323, 2289.503
200.2144, 2276.425
200.6965, 2265.888
201.1786, 2259.051
201.6607, 2253.966
202.1428, 2252.184
202.6250, 2252.173
203.1071, 2249.570
203.5892, 2239.007
204.0713, 2219.563
204.5534, 2205.287
205.0355, 2200.359
205.5177, 2197.218
205.9998, 2193.394
206.4819, 2189.102
206.9640, 2186.117
207.4461, 2188.355
207.9282, 2195.802
208.4104, 2189.790
208.8925, 2150.161
209.3746, 2116.960
209.8567, 2108.063
210.3388, 2116.619
210.8209, 2125.313
211.3030, 2120.519
211.7852, 2103.674
212.2673, 2093.613
212.7494, 2092.965
213.2315, 2097.139
213.7136, 2110.545
214.1957, 2127.183
214.6779, 2136.141
215.1600, 2128.506
215.6421, 2107.341
216.1242, 2092.607
216.6063, 2091.421
217.0884, 2087.439
217.5706, 2070.269
218.0527, 2048.271
218.5348, 2035.887
219.0169, 2044.371
219.4990, 2065.927
219.9811, 2068.869
220.4633, 2038.484
220.9454, 2012.144
221.4275, 2001.535
221.9096, 2000.160
222.3917, 1999.927
222.8738, 1997.052
223.3560, 1992.751
223.8381, 1990.736
224.3202, 1993.654
224.8023, 1993.483
225.2844, 1983.498
225.7665, 1971.576
226.2487, 1966.495
226.7308, 1972.168
227.2129, 1984.104
227.6950, 1994.121
228.1771, 2001.954
228.6592, 2008.299
229.1414, 2018.084
229.6235, 2024.137
230.1056, 2017.058
230.5877, 1993.068
231.0698, 1965.361
231.5519, 1954.739
232.0341, 1966.569
232.5162, 1974.624
232.9983, 1967.271
233.4804, 1957.531
233.9625, 1954.450
234.4446, 1959.965
234.9268, 1968.617
235.4089, 1973.336
235.8910, 1973.216
236.3731, 1977.639
236.8552, 1993.756
237.3373, 2011.111
237.8195, 2023.507
238.3016, 2030.304
238.7837, 2033.675
239.2658, 2035.122
239.7479, 2034.661
240.2300, 2032.071
240.7122, 2023.796
241.1943, 2017.179
241.6764, 2017.359
242.1585, 2023.851
242.6406, 2032.379
243.1227, 2042.755
243.6049, 2053.684
244.0870, 2056.695
244.5691, 2045.423
245.0512, 2034.727
245.5333, 2035.538
246.0154, 2045.413
246.4975, 2056.195
246.9797, 2063.487
247.4618, 2068.699
247.9439, 2076.111
248.4260, 2087.358
248.9081, 2097.139
249.3902, 2100.075
249.8724, 2098.954
250.3545, 2099.418
250.8366, 2105.867
251.3187, 2113.988
251.8008, 2115.153
252.2829, 2107.448
252.7651, 2103.274
253.2472, 2114.437
253.7293, 2133.637
254.2114, 2148.165
254.6935, 2156.434
255.1756, 2158.481
255.6578, 2150.474
256.1399, 2115.392
256.6220, 2141.856
257.1041, 2158.937
257.5862, 2167.139
258.0684, 2139.870
258.5505, 2158.405
259.0326, 2175.959
259.5147, 2181.987
259.9968, 2178.522
260.4789, 2176.884
260.9611, 2182.401
261.4432, 2190.727
261.9253, 2194.098
262.4074, 2192.493
262.8895, 2187.383
263.3716, 2177.698
263.8537, 2165.110
264.3358, 2152.098
264.8180, 2138.793
265.3001, 2127.359
265.7822, 2122.214
266.2643, 2124.367
266.7464, 2125.526
267.2285, 2121.362
267.7107, 2116.605
268.1928, 2119.497
268.6749, 2131.519
269.1570, 2141.506
269.6391, 2135.815
270.1212, 2109.718
270.6034, 2091.094
271.0855, 2083.902
271.5676, 2081.312
272.0497, 2078.229
272.5318, 2074.587
273.0139, 2074.251
273.4961, 2081.971
273.9782, 2097.957
274.4603, 2101.647
274.9424, 2079.405
275.4245, 2060.426
275.9066, 2059.727
276.3888, 2072.369
276.8709, 2085.439
277.3530, 2091.488
277.8351, 2091.195
278.3172, 2088.407
278.7993, 2078.173
279.2815, 2071.345
279.7636, 2071.736
280.2457, 2075.916
280.7278, 2079.424
281.2099, 2080.362
281.6920, 2079.702
282.1742, 2079.771
282.6563, 2082.316
283.1384, 2082.861
283.6205, 2081.027
284.1026, 2077.510
284.5847, 2072.080
285.0669, 2065.065
285.5490, 2058.115
286.0311, 2053.280
286.5132, 2050.085
286.9953, 2050.584
287.4774, 2059.416
287.9596, 2067.775
288.4417, 2070.454
288.9238, 2068.012
289.4059, 2064.781
289.8880, 2064.699
290.3701, 2067.800
290.8523, 2069.956
291.3344, 2070.808
291.8165, 2070.926
292.2986, 2070.725
292.7807, 2069.926
293.2628, 2067.616
293.7450, 2062.133
294.2271, 2055.552
294.7092, 2055.498
295.1913, 2066.276
295.6734, 2073.971
296.1555, 2071.420
296.6377, 2063.978
297.1198, 2057.414
297.6019, 2053.709
298.0840, 2050.856
298.5661, 2044.647
299.0482, 2034.293
299.5304, 2029.843
300.0125, 2040.173
300.4946, 2053.735
300.9767, 2060.710
301.4588, 2060.521
301.9409, 2052.371
302.4231, 2009.986
302.9052, 2033.236
303.3873, 2047.103
303.8694, 2052.091
304.3515, 2021.606
304.8336, 2036.927
305.3158, 2033.891
305.7979, 2030.102
306.2800, 2051.870
306.7621, 2026.545
307.2442, 2047.907
307.7263, 2054.196
308.2085, 2058.434
308.6906, 2056.011
309.1727, 2047.383
309.6548, 2040.448
310.1369, 2035.506
310.6190, 2032.258
311.1012, 2027.146
311.5833, 2002.440
312.0654, 2026.681
312.5475, 2041.538
313.0296, 2047.516
313.5117, 2018.022
313.9939, 2034.334
314.4760, 2032.288
314.9581, 2029.490
315.4402, 2052.248
315.9223, 2050.867
316.4044, 2058.689
316.8866, 2067.439
317.3687, 2075.256
317.8508, 2082.941
318.3329, 2087.634
318.8150, 2086.714
319.2971, 2084.946
319.7793, 2084.972
320.2614, 2087.374
320.7435, 2092.011
321.2256, 2099.042
321.7077, 2108.799
322.1898, 2117.642
322.6720, 2130.163
323.1541, 2137.160
323.6362, 2133.597
324.1183, 2122.652
324.6004, 2108.955
325.0826, 2093.901
325.5647, 2080.427
326.0468, 2081.279
326.5289, 2109.727
327.0110, 2126.711
327.4931, 2112.412
327.9753, 2089.001
328.4574, 2078.268
328.9395, 2087.002
329.4216, 2102.611
329.9037, 2109.668
330.3858, 2107.520
330.8680, 2107.315
331.3501, 2113.851
331.8322, 2120.355
332.3143, 2121.066
332.7964, 2116.242
333.2785, 2110.901
333.7606, 2106.447
334.2427, 2103.700
334.7249, 2105.798
335.2070, 2114.443
335.6891, 2123.019
336.1712, 2125.663
336.6533, 2124.031
337.1354, 2122.992
337.6176, 2123.299
338.0997, 2124.559
338.5818, 2125.666
339.0639, 2127.025
339.5460, 2131.843
340.0281, 2143.212
340.5103, 2157.882
340.9924, 2165.785
341.4745, 2162.522
341.9566, 2160.826
342.4387, 2171.274
342.9208, 2182.977
343.4030, 2176.481
343.8851, 2146.450
344.3672, 2111.308
344.8493, 2097.527
345.3314, 2114.414
345.8135, 2126.904
346.2957, 2135.099
346.7778, 2139.322
347.2599, 2135.991
347.7420, 2127.994
348.2241, 2124.631
348.7062, 2134.425
349.1884, 2155.908
349.6705, 2167.195
350.1526, 2153.860
350.6347, 2146.800
351.1168, 2159.538
351.5989, 2178.967
352.0811, 2186.328
352.5632, 2173.395
353.0453, 2153.818
353.5274, 2154.437
354.0095, 2182.998
354.4916, 2203.140
354.9738, 2196.053
355.4559, 2187.276
355.9380, 2195.714
356.4201, 2220.814
356.9022, 2242.413
357.3843, 2239.051
357.8665, 2217.790
358.3486, 2209.853
358.8307, 2219.184
359.3128, 2237.398
359.7949, 2265.732
360.2770, 2298.667
360.7592, 2323.712
361.2413, 2335.523
361.7234, 2339.823
362.2055, 2340.121
362.6876, 2336.866
363.1697, 2333.415
363.6519, 2330.340
364.1340, 2328.947
364.6161, 2332.696
365.0982, 2343.304
365.5803, 2354.072
366.0624, 2360.494
366.5446, 2367.140
367.0267, 2382.008
367.5088, 2406.339
367.9909, 2431.785
368.4730, 2448.706
368.9551, 2455.920
369.4373, 2459.826
369.9194, 2454.877
370.4015, 2452.445
370.8836, 2457.753
371.3657, 2469.923
371.8478, 2486.709
372.3300, 2507.373
372.8121, 2530.160
373.2942, 2548.078
373.7763, 2555.216
374.2584, 2566.966
374.7405, 2590.707
375.2227, 2616.185
375.7048, 2633.274
376.1869, 2640.080
376.6690, 2645.460
377.1511, 2662.008
377.6332, 2690.268
378.1154, 2708.415
378.5975, 2705.962
379.0796, 2704.152
379.5617, 2718.551
380.0438, 2744.024
380.5259, 2765.450
381.0081, 2768.931
381.4902, 2768.531
381.9723, 2789.717
382.4544, 2833.723
382.9365, 2873.184
383.4186, 2892.700
383.9008, 2900.246
384.3829, 2914.619
384.8650, 2938.796
385.3471, 2962.861
385.8292, 2979.042
386.3113, 2993.392
386.7935, 3017.179
387.2756, 3053.271
387.7577, 3094.357
388.2398, 3132.719
388.7219, 3168.582
389.2040, 3200.221
389.6862, 3218.129
390.1683, 3241.228
390.6504, 3284.894
391.1325, 3342.127
391.6146, 3393.853
392.0967, 3428.668
392.5789, 3451.225
393.0610, 3477.870
393.5431, 3506.884
394.0252, 3543.872
394.5073, 3594.573
394.9894, 3648.982
395.4716, 3698.662
395.9537, 3742.252
396.4358, 3785.542
396.9179, 3838.324
397.4000, 3900.144
397.8821, 3946.710
398.3643, 3964.524
398.8464, 3985.698
399.3285, 4033.891
399.8106, 4097.905
400.2927, 4154.129
400.7748, 4191.063
401.2570, 4219.998
401.7391, 4256.964
402.2212, 4300.630
402.7033, 4332.858
403.1854, 4343.741
403.6675, 4342.377
404.1497, 4344.117
404.6317, 4348.737
405.1139, 4356.062
405.5960, 4370.391
406.0781, 4384.996
406.5602, 4394.413
407.0423, 4397.240
407.5244, 4391.181
408.0066, 4373.825
408.4887, 4345.169
408.9708, 4311.099
409.4529, 4267.524
409.9350, 4223.774
410.4171, 4185.773
410.8993, 4147.887
411.3814, 4100.792
411.8635, 4041.001
412.3456, 3977.056
412.8277, 3925.069
413.3098, 3890.942
413.7920, 3847.644
414.2741, 3781.948
414.7562, 3716.394
415.2383, 3663.728
415.7204, 3621.135
416.2025, 3576.888
416.6847, 3521.979
417.1668, 3461.697
417.6489, 3407.853
418.1310, 3361.425
418.6131, 3315.118
419.0952, 3266.904
419.5774, 3215.900
420.0595, 3159.649
420.5416, 3093.506
421.0237, 3034.151
421.5058, 2996.384
421.9879, 2968.552
422.4701, 2929.867
422.9522, 2876.080
423.4343, 2818.639
423.9164, 2768.949
424.3985, 2727.887
424.8806, 2684.584
425.3628, 2636.189
425.8449, 2588.676
426.3270, 2540.046
426.8091, 2494.852
427.2912, 2462.289
427.7733, 2446.883
428.2555, 2438.956
428.7376, 2417.997
429.2197, 2377.362
429.7018, 2340.840
430.1839, 2310.960
430.6660, 2284.652
431.1482, 2260.303
431.6303, 2238.130
432.1124, 2219.490
432.5945, 2208.056
433.0766, 2199.963
433.5587, 2183.275
434.0409, 2155.447
434.5230, 2131.410
435.0051, 2119.320
435.4872, 2114.708
435.9693, 2111.536
436.4514, 2112.276
436.9336, 2106.240
437.4157, 2080.283
437.8978, 2046.571
438.3799, 2027.375
438.8620, 2026.843
439.3441, 2029.256
439.8263, 2019.051
440.3084, 1995.261
440.7905, 1979.118
441.2726, 1976.072
441.7547, 1973.289
442.2368, 1964.449
442.7190, 1953.641
443.2011, 1947.239
443.6832, 1947.744
444.1653, 1952.956
444.6474, 1961.218
445.1295, 1976.339
445.6117, 1980.719
446.0938, 1962.804
446.5759, 1943.249
447.0580, 1929.192
447.5401, 1921.165
448.0222, 1918.952
448.5044, 1923.976
448.9865, 1933.392
449.4686, 1943.538
449.9507, 1954.555
450.4328, 1962.565
450.9149, 1962.860
451.3971, 1962.455
451.8792, 1974.244
452.3613, 2001.382
452.8434, 2023.428
453.3255, 2028.103
453.8076, 2028.496
454.2898, 2040.027
454.7719, 2062.944
455.2540, 2086.279
455.7361, 2101.512
456.2182, 2110.213
456.7003, 2124.537
457.1825, 2153.908
457.6646, 2177.602
458.1467, 2186.594
458.6288, 2192.884
459.1109, 2209.139
459.5930, 2237.481
460.0752, 2269.068
460.5573, 2294.635
461.0394, 2314.241
461.5215, 2334.775
462.0036, 2355.345
462.4857, 2378.595
462.9679, 2411.758
463.4500, 2446.845
463.9321, 2469.652
464.4142, 2471.212
464.8963, 2472.151
465.3784, 2492.604
465.8606, 2526.137
466.3427, 2551.867
466.8248, 2563.754
467.3069, 2571.748
467.7890, 2585.972
468.2711, 2607.065
468.7533, 2632.876
469.2354, 2674.819
469.7175, 2709.786
470.1996, 2716.743
470.6817, 2710.604
471.1638, 2722.390
471.6460, 2766.012
472.1281, 2823.322
472.6102, 2859.532
473.0923, 2865.814
473.5744, 2877.548
474.0565, 2898.267
474.5387, 2923.431
475.0208, 2951.148
475.5029, 2981.840
475.9850, 3017.909
476.4671, 3066.944
476.9492, 3115.309
477.4313, 3137.046
477.9135, 3132.552
478.3956, 3134.454
478.8777, 3160.130
479.3598, 3189.874
479.8419, 3189.210
480.3240, 3154.998
480.8062, 3127.222
481.2883, 3122.035
481.7704, 3120.003
482.2525, 3106.455
482.7346, 3081.394
483.2167, 3049.374
483.6989, 3013.136
484.1810, 2972.969
484.6631, 2930.646
485.1452, 2889.221
485.6273, 2839.589
486.1094, 2774.663
486.5916, 2707.964
487.0737, 2647.095
487.5558, 2593.114
488.0379, 2543.567
488.5200, 2496.791
489.0021, 2453.443
489.4843, 2417.614
489.9664, 2391.289
490.4485, 2360.657
490.9306, 2321.497
491.4127, 2273.027
491.8948, 2209.785
492.3770, 2123.794
492.8591, 2057.657
493.3412, 2038.787
493.8233, 2039.345
494.3054, 2033.948
494.7875, 2018.372
495.2697, 1989.068
495.7518, 1940.532
496.2339, 1879.236
496.7160, 1839.631
497.1981, 1839.806
497.6802, 1836.926
498.1624, 1826.406
498.6445, 1812.468
499.1266, 1797.829
499.6087, 1783.157
500.0908, 1768.358
500.5729, 1751.947
501.0551, 1735.450
501.5372, 1726.370
502.0193, 1727.567
502.5014, 1723.968
502.9835, 1702.919
503.4656, 1676.562
503.9478, 1666.370
504.4299, 1678.544
504.9120, 1685.064
505.3941, 1669.554
505.8762, 1645.937
506.3583, 1631.432
506.8405, 1626.719
507.3226, 1620.535
507.8047, 1603.631
508.2868, 1579.661
508.7689, 1569.209
509.2510, 1588.359
509.7332, 1598.215
510.2153, 1589.318
510.6974, 1574.702
511.1795, 1561.489
511.6616, 1552.195
512.1437, 1550.710
512.6259, 1566.641
513.1080, 1591.616
513.5901, 1595.245
514.0722, 1573.326
514.5543, 1554.002
515.0364, 1549.500
515.5186, 1554.863
516.0007, 1562.880
516.4828, 1576.281
516.9649, 1581.347
517.4470, 1566.083
517.9291, 1545.567
518.4113, 1535.117
518.8934, 1534.777
519.3755, 1536.466
519.8576, 1535.019
520.3397, 1531.396
520.8218, 1528.785
521.3040, 1523.871
521.7861, 1526.286
522.2682, 1547.640
522.7503, 1566.950
523.2324, 1566.878
523.7145, 1550.140
524.1967, 1534.341
524.6788, 1532.350
525.1609, 1537.319
525.6430, 1535.248
526.1251, 1525.999
526.6072, 1517.975
527.0894, 1512.999
527.5715, 1512.329
528.0536, 1522.085
528.5357, 1546.573
529.0178, 1555.571
529.4999, 1528.347
529.9821, 1498.560
530.4642, 1493.670
530.9463, 1506.367
531.4284, 1513.302
531.9105, 1502.190
532.3926, 1481.689
532.8748, 1470.547
533.3569, 1471.578
533.8390, 1472.521
534.3211, 1467.920
534.8032, 1467.835
535.2853, 1483.336
535.7675, 1507.559
536.2496, 1522.050
536.7317, 1516.272
537.2138, 1502.539
537.6959, 1491.686
538.1780, 1483.541
538.6602, 1477.245
539.1423, 1472.385
539.6244, 1470.741
540.1065, 1476.004
540.5886, 1490.086
541.0707, 1494.181
541.5529, 1479.578
542.0350, 1465.868
542.5171, 1458.882
542.9992, 1457.281
543.4813, 1459.291
543.9634, 1464.180
544.4456, 1470.681
544.9277, 1478.343
545.4098, 1487.036
545.8919, 1492.337
546.3740, 1494.119
546.8561, 1492.457
547.3383, 1483.997
547.8204, 1473.067
548.3025, 1467.636
548.7846, 1471.210
549.2667, 1473.539
549.7488, 1466.404
550.2310, 1457.056
550.7131, 1456.925
551.1952, 1466.254
551.6773, 1474.806
552.1594, 1474.231
552.6415, 1467.055
553.1237, 1468.003
553.6058, 1491.016
554.0879, 1498.223
554.5700, 1468.952
555.0521, 1437.090
555.5342, 1428.738
556.0164, 1442.908
556.4985, 1459.733
556.9806, 1470.719
557.4627, 1474.846
557.9448, 1466.624
558.4269, 1447.074
558.9091, 1432.937
559.3912, 1431.491
559.8733, 1435.572
560.3554, 1433.664
560.8375, 1421.817
561.3196, 1420.502
561.8018, 1442.826
562.2839, 1462.709
562.7660, 1467.081
563.2481, 1459.748
563.7302, 1447.773
564.2123, 1433.987
564.6945, 1420.241
565.1766, 1407.245
565.6587, 1394.676
566.1408, 1394.005
566.6229, 1414.073
567.1050, 1430.748
567.5872, 1421.767
568.0693, 1400.725
568.5514, 1392.894
569.0335, 1406.293
569.5156, 1422.901
569.9977, 1439.430
570.4799, 1451.746
570.9620, 1453.564
571.4441, 1444.550
571.9262, 1427.186
572.4083, 1400.596
572.8904, 1370.436
573.3726, 1366.797
573.8547, 1410.537
574.3368, 1441.066
574.8189, 1443.848
575.3010, 1436.142
575.7831, 1426.179
576.2653, 1415.649
576.7474, 1406.666
577.2295, 1398.655
577.7116, 1393.995
578.1937, 1398.026
578.6758, 1408.871
579.1580, 1416.249
579.6401, 1416.095
580.1222, 1415.057
580.6042, 1423.227
581.0864, 1444.364
581.5685, 1452.309
582.0506, 1438.391
582.5327, 1423.135
583.0148, 1407.912
583.4969, 1397.490
583.9791, 1401.258
584.4612, 1420.800
584.9433, 1439.403
585.4254, 1437.340
585.9075, 1419.889
586.3896, 1409.120
586.8718, 1406.391
587.3539, 1407.779
587.8360, 1413.491
588.3181, 1420.625
588.8002, 1421.377
589.2823, 1411.140
589.7645, 1407.800
590.2466, 1421.579
590.7287, 1437.041
591.2108, 1441.055
591.6929, 1436.811
592.1750, 1436.888
592.6572, 1448.560
593.1393, 1462.283
593.6214, 1456.913
594.1035, 1429.577
594.5856, 1413.228
595.0677, 1416.152
595.5499, 1423.213
596.0320, 1421.188
596.5141, 1415.447
596.9962, 1419.636
597.4783, 1443.396
597.9604, 1465.207
598.4426, 1476.722
598.9247, 1479.697
599.4068, 1472.007
599.8889, 1456.037
600.3710, 1444.434
600.8531, 1448.238
601.3353, 1463.343
601.8174, 1471.235
602.2995, 1469.790
602.7816, 1466.203
603.2637, 1455.002
603.7458, 1447.865
604.2280, 1456.794
604.7101, 1478.312
605.1922, 1494.102
605.6743, 1492.336
606.1564, 1486.819
606.6385, 1489.922
607.1207, 1498.175
607.6028, 1502.239
608.0849, 1499.648
608.5670, 1497.644
609.0491, 1504.887
609.5313, 1521.445
610.0134, 1531.880
610.4955, 1529.712
610.9776, 1530.830
611.4597, 1540.179
611.9418, 1552.820
612.4240, 1566.088
612.9061, 1579.017
613.3882, 1587.427
613.8703, 1586.484
614.3524, 1581.178
614.8345, 1578.758
615.3167, 1578.406
615.7988, 1573.252
616.2809, 1559.519
616.7630, 1547.677
617.2451, 1554.569
617.7272, 1585.733
618.2094, 1605.646
618.6915, 1605.514
619.1736, 1604.232
619.6557, 1610.468
620.1378, 1616.451
620.6199, 1609.252
621.1021, 1586.521
621.5842, 1567.527
622.0663, 1573.747
622.5484, 1591.782
623.0305, 1592.969
623.5126, 1577.314
623.9948, 1564.307
624.4769, 1563.932
624.9590, 1568.285
625.4411, 1561.387
625.9232, 1533.917
626.4053, 1522.997
626.8875, 1547.911
627.3696, 1566.655
627.8517, 1556.752
628.3338, 1531.708
628.8159, 1513.224
629.2980, 1508.076
629.7802, 1505.587
630.2623, 1494.073
630.7444, 1477.782
631.2265, 1470.458
631.7086, 1473.109
632.1907, 1471.036
632.6729, 1454.188
633.1550, 1431.086
633.6371, 1422.152
634.1192, 1439.796
634.6013, 1444.413
635.0834, 1424.984
635.5656, 1404.116
636.0477, 1392.567
636.5298, 1387.484
637.0119, 1382.436
637.4940, 1375.054
637.9761, 1368.284
638.4583, 1367.017
638.9404, 1368.767
639.4225, 1364.723
639.9046, 1353.879
640.3867, 1343.042
640.8688, 1335.769
641.3510, 1331.626
641.8331, 1329.482
642.3152, 1328.295
642.7973, 1331.433
643.2794, 1344.436
643.7615, 1356.191
644.2437, 1362.116
644.7258, 1362.211
645.2079, 1355.923
645.6900, 1342.293
646.1721, 1328.785
646.6542, 1325.453
647.1364, 1328.403
647.6185, 1323.007
648.1006, 1307.478
648.5827, 1298.339
649.0648, 1306.830
649.5469, 1326.534
650.0291, 1340.249
650.5112, 1348.005
650.9933, 1349.225
651.4754, 1338.786
651.9575, 1327.378
652.4396, 1320.177
652.9218, 1315.980
653.4039, 1311.702
653.8860, 1306.174
654.3681, 1301.136
654.8502, 1299.250
655.3323, 1299.027
655.8145, 1295.819
656.2966, 1289.330
656.7787, 1285.063
657.2608, 1286.947
657.7429, 1291.577
658.2250, 1290.036
658.7072, 1275.282
659.1893, 1269.893
659.6714, 1280.956
660.1535, 1293.119
660.6356, 1303.123
661.1177, 1308.629
661.5999, 1304.857
662.0820, 1289.128
662.5641, 1274.055
663.0462, 1268.889
663.5283, 1271.573
664.0104, 1282.567
664.4926, 1299.984
664.9747, 1308.806
665.4568, 1299.900
665.9389, 1282.491
666.4210, 1275.350
666.9031, 1281.041
667.3853, 1289.031
667.8674, 1307.167
668.3495, 1318.578
668.8316, 1313.672
669.3137, 1300.159
669.7958, 1288.290
670.2780, 1280.106
670.7601, 1273.939
671.2422, 1268.768
671.7243, 1265.141
672.2064, 1264.676
672.6885, 1266.608
673.1707, 1267.518
673.6528, 1265.845
674.1349, 1263.630
674.6170, 1264.224
675.0991, 1268.057
675.5812, 1271.729
676.0634, 1276.503
676.5455, 1279.068
677.0276, 1276.501
677.5097, 1271.980
677.9918, 1268.857
678.4739, 1267.474
678.9561, 1266.622
679.4382, 1267.123
679.9203, 1266.869
680.4024, 1263.709
680.8845, 1258.516
681.3666, 1252.794
681.8488, 1247.159
682.3309, 1242.564
682.8130, 1240.392
683.2951, 1240.374
683.7772, 1239.544
684.2593, 1237.725
684.7415, 1235.397
685.2236, 1230.577
685.7057, 1227.356
686.1878, 1233.145
686.6699, 1247.938
687.1520, 1257.023
687.6342, 1254.902
688.1163, 1250.999
688.5984, 1250.225
689.0805, 1249.789
689.5626, 1242.035
690.0447, 1228.274
690.5269, 1224.091
691.0090, 1249.042
691.4911, 1285.973
691.9732, 1290.038
692.4553, 1261.988
692.9374, 1236.164
693.4196, 1219.974
693.9017, 1212.395
694.3838, 1214.664
694.8659, 1226.128
695.3480, 1231.332
695.8301, 1221.905
696.3123, 1217.910
696.7944, 1225.319
697.2765, 1236.396
697.7586, 1247.902
698.2407, 1257.664
698.7228, 1261.087
699.2050, 1253.953
699.6871, 1243.833
700.1692, 1237.326
700.6513, 1234.495
701.1334, 1236.791
701.6155, 1244.112
702.0977, 1251.698
702.5798, 1256.736
703.0619, 1258.680
703.5440, 1255.170
704.0261, 1242.714
704.5082, 1233.634
704.9904, 1229.652
705.4725, 1227.961
705.9546, 1227.950
706.4367, 1229.027
706.9188, 1230.213
707.4009, 1231.373
707.8831, 1232.500
708.3652, 1235.016
708.8473, 1236.442
709.3294, 1231.463
709.8115, 1223.075
710.2936, 1222.302
710.7758, 1233.938
711.2579, 1246.098
711.7400, 1239.048
712.2221, 1213.645
712.7042, 1195.215
713.1863, 1183.249
713.6685, 1181.865
714.1506, 1197.641
714.6327, 1220.275
715.1148, 1235.944
715.5969, 1245.098
716.0790, 1244.521
716.5612, 1221.919
717.0433, 1203.544
717.5254, 1201.690
718.0075, 1208.690
718.4896, 1217.080
718.9717, 1224.449
719.4539, 1228.483
719.9360, 1225.752
720.4181, 1220.232
720.9002, 1218.433
721.3823, 1219.710
721.8644, 1221.983
722.3465, 1224.958
722.8286, 1223.993
723.3107, 1212.723
723.7928, 1194.272
724.2750, 1192.262
724.7571, 1222.456
725.2392, 1238.244
725.7213, 1221.384
726.2034, 1200.218
726.6855, 1189.247
727.1677, 1186.479
727.6498, 1185.082
728.1319, 1183.400
728.6140, 1183.063
729.0961, 1188.530
729.5782, 1193.313
730.0604, 1186.116
730.5425, 1171.005
731.0246, 1163.658
731.5067, 1171.987
731.9888, 1188.114
732.4709, 1202.798
732.9531, 1215.599
733.4352, 1218.357
733.9173, 1208.399
734.3994, 1200.105
734.8815, 1200.034
735.3636, 1205.292
735.8458, 1212.513
736.3279, 1224.494
736.8100, 1226.176
737.2921, 1205.494
737.7742, 1189.335
738.2563, 1190.688
738.7385, 1198.566
739.2206, 1200.728
739.7027, 1195.754
740.1848, 1189.602
740.6669, 1178.914
741.1490, 1175.052
741.6312, 1206.811
742.1133, 1253.399
742.5954, 1253.492
743.0775, 1197.892
743.5596, 1143.982
744.0417, 1140.330
744.5239, 1172.588
745.0060, 1189.137
745.4881, 1187.064
745.9702, 1180.448
746.4523, 1165.509
746.9344, 1155.038
747.4166, 1163.020
747.8987, 1181.004
748.3808, 1186.062
748.8629, 1169.087
749.3450, 1158.721
749.8271, 1167.083
750.3093, 1177.386
750.7914, 1177.513
751.2735, 1171.556
751.7556, 1166.872
752.2377, 1165.962
752.7198, 1171.328
753.2020, 1193.925
753.6841, 1220.923
754.1662, 1223.233
754.6483, 1203.704
755.1304, 1181.593
755.6125, 1162.910
756.0947, 1151.468
756.5768, 1153.174
757.0589, 1167.073
757.5410, 1174.603
758.0231, 1171.117
758.5052, 1171.602
758.9874, 1182.704
759.4695, 1195.203
759.9516, 1203.756
760.4337, 1208.022
760.9158, 1206.631
761.3979, 1193.199
761.8801, 1183.757
762.3622, 1188.371
762.8443, 1195.518
763.3264, 1194.164
763.8085, 1186.219
764.2906, 1178.727
764.7728, 1174.567
765.2549, 1174.320
765.7370, 1182.645
766.2191, 1194.756
766.7012, 1194.420
767.1833, 1181.988
767.6655, 1174.889
768.1476, 1181.132
768.6297, 1192.146
769.1118, 1195.483
769.5939, 1190.521
770.0760, 1190.098
770.5582, 1198.666
771.0403, 1203.332
771.5224, 1193.864
772.0045, 1185.007
772.4866, 1191.872
772.9688, 1211.733
773.4509, 1226.238
773.9330, 1237.308
774.4151, 1235.765
774.8972, 1201.856
775.3793, 1165.917
775.8615, 1160.974
776.3436, 1181.295
776.8257, 1200.956
777.3078, 1207.625
777.7899, 1207.349
778.2720, 1203.467
778.7542, 1198.792
779.2363, 1202.825
779.7184, 1215.231
780.2005, 1225.249
780.6826, 1228.016
781.1647, 1226.175
781.6469, 1222.809
782.1290, 1217.610
782.6111, 1217.087
783.0932, 1223.249
783.5753, 1229.906
784.0574, 1239.478
784.5396, 1245.016
785.0217, 1236.479
785.5038, 1216.240
785.9859, 1202.369
786.4680, 1197.991
786.9501, 1198.806
787.4323, 1208.659
787.9144, 1219.219
788.3965, 1223.617
788.8786, 1222.398
789.3607, 1218.836
789.8428, 1214.166
790.3250, 1208.512
790.8071, 1199.939
791.2892, 1191.394
791.7713, 1188.671
792.2534, 1191.435
792.7355, 1197.152
793.2177, 1204.882
793.6998, 1211.497
794.1819, 1212.788
794.6640, 1209.068
795.1461, 1204.380
795.6282, 1198.528
796.1104, 1192.371
796.5925, 1185.460
797.0746, 1179.434
797.5567, 1176.098
798.0388, 1175.211
798.5209, 1174.345
799.0031, 1173.278
799.4852, 1172.560
799.9673, 1172.312
800.4494, 1172.361
800.9315, 1170.011
801.4136, 1168.553
801.8958, 1177.187
802.3779, 1200.938
802.8600, 1215.875
803.3421, 1198.521
803.8242, 1173.074
804.3063, 1166.142
804.7885, 1171.316
805.2706, 1168.956
805.7527, 1154.556
806.2348, 1143.278
806.7169, 1151.580
807.1990, 1171.275
807.6812, 1181.071
808.1633, 1181.106
808.6454, 1172.311
809.1275, 1153.720
809.6096, 1134.393
810.0917, 1119.818
810.5739, 1111.439
811.0560, 1115.390
811.5381, 1139.240
812.0202, 1156.111
812.5023, 1165.795
812.9844, 1168.175
813.4666, 1158.080
813.9487, 1143.442
814.4308, 1133.504
814.9129, 1128.761
815.3950, 1129.428
815.8771, 1141.488
816.3593, 1152.040
816.8414, 1154.228
817.3235, 1152.235
817.8056, 1152.297
818.2877, 1153.606
818.7698, 1148.334
819.2520, 1128.813
819.7341, 1109.197
820.2162, 1105.725
820.6983, 1112.111
821.1804, 1117.561
821.6625, 1120.769
822.1447, 1122.861
822.6268, 1124.399
823.1089, 1124.496
823.5910, 1120.547
824.0731, 1113.175
824.5552, 1112.513
825.0374, 1120.101
825.5195, 1121.478
826.0016, 1109.745
826.4837, 1096.568
826.9658, 1094.887
827.4479, 1103.498
827.9301, 1108.214
828.4122, 1111.488
828.8943, 1106.537
829.3764, 1077.819
829.8585, 1055.899
830.3406, 1062.236
830.8228, 1085.173
831.3049, 1103.835
831.7870, 1116.696
832.2691, 1119.051
832.7512, 1098.751
833.2333, 1078.650
833.7155, 1071.888
834.1976, 1075.121
834.6797, 1085.977
835.1618, 1101.738
835.6439, 1112.751
836.1260, 1112.308
836.6082, 1104.913
837.0903, 1091.733
837.5724, 1076.887
838.0545, 1069.565
838.5366, 1070.434
839.0187, 1075.684
839.5009, 1083.476
839.9830, 1091.344
840.4651, 1093.212
840.9472, 1090.006
841.4293, 1098.253
841.9114, 1120.531
842.3936, 1132.312
842.8757, 1123.414
843.3578, 1104.728
843.8399, 1086.366
844.3220, 1068.924
844.8041, 1063.005
845.2863, 1078.434
845.7684, 1085.709
846.2505, 1073.478
846.7326, 1060.644
847.2147, 1055.864
847.6968, 1059.137
848.1790, 1073.188
848.6611, 1105.606
849.1432, 1124.023
849.6253, 1115.976
850.1074, 1099.303
850.5895, 1073.228
851.0717, 1049.458
851.5538, 1045.104
852.0359, 1059.798
852.5180, 1074.124
853.0001, 1077.947
853.4822, 1077.703
853.9644, 1077.589
854.4465, 1077.396
854.9286, 1075.956
855.4107, 1074.029
855.8928, 1075.032
856.3749, 1080.713
856.8571, 1086.743
857.3392, 1088.522
857.8213, 1086.167
858.3034, 1076.112
858.7855, 1060.187
859.2676, 1058.660
859.7498, 1078.421
860.2319, 1095.458
860.7140, 1084.663
861.1961, 1054.584
861.6782, 1045.021
862.1603, 1060.926
862.6425, 1068.049
863.1245, 1059.088
863.6066, 1050.366
864.0887, 1050.034
864.5709, 1056.466
865.0530, 1068.288
865.5351, 1089.434
866.0172, 1098.579
866.4993, 1084.644
866.9814, 1072.936
867.4636, 1070.824
867.9457, 1071.176
868.4278, 1066.883
868.9099, 1059.445
869.3920, 1056.854
869.8741, 1063.391
870.3563, 1069.729
870.8384, 1071.786
871.3205, 1073.777
871.8026, 1082.613
872.2847, 1092.154
872.7668, 1088.684
873.2490, 1069.804
873.7311, 1055.623
874.2132, 1065.747
874.6953, 1080.186
875.1774, 1079.572
875.6595, 1069.921
876.1417, 1059.067
876.6238, 1049.954
877.1059, 1048.125
877.5880, 1057.586
878.0701, 1069.095
878.5522, 1068.543
879.0344, 1059.863
879.5165, 1054.109
879.9986, 1051.864
880.4807, 1053.389
880.9628, 1058.842
881.4449, 1064.871
881.9271, 1068.077
882.4092, 1068.818
882.8913, 1067.619
883.3734, 1063.889
883.8555, 1066.188
884.3376, 1078.068
884.8198, 1085.908
885.3019, 1079.321
885.7840, 1067.301
886.2661, 1069.416
886.7482, 1090.389
887.2303, 1097.648
887.7125, 1082.905
888.1946, 1069.098
888.6767, 1061.538
889.1588, 1057.634
889.6409, 1055.241
890.1230, 1054.528
890.6052, 1056.638
891.0873, 1064.440
891.5694, 1070.222
892.0515, 1073.492
892.5336, 1074.259
893.0157, 1072.428
893.4979, 1068.105
893.9800, 1059.967
894.4621, 1048.185
894.9442, 1039.788
895.4263, 1036.818
895.9084, 1038.443
896.3906, 1047.161
896.8727, 1058.025
897.3548, 1065.568
897.8369, 1070.676
898.3190, 1079.837
898.8011, 1096.670
899.2833, 1104.678
899.7654, 1080.038
900.2475, 1048.159
900.7296, 1041.773
901.2117, 1051.560
901.6938, 1055.185
902.1760, 1048.681
902.6581, 1042.651
903.1402, 1044.746
903.6223, 1050.453
904.1044, 1052.747
904.5865, 1053.110
905.0687, 1055.925
905.5508, 1061.338
906.0329, 1069.469
906.5150, 1080.413
906.9971, 1085.304
907.4792, 1070.773
907.9614, 1043.567
908.4435, 1032.507
908.9256, 1037.455
909.4077, 1046.917
909.8898, 1059.914
910.3719, 1068.438
910.8541, 1067.476
911.3362, 1058.741
911.8183, 1042.891
912.3004, 1017.451
912.7825, 1012.157
913.2646, 1033.550
913.7468, 1053.990
914.2289, 1066.270
914.7110, 1074.468
915.1931, 1082.773
915.6752, 1090.017
916.1573, 1089.996
916.6395, 1076.596
917.1216, 1068.650
917.6037, 1071.756
918.0858, 1073.041
918.5679, 1065.310
919.0500, 1054.472
919.5322, 1047.286
920.0143, 1043.769
920.4964, 1041.175
920.9785, 1040.227
921.4606, 1038.925
921.9427, 1038.049
922.4249, 1035.606
922.9070, 1025.049
923.3891, 1013.943
923.8712, 1018.472
924.3533, 1043.089
924.8354, 1060.624
925.3176, 1060.135
925.7997, 1054.114
926.2818, 1042.848
926.7639, 1033.187
927.2460, 1033.466
927.7281, 1041.376
928.2103, 1047.354
928.6924, 1047.031
929.1745, 1049.922
929.6566, 1070.091
930.1387, 1087.838
930.6208, 1085.252
931.1030, 1068.629
931.5851, 1043.296
932.0672, 1014.606
932.5493, 998.5677
933.0314, 1007.157
933.5135, 1023.737
933.9957, 1035.646
934.4778, 1043.050
934.9599, 1043.550
935.4420, 1039.992
935.9241, 1039.040
936.4063, 1042.946
936.8884, 1051.487
937.3705, 1069.037
937.8526, 1084.749
938.3347, 1077.166
938.8168, 1054.369
939.2990, 1034.530
939.7811, 1020.943
940.2632, 1016.259
940.7453, 1021.676
941.2274, 1033.368
941.7095, 1049.330
942.1917, 1066.687
942.6738, 1076.698
943.1559, 1079.698
943.6380, 1075.942
944.1201, 1065.821
944.6022, 1055.189
945.0844, 1047.635
945.5665, 1042.549
946.0486, 1038.399
946.5307, 1035.482
947.0128, 1040.369
947.4949, 1053.353
947.9771, 1055.368
948.4592, 1039.916
948.9413, 1023.948
949.4234, 1021.135
949.9055, 1028.066
950.3876, 1036.507
950.8698, 1046.875
951.3519, 1052.541
951.8340, 1051.447
952.3161, 1057.317
952.7982, 1078.829
953.2803, 1096.400
953.7625, 1086.424
954.2446, 1056.342
954.7267, 1048.328
955.2088, 1070.721
955.6909, 1081.859
956.1730, 1075.294
956.6552, 1067.175
957.1373, 1064.507
957.6194, 1063.577
958.1015, 1058.100
958.5836, 1048.615
959.0657, 1052.118
959.5479, 1082.351
960.0300, 1092.384
960.5121, 1065.525
960.9942, 1036.668
961.4763, 1021.921
961.9584, 1017.894
962.4406, 1020.607
962.9227, 1031.073
963.4048, 1038.027
963.8869, 1034.157
964.3690, 1038.939
964.8511, 1069.795
965.3333, 1093.994
965.8154, 1083.018
966.2975, 1053.878
966.7796, 1042.807
967.2617, 1055.353
967.7438, 1061.046
968.2260, 1052.476
968.7081, 1046.297
969.1902, 1052.608
969.6723, 1056.431
970.1544, 1038.828
970.6365, 1011.320
971.1187, 1006.233
971.6008, 1034.323
972.0829, 1055.275
972.5650, 1061.160
973.0471, 1063.704
973.5292, 1068.579
974.0114, 1070.265
974.4935, 1061.126
974.9756, 1044.469
975.4577, 1031.808
975.9398, 1024.292
976.4219, 1021.958
976.9041, 1031.292
977.3862, 1037.990
977.8683, 1030.108
978.3504, 1020.583
978.8325, 1025.769
979.3146, 1042.628
979.7968, 1052.706
980.2789, 1049.503
980.7610, 1045.213
981.2431, 1038.975
981.7252, 1037.173
982.2073, 1048.459
982.6895, 1062.785
983.1716, 1066.487
983.6537, 1060.573
984.1358, 1058.657
984.6179, 1066.560
985.1000, 1074.943
985.5822, 1084.318
986.0643, 1089.214
986.5464, 1083.448
987.0285, 1072.427
987.5106, 1063.110
987.9927, 1056.342
988.4749, 1049.840
988.9570, 1042.901
989.4391, 1036.014
989.9212, 1026.529
990.4033, 1020.049
990.8854, 1023.403
991.3676, 1031.022
991.8497, 1033.409
992.3318, 1029.951
992.8139, 1029.684
993.2960, 1040.591
993.7781, 1048.367
994.2603, 1044.836
994.7424, 1037.352
995.2245, 1029.546
995.7066, 1022.865
996.1887, 1019.332
996.6708, 1019.009
997.1530, 1018.824
997.6351, 1013.253
998.1172, 1013.454
998.5993, 1032.623
999.0814, 1052.444
999.5635, 1054.260
1000.046, 1046.958
1000.528, 1048.867
1001.010, 1062.685
1001.492, 1073.120
1001.974, 1073.519
1002.456, 1069.020
1002.938, 1056.851
1003.420, 1045.627
1003.903, 1044.235
1004.385, 1048.673
1004.867, 1050.793
1005.349, 1049.131
1005.831, 1048.257
1006.313, 1050.003
1006.795, 1053.198
1007.277, 1056.897
1007.759, 1062.158
1008.242, 1075.681
1008.724, 1089.169
1009.206, 1082.514
1009.688, 1053.568
1010.170, 1037.988
1010.652, 1067.844
1011.134, 1092.502
1011.616, 1079.156
1012.099, 1058.914
1012.581, 1057.865
1013.063, 1069.240
1013.545, 1078.515
1014.027, 1082.666
1014.509, 1082.901
1014.991, 1075.499
1015.473, 1069.784
1015.955, 1072.145
1016.438, 1075.560
1016.920, 1073.376
1017.402, 1068.602
1017.884, 1068.229
1018.366, 1073.141
1018.848, 1074.268
1019.330, 1061.767
1019.812, 1054.082
1020.294, 1067.735
1020.777, 1079.491
1021.259, 1065.648
1021.741, 1040.741
1022.223, 1030.348
1022.705, 1037.824
1023.187, 1047.017
1023.669, 1054.783
1024.151, 1061.443
1024.634, 1070.002
1025.116, 1074.445
1025.598, 1069.192
1026.080, 1058.019
1026.562, 1043.588
1027.044, 1027.042
1027.526, 1021.232
1028.008, 1036.785
1028.490, 1051.946
1028.973, 1062.969
1029.455, 1070.894
1029.937, 1074.776
1030.419, 1076.852
1030.901, 1082.727
1031.383, 1091.894
1031.865, 1089.622
1032.347, 1053.342
1032.830, 1036.349
1033.312, 1064.375
1033.794, 1092.926
1034.276, 1100.675
1034.758, 1096.255
1035.240, 1088.824
1035.722, 1079.243
1036.204, 1072.511
1036.687, 1068.723
1037.169, 1068.212
1037.651, 1075.285
1038.133, 1080.448
1038.615, 1079.571
1039.097, 1075.225
1039.579, 1069.956
1040.061, 1063.664
1040.543, 1055.183
1041.026, 1032.329
1041.508, 1031.076
1041.990, 1068.965
1042.472, 1101.227
1042.954, 1114.709
1043.436, 1113.642
1043.918, 1097.438
1044.400, 1070.476
1044.882, 1053.194
1045.365, 1045.891
1045.847, 1048.867
1046.329, 1070.993
1046.811, 1081.768
1047.293, 1065.663
1047.775, 1047.163
1048.257, 1047.400
1048.739, 1061.438
1049.222, 1075.418
1049.704, 1091.644
1050.186, 1093.576
1050.668, 1077.147
1051.150, 1061.998
1051.632, 1052.455
1052.114, 1047.622
1052.596, 1046.829
1053.078, 1050.457
1053.561, 1061.706
1054.043, 1080.874
1054.525, 1085.815
1055.007, 1075.551
1055.489, 1060.376
1055.971, 1041.229
1056.453, 1030.086
1056.935, 1035.162
1057.417, 1049.299
1057.900, 1063.262
1058.382, 1075.721
1058.864, 1075.503
1059.346, 1063.975
1059.828, 1060.051
1060.310, 1066.327
1060.792, 1071.719
1061.274, 1070.608
1061.757, 1067.217
1062.239, 1066.433
1062.721, 1067.614
1063.203, 1071.290
1063.685, 1075.297
1064.167, 1068.650
1064.649, 1052.773
1065.131, 1042.222
1065.614, 1042.448
1066.096, 1047.385
1066.578, 1052.317
1067.060, 1057.259
1067.542, 1061.457
1068.024, 1066.030
1068.506, 1078.996
1068.988, 1093.739
1069.470, 1085.302
1069.953, 1051.057
1070.435, 1023.366
1070.917, 1024.941
1071.399, 1037.842
1071.881, 1048.914
1072.363, 1057.423
1072.845, 1060.077
1073.327, 1060.548
1073.809, 1067.224
1074.292, 1079.304
1074.774, 1086.746
1075.256, 1085.580
1075.738, 1077.460
1076.220, 1054.526
1076.702, 1034.582
1077.184, 1033.968
1077.666, 1041.687
1078.148, 1044.956
1078.631, 1043.895
1079.113, 1044.489
1079.595, 1048.762
1080.077, 1051.633
1080.559, 1048.939
1081.041, 1047.802
1081.523, 1054.845
1082.005, 1061.084
1082.488, 1055.197
1082.970, 1044.496
1083.452, 1046.487
1083.934, 1064.817
1084.416, 1074.480
1084.898, 1065.592
1085.380, 1059.661
1085.862, 1061.363
1086.344, 1064.530
1086.827, 1069.508
1087.309, 1071.456
1087.791, 1061.027
1088.273, 1039.704
1088.755, 1031.557
1089.237, 1042.967
1089.719, 1049.106
1090.201, 1046.928
1090.683, 1043.221
1091.166, 1037.441
1091.648, 1039.946
1092.130, 1065.167
1092.612, 1101.021
1093.094, 1103.629
1093.576, 1069.978
1094.058, 1058.339
1094.540, 1071.243
1095.023, 1078.119
1095.505, 1070.842
1095.987, 1064.952
1096.469, 1071.535
1096.951, 1083.083
1097.433, 1088.209
1097.915, 1087.487
1098.397, 1079.138
1098.880, 1066.574
1099.362, 1067.116
1099.844, 1081.363
1100.326, 1096.662
1100.808, 1107.083
1101.290, 1112.820
1101.772, 1112.400
1102.254, 1109.478
1102.736, 1109.159
1103.219, 1110.273
1103.701, 1110.248
1104.183, 1110.006
1104.665, 1114.120
1105.147, 1122.488
1105.629, 1125.594
1106.111, 1114.901
1106.593, 1104.890
1107.075, 1109.232
1107.558, 1115.195
1108.040, 1109.108
1108.522, 1099.555
1109.004, 1097.798
1109.486, 1104.619
1109.968, 1118.088
1110.450, 1142.804
1110.932, 1154.723
1111.415, 1136.492
1111.897, 1118.443
1112.379, 1112.259
1112.861, 1110.650
1113.343, 1106.873
1113.825, 1103.565
1114.307, 1108.937
1114.789, 1124.790
1115.271, 1131.153
1115.754, 1124.444
1116.236, 1114.810
1116.718, 1097.594
1117.200, 1089.766
1117.682, 1102.085
1118.164, 1121.788
1118.646, 1134.998
1119.128, 1142.217
1119.610, 1146.002
1120.093, 1146.383
1120.575, 1140.398
1121.057, 1126.969
1121.539, 1125.066
1122.021, 1140.629
1122.503, 1155.530
1122.985, 1156.606
1123.467, 1149.001
1123.950, 1138.932
1124.432, 1128.012
1124.914, 1119.852
1125.396, 1115.759
1125.878, 1122.901
1126.360, 1139.443
1126.842, 1153.494
1127.324, 1160.049
1127.807, 1161.229
1128.289, 1157.588
1128.771, 1151.011
1129.253, 1141.964
1129.735, 1132.439
1130.217, 1122.021
1130.699, 1114.247
1131.181, 1118.008
1131.663, 1132.131
1132.146, 1141.210
1132.628, 1138.942
1133.110, 1132.451
1133.592, 1121.331
1134.074, 1110.632
1134.556, 1100.776
1135.038, 1094.417
1135.520, 1095.495
1136.002, 1101.876
1136.485, 1108.364
1136.967, 1115.720
1137.449, 1117.054
1137.931, 1101.929
1138.413, 1102.329
1138.895, 1132.586
1139.377, 1158.695
1139.859, 1164.424
1140.342, 1157.545
1140.824, 1145.162
1141.306, 1130.187
1141.788, 1128.913
1142.270, 1142.059
1142.752, 1146.427
1143.234, 1140.904
1143.716, 1137.568
1144.198, 1139.704
1144.681, 1144.739
1145.163, 1151.401
1145.645, 1155.943
1146.127, 1151.020
1146.609, 1141.010
1147.091, 1133.069
1147.573, 1128.860
1148.055, 1135.547
1148.537, 1149.445
1149.020, 1156.215
1149.502, 1151.575
1149.984, 1145.429
1150.466, 1141.643
1150.948, 1142.625
1151.430, 1162.408
1151.912, 1175.133
1152.394, 1144.379
1152.877, 1102.368
1153.359, 1097.461
1153.841, 1124.902
1154.323, 1140.971
1154.805, 1132.117
1155.287, 1131.331
1155.769, 1155.244
1156.251, 1169.510
1156.734, 1159.799
1157.216, 1148.038
1157.698, 1146.607
1158.180, 1151.205
1158.662, 1156.192
1159.144, 1161.187
1159.626, 1160.648
1160.108, 1153.209
1160.590, 1153.945
1161.073, 1164.832
1161.555, 1171.758
1162.037, 1170.366
1162.519, 1158.368
1163.001, 1132.135
1163.483, 1104.717
1163.965, 1099.250
1164.447, 1108.600
1164.929, 1118.463
1165.412, 1127.691
1165.894, 1135.861
1166.376, 1141.175
1166.858, 1136.753
1167.340, 1121.007
1167.822, 1106.279
1168.304, 1100.102
1168.786, 1098.136
1169.269, 1101.115
1169.751, 1103.361
1170.233, 1094.967
1170.715, 1086.746
1171.197, 1098.764
1171.679, 1124.732
1172.161, 1131.774
1172.643, 1105.577
1173.125, 1095.292
1173.608, 1116.241
1174.090, 1131.735
1174.572, 1134.258
1175.054, 1132.997
1175.536, 1132.180
1176.018, 1131.433
1176.500, 1130.479
1176.982, 1129.006
1177.464, 1125.541
1177.947, 1120.085
1178.429, 1110.440
1178.911, 1097.382
1179.393, 1096.301
1179.875, 1110.115
1180.357, 1124.265
1180.839, 1130.259
1181.321, 1129.151
1181.804, 1117.708
1182.286, 1092.117
1182.768, 1112.341
1183.250, 1123.181
1183.732, 1125.143
1184.214, 1091.632
1184.696, 1103.926
1185.178, 1097.864
1185.661, 1091.047
1186.143, 1109.788
1186.625, 1081.437
1187.107, 1099.773
1187.589, 1099.472
1188.071, 1107.701
1188.553, 1097.460
1189.035, 1104.734
1189.517, 1114.948
1190.000, 1115.498
1190.482, 1106.261
1190.964, 1093.128
1191.446, 1075.108
1191.928, 1056.194
1192.410, 1035.346
1192.892, 1028.076
1193.374, 1040.809
1193.856, 1054.985
1194.339, 1054.961
1194.821, 1050.527
1195.303, 1060.103
1195.785, 1076.575
1196.267, 1085.804
1196.749, 1087.653
1197.231, 1078.339
1197.713, 1062.476
1198.196, 1055.893
1198.678, 1062.078
1199.160, 1062.390
1199.642, 1041.278
1200.124, 1022.754
1200.606, 1018.258
1201.088, 1020.531
1201.570, 1029.995
1202.052, 1040.082
1202.535, 1046.300
1203.017, 1047.163
1203.499, 1037.980
1203.981, 1016.687
1204.463, 1008.173
1204.945, 1017.571
1205.427, 1021.482
1205.909, 1016.212
1206.391, 1011.222
1206.874, 1009.904
1207.356, 1011.697
1207.838, 1016.276
1208.320, 1022.926
1208.802, 1033.399
1209.284, 1043.599
1209.766, 1038.881
1210.248, 1025.859
1210.731, 1022.162
1211.213, 1026.964
1211.695, 1029.613
1212.177, 1026.710
1212.659, 1020.852
1213.141, 1009.447
1213.623, 1003.026
1214.105, 1014.074
1214.588, 1022.983
1215.070, 1016.565
1215.552, 1003.820
1216.034, 992.2369
1216.516, 982.2119
1216.998, 972.9480
1217.480, 964.1572
1217.962, 963.0501
1218.444, 971.9116
1218.927, 978.7314
1219.409, 982.5164
1219.891, 982.7383
1220.373, 978.9467
1220.855, 975.9188
1221.337, 977.4509
1221.819, 981.5608
1222.301, 985.4477
1222.783, 989.4825
1223.266, 996.8356
1223.748, 1003.537
1224.230, 997.9619
1224.712, 985.9229
1225.194, 974.0929
1225.676, 994.7093
1226.158, 1005.943
1226.640, 1008.297
1227.122, 975.1789
1227.605, 987.8643
1228.087, 982.1948
1228.569, 975.7726
1229.051, 994.9066
1229.533, 966.9480
1230.015, 985.6767
1230.497, 985.7689
1230.979, 994.3903
1231.462, 984.5402
1231.944, 980.3966
1232.426, 994.7288
1232.908, 997.6391
1233.390, 999.7271
1233.872, 977.3637
1234.354, 958.0568
1234.836, 957.5209
1235.318, 963.6533
1235.801, 965.7596
1236.283, 965.9101
1236.765, 964.8873
1237.247, 964.4683
1237.729, 967.0323
1238.211, 971.4018
1238.693, 977.1696
1239.175, 982.8622
1239.657, 982.9814
1240.140, 974.8749
1240.622, 967.1794
1241.104, 953.7924
1241.586, 954.9647
1242.068, 980.7523
1242.550, 1003.277
1243.032, 1010.491
1243.514, 1007.920
1243.997, 1000.103
1244.479, 989.2371
1244.961, 979.5733
1245.443, 971.2026
1245.925, 963.4719
1246.407, 957.5106
1246.889, 955.8653
1247.371, 959.1043
1247.854, 969.7390
1248.336, 987.2310
1248.818, 1000.587
1249.300, 1004.620
1249.782, 1002.347
1250.264, 988.8952
1250.746, 977.4116
1251.228, 976.9739
1251.710, 978.6901
1252.193, 974.6820
1252.675, 968.4594
1253.157, 965.4165
1253.639, 965.4893
1254.121, 967.8898
1254.603, 972.4932
1255.085, 984.0647
1255.567, 1002.156
1256.049, 1009.564
1256.532, 1003.313
1257.014, 994.9161
1257.496, 990.2941
1257.978, 986.7415
1258.460, 980.9769
1258.942, 976.2230
1259.424, 974.6378
1259.906, 976.6281
1260.389, 988.7901
1260.871, 1000.269
1261.353, 992.1640
1261.835, 971.1436
1262.317, 965.1586
##END=



