##NAMES=Clintonite
##RRUFFID=R070196
##IDEAL CHEMISTRY=CaAlMg_2_(SiAl_3_)O_10_(OH)_2_
##LOCALITY=Crestmore, Riverside County, California, USA
##OWNER=RRUFF
##SOURCE=California Institute of Technology
##DESCRIPTION=Transparent green micaceous single crystal
##STATUS=The identification of this mineral is confirmed by single-crystal X-ray diffraction and chemical analysis.
##URL=rruff.info/R070196
##MEASURED CHEMISTRY=(Ca_0.97_[box]_0.03_)_Σ=1_(Al_0.90_Fe^3+^_0.10_)_Σ=1_Mg_2.00_(Si_1.18_Al_2.82_)_Σ=3_O_10_((OH)_1.88_O_0.12_)_Σ=2_; OH estimated by charge balance
171.9317, 33946.62
172.4138, 34024.37
172.8959, 34079.77
173.3781, 34103.12
173.8602, 34122.83
174.3423, 34152.11
174.8244, 34186.45
175.3065, 34219.33
175.7886, 34248.62
176.2708, 34274.00
176.7529, 34292.91
177.2350, 34297.01
177.7171, 34310.72
178.1992, 34348.63
178.6813, 34398.91
179.1635, 34446.48
179.6456, 34485.79
180.1277, 34516.55
180.6098, 34535.52
181.0919, 34528.20
181.5740, 34535.66
182.0562, 34572.49
182.5383, 34628.20
183.0204, 34689.84
183.5025, 34750.92
183.9846, 34814.44
184.4667, 34893.82
184.9489, 35013.73
185.4310, 35103.27
185.9131, 35127.94
186.3952, 35122.71
186.8773, 35128.33
187.3594, 35164.90
187.8416, 35219.59
188.3237, 35258.20
188.8058, 35268.59
189.2879, 35282.80
189.7700, 35314.98
190.2521, 35350.85
190.7343, 35369.03
191.2164, 35357.25
191.6985, 35339.51
192.1806, 35381.89
192.6627, 35543.37
193.1448, 35659.33
193.6270, 35677.60
194.1091, 35657.02
194.5912, 35652.01
195.0733, 35684.13
195.5554, 35740.41
196.0375, 35795.50
196.5197, 35859.73
197.0018, 35902.01
197.4839, 35899.12
197.9660, 35887.01
198.4481, 35898.72
198.9302, 35945.09
199.4124, 36009.21
199.8945, 36061.33
200.3766, 36102.00
200.8587, 36127.59
201.3408, 36126.54
201.8229, 36120.36
202.3051, 36131.30
202.7872, 36163.76
203.2693, 36196.32
203.7514, 36190.37
204.2335, 36119.77
204.7156, 36069.42
205.1978, 36051.37
205.6799, 36045.63
206.1620, 36041.71
206.6441, 36036.26
207.1262, 36028.77
207.6083, 36016.89
208.0905, 35995.16
208.5726, 35983.78
209.0547, 35985.01
209.5368, 35993.37
210.0189, 36007.80
210.5010, 36027.08
210.9832, 36048.75
211.4653, 36071.08
211.9474, 36096.06
212.4295, 36113.48
212.9116, 36107.10
213.3937, 36107.25
213.8759, 36138.60
214.3580, 36194.68
214.8401, 36245.19
215.3222, 36256.08
215.8043, 36218.29
216.2864, 36201.09
216.7686, 36193.54
217.2507, 36216.05
217.7328, 36303.36
218.2149, 36433.00
218.6970, 36544.89
219.1791, 36581.75
219.6613, 36540.34
220.1434, 36541.15
220.6255, 36622.97
221.1076, 36711.95
221.5897, 36793.04
222.0718, 36866.15
222.5540, 36938.25
223.0361, 37016.86
223.5182, 37098.85
224.0003, 37143.43
224.4824, 37108.68
224.9645, 37079.78
225.4467, 37077.59
225.9288, 37091.71
226.4109, 37105.73
226.8930, 37110.30
227.3751, 37107.30
227.8572, 37104.86
228.3394, 37109.50
228.8215, 37105.05
229.3036, 37079.88
229.7857, 37048.12
230.2678, 37022.65
230.7499, 37008.81
231.2321, 37010.10
231.7142, 37040.70
232.1963, 37139.77
232.6784, 37198.52
233.1605, 37182.37
233.6426, 37137.79
234.1248, 37102.42
234.6069, 37089.12
235.0890, 37089.62
235.5711, 37093.73
236.0532, 37112.98
236.5353, 37106.96
237.0175, 37053.55
237.4996, 36990.14
237.9817, 36939.96
238.4638, 36907.98
238.9459, 36885.25
239.4280, 36863.49
239.9102, 36846.09
240.3923, 36816.41
240.8744, 36764.01
241.3565, 36707.33
241.8386, 36648.04
242.3207, 36590.15
242.8029, 36544.61
243.2850, 36525.63
243.7671, 36535.88
244.2492, 36540.78
244.7313, 36539.95
245.2134, 36533.40
245.6956, 36518.35
246.1777, 36497.20
246.6598, 36475.51
247.1419, 36456.09
247.6240, 36439.18
248.1061, 36429.61
248.5883, 36442.54
249.0704, 36441.47
249.5525, 36405.78
250.0346, 36350.48
250.5167, 36299.04
250.9988, 36262.23
251.4810, 36238.93
251.9631, 36226.57
252.4452, 36228.63
252.9273, 36235.09
253.4094, 36252.79
253.8915, 36268.75
254.3737, 36263.30
254.8558, 36224.61
255.3379, 36180.39
255.8200, 36177.05
256.3021, 36223.52
256.7842, 36277.57
257.2664, 36335.85
257.7485, 36392.28
258.2306, 36447.89
258.7127, 36503.38
259.1948, 36541.81
259.6769, 36533.46
260.1591, 36475.34
260.6412, 36440.95
261.1233, 36463.21
261.6054, 36497.19
262.0875, 36504.50
262.5696, 36486.13
263.0518, 36478.36
263.5339, 36525.11
264.0160, 36612.30
264.4981, 36654.22
264.9802, 36625.24
265.4623, 36574.15
265.9445, 36524.08
266.4266, 36479.67
266.9087, 36459.59
267.3908, 36480.64
267.8729, 36530.48
268.3550, 36591.91
268.8372, 36674.72
269.3193, 36735.57
269.8014, 36730.09
270.2835, 36682.85
270.7656, 36629.17
271.2477, 36559.23
271.7299, 36502.01
272.2120, 36502.57
272.6941, 36562.85
273.1762, 36614.22
273.6583, 36614.74
274.1404, 36588.26
274.6226, 36584.68
275.1047, 36622.35
275.5868, 36653.64
276.0689, 36634.74
276.5510, 36578.98
277.0331, 36543.85
277.5153, 36557.14
277.9974, 36590.02
278.4795, 36593.64
278.9616, 36564.45
279.4437, 36531.58
279.9258, 36492.84
280.4080, 36460.04
280.8901, 36460.16
281.3722, 36502.84
281.8543, 36555.22
282.3364, 36573.03
282.8185, 36551.57
283.3007, 36555.02
283.7828, 36608.80
284.2649, 36679.02
284.7470, 36741.29
285.2291, 36792.00
285.7112, 36829.31
286.1934, 36853.58
286.6755, 36862.90
287.1576, 36843.01
287.6397, 36755.70
288.1218, 36678.82
288.6039, 36658.18
289.0861, 36679.41
289.5682, 36702.97
290.0503, 36708.03
290.5324, 36697.12
291.0145, 36680.07
291.4966, 36632.25
291.9788, 36608.79
292.4609, 36634.32
292.9430, 36682.96
293.4251, 36723.86
293.9072, 36746.06
294.3893, 36756.71
294.8715, 36767.41
295.3536, 36772.88
295.8357, 36789.65
296.3178, 36833.08
296.7999, 36875.83
297.2820, 36901.28
297.7642, 36906.26
298.2463, 36892.72
298.7284, 36858.97
299.2105, 36799.22
299.6926, 36759.68
300.1747, 36752.88
300.6569, 36753.02
301.1390, 36751.22
301.6211, 36749.48
302.1032, 36754.00
302.5853, 36769.33
303.0674, 36793.73
303.5496, 36818.24
304.0317, 36840.46
304.5138, 36866.63
304.9959, 36909.08
305.4780, 36950.96
305.9601, 36969.57
306.4423, 36955.70
306.9244, 36931.87
307.4065, 36931.16
307.8886, 36951.93
308.3707, 37002.31
308.8528, 37149.25
309.3350, 37280.22
309.8171, 37319.09
310.2992, 37262.16
310.7813, 37167.82
311.2634, 37070.04
311.7455, 36971.30
312.2277, 36903.28
312.7098, 36879.60
313.1919, 36872.58
313.6740, 36868.13
314.1561, 36865.08
314.6382, 36859.82
315.1204, 36836.06
315.6025, 36815.50
316.0846, 36852.83
316.5667, 36962.57
317.0488, 37043.28
317.5309, 37007.00
318.0131, 36917.06
318.4952, 36881.56
318.9773, 36937.13
319.4594, 37006.61
319.9415, 37038.40
320.4236, 37036.60
320.9058, 37016.31
321.3879, 36974.71
321.8700, 36929.20
322.3521, 36906.28
322.8342, 36905.03
323.3163, 36919.46
323.7985, 36953.78
324.2806, 37000.40
324.7627, 37055.48
325.2448, 37118.38
325.7269, 37172.04
326.2090, 37198.61
326.6912, 37194.83
327.1733, 37191.56
327.6554, 37181.58
328.1375, 37178.57
328.6196, 37188.82
329.1017, 37212.38
329.5839, 37247.68
330.0660, 37293.83
330.5481, 37351.15
331.0302, 37419.65
331.5123, 37527.25
331.9944, 37611.73
332.4766, 37655.58
332.9587, 37678.48
333.4408, 37701.86
333.9229, 37732.06
334.4050, 37760.86
334.8871, 37778.77
335.3693, 37794.24
335.8514, 37773.14
336.3335, 37650.25
336.8156, 37552.36
337.2977, 37573.71
337.7798, 37685.81
338.2620, 37782.86
338.7441, 37773.20
339.2262, 37672.09
339.7083, 37617.50
340.1904, 37628.70
340.6725, 37662.22
341.1547, 37732.15
341.6368, 37804.64
342.1189, 37829.62
342.6010, 37782.02
343.0831, 37712.04
343.5652, 37699.86
344.0474, 37754.98
344.5295, 37801.22
345.0116, 37827.95
345.4937, 37831.89
345.9758, 37794.59
346.4579, 37717.80
346.9401, 37666.07
347.4222, 37712.08
347.9043, 37813.75
348.3864, 37843.63
348.8685, 37768.91
349.3506, 37685.96
349.8328, 37682.48
350.3149, 37733.09
350.7970, 37763.74
351.2791, 37743.53
351.7612, 37713.01
352.2433, 37708.92
352.7255, 37725.83
353.2076, 37733.61
353.6897, 37716.01
354.1718, 37682.97
354.6539, 37662.77
355.1360, 37670.96
355.6182, 37657.85
356.1003, 37597.14
356.5824, 37516.18
357.0645, 37443.23
357.5466, 37385.12
358.0287, 37343.38
358.5109, 37320.92
358.9930, 37321.01
359.4751, 37323.62
359.9572, 37349.40
360.4393, 37357.28
360.9214, 37328.99
361.4036, 37268.38
361.8857, 37181.08
362.3678, 37066.80
362.8499, 36939.18
363.3320, 36846.38
363.8141, 36790.82
364.2963, 36770.99
364.7784, 36820.94
365.2605, 36880.69
365.7426, 36896.43
366.2247, 36858.49
366.7068, 36801.96
367.1890, 36760.30
367.6711, 36732.88
368.1532, 36727.47
368.6353, 36763.55
369.1174, 36799.32
369.5995, 36805.30
370.0817, 36794.53
370.5638, 36799.93
371.0459, 36848.77
371.5280, 36912.90
372.0101, 36940.14
372.4922, 36926.43
372.9744, 36915.64
373.4565, 36933.82
373.9386, 36960.32
374.4207, 36962.97
374.9028, 36935.30
375.3849, 36903.71
375.8671, 36871.53
376.3492, 36846.94
376.8313, 36851.06
377.3134, 36890.50
377.7955, 36941.57
378.2776, 36985.27
378.7598, 37020.95
379.2419, 37033.32
379.7240, 37012.26
380.2061, 36976.66
380.6882, 36913.94
381.1703, 36843.89
381.6525, 36823.90
382.1346, 36890.04
382.6167, 37009.20
383.0988, 37081.94
383.5809, 37070.01
384.0630, 37057.20
384.5452, 37038.92
385.0273, 37024.68
385.5094, 37017.61
385.9915, 37020.78
386.4736, 37043.59
386.9557, 37105.02
387.4379, 37208.98
387.9200, 37269.69
388.4021, 37240.86
388.8842, 37221.30
389.3663, 37242.33
389.8484, 37293.46
390.3306, 37360.31
390.8127, 37442.01
391.2948, 37522.79
391.7769, 37566.96
392.2590, 37566.95
392.7411, 37603.98
393.2233, 37730.50
393.7054, 37874.61
394.1875, 37963.36
394.6696, 37996.73
395.1517, 38029.55
395.6339, 38101.64
396.1160, 38185.84
396.5981, 38239.82
397.0802, 38259.72
397.5623, 38248.70
398.0444, 38195.20
398.5266, 38111.46
399.0087, 38061.73
399.4908, 38067.18
399.9729, 38082.38
400.4550, 38098.84
400.9371, 38111.50
401.4193, 38110.72
401.9014, 38093.22
402.3835, 38066.36
402.8656, 38041.11
403.3477, 38021.14
403.8298, 37991.13
404.3120, 37964.92
404.7941, 37917.30
405.2762, 37817.70
405.7583, 37685.13
406.2404, 37567.22
406.7225, 37495.91
407.2047, 37457.25
407.6868, 37400.32
408.1689, 37305.46
408.6510, 37233.56
409.1331, 37217.26
409.6152, 37212.42
410.0974, 37189.57
410.5795, 37142.79
411.0616, 37073.51
411.5437, 36969.24
412.0258, 36839.25
412.5079, 36732.85
412.9901, 36652.56
413.4722, 36598.32
413.9543, 36572.75
414.4364, 36573.48
414.9185, 36606.13
415.4006, 36721.48
415.8828, 36808.30
416.3649, 36751.24
416.8470, 36595.13
417.3291, 36484.95
417.8112, 36476.48
418.2933, 36507.91
418.7755, 36483.87
419.2576, 36377.54
419.7397, 36307.92
420.2218, 36304.36
420.7039, 36318.35
421.1860, 36330.84
421.6682, 36333.12
422.1503, 36305.79
422.6324, 36231.22
423.1145, 36128.02
423.5966, 36079.65
424.0787, 36144.39
424.5609, 36173.12
425.0430, 36134.51
425.5251, 36068.05
426.0072, 35999.17
426.4893, 35934.65
426.9714, 35877.19
427.4536, 35835.13
427.9357, 35805.82
428.4178, 35755.93
428.8999, 35663.22
429.3820, 35593.32
429.8641, 35596.82
430.3463, 35639.16
430.8284, 35671.77
431.3105, 35683.38
431.7926, 35682.88
432.2747, 35673.66
432.7568, 35657.77
433.2390, 35642.20
433.7211, 35628.57
434.2032, 35616.51
434.6853, 35608.84
435.1674, 35607.20
435.6495, 35588.34
436.1317, 35518.52
436.6138, 35460.43
437.0959, 35466.17
437.5780, 35515.53
438.0601, 35552.42
438.5422, 35547.36
439.0244, 35517.32
439.5065, 35507.78
439.9886, 35553.07
440.4707, 35555.98
440.9528, 35479.26
441.4349, 35394.12
441.9171, 35342.26
442.3992, 35325.39
442.8813, 35325.59
443.3634, 35330.39
443.8455, 35341.59
444.3276, 35372.95
444.8098, 35440.63
445.2919, 35483.11
445.7740, 35460.34
446.2561, 35408.57
446.7382, 35360.30
447.2203, 35320.20
447.7025, 35279.26
448.1846, 35217.05
448.6667, 35153.03
449.1488, 35137.77
449.6309, 35181.21
450.1130, 35226.06
450.5952, 35223.35
451.0773, 35179.48
451.5594, 35163.05
452.0415, 35217.29
452.5236, 35246.70
453.0057, 35195.99
453.4879, 35110.20
453.9700, 35054.64
454.4521, 35047.29
454.9342, 35056.92
455.4163, 35040.82
455.8984, 34990.13
456.3806, 34964.09
456.8627, 35003.60
457.3448, 35026.41
457.8269, 34990.19
458.3090, 34924.85
458.7911, 34881.30
459.2733, 34883.28
459.7554, 34903.02
460.2375, 34897.86
460.7196, 34867.28
461.2017, 34849.55
461.6838, 34855.59
462.1660, 34871.81
462.6481, 34898.75
463.1302, 34930.37
463.6123, 34929.76
464.0944, 34855.23
464.5765, 34769.13
465.0587, 34723.66
465.5408, 34714.82
466.0229, 34724.75
466.5050, 34747.80
466.9871, 34778.52
467.4692, 34808.30
467.9514, 34855.07
468.4335, 34858.82
468.9156, 34787.60
469.3977, 34702.01
469.8798, 34633.04
470.3619, 34582.96
470.8441, 34546.54
471.3262, 34521.19
471.8083, 34504.40
472.2904, 34488.52
472.7725, 34473.65
473.2546, 34459.76
473.7368, 34452.22
474.2189, 34441.70
474.7010, 34417.18
475.1831, 34380.58
475.6652, 34351.05
476.1473, 34345.08
476.6295, 34350.99
477.1116, 34354.41
477.5937, 34355.06
478.0758, 34331.36
478.5579, 34255.40
479.0400, 34162.38
479.5222, 34148.00
480.0043, 34256.81
480.4864, 34321.01
480.9685, 34275.83
481.4506, 34194.57
481.9327, 34135.16
482.4149, 34105.68
482.8970, 34098.02
483.3791, 34109.20
483.8612, 34133.48
484.3433, 34135.51
484.8254, 34075.69
485.3076, 34060.72
485.7897, 34145.46
486.2718, 34247.26
486.7539, 34299.58
487.2360, 34296.61
487.7181, 34276.40
488.2003, 34264.66
488.6824, 34258.73
489.1645, 34251.91
489.6466, 34244.93
490.1287, 34230.45
490.6108, 34188.48
491.0930, 34146.16
491.5751, 34162.97
492.0572, 34267.07
492.5393, 34348.11
493.0214, 34367.62
493.5035, 34344.95
493.9857, 34284.41
494.4678, 34195.95
494.9499, 34121.79
495.4320, 34096.61
495.9141, 34111.80
496.3962, 34110.61
496.8784, 34079.67
497.3605, 34050.35
497.8426, 34008.97
498.3247, 33981.59
498.8068, 34002.64
499.2889, 34067.72
499.7711, 34127.57
500.2532, 34138.45
500.7353, 34111.79
501.2174, 34089.51
501.6995, 34072.43
502.1816, 34057.12
502.6638, 34051.68
503.1459, 34040.70
503.6280, 33993.71
504.1101, 33895.74
504.5922, 33824.06
505.0743, 33824.66
505.5565, 33857.13
506.0386, 33877.11
506.5207, 33881.49
507.0028, 33887.82
507.4849, 33910.05
507.9670, 33940.52
508.4492, 33945.78
508.9313, 33917.06
509.4134, 33873.65
509.8955, 33795.19
510.3776, 33719.63
510.8597, 33678.14
511.3419, 33668.66
511.8240, 33666.27
512.3061, 33653.37
512.7882, 33634.56
513.2703, 33624.60
513.7524, 33626.23
514.2346, 33618.27
514.7167, 33576.47
515.1988, 33536.75
515.6809, 33556.14
516.1630, 33641.43
516.6451, 33696.92
517.1273, 33690.82
517.6094, 33644.76
518.0915, 33560.76
518.5736, 33451.48
519.0557, 33353.16
519.5378, 33284.62
520.0200, 33242.34
520.5021, 33220.29
520.9842, 33237.67
521.4663, 33238.29
521.9484, 33218.52
522.4305, 33187.65
522.9127, 33132.47
523.3948, 33070.39
523.8769, 33045.55
524.3590, 33091.44
524.8411, 33162.54
525.3232, 33183.25
525.8054, 33153.86
526.2875, 33114.88
526.7696, 33059.79
527.2517, 33024.18
527.7338, 33063.52
528.2159, 33167.61
528.6981, 33249.78
529.1802, 33305.97
529.6623, 33329.28
530.1444, 33290.60
530.6265, 33220.90
531.1086, 33183.45
531.5908, 33198.95
532.0729, 33231.60
532.5550, 33232.76
533.0371, 33198.71
533.5192, 33155.26
534.0013, 33065.34
534.4835, 33009.98
534.9656, 33039.37
535.4477, 33107.36
535.9298, 33157.59
536.4119, 33175.82
536.8940, 33158.43
537.3762, 33076.96
537.8583, 32956.34
538.3404, 32877.39
538.8225, 32851.05
539.3046, 32859.25
539.7867, 32904.22
540.2689, 32972.87
540.7510, 32999.77
541.2331, 32952.99
541.7152, 32913.55
542.1973, 32905.59
542.6794, 32907.18
543.1616, 32904.47
543.6437, 32891.36
544.1258, 32855.48
544.6079, 32779.91
545.0900, 32680.45
545.5721, 32633.04
546.0543, 32662.77
546.5364, 32675.62
547.0185, 32625.48
547.5006, 32566.50
547.9827, 32545.83
548.4648, 32561.28
548.9470, 32567.07
549.4291, 32536.44
549.9112, 32491.15
550.3933, 32456.49
550.8754, 32429.09
551.3575, 32385.79
551.8397, 32312.20
552.3218, 32243.74
552.8039, 32242.10
553.2860, 32337.70
553.7681, 32397.40
554.2502, 32412.64
554.7324, 32407.00
555.2145, 32377.70
555.6966, 32337.56
556.1787, 32310.43
556.6608, 32305.77
557.1429, 32291.14
557.6251, 32205.00
558.1072, 32061.88
558.5893, 31988.77
559.0714, 32014.25
559.5535, 32056.35
560.0356, 32067.00
560.5178, 32052.05
560.9999, 32034.73
561.4820, 32020.60
561.9641, 31994.68
562.4462, 31935.81
562.9283, 31872.87
563.4105, 31834.69
563.8926, 31824.31
564.3747, 31836.40
564.8568, 31873.47
565.3389, 31918.49
565.8210, 31898.35
566.3032, 31780.67
566.7853, 31679.72
567.2674, 31606.96
567.7495, 31564.33
568.2316, 31571.19
568.7137, 31615.22
569.1959, 31643.41
569.6780, 31627.80
570.1601, 31591.72
570.6422, 31547.49
571.1243, 31501.38
571.6064, 31478.42
572.0886, 31487.76
572.5707, 31507.49
573.0528, 31512.67
573.5349, 31502.83
574.0170, 31482.46
574.4991, 31453.99
574.9813, 31412.39
575.4634, 31331.63
575.9455, 31250.07
576.4276, 31217.06
576.9097, 31240.22
577.3918, 31273.21
577.8740, 31270.47
578.3561, 31243.95
578.8382, 31234.61
579.3203, 31244.45
579.8024, 31260.08
580.2845, 31280.75
580.7667, 31299.06
581.2488, 31298.64
581.7309, 31276.65
582.2130, 31252.90
582.6951, 31217.17
583.1772, 31192.32
583.6594, 31201.46
584.1415, 31232.69
584.6236, 31261.88
585.1057, 31277.97
585.5878, 31280.37
586.0699, 31265.80
586.5521, 31233.03
587.0342, 31197.11
587.5163, 31153.93
587.9984, 31115.10
588.4805, 31083.90
588.9626, 31062.11
589.4448, 31052.70
589.9269, 31053.13
590.4090, 31073.61
590.8911, 31162.16
591.3732, 31250.23
591.8553, 31233.09
592.3375, 31116.85
592.8196, 30992.32
593.3017, 30918.33
593.7838, 30883.17
594.2659, 30850.52
594.7480, 30819.56
595.2302, 30793.49
595.7123, 30773.59
596.1944, 30758.09
596.6765, 30742.00
597.1586, 30729.90
597.6407, 30736.29
598.1229, 30779.46
598.6050, 30817.35
599.0871, 30805.65
599.5692, 30759.60
600.0513, 30711.66
600.5334, 30667.82
601.0156, 30645.30
601.4977, 30661.84
601.9798, 30712.44
602.4619, 30756.23
602.9440, 30800.08
603.4261, 30826.57
603.9083, 30829.66
604.3904, 30819.01
604.8725, 30803.10
605.3546, 30780.61
605.8367, 30741.77
606.3188, 30671.73
606.8010, 30594.61
607.2831, 30543.25
607.7652, 30516.85
608.2473, 30514.89
608.7294, 30543.15
609.2115, 30572.71
609.6937, 30574.07
610.1758, 30547.01
610.6579, 30520.41
611.1400, 30487.31
611.6221, 30463.47
612.1042, 30454.92
612.5864, 30455.85
613.0685, 30464.28
613.5506, 30477.39
614.0327, 30488.18
614.5148, 30495.77
614.9969, 30493.62
615.4791, 30460.64
615.9612, 30395.46
616.4433, 30326.24
616.9254, 30249.82
617.4075, 30193.16
617.8896, 30199.13
618.3718, 30269.31
618.8539, 30309.60
619.3360, 30302.16
619.8181, 30280.77
620.3002, 30242.80
620.7823, 30205.91
621.2645, 30194.28
621.7466, 30210.26
622.2287, 30233.39
622.7108, 30244.42
623.1929, 30248.29
623.6750, 30264.81
624.1572, 30295.54
624.6393, 30332.40
625.1214, 30386.27
625.6035, 30430.14
626.0856, 30417.35
626.5677, 30351.79
627.0499, 30314.89
627.5320, 30339.89
628.0141, 30372.25
628.4962, 30398.34
628.9783, 30408.83
629.4604, 30380.29
629.9426, 30313.78
630.4247, 30251.44
630.9068, 30236.12
631.3889, 30260.34
631.8710, 30282.31
632.3531, 30300.93
632.8353, 30321.93
633.3174, 30347.26
633.7995, 30375.68
634.2816, 30409.16
634.7637, 30447.06
635.2458, 30474.83
635.7280, 30476.68
636.2101, 30481.01
636.6922, 30498.73
637.1743, 30531.24
637.6564, 30583.68
638.1385, 30655.24
638.6207, 30733.12
639.1028, 30805.36
639.5849, 30872.53
640.0670, 30938.59
640.5491, 31008.47
641.0313, 31058.01
641.5134, 31054.57
641.9955, 31052.68
642.4776, 31114.73
642.9597, 31235.63
643.4418, 31353.10
643.9240, 31439.95
644.4061, 31535.64
644.8882, 31684.44
645.3703, 31847.29
645.8524, 31958.02
646.3345, 32006.50
646.8167, 32035.49
647.2988, 32074.59
647.7809, 32132.56
648.2630, 32270.62
648.7451, 32521.93
649.2272, 32713.40
649.7094, 32766.59
650.1915, 32781.46
650.6736, 32864.02
651.1557, 33001.64
651.6378, 33105.29
652.1199, 33131.64
652.6021, 33153.77
653.0842, 33231.96
653.5663, 33313.99
654.0484, 33317.27
654.5305, 33238.35
655.0126, 33152.78
655.4948, 33129.64
655.9769, 33135.50
656.4590, 33051.42
656.9411, 32862.34
657.4232, 32675.27
657.9053, 32513.64
658.3875, 32359.65
658.8696, 32214.55
659.3517, 32068.55
659.8338, 31874.68
660.3159, 31558.74
660.7980, 31280.61
661.2802, 31105.94
661.7623, 30988.73
662.2444, 30896.01
662.7265, 30813.27
663.2086, 30717.04
663.6907, 30589.15
664.1729, 30445.55
664.6550, 30321.40
665.1371, 30217.42
665.6192, 30105.44
666.1013, 29968.97
666.5834, 29852.52
667.0656, 29799.74
667.5477, 29795.30
668.0298, 29768.31
668.5119, 29709.46
668.9940, 29643.79
669.4761, 29575.50
669.9583, 29502.77
670.4404, 29407.94
670.9225, 29307.19
671.4046, 29244.76
671.8867, 29244.98
672.3688, 29271.35
672.8510, 29268.06
673.3331, 29241.89
673.8152, 29252.75
674.2973, 29317.15
674.7794, 29352.28
675.2615, 29299.76
675.7437, 29191.86
676.2258, 29113.28
676.7079, 29082.63
677.1900, 29039.86
677.6721, 28977.11
678.1542, 28908.28
678.6364, 28817.20
679.1185, 28733.22
679.6006, 28715.51
680.0827, 28782.74
680.5648, 28851.13
681.0469, 28819.40
681.5291, 28735.79
682.0112, 28725.75
682.4933, 28790.08
682.9754, 28848.85
683.4575, 28871.87
683.9396, 28858.06
684.4218, 28798.89
684.9039, 28679.48
685.3860, 28594.60
685.8681, 28543.66
686.3502, 28527.96
686.8323, 28579.36
687.3145, 28647.20
687.7966, 28679.94
688.2787, 28671.76
688.7608, 28649.40
689.2429, 28624.21
689.7250, 28595.50
690.2072, 28564.00
690.6893, 28528.32
691.1714, 28478.21
691.6535, 28411.66
692.1356, 28354.69
692.6177, 28334.65
693.0999, 28347.99
693.5820, 28368.65
694.0641, 28417.31
694.5462, 28426.64
695.0283, 28341.51
695.5104, 28251.39
695.9926, 28218.52
696.4747, 28232.79
696.9568, 28252.87
697.4389, 28282.32
697.9210, 28294.83
698.4031, 28258.68
698.8853, 28207.67
699.3674, 28188.58
699.8495, 28199.95
700.3316, 28210.44
700.8137, 28202.21
701.2958, 28173.62
701.7780, 28115.67
702.2601, 28026.50
702.7422, 27941.83
703.2243, 27856.07
703.7064, 27798.35
704.1885, 27798.39
704.6707, 27833.69
705.1528, 27852.61
705.6349, 27859.53
706.1170, 27839.49
706.5991, 27745.43
707.0812, 27668.66
707.5634, 27682.56
708.0455, 27745.21
708.5276, 27788.94
709.0097, 27791.92
709.4918, 27763.38
709.9739, 27692.79
710.4561, 27602.03
710.9382, 27556.58
711.4203, 27553.65
711.9024, 27523.37
712.3845, 27432.85
712.8666, 27341.67
713.3488, 27330.13
713.8309, 27403.71
714.3130, 27439.93
714.7951, 27400.51
715.2772, 27375.42
715.7593, 27390.69
716.2415, 27415.80
716.7236, 27431.80
717.2057, 27435.42
717.6878, 27423.39
718.1699, 27385.87
718.6520, 27344.47
719.1342, 27317.62
719.6163, 27298.05
720.0984, 27265.24
720.5805, 27222.13
721.0626, 27206.06
721.5447, 27246.30
722.0269, 27312.58
722.5090, 27329.34
722.9911, 27289.36
723.4732, 27248.39
723.9553, 27206.96
724.4374, 27171.77
724.9196, 27150.31
725.4017, 27136.51
725.8838, 27118.51
726.3659, 27097.19
726.8480, 27068.71
727.3301, 27016.03
727.8123, 26972.45
728.2944, 26969.78
728.7765, 26984.99
729.2586, 26974.57
729.7407, 26929.70
730.2228, 26890.17
730.7050, 26910.84
731.1871, 26954.91
731.6692, 26924.74
732.1513, 26829.76
732.6334, 26761.88
733.1155, 26749.51
733.5977, 26759.08
734.0798, 26758.23
734.5619, 26747.54
735.0440, 26733.71
735.5261, 26702.78
736.0082, 26692.37
736.4904, 26732.15
736.9725, 26769.27
737.4546, 26763.32
737.9367, 26728.61
738.4188, 26709.08
738.9009, 26725.32
739.3831, 26736.34
739.8652, 26713.33
740.3473, 26676.67
740.8294, 26653.93
741.3115, 26640.35
741.7936, 26607.96
742.2758, 26543.68
742.7579, 26475.62
743.2400, 26447.77
743.7221, 26456.88
744.2042, 26459.22
744.6863, 26456.28
745.1685, 26432.42
745.6506, 26369.14
746.1327, 26300.38
746.6148, 26274.96
747.0969, 26298.69
747.5790, 26312.09
748.0612, 26300.71
748.5433, 26298.41
749.0254, 26338.28
749.5075, 26371.86
749.9896, 26338.90
750.4717, 26254.46
750.9539, 26198.51
751.4360, 26226.06
751.9181, 26262.42
752.4002, 26235.53
752.8823, 26169.58
753.3644, 26102.81
753.8466, 26043.02
754.3287, 26000.96
754.8108, 25985.27
755.2929, 25975.67
755.7750, 25921.66
756.2571, 25813.06
756.7393, 25760.82
757.2214, 25784.10
757.7035, 25821.22
758.1856, 25854.65
758.6677, 25880.71
759.1498, 25888.92
759.6320, 25876.22
760.1141, 25879.30
760.5962, 25927.16
761.0783, 25960.07
761.5604, 25962.56
762.0425, 25934.42
762.5247, 25853.75
763.0068, 25736.81
763.4889, 25655.58
763.9710, 25663.14
764.4531, 25701.99
764.9352, 25698.60
765.4174, 25675.99
765.8995, 25705.38
766.3816, 25789.16
766.8637, 25851.42
767.3458, 25844.21
767.8279, 25791.94
768.3101, 25741.85
768.7922, 25690.56
769.2743, 25663.41
769.7564, 25664.50
770.2385, 25682.62
770.7206, 25723.72
771.2028, 25772.21
771.6849, 25811.27
772.1670, 25842.85
772.6491, 25843.50
773.1312, 25777.19
773.6133, 25719.23
774.0955, 25712.26
774.5776, 25719.18
775.0597, 25696.38
775.5418, 25645.07
776.0239, 25599.46
776.5060, 25582.01
776.9882, 25569.98
777.4703, 25528.46
777.9524, 25475.17
778.4345, 25456.32
778.9166, 25473.35
779.3987, 25492.15
779.8809, 25494.71
780.3630, 25480.72
780.8451, 25443.43
781.3272, 25378.29
781.8093, 25336.10
782.2914, 25318.22
782.7736, 25321.21
783.2557, 25359.67
783.7378, 25403.46
784.2199, 25406.33
784.7020, 25366.88
785.1841, 25353.28
785.6663, 25406.60
786.1484, 25436.61
786.6305, 25395.27
787.1126, 25339.62
787.5947, 25329.63
788.0768, 25351.33
788.5590, 25336.39
789.0411, 25237.77
789.5232, 25155.81
790.0053, 25199.16
790.4874, 25301.31
790.9695, 25369.29
791.4517, 25394.25
791.9338, 25377.98
792.4159, 25321.06
792.8980, 25253.65
793.3801, 25217.63
793.8622, 25209.36
794.3444, 25191.81
794.8265, 25162.81
795.3086, 25139.71
795.7907, 25133.07
796.2728, 25120.91
796.7549, 25073.67
797.2371, 24997.38
797.7192, 24958.72
798.2013, 25001.68
798.6834, 25019.54
799.1655, 24984.87
799.6476, 24946.55
800.1298, 24938.02
800.6119, 24944.53
801.0940, 24933.90
801.5761, 24896.39
802.0582, 24859.51
802.5403, 24841.66
803.0225, 24826.36
803.5046, 24798.33
803.9867, 24761.64
804.4688, 24717.20
804.9509, 24669.93
805.4330, 24646.57
805.9152, 24678.63
806.3973, 24737.22
806.8794, 24760.37
807.3615, 24751.74
807.8436, 24737.15
808.3257, 24720.79
808.8079, 24701.77
809.2900, 24680.34
809.7721, 24653.77
810.2542, 24611.18
810.7363, 24537.04
811.2184, 24506.14
811.7006, 24551.99
812.1827, 24586.24
812.6648, 24562.66
813.1469, 24518.41
813.6290, 24495.43
814.1111, 24494.15
814.5933, 24493.61
815.0754, 24496.14
815.5575, 24492.20
816.0396, 24475.18
816.5217, 24452.91
817.0038, 24419.93
817.4860, 24388.51
817.9681, 24396.38
818.4502, 24469.69
818.9323, 24535.81
819.4144, 24512.47
819.8965, 24454.29
820.3787, 24458.56
820.8608, 24508.06
821.3429, 24518.13
821.8250, 24459.75
822.3071, 24381.48
822.7892, 24336.55
823.2714, 24316.15
823.7535, 24274.56
824.2356, 24208.73
824.7177, 24186.24
825.1998, 24231.84
825.6819, 24279.43
826.1641, 24277.74
826.6462, 24241.06
827.1283, 24216.91
827.6104, 24207.14
828.0925, 24206.30
828.5746, 24244.71
829.0568, 24254.25
829.5389, 24180.75
830.0210, 24083.42
830.5031, 24035.67
830.9852, 24041.59
831.4673, 24046.12
831.9495, 24040.39
832.4316, 24025.51
832.9137, 23984.33
833.3958, 23947.12
833.8779, 23957.42
834.3600, 24000.49
834.8422, 24021.97
835.3243, 23997.14
835.8064, 23948.23
836.2885, 23871.86
836.7706, 23797.54
837.2527, 23789.83
837.7349, 23830.66
838.2170, 23840.98
838.6991, 23795.55
839.1812, 23740.89
839.6633, 23728.20
840.1454, 23743.70
840.6276, 23733.13
841.1097, 23695.80
841.5918, 23671.50
842.0739, 23670.90
842.5560, 23662.45
843.0381, 23616.36
843.5203, 23558.62
844.0024, 23560.02
844.4845, 23651.35
844.9666, 23699.17
845.4487, 23696.03
845.9308, 23660.53
846.4130, 23571.27
846.8951, 23471.10
847.3772, 23395.40
847.8593, 23345.39
848.3414, 23324.23
848.8235, 23354.97
849.3057, 23383.80
849.7878, 23404.96
850.2699, 23410.98
850.7520, 23398.41
851.2341, 23365.72
851.7162, 23302.12
852.1984, 23200.93
852.6805, 23118.03
853.1626, 23098.69
853.6447, 23107.87
854.1268, 23122.85
854.6089, 23132.82
855.0911, 23106.23
855.5732, 23046.54
856.0553, 23013.99
856.5374, 23061.11
857.0195, 23135.92
857.5016, 23142.84
857.9838, 23096.21
858.4659, 23057.45
858.9480, 23032.62
859.4301, 23012.42
859.9122, 22991.88
860.3943, 22978.67
860.8765, 22987.55
861.3586, 23016.95
861.8407, 23017.93
862.3228, 22976.30
862.8049, 22966.21
863.2870, 23023.68
863.7692, 23078.57
864.2513, 23078.97
864.7334, 23032.39
865.2155, 22963.27
865.6976, 22838.00
866.1797, 22760.32
866.6619, 22754.40
867.1440, 22764.62
867.6261, 22772.99
868.1082, 22786.54
868.5903, 22820.50
869.0724, 22872.92
869.5546, 22908.94
870.0367, 22923.53
870.5188, 22915.09
871.0009, 22873.38
871.4830, 22816.13
871.9651, 22743.60
872.4473, 22671.98
872.9294, 22636.23
873.4115, 22649.15
873.8936, 22668.74
874.3757, 22663.30
874.8578, 22649.79
875.3400, 22638.01
875.8221, 22635.84
876.3042, 22667.24
876.7863, 22729.50
877.2684, 22782.54
877.7505, 22797.99
878.2327, 22795.52
878.7148, 22807.61
879.1969, 22828.73
879.6790, 22832.85
880.1611, 22820.72
880.6432, 22823.62
881.1254, 22854.56
881.6075, 22898.80
882.0896, 22942.40
882.5717, 22982.35
883.0538, 22989.99
883.5359, 22955.60
884.0181, 22969.13
884.5002, 23062.10
884.9823, 23147.07
885.4644, 23162.06
885.9465, 23138.02
886.4286, 23142.95
886.9108, 23184.10
887.3929, 23221.48
887.8750, 23253.42
888.3571, 23284.15
888.8392, 23315.59
889.3214, 23345.48
889.8035, 23373.01
890.2856, 23397.62
890.7677, 23417.80
891.2498, 23443.32
891.7319, 23446.30
892.2141, 23407.82
892.6962, 23362.37
893.1783, 23307.65
893.6604, 23267.92
894.1425, 23294.80
894.6246, 23385.68
895.1068, 23430.61
895.5889, 23349.82
896.0710, 23255.61
896.5531, 23209.99
897.0352, 23179.06
897.5173, 23120.31
897.9995, 23046.01
898.4816, 23003.35
898.9637, 23009.62
899.4458, 23006.15
899.9279, 22930.66
900.4100, 22832.02
900.8922, 22771.42
901.3743, 22734.57
901.8564, 22690.68
902.3385, 22633.95
902.8206, 22565.98
903.3027, 22483.60
903.7849, 22418.41
904.2670, 22440.63
904.7491, 22514.69
905.2312, 22525.65
905.7133, 22474.86
906.1954, 22410.02
906.6776, 22347.09
907.1597, 22294.04
907.6418, 22261.30
908.1239, 22239.80
908.6060, 22196.15
909.0881, 22130.17
909.5703, 22080.21
910.0524, 22052.88
910.5345, 22021.01
911.0166, 21969.84
911.4987, 21912.74
911.9808, 21866.79
912.4630, 21832.20
912.9451, 21820.19
913.4272, 21839.93
913.9093, 21854.36
914.3914, 21862.51
914.8735, 21852.95
915.3557, 21807.46
915.8378, 21745.74
916.3199, 21714.25
916.8020, 21722.81
917.2841, 21724.72
917.7662, 21713.30
918.2484, 21704.73
918.7305, 21706.72
919.2126, 21709.50
919.6947, 21716.19
920.1768, 21718.02
920.6589, 21679.95
921.1411, 21568.17
921.6232, 21485.82
922.1053, 21467.75
922.5874, 21458.84
923.0695, 21423.20
923.5516, 21389.43
924.0338, 21403.63
924.5159, 21459.81
924.9980, 21491.42
925.4801, 21458.87
925.9622, 21431.29
926.4443, 21458.14
926.9265, 21480.98
927.4086, 21442.05
927.8907, 21369.81
928.3728, 21310.47
928.8549, 21276.57
929.3370, 21271.68
929.8192, 21325.70
930.3013, 21377.10
930.7834, 21379.62
931.2655, 21353.29
931.7476, 21316.32
932.2297, 21274.37
932.7119, 21231.77
933.1940, 21189.94
933.6761, 21152.54
934.1582, 21125.60
934.6403, 21102.62
935.1224, 21078.49
935.6046, 21050.91
936.0867, 21009.76
936.5688, 20959.24
937.0509, 20921.38
937.5330, 20907.98
938.0151, 20911.31
938.4973, 20938.29
938.9794, 20968.32
939.4615, 20941.00
939.9436, 20872.33
940.4257, 20826.56
940.9078, 20818.01
941.3900, 20831.89
941.8721, 20860.34
942.3542, 20891.08
942.8363, 20906.19
943.3184, 20904.41
943.8005, 20868.77
944.2827, 20802.64
944.7648, 20764.38
945.2469, 20773.01
945.7290, 20767.26
946.2111, 20682.45
946.6932, 20565.55
947.1754, 20564.38
947.6575, 20678.15
948.1396, 20740.90
948.6217, 20738.61
949.1038, 20728.64
949.5859, 20736.04
950.0681, 20726.79
950.5502, 20655.75
951.0323, 20540.11
951.5144, 20473.44
951.9965, 20462.08
952.4786, 20460.14
952.9608, 20464.95
953.4429, 20473.98
953.9250, 20487.10
954.4071, 20502.39
954.8892, 20520.38
955.3713, 20539.82
955.8535, 20532.48
956.3356, 20487.99
956.8177, 20448.98
957.2998, 20422.55
957.7819, 20397.44
958.2640, 20367.87
958.7462, 20335.51
959.2283, 20301.89
959.7104, 20266.20
960.1925, 20239.27
960.6746, 20219.80
961.1567, 20212.15
961.6389, 20222.73
962.1210, 20237.98
962.6031, 20260.61
963.0852, 20276.65
963.5673, 20251.82
964.0494, 20171.85
964.5316, 20127.68
965.0137, 20162.41
965.4958, 20170.26
965.9779, 20083.89
966.4600, 20013.65
966.9421, 20058.97
967.4243, 20165.61
967.9064, 20206.65
968.3885, 20161.38
968.8706, 20122.11
969.3527, 20096.00
969.8348, 20072.58
970.3170, 20047.49
970.7991, 20025.73
971.2812, 20007.73
971.7633, 19996.53
972.2454, 20004.07
972.7275, 20043.63
973.2097, 20058.04
973.6918, 20026.76
974.1739, 19985.50
974.6560, 19928.53
975.1381, 19882.18
975.6202, 19876.01
976.1024, 19899.56
976.5845, 19919.63
977.0666, 19933.25
977.5487, 19935.60
978.0308, 19921.99
978.5129, 19901.20
978.9951, 19871.72
979.4772, 19841.12
979.9593, 19813.99
980.4414, 19792.24
980.9235, 19779.37
981.4056, 19775.92
981.8878, 19782.25
982.3699, 19825.82
982.8520, 19847.17
983.3341, 19790.39
983.8162, 19713.99
984.2983, 19691.18
984.7805, 19710.62
985.2626, 19701.86
985.7447, 19632.45
986.2268, 19575.70
986.7089, 19573.69
987.1910, 19573.82
987.6732, 19543.50
988.1553, 19499.37
988.6374, 19451.54
989.1195, 19409.49
989.6016, 19402.48
990.0837, 19456.69
990.5659, 19494.86
991.0480, 19486.94
991.5301, 19450.91
992.0122, 19380.51
992.4943, 19300.56
992.9764, 19229.57
993.4586, 19175.75
993.9407, 19158.08
994.4228, 19197.71
994.9049, 19230.46
995.3870, 19220.47
995.8691, 19201.84
996.3513, 19205.33
996.8334, 19209.08
997.3155, 19170.47
997.7976, 19100.86
998.2797, 19068.82
998.7618, 19113.58
999.2440, 19149.91
999.7261, 19125.38
1000.208, 19092.79
1000.690, 19093.80
1001.172, 19105.63
1001.655, 19089.92
1002.137, 19052.71
1002.619, 19038.70
1003.101, 19070.56
1003.583, 19103.98
1004.065, 19133.18
1004.547, 19140.79
1005.029, 19106.88
1005.511, 19049.25
1005.994, 18979.25
1006.476, 18907.23
1006.958, 18858.29
1007.440, 18846.13
1007.922, 18840.94
1008.404, 18817.66
1008.886, 18809.47
1009.368, 18863.40
1009.851, 18927.57
1010.333, 18931.83
1010.815, 18884.96
1011.297, 18850.54
1011.779, 18853.91
1012.261, 18848.33
1012.743, 18791.32
1013.225, 18744.69
1013.707, 18761.49
1014.190, 18798.01
1014.672, 18808.58
1015.154, 18791.71
1015.636, 18757.77
1016.118, 18698.92
1016.600, 18670.31
1017.082, 18735.38
1017.564, 18786.28
1018.047, 18750.20
1018.529, 18681.75
1019.011, 18631.71
1019.493, 18601.68
1019.975, 18577.65
1020.457, 18557.29
1020.939, 18538.15
1021.421, 18511.00
1021.903, 18495.21
1022.386, 18516.40
1022.868, 18538.68
1023.350, 18522.36
1023.832, 18480.88
1024.314, 18454.19
1024.796, 18451.80
1025.278, 18449.81
1025.760, 18448.75
1026.242, 18438.38
1026.725, 18398.85
1027.207, 18363.34
1027.689, 18369.80
1028.171, 18397.52
1028.653, 18401.67
1029.135, 18375.78
1029.617, 18332.25
1030.099, 18231.82
1030.582, 18171.63
1031.064, 18214.03
1031.546, 18268.24
1032.028, 18276.72
1032.510, 18252.34
1032.992, 18213.06
1033.474, 18156.89
1033.956, 18136.14
1034.438, 18211.45
1034.921, 18241.54
1035.403, 18150.83
1035.885, 18066.71
1036.367, 18077.66
1036.849, 18129.09
1037.331, 18135.95
1037.813, 18095.34
1038.295, 18072.12
1038.778, 18080.74
1039.260, 18084.22
1039.742, 18075.17
1040.224, 18067.90
1040.706, 18078.35
1041.188, 18085.31
1041.670, 18055.70
1042.152, 17994.86
1042.635, 17963.23
1043.117, 17982.24
1043.599, 17982.68
1044.081, 17948.14
1044.563, 17921.75
1045.045, 17923.24
1045.527, 17933.77
1046.009, 17935.96
1046.491, 17930.37
1046.974, 17919.79
1047.456, 17904.68
1047.938, 17881.46
1048.420, 17845.89
1048.902, 17815.24
1049.384, 17796.52
1049.866, 17777.61
1050.348, 17742.29
1050.830, 17707.69
1051.313, 17731.53
1051.795, 17826.60
1052.277, 17839.62
1052.759, 17750.87
1053.241, 17708.99
1053.723, 17756.42
1054.205, 17815.26
1054.687, 17835.99
1055.169, 17828.60
1055.652, 17811.46
1056.134, 17783.86
1056.616, 17729.13
1057.098, 17647.13
1057.580, 17593.00
1058.062, 17576.12
1058.544, 17591.62
1059.026, 17639.80
1059.509, 17685.83
1059.991, 17681.65
1060.473, 17639.78
1060.955, 17593.25
1061.437, 17546.36
1061.919, 17529.05
1062.401, 17540.68
1062.883, 17547.21
1063.365, 17535.78
1063.848, 17526.81
1064.330, 17544.98
1064.812, 17567.57
1065.294, 17541.18
1065.776, 17490.68
1066.258, 17482.54
1066.740, 17508.39
1067.222, 17523.39
1067.705, 17515.32
1068.187, 17497.27
1068.669, 17478.92
1069.151, 17451.43
1069.633, 17383.04
1070.115, 17315.89
1070.597, 17328.79
1071.079, 17380.87
1071.562, 17381.53
1072.044, 17328.37
1072.526, 17286.02
1073.008, 17284.57
1073.490, 17289.92
1073.972, 17289.09
1074.454, 17271.96
1074.936, 17201.29
1075.418, 17130.29
1075.901, 17143.81
1076.383, 17210.99
1076.865, 17229.94
1077.347, 17172.24
1077.829, 17119.91
1078.311, 17112.94
1078.793, 17113.36
1079.275, 17090.11
1079.757, 17081.31
1080.240, 17144.15
1080.722, 17228.58
1081.204, 17246.38
1081.686, 17190.73
1082.168, 17138.15
1082.650, 17107.78
1083.132, 17072.62
1083.614, 17008.45
1084.096, 16963.05
1084.579, 16979.34
1085.061, 17009.34
1085.543, 16993.19
1086.025, 16943.50
1086.507, 16923.13
1086.989, 16941.31
1087.471, 16966.28
1087.953, 17012.63
1088.436, 17033.96
1088.918, 17004.77
1089.400, 16974.19
1089.882, 16985.53
1090.364, 17010.38
1090.846, 16980.52
1091.328, 16892.48
1091.810, 16857.44
1092.292, 16887.30
1092.775, 16889.71
1093.257, 16843.61
1093.739, 16814.40
1094.221, 16838.15
1094.703, 16877.55
1095.185, 16885.60
1095.667, 16869.71
1096.149, 16858.32
1096.632, 16849.14
1097.114, 16819.37
1097.596, 16770.32
1098.078, 16726.85
1098.560, 16698.27
1099.042, 16696.71
1099.524, 16735.50
1100.006, 16791.30
1100.489, 16838.23
1100.971, 16870.77
1101.453, 16867.43
1101.935, 16842.79
1102.417, 16843.42
1102.899, 16865.72
1103.381, 16855.90
1103.863, 16787.93
1104.345, 16701.23
1104.828, 16605.86
1105.310, 16530.99
1105.792, 16506.20
1106.274, 16515.75
1106.756, 16561.08
1107.238, 16617.38
1107.720, 16631.82
1108.202, 16596.13
1108.684, 16570.86
1109.167, 16612.44
1109.649, 16620.59
1110.131, 16517.90
1110.613, 16415.69
1111.095, 16387.39
1111.577, 16394.71
1112.059, 16393.26
1112.541, 16381.13
1113.023, 16365.59
1113.506, 16336.40
1113.988, 16331.87
1114.470, 16390.19
1114.952, 16413.01
1115.434, 16355.75
1115.916, 16288.37
1116.398, 16250.91
1116.880, 16241.73
1117.363, 16266.40
1117.845, 16325.32
1118.327, 16322.76
1118.809, 16243.66
1119.291, 16187.39
1119.773, 16166.50
1120.255, 16162.25
1120.737, 16167.25
1121.219, 16185.56
1121.702, 16226.72
1122.184, 16271.07
1122.666, 16259.54
1123.148, 16203.69
1123.630, 16157.50
1124.112, 16125.01
1124.594, 16119.49
1125.076, 16138.53
1125.559, 16137.75
1126.041, 16089.86
1126.523, 16047.86
1127.005, 16095.44
1127.487, 16164.04
1127.969, 16153.00
1128.451, 16100.55
1128.933, 16069.14
1129.416, 16052.92
1129.898, 16002.75
1130.380, 15913.52
1130.862, 15871.66
1131.344, 15955.44
1131.826, 16034.25
1132.308, 16035.83
1132.790, 16014.32
1133.272, 16004.62
1133.755, 15994.75
1134.237, 15954.26
1134.719, 15897.41
1135.201, 15890.34
1135.683, 15969.43
1136.165, 16000.21
1136.647, 15931.84
1137.129, 15873.72
1137.611, 15846.80
1138.094, 15830.70
1138.576, 15816.77
1139.058, 15803.36
1139.540, 15787.14
1140.022, 15769.04
1140.504, 15757.01
1140.986, 15750.61
1141.468, 15756.58
1141.950, 15777.39
1142.433, 15786.29
1142.915, 15774.22
1143.397, 15754.82
1143.879, 15736.44
1144.361, 15728.48
1144.843, 15766.08
1145.325, 15821.14
1145.807, 15788.60
1146.290, 15702.13
1146.772, 15672.89
1147.254, 15702.28
1147.736, 15722.06
1148.218, 15707.52
1148.700, 15695.16
1149.182, 15723.04
1149.664, 15745.00
1150.146, 15705.23
1150.629, 15653.68
1151.111, 15645.32
1151.593, 15656.00
1152.075, 15644.57
1152.557, 15611.27
1153.039, 15582.78
1153.521, 15567.43
1154.003, 15549.71
1154.486, 15514.67
1154.968, 15492.39
1155.450, 15504.08
1155.932, 15517.82
1156.414, 15513.96
1156.896, 15500.70
1157.378, 15492.57
1157.860, 15487.42
1158.343, 15453.57
1158.825, 15374.74
1159.307, 15346.90
1159.789, 15383.55
1160.271, 15421.89
1160.753, 15444.96
1161.235, 15450.45
1161.717, 15435.07
1162.199, 15409.99
1162.682, 15400.19
1163.164, 15393.68
1163.646, 15331.18
1164.128, 15239.98
1164.610, 15221.57
1165.092, 15266.55
1165.574, 15288.15
1166.056, 15260.75
1166.538, 15230.88
1167.021, 15231.89
1167.503, 15234.40
1167.985, 15208.75
1168.467, 15179.49
1168.949, 15163.53
1169.431, 15160.97
1169.913, 15183.01
1170.395, 15214.90
1170.877, 15213.80
1171.360, 15167.27
1171.842, 15129.69
1172.324, 15120.76
1172.806, 15104.40
1173.288, 15050.45
1173.770, 15025.60
1174.252, 15083.80
1174.734, 15147.12
1175.217, 15128.29
1175.699, 15053.59
1176.181, 15012.82
1176.663, 15007.62
1177.145, 15016.62
1177.627, 15040.28
1178.109, 15061.16
1178.591, 15075.58
1179.073, 15067.99
1179.556, 15030.75
1180.038, 14993.14
1180.520, 14988.81
1181.002, 14998.10
1181.484, 14993.05
1181.966, 14976.89
1182.448, 14945.73
1182.930, 14912.00
1183.413, 14904.97
1183.895, 14921.35
1184.377, 14926.44
1184.859, 14904.81
1185.341, 14893.29
1185.823, 14934.93
1186.305, 14954.42
1186.787, 14891.70
1187.270, 14826.03
1187.752, 14819.64
1188.234, 14839.48
1188.716, 14836.02
1189.198, 14813.20
1189.680, 14798.32
1190.162, 14796.15
1190.644, 14782.65
1191.126, 14752.27
1191.609, 14736.53
1192.091, 14744.14
1192.573, 14756.22
1193.055, 14763.18
1193.537, 14759.83
1194.019, 14735.33
1194.501, 14702.39
1194.983, 14694.53
1195.465, 14702.44
1195.948, 14701.33
1196.430, 14693.28
1196.912, 14686.80
1197.394, 14685.65
1197.876, 14701.47
1198.358, 14743.31
1198.840, 14760.69
1199.322, 14694.63
1199.804, 14630.57
1200.287, 14631.26
1200.769, 14638.50
1201.251, 14596.63
1201.733, 14537.35
1202.215, 14508.71
1202.697, 14510.95
1203.179, 14520.40
1203.661, 14537.24
1204.144, 14563.54
1204.626, 14610.92
1205.108, 14629.45
1205.590, 14607.41
1206.072, 14557.95
1206.554, 14482.81
1207.036, 14418.35
1207.518, 14412.13
1208.000, 14439.54
1208.483, 14442.81
1208.965, 14427.65
1209.447, 14400.42
1209.929, 14371.81
1210.411, 14380.74
1210.893, 14419.58
1211.375, 14427.14
1211.857, 14378.47
1212.340, 14331.48
1212.822, 14318.84
1213.304, 14321.21
1213.786, 14342.40
1214.268, 14359.44
1214.750, 14351.25
1215.232, 14333.50
1215.714, 14329.57
1216.197, 14333.29
1216.679, 14318.27
1217.161, 14280.29
1217.643, 14245.58
1218.125, 14205.04
1218.607, 14214.99
1219.089, 14293.34
1219.571, 14352.86
1220.053, 14357.99
1220.536, 14323.59
1221.018, 14256.34
1221.500, 14185.76
1221.982, 14175.10
1222.464, 14192.42
1222.946, 14164.98
1223.428, 14116.75
1223.910, 14098.73
1224.392, 14110.01
1224.875, 14134.86
1225.357, 14165.33
1225.839, 14168.34
1226.321, 14106.93
1226.803, 14061.17
1227.285, 14076.24
1227.767, 14088.62
1228.249, 14058.48
1228.731, 14027.98
1229.214, 14033.10
1229.696, 14054.33
1230.178, 14059.89
1230.660, 14050.00
1231.142, 14022.69
1231.624, 13976.60
1232.106, 13947.56
1232.588, 13937.50
1233.071, 13941.97
1233.553, 13958.23
1234.035, 13970.42
1234.517, 13969.62
1234.999, 13960.76
1235.481, 13944.93
1235.963, 13928.42
1236.445, 13927.03
1236.927, 13920.73
##END=



