##NAMES=Coloradoite
##RRUFFID=R070326
##IDEAL CHEMISTRY=Hg^2+^Te^2-^
##LOCALITY=Herald Mine, Sugarloaf, Boulder County, Colorado, USA
##OWNER=RRUFF
##SOURCE=Michael Scott
##DESCRIPTION=Grey metallic massive on quartz
##STATUS=The identification of this mineral is not yet confirmed.
##URL=rruff.info/R070326
133.7520, 524.1805
134.2341, 552.9838
134.7162, 582.4562
135.1983, 612.7392
135.6804, 639.8102
136.1626, 663.2889
136.6447, 683.6564
137.1268, 699.8085
137.6089, 709.3671
138.0910, 722.7081
138.5731, 747.5118
139.0553, 788.3309
139.5374, 820.2994
140.0195, 840.4584
140.5016, 850.8980
140.9837, 858.7316
141.4658, 863.9393
141.9480, 866.6938
142.4301, 866.3270
142.9122, 859.7690
143.3943, 856.9107
143.8764, 861.4167
144.3585, 872.9622
144.8407, 876.7696
145.3228, 870.3763
145.8049, 858.0600
146.2870, 843.0847
146.7691, 817.8922
147.2512, 800.2493
147.7334, 796.6566
148.2155, 812.2327
148.6976, 818.5723
149.1797, 806.4480
149.6618, 787.7187
150.1439, 778.1322
150.6261, 789.2173
151.1082, 799.2081
151.5903, 801.7046
152.0724, 791.4482
152.5545, 785.1707
153.0366, 784.9179
153.5188, 789.4388
154.0009, 796.2438
154.4830, 809.3700
154.9651, 821.5219
155.4472, 829.7774
155.9293, 834.2603
156.4115, 834.0581
156.8936, 825.9632
157.3757, 812.2551
157.8578, 800.7401
158.3399, 793.4736
158.8221, 789.2498
159.3042, 787.2137
159.7863, 789.5289
160.2684, 791.6981
160.7505, 791.5553
161.2326, 789.5051
161.7148, 788.6913
162.1969, 794.2433
162.6790, 800.2156
163.1611, 800.8293
163.6432, 788.7988
164.1253, 775.2476
164.6075, 765.6647
165.0896, 760.2325
165.5717, 756.7843
166.0538, 755.4000
166.5359, 755.0211
167.0180, 754.1292
167.5002, 751.0383
167.9823, 747.8477
168.4644, 746.0572
168.9465, 745.8041
169.4286, 746.7594
169.9107, 749.3779
170.3929, 753.0516
170.8750, 756.5704
171.3571, 759.7784
171.8392, 762.2794
172.3213, 763.4819
172.8034, 763.0950
173.2856, 762.0847
173.7677, 762.2839
174.2498, 762.8939
174.7319, 761.2010
175.2140, 754.0078
175.6961, 743.8505
176.1783, 733.9927
176.6604, 723.9439
177.1425, 716.5150
177.6246, 717.4958
178.1067, 725.6713
178.5888, 733.2187
179.0710, 733.6890
179.5531, 729.3000
180.0352, 724.6355
180.5173, 720.2177
180.9994, 716.6682
181.4815, 716.2666
181.9637, 718.8782
182.4458, 720.4136
182.9279, 714.4775
183.4100, 703.7503
183.8921, 698.5070
184.3742, 704.1262
184.8564, 716.0297
185.3385, 724.6791
185.8206, 730.2412
186.3027, 731.4246
186.7848, 723.6163
187.2669, 708.3391
187.7491, 696.9743
188.2312, 695.1002
188.7133, 700.2863
189.1954, 704.5449
189.6775, 708.2229
190.1596, 709.2364
190.6418, 703.2289
191.1239, 690.4177
191.6060, 678.7927
192.0881, 671.4595
192.5702, 668.1604
193.0524, 666.9611
193.5345, 668.1584
194.0166, 670.6767
194.4987, 674.4092
194.9808, 679.7020
195.4629, 680.9597
195.9451, 672.5391
196.4272, 654.6390
196.9093, 644.0616
197.3914, 642.1813
197.8735, 646.2902
198.3556, 653.0321
198.8378, 663.1855
199.3199, 670.9393
199.8020, 672.3053
200.2841, 666.8439
200.7662, 660.9974
201.2483, 654.2449
201.7305, 648.1155
202.2126, 647.0095
202.6947, 651.9354
203.1768, 658.1210
203.6589, 663.8620
204.1410, 669.7178
204.6232, 670.2031
205.1053, 662.8804
205.5874, 650.7224
206.0695, 643.8967
206.5516, 643.6444
207.0337, 645.4673
207.5159, 646.6403
207.9980, 647.1467
208.4801, 646.8635
208.9622, 645.2876
209.4443, 642.9180
209.9264, 642.8496
210.4086, 646.6934
210.8907, 649.6002
211.3728, 646.8925
211.8549, 636.1729
212.3370, 627.9327
212.8191, 623.6724
213.3013, 623.1960
213.7834, 625.5322
214.2655, 633.2288
214.7476, 639.6428
215.2297, 637.3523
215.7118, 621.1313
216.1940, 610.9469
216.6761, 612.1459
217.1582, 624.0681
217.6403, 632.2019
218.1224, 636.0461
218.6045, 636.6654
219.0867, 634.3106
219.5688, 626.9861
220.0509, 621.5275
220.5330, 620.0574
221.0151, 622.6719
221.4972, 623.7770
221.9794, 623.4436
222.4615, 621.5402
222.9436, 617.4006
223.4257, 609.0125
223.9078, 602.4588
224.3899, 599.0569
224.8721, 598.8149
225.3542, 601.2115
225.8363, 607.5194
226.3184, 615.2750
226.8005, 622.2436
227.2827, 630.2468
227.7648, 633.6898
228.2469, 629.6321
228.7290, 616.5638
229.2111, 607.9212
229.6932, 604.9754
230.1754, 605.5203
230.6575, 606.8682
231.1396, 609.3472
231.6217, 612.1035
232.1038, 615.5779
232.5859, 620.6311
233.0681, 621.2917
233.5502, 614.6063
234.0323, 605.6595
234.5144, 602.2363
234.9965, 608.2260
235.4786, 613.2285
235.9608, 614.0544
236.4429, 609.9855
236.9250, 604.9529
237.4071, 598.1146
237.8892, 590.8720
238.3713, 585.2311
238.8535, 580.5594
239.3356, 578.6081
239.8177, 580.7524
240.2998, 588.8226
240.7819, 593.7188
241.2640, 593.5811
241.7462, 591.4299
242.2283, 592.9402
242.7104, 601.4481
243.1925, 608.0917
243.6746, 609.2042
244.1567, 602.2287
244.6389, 598.6088
245.1210, 599.7562
245.6031, 603.4077
246.0852, 605.4684
246.5673, 604.7630
247.0494, 604.5170
247.5316, 606.7462
248.0137, 613.9055
248.4958, 614.6158
248.9779, 605.2244
249.4600, 591.4269
249.9421, 584.5016
250.4243, 588.2821
250.9064, 591.9574
251.3885, 591.0775
251.8706, 583.4140
252.3527, 579.0011
252.8348, 580.1091
253.3170, 583.0700
253.7991, 579.4879
254.2812, 563.3123
254.7633, 552.3238
255.2454, 555.5873
255.7275, 579.5706
256.2097, 593.0175
256.6918, 591.5969
257.1739, 582.4739
257.6560, 579.4114
258.1381, 585.8801
258.6202, 591.2289
259.1024, 590.7847
259.5845, 582.5668
260.0666, 576.7479
260.5487, 573.5408
261.0308, 572.5934
261.5129, 573.5152
261.9951, 577.0868
262.4772, 580.6656
262.9593, 583.6836
263.4414, 586.7173
263.9235, 585.6396
264.4056, 577.3794
264.8878, 567.8715
265.3699, 569.1065
265.8520, 585.7058
266.3341, 599.8670
266.8162, 603.6234
267.2983, 594.8542
267.7805, 589.2406
268.2626, 587.7651
268.7447, 588.4171
269.2268, 587.2136
269.7089, 583.0587
270.1910, 581.0262
270.6732, 584.6516
271.1553, 595.0579
271.6374, 599.1667
272.1195, 595.1636
272.6016, 587.5203
273.0837, 584.3865
273.5659, 587.0788
274.0480, 587.4169
274.5301, 579.8420
275.0122, 563.8416
275.4943, 557.0039
275.9764, 561.2983
276.4586, 571.0527
276.9407, 578.8718
277.4228, 584.7481
277.9049, 588.0933
278.3870, 588.7990
278.8691, 586.8359
279.3513, 580.0007
279.8334, 566.3453
280.3155, 552.8297
280.7976, 550.5107
281.2798, 559.9120
281.7619, 568.7237
282.2440, 572.5452
282.7261, 571.7947
283.2082, 568.1762
283.6903, 560.4702
284.1725, 554.3859
284.6546, 560.4973
285.1367, 578.1048
285.6188, 589.9303
286.1009, 586.8476
286.5830, 572.7365
287.0652, 564.0359
287.5473, 561.1600
288.0294, 561.6764
288.5115, 564.3261
288.9936, 568.7513
289.4757, 571.9790
289.9579, 573.5199
290.4400, 573.0549
290.9221, 568.0728
291.4042, 558.1151
291.8863, 549.3670
292.3684, 549.9398
292.8506, 557.7280
293.3327, 563.5201
293.8148, 563.5020
294.2969, 560.2684
294.7790, 559.0843
295.2611, 559.9497
295.7433, 560.5734
296.2254, 557.8279
296.7075, 553.1108
297.1896, 550.5648
297.6717, 552.4628
298.1538, 556.1323
298.6360, 556.4919
299.1181, 553.9542
299.6002, 553.3472
300.0823, 561.8608
300.5644, 574.5510
301.0465, 581.8463
301.5287, 579.3376
302.0108, 572.8250
302.4929, 567.9507
302.9750, 564.5522
303.4571, 561.9705
303.9392, 560.4672
304.4214, 559.2727
304.9035, 557.3323
305.3856, 554.4589
305.8677, 550.7391
306.3498, 543.5641
306.8319, 534.8359
307.3141, 531.1982
307.7962, 541.3405
308.2783, 556.3065
308.7604, 567.8350
309.2425, 574.3041
309.7246, 576.4986
310.2068, 571.9096
310.6889, 563.0483
311.1710, 556.3873
311.6531, 556.4661
312.1352, 559.0665
312.6173, 561.4757
313.0995, 563.6205
313.5816, 564.4121
314.0637, 560.9542
314.5458, 555.9276
315.0279, 554.3351
315.5100, 562.1990
315.9922, 570.9084
316.4743, 576.4354
316.9564, 578.5087
317.4385, 576.5726
317.9206, 565.4521
318.4027, 551.3401
318.8849, 542.8911
319.3670, 548.7579
319.8491, 555.1136
320.3312, 556.1224
320.8133, 550.1920
321.2954, 546.0513
321.7776, 545.3660
322.2597, 547.2684
322.7418, 550.8337
323.2239, 561.2735
323.7060, 568.0319
324.1881, 566.2391
324.6703, 554.7095
325.1524, 548.4233
325.6345, 553.8175
326.1166, 562.0464
326.5987, 566.0562
327.0808, 563.9747
327.5630, 559.7500
328.0451, 551.0917
328.5272, 538.5294
329.0093, 534.0516
329.4914, 544.8149
329.9735, 557.2468
330.4557, 562.1457
330.9378, 553.3029
331.4199, 547.8153
331.9020, 548.1436
332.3841, 553.0170
332.8662, 556.2343
333.3484, 557.1256
333.8305, 557.3289
334.3126, 557.8842
334.7947, 559.3342
335.2768, 559.1513
335.7589, 556.0028
336.2411, 551.8213
336.7232, 552.2159
337.2053, 559.0265
337.6874, 565.0281
338.1695, 566.0333
338.6516, 561.1967
339.1338, 559.4445
339.6159, 562.5858
340.0980, 566.2239
340.5801, 560.9625
341.0622, 545.4553
341.5443, 532.9221
342.0265, 528.4703
342.5086, 531.7086
342.9907, 540.8188
343.4728, 557.4312
343.9549, 573.2118
344.4370, 576.0369
344.9192, 567.1257
345.4013, 557.9083
345.8834, 551.7383
346.3655, 548.3861
346.8476, 548.6036
347.3297, 552.5106
347.8119, 556.4396
348.2940, 557.4467
348.7761, 555.7507
349.2582, 551.7306
349.7403, 543.7345
350.2225, 535.1866
350.7046, 530.0908
351.1867, 528.4515
351.6688, 530.6766
352.1509, 541.5348
352.6331, 555.2913
353.1152, 562.8276
353.5973, 560.1134
354.0794, 554.4960
354.5615, 551.5652
355.0436, 550.9188
355.5258, 551.3317
356.0079, 553.4133
356.4900, 555.5487
356.9721, 556.3455
357.4542, 555.4958
357.9363, 553.6277
358.4185, 548.6160
358.9006, 543.0826
359.3827, 541.5636
359.8648, 550.3972
360.3469, 560.0786
360.8290, 566.1133
361.3112, 568.0236
361.7933, 566.8810
362.2754, 560.0369
362.7575, 551.4527
363.2396, 545.4086
363.7217, 542.0068
364.2039, 542.1820
364.6860, 549.2230
365.1681, 563.2210
365.6502, 570.5831
366.1323, 562.0159
366.6144, 551.0911
367.0966, 547.1994
367.5787, 560.2896
368.0608, 568.5894
368.5429, 568.8310
369.0250, 562.5975
369.5071, 557.9659
369.9893, 555.3621
370.4714, 553.8661
370.9535, 553.3411
371.4356, 555.1180
371.9177, 554.5444
372.3998, 549.8224
372.8820, 543.5971
373.3641, 542.7144
373.8462, 550.0270
374.3283, 555.2521
374.8104, 553.3332
375.2925, 543.4315
375.7747, 535.7017
376.2568, 529.7558
376.7389, 526.6104
377.2210, 528.7704
377.7031, 536.6330
378.1852, 544.2569
378.6674, 551.0840
379.1495, 556.1760
379.6316, 553.9623
380.1137, 543.6857
380.5958, 533.1304
381.0779, 530.9861
381.5601, 535.4387
382.0422, 537.3986
382.5243, 533.7886
383.0064, 528.0892
383.4885, 525.4814
383.9706, 525.8462
384.4528, 528.4667
384.9349, 535.3688
385.4170, 543.5853
385.8991, 548.5109
386.3812, 549.4922
386.8633, 547.1609
387.3455, 538.1639
387.8276, 526.1351
388.3097, 519.2882
388.7918, 526.3652
389.2739, 537.4511
389.7560, 545.7204
390.2382, 550.7670
390.7203, 551.5071
391.2024, 541.6176
391.6845, 529.0538
392.1666, 522.8845
392.6487, 534.2268
393.1309, 545.0046
393.6130, 546.4854
394.0951, 539.5195
394.5772, 535.0623
395.0593, 536.6127
395.5414, 541.0920
396.0236, 546.5862
396.5057, 556.4764
396.9878, 563.0652
397.4699, 565.4379
397.9520, 563.9189
398.4341, 559.4414
398.9163, 547.2737
399.3984, 537.0679
399.8805, 532.7436
400.3626, 536.7176
400.8447, 539.4558
401.3268, 540.8129
401.8090, 541.0362
402.2911, 540.0424
402.7732, 536.6907
403.2553, 535.2507
403.7374, 537.7477
404.2195, 543.8275
404.7017, 547.1382
405.1838, 547.5880
405.6659, 545.4812
406.1480, 539.3112
406.6301, 528.9207
407.1122, 523.2413
407.5944, 525.1133
408.0765, 531.3441
408.5586, 534.0983
409.0407, 533.4595
409.5228, 533.0611
410.0049, 535.6187
410.4871, 540.2689
410.9692, 545.0171
411.4513, 549.9675
411.9334, 553.8090
412.4155, 554.6644
412.8976, 553.1701
413.3798, 551.1792
413.8619, 550.4434
414.3440, 549.1059
414.8261, 543.8455
415.3082, 534.6351
415.7903, 527.4440
416.2725, 526.6092
416.7546, 529.7233
417.2367, 534.2386
417.7188, 542.7992
418.2009, 548.7041
418.6830, 546.0145
419.1652, 537.3148
419.6473, 532.1906
420.1294, 537.0817
420.6115, 543.9611
421.0937, 548.6721
421.5758, 550.2032
422.0579, 550.3515
422.5400, 549.2100
423.0221, 546.8624
423.5042, 543.4060
423.9864, 538.9028
424.4685, 533.1774
424.9506, 523.8233
425.4327, 509.9231
425.9148, 506.6965
426.3969, 519.7822
426.8791, 537.1006
427.3612, 548.6202
427.8433, 553.7912
428.3254, 554.3939
428.8075, 548.8860
429.2896, 539.6084
429.7718, 534.4789
430.2539, 533.7461
430.7360, 535.6143
431.2181, 540.9331
431.7002, 549.1894
432.1823, 552.1820
432.6645, 548.6635
433.1466, 542.6748
433.6287, 538.8154
434.1108, 537.0596
434.5929, 537.4418
435.0750, 541.2795
435.5572, 546.7162
436.0393, 551.1010
436.5214, 554.3940
437.0035, 555.7589
437.4856, 552.9350
437.9677, 548.2377
438.4499, 545.2010
438.9320, 546.2751
439.4141, 546.5659
439.8962, 539.8937
440.3783, 529.4818
440.8604, 523.4455
441.3426, 528.6342
441.8247, 536.8236
442.3068, 544.6554
442.7889, 552.7160
443.2710, 555.7244
443.7531, 544.7792
444.2353, 530.9863
444.7174, 526.4401
445.1995, 547.7816
445.6816, 562.1784
446.1637, 559.8123
446.6458, 542.8153
447.1280, 533.9733
447.6101, 538.0426
448.0922, 545.0423
448.5743, 549.9567
449.0564, 553.2720
449.5385, 552.7888
450.0207, 546.6298
450.5028, 538.3295
450.9849, 534.5023
451.4670, 535.5820
451.9491, 539.2535
452.4312, 546.5718
452.9134, 556.4126
453.3955, 558.9321
453.8776, 553.2444
454.3597, 546.5576
454.8418, 547.6959
455.3239, 554.3740
455.8061, 556.5811
456.2882, 550.3729
456.7703, 541.3672
457.2524, 537.7444
457.7345, 538.4468
458.2166, 539.0916
458.6988, 535.5656
459.1809, 531.3856
459.6630, 530.5891
460.1451, 533.8542
460.6272, 538.4600
461.1093, 545.3416
461.5915, 551.7360
462.0736, 554.0387
462.5557, 546.9665
463.0378, 539.6293
463.5199, 534.8054
464.0020, 532.5026
464.4842, 532.1571
464.9663, 538.3942
465.4484, 543.0698
465.9305, 541.5021
466.4126, 527.6185
466.8947, 517.7442
467.3769, 511.3474
467.8590, 509.1819
468.3411, 513.5731
468.8232, 529.5723
469.3053, 541.9329
469.7874, 545.8152
470.2696, 541.7270
470.7517, 538.8651
471.2338, 537.3026
471.7159, 536.7477
472.1980, 537.3307
472.6801, 539.0206
473.1623, 540.3901
473.6444, 541.3509
474.1265, 541.7078
474.6086, 541.0002
475.0907, 529.2646
475.5728, 541.9715
476.0550, 549.0717
476.5371, 550.8666
477.0192, 531.4660
477.5013, 539.4349
477.9834, 536.4354
478.4655, 532.9861
478.9477, 544.8073
479.4298, 528.4894
479.9119, 540.0684
480.3940, 540.5115
480.8761, 546.0512
481.3582, 540.5547
481.8404, 538.4669
482.3225, 547.4188
482.8046, 550.2580
483.2867, 543.4910
483.7688, 549.3547
484.2509, 532.6514
484.7331, 535.7509
485.2152, 547.3945
485.6973, 541.1824
486.1794, 547.2478
486.6615, 548.6373
487.1436, 528.7766
487.6258, 545.8721
488.1079, 546.9852
488.5900, 531.6879
489.0721, 547.5172
489.5542, 534.4823
490.0363, 535.6878
490.5185, 537.6332
491.0006, 543.0984
491.4827, 548.7185
491.9648, 550.3659
492.4470, 548.3338
492.9291, 543.5929
493.4112, 533.3333
493.8933, 523.3607
494.3754, 525.8315
494.8575, 538.7257
495.3397, 549.1829
495.8218, 544.8060
496.3039, 535.5655
496.7860, 533.1306
497.2681, 540.9826
497.7502, 548.5181
498.2324, 548.9417
498.7145, 546.0028
499.1966, 544.8067
499.6787, 554.3791
500.1608, 558.3195
500.6429, 546.1165
501.1251, 519.3811
501.6072, 504.7016
502.0893, 514.0211
502.5714, 526.6194
503.0535, 532.4712
503.5356, 526.6487
504.0178, 526.2900
504.4999, 534.3244
504.9820, 545.1628
505.4641, 550.2524
505.9462, 548.7335
506.4283, 545.7469
506.9105, 541.9504
507.3926, 537.9940
507.8747, 536.7966
508.3568, 538.4665
508.8389, 540.9310
509.3210, 542.7947
509.8032, 544.2834
510.2853, 546.8181
510.7674, 551.3282
511.2495, 553.6466
511.7316, 546.4630
512.2137, 534.0531
512.6959, 525.2203
513.1780, 526.1373
513.6601, 529.6730
514.1422, 531.4207
514.6243, 531.6292
515.1064, 532.3981
515.5886, 536.2956
516.0707, 539.7882
516.5528, 540.3795
517.0349, 535.5818
517.5170, 532.4536
517.9991, 532.9513
518.4813, 534.9906
518.9634, 535.9758
519.4455, 535.3007
519.9276, 534.6629
520.4097, 534.7700
520.8918, 535.2885
521.3740, 533.3190
521.8561, 527.7543
522.3382, 523.3696
522.8203, 524.3247
523.3024, 530.1973
523.7845, 533.6260
524.2667, 533.9014
524.7488, 532.9412
525.2309, 533.2246
525.7130, 534.3024
526.1951, 534.5811
526.6772, 533.0728
527.1594, 530.9142
527.6415, 529.2532
528.1236, 528.0671
528.6057, 527.2227
529.0878, 526.9601
529.5699, 526.8159
530.0521, 525.6788
530.5342, 522.4127
531.0163, 522.6655
531.4984, 534.0815
531.9805, 547.4379
532.4626, 552.9910
532.9448, 539.8650
533.4269, 530.3540
533.9090, 528.2009
534.3911, 531.6038
534.8732, 533.8081
535.3553, 534.9127
535.8375, 534.6251
536.3196, 532.2331
536.8017, 527.5162
537.2838, 525.1105
537.7659, 525.5736
538.2480, 526.4351
538.7302, 523.8193
539.2123, 518.5683
539.6944, 517.3638
540.1765, 523.4924
540.6586, 530.9048
541.1407, 529.4557
541.6229, 521.6002
542.1050, 516.1468
542.5871, 518.5353
543.0692, 524.9694
543.5513, 534.1422
544.0334, 545.8011
544.5156, 553.3909
544.9977, 551.1660
545.4798, 545.1392
545.9619, 539.9434
546.4440, 536.0182
546.9261, 533.5948
547.4083, 533.7727
547.8904, 535.2759
548.3725, 535.6297
548.8546, 532.9384
549.3367, 532.3868
549.8188, 536.6134
550.3010, 544.8431
550.7831, 547.2565
551.2652, 542.4180
551.7473, 536.5374
552.2294, 534.4730
552.7115, 535.7413
553.1937, 535.5333
553.6758, 533.3231
554.1579, 530.2396
554.6400, 524.5607
555.1221, 518.8172
555.6042, 520.8156
556.0864, 541.0338
556.5685, 562.4045
557.0506, 566.7139
557.5327, 557.6286
558.0148, 548.6180
558.4969, 546.6428
558.9791, 546.4559
559.4612, 544.7968
559.9433, 540.9076
560.4254, 537.7510
560.9075, 536.1827
561.3896, 535.4180
561.8718, 534.6075
562.3539, 532.3403
562.8360, 532.7574
563.3181, 538.1639
563.8002, 545.4785
564.2823, 546.2700
564.7645, 538.7687
565.2466, 532.7343
565.7287, 532.8911
566.2108, 537.7541
566.6929, 539.3450
567.1750, 537.4646
567.6572, 536.5493
568.1393, 542.4988
568.6214, 551.7265
569.1035, 556.8907
569.5856, 556.6490
570.0677, 553.2845
570.5499, 544.8226
571.0320, 535.2764
571.5141, 530.9182
571.9962, 538.7092
572.4783, 547.4723
572.9604, 554.9227
573.4426, 560.2476
573.9247, 559.8373
574.4068, 545.1225
574.8889, 531.8445
575.3710, 526.3652
575.8531, 530.1946
576.3353, 534.3998
576.8174, 539.7227
577.2995, 544.2600
577.7816, 545.6322
578.2637, 543.4249
578.7458, 542.4579
579.2280, 543.5800
579.7101, 545.9568
580.1922, 547.9537
580.6743, 549.7788
581.1564, 552.6058
581.6385, 559.4149
582.1207, 566.2388
582.6028, 566.9056
583.0849, 562.0629
583.5670, 556.8468
584.0491, 551.2348
584.5313, 548.4119
585.0134, 552.3213
585.4955, 566.8538
585.9776, 577.1711
586.4597, 575.7881
586.9418, 569.7513
587.4240, 567.2368
587.9061, 573.8431
588.3882, 575.4509
588.8703, 568.2036
589.3524, 555.6314
589.8345, 548.4622
590.3167, 547.9103
590.7988, 548.0341
591.2809, 545.5422
591.7630, 541.4908
592.2451, 542.4109
592.7272, 548.4943
593.2094, 554.8647
593.6915, 558.3490
594.1736, 559.0555
594.6557, 555.8907
595.1378, 547.3287
595.6199, 540.9813
596.1021, 544.7279
596.5842, 553.7485
597.0663, 561.1980
597.5485, 565.1044
598.0306, 566.6414
598.5127, 565.3927
598.9948, 561.8471
599.4769, 558.0229
599.9590, 552.7330
600.4412, 548.7286
600.9233, 547.1904
601.4054, 548.2768
601.8875, 548.7231
602.3696, 547.5609
602.8517, 548.1541
603.3339, 555.8292
603.8160, 569.6810
604.2981, 575.7869
604.7802, 571.3422
605.2623, 563.1544
605.7444, 559.4534
606.2266, 559.0190
606.7087, 558.7425
607.1908, 557.2756
607.6729, 555.6923
608.1550, 554.6518
608.6371, 554.1631
609.1193, 554.2200
609.6014, 554.8698
610.0835, 556.0336
610.5656, 557.6343
611.0477, 559.6432
611.5298, 562.4438
612.0120, 568.2554
612.4941, 572.6411
612.9762, 572.2878
613.4583, 565.8592
613.9404, 558.6897
614.4225, 549.1908
614.9047, 542.2607
615.3868, 547.6518
615.8689, 564.2727
616.3510, 577.0767
616.8331, 581.2506
617.3152, 579.9325
617.7974, 576.2695
618.2795, 570.8884
618.7616, 566.0397
619.2437, 563.0181
619.7258, 560.9812
620.2079, 558.1862
620.6901, 554.6529
621.1722, 555.3575
621.6543, 568.3757
622.1364, 581.7702
622.6185, 587.1699
623.1006, 579.4681
623.5828, 574.4117
624.0649, 573.4962
624.5470, 573.8545
625.0291, 571.4924
625.5112, 565.4402
625.9933, 562.2828
626.4755, 564.3400
626.9576, 568.4254
627.4397, 566.8685
627.9218, 560.5136
628.4039, 555.8051
628.8860, 557.3719
629.3682, 561.6544
629.8503, 563.4440
630.3324, 563.1587
630.8145, 564.0682
631.2966, 570.6086
631.7787, 577.2466
632.2609, 579.5297
632.7430, 575.5694
633.2251, 572.4960
633.7072, 571.3752
634.1893, 571.9255
634.6714, 574.2197
635.1536, 580.1271
635.6357, 583.3624
636.1178, 582.2436
636.5999, 579.5101
637.0820, 580.6025
637.5641, 585.6910
638.0463, 590.5909
638.5284, 595.0226
639.0105, 597.5371
639.4926, 593.8924
639.9747, 585.0195
640.4568, 576.4677
640.9390, 569.4662
641.4211, 565.6346
641.9032, 568.0403
642.3853, 576.8552
642.8674, 584.2586
643.3495, 588.3149
643.8317, 589.0524
644.3138, 585.9040
644.7959, 573.4169
645.2780, 567.9444
645.7601, 574.1556
646.2422, 583.2858
646.7244, 583.7043
647.2065, 572.7675
647.6886, 567.4305
648.1707, 572.4905
648.6528, 582.0629
649.1349, 583.5076
649.6171, 577.9838
650.0992, 573.7658
650.5813, 575.4343
651.0634, 580.0667
651.5455, 585.2641
652.0276, 590.6933
652.5098, 594.3045
652.9919, 594.9124
653.4740, 593.4486
653.9561, 589.7538
654.4382, 583.1776
654.9203, 578.3578
655.4025, 575.7923
655.8846, 575.1929
656.3667, 576.4951
656.8488, 579.9200
657.3309, 585.2738
657.8130, 594.0279
658.2952, 602.0846
658.7773, 602.3963
659.2594, 595.6575
659.7415, 590.0681
660.2236, 587.6667
660.7057, 587.5624
661.1879, 588.9195
661.6700, 591.5781
662.1521, 595.0940
662.6342, 601.6459
663.1163, 606.9165
663.5984, 607.4107
664.0806, 603.6512
664.5627, 600.3345
665.0448, 598.6547
665.5269, 597.6885
666.0090, 597.4436
666.4911, 598.2867
666.9733, 596.7144
667.4554, 591.3348
667.9375, 586.2991
668.4196, 586.0406
668.9017, 590.3246
669.3839, 591.0398
669.8660, 586.7048
670.3481, 582.3359
670.8302, 586.0931
671.3123, 594.0375
671.7944, 597.1155
672.2766, 588.7990
672.7587, 580.9330
673.2408, 584.2722
673.7229, 593.2493
674.2050, 597.0275
674.6871, 586.4182
675.1693, 576.9514
675.6514, 573.6093
676.1335, 575.1013
676.6156, 574.2709
677.0977, 568.7949
677.5798, 566.3640
678.0620, 571.7297
678.5441, 583.8598
679.0262, 591.8664
679.5083, 595.6071
679.9904, 598.6439
680.4725, 605.6940
680.9547, 613.4431
681.4368, 615.1735
681.9189, 609.5313
682.4010, 603.3168
682.8831, 601.8671
683.3652, 601.8126
683.8474, 599.5553
684.3295, 590.5030
684.8116, 585.2749
685.2937, 589.8331
685.7758, 597.0475
686.2579, 597.1656
686.7401, 587.1486
687.2222, 578.3006
687.7043, 572.4940
688.1864, 569.2014
688.6685, 566.6534
689.1506, 565.0022
689.6328, 566.8625
690.1149, 577.7820
690.5970, 590.0657
691.0791, 589.2819
691.5612, 578.1735
692.0433, 570.7258
692.5255, 578.4717
693.0076, 588.9344
693.4897, 594.2577
693.9718, 593.4233
694.4539, 592.3219
694.9360, 590.4476
695.4182, 589.7389
695.9003, 591.7759
696.3824, 597.7771
696.8645, 600.8588
697.3466, 600.2061
697.8287, 598.7726
698.3109, 599.4177
698.7930, 602.0036
699.2751, 606.9587
699.7572, 615.7097
700.2393, 621.6743
700.7214, 613.1622
701.2036, 598.1180
701.6857, 589.8903
702.1678, 600.0370
702.6499, 609.8565
703.1320, 612.7681
703.6141, 610.2203
704.0963, 605.6624
704.5784, 597.1592
705.0605, 590.0356
705.5426, 585.0419
706.0247, 582.3152
706.5068, 583.3740
706.9890, 588.7422
707.4711, 593.5270
707.9532, 594.4155
708.4353, 593.0238
708.9174, 594.0494
709.3995, 597.1744
709.8817, 599.2181
710.3638, 596.8756
710.8459, 593.1940
711.3280, 590.1038
711.8101, 587.5074
712.2922, 588.2787
712.7744, 596.5664
713.2565, 606.0624
713.7386, 613.0583
714.2207, 618.8454
714.7028, 618.0486
715.1849, 608.4256
715.6671, 596.0903
716.1492, 586.2404
716.6313, 579.1301
717.1134, 577.6292
717.5955, 583.3055
718.0776, 591.3096
718.5598, 596.5345
719.0419, 599.6107
719.5240, 601.7486
720.0061, 603.5084
720.4882, 604.3067
720.9703, 603.1686
721.4525, 600.9269
721.9346, 599.4660
722.4167, 599.1947
722.8988, 599.5833
723.3809, 601.1790
723.8630, 603.3011
724.3452, 602.8978
724.8273, 599.6525
725.3094, 596.2545
725.7915, 595.0026
726.2736, 594.1494
726.7557, 586.9122
727.2379, 574.4384
727.7200, 565.7623
728.2021, 568.2773
728.6842, 575.9588
729.1663, 585.2311
729.6484, 595.8250
730.1306, 604.3473
730.6127, 612.6473
731.0948, 616.0024
731.5769, 610.5408
732.0590, 592.1273
732.5411, 582.4868
733.0233, 583.4487
733.5054, 589.0793
733.9875, 595.7514
734.4696, 602.9169
734.9517, 605.5727
735.4338, 602.5965
735.9160, 598.6942
736.3981, 598.8547
736.8802, 601.1105
737.3623, 602.6516
737.8444, 602.9493
738.3266, 602.0028
738.8087, 598.4626
739.2908, 594.1200
739.7729, 591.7297
740.2551, 592.9814
740.7372, 593.0611
741.2193, 590.5355
741.7014, 587.2928
742.1835, 588.0791
742.6656, 592.9475
743.1478, 596.5213
743.6299, 596.8448
744.1120, 595.2656
744.5941, 593.3867
745.0762, 591.3298
745.5583, 589.4114
746.0405, 587.2403
746.5226, 585.7867
747.0047, 586.5194
747.4868, 588.8259
747.9689, 589.1340
748.4510, 586.0341
748.9332, 582.0706
749.4153, 576.9236
749.8974, 571.0907
750.3795, 571.1761
750.8616, 577.9527
751.3438, 584.5958
751.8259, 585.6426
752.3080, 583.6135
752.7901, 585.1685
753.2722, 590.2356
753.7543, 594.5635
754.2365, 596.7031
754.7186, 595.9808
755.2007, 590.1365
755.6828, 577.1898
756.1649, 569.6843
756.6470, 574.9663
757.1292, 581.5489
757.6113, 581.6979
758.0934, 572.5766
758.5755, 570.7659
759.0576, 577.9559
759.5397, 586.7804
760.0219, 589.2106
760.5040, 586.9654
760.9861, 585.6854
761.4682, 586.6185
761.9503, 586.5659
762.4324, 581.5500
762.9146, 574.7195
763.3967, 569.6334
763.8788, 566.1490
764.3609, 566.1425
764.8430, 574.2171
765.3251, 583.4974
765.8073, 585.5737
766.2894, 578.1285
766.7715, 572.6567
767.2536, 571.0303
767.7357, 571.5109
768.2178, 572.3703
768.7000, 573.0674
769.1821, 570.9790
769.6642, 563.0728
770.1463, 555.6276
770.6284, 554.9230
771.1105, 558.4667
771.5927, 561.4405
772.0748, 560.5320
772.5569, 561.1149
773.0390, 566.4120
773.5211, 573.6820
774.0032, 574.9211
774.4854, 567.7321
774.9675, 564.2583
775.4496, 571.2928
775.9317, 581.5948
776.4138, 571.9393
776.8959, 546.6879
777.3781, 529.0551
777.8602, 538.6069
778.3423, 555.0188
778.8244, 562.9547
779.3065, 563.2897
779.7886, 560.7716
780.2708, 549.8705
780.7529, 543.8983
781.2350, 548.9830
781.7171, 563.5888
782.1992, 573.0065
782.6813, 576.1031
783.1635, 578.2496
783.6456, 583.7494
784.1277, 590.1422
784.6098, 587.4380
785.0919, 576.6043
785.5740, 567.1824
786.0562, 564.2963
786.5383, 566.1241
787.0204, 573.9203
787.5025, 587.5771
787.9846, 595.3209
788.4667, 590.0735
788.9489, 582.2543
789.4310, 575.6181
789.9131, 570.2262
790.3952, 566.0694
790.8773, 563.4207
791.3594, 560.8885
791.8416, 556.3578
792.3237, 551.3145
792.8058, 550.6500
793.2879, 554.5117
793.7700, 557.8624
794.2521, 556.7200
794.7343, 553.9161
795.2164, 550.7184
795.6985, 546.0014
796.1806, 547.4395
796.6627, 561.3993
797.1448, 575.2974
797.6270, 580.1382
798.1091, 574.3883
798.5912, 572.6784
799.0733, 575.9077
799.5554, 578.7590
800.0375, 575.0511
800.5197, 567.5716
801.0018, 560.9474
801.4839, 555.6123
801.9660, 553.2113
802.4481, 560.0209
802.9302, 566.9352
803.4124, 565.2810
803.8945, 545.9916
804.3766, 536.4351
804.8587, 541.1974
805.3408, 549.6538
805.8229, 553.0059
806.3051, 551.2613
806.7872, 543.0206
807.2693, 526.3163
807.7514, 514.4117
808.2335, 526.0508
808.7156, 549.5237
809.1978, 567.5554
809.6799, 576.3456
810.1620, 580.2662
810.6441, 580.4737
811.1262, 576.9209
811.6083, 568.8838
812.0905, 550.7811
812.5726, 541.4630
813.0547, 542.9133
813.5368, 550.1878
814.0189, 559.6748
814.5010, 570.5540
814.9832, 578.2104
815.4653, 581.9492
815.9474, 581.8998
816.4295, 575.7109
816.9116, 566.8687
817.3937, 559.4912
817.8759, 553.9631
818.3580, 551.3215
818.8401, 554.1230
819.3222, 558.4227
819.8043, 560.5203
820.2864, 559.8744
820.7686, 559.2166
821.2507, 558.4073
821.7328, 558.7892
822.2149, 564.4340
822.6970, 572.4891
823.1791, 575.0427
823.6613, 568.6849
824.1434, 562.0043
824.6255, 561.4060
825.1076, 563.2977
825.5897, 563.6899
826.0718, 555.6023
826.5540, 555.8565
827.0361, 568.9595
827.5182, 585.2451
828.0003, 593.6827
828.4824, 594.2654
828.9645, 590.4583
829.4467, 581.4417
829.9288, 573.6918
830.4109, 575.6113
830.8930, 583.3377
831.3751, 591.6933
831.8572, 601.6773
832.3394, 606.6209
832.8215, 600.3857
833.3036, 589.9233
833.7857, 582.4860
834.2678, 577.2152
834.7499, 579.0168
835.2321, 590.9818
835.7142, 603.5821
836.1963, 603.4335
836.6784, 593.5936
837.1605, 584.1369
837.6426, 576.0757
838.1248, 573.1022
838.6069, 584.0544
839.0890, 598.8467
839.5711, 606.0865
840.0532, 599.7668
840.5353, 591.9948
841.0175, 580.5134
841.4996, 571.1107
841.9817, 571.5944
842.4638, 582.5328
842.9459, 588.9023
843.4280, 589.1971
843.9102, 585.3176
844.3923, 575.0343
844.8744, 563.3602
845.3565, 559.8050
845.8386, 569.0328
846.3207, 575.6920
846.8029, 569.6406
847.2850, 560.8405
847.7671, 558.3877
848.2492, 566.0554
848.7313, 569.8366
849.2134, 568.7087
849.6956, 566.2265
850.1777, 567.3031
850.6598, 570.0759
851.1419, 566.2063
851.6240, 553.8123
852.1061, 544.0169
852.5883, 547.7098
853.0704, 556.3617
853.5525, 562.3398
854.0346, 563.7758
854.5167, 564.4133
854.9988, 564.4384
855.4810, 563.8538
855.9631, 561.4548
856.4452, 557.1420
856.9273, 560.5913
857.4094, 572.7901
857.8915, 582.2097
858.3737, 574.3458
858.8558, 559.8488
859.3379, 553.0742
859.8200, 556.3408
860.3021, 558.1047
860.7842, 551.4752
861.2664, 544.3752
861.7485, 541.3694
862.2306, 542.8425
862.7127, 544.1638
863.1948, 545.0780
863.6769, 547.0114
864.1591, 552.6757
864.6412, 559.7357
865.1233, 562.5966
865.6054, 561.2866
866.0875, 558.3918
866.5696, 553.4353
867.0518, 549.0659
867.5339, 546.6164
868.0160, 546.2833
868.4981, 549.1511
868.9802, 557.9174
869.4623, 563.9844
869.9445, 560.6499
870.4266, 551.4280
870.9087, 555.9891
871.3908, 572.7552
871.8729, 584.5115
872.3550, 574.0898
872.8372, 559.7783
873.3193, 559.1622
873.8014, 569.5961
874.2835, 574.0107
874.7656, 561.5313
875.2477, 550.8926
875.7299, 546.8289
876.2120, 548.1191
876.6941, 551.2337
877.1762, 556.1591
877.6583, 557.9142
878.1404, 551.5647
878.6226, 543.7670
879.1047, 544.2469
879.5869, 550.4167
880.0690, 555.6178
880.5511, 557.3527
881.0332, 557.7177
881.5153, 556.4532
881.9974, 554.5020
882.4796, 554.0754
882.9617, 555.7133
883.4438, 555.4587
883.9259, 551.5374
884.4080, 547.0435
884.8901, 546.8795
885.3723, 550.0067
885.8544, 554.4185
886.3365, 562.6876
886.8186, 566.6769
887.3007, 557.0839
887.7828, 543.4302
888.2650, 539.6880
888.7471, 551.5702
889.2292, 558.0648
889.7113, 556.1973
890.1934, 551.4221
890.6755, 551.5640
891.1577, 554.6836
891.6398, 553.7881
892.1219, 546.5381
892.6040, 540.7062
893.0861, 544.4790
893.5682, 550.6431
894.0504, 551.9829
894.5325, 544.2465
895.0146, 540.2786
895.4967, 541.4913
895.9788, 543.8633
896.4609, 543.3425
896.9431, 540.7387
897.4252, 541.5938
897.9073, 546.2380
898.3894, 551.3583
898.8715, 556.0526
899.3536, 559.0695
899.8358, 558.7127
900.3179, 554.5194
900.8000, 551.2427
901.2821, 548.8776
901.7642, 548.2300
902.2463, 550.1335
902.7285, 554.1804
903.2106, 558.0012
903.6927, 561.5303
904.1748, 563.5957
904.6569, 561.7078
905.1390, 559.3542
905.6212, 561.7186
906.1033, 567.1807
906.5854, 568.6225
907.0675, 558.7340
907.5496, 550.9757
908.0317, 549.0433
908.5139, 551.2020
908.9960, 552.7259
909.4781, 553.6060
909.9602, 553.0668
910.4423, 550.8502
910.9244, 547.0845
911.4066, 538.9916
911.8887, 530.0243
912.3708, 526.4666
912.8529, 539.9117
913.3350, 546.5855
913.8171, 536.7230
914.2993, 522.1985
914.7814, 519.1002
915.2635, 528.1926
915.7456, 540.0390
916.2277, 554.7088
916.7098, 565.7975
917.1920, 561.0169
917.6741, 549.6400
918.1562, 546.4509
918.6383, 557.7049
919.1204, 565.4221
919.6025, 561.5794
920.0847, 554.3966
920.5668, 548.9812
921.0489, 545.4849
921.5310, 542.4137
922.0131, 539.6615
922.4952, 538.2511
922.9774, 539.9972
923.4595, 543.1437
923.9416, 544.8536
924.4237, 545.0863
924.9058, 545.9690
925.3879, 551.1062
925.8701, 554.0641
926.3522, 550.4180
926.8343, 541.6642
927.3164, 541.7227
927.7985, 551.9085
928.2806, 558.5622
928.7628, 552.4742
929.2449, 541.9854
929.7270, 541.1661
930.2091, 546.7839
930.6912, 550.0546
931.1733, 544.7439
931.6555, 539.6219
932.1376, 536.9359
932.6197, 536.2234
933.1018, 537.3015
933.5839, 540.5594
934.0660, 542.3146
934.5482, 541.2327
935.0303, 540.5920
935.5124, 546.2968
935.9945, 554.9909
936.4766, 560.8206
936.9587, 562.2764
937.4409, 561.4753
937.9230, 555.2314
938.4051, 549.9733
938.8872, 551.9611
939.3693, 563.7935
939.8514, 567.1520
940.3336, 561.3705
940.8157, 551.5943
941.2978, 535.7810
941.7799, 521.7543
942.2620, 525.8188
942.7441, 547.3034
943.2263, 560.2082
943.7084, 541.8278
944.1905, 526.0609
944.6726, 528.9362
945.1547, 546.4650
945.6368, 552.5504
946.1190, 546.5450
946.6011, 540.7876
947.0832, 540.7709
947.5653, 543.9948
948.0474, 548.8815
948.5295, 554.2525
949.0117, 557.3658
949.4938, 558.0613
949.9759, 555.0179
950.4580, 545.1967
950.9401, 533.8234
951.4222, 528.8187
951.9044, 530.2086
952.3865, 534.9048
952.8686, 543.1737
953.3507, 550.9968
953.8328, 553.2455
954.3149, 552.9001
954.7971, 553.8729
955.2792, 557.4881
955.7613, 560.0839
956.2434, 561.5344
956.7255, 561.3279
957.2076, 558.4565
957.6898, 553.0330
958.1719, 549.9966
958.6540, 549.2844
959.1361, 548.2823
959.6182, 543.3793
960.1003, 538.7556
960.5825, 538.6313
961.0646, 542.4851
961.5467, 546.5936
962.0288, 552.3753
962.5109, 554.7289
962.9930, 550.5799
963.4752, 543.8073
963.9573, 545.5292
964.4394, 554.2256
964.9215, 560.7146
965.4036, 562.0990
965.8857, 560.0292
966.3679, 551.5496
966.8500, 542.2356
967.3321, 539.7029
967.8142, 551.9258
968.2963, 557.7416
968.7784, 554.7062
969.2606, 549.9286
969.7427, 552.3036
970.2248, 559.0126
970.7069, 558.2072
971.1890, 549.1135
971.6711, 542.0181
972.1533, 547.2819
972.6354, 553.8688
973.1175, 553.6125
973.5996, 546.4117
974.0817, 540.9915
974.5638, 536.6719
975.0460, 536.8850
975.5281, 545.2917
976.0102, 557.0748
976.4923, 562.2322
976.9744, 562.1259
977.4565, 560.7571
977.9387, 560.9406
978.4208, 558.9052
978.9029, 551.1240
979.3850, 541.4245
979.8671, 533.7233
980.3492, 527.0209
980.8314, 531.0807
981.3135, 549.6482
981.7956, 567.0003
982.2777, 561.7517
982.7598, 546.2949
983.2419, 538.2877
983.7241, 540.9594
984.2062, 545.7960
984.6883, 554.2885
985.1704, 560.1396
985.6525, 559.1068
986.1346, 552.2497
986.6168, 552.9763
987.0989, 560.9143
987.5810, 564.4001
988.0631, 550.3062
988.5452, 534.0599
989.0273, 531.6102
989.5095, 538.5933
989.9916, 543.8601
990.4737, 544.3292
990.9558, 544.2471
991.4379, 543.6592
991.9200, 543.3398
992.4022, 544.0515
992.8843, 546.0110
993.3664, 551.1232
993.8485, 560.4598
994.3306, 568.0333
994.8127, 569.1669
995.2949, 567.0656
995.7770, 563.8264
996.2591, 559.2723
996.7412, 557.2507
997.2233, 559.0557
997.7054, 558.7079
998.1876, 548.6303
998.6697, 535.4591
999.1518, 536.9659
999.6339, 549.2731
1000.116, 556.8676
1000.598, 548.9459
1001.080, 539.5451
1001.562, 531.0710
1002.044, 525.2563
1002.527, 526.6479
1003.009, 535.9110
1003.491, 542.3193
1003.973, 543.3857
1004.455, 543.0768
1004.937, 546.2579
1005.419, 550.3762
1005.901, 551.9745
1006.384, 549.7922
1006.866, 547.8392
1007.348, 546.4096
1007.830, 545.5826
1008.312, 545.2321
1008.794, 545.4960
1009.276, 548.3724
1009.758, 553.3218
1010.240, 555.9983
1010.723, 550.1085
1011.205, 544.8514
1011.687, 548.9727
1012.169, 557.9014
1012.651, 558.5180
1013.133, 546.0473
1013.615, 538.6770
1014.097, 539.4619
1014.580, 545.2341
1015.062, 554.6199
1015.544, 564.8986
1016.026, 570.4547
1016.508, 569.5829
1016.990, 567.7248
1017.472, 565.7127
1017.954, 564.6534
1018.436, 565.5405
1018.919, 568.2247
1019.401, 569.9177
1019.883, 570.6218
1020.365, 569.3048
1020.847, 562.3337
1021.329, 555.5825
1021.811, 557.4297
1022.293, 563.9384
1022.776, 565.2068
1023.258, 552.3729
1023.740, 546.3541
1024.222, 551.4702
1024.704, 560.2321
1025.186, 562.8992
1025.668, 560.5409
1026.150, 555.4162
1026.632, 547.4130
1027.115, 542.5366
1027.597, 548.1259
1028.079, 554.9555
1028.561, 556.1644
1029.043, 552.0186
1029.525, 550.4652
1030.007, 551.8115
1030.489, 553.2021
1030.972, 551.5525
1031.454, 551.2477
1031.936, 563.8062
1032.418, 581.7802
1032.900, 589.0817
1033.382, 565.3229
1033.864, 553.0637
1034.346, 561.9936
1034.828, 576.2321
1035.311, 577.4642
1035.793, 567.5724
1036.275, 557.2255
1036.757, 547.1844
1037.239, 542.3183
1037.721, 550.0616
1038.203, 560.7416
1038.685, 567.9665
1039.167, 571.6915
1039.650, 575.7363
1040.132, 581.1763
1040.614, 581.4025
1041.096, 571.8027
1041.578, 559.9403
1042.060, 558.6412
1042.542, 563.9152
1043.024, 568.2590
1043.507, 568.3963
1043.989, 569.7376
1044.471, 576.0490
1044.953, 580.7136
1045.435, 577.3659
1045.917, 566.7955
1046.399, 558.8967
1046.881, 553.8544
1047.364, 550.7446
1047.846, 550.4341
1048.328, 550.4647
1048.810, 547.1787
1049.292, 542.6371
1049.774, 546.6099
1050.256, 564.3640
1050.738, 570.4844
1051.220, 556.5567
1051.703, 538.1940
1052.185, 539.0105
1052.667, 550.8552
1053.149, 561.0546
1053.631, 567.7896
1054.113, 569.4243
1054.595, 560.6791
1055.077, 552.2648
1055.559, 550.0035
1056.042, 552.8959
1056.524, 553.8118
1057.006, 553.0399
1057.488, 552.9427
1057.970, 555.4376
1058.452, 558.3619
1058.934, 561.4116
1059.416, 563.6213
1059.899, 562.8387
1060.381, 557.3377
1060.863, 555.9493
1061.345, 560.6230
1061.827, 564.1526
1062.309, 555.0140
1062.791, 541.9695
1063.273, 539.2473
1063.755, 547.7983
1064.238, 555.6754
1064.720, 557.9043
1065.202, 561.6876
1065.684, 571.0407
1066.166, 581.9324
1066.648, 581.0005
1067.130, 570.7010
1067.612, 562.1930
1068.094, 558.9022
1068.577, 558.5140
1069.059, 563.1985
1069.541, 567.6311
1070.023, 565.8082
1070.505, 555.5876
1070.987, 551.8622
1071.469, 555.0077
1071.951, 560.4033
1072.434, 567.7211
1072.916, 573.4683
1073.398, 571.4956
1073.880, 564.2047
1074.362, 560.1595
1074.844, 563.3953
1075.326, 566.2897
1075.808, 568.2162
1076.291, 568.9901
1076.773, 567.3865
1077.255, 564.5184
1077.737, 564.0344
1078.219, 566.5893
1078.701, 568.6317
1079.183, 567.7062
1079.665, 566.4310
1080.147, 566.1292
1080.630, 566.6401
1081.112, 567.0543
1081.594, 567.3715
1082.076, 567.8253
1082.558, 569.5482
1083.040, 569.4286
1083.522, 560.7499
1084.004, 550.2919
1084.486, 547.8979
1084.969, 558.4668
1085.451, 565.7736
1085.933, 569.6364
1086.415, 570.7073
1086.897, 568.2588
1087.379, 563.9392
1087.861, 559.8206
1088.343, 556.2845
1088.826, 554.6037
1089.308, 557.5044
1089.790, 559.2413
1090.272, 558.2247
1090.754, 556.2885
1091.236, 555.9532
1091.718, 557.1778
1092.200, 561.0063
1092.682, 567.9825
1093.165, 571.5099
1093.647, 562.6155
1094.129, 553.3896
1094.611, 552.7766
1095.093, 559.1018
1095.575, 559.7896
1096.057, 554.6310
1096.539, 548.5104
1097.022, 541.6374
1097.504, 537.9437
1097.986, 546.2390
1098.468, 558.2835
1098.950, 561.9871
1099.432, 550.6345
1099.914, 544.2970
1100.396, 543.7816
1100.879, 545.9734
1101.361, 549.8785
1101.843, 554.4082
1102.325, 557.5234
1102.807, 559.4355
1103.289, 560.9575
1103.771, 559.8359
1104.253, 562.4099
1104.735, 572.2870
1105.218, 582.9208
1105.700, 585.2135
1106.182, 580.1534
1106.664, 570.5361
1107.146, 556.4636
1107.628, 545.7280
1108.110, 543.1324
1108.592, 545.1558
1109.074, 551.2451
1109.557, 560.1421
1110.039, 567.3738
1110.521, 572.9895
1111.003, 577.6278
1111.485, 581.9872
1111.967, 583.7521
1112.449, 578.1160
1112.931, 570.1388
1113.414, 565.1773
1113.896, 564.0366
1114.378, 565.8249
1114.860, 571.9081
1115.342, 574.8094
1115.824, 567.4095
1116.306, 556.7456
1116.788, 554.3986
1117.271, 557.5499
1117.753, 559.8926
1118.235, 555.1197
1118.717, 557.3533
1119.199, 572.0742
1119.681, 585.1373
1120.163, 577.7961
1120.645, 558.2383
1121.127, 551.7415
1121.609, 558.1799
1122.092, 564.8513
1122.574, 562.9355
1123.056, 563.4808
1123.538, 572.1489
1124.020, 583.7361
1124.502, 587.5107
1124.984, 584.2621
1125.466, 580.3742
1125.949, 576.9403
1126.431, 573.8405
1126.913, 571.6168
1127.395, 569.1614
1127.877, 564.1102
1128.359, 557.4168
1128.841, 560.3807
1129.323, 574.0200
1129.806, 577.2207
1130.288, 556.1935
1130.770, 534.8885
1131.252, 544.6129
1131.734, 565.4344
1132.216, 569.0240
1132.698, 543.3432
1133.180, 535.7228
1133.662, 550.5396
1134.145, 565.1653
1134.627, 563.1791
1135.109, 553.5253
1135.591, 549.1360
1136.073, 548.6252
1136.555, 548.5999
1137.037, 548.2877
1137.519, 547.8011
1138.001, 546.0675
1138.484, 546.4420
1138.966, 554.8081
1139.448, 567.3646
1139.930, 576.4812
1140.412, 581.2827
1140.894, 578.2722
1141.376, 551.0980
1141.858, 536.1404
1142.341, 548.1807
1142.823, 571.1419
1143.305, 573.6579
1143.787, 560.5914
1144.269, 554.3113
1144.751, 559.0269
1145.233, 565.1923
1145.715, 566.5332
1146.198, 568.9691
1146.680, 577.9441
1147.162, 590.4923
1147.644, 589.8288
1148.126, 577.1284
1148.608, 568.9935
1149.090, 572.7175
1149.572, 576.6837
1150.054, 568.6978
1150.536, 559.2726
1151.019, 560.2960
1151.501, 573.3271
1151.983, 574.4378
1152.465, 563.0968
1152.947, 553.2921
1153.429, 552.8289
1153.911, 556.9821
1154.393, 564.7352
1154.876, 572.9285
1155.358, 575.2576
1155.840, 568.2679
1156.322, 565.9037
1156.804, 569.1680
1157.286, 572.9327
1157.768, 574.6906
1158.250, 573.4362
1158.733, 565.2682
1159.215, 552.6591
1159.697, 544.7608
1160.179, 543.5950
1160.661, 546.0792
1161.143, 553.1516
1161.625, 560.1652
1162.107, 560.1578
1162.589, 557.2449
1163.072, 558.9904
1163.554, 565.6281
1164.036, 570.6627
1164.518, 571.8212
1165.000, 572.3454
1165.482, 573.0106
1165.964, 573.3536
1166.446, 572.9410
1166.928, 571.4723
1167.411, 566.5489
1167.893, 556.3212
1168.375, 553.5043
1168.857, 573.9675
1169.339, 587.3060
1169.821, 578.6493
1170.303, 557.0679
1170.785, 546.7025
1171.268, 546.1043
1171.750, 551.2805
1172.232, 564.6146
1172.714, 573.9965
1173.196, 571.4344
1173.678, 566.1590
1174.160, 563.2590
1174.642, 562.3627
1175.125, 560.5890
1175.607, 558.4902
1176.089, 559.3065
1176.571, 570.1992
1177.053, 576.8622
1177.535, 566.4286
1178.017, 553.8069
1178.499, 554.6746
1178.981, 568.7875
1179.464, 573.0803
1179.946, 567.7954
1180.428, 561.3850
1180.910, 557.2402
1181.392, 555.5097
1181.874, 556.8677
1182.356, 560.4442
1182.838, 565.0778
1183.320, 570.8203
1183.803, 578.1086
1184.285, 587.1127
1184.767, 593.4023
1185.249, 593.6343
1185.731, 590.1409
1186.213, 581.8570
1186.695, 571.4563
1187.177, 565.9105
1187.660, 565.3860
1188.142, 567.9144
1188.624, 573.5963
1189.106, 578.7523
1189.588, 578.2562
1190.070, 577.4125
1190.552, 583.2725
1191.034, 593.8257
1191.516, 592.4628
1191.999, 577.4215
1192.481, 567.4055
1192.963, 567.7087
1193.445, 571.8608
1193.927, 576.9750
1194.409, 580.2449
1194.891, 577.4066
1195.373, 568.1245
1195.855, 562.9137
1196.338, 562.1575
1196.820, 561.7574
1197.302, 559.5405
1197.784, 558.2589
1198.266, 563.0029
1198.748, 569.3851
1199.230, 571.6594
1199.712, 568.7575
1200.195, 564.8365
1200.677, 559.6458
1201.159, 555.0264
1201.641, 550.3687
1202.123, 548.8136
1202.605, 558.1208
1203.087, 571.5333
1203.569, 577.5270
1204.052, 571.3751
1204.534, 569.9821
1205.016, 574.6002
1205.498, 576.4058
1205.980, 565.0704
1206.462, 551.0468
1206.944, 545.5602
1207.426, 546.8557
1207.908, 551.5246
1208.391, 560.5494
1208.873, 568.7432
1209.355, 576.3311
1209.837, 581.0969
1210.319, 577.8569
1210.801, 573.2944
1211.283, 576.9377
1211.765, 586.0128
1212.247, 589.6616
1212.730, 585.3950
1213.212, 581.2949
1213.694, 578.0093
1214.176, 575.8657
1214.658, 576.2051
1215.140, 577.0487
1215.622, 576.1545
1216.104, 573.5817
1216.587, 570.4828
1217.069, 566.5682
1217.551, 563.7380
1218.033, 562.5991
1218.515, 561.3136
1218.997, 556.0603
1219.479, 550.7346
1219.961, 550.3840
1220.443, 555.0733
1220.926, 558.8368
1221.408, 561.2072
1221.890, 562.9653
1222.372, 563.6492
1222.854, 566.0341
1223.336, 576.5279
1223.818, 588.6241
1224.300, 594.3331
1224.782, 592.3962
1225.265, 591.6512
1225.747, 592.6373
1226.229, 592.3934
1226.711, 589.7283
1227.193, 586.2559
1227.675, 583.9056
1228.157, 581.8704
1228.639, 578.4344
1229.122, 573.0175
1229.604, 573.3566
1230.086, 580.6216
1230.568, 585.6050
1231.050, 583.6672
1231.532, 580.2473
1232.014, 582.5302
1232.496, 586.4733
1232.979, 586.2321
1233.461, 580.5392
1233.943, 580.3656
1234.425, 586.5655
1234.907, 589.5326
1235.389, 582.9161
1235.871, 574.0797
1236.353, 568.1788
1236.835, 565.5091
1237.318, 567.1145
1237.800, 573.3165
1238.282, 580.6768
1238.764, 589.4526
1239.246, 592.7520
1239.728, 581.9545
1240.210, 570.0938
1240.692, 568.4987
1241.175, 572.5001
1241.657, 576.7048
1242.139, 582.2403
1242.621, 575.7961
1243.103, 557.1537
1243.585, 546.2186
1244.067, 564.4987
1244.549, 584.3631
1245.031, 585.2552
1245.514, 577.2580
1245.996, 574.8739
1246.478, 578.5545
1246.960, 583.6970
1247.442, 589.9647
1247.924, 591.9097
1248.406, 578.7033
1248.888, 568.2605
1249.370, 575.8431
1249.853, 588.9268
1250.335, 590.5438
1250.817, 581.1206
1251.299, 573.0941
1251.781, 567.0909
1252.263, 563.4599
1252.745, 563.6287
1253.227, 564.7511
1253.710, 563.0096
1254.192, 563.6105
1254.674, 578.5200
1255.156, 603.7731
1255.638, 607.0195
1256.120, 588.3012
1256.602, 571.6794
1257.084, 572.9156
1257.567, 575.2689
1258.049, 572.6048
1258.531, 569.0225
1259.013, 571.6708
1259.495, 578.2361
1259.977, 578.4890
1260.459, 572.5745
1260.941, 570.9097
1261.423, 587.6618
1261.906, 595.5847
1262.388, 586.2214
1262.870, 569.8430
1263.352, 557.4940
1263.834, 550.7612
1264.316, 557.3481
1264.798, 576.3288
1265.280, 588.8997
1265.762, 583.5408
1266.245, 580.9438
1266.727, 585.3010
1267.209, 592.4551
1267.691, 598.0589
1268.173, 601.9191
1268.655, 603.6488
1269.137, 603.2734
1269.619, 601.1354
1270.102, 596.3207
1270.584, 592.8229
1271.066, 591.6845
1271.548, 591.4528
1272.030, 591.0896
1272.512, 590.1166
1272.994, 586.8438
1273.476, 581.6985
1273.958, 581.6063
1274.441, 588.8070
1274.923, 589.3730
1275.405, 578.3812
1275.887, 568.6254
1276.369, 577.2538
1276.851, 590.5745
1277.333, 595.3458
1277.815, 592.2583
1278.297, 590.5539
1278.780, 590.4050
1279.262, 587.5587
1279.744, 580.4354
1280.226, 574.5432
1280.708, 576.4716
1281.190, 579.3096
1281.672, 577.7709
1282.154, 573.0483
1282.637, 568.3474
1283.119, 564.0713
1283.601, 565.1282
1284.083, 573.4346
1284.565, 580.4714
1285.047, 580.1900
1285.529, 578.1726
1286.011, 577.2270
1286.494, 576.7162
1286.976, 573.6221
1287.458, 569.4606
1287.940, 570.2131
1288.422, 577.8111
1288.904, 584.2842
1289.386, 588.3772
1289.868, 587.6027
1290.350, 578.2544
1290.833, 567.5559
1291.315, 572.4781
1291.797, 586.1447
1292.279, 595.6515
1292.761, 598.6446
1293.243, 596.6848
1293.725, 587.3510
1294.207, 581.5271
1294.689, 583.8574
1295.172, 588.6830
1295.654, 586.3854
1296.136, 582.2556
1296.618, 584.5790
1297.100, 595.3281
1297.582, 599.4175
1298.064, 595.7835
1298.546, 592.5731
1299.029, 592.6320
1299.511, 592.9735
1299.993, 590.6036
1300.475, 586.8970
1300.957, 583.1532
1301.439, 579.3931
1301.921, 573.3242
1302.403, 565.1774
1302.885, 562.3680
1303.368, 567.5458
1303.850, 575.6293
1304.332, 588.8206
1304.814, 597.3163
1305.296, 593.6133
1305.778, 582.0980
1306.260, 577.4103
1306.742, 578.7253
1307.224, 583.8075
1307.707, 593.4464
1308.189, 599.0638
1308.671, 594.1270
1309.153, 588.2909
##END=



