##NAMES=Corundum
##RRUFFID=R110117
##IDEAL CHEMISTRY=Al_2_O_3_
##LOCALITY=Synthetic
##OWNER=RRUFF
##SOURCE=Gemological Institute of America
##DESCRIPTION=A cut, dark blue (1.51ct) sapphire gemstone, flux grown.
##STATUS=The identification of this mineral has been confirmed by single-crystal X-ray diffraction.
##URL=rruff.info/R110117
150.7568, 43.45662
151.2389, 43.68641
151.7210, 45.08904
152.2031, 48.11947
152.6852, 50.83738
153.1674, 53.31150
153.6495, 55.45481
154.1316, 57.16132
154.6137, 57.46351
155.0958, 58.15139
155.5779, 59.77129
156.0601, 62.46448
156.5422, 65.83823
157.0243, 70.30334
157.5064, 75.38348
157.9885, 80.15617
158.4706, 84.70232
158.9528, 88.69231
159.4349, 91.90755
159.9170, 93.93517
160.3991, 95.86231
160.8812, 97.75282
161.3633, 99.73593
161.8455, 102.1507
162.3276, 105.1862
162.8097, 108.6301
163.2918, 112.4697
163.7739, 117.1189
164.2560, 121.5415
164.7382, 124.7268
165.2203, 127.1233
165.7024, 130.4470
166.1845, 136.1952
166.6666, 142.9596
167.1487, 149.4482
167.6309, 155.6222
168.1130, 161.1920
168.5951, 165.3986
169.0772, 168.5194
169.5593, 172.1247
170.0414, 178.1902
170.5236, 184.9837
171.0057, 190.3004
171.4878, 191.5290
171.9699, 192.5409
172.4520, 196.9816
172.9341, 204.6322
173.4163, 212.5647
173.8984, 218.6316
174.3805, 223.6147
174.8626, 228.6375
175.3447, 235.1152
175.8268, 241.4301
176.3090, 245.3675
176.7911, 246.8735
177.2732, 248.0704
177.7553, 249.8555
178.2374, 251.5689
178.7195, 252.8746
179.2017, 253.2950
179.6838, 253.4239
180.1659, 254.3233
180.6480, 256.0678
181.1301, 257.7639
181.6122, 258.0528
182.0944, 257.4619
182.5765, 257.7204
183.0586, 260.5656
183.5407, 264.6171
184.0228, 266.8874
184.5049, 267.1463
184.9871, 266.6376
185.4692, 266.9457
185.9513, 267.8606
186.4334, 268.2335
186.9155, 267.1689
187.3976, 265.0999
187.8798, 263.5516
188.3619, 262.6884
188.8440, 261.9148
189.3261, 260.2411
189.8082, 257.7303
190.2903, 255.4344
190.7725, 254.1948
191.2546, 253.7393
191.7367, 252.4202
192.2188, 249.9194
192.7009, 247.1635
193.1830, 245.9689
193.6652, 246.3439
194.1473, 246.6008
194.6294, 245.6729
195.1115, 243.6657
195.5936, 241.9499
196.0757, 240.6730
196.5579, 239.5923
197.0400, 238.0410
197.5221, 235.9245
198.0042, 234.3122
198.4863, 234.1672
198.9684, 235.5163
199.4506, 235.9174
199.9327, 234.9124
200.4148, 233.2590
200.8969, 232.7146
201.3790, 233.4562
201.8611, 234.3235
202.3433, 234.7381
202.8254, 234.7026
203.3075, 234.1196
203.7896, 232.7200
204.2717, 231.0020
204.7538, 230.4376
205.2360, 231.3348
205.7181, 232.2249
206.2002, 232.1546
206.6823, 230.9588
207.1644, 229.8179
207.6465, 228.7055
208.1287, 227.7651
208.6108, 227.5638
209.0929, 228.3994
209.5750, 229.1458
210.0571, 229.1342
210.5392, 228.3044
211.0214, 226.9603
211.5035, 224.8548
211.9856, 222.3493
212.4677, 220.6800
212.9498, 220.0601
213.4319, 219.7996
213.9140, 219.3873
214.3962, 218.5880
214.8783, 218.5774
215.3604, 219.8300
215.8425, 221.8969
216.3246, 222.8973
216.8067, 222.5918
217.2889, 221.7068
217.7710, 220.4080
218.2531, 218.0865
218.7352, 217.2484
219.2173, 218.6631
219.6994, 221.7289
220.1816, 223.4512
220.6637, 223.2476
221.1458, 222.7522
221.6279, 223.0700
222.1100, 224.6959
222.5921, 225.7890
223.0743, 225.9798
223.5564, 225.5176
224.0385, 225.6136
224.5206, 226.5009
225.0027, 227.5779
225.4848, 228.4575
225.9670, 228.9604
226.4491, 229.6936
226.9312, 230.7168
227.4133, 232.0076
227.8954, 233.6029
228.3775, 235.8444
228.8597, 237.8532
229.3418, 238.9839
229.8239, 238.7288
230.3060, 238.7524
230.7881, 239.1248
231.2702, 239.8582
231.7524, 241.0698
232.2345, 243.0323
232.7166, 245.0492
233.1987, 246.6470
233.6808, 247.4994
234.1629, 248.6571
234.6451, 250.3774
235.1272, 252.4667
235.6093, 254.0543
236.0914, 254.7249
236.5735, 255.4626
237.0556, 256.9514
237.5378, 259.9993
238.0199, 261.9644
238.5020, 262.0933
238.9841, 261.0310
239.4662, 261.4932
239.9483, 264.5298
240.4305, 267.6717
240.9126, 269.5707
241.3947, 269.5174
241.8768, 269.8115
242.3589, 270.6810
242.8410, 271.9589
243.3232, 273.0991
243.8053, 274.1662
244.2874, 274.9937
244.7695, 275.4224
245.2516, 275.1131
245.7337, 275.2012
246.2159, 276.0602
246.6980, 277.2875
247.1801, 277.5184
247.6622, 276.1993
248.1443, 274.7136
248.6264, 273.7662
249.1086, 273.7106
249.5907, 273.2939
250.0728, 272.2591
250.5549, 270.9211
251.0370, 270.1643
251.5191, 270.3292
252.0013, 270.5457
252.4834, 270.5338
252.9655, 270.5562
253.4476, 269.6146
253.9297, 267.2608
254.4118, 264.1520
254.8940, 261.7382
255.3761, 260.3583
255.8582, 259.0648
256.3403, 257.5070
256.8224, 255.6840
257.3046, 253.5430
257.7867, 250.8240
258.2688, 247.9639
258.7509, 245.9180
259.2330, 245.1101
259.7151, 244.2845
260.1973, 242.9380
260.6794, 240.9814
261.1615, 238.9423
261.6436, 236.6040
262.1257, 234.3942
262.6078, 233.1830
263.0900, 233.4375
263.5721, 233.6128
264.0542, 233.1638
264.5363, 231.9931
265.0184, 230.8490
265.5005, 229.7872
265.9827, 228.6760
266.4648, 227.2640
266.9469, 225.4594
267.4290, 223.6380
267.9111, 221.7845
268.3932, 219.8685
268.8754, 218.7155
269.3575, 218.7593
269.8396, 218.8917
270.3217, 217.3990
270.8038, 213.6726
271.2859, 210.7243
271.7681, 209.7361
272.2502, 210.6130
272.7323, 210.3546
273.2144, 208.6674
273.6965, 206.4440
274.1786, 204.4647
274.6608, 202.6247
275.1429, 201.5707
275.6250, 201.7704
276.1071, 202.9781
276.5892, 203.2138
277.0714, 202.2409
277.5535, 200.9608
278.0356, 200.2794
278.5177, 200.2742
278.9998, 200.0336
279.4819, 199.2972
279.9641, 198.1955
280.4462, 197.4244
280.9283, 197.0948
281.4104, 196.6048
281.8925, 195.2144
282.3746, 192.9045
282.8568, 191.2497
283.3389, 190.7838
283.8210, 190.9247
284.3031, 189.9292
284.7852, 187.6868
285.2673, 185.2532
285.7495, 183.4400
286.2316, 182.1856
286.7137, 180.5886
287.1958, 178.4151
287.6779, 176.0271
288.1600, 174.2576
288.6422, 173.1156
289.1243, 171.9364
289.6064, 170.0749
290.0885, 167.7333
290.5706, 166.2870
291.0527, 166.1604
291.5349, 166.2097
292.0170, 164.1240
292.4991, 160.1341
292.9812, 156.6465
293.4633, 155.3494
293.9454, 155.6363
294.4276, 155.6078
294.9097, 155.1125
295.3918, 154.5294
295.8739, 154.3869
296.3560, 154.6029
296.8381, 154.7802
297.3203, 154.9207
297.8024, 154.8615
298.2845, 154.0846
298.7666, 152.5101
299.2487, 150.9042
299.7308, 150.0420
300.2130, 149.7592
300.6951, 149.5899
301.1772, 149.1147
301.6593, 148.7569
302.1414, 149.4489
302.6235, 151.1545
303.1057, 152.6027
303.5878, 152.3266
304.0699, 151.0746
304.5520, 150.2431
305.0341, 150.5227
305.5162, 151.1997
305.9984, 151.7314
306.4805, 152.0803
306.9626, 152.0215
307.4447, 150.9502
307.9268, 149.5150
308.4089, 148.6352
308.8911, 148.9057
309.3732, 149.2362
309.8553, 148.4902
310.3374, 147.0034
310.8195, 145.8967
311.3016, 146.1012
311.7838, 146.8298
312.2659, 147.3809
312.7480, 147.5499
313.2301, 147.6897
313.7122, 148.1898
314.1943, 148.8201
314.6765, 149.0840
315.1586, 148.4376
315.6407, 147.5838
316.1228, 146.9235
316.6049, 146.5125
317.0870, 146.2958
317.5692, 146.3130
318.0513, 146.4977
318.5334, 146.7579
319.0155, 147.0824
319.4976, 147.4604
319.9797, 147.9898
320.4619, 148.7121
320.9440, 149.1176
321.4261, 148.8520
321.9082, 148.2822
322.3903, 147.7556
322.8724, 147.3961
323.3546, 147.0332
323.8367, 146.5398
324.3188, 145.9286
324.8009, 145.5641
325.2830, 145.7238
325.7651, 146.0184
326.2473, 146.1972
326.7294, 146.4355
327.2115, 146.3355
327.6936, 145.6349
328.1757, 144.4907
328.6578, 143.6456
329.1400, 143.3213
329.6221, 143.1228
330.1042, 142.8564
330.5863, 142.1497
331.0684, 142.0119
331.5505, 142.8040
332.0327, 144.0956
332.5148, 144.9173
332.9969, 144.9827
333.4790, 144.9442
333.9611, 144.9440
334.4432, 144.8706
334.9254, 145.3269
335.4075, 146.6406
335.8896, 148.1936
336.3717, 148.9487
336.8538, 148.2210
337.3359, 148.3875
337.8180, 150.5281
338.3001, 154.5821
338.7823, 156.9944
339.2644, 157.2788
339.7465, 156.8452
340.2286, 157.0102
340.7107, 157.8543
341.1928, 158.8481
341.6750, 159.9356
342.1571, 161.0806
342.6392, 161.9795
343.1213, 162.5610
343.6034, 163.3233
344.0855, 165.0649
344.5677, 167.6899
345.0498, 168.9497
345.5319, 168.2297
346.0140, 166.5829
346.4961, 166.0647
346.9782, 166.6343
347.4604, 167.2555
347.9425, 167.2131
348.4246, 166.7259
348.9067, 166.5573
349.3888, 166.7431
349.8709, 167.2679
350.3531, 168.3820
350.8352, 169.8962
351.3173, 171.1045
351.7994, 171.2814
352.2815, 171.1107
352.7636, 171.7759
353.2458, 173.2755
353.7279, 175.0974
354.2100, 177.0433
354.6921, 178.9798
355.1742, 180.6665
355.6563, 181.9909
356.1385, 183.0979
356.6206, 183.8986
357.1027, 184.5121
357.5848, 185.5033
358.0669, 187.6502
358.5490, 190.1244
359.0312, 192.0447
359.5133, 192.9445
359.9954, 193.9983
360.4775, 196.1116
360.9596, 198.8871
361.4417, 201.4419
361.9239, 203.3596
362.4060, 205.0362
362.8881, 206.6873
363.3702, 208.3547
363.8523, 209.9019
364.3344, 211.1805
364.8166, 212.3531
365.2987, 213.6155
365.7808, 215.1527
366.2629, 216.6117
366.7450, 217.7872
367.2271, 218.6815
367.7093, 219.8446
368.1914, 221.2402
368.6735, 222.9830
369.1556, 225.1752
369.6377, 228.8489
370.1198, 231.6041
370.6020, 232.9919
371.0841, 233.3423
371.5662, 233.8230
372.0483, 234.2531
372.5304, 235.0196
373.0125, 236.3274
373.4947, 238.3508
373.9768, 240.3912
374.4589, 242.4604
374.9410, 244.5602
375.4231, 246.7410
375.9052, 249.1955
376.3874, 251.2552
376.8695, 252.7330
377.3516, 253.6485
377.8337, 254.0379
378.3158, 253.9123
378.7979, 253.2799
379.2801, 252.0639
379.7622, 250.2357
380.2443, 248.2393
380.7264, 246.0377
381.2085, 243.7984
381.6906, 241.9832
382.1728, 240.6018
382.6549, 239.3411
383.1370, 237.8654
383.6191, 236.3054
384.1012, 235.2873
384.5833, 234.9180
385.0655, 234.8919
385.5476, 234.7788
386.0297, 234.6487
386.5118, 234.7737
386.9939, 235.6145
387.4760, 236.6574
387.9582, 237.0819
388.4403, 236.8724
388.9224, 236.5774
389.4045, 236.6239
389.8866, 236.8742
390.3687, 237.1252
390.8509, 237.1466
391.3330, 237.3295
391.8151, 238.1052
392.2972, 239.3345
392.7793, 240.4543
393.2614, 240.9363
393.7436, 241.3579
394.2257, 242.1589
394.7078, 243.5133
395.1899, 244.9935
395.6720, 246.3188
396.1541, 247.6927
396.6363, 249.4439
397.1184, 252.1127
397.6005, 254.7390
398.0826, 256.7740
398.5647, 258.0327
399.0468, 260.1010
399.5290, 263.4034
400.0111, 267.4240
400.4932, 271.7494
400.9753, 276.3592
401.4574, 281.3311
401.9395, 286.8748
402.4217, 292.8190
402.9038, 298.2409
403.3859, 303.0363
403.8680, 307.4656
404.3501, 311.6154
404.8322, 315.3463
405.3144, 319.1208
405.7965, 322.7907
406.2786, 326.6256
406.7607, 331.0835
407.2428, 336.2417
407.7249, 341.5845
408.2071, 346.6445
408.6892, 351.6583
409.1713, 357.8407
409.6534, 365.1486
410.1355, 374.0890
410.6176, 384.7506
411.0998, 397.3104
411.5819, 412.6561
412.0640, 431.0998
412.5461, 452.2231
413.0282, 475.9451
413.5103, 502.1239
413.9925, 530.3265
414.4746, 561.3441
414.9567, 594.2166
415.4388, 629.4103
415.9209, 668.2628
416.4030, 700.3319
416.8852, 726.2335
417.3673, 738.2991
417.8494, 724.5089
418.3315, 664.1726
418.8136, 589.8766
419.2957, 513.5395
419.7779, 437.9702
420.2600, 375.7166
420.7421, 337.0755
421.2242, 311.6286
421.7063, 293.3036
422.1884, 282.4161
422.6706, 274.8975
423.1527, 270.7930
423.6348, 269.2081
424.1169, 268.4080
424.5990, 268.3192
425.0811, 268.7870
425.5633, 269.8773
426.0454, 271.6635
426.5275, 273.4760
427.0096, 275.3041
427.4917, 277.1772
427.9738, 279.1548
428.4560, 281.3925
428.9381, 283.5057
429.4202, 286.0584
429.9023, 288.3087
430.3844, 287.4412
430.8665, 282.6328
431.3487, 277.0432
431.8308, 272.0325
432.3129, 267.6176
432.7950, 263.7520
433.2771, 260.3936
433.7592, 257.7585
434.2414, 256.4424
434.7235, 256.3234
435.2056, 255.8320
435.6877, 253.9943
436.1698, 251.8126
436.6519, 251.6826
437.1341, 253.5184
437.6162, 255.6230
438.0983, 256.9641
438.5804, 257.6937
439.0625, 257.9296
439.5446, 257.5124
440.0268, 257.2192
440.5089, 257.6885
440.9910, 258.7980
441.4731, 260.2818
441.9552, 262.3387
442.4373, 264.4870
442.9195, 266.3298
443.4016, 267.8698
443.8837, 269.6948
444.3658, 271.8673
444.8479, 274.5281
445.3300, 277.7669
445.8122, 281.9383
446.2943, 286.2738
446.7764, 291.3391
447.2585, 296.5217
447.7406, 300.2569
448.2227, 303.0432
448.7049, 303.7475
449.1870, 301.8692
449.6691, 297.1906
450.1512, 291.1404
450.6333, 282.4700
451.1154, 273.8727
451.5976, 268.0177
452.0797, 265.5703
452.5618, 263.8528
453.0439, 262.5292
453.5260, 261.6526
454.0081, 261.5058
454.4903, 262.2249
454.9724, 262.7935
455.4545, 262.2878
455.9366, 260.9674
456.4187, 260.8159
456.9008, 262.0230
457.3830, 263.6837
457.8651, 264.6976
458.3472, 265.2696
458.8293, 266.0547
459.3114, 267.5504
459.7935, 269.0716
460.2757, 269.5208
460.7578, 269.1149
461.2399, 268.9751
461.7220, 270.1810
462.2041, 271.7693
462.6862, 272.7618
463.1684, 272.8962
463.6505, 272.9907
464.1326, 273.1314
464.6147, 273.5762
465.0968, 274.6712
465.5789, 277.9795
466.0611, 280.4504
466.5432, 280.5345
467.0253, 278.5045
467.5074, 277.5756
467.9895, 278.8626
468.4716, 280.7402
468.9538, 282.4903
469.4359, 284.1689
469.9180, 285.5631
470.4001, 286.7253
470.8822, 287.5742
471.3643, 287.9889
471.8465, 287.9313
472.3286, 287.4933
472.8107, 286.4641
473.2928, 285.0553
473.7749, 284.6300
474.2570, 285.3780
474.7392, 286.1160
475.2213, 286.0157
475.7034, 285.1358
476.1855, 283.7274
476.6676, 281.6670
477.1497, 279.6003
477.6319, 278.5450
478.1140, 278.2530
478.5961, 277.9306
479.0782, 277.2360
479.5603, 276.3319
480.0424, 275.3983
480.5246, 274.4233
481.0067, 273.3502
481.4888, 271.9169
481.9709, 270.4922
482.4530, 269.4447
482.9352, 268.9856
483.4173, 268.5473
483.8994, 267.9207
484.3815, 267.1649
484.8636, 266.3777
485.3457, 265.5237
485.8279, 264.7001
486.3100, 264.1108
486.7921, 263.7442
487.2742, 262.7315
487.7563, 260.4413
488.2384, 258.1420
488.7206, 256.6619
489.2027, 256.6200
489.6848, 255.6507
490.1669, 253.2633
490.6490, 250.4463
491.1311, 248.7586
491.6133, 248.3306
492.0954, 248.2436
492.5775, 248.3060
493.0596, 248.4715
493.5417, 248.6409
494.0238, 248.8151
494.5060, 248.7782
494.9881, 248.0410
495.4702, 246.9822
495.9523, 246.5751
496.4344, 247.0057
496.9165, 247.8178
497.3987, 248.7406
497.8808, 249.7046
498.3629, 250.5615
498.8450, 251.6996
499.3271, 252.3382
499.8092, 251.5763
500.2914, 249.6798
500.7735, 248.1651
501.2556, 247.5916
501.7377, 247.5759
502.2198, 248.0952
502.7019, 249.7550
503.1841, 250.3626
503.6662, 248.4741
504.1483, 245.8867
504.6304, 244.7658
505.1125, 246.4405
505.5946, 247.4254
506.0768, 246.9544
506.5589, 245.3542
507.0410, 244.3044
507.5231, 243.9788
508.0052, 243.7095
508.4873, 242.9876
508.9695, 241.8125
509.4516, 241.4475
509.9337, 242.0722
510.4158, 242.7768
510.8979, 242.3244
511.3800, 240.9769
511.8622, 239.9677
512.3443, 239.7780
512.8264, 239.8472
513.3085, 239.1365
513.7906, 237.9563
514.2728, 237.4181
514.7549, 239.1406
515.2370, 241.1327
515.7191, 241.3310
516.2012, 239.4763
516.6833, 238.1417
517.1655, 239.1470
517.6476, 240.8591
518.1297, 241.8803
518.6118, 241.4122
519.0939, 240.8757
519.5760, 240.4804
520.0582, 240.1628
520.5403, 239.7370
521.0224, 238.8966
521.5045, 238.3880
521.9866, 238.5130
522.4688, 239.2701
522.9509, 239.7659
523.4330, 239.8684
523.9151, 240.0150
524.3972, 240.6543
524.8793, 241.7979
525.3615, 242.5162
525.8436, 242.5806
526.3257, 242.6106
526.8078, 243.8892
527.2899, 246.0864
527.7720, 247.5737
528.2542, 247.1055
528.7363, 246.0383
529.2184, 246.4309
529.7005, 248.0040
530.1826, 249.2560
530.6647, 249.0807
531.1469, 248.2952
531.6290, 247.4548
532.1111, 246.5375
532.5932, 246.1075
533.0753, 246.9545
533.5574, 248.1595
534.0396, 248.7553
534.5217, 248.0869
535.0038, 247.3853
535.4859, 246.7996
535.9680, 246.3048
536.4501, 245.8206
536.9323, 245.4041
537.4144, 244.8857
537.8965, 244.0151
538.3786, 242.7609
538.8607, 242.7638
539.3428, 244.4544
539.8250, 246.0635
540.3071, 245.6001
540.7892, 243.3189
541.2713, 241.6603
541.7534, 241.1248
542.2355, 240.9648
542.7177, 240.1221
543.1998, 238.7733
543.6819, 237.5035
544.1640, 236.5690
544.6461, 235.8611
545.1282, 235.3828
545.6104, 235.0904
546.0925, 234.7003
546.5746, 233.9281
547.0567, 233.1089
547.5388, 232.5348
548.0209, 232.4216
548.5031, 231.9567
548.9852, 230.5635
549.4673, 228.9266
549.9494, 227.7742
550.4315, 227.4432
550.9136, 227.1117
551.3958, 226.8797
551.8779, 226.5416
552.3600, 225.3410
552.8421, 222.9523
553.3242, 220.8150
553.8063, 219.5720
554.2885, 219.1296
554.7706, 218.8513
555.2527, 218.7638
555.7348, 218.5679
556.2169, 218.0066
556.6990, 217.1385
557.1812, 215.9357
557.6633, 214.2144
558.1454, 212.8746
558.6275, 213.0938
559.1096, 214.2599
559.5917, 215.2990
560.0739, 215.8234
560.5560, 216.0639
561.0381, 215.9294
561.5202, 215.5430
562.0023, 215.4287
562.4844, 215.8799
562.9666, 216.4917
563.4487, 216.9944
563.9308, 217.2221
564.4129, 218.1889
564.8950, 220.7209
565.3771, 223.0845
565.8593, 223.5659
566.3414, 221.4673
566.8235, 220.4913
567.3056, 221.1022
567.7877, 222.8121
568.2698, 224.9383
568.7520, 227.4733
569.2341, 229.9216
569.7162, 231.6987
570.1983, 233.5641
570.6804, 237.3518
571.1625, 242.7974
571.6447, 248.1364
572.1268, 251.4931
572.6089, 254.6168
573.0910, 259.1252
573.5731, 265.3086
574.0552, 272.3589
574.5374, 281.4605
575.0195, 290.5583
575.5016, 297.7686
575.9837, 304.5850
576.4658, 307.1449
576.9479, 304.5656
577.4301, 297.6894
577.9122, 287.6791
578.3943, 272.4904
578.8764, 257.9436
579.3585, 245.3144
579.8406, 234.6010
580.3228, 225.9281
580.8049, 219.3876
581.2870, 214.3227
581.7691, 210.5232
582.2512, 207.8499
582.7333, 205.7996
583.2155, 204.3886
583.6975, 203.1331
584.1796, 201.3760
584.6617, 199.4829
585.1439, 198.0927
585.6260, 197.6438
586.1081, 197.2615
586.5902, 196.2152
587.0723, 194.8747
587.5544, 193.9701
588.0366, 194.1622
588.5187, 194.3371
589.0008, 194.0622
589.4829, 193.3579
589.9650, 192.8655
590.4471, 192.6248
590.9293, 192.5373
591.4114, 192.6441
591.8935, 193.0301
592.3756, 192.9165
592.8577, 192.1609
593.3398, 191.2838
593.8220, 190.7407
594.3041, 190.5311
594.7862, 190.7197
595.2683, 191.4395
595.7504, 192.2470
596.2325, 192.5157
596.7147, 192.4156
597.1968, 192.3811
597.6789, 192.7083
598.1610, 193.0889
598.6431, 193.3428
599.1252, 193.4694
599.6074, 193.4797
600.0895, 192.9728
600.5716, 192.6937
601.0537, 193.0589
601.5358, 194.2319
602.0179, 195.4556
602.5001, 197.1481
602.9822, 198.4651
603.4643, 198.6310
603.9464, 197.2276
604.4285, 196.3316
604.9106, 196.1129
605.3928, 196.3383
605.8749, 196.7352
606.3570, 197.2927
606.8391, 197.8547
607.3212, 198.4064
607.8033, 198.8936
608.2855, 199.1271
608.7676, 199.1958
609.2497, 199.4406
609.7318, 200.2320
610.2139, 201.1346
610.6960, 201.8676
611.1782, 202.4097
611.6603, 202.6989
612.1424, 202.3802
612.6245, 202.0483
613.1066, 202.1275
613.5887, 203.0308
614.0709, 203.4307
614.5530, 202.9436
615.0351, 202.3078
615.5172, 202.3317
615.9993, 203.1663
616.4814, 203.9804
616.9636, 204.6282
617.4457, 205.2388
617.9278, 206.2940
618.4099, 207.7005
618.8920, 208.5185
619.3741, 208.0263
619.8563, 206.9729
620.3384, 206.5091
620.8205, 206.5105
621.3026, 206.3613
621.7847, 205.4303
622.2668, 204.4072
622.7490, 203.6994
623.2311, 203.3163
623.7132, 203.5689
624.1953, 205.3540
624.6774, 207.2541
625.1595, 208.2614
625.6417, 207.8356
626.1238, 207.5722
626.6059, 207.5504
627.0880, 207.6154
627.5701, 207.3132
628.0522, 206.4927
628.5344, 207.0303
629.0165, 209.9583
629.4986, 213.4993
629.9807, 213.5560
630.4628, 210.7840
630.9449, 208.7302
631.4271, 209.9197
631.9092, 212.2022
632.3913, 213.3018
632.8734, 213.3497
633.3555, 213.2675
633.8376, 213.5882
634.3198, 213.8628
634.8019, 213.6933
635.2840, 212.8631
635.7661, 212.5536
636.2482, 213.4904
636.7303, 214.4788
637.2125, 214.6150
637.6946, 213.3941
638.1767, 212.8351
638.6588, 213.1587
639.1409, 213.9110
639.6230, 214.5010
640.1052, 214.9395
640.5873, 215.3349
641.0694, 215.7479
641.5515, 216.0701
642.0336, 215.8625
642.5157, 215.3852
642.9979, 215.4004
643.4800, 217.0219
643.9621, 218.6551
644.4442, 218.8253
644.9263, 217.8303
645.4084, 217.4943
645.8906, 219.0266
646.3727, 220.8072
646.8548, 222.0833
647.3369, 222.7760
647.8190, 223.4655
648.3011, 224.0745
648.7833, 224.7892
