##NAMES=Creaseyite
##RRUFFID=R140557
##IDEAL CHEMISTRY=Cu^2+^_2_Pb^2+^_2_Fe^3+^_2_Si_5_O_17_&#183;6H_2_O
##LOCALITY=Evening Star mine, Tiger Wash, Belmont Mountain, Tonopah, Osborn District, Big Horn Mts, Maricopa County, Arizona, USA
##OWNER=RRUFF
##SOURCE=Ron Gibbs
##DESCRIPTION=Radiating aggregate of acicular pale-green crystals, associated with prismatic yellow hedyphane.
##STATUS=The identification of this mineral has been confirmed by single-crystal X-ray diffraction.
##URL=rruff.info/R140557
9.059570e+001, 1.497635e+004
9.107782e+001, 1.499632e+004
9.155994e+001, 1.500415e+004
9.204205e+001, 1.498306e+004
9.252417e+001, 1.496164e+004
9.300629e+001, 1.495013e+004
9.348840e+001, 1.487484e+004
9.397052e+001, 1.464735e+004
9.445264e+001, 1.424870e+004
9.493475e+001, 1.387447e+004
9.541687e+001, 1.353872e+004
9.589898e+001, 1.325929e+004
9.638110e+001, 1.301455e+004
9.686321e+001, 1.278731e+004
9.734533e+001, 1.256123e+004
9.782745e+001, 1.231304e+004
9.830956e+001, 1.208161e+004
9.879168e+001, 1.187203e+004
9.927380e+001, 1.167091e+004
9.975591e+001, 1.148045e+004
1.002380e+002, 1.129357e+004
1.007201e+002, 1.109576e+004
1.012023e+002, 1.087773e+004
1.016844e+002, 1.063828e+004
1.021665e+002, 1.039033e+004
1.026486e+002, 1.011621e+004
1.031307e+002, 9.841839e+003
1.036128e+002, 9.589945e+003
1.040950e+002, 9.358424e+003
1.045771e+002, 9.147904e+003
1.050592e+002, 8.956061e+003
1.055413e+002, 8.781383e+003
1.060234e+002, 8.628102e+003
1.065055e+002, 8.498381e+003
1.069877e+002, 8.390392e+003
1.074698e+002, 8.299313e+003
1.079519e+002, 8.242218e+003
1.084340e+002, 8.180345e+003
1.089161e+002, 8.101434e+003
1.093982e+002, 8.005305e+003
1.098804e+002, 7.893862e+003
1.103625e+002, 7.760935e+003
1.108446e+002, 7.596354e+003
1.113267e+002, 7.466996e+003
1.118088e+002, 7.388269e+003
1.122909e+002, 7.327884e+003
1.127731e+002, 7.275354e+003
1.132552e+002, 7.227370e+003
1.137373e+002, 7.183005e+003
1.142194e+002, 7.141465e+003
1.147015e+002, 7.102197e+003
1.151836e+002, 7.066967e+003
1.156658e+002, 7.040557e+003
1.161479e+002, 7.015701e+003
1.166300e+002, 6.985399e+003
1.171121e+002, 6.947026e+003
1.175942e+002, 6.902589e+003
1.180763e+002, 6.855943e+003
1.185584e+002, 6.805146e+003
1.190406e+002, 6.756319e+003
1.195227e+002, 6.710396e+003
1.200048e+002, 6.667691e+003
1.204869e+002, 6.628681e+003
1.209690e+002, 6.593556e+003
1.214511e+002, 6.563243e+003
1.219333e+002, 6.537614e+003
1.224154e+002, 6.517972e+003
1.228975e+002, 6.500618e+003
1.233796e+002, 6.483811e+003
1.238617e+002, 6.467853e+003
1.243438e+002, 6.449213e+003
1.248260e+002, 6.432399e+003
1.253081e+002, 6.409710e+003
1.257902e+002, 6.370271e+003
1.262723e+002, 6.306214e+003
1.267544e+002, 6.228832e+003
1.272365e+002, 6.164030e+003
1.277187e+002, 6.115775e+003
1.282008e+002, 6.074753e+003
1.286829e+002, 6.039442e+003
1.291650e+002, 6.007731e+003
1.296471e+002, 5.978028e+003
1.301292e+002, 5.950413e+003
1.306114e+002, 5.924164e+003
1.310935e+002, 5.888191e+003
1.315756e+002, 5.829293e+003
1.320577e+002, 5.772600e+003
1.325398e+002, 5.724931e+003
1.330219e+002, 5.684849e+003
1.335041e+002, 5.647318e+003
1.339862e+002, 5.607385e+003
1.344683e+002, 5.563507e+003
1.349504e+002, 5.527981e+003
1.354325e+002, 5.502989e+003
1.359146e+002, 5.482626e+003
1.363968e+002, 5.464547e+003
1.368789e+002, 5.448149e+003
1.373610e+002, 5.433059e+003
1.378431e+002, 5.419448e+003
1.383252e+002, 5.407739e+003
1.388073e+002, 5.394616e+003
1.392895e+002, 5.378708e+003
1.397716e+002, 5.361695e+003
1.402537e+002, 5.348128e+003
1.407358e+002, 5.341088e+003
1.412179e+002, 5.329452e+003
1.417000e+002, 5.296509e+003
1.421821e+002, 5.244775e+003
1.426643e+002, 5.187405e+003
1.431464e+002, 5.124614e+003
1.436285e+002, 5.059284e+003
1.441106e+002, 5.001578e+003
1.445927e+002, 4.955417e+003
1.450748e+002, 4.916728e+003
1.455570e+002, 4.878808e+003
1.460391e+002, 4.841777e+003
1.465212e+002, 4.811561e+003
1.470033e+002, 4.796231e+003
1.474854e+002, 4.797554e+003
1.479675e+002, 4.796271e+003
1.484497e+002, 4.787095e+003
1.489318e+002, 4.775094e+003
1.494139e+002, 4.763030e+003
1.498960e+002, 4.751458e+003
1.503781e+002, 4.738465e+003
1.508602e+002, 4.720307e+003
1.513424e+002, 4.691924e+003
1.518245e+002, 4.669376e+003
1.523066e+002, 4.660604e+003
1.527887e+002, 4.653493e+003
1.532708e+002, 4.637478e+003
1.537529e+002, 4.608862e+003
1.542351e+002, 4.572667e+003
1.547172e+002, 4.541410e+003
1.551993e+002, 4.518717e+003
1.556814e+002, 4.497546e+003
1.561635e+002, 4.483391e+003
1.566456e+002, 4.468863e+003
1.571278e+002, 4.443354e+003
1.576099e+002, 4.400886e+003
1.580920e+002, 4.346907e+003
1.585741e+002, 4.304933e+003
1.590562e+002, 4.282846e+003
1.595383e+002, 4.261831e+003
1.600205e+002, 4.238155e+003
1.605026e+002, 4.212345e+003
1.609847e+002, 4.185322e+003
1.614668e+002, 4.157011e+003
1.619489e+002, 4.128507e+003
1.624310e+002, 4.104542e+003
1.629131e+002, 4.089631e+003
1.633953e+002, 4.074674e+003
1.638774e+002, 4.053388e+003
1.643595e+002, 4.026412e+003
1.648416e+002, 4.000507e+003
1.653237e+002, 3.980563e+003
1.658058e+002, 3.964548e+003
1.662880e+002, 3.947312e+003
1.667701e+002, 3.926723e+003
1.672522e+002, 3.905865e+003
1.677343e+002, 3.888849e+003
1.682164e+002, 3.876500e+003
1.686985e+002, 3.864212e+003
1.691807e+002, 3.847459e+003
1.696628e+002, 3.829626e+003
1.701449e+002, 3.814880e+003
1.706270e+002, 3.804738e+003
1.711091e+002, 3.798729e+003
1.715912e+002, 3.797398e+003
1.720734e+002, 3.806618e+003
1.725555e+002, 3.809176e+003
1.730376e+002, 3.796724e+003
1.735197e+002, 3.775020e+003
1.740018e+002, 3.751185e+003
1.744839e+002, 3.727771e+003
1.749661e+002, 3.705898e+003
1.754482e+002, 3.693162e+003
1.759303e+002, 3.698805e+003
1.764124e+002, 3.703972e+003
1.768945e+002, 3.702866e+003
1.773766e+002, 3.697721e+003
1.778588e+002, 3.692631e+003
1.783409e+002, 3.690198e+003
1.788230e+002, 3.690414e+003
1.793051e+002, 3.695060e+003
1.797872e+002, 3.706148e+003
1.802693e+002, 3.719600e+003
1.807515e+002, 3.736538e+003
1.812336e+002, 3.755224e+003
1.817157e+002, 3.771375e+003
1.821978e+002, 3.780500e+003
1.826799e+002, 3.780975e+003
1.831620e+002, 3.791175e+003
1.836441e+002, 3.814060e+003
1.841263e+002, 3.841456e+003
1.846084e+002, 3.870740e+003
1.850905e+002, 3.901149e+003
1.855726e+002, 3.931479e+003
1.860547e+002, 3.959459e+003
1.865368e+002, 3.984344e+003
1.870190e+002, 4.018565e+003
1.875011e+002, 4.068583e+003
1.879832e+002, 4.122604e+003
1.884653e+002, 4.169827e+003
1.889474e+002, 4.209341e+003
1.894296e+002, 4.251923e+003
1.899117e+002, 4.307497e+003
1.903938e+002, 4.376323e+003
1.908759e+002, 4.454499e+003
1.913580e+002, 4.544181e+003
1.918401e+002, 4.641576e+003
1.923223e+002, 4.743571e+003
1.928044e+002, 4.850316e+003
1.932865e+002, 4.960117e+003
1.937686e+002, 5.076127e+003
1.942507e+002, 5.195550e+003
1.947328e+002, 5.306901e+003
1.952150e+002, 5.409696e+003
1.956971e+002, 5.501925e+003
1.961792e+002, 5.581795e+003
1.966613e+002, 5.652394e+003
1.971434e+002, 5.701599e+003
1.976255e+002, 5.722376e+003
1.981077e+002, 5.718078e+003
1.985898e+002, 5.692290e+003
1.990719e+002, 5.643833e+003
1.995540e+002, 5.574501e+003
2.000361e+002, 5.492075e+003
2.005182e+002, 5.392978e+003
2.010004e+002, 5.283861e+003
2.014825e+002, 5.166620e+003
2.019646e+002, 5.043752e+003
2.024467e+002, 4.922351e+003
2.029288e+002, 4.806816e+003
2.034109e+002, 4.696831e+003
2.038930e+002, 4.590585e+003
2.043752e+002, 4.486916e+003
2.048573e+002, 4.389679e+003
2.053394e+002, 4.301583e+003
2.058215e+002, 4.221524e+003
2.063036e+002, 4.146059e+003
2.067857e+002, 4.072785e+003
2.072679e+002, 4.001574e+003
2.077500e+002, 3.935198e+003
2.082321e+002, 3.870757e+003
2.087142e+002, 3.814225e+003
2.091963e+002, 3.771146e+003
2.096784e+002, 3.738677e+003
2.101606e+002, 3.709546e+003
2.106427e+002, 3.677233e+003
2.111248e+002, 3.641277e+003
2.116069e+002, 3.607904e+003
2.120890e+002, 3.580721e+003
2.125711e+002, 3.552603e+003
2.130533e+002, 3.518667e+003
2.135354e+002, 3.480626e+003
2.140175e+002, 3.444030e+003
2.144996e+002, 3.414275e+003
2.149817e+002, 3.392521e+003
2.154638e+002, 3.369588e+003
2.159460e+002, 3.341561e+003
2.164281e+002, 3.315945e+003
2.169102e+002, 3.297619e+003
2.173923e+002, 3.285795e+003
2.178744e+002, 3.275268e+003
2.183565e+002, 3.261197e+003
2.188387e+002, 3.242909e+003
2.193208e+002, 3.227866e+003
2.198029e+002, 3.220057e+003
2.202850e+002, 3.211808e+003
2.207671e+002, 3.196187e+003
2.212492e+002, 3.174036e+003
2.217314e+002, 3.154044e+003
2.222135e+002, 3.144539e+003
2.226956e+002, 3.146408e+003
2.231777e+002, 3.144193e+003
2.236598e+002, 3.135175e+003
2.241419e+002, 3.124141e+003
2.246240e+002, 3.114427e+003
2.251062e+002, 3.106227e+003
2.255883e+002, 3.098433e+003
2.260704e+002, 3.090207e+003
2.265525e+002, 3.081631e+003
2.270346e+002, 3.073192e+003
2.275167e+002, 3.062075e+003
2.279989e+002, 3.052908e+003
2.284810e+002, 3.051992e+003
2.289631e+002, 3.059879e+003
2.294452e+002, 3.067409e+003
2.299273e+002, 3.067353e+003
2.304094e+002, 3.061684e+003
2.308916e+002, 3.055958e+003
2.313737e+002, 3.048874e+003
2.318558e+002, 3.043327e+003
2.323379e+002, 3.044579e+003
2.328200e+002, 3.053914e+003
2.333021e+002, 3.061006e+003
2.337843e+002, 3.057197e+003
2.342664e+002, 3.047130e+003
2.347485e+002, 3.037378e+003
2.352306e+002, 3.029654e+003
2.357127e+002, 3.022872e+003
2.361948e+002, 3.016126e+003
2.366770e+002, 3.009879e+003
2.371591e+002, 3.001510e+003
2.376412e+002, 2.987495e+003
2.381233e+002, 2.971222e+003
2.386054e+002, 2.956553e+003
2.390875e+002, 2.945691e+003
2.395697e+002, 2.935446e+003
2.400518e+002, 2.919871e+003
2.405339e+002, 2.896672e+003
2.410160e+002, 2.875322e+003
2.414981e+002, 2.857964e+003
2.419802e+002, 2.844729e+003
2.424624e+002, 2.837069e+003
2.429445e+002, 2.836301e+003
2.434266e+002, 2.838827e+003
2.439087e+002, 2.839447e+003
2.443908e+002, 2.839388e+003
2.448729e+002, 2.833666e+003
2.453550e+002, 2.814599e+003
2.458372e+002, 2.792992e+003
2.463193e+002, 2.778789e+003
2.468014e+002, 2.775575e+003
2.472835e+002, 2.777694e+003
2.477656e+002, 2.775743e+003
2.482477e+002, 2.769149e+003
2.487299e+002, 2.759416e+003
2.492120e+002, 2.744678e+003
2.496941e+002, 2.728648e+003
2.501762e+002, 2.714115e+003
2.506583e+002, 2.701909e+003
2.511404e+002, 2.691075e+003
2.516226e+002, 2.680707e+003
2.521047e+002, 2.673629e+003
2.525868e+002, 2.660258e+003
2.530689e+002, 2.634800e+003
2.535510e+002, 2.607097e+003
2.540331e+002, 2.583405e+003
2.545153e+002, 2.565552e+003
2.549974e+002, 2.551848e+003
2.554795e+002, 2.540959e+003
2.559616e+002, 2.538568e+003
2.564437e+002, 2.526040e+003
2.569258e+002, 2.495042e+003
2.574080e+002, 2.461636e+003
2.578901e+002, 2.436175e+003
2.583722e+002, 2.420554e+003
2.588543e+002, 2.409653e+003
2.593364e+002, 2.396568e+003
2.598185e+002, 2.379541e+003
2.603007e+002, 2.364851e+003
2.607828e+002, 2.350853e+003
2.612649e+002, 2.339701e+003
2.617470e+002, 2.334597e+003
2.622291e+002, 2.334773e+003
2.627112e+002, 2.335449e+003
2.631934e+002, 2.331150e+003
2.636755e+002, 2.320815e+003
2.641576e+002, 2.308769e+003
2.646397e+002, 2.295792e+003
2.651218e+002, 2.280907e+003
2.656039e+002, 2.262284e+003
2.660861e+002, 2.240763e+003
2.665682e+002, 2.219717e+003
2.670503e+002, 2.202855e+003
2.675324e+002, 2.191487e+003
2.680145e+002, 2.175883e+003
2.684966e+002, 2.152902e+003
2.689788e+002, 2.129476e+003
2.694609e+002, 2.109216e+003
2.699430e+002, 2.091789e+003
2.704251e+002, 2.074942e+003
2.709072e+002, 2.057007e+003
2.713893e+002, 2.038115e+003
2.718715e+002, 2.017058e+003
2.723536e+002, 1.990537e+003
2.728357e+002, 1.965576e+003
2.733178e+002, 1.944094e+003
2.737999e+002, 1.926538e+003
2.742820e+002, 1.914157e+003
2.747642e+002, 1.908592e+003
2.752463e+002, 1.909004e+003
2.757284e+002, 1.904969e+003
2.762105e+002, 1.895531e+003
2.766926e+002, 1.883922e+003
2.771747e+002, 1.869032e+003
2.776568e+002, 1.852685e+003
2.781389e+002, 1.838898e+003
2.786211e+002, 1.830039e+003
2.791032e+002, 1.825102e+003
2.795853e+002, 1.819871e+003
2.800674e+002, 1.812295e+003
2.805495e+002, 1.806807e+003
2.810316e+002, 1.807301e+003
2.815138e+002, 1.810318e+003
2.819959e+002, 1.809043e+003
2.824780e+002, 1.800053e+003
2.829601e+002, 1.786766e+003
2.834422e+002, 1.778323e+003
2.839243e+002, 1.777121e+003
2.844065e+002, 1.775298e+003
2.848886e+002, 1.770389e+003
2.853707e+002, 1.764146e+003
2.858528e+002, 1.758985e+003
2.863349e+002, 1.755656e+003
2.868170e+002, 1.753840e+003
2.872992e+002, 1.753150e+003
2.877813e+002, 1.753631e+003
2.882634e+002, 1.754896e+003
2.887455e+002, 1.756881e+003
2.892276e+002, 1.759630e+003
2.897097e+002, 1.763666e+003
2.901919e+002, 1.769178e+003
2.906740e+002, 1.774529e+003
2.911561e+002, 1.777644e+003
2.916382e+002, 1.778249e+003
2.921203e+002, 1.778444e+003
2.926024e+002, 1.779729e+003
2.930846e+002, 1.779952e+003
2.935667e+002, 1.774373e+003
2.940488e+002, 1.762621e+003
2.945309e+002, 1.754521e+003
2.950130e+002, 1.761198e+003
2.954951e+002, 1.782940e+003
2.959773e+002, 1.798337e+003
2.964594e+002, 1.803222e+003
2.969415e+002, 1.803984e+003
2.974236e+002, 1.804752e+003
2.979057e+002, 1.805816e+003
2.983878e+002, 1.807025e+003
2.988700e+002, 1.808513e+003
2.993521e+002, 1.810021e+003
2.998342e+002, 1.810392e+003
3.003163e+002, 1.806739e+003
3.007984e+002, 1.804558e+003
3.012805e+002, 1.811011e+003
3.017627e+002, 1.823254e+003
3.022448e+002, 1.827349e+003
3.027269e+002, 1.812964e+003
3.032090e+002, 1.787574e+003
3.036911e+002, 1.774062e+003
3.041732e+002, 1.777727e+003
3.046554e+002, 1.783088e+003
3.051375e+002, 1.783591e+003
3.056196e+002, 1.780572e+003
3.061017e+002, 1.777437e+003
3.065838e+002, 1.775488e+003
3.070659e+002, 1.773981e+003
3.075481e+002, 1.771140e+003
3.080302e+002, 1.766279e+003
3.085123e+002, 1.762839e+003
3.089944e+002, 1.761215e+003
3.094765e+002, 1.761873e+003
3.099586e+002, 1.765732e+003
3.104408e+002, 1.773072e+003
3.109229e+002, 1.783366e+003
3.114050e+002, 1.796432e+003
3.118871e+002, 1.812195e+003
3.123692e+002, 1.829325e+003
3.128513e+002, 1.849910e+003
3.133335e+002, 1.870628e+003
3.138156e+002, 1.886117e+003
3.142977e+002, 1.895311e+003
3.147798e+002, 1.905630e+003
3.152619e+002, 1.925523e+003
3.157440e+002, 1.954271e+003
3.162262e+002, 1.978625e+003
3.167083e+002, 1.992481e+003
3.171904e+002, 2.005118e+003
3.176725e+002, 2.026816e+003
3.181546e+002, 2.056972e+003
3.186367e+002, 2.082769e+003
3.191188e+002, 2.094337e+003
3.196010e+002, 2.094275e+003
3.200831e+002, 2.098257e+003
3.205652e+002, 2.112223e+003
3.210473e+002, 2.124268e+003
3.215294e+002, 2.127939e+003
3.220115e+002, 2.124273e+003
3.224937e+002, 2.117174e+003
3.229758e+002, 2.108913e+003
3.234579e+002, 2.097621e+003
3.239400e+002, 2.078336e+003
3.244221e+002, 2.047938e+003
3.249042e+002, 2.017884e+003
3.253864e+002, 1.993550e+003
3.258685e+002, 1.972092e+003
3.263506e+002, 1.946998e+003
3.268327e+002, 1.915418e+003
3.273148e+002, 1.882594e+003
3.277969e+002, 1.857745e+003
3.282791e+002, 1.842384e+003
3.287612e+002, 1.824524e+003
3.292433e+002, 1.799238e+003
3.297254e+002, 1.771661e+003
3.302075e+002, 1.747280e+003
3.306896e+002, 1.727039e+003
3.311718e+002, 1.710099e+003
3.316539e+002, 1.695884e+003
3.321360e+002, 1.684702e+003
3.326181e+002, 1.674948e+003
3.331002e+002, 1.669157e+003
3.335823e+002, 1.662887e+003
3.340645e+002, 1.651229e+003
3.345466e+002, 1.635008e+003
3.350287e+002, 1.620396e+003
3.355108e+002, 1.611570e+003
3.359929e+002, 1.608287e+003
3.364750e+002, 1.607198e+003
3.369572e+002, 1.613761e+003
3.374393e+002, 1.616599e+003
3.379214e+002, 1.608309e+003
3.384035e+002, 1.592530e+003
3.388856e+002, 1.577911e+003
3.393677e+002, 1.568420e+003
3.398499e+002, 1.562590e+003
3.403320e+002, 1.556693e+003
3.408141e+002, 1.550021e+003
3.412962e+002, 1.544522e+003
3.417783e+002, 1.541374e+003
3.422604e+002, 1.539307e+003
3.427426e+002, 1.536354e+003
3.432247e+002, 1.531961e+003
3.437068e+002, 1.527857e+003
3.441889e+002, 1.526796e+003
3.446710e+002, 1.530799e+003
3.451531e+002, 1.531789e+003
3.456353e+002, 1.528174e+003
3.461174e+002, 1.522610e+003
3.465995e+002, 1.514586e+003
3.470816e+002, 1.505376e+003
3.475637e+002, 1.501219e+003
3.480458e+002, 1.509329e+003
3.485280e+002, 1.530721e+003
3.490101e+002, 1.541076e+003
3.494922e+002, 1.531549e+003
3.499743e+002, 1.521900e+003
3.504564e+002, 1.521157e+003
3.509385e+002, 1.526987e+003
3.514207e+002, 1.532933e+003
3.519028e+002, 1.535227e+003
3.523849e+002, 1.534776e+003
3.528670e+002, 1.535457e+003
3.533491e+002, 1.537091e+003
3.538312e+002, 1.540071e+003
3.543134e+002, 1.547293e+003
3.547955e+002, 1.554775e+003
3.552776e+002, 1.556519e+003
3.557597e+002, 1.550661e+003
3.562418e+002, 1.542604e+003
3.567239e+002, 1.541625e+003
3.572061e+002, 1.551939e+003
3.576882e+002, 1.561287e+003
3.581703e+002, 1.571083e+003
3.586524e+002, 1.578992e+003
3.591345e+002, 1.583358e+003
3.596166e+002, 1.584103e+003
3.600987e+002, 1.581950e+003
3.605808e+002, 1.577223e+003
3.610630e+002, 1.569473e+003
3.615451e+002, 1.563440e+003
3.620272e+002, 1.559189e+003
3.625093e+002, 1.556438e+003
3.629914e+002, 1.556640e+003
3.634735e+002, 1.558163e+003
3.639557e+002, 1.558049e+003
3.644378e+002, 1.554414e+003
3.649199e+002, 1.548048e+003
3.654020e+002, 1.542121e+003
3.658841e+002, 1.534393e+003
3.663662e+002, 1.530588e+003
3.668484e+002, 1.535957e+003
3.673305e+002, 1.543048e+003
3.678126e+002, 1.543989e+003
3.682947e+002, 1.536470e+003
3.687768e+002, 1.525054e+003
3.692589e+002, 1.516457e+003
3.697411e+002, 1.511064e+003
3.702232e+002, 1.507678e+003
3.707053e+002, 1.510430e+003
3.711874e+002, 1.511569e+003
3.716695e+002, 1.505500e+003
3.721516e+002, 1.493262e+003
3.726338e+002, 1.480653e+003
3.731159e+002, 1.473059e+003
3.735980e+002, 1.470305e+003
3.740801e+002, 1.466279e+003
3.745622e+002, 1.461408e+003
3.750443e+002, 1.454443e+003
3.755265e+002, 1.444880e+003
3.760086e+002, 1.433148e+003
3.764907e+002, 1.419213e+003
3.769728e+002, 1.402090e+003
3.774549e+002, 1.384869e+003
3.779370e+002, 1.375162e+003
3.784192e+002, 1.375730e+003
3.789013e+002, 1.376055e+003
3.793834e+002, 1.375092e+003
3.798655e+002, 1.371669e+003
3.803476e+002, 1.363165e+003
3.808297e+002, 1.349182e+003
3.813119e+002, 1.335533e+003
3.817940e+002, 1.329174e+003
3.822761e+002, 1.329913e+003
3.827582e+002, 1.328766e+003
3.832403e+002, 1.323951e+003
3.837224e+002, 1.317632e+003
3.842046e+002, 1.310934e+003
3.846867e+002, 1.304058e+003
3.851688e+002, 1.297468e+003
3.856509e+002, 1.292156e+003
3.861330e+002, 1.287238e+003
3.866151e+002, 1.279994e+003
3.870973e+002, 1.269445e+003
3.875794e+002, 1.260196e+003
3.880615e+002, 1.257426e+003
3.885436e+002, 1.256886e+003
3.890257e+002, 1.251669e+003
3.895078e+002, 1.237297e+003
3.899900e+002, 1.223802e+003
3.904721e+002, 1.222828e+003
3.909542e+002, 1.232440e+003
3.914363e+002, 1.237078e+003
3.919184e+002, 1.229946e+003
3.924005e+002, 1.217684e+003
3.928827e+002, 1.209601e+003
3.933648e+002, 1.205906e+003
3.938469e+002, 1.202357e+003
3.943290e+002, 1.195626e+003
3.948111e+002, 1.188576e+003
3.952932e+002, 1.187468e+003
3.957754e+002, 1.193841e+003
3.962575e+002, 1.199030e+003
3.967396e+002, 1.194297e+003
3.972217e+002, 1.180462e+003
3.977038e+002, 1.169704e+003
3.981859e+002, 1.162559e+003
3.986681e+002, 1.158510e+003
3.991501e+002, 1.158730e+003
3.996323e+002, 1.162091e+003
4.001144e+002, 1.164853e+003
4.005965e+002, 1.165220e+003
4.010786e+002, 1.163660e+003
4.015607e+002, 1.161269e+003
4.020428e+002, 1.156716e+003
4.025250e+002, 1.153733e+003
4.030071e+002, 1.155586e+003
4.034892e+002, 1.158139e+003
4.039713e+002, 1.155422e+003
4.044534e+002, 1.146434e+003
4.049355e+002, 1.136694e+003
4.054177e+002, 1.132832e+003
4.058998e+002, 1.136305e+003
4.063819e+002, 1.138905e+003
4.068640e+002, 1.140259e+003
4.073461e+002, 1.141217e+003
4.078282e+002, 1.142810e+003
4.083104e+002, 1.144389e+003
4.087925e+002, 1.143986e+003
4.092746e+002, 1.140095e+003
4.097567e+002, 1.133905e+003
4.102388e+002, 1.130916e+003
4.107209e+002, 1.135570e+003
4.112031e+002, 1.137730e+003
4.116852e+002, 1.135495e+003
4.121673e+002, 1.131044e+003
4.126494e+002, 1.126019e+003
4.131315e+002, 1.121032e+003
4.136136e+002, 1.116439e+003
4.140958e+002, 1.112935e+003
4.145779e+002, 1.111015e+003
4.150600e+002, 1.108126e+003
4.155421e+002, 1.101719e+003
4.160242e+002, 1.096742e+003
4.165063e+002, 1.095536e+003
4.169885e+002, 1.097382e+003
4.174706e+002, 1.100600e+003
4.179527e+002, 1.104825e+003
4.184348e+002, 1.108992e+003
4.189169e+002, 1.108523e+003
4.193990e+002, 1.099719e+003
4.198812e+002, 1.094599e+003
4.203633e+002, 1.101364e+003
4.208454e+002, 1.110853e+003
4.213275e+002, 1.113981e+003
4.218096e+002, 1.108447e+003
4.222917e+002, 1.100745e+003
4.227739e+002, 1.098593e+003
4.232560e+002, 1.101543e+003
4.237381e+002, 1.099565e+003
4.242202e+002, 1.087484e+003
4.247023e+002, 1.075259e+003
4.251844e+002, 1.071413e+003
4.256666e+002, 1.073954e+003
4.261487e+002, 1.075664e+003
4.266308e+002, 1.069870e+003
4.271129e+002, 1.063162e+003
4.275950e+002, 1.068159e+003
4.280771e+002, 1.085827e+003
4.285593e+002, 1.099377e+003
4.290414e+002, 1.098093e+003
4.295235e+002, 1.087579e+003
4.300056e+002, 1.081290e+003
4.304877e+002, 1.080434e+003
4.309698e+002, 1.081144e+003
4.314520e+002, 1.082917e+003
4.319341e+002, 1.084712e+003
4.324162e+002, 1.083552e+003
4.328983e+002, 1.078269e+003
4.333804e+002, 1.073151e+003
4.338625e+002, 1.073649e+003
4.343447e+002, 1.080713e+003
4.348268e+002, 1.086245e+003
4.353089e+002, 1.089366e+003
4.357910e+002, 1.091406e+003
4.362731e+002, 1.091912e+003
4.367552e+002, 1.091846e+003
4.372374e+002, 1.094602e+003
4.377195e+002, 1.102740e+003
4.382016e+002, 1.113988e+003
4.386837e+002, 1.119500e+003
4.391658e+002, 1.112766e+003
4.396479e+002, 1.108570e+003
4.401301e+002, 1.109788e+003
4.406122e+002, 1.112897e+003
4.410943e+002, 1.114494e+003
4.415764e+002, 1.113963e+003
4.420585e+002, 1.113198e+003
4.425406e+002, 1.114859e+003
4.430227e+002, 1.119908e+003
4.435049e+002, 1.120385e+003
4.439870e+002, 1.110557e+003
4.444691e+002, 1.102066e+003
4.449512e+002, 1.098370e+003
4.454333e+002, 1.098484e+003
4.459154e+002, 1.100917e+003
4.463976e+002, 1.105212e+003
4.468797e+002, 1.109873e+003
4.473618e+002, 1.111626e+003
4.478439e+002, 1.110132e+003
4.483260e+002, 1.106683e+003
4.488081e+002, 1.098595e+003
4.492903e+002, 1.090726e+003
4.497724e+002, 1.085861e+003
4.502545e+002, 1.084267e+003
4.507366e+002, 1.085001e+003
4.512187e+002, 1.089057e+003
4.517008e+002, 1.095184e+003
4.521830e+002, 1.097883e+003
4.526651e+002, 1.096575e+003
4.531472e+002, 1.092990e+003
4.536293e+002, 1.086642e+003
4.541114e+002, 1.078992e+003
4.545935e+002, 1.072047e+003
4.550757e+002, 1.066361e+003
4.555578e+002, 1.061243e+003
4.560399e+002, 1.055542e+003
4.565220e+002, 1.049749e+003
4.570041e+002, 1.045953e+003
4.574862e+002, 1.044880e+003
4.579684e+002, 1.045740e+003
4.584505e+002, 1.048598e+003
4.589326e+002, 1.053540e+003
4.594147e+002, 1.056057e+003
4.598968e+002, 1.054426e+003
4.603789e+002, 1.050701e+003
4.608611e+002, 1.045476e+003
4.613432e+002, 1.039406e+003
4.618253e+002, 1.035134e+003
4.623074e+002, 1.034564e+003
4.627895e+002, 1.036724e+003
4.632716e+002, 1.037542e+003
4.637538e+002, 1.035052e+003
4.642359e+002, 1.033888e+003
4.647180e+002, 1.035704e+003
4.652001e+002, 1.038475e+003
4.656822e+002, 1.040946e+003
4.661643e+002, 1.042483e+003
4.666465e+002, 1.041455e+003
4.671286e+002, 1.035236e+003
4.676107e+002, 1.022600e+003
4.680928e+002, 1.016215e+003
4.685749e+002, 1.021775e+003
4.690570e+002, 1.027614e+003
4.695392e+002, 1.030837e+003
4.700213e+002, 1.032332e+003
4.705034e+002, 1.033919e+003
4.709855e+002, 1.036446e+003
4.714676e+002, 1.038674e+003
4.719497e+002, 1.037462e+003
4.724319e+002, 1.031180e+003
4.729140e+002, 1.028715e+003
4.733961e+002, 1.036343e+003
4.738782e+002, 1.043893e+003
4.743603e+002, 1.043818e+003
4.748424e+002, 1.037888e+003
4.753246e+002, 1.034452e+003
4.758067e+002, 1.040834e+003
4.762888e+002, 1.052206e+003
4.767709e+002, 1.058194e+003
4.772530e+002, 1.058354e+003
4.777351e+002, 1.055517e+003
4.782173e+002, 1.047858e+003
4.786994e+002, 1.039703e+003
4.791815e+002, 1.038261e+003
4.796636e+002, 1.045556e+003
4.801457e+002, 1.053139e+003
4.806278e+002, 1.057035e+003
4.811100e+002, 1.058299e+003
4.815920e+002, 1.058250e+003
4.820742e+002, 1.057023e+003
4.825563e+002, 1.056493e+003
4.830384e+002, 1.058838e+003
4.835205e+002, 1.063944e+003
4.840026e+002, 1.066610e+003
4.844847e+002, 1.066764e+003
4.849669e+002, 1.064744e+003
4.854490e+002, 1.057809e+003
4.859311e+002, 1.049381e+003
4.864132e+002, 1.045929e+003
4.868953e+002, 1.049809e+003
4.873774e+002, 1.057096e+003
4.878596e+002, 1.061457e+003
4.883417e+002, 1.062355e+003
4.888238e+002, 1.061665e+003
4.893059e+002, 1.058068e+003
4.897880e+002, 1.054426e+003
4.902701e+002, 1.051014e+003
4.907523e+002, 1.048731e+003
4.912344e+002, 1.049854e+003
4.917165e+002, 1.056460e+003
4.921986e+002, 1.065353e+003
4.926807e+002, 1.066983e+003
4.931628e+002, 1.058159e+003
4.936450e+002, 1.050896e+003
4.941271e+002, 1.047798e+003
4.946092e+002, 1.047091e+003
4.950913e+002, 1.048820e+003
4.955734e+002, 1.052477e+003
4.960555e+002, 1.055326e+003
4.965377e+002, 1.054446e+003
4.970198e+002, 1.051393e+003
4.975019e+002, 1.050811e+003
4.979840e+002, 1.053372e+003
4.984661e+002, 1.055663e+003
4.989482e+002, 1.055965e+003
4.994304e+002, 1.054690e+003
4.999125e+002, 1.052687e+003
5.003946e+002, 1.049775e+003
5.008767e+002, 1.046676e+003
5.013588e+002, 1.044514e+003
5.018409e+002, 1.042191e+003
5.023231e+002, 1.036705e+003
5.028052e+002, 1.027400e+003
5.032873e+002, 1.018837e+003
5.037694e+002, 1.015535e+003
5.042515e+002, 1.017713e+003
5.047336e+002, 1.019724e+003
5.052158e+002, 1.022302e+003
5.056979e+002, 1.023926e+003
5.061800e+002, 1.024335e+003
5.066621e+002, 1.023359e+003
5.071442e+002, 1.020176e+003
5.076263e+002, 1.014620e+003
5.081085e+002, 1.008587e+003
5.085906e+002, 1.005125e+003
5.090727e+002, 1.004981e+003
5.095548e+002, 1.004689e+003
5.100369e+002, 1.004664e+003
5.105190e+002, 1.004064e+003
5.110012e+002, 1.002279e+003
5.114833e+002, 9.997085e+002
5.119654e+002, 9.968132e+002
5.124475e+002, 9.935124e+002
5.129296e+002, 9.910189e+002
5.134117e+002, 9.931202e+002
5.138939e+002, 1.001118e+003
5.143760e+002, 1.003478e+003
5.148581e+002, 9.942523e+002
5.153402e+002, 9.818621e+002
5.158223e+002, 9.731727e+002
5.163044e+002, 9.678384e+002
5.167866e+002, 9.629553e+002
5.172687e+002, 9.570133e+002
5.177508e+002, 9.510062e+002
5.182329e+002, 9.468270e+002
5.187150e+002, 9.442703e+002
5.191971e+002, 9.402257e+002
5.196793e+002, 9.327425e+002
5.201614e+002, 9.234572e+002
5.206435e+002, 9.159785e+002
5.211256e+002, 9.098273e+002
5.216077e+002, 9.061374e+002
5.220898e+002, 9.083265e+002
5.225720e+002, 9.108248e+002
5.230541e+002, 9.080459e+002
5.235362e+002, 9.003726e+002
5.240183e+002, 8.921115e+002
5.245004e+002, 8.863138e+002
5.249825e+002, 8.826307e+002
5.254647e+002, 8.791273e+002
5.259468e+002, 8.752540e+002
5.264289e+002, 8.724795e+002
5.269110e+002, 8.719008e+002
5.273931e+002, 8.717248e+002
5.278752e+002, 8.704525e+002
5.283574e+002, 8.679666e+002
5.288395e+002, 8.651748e+002
5.293216e+002, 8.627865e+002
5.298037e+002, 8.607765e+002
5.302858e+002, 8.590814e+002
5.307679e+002, 8.580734e+002
5.312501e+002, 8.565260e+002
5.317322e+002, 8.521681e+002
5.322143e+002, 8.478463e+002
5.326964e+002, 8.473386e+002
5.331785e+002, 8.518561e+002
5.336606e+002, 8.555823e+002
5.341428e+002, 8.541465e+002
5.346249e+002, 8.493250e+002
5.351070e+002, 8.442679e+002
5.355891e+002, 8.392281e+002
5.360712e+002, 8.358779e+002
5.365533e+002, 8.356227e+002
5.370355e+002, 8.382504e+002
5.375176e+002, 8.418162e+002
5.379997e+002, 8.487677e+002
5.384818e+002, 8.536107e+002
5.389639e+002, 8.539044e+002
5.394460e+002, 8.516658e+002
5.399282e+002, 8.498751e+002
5.404103e+002, 8.489279e+002
5.408924e+002, 8.458344e+002
5.413745e+002, 8.361729e+002
5.418566e+002, 8.194451e+002
5.423387e+002, 8.135775e+002
5.428209e+002, 8.325341e+002
5.433029e+002, 8.459669e+002
5.437850e+002, 8.444347e+002
5.442672e+002, 8.358987e+002
5.447493e+002, 8.289102e+002
5.452314e+002, 8.258759e+002
5.457135e+002, 8.247622e+002
5.461956e+002, 8.235634e+002
5.466777e+002, 8.223376e+002
5.471599e+002, 8.218484e+002
5.476420e+002, 8.222358e+002
5.481241e+002, 8.231471e+002
5.486062e+002, 8.253421e+002
5.490883e+002, 8.277100e+002
5.495704e+002, 8.282119e+002
5.500526e+002, 8.258201e+002
5.505347e+002, 8.230063e+002
5.510168e+002, 8.213496e+002
5.514989e+002, 8.203746e+002
5.519810e+002, 8.191063e+002
5.524631e+002, 8.173405e+002
5.529453e+002, 8.152262e+002
5.534274e+002, 8.125665e+002
5.539095e+002, 8.093558e+002
5.543916e+002, 8.085968e+002
5.548737e+002, 8.126387e+002
5.553558e+002, 8.159279e+002
5.558380e+002, 8.164728e+002
5.563201e+002, 8.156468e+002
5.568022e+002, 8.146932e+002
5.572843e+002, 8.141483e+002
5.577664e+002, 8.148375e+002
5.582485e+002, 8.185876e+002
5.587307e+002, 8.256530e+002
5.592128e+002, 8.279103e+002
5.596949e+002, 8.219305e+002
5.601770e+002, 8.158939e+002
5.606591e+002, 8.126844e+002
5.611412e+002, 8.109083e+002
5.616234e+002, 8.083716e+002
5.621055e+002, 8.043295e+002
5.625876e+002, 8.018395e+002
5.630697e+002, 8.044908e+002
5.635518e+002, 8.109064e+002
5.640339e+002, 8.175539e+002
5.645161e+002, 8.248916e+002
5.649982e+002, 8.277666e+002
5.654803e+002, 8.196837e+002
5.659624e+002, 8.040074e+002
5.664445e+002, 7.960666e+002
5.669266e+002, 8.022609e+002
5.674088e+002, 8.070178e+002
5.678909e+002, 8.021422e+002
5.683730e+002, 7.942720e+002
5.688551e+002, 7.929146e+002
5.693372e+002, 7.990519e+002
5.698193e+002, 8.053990e+002
5.703015e+002, 8.048839e+002
5.707836e+002, 7.979482e+002
5.712657e+002, 7.931215e+002
5.717478e+002, 7.896708e+002
5.722299e+002, 7.896039e+002
5.727120e+002, 7.967166e+002
5.731942e+002, 8.050098e+002
5.736763e+002, 8.095622e+002
5.741584e+002, 8.093690e+002
5.746405e+002, 8.054660e+002
5.751226e+002, 7.965582e+002
5.756047e+002, 7.844103e+002
5.760869e+002, 7.765177e+002
5.765690e+002, 7.733956e+002
5.770511e+002, 7.724152e+002
5.775332e+002, 7.727704e+002
5.780153e+002, 7.744542e+002
5.784974e+002, 7.781989e+002
5.789796e+002, 7.852766e+002
5.794617e+002, 7.886830e+002
5.799438e+002, 7.825352e+002
5.804259e+002, 7.732658e+002
5.809080e+002, 7.683089e+002
5.813901e+002, 7.678673e+002
5.818723e+002, 7.680358e+002
5.823544e+002, 7.662524e+002
5.828365e+002, 7.634689e+002
5.833186e+002, 7.629584e+002
5.838007e+002, 7.671028e+002
5.842828e+002, 7.699476e+002
5.847650e+002, 7.718014e+002
5.852471e+002, 7.720927e+002
5.857292e+002, 7.692582e+002
5.862113e+002, 7.644112e+002
5.866934e+002, 7.607588e+002
5.871755e+002, 7.605250e+002
5.876577e+002, 7.623226e+002
5.881398e+002, 7.629512e+002
5.886219e+002, 7.621936e+002
5.891040e+002, 7.617303e+002
5.895861e+002, 7.618994e+002
5.900682e+002, 7.625814e+002
5.905504e+002, 7.644764e+002
5.910325e+002, 7.671508e+002
5.915146e+002, 7.675993e+002
5.919967e+002, 7.618311e+002
5.924788e+002, 7.560706e+002
5.929609e+002, 7.565875e+002
5.934431e+002, 7.615938e+002
5.939252e+002, 7.659234e+002
5.944073e+002, 7.677780e+002
5.948894e+002, 7.674534e+002
5.953715e+002, 7.648898e+002
5.958536e+002, 7.588499e+002
5.963358e+002, 7.562988e+002
5.968179e+002, 7.610421e+002
5.973000e+002, 7.645223e+002
5.977821e+002, 7.627123e+002
5.982642e+002, 7.581272e+002
5.987463e+002, 7.542032e+002
5.992285e+002, 7.521605e+002
5.997106e+002, 7.516628e+002
6.001927e+002, 7.533048e+002
6.006748e+002, 7.569170e+002
6.011569e+002, 7.572050e+002
6.016390e+002, 7.523951e+002
6.021212e+002, 7.475585e+002
6.026033e+002, 7.465468e+002
6.030854e+002, 7.470590e+002
6.035675e+002, 7.454487e+002
6.040496e+002, 7.405634e+002
6.045317e+002, 7.356976e+002
6.050139e+002, 7.316412e+002
6.054960e+002, 7.289886e+002
6.059781e+002, 7.299760e+002
6.064602e+002, 7.342563e+002
6.069423e+002, 7.364390e+002
6.074244e+002, 7.319095e+002
6.079066e+002, 7.229648e+002
6.083887e+002, 7.201170e+002
6.088708e+002, 7.312614e+002
6.093529e+002, 7.372775e+002
6.098350e+002, 7.343748e+002
6.103171e+002, 7.288090e+002
6.107993e+002, 7.243967e+002
6.112814e+002, 7.213980e+002
6.117635e+002, 7.185076e+002
6.122456e+002, 7.146713e+002
6.127277e+002, 7.108178e+002
6.132098e+002, 7.092299e+002
6.136920e+002, 7.101312e+002
6.141741e+002, 7.105350e+002
6.146562e+002, 7.096062e+002
6.151383e+002, 7.080806e+002
6.156204e+002, 7.062077e+002
6.161025e+002, 7.041654e+002
6.165847e+002, 7.033394e+002
6.170668e+002, 7.058950e+002
6.175489e+002, 7.078843e+002
6.180310e+002, 7.057328e+002
6.185131e+002, 7.013682e+002
6.189952e+002, 6.992939e+002
6.194774e+002, 7.007430e+002
6.199595e+002, 7.021519e+002
6.204416e+002, 6.988620e+002
6.209237e+002, 6.903192e+002
6.214058e+002, 6.854023e+002
6.218879e+002, 6.871713e+002
6.223701e+002, 6.889706e+002
6.228522e+002, 6.899013e+002
6.233343e+002, 6.899391e+002
6.238164e+002, 6.885206e+002
6.242985e+002, 6.857637e+002
6.247806e+002, 6.837106e+002
6.252628e+002, 6.850034e+002
6.257448e+002, 6.881330e+002
6.262269e+002, 6.889859e+002
6.267090e+002, 6.873680e+002
6.271912e+002, 6.846292e+002
6.276733e+002, 6.808117e+002
6.281554e+002, 6.767629e+002
6.286375e+002, 6.739621e+002
6.291196e+002, 6.722493e+002
6.296017e+002, 6.719996e+002
6.300839e+002, 6.739638e+002
6.305660e+002, 6.767775e+002
6.310481e+002, 6.799788e+002
6.315302e+002, 6.832183e+002
6.320123e+002, 6.860303e+002
6.324944e+002, 6.881893e+002
6.329766e+002, 6.896456e+002
6.334587e+002, 6.901246e+002
6.339408e+002, 6.893556e+002
6.344229e+002, 6.891385e+002
6.349050e+002, 6.912118e+002
6.353871e+002, 6.914987e+002
6.358693e+002, 6.862180e+002
6.363514e+002, 6.788746e+002
6.368335e+002, 6.755250e+002
6.373156e+002, 6.786576e+002
6.377977e+002, 6.810162e+002
6.382798e+002, 6.753300e+002
6.387620e+002, 6.659727e+002
6.392441e+002, 6.605962e+002
6.397262e+002, 6.601672e+002
6.402083e+002, 6.644023e+002
6.406904e+002, 6.744786e+002
6.411725e+002, 6.875431e+002
6.416547e+002, 6.940280e+002
6.421368e+002, 6.867686e+002
6.426189e+002, 6.832943e+002
6.431010e+002, 6.880666e+002
6.435831e+002, 6.926436e+002
6.440652e+002, 6.896343e+002
6.445474e+002, 6.819641e+002
6.450295e+002, 6.780319e+002
6.455116e+002, 6.825355e+002
6.459937e+002, 6.913760e+002
6.464758e+002, 6.995536e+002
6.469579e+002, 7.070321e+002
6.474401e+002, 7.086581e+002
6.479222e+002, 7.018922e+002
6.484043e+002, 6.928593e+002
6.488864e+002, 6.846412e+002
6.493685e+002, 6.778693e+002
6.498506e+002, 6.749828e+002
6.503328e+002, 6.791822e+002
6.508149e+002, 6.826202e+002
6.512970e+002, 6.813629e+002
6.517791e+002, 6.781635e+002
6.522612e+002, 6.764577e+002
6.527433e+002, 6.764590e+002
6.532255e+002, 6.759551e+002
6.537076e+002, 6.730842e+002
6.541897e+002, 6.689244e+002
6.546718e+002, 6.679628e+002
6.551539e+002, 6.726193e+002
6.556360e+002, 6.745895e+002
6.561182e+002, 6.696599e+002
6.566003e+002, 6.643569e+002
6.570824e+002, 6.628675e+002
6.575645e+002, 6.640333e+002
6.580466e+002, 6.638075e+002
6.585287e+002, 6.599684e+002
6.590109e+002, 6.552858e+002
6.594930e+002, 6.520292e+002
6.599751e+002, 6.500319e+002
6.604572e+002, 6.490626e+002
6.609393e+002, 6.491090e+002
6.614214e+002, 6.491298e+002
6.619036e+002, 6.480980e+002
6.623857e+002, 6.461754e+002
6.628678e+002, 6.451085e+002
6.633499e+002, 6.430531e+002
6.638320e+002, 6.444120e+002
6.643141e+002, 6.533880e+002
6.647963e+002, 6.630137e+002
6.652784e+002, 6.672549e+002
6.657605e+002, 6.667138e+002
6.662426e+002, 6.665424e+002
6.667247e+002, 6.710532e+002
6.672068e+002, 6.758324e+002
6.676890e+002, 6.702637e+002
6.681711e+002, 6.548163e+002
6.686532e+002, 6.466146e+002
6.691353e+002, 6.512502e+002
6.696174e+002, 6.598099e+002
6.700995e+002, 6.649103e+002
6.705817e+002, 6.666145e+002
6.710638e+002, 6.668407e+002
6.715459e+002, 6.654160e+002
6.720280e+002, 6.627623e+002
6.725101e+002, 6.573439e+002
6.729922e+002, 6.517611e+002
6.734744e+002, 6.479991e+002
6.739565e+002, 6.468408e+002
6.744386e+002, 6.498963e+002
6.749207e+002, 6.595784e+002
6.754028e+002, 6.724213e+002
6.758849e+002, 6.764244e+002
6.763671e+002, 6.696196e+002
6.768492e+002, 6.624436e+002
6.773313e+002, 6.547402e+002
6.778134e+002, 6.497481e+002
6.782955e+002, 6.521080e+002
6.787776e+002, 6.594470e+002
6.792598e+002, 6.630875e+002
6.797419e+002, 6.580457e+002
6.802240e+002, 6.527132e+002
6.807061e+002, 6.530653e+002
6.811882e+002, 6.559191e+002
6.816703e+002, 6.553640e+002
6.821525e+002, 6.509044e+002
6.826346e+002, 6.479349e+002
6.831167e+002, 6.514028e+002
6.835988e+002, 6.593895e+002
6.840809e+002, 6.621254e+002
6.845630e+002, 6.566959e+002
6.850452e+002, 6.523878e+002
6.855273e+002, 6.497211e+002
6.860094e+002, 6.491721e+002
6.864915e+002, 6.536917e+002
6.869736e+002, 6.607281e+002
6.874557e+002, 6.623257e+002
6.879379e+002, 6.513350e+002
6.884200e+002, 6.413936e+002
6.889021e+002, 6.475298e+002
6.893842e+002, 6.634890e+002
6.898663e+002, 6.754457e+002
6.903484e+002, 6.808731e+002
6.908306e+002, 6.814138e+002
6.913127e+002, 6.774486e+002
6.917948e+002, 6.704040e+002
6.922769e+002, 6.675233e+002
6.927590e+002, 6.724916e+002
6.932411e+002, 6.758179e+002
6.937233e+002, 6.766417e+002
6.942054e+002, 6.761954e+002
6.946875e+002, 6.739370e+002
6.951696e+002, 6.711091e+002
6.956517e+002, 6.707375e+002
6.961339e+002, 6.748109e+002
6.966160e+002, 6.796935e+002
6.970981e+002, 6.803411e+002
6.975802e+002, 6.783458e+002
6.980623e+002, 6.800439e+002
6.985444e+002, 6.866223e+002
6.990266e+002, 6.932382e+002
6.995087e+002, 6.967455e+002
6.999908e+002, 6.975127e+002
7.004729e+002, 6.968381e+002
7.009550e+002, 6.921212e+002
7.014371e+002, 6.899830e+002
7.019193e+002, 6.917869e+002
7.024014e+002, 6.949960e+002
7.028835e+002, 6.995605e+002
7.033656e+002, 7.040618e+002
7.038477e+002, 7.055009e+002
7.043298e+002, 7.022809e+002
7.048120e+002, 6.984484e+002
7.052941e+002, 7.002835e+002
7.057762e+002, 7.061777e+002
7.062583e+002, 7.071984e+002
7.067404e+002, 7.016328e+002
7.072225e+002, 6.976366e+002
7.077046e+002, 7.007929e+002
7.081867e+002, 7.080739e+002
7.086688e+002, 7.117007e+002
7.091509e+002, 7.102274e+002
7.096331e+002, 7.090162e+002
7.101152e+002, 7.088727e+002
7.105973e+002, 7.086243e+002
7.110794e+002, 7.079232e+002
7.115615e+002, 7.065224e+002
7.120436e+002, 7.039047e+002
7.125258e+002, 6.998942e+002
7.130079e+002, 6.955067e+002
7.134900e+002, 6.908896e+002
7.139721e+002, 6.866541e+002
7.144542e+002, 6.866823e+002
7.149363e+002, 6.916548e+002
7.154185e+002, 6.974401e+002
7.159006e+002, 7.029894e+002
7.163827e+002, 7.074326e+002
7.168648e+002, 7.083459e+002
7.173469e+002, 7.045931e+002
7.178290e+002, 7.044198e+002
7.183112e+002, 7.136599e+002
7.187933e+002, 7.211317e+002
7.192754e+002, 7.191514e+002
7.197575e+002, 7.127792e+002
7.202396e+002, 7.103046e+002
7.207217e+002, 7.134306e+002
7.212039e+002, 7.160763e+002
7.216860e+002, 7.108387e+002
7.221681e+002, 7.006263e+002
7.226502e+002, 6.978201e+002
7.231323e+002, 7.033732e+002
7.236144e+002, 7.083563e+002
7.240966e+002, 7.102197e+002
7.245787e+002, 7.100001e+002
7.250608e+002, 7.087186e+002
7.255429e+002, 7.063649e+002
7.260250e+002, 7.029464e+002
7.265071e+002, 6.968082e+002
7.269893e+002, 6.915795e+002
7.274714e+002, 6.879357e+002
7.279535e+002, 6.862520e+002
7.284356e+002, 6.887020e+002
7.289177e+002, 6.941838e+002
7.293998e+002, 6.969601e+002
7.298820e+002, 6.919363e+002
7.303641e+002, 6.831174e+002
7.308462e+002, 6.806317e+002
7.313283e+002, 6.847957e+002
7.318104e+002, 6.859146e+002
7.322925e+002, 6.812039e+002
7.327747e+002, 6.752307e+002
7.332568e+002, 6.716813e+002
7.337389e+002, 6.700474e+002
7.342210e+002, 6.673655e+002
7.347031e+002, 6.604623e+002
7.351852e+002, 6.574131e+002
7.356674e+002, 6.645673e+002
7.361495e+002, 6.724013e+002
7.366316e+002, 6.718264e+002
7.371137e+002, 6.649276e+002
7.375958e+002, 6.594404e+002
7.380779e+002, 6.591797e+002
7.385601e+002, 6.617473e+002
7.390422e+002, 6.643691e+002
7.395243e+002, 6.668875e+002
7.400064e+002, 6.678076e+002
7.404885e+002, 6.669999e+002
7.409706e+002, 6.644650e+002
7.414528e+002, 6.592469e+002
7.419349e+002, 6.529796e+002
7.424170e+002, 6.491537e+002
7.428991e+002, 6.476234e+002
7.433812e+002, 6.486431e+002
7.438633e+002, 6.565785e+002
7.443455e+002, 6.625638e+002
7.448276e+002, 6.606295e+002
7.453097e+002, 6.541649e+002
7.457918e+002, 6.477753e+002
7.462739e+002, 6.431097e+002
7.467560e+002, 6.409374e+002
7.472382e+002, 6.435265e+002
7.477203e+002, 6.489532e+002
7.482024e+002, 6.511702e+002
7.486845e+002, 6.501205e+002
7.491666e+002, 6.481527e+002
7.496487e+002, 6.458307e+002
7.501309e+002, 6.433958e+002
7.506130e+002, 6.409413e+002
7.510951e+002, 6.384317e+002
7.515772e+002, 6.369771e+002
7.520593e+002, 6.380233e+002
7.525414e+002, 6.381476e+002
7.530236e+002, 6.346394e+002
7.535057e+002, 6.312914e+002
7.539878e+002, 6.327087e+002
7.544699e+002, 6.379129e+002
7.549520e+002, 6.414741e+002
7.554341e+002, 6.399361e+002
7.559163e+002, 6.361330e+002
7.563984e+002, 6.340157e+002
7.568805e+002, 6.331060e+002
7.573626e+002, 6.304595e+002
7.578447e+002, 6.253211e+002
7.583268e+002, 6.231233e+002
7.588090e+002, 6.286389e+002
7.592911e+002, 6.391015e+002
7.597732e+002, 6.451375e+002
7.602553e+002, 6.428956e+002
7.607374e+002, 6.432755e+002
7.612195e+002, 6.504142e+002
7.617017e+002, 6.556564e+002
7.621838e+002, 6.525497e+002
7.626659e+002, 6.457073e+002
7.631480e+002, 6.432163e+002
7.636301e+002, 6.474782e+002
7.641122e+002, 6.516293e+002
7.645944e+002, 6.501053e+002
7.650765e+002, 6.455146e+002
7.655586e+002, 6.414069e+002
7.660407e+002, 6.379984e+002
7.665228e+002, 6.353840e+002
7.670049e+002, 6.335673e+002
7.674871e+002, 6.328007e+002
7.679692e+002, 6.336407e+002
7.684513e+002, 6.361925e+002
7.689334e+002, 6.373600e+002
7.694155e+002, 6.337887e+002
7.698976e+002, 6.343890e+002
7.703798e+002, 6.479169e+002
7.708619e+002, 6.607979e+002
7.713440e+002, 6.595026e+002
7.718261e+002, 6.466815e+002
7.723082e+002, 6.385758e+002
7.727903e+002, 6.445973e+002
7.732725e+002, 6.519211e+002
7.737546e+002, 6.504937e+002
7.742367e+002, 6.450989e+002
7.747188e+002, 6.432604e+002
7.752009e+002, 6.456881e+002
7.756830e+002, 6.490470e+002
7.761652e+002, 6.512975e+002
7.766473e+002, 6.523700e+002
7.771294e+002, 6.518140e+002
7.776115e+002, 6.493031e+002
7.780936e+002, 6.473143e+002
7.785757e+002, 6.458794e+002
7.790579e+002, 6.451763e+002
7.795400e+002, 6.444059e+002
7.800221e+002, 6.448702e+002
7.805042e+002, 6.495472e+002
7.809863e+002, 6.599379e+002
7.814684e+002, 6.675846e+002
7.819506e+002, 6.701365e+002
7.824327e+002, 6.696427e+002
7.829148e+002, 6.661329e+002
7.833969e+002, 6.609524e+002
7.838790e+002, 6.557028e+002
7.843611e+002, 6.509893e+002
7.848433e+002, 6.472343e+002
7.853254e+002, 6.446594e+002
7.858075e+002, 6.434388e+002
7.862896e+002, 6.446389e+002
7.867717e+002, 6.482952e+002
7.872538e+002, 6.516807e+002
7.877360e+002, 6.543893e+002
7.882181e+002, 6.556785e+002
7.887002e+002, 6.538074e+002
7.891823e+002, 6.495803e+002
7.896644e+002, 6.499207e+002
7.901465e+002, 6.616396e+002
7.906286e+002, 6.679182e+002
7.911107e+002, 6.631860e+002
7.915928e+002, 6.566633e+002
7.920750e+002, 6.537687e+002
7.925571e+002, 6.538983e+002
7.930392e+002, 6.549534e+002
7.935213e+002, 6.563635e+002
7.940034e+002, 6.569948e+002
7.944855e+002, 6.536957e+002
7.949677e+002, 6.498246e+002
7.954498e+002, 6.539762e+002
7.959319e+002, 6.649095e+002
7.964140e+002, 6.711606e+002
7.968961e+002, 6.678060e+002
7.973782e+002, 6.598365e+002
7.978604e+002, 6.533702e+002
7.983425e+002, 6.482311e+002
7.988246e+002, 6.489047e+002
7.993067e+002, 6.597740e+002
7.997888e+002, 6.685196e+002
8.002709e+002, 6.687466e+002
8.007531e+002, 6.684022e+002
8.012352e+002, 6.756859e+002
8.017173e+002, 6.883651e+002
8.021994e+002, 6.946685e+002
8.026815e+002, 6.872200e+002
8.031636e+002, 6.790934e+002
8.036458e+002, 6.778462e+002
8.041279e+002, 6.791542e+002
8.046100e+002, 6.781632e+002
8.050921e+002, 6.746895e+002
8.055742e+002, 6.698345e+002
8.060563e+002, 6.640041e+002
8.065385e+002, 6.600869e+002
8.070206e+002, 6.655654e+002
8.075027e+002, 6.792072e+002
8.079848e+002, 6.817130e+002
8.084669e+002, 6.696992e+002
8.089490e+002, 6.601718e+002
8.094312e+002, 6.614722e+002
8.099133e+002, 6.680116e+002
8.103954e+002, 6.716536e+002
8.108775e+002, 6.718310e+002
8.113596e+002, 6.727061e+002
8.118417e+002, 6.755454e+002
8.123239e+002, 6.774618e+002
8.128060e+002, 6.771199e+002
8.132881e+002, 6.759003e+002
8.137702e+002, 6.742578e+002
8.142523e+002, 6.728835e+002
8.147344e+002, 6.737535e+002
8.152166e+002, 6.786403e+002
8.156987e+002, 6.844454e+002
8.161808e+002, 6.888884e+002
8.166629e+002, 6.915275e+002
8.171450e+002, 6.900642e+002
8.176271e+002, 6.849198e+002
8.181093e+002, 6.819968e+002
8.185914e+002, 6.850441e+002
8.190735e+002, 6.899119e+002
8.195556e+002, 6.875992e+002
8.200377e+002, 6.760560e+002
8.205198e+002, 6.703792e+002
8.210020e+002, 6.724137e+002
8.214841e+002, 6.768456e+002
8.219662e+002, 6.847645e+002
8.224483e+002, 6.919342e+002
8.229304e+002, 6.927321e+002
8.234125e+002, 6.873755e+002
8.238947e+002, 6.832837e+002
8.243768e+002, 6.833014e+002
8.248589e+002, 6.832253e+002
8.253410e+002, 6.792042e+002
8.258231e+002, 6.754531e+002
8.263052e+002, 6.786528e+002
8.267874e+002, 6.871666e+002
8.272695e+002, 6.922732e+002
8.277516e+002, 6.885099e+002
8.282337e+002, 6.821012e+002
8.287158e+002, 6.828265e+002
8.291979e+002, 6.886234e+002
8.296801e+002, 6.908121e+002
8.301622e+002, 6.886185e+002
8.306443e+002, 6.837361e+002
8.311264e+002, 6.755413e+002
8.316085e+002, 6.697543e+002
8.320906e+002, 6.778789e+002
8.325728e+002, 7.039318e+002
8.330549e+002, 7.140239e+002
8.335370e+002, 6.942749e+002
8.340191e+002, 6.783351e+002
8.345012e+002, 6.759160e+002
8.349833e+002, 6.782814e+002
8.354655e+002, 6.796418e+002
8.359476e+002, 6.794390e+002
8.364297e+002, 6.774028e+002
8.369118e+002, 6.711952e+002
8.373939e+002, 6.667453e+002
8.378760e+002, 6.687663e+002
8.383582e+002, 6.732865e+002
8.388403e+002, 6.759926e+002
8.393224e+002, 6.767721e+002
8.398045e+002, 6.770091e+002
8.402866e+002, 6.773484e+002
8.407687e+002, 6.781097e+002
8.412509e+002, 6.810282e+002
8.417330e+002, 6.850762e+002
8.422151e+002, 6.826775e+002
8.426972e+002, 6.731451e+002
8.431793e+002, 6.672814e+002
8.436614e+002, 6.699250e+002
8.441436e+002, 6.750671e+002
8.446257e+002, 6.758970e+002
8.451078e+002, 6.725068e+002
8.455899e+002, 6.689223e+002
8.460720e+002, 6.649801e+002
8.465541e+002, 6.610880e+002
8.470363e+002, 6.550405e+002
8.475184e+002, 6.511444e+002
8.480005e+002, 6.538806e+002
8.484826e+002, 6.605164e+002
8.489647e+002, 6.646246e+002
8.494468e+002, 6.640629e+002
8.499290e+002, 6.632284e+002
8.504111e+002, 6.642133e+002
8.508932e+002, 6.663141e+002
8.513753e+002, 6.707494e+002
8.518574e+002, 6.753651e+002
8.523395e+002, 6.743279e+002
8.528217e+002, 6.664888e+002
8.533038e+002, 6.581793e+002
8.537859e+002, 6.554130e+002
8.542680e+002, 6.571962e+002
8.547501e+002, 6.624940e+002
8.552322e+002, 6.713156e+002
8.557144e+002, 6.718877e+002
8.561965e+002, 6.596062e+002
8.566786e+002, 6.490910e+002
8.571607e+002, 6.527827e+002
8.576428e+002, 6.654222e+002
8.581249e+002, 6.699656e+002
8.586071e+002, 6.622429e+002
8.590892e+002, 6.553615e+002
8.595713e+002, 6.440944e+002
8.600534e+002, 6.397064e+002
8.605355e+002, 6.528593e+002
8.610176e+002, 6.712603e+002
8.614998e+002, 6.798470e+002
8.619819e+002, 6.771937e+002
8.624640e+002, 6.729962e+002
8.629461e+002, 6.678015e+002
8.634282e+002, 6.659230e+002
8.639103e+002, 6.743846e+002
8.643925e+002, 6.858346e+002
8.648746e+002, 6.887628e+002
8.653567e+002, 6.834875e+002
8.658388e+002, 6.789214e+002
8.663209e+002, 6.804045e+002
8.668030e+002, 6.838752e+002
8.672852e+002, 6.821326e+002
8.677673e+002, 6.766080e+002
8.682494e+002, 6.760453e+002
8.687315e+002, 6.811561e+002
8.692136e+002, 6.834385e+002
8.696957e+002, 6.786910e+002
8.701779e+002, 6.720198e+002
8.706600e+002, 6.704919e+002
8.711421e+002, 6.741634e+002
8.716242e+002, 6.757744e+002
8.721063e+002, 6.747391e+002
8.725884e+002, 6.726678e+002
8.730705e+002, 6.697178e+002
8.735526e+002, 6.658795e+002
8.740347e+002, 6.590717e+002
8.745168e+002, 6.516373e+002
8.749990e+002, 6.498864e+002
8.754811e+002, 6.575444e+002
8.759632e+002, 6.625709e+002
8.764453e+002, 6.576815e+002
8.769274e+002, 6.516273e+002
8.774095e+002, 6.502039e+002
8.778917e+002, 6.524800e+002
8.783738e+002, 6.567247e+002
8.788559e+002, 6.621661e+002
8.793380e+002, 6.677660e+002
8.798201e+002, 6.738610e+002
8.803022e+002, 6.782784e+002
8.807844e+002, 6.754901e+002
8.812665e+002, 6.678481e+002
8.817486e+002, 6.650765e+002
8.822307e+002, 6.683719e+002
8.827128e+002, 6.696271e+002
8.831949e+002, 6.632305e+002
8.836771e+002, 6.538232e+002
8.841592e+002, 6.519335e+002
8.846413e+002, 6.591445e+002
8.851234e+002, 6.615715e+002
8.856055e+002, 6.572366e+002
8.860876e+002, 6.527906e+002
8.865698e+002, 6.489684e+002
8.870519e+002, 6.476571e+002
8.875340e+002, 6.536907e+002
8.880161e+002, 6.661174e+002
8.884982e+002, 6.704191e+002
8.889803e+002, 6.594586e+002
8.894625e+002, 6.498737e+002
8.899446e+002, 6.446693e+002
8.904267e+002, 6.415502e+002
8.909088e+002, 6.401643e+002
8.913909e+002, 6.393153e+002
8.918730e+002, 6.362203e+002
8.923552e+002, 6.298926e+002
8.928373e+002, 6.263124e+002
8.933194e+002, 6.331482e+002
8.938015e+002, 6.413998e+002
8.942836e+002, 6.400476e+002
8.947657e+002, 6.330092e+002
8.952479e+002, 6.281917e+002
8.957300e+002, 6.276090e+002
8.962121e+002, 6.310565e+002
8.966942e+002, 6.393821e+002
8.971763e+002, 6.481471e+002
8.976584e+002, 6.468189e+002
8.981406e+002, 6.365956e+002
8.986227e+002, 6.293348e+002
8.991048e+002, 6.261624e+002
8.995869e+002, 6.259032e+002
9.000690e+002, 6.289961e+002
9.005511e+002, 6.317196e+002
9.010333e+002, 6.274935e+002
9.015154e+002, 6.156632e+002
9.019975e+002, 6.121122e+002
9.024796e+002, 6.227224e+002
9.029617e+002, 6.306466e+002
9.034438e+002, 6.296951e+002
9.039260e+002, 6.281563e+002
9.044081e+002, 6.341604e+002
9.048902e+002, 6.436442e+002
9.053723e+002, 6.453622e+002
9.058544e+002, 6.349105e+002
9.063365e+002, 6.259270e+002
9.068187e+002, 6.197960e+002
9.073008e+002, 6.181065e+002
9.077829e+002, 6.269656e+002
9.082650e+002, 6.382173e+002
9.087471e+002, 6.395543e+002
9.092292e+002, 6.302973e+002
9.097114e+002, 6.211398e+002
9.101935e+002, 6.171783e+002
9.106756e+002, 6.178928e+002
9.111577e+002, 6.268322e+002
9.116398e+002, 6.383847e+002
9.121219e+002, 6.402855e+002
9.126041e+002, 6.335685e+002
9.130862e+002, 6.297037e+002
9.135683e+002, 6.341263e+002
9.140504e+002, 6.406424e+002
9.145325e+002, 6.398641e+002
9.150146e+002, 6.337540e+002
9.154968e+002, 6.351343e+002
9.159789e+002, 6.443983e+002
9.164610e+002, 6.487101e+002
9.169431e+002, 6.435574e+002
9.174252e+002, 6.393322e+002
9.179073e+002, 6.459427e+002
9.183895e+002, 6.591324e+002
9.188716e+002, 6.627020e+002
9.193537e+002, 6.505891e+002
9.198358e+002, 6.446118e+002
9.203179e+002, 6.504224e+002
9.208000e+002, 6.543085e+002
9.212822e+002, 6.483021e+002
9.217643e+002, 6.393228e+002
9.222464e+002, 6.350623e+002
9.227285e+002, 6.354363e+002
9.232106e+002, 6.351959e+002
9.236927e+002, 6.308000e+002
9.241749e+002, 6.295149e+002
9.246570e+002, 6.387520e+002
9.251391e+002, 6.470616e+002
9.256212e+002, 6.424941e+002
9.261033e+002, 6.306411e+002
9.265854e+002, 6.251519e+002
9.270676e+002, 6.302189e+002
9.275497e+002, 6.342190e+002
9.280318e+002, 6.253529e+002
9.285139e+002, 6.154333e+002
9.289960e+002, 6.195118e+002
9.294781e+002, 6.304495e+002
9.299603e+002, 6.338472e+002
9.304424e+002, 6.280020e+002
9.309245e+002, 6.194782e+002
9.314066e+002, 6.117615e+002
9.318887e+002, 6.075328e+002
9.323708e+002, 6.143693e+002
9.328530e+002, 6.285489e+002
9.333351e+002, 6.333113e+002
9.338172e+002, 6.283381e+002
9.342993e+002, 6.245870e+002
9.347814e+002, 6.262344e+002
9.352635e+002, 6.291889e+002
9.357457e+002, 6.290575e+002
9.362278e+002, 6.262872e+002
9.367099e+002, 6.229506e+002
9.371920e+002, 6.180276e+002
9.376741e+002, 6.175856e+002
9.381563e+002, 6.248676e+002
9.386384e+002, 6.309940e+002
9.391205e+002, 6.308948e+002
9.396026e+002, 6.268099e+002
9.400847e+002, 6.219568e+002
9.405668e+002, 6.154702e+002
9.410490e+002, 6.133848e+002
9.415311e+002, 6.202426e+002
9.420132e+002, 6.251132e+002
9.424953e+002, 6.229639e+002
9.429774e+002, 6.208421e+002
9.434595e+002, 6.255995e+002
9.439417e+002, 6.343557e+002
9.444238e+002, 6.391846e+002
9.449059e+002, 6.380751e+002
9.453880e+002, 6.348983e+002
9.458701e+002, 6.281780e+002
9.463522e+002, 6.228400e+002
9.468344e+002, 6.225555e+002
9.473165e+002, 6.254847e+002
9.477986e+002, 6.304415e+002
9.482807e+002, 6.361172e+002
9.487628e+002, 6.391200e+002
9.492449e+002, 6.376392e+002
9.497271e+002, 6.328344e+002
9.502092e+002, 6.208276e+002
9.506913e+002, 6.090661e+002
9.511734e+002, 6.119386e+002
9.516555e+002, 6.258340e+002
9.521376e+002, 6.368347e+002
9.526198e+002, 6.400742e+002
9.531019e+002, 6.387206e+002
9.535840e+002, 6.342573e+002
9.540661e+002, 6.293192e+002
9.545482e+002, 6.326373e+002
9.550303e+002, 6.422449e+002
9.555124e+002, 6.441176e+002
9.559945e+002, 6.363016e+002
9.564766e+002, 6.268946e+002
9.569587e+002, 6.196070e+002
9.574409e+002, 6.166174e+002
9.579230e+002, 6.228502e+002
9.584051e+002, 6.380654e+002
9.588872e+002, 6.450444e+002
9.593693e+002, 6.411585e+002
9.598514e+002, 6.411068e+002
9.603336e+002, 6.506398e+002
9.608157e+002, 6.585541e+002
9.612978e+002, 6.552487e+002
9.617799e+002, 6.448066e+002
9.622620e+002, 6.386151e+002
9.627441e+002, 6.375812e+002
9.632263e+002, 6.380402e+002
9.637084e+002, 6.416486e+002
9.641905e+002, 6.445029e+002
9.646726e+002, 6.453344e+002
9.651547e+002, 6.452095e+002
9.656368e+002, 6.444322e+002
9.661190e+002, 6.433984e+002
9.666011e+002, 6.437958e+002
9.670832e+002, 6.468318e+002
9.675653e+002, 6.492632e+002
9.680474e+002, 6.513137e+002
9.685295e+002, 6.515917e+002
9.690117e+002, 6.465921e+002
9.694938e+002, 6.408655e+002
9.699759e+002, 6.417227e+002
9.704580e+002, 6.489471e+002
9.709401e+002, 6.538015e+002
9.714222e+002, 6.515336e+002
9.719044e+002, 6.474136e+002
9.723865e+002, 6.432714e+002
9.728686e+002, 6.401235e+002
9.733507e+002, 6.386948e+002
9.738328e+002, 6.392913e+002
9.743149e+002, 6.432463e+002
9.747971e+002, 6.505151e+002
9.752792e+002, 6.568763e+002
9.757613e+002, 6.576195e+002
9.762434e+002, 6.571128e+002
9.767255e+002, 6.627040e+002
9.772076e+002, 6.710118e+002
9.776898e+002, 6.740880e+002
9.781719e+002, 6.720162e+002
9.786540e+002, 6.708411e+002
9.791361e+002, 6.734255e+002
9.796182e+002, 6.760431e+002
9.801003e+002, 6.724504e+002
9.805825e+002, 6.657247e+002
9.810646e+002, 6.667530e+002
9.815467e+002, 6.747960e+002
9.820288e+002, 6.852693e+002
9.825109e+002, 6.972076e+002
9.829930e+002, 7.051805e+002
9.834752e+002, 7.050936e+002
9.839573e+002, 7.013856e+002
9.844394e+002, 7.026699e+002
9.849215e+002, 7.089825e+002
9.854036e+002, 7.140597e+002
9.858857e+002, 7.174922e+002
9.863679e+002, 7.226657e+002
9.868500e+002, 7.316251e+002
9.873321e+002, 7.386410e+002
9.878142e+002, 7.381192e+002
9.882963e+002, 7.329554e+002
9.887784e+002, 7.324430e+002
9.892606e+002, 7.381515e+002
9.897427e+002, 7.429302e+002
9.902248e+002, 7.462376e+002
9.907069e+002, 7.496506e+002
9.911890e+002, 7.536534e+002
9.916711e+002, 7.579871e+002
9.921533e+002, 7.624927e+002
9.926354e+002, 7.671393e+002
9.931175e+002, 7.717791e+002
9.935996e+002, 7.786859e+002
9.940817e+002, 7.814916e+002
9.945638e+002, 7.743638e+002
9.950460e+002, 7.700168e+002
9.955281e+002, 7.772367e+002
9.960102e+002, 7.869694e+002
9.964923e+002, 7.883604e+002
9.969744e+002, 7.822676e+002
9.974565e+002, 7.789347e+002
9.979387e+002, 7.829125e+002
9.984208e+002, 7.853730e+002
9.989029e+002, 7.820299e+002
9.993850e+002, 7.786780e+002
9.998671e+002, 7.804109e+002
1.000349e+003, 7.836750e+002
1.000831e+003, 7.825416e+002
1.001313e+003, 7.767435e+002
1.001796e+003, 7.720116e+002
1.002278e+003, 7.710559e+002
1.002760e+003, 7.711855e+002
1.003242e+003, 7.735234e+002
1.003724e+003, 7.740463e+002
1.004206e+003, 7.663836e+002
1.004688e+003, 7.548063e+002
1.005170e+003, 7.485173e+002
1.005653e+003, 7.492839e+002
1.006135e+003, 7.498922e+002
1.006617e+003, 7.458290e+002
1.007099e+003, 7.396441e+002
1.007581e+003, 7.311088e+002
1.008063e+003, 7.236072e+002
1.008545e+003, 7.240577e+002
1.009027e+003, 7.298593e+002
1.009509e+003, 7.324323e+002
1.009992e+003, 7.288417e+002
1.010474e+003, 7.229584e+002
1.010956e+003, 7.183505e+002
1.011438e+003, 7.132598e+002
1.011920e+003, 7.036574e+002
1.012402e+003, 6.919059e+002
1.012884e+003, 6.833728e+002
1.013366e+003, 6.784240e+002
1.013849e+003, 6.753413e+002
1.014331e+003, 6.733152e+002
1.014813e+003, 6.717170e+002
1.015295e+003, 6.701423e+002
1.015777e+003, 6.682281e+002
1.016259e+003, 6.651031e+002
1.016741e+003, 6.608075e+002
1.017223e+003, 6.548284e+002
1.017705e+003, 6.474327e+002
1.018188e+003, 6.419018e+002
1.018670e+003, 6.399581e+002
1.019152e+003, 6.402269e+002
1.019634e+003, 6.417000e+002
1.020116e+003, 6.434929e+002
1.020598e+003, 6.409999e+002
1.021080e+003, 6.343401e+002
1.021562e+003, 6.255544e+002
1.022044e+003, 6.147500e+002
1.022527e+003, 6.064919e+002
1.023009e+003, 6.035683e+002
1.023491e+003, 6.038993e+002
1.023973e+003, 6.048319e+002
1.024455e+003, 6.061117e+002
1.024937e+003, 6.022388e+002
1.025419e+003, 5.920489e+002
1.025901e+003, 5.876064e+002
1.026384e+003, 5.925866e+002
1.026866e+003, 5.967345e+002
1.027348e+003, 5.931957e+002
1.027830e+003, 5.858981e+002
1.028312e+003, 5.817608e+002
1.028794e+003, 5.807603e+002
1.029276e+003, 5.837939e+002
1.029758e+003, 5.930816e+002
1.030240e+003, 5.982568e+002
1.030723e+003, 5.957765e+002
1.031205e+003, 5.930244e+002
1.031687e+003, 5.965974e+002
1.032169e+003, 6.009672e+002
1.032651e+003, 5.936856e+002
1.033133e+003, 5.724669e+002
1.033615e+003, 5.589224e+002
1.034097e+003, 5.547151e+002
1.034579e+003, 5.547946e+002
1.035062e+003, 5.601972e+002
1.035544e+003, 5.668350e+002
1.036026e+003, 5.736097e+002
1.036508e+003, 5.787689e+002
1.036990e+003, 5.776839e+002
1.037472e+003, 5.684103e+002
1.037954e+003, 5.638877e+002
1.038436e+003, 5.679686e+002
1.038919e+003, 5.706316e+002
1.039401e+003, 5.681676e+002
1.039883e+003, 5.659982e+002
1.040365e+003, 5.688444e+002
1.040847e+003, 5.740486e+002
1.041329e+003, 5.758550e+002
1.041811e+003, 5.736105e+002
1.042293e+003, 5.715225e+002
1.042776e+003, 5.707388e+002
1.043258e+003, 5.686202e+002
1.043740e+003, 5.632899e+002
1.044222e+003, 5.578746e+002
1.044704e+003, 5.542850e+002
1.045186e+003, 5.520861e+002
1.045668e+003, 5.491842e+002
1.046150e+003, 5.442466e+002
1.046632e+003, 5.474067e+002
1.047115e+003, 5.706271e+002
1.047597e+003, 5.870051e+002
1.048079e+003, 5.855209e+002
1.048561e+003, 5.793807e+002
1.049043e+003, 5.766362e+002
1.049525e+003, 5.762277e+002
1.050007e+003, 5.756633e+002
1.050489e+003, 5.748113e+002
1.050971e+003, 5.720897e+002
1.051454e+003, 5.631945e+002
1.051936e+003, 5.578600e+002
1.052418e+003, 5.622234e+002
1.052900e+003, 5.680053e+002
1.053382e+003, 5.691122e+002
1.053864e+003, 5.673224e+002
1.054346e+003, 5.667866e+002
1.054828e+003, 5.681525e+002
1.055311e+003, 5.678827e+002
1.055793e+003, 5.638821e+002
1.056275e+003, 5.596817e+002
1.056757e+003, 5.551107e+002
1.057239e+003, 5.521149e+002
1.057721e+003, 5.535222e+002
1.058203e+003, 5.569658e+002
1.058685e+003, 5.578392e+002
1.059167e+003, 5.555269e+002
1.059650e+003, 5.548840e+002
1.060132e+003, 5.609042e+002
1.060614e+003, 5.642551e+002
1.061096e+003, 5.579901e+002
1.061578e+003, 5.510632e+002
1.062060e+003, 5.503468e+002
1.062542e+003, 5.537255e+002
1.063024e+003, 5.580902e+002
1.063506e+003, 5.625220e+002
1.063989e+003, 5.637844e+002
1.064471e+003, 5.568447e+002
1.064953e+003, 5.520084e+002
1.065435e+003, 5.564786e+002
1.065917e+003, 5.617142e+002
1.066399e+003, 5.612493e+002
1.066881e+003, 5.570870e+002
1.067363e+003, 5.514318e+002
1.067846e+003, 5.454894e+002
1.068328e+003, 5.441642e+002
1.068810e+003, 5.542442e+002
1.069292e+003, 5.605705e+002
1.069774e+003, 5.506731e+002
1.070256e+003, 5.402719e+002
1.070738e+003, 5.423236e+002
1.071220e+003, 5.507958e+002
1.071703e+003, 5.578280e+002
1.072185e+003, 5.615487e+002
1.072667e+003, 5.606074e+002
1.073149e+003, 5.521227e+002
1.073631e+003, 5.444409e+002
1.074113e+003, 5.393229e+002
1.074595e+003, 5.386335e+002
1.075077e+003, 5.490933e+002
1.075559e+003, 5.614307e+002
1.076042e+003, 5.622358e+002
1.076524e+003, 5.524223e+002
1.077006e+003, 5.439363e+002
1.077488e+003, 5.404984e+002
1.077970e+003, 5.398531e+002
1.078452e+003, 5.432370e+002
1.078934e+003, 5.465415e+002
1.079416e+003, 5.468713e+002
1.079898e+003, 5.456311e+002
1.080380e+003, 5.445452e+002
1.080863e+003, 5.436607e+002
1.081345e+003, 5.420616e+002
1.081827e+003, 5.391655e+002
1.082309e+003, 5.371044e+002
1.082791e+003, 5.363004e+002
1.083273e+003, 5.372282e+002
1.083755e+003, 5.420710e+002
1.084237e+003, 5.473319e+002
1.084720e+003, 5.492850e+002
1.085202e+003, 5.483809e+002
1.085684e+003, 5.467363e+002
1.086166e+003, 5.448289e+002
1.086648e+003, 5.428910e+002
1.087130e+003, 5.402905e+002
1.087612e+003, 5.385879e+002
1.088094e+003, 5.387069e+002
1.088577e+003, 5.399779e+002
1.089059e+003, 5.443855e+002
1.089541e+003, 5.486002e+002
1.090023e+003, 5.441896e+002
1.090505e+003, 5.293724e+002
1.090987e+003, 5.193239e+002
1.091469e+003, 5.232571e+002
1.091951e+003, 5.283433e+002
1.092433e+003, 5.297821e+002
1.092916e+003, 5.295944e+002
1.093398e+003, 5.275418e+002
1.093880e+003, 5.258810e+002
1.094362e+003, 5.304107e+002
1.094844e+003, 5.408728e+002
1.095326e+003, 5.437482e+002
1.095808e+003, 5.259711e+002
1.096290e+003, 5.130370e+002
1.096772e+003, 5.151837e+002
1.097255e+003, 5.227028e+002
1.097737e+003, 5.342327e+002
1.098219e+003, 5.444039e+002
1.098701e+003, 5.444016e+002
1.099183e+003, 5.356275e+002
1.099665e+003, 5.319048e+002
1.100147e+003, 5.382272e+002
1.100629e+003, 5.459603e+002
1.101112e+003, 5.596542e+002
1.101594e+003, 5.661858e+002
1.102076e+003, 5.507249e+002
1.102558e+003, 5.312398e+002
1.103040e+003, 5.280234e+002
1.103522e+003, 5.380334e+002
1.104004e+003, 5.450970e+002
1.104486e+003, 5.466189e+002
1.104969e+003, 5.460041e+002
1.105451e+003, 5.408643e+002
1.105933e+003, 5.375519e+002
1.106415e+003, 5.402667e+002
1.106897e+003, 5.438309e+002
1.107379e+003, 5.449418e+002
1.107861e+003, 5.434163e+002
1.108343e+003, 5.376953e+002
1.108825e+003, 5.254073e+002
1.109307e+003, 5.220753e+002
1.109790e+003, 5.380533e+002
1.110272e+003, 5.502606e+002
1.110754e+003, 5.554032e+002
1.111236e+003, 5.541164e+002
1.111718e+003, 5.395750e+002
1.112200e+003, 5.222635e+002
1.112682e+003, 5.218195e+002
1.113164e+003, 5.396005e+002
1.113647e+003, 5.491383e+002
1.114129e+003, 5.444432e+002
1.114611e+003, 5.414436e+002
1.115093e+003, 5.432388e+002
1.115575e+003, 5.441244e+002
1.116057e+003, 5.427308e+002
1.116539e+003, 5.381093e+002
1.117021e+003, 5.260386e+002
1.117504e+003, 5.088789e+002
1.117986e+003, 5.048818e+002
1.118468e+003, 5.226219e+002
1.118950e+003, 5.330890e+002
1.119432e+003, 5.342100e+002
1.119914e+003, 5.311512e+002
1.120396e+003, 5.218758e+002
1.120878e+003, 5.152743e+002
1.121360e+003, 5.214451e+002
1.121843e+003, 5.343225e+002
1.122325e+003, 5.352283e+002
1.122807e+003, 5.214165e+002
1.123289e+003, 5.120529e+002
1.123771e+003, 5.070388e+002
1.124253e+003, 5.076604e+002
1.124735e+003, 5.166776e+002
1.125217e+003, 5.235666e+002
1.125699e+003, 5.208531e+002
1.126182e+003, 5.138146e+002
1.126664e+003, 5.117734e+002
1.127146e+003, 5.143145e+002
1.127628e+003, 5.130140e+002
1.128110e+003, 5.070213e+002
1.128592e+003, 5.053906e+002
1.129074e+003, 5.098366e+002
1.129556e+003, 5.148518e+002
1.130039e+003, 5.181985e+002
1.130521e+003, 5.193438e+002
1.131003e+003, 5.170919e+002
1.131485e+003, 5.130235e+002
1.131967e+003, 5.131212e+002
1.132449e+003, 5.171231e+002
1.132931e+003, 5.203400e+002
1.133413e+003, 5.225389e+002
1.133896e+003, 5.260740e+002
1.134378e+003, 5.316530e+002
1.134860e+003, 5.321960e+002
1.135342e+003, 5.213907e+002
1.135824e+003, 5.065951e+002
1.136306e+003, 5.008833e+002
1.136788e+003, 5.026357e+002
1.137270e+003, 5.070866e+002
1.137752e+003, 5.133041e+002
1.138234e+003, 5.176204e+002
1.138717e+003, 5.193488e+002
1.139199e+003, 5.187805e+002
1.139681e+003, 5.160557e+002
1.140163e+003, 5.132912e+002
1.140645e+003, 5.132799e+002
1.141127e+003, 5.143820e+002
1.141609e+003, 5.134579e+002
1.142091e+003, 5.113495e+002
1.142574e+003, 5.094838e+002
1.143056e+003, 5.082642e+002
1.143538e+003, 5.086120e+002
1.144020e+003, 5.105597e+002
1.144502e+003, 5.119953e+002
1.144984e+003, 5.112901e+002
1.145466e+003, 5.097925e+002
1.145948e+003, 5.084841e+002
1.146431e+003, 5.075486e+002
1.146913e+003, 5.065517e+002
1.147395e+003, 5.064088e+002
1.147877e+003, 5.099666e+002
1.148359e+003, 5.162952e+002
1.148841e+003, 5.198508e+002
1.149323e+003, 5.179454e+002
1.149805e+003, 5.153174e+002
1.150287e+003, 5.155969e+002
1.150770e+003, 5.154826e+002
1.151252e+003, 5.105959e+002
1.151734e+003, 5.056646e+002
1.152216e+003, 5.072243e+002
1.152698e+003, 5.126701e+002
1.153180e+003, 5.154974e+002
1.153662e+003, 5.143309e+002
1.154144e+003, 5.106328e+002
1.154626e+003, 4.983844e+002
1.155109e+003, 4.929371e+002
1.155591e+003, 5.074571e+002
1.156073e+003, 5.213898e+002
1.156555e+003, 5.191962e+002
1.157037e+003, 5.106960e+002
1.157519e+003, 5.104417e+002
1.158001e+003, 5.174604e+002
1.158483e+003, 5.182872e+002
1.158966e+003, 5.050330e+002
1.159448e+003, 4.998121e+002
1.159930e+003, 5.126556e+002
1.160412e+003, 5.217755e+002
1.160894e+003, 5.206487e+002
1.161376e+003, 5.146102e+002
1.161858e+003, 5.040641e+002
1.162340e+003, 4.933946e+002
1.162822e+003, 4.934197e+002
1.163305e+003, 5.057490e+002
1.163787e+003, 5.111100e+002
1.164269e+003, 5.069616e+002
1.164751e+003, 5.030089e+002
1.165233e+003, 5.000972e+002
1.165715e+003, 4.988344e+002
1.166197e+003, 4.998884e+002
1.166679e+003, 5.017860e+002
1.167161e+003, 5.029406e+002
1.167644e+003, 5.033224e+002
1.168126e+003, 5.025304e+002
1.168608e+003, 5.004928e+002
1.169090e+003, 4.995707e+002
1.169572e+003, 4.998862e+002
1.170054e+003, 5.001295e+002
1.170536e+003, 4.998956e+002
1.171018e+003, 5.020829e+002
1.171500e+003, 5.090707e+002
1.171983e+003, 5.168839e+002
1.172465e+003, 5.190360e+002
1.172947e+003, 5.168632e+002
1.173429e+003, 5.141744e+002
1.173911e+003, 5.111756e+002
1.174393e+003, 5.087552e+002
1.174875e+003, 5.068716e+002
1.175357e+003, 5.038401e+002
1.175840e+003, 4.993636e+002
1.176322e+003, 4.985352e+002
1.176804e+003, 5.080599e+002
1.177286e+003, 5.175525e+002
1.177768e+003, 5.109579e+002
1.178250e+003, 4.984198e+002
1.178732e+003, 4.935634e+002
1.179214e+003, 4.949824e+002
1.179697e+003, 4.987385e+002
1.180179e+003, 5.036006e+002
1.180661e+003, 5.097445e+002
1.181143e+003, 5.180485e+002
1.181625e+003, 5.210135e+002
1.182107e+003, 5.081990e+002
1.182589e+003, 4.956069e+002
1.183071e+003, 4.937136e+002
1.183553e+003, 4.970447e+002
1.184036e+003, 5.030189e+002
1.184518e+003, 5.087979e+002
1.185000e+003, 5.096078e+002
1.185482e+003, 5.050898e+002
1.185964e+003, 5.016553e+002
1.186446e+003, 5.000364e+002
1.186928e+003, 5.007502e+002
1.187410e+003, 5.084122e+002
1.187892e+003, 5.127857e+002
1.188375e+003, 5.048419e+002
1.188857e+003, 4.959059e+002
1.189339e+003, 4.993423e+002
1.189821e+003, 5.092055e+002
1.190303e+003, 5.067122e+002
1.190785e+003, 4.875731e+002
1.191267e+003, 4.824509e+002
1.191749e+003, 4.982222e+002
1.192232e+003, 5.085617e+002
1.192714e+003, 5.082574e+002
1.193196e+003, 5.048183e+002
1.193678e+003, 5.010097e+002
1.194160e+003, 4.988888e+002
1.194642e+003, 5.017232e+002
1.195124e+003, 5.074638e+002
1.195606e+003, 5.065346e+002
1.196089e+003, 4.994013e+002
1.196571e+003, 5.008494e+002
1.197053e+003, 5.108914e+002
1.197535e+003, 5.156035e+002
1.198017e+003, 5.116328e+002
1.198499e+003, 5.039184e+002
1.198981e+003, 4.951726e+002
1.199463e+003, 4.892001e+002
1.199945e+003, 4.930849e+002
1.200427e+003, 5.017388e+002
1.200910e+003, 5.048514e+002
1.201392e+003, 5.048205e+002
1.201874e+003, 5.074970e+002
1.202356e+003, 5.120583e+002
1.202838e+003, 5.148264e+002
1.203320e+003, 5.144553e+002
1.203802e+003, 5.092169e+002
1.204284e+003, 4.950086e+002
1.204767e+003, 4.851240e+002
1.205249e+003, 4.947623e+002
1.205731e+003, 5.074112e+002
1.206213e+003, 5.096950e+002
1.206695e+003, 5.066707e+002
1.207177e+003, 5.032862e+002
1.207659e+003, 5.010822e+002
1.208141e+003, 5.023431e+002
1.208624e+003, 5.078024e+002
1.209106e+003, 5.114756e+002
1.209588e+003, 5.109353e+002
1.210070e+003, 5.099549e+002
1.210552e+003, 5.094023e+002
1.211034e+003, 5.084850e+002
1.211516e+003, 5.063180e+002
1.211998e+003, 5.039889e+002
1.212480e+003, 5.023139e+002
1.212963e+003, 5.014355e+002
1.213445e+003, 5.021552e+002
1.213927e+003, 5.051361e+002
1.214409e+003, 5.062689e+002
1.214891e+003, 5.052050e+002
1.215373e+003, 5.031645e+002
1.215855e+003, 4.996278e+002
1.216337e+003, 4.993822e+002
1.216819e+003, 5.056754e+002
1.217302e+003, 5.126346e+002
1.217784e+003, 5.129384e+002
1.218266e+003, 5.084366e+002
1.218748e+003, 5.027876e+002
1.219230e+003, 4.974138e+002
1.219712e+003, 5.017051e+002
1.220194e+003, 5.138017e+002
1.220676e+003, 5.229091e+002
1.221159e+003, 5.261249e+002
1.221641e+003, 5.219335e+002
1.222123e+003, 5.091277e+002
1.222605e+003, 4.984671e+002
1.223087e+003, 5.036310e+002
1.223569e+003, 5.137480e+002
1.224051e+003, 5.176685e+002
1.224533e+003, 5.179540e+002
1.225016e+003, 5.179012e+002
1.225498e+003, 5.169487e+002
1.225980e+003, 5.122697e+002
1.226462e+003, 5.043678e+002
1.226944e+003, 4.986064e+002
1.227426e+003, 4.974659e+002
1.227908e+003, 4.968396e+002
1.228390e+003, 4.968868e+002
1.228872e+003, 4.951237e+002
1.229354e+003, 4.863770e+002
1.229837e+003, 4.794687e+002
1.230319e+003, 4.844751e+002
1.230801e+003, 4.944284e+002
1.231283e+003, 4.959643e+002
1.231765e+003, 4.894423e+002
1.232247e+003, 4.871462e+002
1.232729e+003, 4.904140e+002
1.233211e+003, 4.941992e+002
1.233694e+003, 4.992099e+002
1.234176e+003, 5.012022e+002
1.234658e+003, 4.983663e+002
1.235140e+003, 4.945489e+002
1.235622e+003, 4.924196e+002
1.236104e+003, 4.913888e+002
1.236586e+003, 4.905985e+002
1.237068e+003, 4.899620e+002
1.237551e+003, 4.885155e+002
1.238033e+003, 4.868683e+002
1.238515e+003, 4.883302e+002
1.238997e+003, 4.924931e+002
1.239479e+003, 4.961326e+002
1.239961e+003, 4.981900e+002
1.240443e+003, 4.988436e+002
1.240925e+003, 4.980318e+002
1.241407e+003, 4.967528e+002
1.241890e+003, 4.960223e+002
1.242372e+003, 4.952336e+002
1.242854e+003, 4.949321e+002
1.243336e+003, 4.933075e+002
1.243818e+003, 4.843057e+002
1.244300e+003, 4.736524e+002
1.244782e+003, 4.749415e+002
1.245264e+003, 4.893995e+002
1.245746e+003, 5.018255e+002
1.246229e+003, 5.095470e+002
1.246711e+003, 5.126072e+002
1.247193e+003, 5.075355e+002
1.247675e+003, 5.024647e+002
1.248157e+003, 4.980731e+002
1.248639e+003, 4.973118e+002
1.249121e+003, 5.050014e+002
1.249603e+003, 5.148569e+002
1.250085e+003, 5.142811e+002
1.250568e+003, 5.042962e+002
1.251050e+003, 5.039505e+002
1.251532e+003, 5.145123e+002
1.252014e+003, 5.210074e+002
1.252496e+003, 5.222794e+002
1.252978e+003, 5.199751e+002
1.253460e+003, 5.146136e+002
1.253942e+003, 5.094947e+002
1.254425e+003, 5.069250e+002
1.254907e+003, 5.055658e+002
1.255389e+003, 5.026823e+002
1.255871e+003, 5.004565e+002
1.256353e+003, 5.056597e+002
1.256835e+003, 5.131080e+002
1.257317e+003, 5.115518e+002
1.257799e+003, 5.040036e+002
1.258281e+003, 4.993943e+002
1.258764e+003, 4.997655e+002
1.259246e+003, 5.038106e+002
1.259728e+003, 5.133958e+002
1.260210e+003, 5.172562e+002
1.260692e+003, 5.029642e+002
1.261174e+003, 4.911978e+002
1.261656e+003, 4.941984e+002
1.262138e+003, 5.009666e+002
1.262620e+003, 5.040426e+002
1.263103e+003, 5.045637e+002
1.263585e+003, 5.043810e+002
1.264067e+003, 5.037510e+002
1.264549e+003, 5.047040e+002
1.265031e+003, 5.081168e+002
1.265513e+003, 5.098410e+002
1.265995e+003, 5.091181e+002
1.266477e+003, 5.106364e+002
1.266960e+003, 5.161259e+002
1.267442e+003, 5.184717e+002
1.267924e+003, 5.132675e+002
1.268406e+003, 5.073228e+002
1.268888e+003, 5.094189e+002
1.269370e+003, 5.153234e+002
1.269852e+003, 5.155558e+002
1.270334e+003, 5.116466e+002
1.270817e+003, 5.049654e+002
1.271299e+003, 4.982319e+002
1.271781e+003, 4.995887e+002
1.272263e+003, 5.078493e+002
1.272745e+003, 5.131989e+002
1.273227e+003, 5.118809e+002
1.273709e+003, 5.095550e+002
1.274191e+003, 5.087467e+002
1.274673e+003, 5.089740e+002
1.275156e+003, 5.119683e+002
1.275638e+003, 5.136699e+002
1.276120e+003, 5.081566e+002
1.276602e+003, 5.024178e+002
1.277084e+003, 5.085225e+002
1.277566e+003, 5.204755e+002
1.278048e+003, 5.158052e+002
1.278530e+003, 4.906505e+002
1.279012e+003, 4.863225e+002
1.279495e+003, 5.119035e+002
1.279977e+003, 5.238424e+002
1.280459e+003, 5.145946e+002
1.280941e+003, 5.075150e+002
1.281423e+003, 5.109717e+002
1.281905e+003, 5.200619e+002
1.282387e+003, 5.317330e+002
1.282869e+003, 5.423136e+002
1.283352e+003, 5.457723e+002
1.283834e+003, 5.433015e+002
1.284316e+003, 5.373797e+002
1.284798e+003, 5.280266e+002
##END=



