##NAMES=Creedite
##RRUFFID=R050141
##IDEAL CHEMISTRY=Ca_3_Al_2_(S^6+^O_4_)(OH)_2_F_8_&#183;2H_2_O
##LOCALITY=Mina de Navidad, Rodeo, Durango, Mexico
##OWNER=RRUFF
##SOURCE=Dave Bunk Minerals
##DESCRIPTION=Radiating group of bladed crystals
##STATUS=The identification of this mineral has been confirmed by X-ray diffraction and chemical analysis
##URL=rruff.info/R050141
##MEASURED CHEMISTRY=Ca_3.00_Al_2.00_(S_1.00_O_4_)(OH)_2_(F_7.31_(OH)_0.69_)_Σ=8_·2H_2_O ; OH estimated by stoichiometry and charge balance OH=10-F
93.40265, 0.0000000E+00
93.88477, 9.397534
94.36688, 9.037184
94.84900, 9.274469
95.33112, 9.987661
95.81323, 10.60108
96.29535, 10.64169
96.77747, 10.29761
97.25958, 10.28541
97.74170, 10.66285
98.22382, 11.37139
98.70593, 12.39053
99.18805, 13.74723
99.67017, 15.11671
100.1523, 16.21392
100.6344, 17.01808
101.1165, 17.97469
101.5986, 19.09847
102.0807, 20.42520
102.5629, 22.16464
103.0450, 24.53267
103.5271, 26.88057
104.0092, 28.50690
104.4913, 29.05745
104.9734, 29.90980
105.4556, 31.39215
105.9377, 33.52045
106.4198, 35.67228
106.9019, 37.90683
107.3840, 40.10819
107.8661, 42.04428
108.3483, 43.14164
108.8304, 44.72940
109.3125, 47.14038
109.7946, 50.53951
110.2767, 54.37930
110.7588, 59.02989
111.2410, 64.10000
111.7231, 68.92654
112.2052, 74.69031
112.6873, 79.29233
113.1694, 81.96904
113.6515, 81.78703
114.1337, 81.13804
114.6158, 80.00438
115.0979, 78.57588
115.5800, 77.39946
116.0621, 76.02351
116.5442, 75.29905
117.0264, 75.76508
117.5085, 78.64122
117.9906, 81.56224
118.4727, 83.29470
118.9548, 84.11642
119.4369, 85.87030
119.9191, 90.10853
120.4012, 95.44854
120.8833, 100.4461
121.3654, 103.6421
121.8475, 107.0968
122.3296, 112.3452
122.8118, 119.4259
123.2939, 126.7954
123.7760, 133.4829
124.2581, 139.7266
124.7402, 146.0471
125.2223, 154.0548
125.7045, 161.5255
126.1866, 165.8934
126.6687, 166.8712
127.1508, 165.5413
127.6329, 161.8045
128.1150, 156.3406
128.5972, 151.2536
129.0793, 147.5331
129.5614, 145.0518
130.0435, 143.8401
130.5256, 144.1964
131.0077, 145.0881
131.4899, 144.7749
131.9720, 143.3609
132.4541, 142.1830
132.9362, 142.0872
133.4183, 142.5915
133.9004, 142.3545
134.3826, 140.7929
134.8647, 138.6355
135.3468, 137.5998
135.8289, 137.6895
136.3110, 138.5339
136.7931, 140.0723
137.2753, 142.3203
137.7574, 144.3557
138.2395, 145.8209
138.7216, 146.9201
139.2037, 148.9639
139.6858, 152.1309
140.1680, 155.7655
140.6501, 159.2348
141.1322, 162.4550
141.6143, 165.9149
142.0964, 169.8062
142.5785, 174.1558
143.0607, 178.6189
143.5428, 183.5596
144.0249, 188.2630
144.5070, 191.8646
144.9891, 194.0473
145.4712, 195.7238
145.9534, 196.9536
146.4355, 197.4916
146.9176, 198.6168
147.3997, 199.9546
147.8818, 202.0172
148.3639, 205.8776
148.8461, 213.1476
149.3282, 220.3142
149.8103, 226.1602
150.2924, 230.4621
150.7745, 234.0235
151.2566, 237.9082
151.7388, 241.1217
152.2209, 240.9232
152.7030, 235.7303
153.1851, 228.5000
153.6672, 220.2721
154.1493, 210.2287
154.6315, 200.5161
155.1136, 190.9512
155.5957, 181.7005
156.0778, 173.2569
156.5599, 164.9991
157.0420, 157.9054
157.5242, 152.4486
158.0063, 148.5769
158.4884, 146.5356
158.9705, 146.9192
159.4526, 149.4349
159.9347, 152.2657
160.4169, 154.5538
160.8990, 157.1738
161.3811, 160.7551
161.8632, 165.7644
162.3453, 171.4513
162.8274, 177.5854
163.3096, 184.1658
163.7917, 191.2747
164.2738, 199.5132
164.7559, 208.0783
165.2380, 216.1787
165.7201, 223.1197
166.2023, 229.8748
166.6844, 236.7845
167.1665, 243.8609
167.6486, 251.6158
168.1307, 260.3317
168.6128, 269.8849
169.0949, 280.1149
169.5771, 290.6942
170.0592, 302.1323
170.5413, 315.2107
171.0234, 330.1493
171.5055, 344.9983
171.9876, 360.4507
172.4698, 374.7871
172.9519, 384.9325
173.4340, 388.4446
173.9161, 387.5694
174.3982, 384.3443
174.8803, 378.8416
175.3625, 371.5421
175.8446, 361.8806
176.3267, 350.6663
176.8088, 339.9662
177.2909, 330.6630
177.7730, 322.5696
178.2552, 315.3882
178.7373, 309.0063
179.2194, 303.5683
179.7015, 299.5733
180.1836, 296.7110
180.6657, 293.8857
181.1479, 289.4330
181.6300, 284.6473
182.1121, 282.2839
182.5942, 282.8946
183.0763, 285.3748
183.5584, 288.1539
184.0406, 291.4148
184.5227, 296.2365
185.0048, 303.2868
185.4869, 312.4155
185.9690, 323.6105
186.4511, 337.0878
186.9333, 352.0939
187.4154, 366.9792
187.8975, 381.9588
188.3796, 398.4920
188.8617, 419.1696
189.3438, 442.8943
189.8260, 465.3887
190.3081, 487.6309
190.7902, 506.6050
191.2723, 516.9013
191.7544, 518.5569
192.2365, 511.5649
192.7187, 494.1428
193.2008, 466.9554
193.6829, 435.6865
194.1650, 399.4769
194.6471, 360.6546
195.1292, 325.1613
195.6114, 292.8215
196.0935, 264.4798
196.5756, 241.6438
197.0577, 224.2641
197.5398, 209.8757
198.0219, 198.4142
198.5041, 189.3889
198.9862, 181.6028
199.4683, 174.9286
199.9504, 169.8272
200.4325, 167.0388
200.9146, 166.6699
201.3968, 166.8376
201.8789, 167.4300
202.3610, 168.2556
202.8431, 168.4252
203.3252, 167.9583
203.8073, 166.7935
204.2895, 164.8828
204.7716, 162.2320
205.2537, 158.8051
205.7358, 154.4267
206.2179, 149.2362
206.7000, 143.9774
207.1822, 138.4492
207.6643, 133.4716
208.1464, 130.0426
208.6285, 128.4937
209.1106, 126.8592
209.5927, 124.4417
210.0749, 121.4159
210.5570, 119.9942
211.0391, 120.5337
211.5212, 122.0200
212.0033, 123.5311
212.4854, 125.0082
212.9676, 126.7129
213.4497, 128.7114
213.9318, 131.0071
214.4139, 133.5098
214.8960, 136.3963
215.3781, 139.2430
215.8603, 141.6426
216.3424, 143.4452
216.8245, 145.2327
217.3066, 147.4652
217.7887, 150.1245
218.2708, 150.7599
218.7529, 148.5868
219.2351, 145.4432
219.7172, 143.2597
220.1993, 142.2742
220.6814, 141.5276
221.1635, 140.6763
221.6456, 139.7014
222.1278, 139.8591
222.6099, 141.5880
223.0920, 143.9323
223.5741, 146.0616
224.0562, 148.4899
224.5383, 149.5975
225.0205, 148.8857
225.5026, 146.3337
225.9847, 143.3921
226.4668, 140.2285
226.9489, 136.5013
227.4310, 131.8364
227.9132, 125.5576
228.3953, 119.6029
228.8774, 114.3818
229.3595, 109.8640
229.8416, 105.6103
230.3237, 101.4560
230.8059, 97.68329
231.2880, 94.65898
231.7701, 92.90543
232.2522, 90.82699
232.7343, 87.89589
233.2164, 84.02753
233.6986, 81.10020
234.1807, 79.28127
234.6628, 78.22601
235.1449, 77.71986
235.6270, 78.16652
236.1091, 78.36180
236.5913, 77.94499
237.0734, 76.89384
237.5555, 76.34202
238.0376, 76.59520
238.5197, 77.03280
239.0018, 77.03929
239.4840, 76.32091
239.9661, 75.71935
240.4482, 75.33727
240.9303, 75.17493
241.4124, 75.30122
241.8945, 75.84877
242.3767, 76.54319
242.8588, 77.13123
243.3409, 77.52915
243.8230, 77.99471
244.3051, 78.65730
244.7872, 79.50240
245.2694, 79.92278
245.7515, 79.44527
246.2336, 79.07085
246.7157, 79.68956
247.1978, 81.83776
247.6799, 83.91734
248.1621, 85.67632
248.6442, 87.15012
249.1263, 88.62074
249.6084, 90.19552
250.0905, 91.65246
250.5726, 92.80515
251.0548, 93.54228
251.5369, 94.22431
252.0190, 94.93605
252.5011, 95.65295
252.9832, 96.05486
253.4653, 95.91496
253.9475, 95.77283
254.4296, 96.12664
254.9117, 97.52600
255.3938, 98.13087
255.8759, 97.57357
256.3580, 96.01950
256.8401, 94.47624
257.3223, 92.96241
257.8044, 91.41212
258.2865, 89.78330
258.7686, 88.10408
259.2507, 86.29494
259.7328, 84.21076
260.2150, 82.01315
260.6971, 80.22493
261.1792, 78.95487
261.6613, 77.93392
262.1434, 76.98901
262.6255, 76.05986
263.1077, 75.43282
263.5898, 75.19217
264.0719, 75.25291
264.5540, 75.35345
265.0361, 75.49491
265.5182, 75.67582
266.0004, 75.91730
266.4825, 76.25355
266.9646, 76.50404
267.4467, 76.63474
267.9288, 76.68635
268.4109, 76.75002
268.8931, 76.81586
269.3752, 76.91734
269.8573, 77.03584
270.3394, 77.12944
270.8215, 77.47142
271.3036, 78.13510
271.7858, 78.98665
272.2679, 79.74399
272.7500, 80.41249
273.2321, 80.97935
273.7142, 81.40248
274.1964, 81.65883
274.6785, 81.93436
275.1606, 82.15996
275.6427, 82.50253
276.1248, 83.39898
276.6069, 85.02245
277.0891, 86.31947
277.5712, 86.61208
278.0533, 85.87908
278.5354, 86.08876
279.0175, 87.40697
279.4996, 89.30224
279.9818, 91.09544
280.4639, 92.76934
280.9460, 94.35970
281.4281, 95.95763
281.9102, 97.52260
282.3923, 98.50430
282.8745, 98.75383
283.3566, 98.90779
283.8387, 99.86064
284.3208, 101.6430
284.8029, 103.1150
285.2850, 103.8988
285.7672, 104.1160
286.2493, 104.3228
286.7314, 104.5446
287.2135, 104.6110
287.6956, 104.3257
288.1777, 103.7012
288.6599, 102.9589
289.1420, 102.1591
289.6241, 101.2704
290.1062, 100.1403
290.5883, 98.74750
291.0704, 97.36330
291.5526, 96.17343
292.0347, 95.16413
292.5168, 94.29937
292.9989, 93.58351
293.4810, 92.97906
293.9631, 92.38009
294.4453, 91.78983
294.9274, 91.29962
295.4095, 91.16160
295.8916, 91.20169
296.3737, 90.73296
296.8558, 89.38824
297.3380, 88.04741
297.8201, 88.28170
298.3022, 89.86075
298.7843, 91.29506
299.2664, 91.50664
299.7485, 90.95226
300.2307, 90.52285
300.7128, 90.25477
301.1949, 90.33000
301.6770, 91.08163
302.1591, 92.38782
302.6412, 93.81310
303.1234, 95.35977
303.6055, 96.81905
304.0876, 97.79977
304.5697, 98.19664
305.0518, 98.62738
305.5339, 99.73481
306.0161, 101.2897
306.4982, 102.7909
306.9803, 104.3093
307.4624, 105.5051
307.9445, 105.6814
308.4266, 104.8118
308.9088, 104.2517
309.3909, 105.5348
309.8730, 107.6240
310.3551, 109.0301
310.8372, 108.5110
311.3193, 107.6342
311.8015, 107.4974
312.2836, 108.0534
312.7657, 108.8829
313.2478, 110.6917
313.7299, 112.2468
314.2120, 112.2634
314.6942, 109.1049
315.1763, 105.8315
315.6584, 104.2829
316.1405, 104.0344
316.6226, 103.5612
317.1047, 101.7051
317.5869, 99.65965
318.0690, 98.33210
318.5511, 98.38729
319.0332, 98.27566
319.5153, 97.20323
319.9974, 95.53965
320.4796, 94.14690
320.9617, 93.72453
321.4438, 93.28579
321.9259, 92.19286
322.4080, 89.93839
322.8901, 88.34663
323.3723, 88.56122
323.8544, 89.50898
324.3365, 89.65849
324.8186, 87.43239
325.3007, 85.58171
325.7828, 85.19788
326.2650, 86.68437
326.7471, 87.54126
327.2292, 87.02283
327.7113, 86.00022
328.1934, 85.30064
328.6755, 85.19286
329.1577, 85.17918
329.6398, 85.12282
330.1219, 85.02377
330.6040, 85.27760
331.0861, 86.41982
331.5682, 87.49425
332.0504, 87.81146
332.5325, 86.38387
333.0146, 85.78500
333.4967, 86.57285
333.9788, 88.39571
334.4609, 89.58923
334.9431, 89.88935
335.4252, 89.94721
335.9073, 90.02947
336.3894, 89.99966
336.8715, 90.38151
337.3536, 91.28438
337.8358, 92.53960
338.3179, 93.86098
338.8000, 95.29764
339.2821, 96.63640
339.7642, 97.75253
340.2463, 98.60484
340.7284, 99.55348
341.2105, 100.5094
341.6927, 101.6947
342.1748, 103.3787
342.6569, 105.5835
343.1390, 108.1861
343.6211, 111.3097
344.1032, 114.8318
344.5854, 117.8174
345.0675, 120.1873
345.5496, 122.2457
346.0317, 124.2024
346.5138, 126.0667
346.9959, 127.7779
347.4781, 129.3716
347.9602, 130.7787
348.4423, 132.1668
348.9244, 133.5042
349.4065, 133.8204
349.8886, 131.8871
350.3708, 128.3582
350.8529, 125.2025
351.3350, 122.7890
351.8171, 120.5482
352.2992, 117.5968
352.7813, 114.1711
353.2635, 111.0682
353.7456, 108.9823
354.2277, 107.3536
354.7098, 105.1716
355.1919, 102.2990
355.6740, 99.78194
356.1562, 98.71547
356.6383, 98.64845
357.1204, 98.76138
357.6025, 98.81059
358.0846, 98.84200
358.5667, 98.87238
359.0489, 98.90520
359.5310, 98.98406
360.0131, 99.02591
360.4952, 99.17400
360.9773, 99.60714
361.4594, 100.8599
361.9416, 101.7944
362.4237, 101.4046
362.9058, 100.1800
363.3879, 99.66695
363.8700, 101.2657
364.3521, 103.1563
364.8343, 104.2034
365.3164, 103.8188
365.7985, 103.6434
366.2806, 104.1069
366.7627, 105.0045
367.2448, 105.9995
367.7270, 107.3844
368.2091, 108.5398
368.6912, 109.1300
369.1733, 108.9553
369.6554, 109.2584
370.1375, 110.6595
370.6197, 112.2375
371.1018, 113.2501
371.5839, 113.8729
372.0660, 113.6472
372.5481, 112.0680
373.0302, 109.3996
373.5124, 107.6217
373.9945, 107.0689
374.4766, 106.9563
374.9587, 106.9457
375.4408, 107.3027
375.9229, 106.9264
376.4051, 105.4909
376.8872, 103.4960
377.3693, 101.9860
377.8514, 100.9794
378.3335, 100.3578
378.8156, 100.1748
379.2978, 100.4371
379.7799, 100.5877
380.2620, 100.5696
380.7441, 100.6091
381.2262, 101.1227
381.7083, 102.0855
382.1905, 102.7245
382.6726, 102.4899
383.1547, 101.9206
383.6368, 102.7129
384.1189, 104.8866
384.6010, 107.2977
385.0832, 108.9608
385.5653, 110.1212
386.0474, 111.5044
386.5295, 113.2597
387.0116, 115.2082
387.4937, 117.1134
387.9759, 119.0231
388.4580, 121.1397
388.9401, 123.8268
389.4222, 126.6657
389.9043, 129.0417
390.3864, 130.8731
390.8686, 132.8401
391.3507, 135.8154
391.8328, 139.1837
392.3149, 142.0125
392.7970, 143.6245
393.2791, 144.8327
393.7613, 146.3753
394.2434, 148.1102
394.7255, 148.8131
395.2076, 147.4620
395.6897, 145.1862
396.1718, 142.7624
396.6540, 140.1353
397.1361, 137.6978
397.6182, 135.4391
398.1003, 133.4350
398.5824, 131.8586
399.0645, 131.3671
399.5467, 130.7417
400.0288, 129.5431
400.5109, 127.5956
400.9930, 125.5709
401.4751, 123.1646
401.9572, 120.8517
402.4394, 119.1607
402.9215, 118.6325
403.4036, 117.8295
403.8857, 116.4037
404.3678, 114.4435
404.8499, 112.8435
405.3321, 111.7312
405.8142, 110.7190
406.2963, 109.5257
406.7784, 108.0617
407.2605, 106.9072
407.7426, 106.1792
408.2248, 105.6684
408.7069, 104.9337
409.1890, 103.9622
409.6711, 103.0668
410.1532, 102.3036
410.6353, 101.7096
411.1175, 101.4779
411.5996, 101.6050
412.0817, 102.1230
412.5638, 103.4695
413.0459, 105.3138
413.5280, 106.4931
414.0102, 106.4880
414.4923, 105.9353
414.9744, 105.5241
415.4565, 105.2954
415.9386, 105.4636
416.4207, 106.0944
416.9029, 107.2324
417.3850, 109.0366
417.8671, 111.6547
418.3492, 114.4126
418.8313, 116.7106
419.3134, 118.8643
419.7956, 121.4191
420.2777, 124.5237
420.7598, 128.1417
421.2419, 132.5005
421.7240, 137.5474
422.2061, 142.5815
422.6883, 146.7467
423.1704, 151.2157
423.6525, 156.8878
424.1346, 164.3948
424.6167, 172.4411
425.0988, 181.4053
425.5810, 190.6951
426.0631, 198.8627
426.5452, 204.7065
427.0273, 210.5337
427.5094, 216.8830
427.9915, 223.5546
428.4737, 231.6326
428.9558, 241.3599
429.4379, 252.2506
429.9200, 263.8682
430.4021, 276.2117
430.8842, 289.1014
431.3664, 302.0749
431.8485, 315.6028
432.3306, 331.3851
432.8127, 349.3623
433.2948, 369.8806
433.7769, 392.9618
434.2591, 418.6517
434.7412, 447.5667
435.2233, 479.6760
435.7054, 515.0626
436.1875, 554.2875
436.6696, 597.3907
437.1518, 644.0861
437.6339, 695.5226
438.1160, 750.1777
438.5981, 808.0068
439.0802, 868.3754
439.5623, 924.2148
440.0444, 974.7020
440.5266, 1015.839
441.0087, 1044.307
441.4908, 1061.768
441.9729, 1060.527
442.4550, 1030.713
442.9371, 978.6111
443.4193, 916.2535
443.9014, 841.1468
444.3835, 763.8350
444.8656, 688.2154
445.3477, 613.9227
445.8298, 548.3871
446.3120, 494.6688
446.7941, 449.7162
447.2762, 411.7104
447.7583, 382.3468
448.2404, 357.0320
448.7225, 336.9044
449.2047, 320.6329
449.6868, 305.0193
450.1689, 289.1896
450.6510, 274.9806
451.1331, 263.3951
451.6152, 254.7553
452.0974, 246.4295
452.5795, 238.3034
453.0616, 230.6341
453.5437, 223.2639
454.0258, 216.1060
454.5079, 210.3489
454.9901, 206.4825
455.4722, 204.0055
455.9543, 201.4168
456.4364, 198.7163
456.9185, 196.1902
457.4006, 193.6999
457.8828, 191.4953
458.3649, 190.5650
458.8470, 191.1297
459.3291, 191.9748
459.8112, 192.2087
460.2933, 191.7240
460.7755, 190.2648
461.2576, 187.3152
461.7397, 183.7137
462.2218, 180.1116
462.7039, 176.4813
463.1860, 172.8551
463.6682, 169.3186
464.1503, 165.6877
464.6324, 161.5551
465.1145, 156.1820
465.5966, 152.2986
466.0787, 152.8892
466.5609, 154.8605
467.0430, 154.2255
467.5251, 146.5020
468.0072, 140.0092
468.4893, 137.2147
468.9714, 137.9064
469.4536, 137.9444
469.9357, 136.6550
470.4178, 135.4292
470.8999, 134.9429
471.3820, 135.1242
471.8641, 136.3519
472.3463, 139.0813
472.8284, 142.3617
473.3105, 144.6459
473.7926, 145.6730
474.2747, 147.1223
474.7568, 149.5113
475.2390, 152.7127
475.7211, 156.1812
476.2032, 159.9206
476.6853, 164.0966
477.1674, 169.1819
477.6495, 174.8560
478.1317, 179.9739
478.6138, 184.1790
479.0959, 188.6236
479.5780, 195.1118
480.0601, 202.8721
480.5422, 209.9764
481.0244, 215.3712
481.5065, 220.0085
481.9886, 225.1314
482.4707, 230.5210
482.9528, 234.1794
483.4349, 234.7363
483.9171, 233.5060
484.3992, 231.5035
484.8813, 229.2620
485.3634, 225.4494
485.8455, 219.2359
486.3276, 211.4278
486.8098, 203.2550
487.2919, 194.3626
487.7740, 185.5372
488.2561, 176.9697
488.7382, 168.6051
489.2203, 160.7957
489.7025, 153.6708
490.1846, 147.0253
490.6667, 140.6724
491.1488, 134.5741
491.6309, 129.2964
492.1130, 124.9178
492.5952, 121.2437
493.0773, 117.9232
493.5594, 114.9432
494.0415, 112.1541
494.5236, 109.3881
495.0057, 106.8233
495.4879, 104.9273
495.9700, 103.6727
496.4521, 102.5406
496.9342, 101.3277
497.4163, 99.94185
497.8984, 98.00169
498.3806, 95.19859
498.8627, 93.07384
499.3448, 93.53120
499.8269, 95.23079
500.3090, 96.16692
500.7911, 95.19038
501.2733, 93.70049
501.7554, 91.89068
502.2375, 89.92521
502.7196, 88.61028
503.2017, 88.83011
503.6838, 89.16789
504.1660, 88.88439
504.6481, 87.61545
505.1302, 86.63026
505.6123, 85.94386
506.0944, 85.52737
506.5765, 85.39046
507.0587, 85.63777
507.5408, 85.90110
508.0229, 86.15407
508.5050, 86.36894
508.9871, 86.49465
509.4692, 86.55104
509.9514, 86.38950
510.4335, 85.68069
510.9156, 84.59950
511.3977, 84.27855
511.8798, 84.80444
512.3619, 85.52872
512.8441, 85.74413
513.3262, 85.67279
513.8083, 85.85619
514.2904, 86.59666
514.7725, 87.36953
515.2546, 87.64377
515.7368, 87.55558
516.2189, 87.46574
516.7010, 87.52351
517.1831, 87.64293
517.6652, 87.69108
518.1473, 87.64775
518.6295, 87.93074
519.1116, 88.97546
519.5937, 90.19432
520.0758, 91.15808
520.5579, 91.55571
521.0400, 92.06847
521.5222, 92.75865
522.0043, 93.54293
522.4864, 94.27485
522.9685, 94.95555
523.4506, 95.58583
523.9327, 96.12798
524.4149, 96.60862
524.8970, 97.15437
525.3791, 97.75161
525.8612, 98.50213
526.3433, 99.55547
526.8254, 100.8582
527.3076, 102.0844
527.7897, 103.1674
528.2718, 104.3012
528.7539, 105.8229
529.2360, 107.5732
529.7181, 109.2116
530.2003, 110.6393
530.6824, 111.8719
531.1645, 112.9221
531.6466, 113.7868
532.1287, 114.5314
532.6108, 114.9127
533.0930, 115.3884
533.5751, 116.4218
534.0572, 118.2661
534.5393, 119.4810
535.0214, 119.2860
535.5035, 118.5950
535.9857, 118.2048
536.4678, 118.1933
536.9499, 118.3843
537.4320, 118.8265
537.9141, 119.4418
538.3962, 119.9999
538.8784, 120.4267
539.3605, 121.0434
539.8426, 121.9184
540.3247, 123.0720
540.8068, 124.6903
541.2889, 126.8074
541.7711, 128.9494
542.2532, 130.6492
542.7353, 132.0415
543.2174, 133.4317
543.6995, 134.7875
544.1816, 136.4910
544.6638, 139.4592
545.1459, 142.9953
545.6280, 145.7681
546.1101, 146.4905
546.5922, 146.9822
547.0743, 148.5014
547.5565, 150.7310
548.0386, 152.4763
548.5207, 152.9040
549.0028, 153.1246
549.4849, 153.7318
549.9670, 154.9767
550.4492, 155.7346
550.9313, 156.3934
551.4134, 156.2212
551.8955, 154.3745
552.3776, 149.8702
552.8597, 146.5378
553.3419, 145.1276
553.8240, 144.6140
554.3061, 142.8263
554.7882, 139.6824
555.2703, 136.5182
555.7524, 133.7588
556.2346, 131.4286
556.7167, 129.8023
557.1988, 128.8432
557.6809, 128.0393
558.1630, 126.7269
558.6451, 125.4513
559.1273, 125.1830
559.6094, 126.1958
560.0915, 127.1339
560.5736, 126.8279
561.0557, 126.0801
561.5378, 125.8180
562.0200, 126.5100
562.5021, 127.4984
562.9842, 128.9333
563.4663, 130.5637
563.9484, 131.6681
564.4305, 131.6064
564.9127, 131.7707
565.3948, 132.7021
565.8769, 134.4077
566.3590, 135.4755
566.8411, 135.6942
567.3232, 135.7574
567.8054, 136.3595
568.2875, 137.4968
568.7696, 137.7761
569.2517, 137.0267
569.7338, 135.6878
570.2159, 133.9534
570.6981, 132.0501
571.1802, 130.6331
571.6623, 130.0386
572.1444, 129.8733
572.6265, 130.0432
573.1086, 130.3463
573.5908, 130.1537
574.0729, 128.4392
574.5550, 126.7130
575.0371, 125.9921
575.5192, 126.3786
576.0013, 126.6853
576.4835, 126.2030
576.9656, 125.8616
577.4477, 126.2752
577.9298, 127.8142
578.4119, 129.4369
578.8940, 131.3366
579.3762, 133.1127
579.8583, 133.9237
580.3404, 133.4147
580.8225, 133.8982
581.3046, 136.0948
581.7867, 139.4208
582.2689, 142.1297
582.7510, 144.3101
583.2331, 147.1890
583.7152, 152.1049
584.1973, 157.9442
584.6794, 162.4997
585.1616, 165.7932
585.6437, 169.4905
586.1258, 174.6827
586.6079, 180.8584
587.0900, 187.6813
587.5721, 195.4204
588.0542, 203.0710
588.5363, 209.7549
589.0184, 216.3660
589.5005, 224.0200
589.9827, 233.0878
590.4648, 243.0022
590.9469, 253.8204
591.4290, 265.3783
591.9111, 276.8787
592.3932, 287.9788
592.8754, 300.0159
593.3575, 313.5829
593.8396, 328.5764
594.3217, 343.9878
594.8038, 359.4621
595.2859, 376.6668
595.7681, 397.6609
596.2502, 421.2098
596.7323, 444.5756
597.2144, 467.4064
597.6965, 490.3768
598.1786, 513.7327
598.6608, 537.2375
599.1429, 560.3826
599.6250, 584.3802
600.1071, 606.3915
600.5892, 626.5690
601.0714, 643.8546
601.5535, 655.5882
602.0356, 663.0028
602.5177, 662.5686
602.9998, 653.3196
603.4819, 635.2777
603.9641, 609.9735
604.4462, 575.7316
604.9283, 537.6444
605.4104, 496.7692
605.8925, 452.8107
606.3746, 412.7615
606.8568, 376.1499
607.3389, 343.5292
607.8210, 315.7685
608.3031, 291.9533
608.7852, 270.0750
609.2673, 249.2736
609.7495, 230.7259
610.2316, 215.5564
610.7137, 203.3542
611.1958, 193.2036
611.6779, 186.1989
612.1600, 179.9021
612.6422, 172.9348
613.1243, 165.7026
613.6064, 159.9987
614.0885, 157.0200
614.5706, 154.7033
615.0527, 152.3395
615.5349, 149.8896
616.0170, 148.3283
616.4991, 147.8183
616.9812, 147.7774
617.4633, 147.6911
617.9454, 147.5880
618.4276, 148.1616
618.9097, 149.5424
619.3918, 151.2155
619.8739, 152.2583
620.3560, 153.1471
620.8381, 155.1028
621.3203, 158.8369
621.8024, 163.1524
622.2845, 166.8821
622.7666, 170.5733
623.2487, 175.4135
623.7308, 181.8232
624.2130, 189.4648
624.6951, 198.2252
625.1772, 208.1664
625.6593, 219.3139
626.1414, 232.1796
626.6235, 245.5707
627.1057, 259.2689
627.5878, 273.2714
628.0699, 287.1155
628.5520, 301.0440
629.0341, 314.0949
629.5162, 327.0140
629.9984, 338.7348
630.4805, 343.5019
630.9626, 340.3985
631.4447, 331.2433
631.9268, 315.6852
632.4089, 295.8593
632.8911, 275.4761
633.3732, 254.6967
633.8553, 235.3950
634.3374, 218.8142
634.8195, 204.6319
635.3016, 192.3250
635.7838, 181.7302
636.2659, 173.0311
636.7480, 166.5042
637.2301, 161.9823
637.7122, 158.8820
638.1943, 157.4983
638.6765, 156.9018
639.1586, 156.7007
639.6407, 156.8952
640.1228, 157.5088
640.6049, 158.5588
641.0870, 159.8754
641.5692, 161.2097
642.0513, 162.6830
642.5334, 164.5450
643.0155, 166.7591
643.4976, 169.6607
643.9797, 174.1638
644.4619, 179.3081
644.9440, 183.8894
645.4261, 186.7338
645.9082, 189.8310
646.3903, 194.1015
646.8724, 198.9885
647.3546, 203.1669
647.8367, 205.7775
648.3188, 208.8725
648.8009, 212.7892
649.2830, 217.5204
649.7651, 223.5726
650.2473, 231.3213
650.7294, 238.6878
651.2115, 244.4290
651.6936, 248.9626
652.1757, 253.7440
652.6578, 258.8493
653.1400, 264.9319
653.6221, 272.7664
654.1042, 281.8355
654.5863, 291.6674
655.0684, 302.3234
655.5505, 312.6206
656.0327, 320.7781
656.5148, 328.8471
656.9969, 338.6485
657.4790, 352.1807
657.9611, 365.1223
658.4432, 377.2951
658.9254, 388.7134
659.4075, 399.3438
659.8896, 409.0821
660.3717, 418.5027
660.8538, 427.9844
661.3359, 436.9183
661.8181, 444.0165
662.3002, 449.2953
662.7823, 452.9269
663.2644, 455.5637
663.7465, 456.2432
664.2286, 453.3666
664.7108, 447.2203
665.1929, 439.1378
665.6750, 430.0113
666.1571, 419.0414
666.6392, 405.1424
667.1213, 387.9865
667.6035, 371.2037
668.0856, 355.7777
668.5677, 340.5546
669.0498, 324.6522
669.5319, 307.4036
670.0140, 291.7081
670.4962, 277.5646
670.9783, 264.7576
671.4604, 253.2763
671.9425, 243.0402
672.4246, 233.2098
672.9067, 223.8246
673.3889, 214.8762
673.8710, 206.3943
674.3531, 198.3846
674.8352, 190.9753
675.3173, 183.9558
675.7994, 177.7255
676.2816, 172.8292
676.7637, 168.9227
677.2458, 165.1750
677.7279, 161.9148
678.2100, 158.2032
678.6921, 153.4622
679.1743, 147.9839
679.6564, 143.5977
680.1385, 140.4730
680.6206, 137.8136
681.1027, 135.2886
681.5848, 132.9063
682.0670, 130.6024
682.5491, 128.3691
683.0312, 126.1850
683.5133, 124.0624
683.9954, 121.9500
684.4775, 119.4900
684.9597, 116.6333
685.4418, 114.3909
685.9239, 113.9961
686.4060, 114.0725
686.8881, 113.4572
687.3702, 111.4530
687.8524, 109.8535
688.3345, 109.0372
688.8166, 108.4392
689.2987, 107.4383
689.7808, 105.8895
690.2629, 104.5881
690.7451, 103.6518
691.2272, 102.9159
691.7093, 102.0741
692.1914, 101.1806
692.6735, 100.4844
693.1556, 100.2451
693.6378, 99.98404
694.1199, 98.94144
694.6020, 97.46159
695.0841, 96.37844
695.5662, 96.29398
696.0483, 96.44450
696.5305, 96.73422
697.0126, 97.06414
697.4947, 96.87679
697.9768, 95.69248
698.4589, 94.66946
698.9410, 94.26790
699.4232, 94.42388
699.9053, 94.29569
700.3874, 93.84183
700.8695, 93.40801
701.3516, 93.21294
701.8337, 93.21346
702.3159, 93.33978
702.7980, 93.58771
703.2801, 93.80954
703.7622, 94.16396
704.2443, 94.28609
704.7264, 93.64883
705.2086, 91.90715
705.6907, 90.61912
706.1728, 90.47655
706.6549, 90.82081
707.1370, 91.10723
707.6191, 91.36290
708.1013, 91.47529
708.5834, 91.40606
709.0655, 91.24651
709.5476, 91.10281
710.0297, 90.97365
710.5118, 90.89256
710.9940, 90.92175
711.4761, 90.84660
711.9582, 90.09618
712.4403, 89.05583
712.9224, 88.54747
713.4045, 89.36931
713.8867, 90.24268
714.3688, 90.43978
714.8509, 90.21281
715.3330, 90.14629
715.8151, 90.56181
716.2972, 90.88181
716.7794, 90.96642
717.2615, 90.88547
717.7436, 90.92358
718.2257, 91.11739
718.7078, 91.24986
719.1899, 91.21670
719.6721, 91.06096
720.1542, 90.84037
720.6363, 90.57654
721.1184, 90.42551
721.6005, 90.27545
722.0826, 90.43131
722.5648, 91.50889
723.0469, 93.43086
723.5290, 94.74220
724.0111, 94.61571
724.4932, 93.99290
724.9753, 93.13054
725.4575, 91.85657
725.9396, 91.85406
726.4217, 93.86555
726.9038, 95.70746
727.3859, 95.25279
727.8680, 92.75182
728.3502, 92.50281
728.8323, 94.90181
729.3144, 97.46249
729.7965, 97.34624
730.2786, 95.97820
730.7607, 95.65745
731.2429, 97.03885
731.7250, 98.38469
732.2071, 98.91296
732.6892, 98.90108
733.1713, 98.61310
733.6534, 97.27744
734.1356, 96.85678
734.6177, 97.67783
735.0998, 99.10698
735.5819, 100.4350
736.0640, 101.6806
736.5461, 102.5236
737.0283, 102.7600
737.5104, 102.9535
737.9925, 104.1644
738.4746, 106.0181
738.9567, 107.5098
739.4388, 108.1211
739.9210, 108.5147
740.4031, 108.9038
740.8852, 109.4264
741.3673, 110.3486
741.8494, 112.7394
742.3315, 114.2808
742.8137, 114.1184
743.2958, 112.9475
743.7779, 112.6182
744.2600, 113.1837
744.7421, 114.4022
745.2242, 116.3936
745.7064, 118.8430
746.1885, 121.0869
746.6706, 123.0807
747.1527, 124.4732
747.6348, 124.4331
748.1169, 124.2112
748.5991, 124.7640
749.0812, 126.0700
749.5633, 127.9135
750.0454, 131.2012
750.5275, 134.0104
751.0096, 135.3867
751.4918, 135.4610
751.9739, 136.0453
752.4560, 137.3568
752.9381, 138.5675
753.4202, 138.9141
753.9023, 138.7727
754.3845, 140.5889
754.8666, 144.2310
755.3487, 147.2685
755.8308, 147.0556
756.3129, 145.8369
756.7950, 145.8904
757.2772, 147.3831
757.7593, 149.7194
758.2414, 153.9141
758.7235, 157.8805
759.2056, 160.3194
759.6877, 160.9521
760.1699, 161.7425
760.6520, 162.6449
761.1341, 163.8010
761.6162, 165.4315
762.0983, 167.4716
762.5804, 169.3866
763.0626, 171.1825
763.5447, 172.6874
764.0268, 173.4300
764.5089, 173.9493
764.9910, 175.1697
765.4731, 177.4818
765.9553, 178.9108
766.4374, 177.9688
766.9195, 176.2955
767.4016, 175.2693
767.8837, 175.4618
768.3658, 174.8437
768.8480, 173.1683
769.3301, 171.1236
769.8122, 169.5424
770.2943, 168.3264
770.7764, 166.3715
771.2585, 163.4947
771.7407, 160.2683
772.2228, 157.1755
772.7049, 154.1418
773.1870, 151.0467
773.6691, 147.8128
774.1512, 144.6562
774.6334, 141.5042
775.1155, 138.5592
775.5976, 136.0992
776.0797, 134.7327
776.5618, 132.4806
777.0439, 128.9547
777.5261, 124.9968
778.0082, 121.4875
778.4903, 118.4397
778.9724, 116.0698
779.4545, 114.5422
779.9366, 113.2391
780.4188, 111.4423
780.9009, 109.4378
781.3830, 107.6987
781.8651, 106.3533
782.3472, 105.2757
782.8293, 104.7787
783.3115, 104.3798
783.7936, 103.4044
784.2757, 101.5907
784.7578, 99.83472
785.2399, 98.21043
785.7220, 96.73741
786.2041, 95.30890
786.6862, 94.00066
787.1683, 93.49651
787.6505, 94.29854
788.1326, 95.12498
788.6147, 94.47665
789.0968, 93.01982
789.5789, 91.84743
790.0610, 91.86655
790.5432, 91.52454
791.0253, 89.70222
791.5074, 87.58778
791.9895, 87.21390
792.4716, 89.37109
792.9537, 90.65043
793.4359, 90.33025
793.9180, 89.24265
794.4001, 88.87614
794.8822, 89.05193
795.3643, 88.89749
795.8464, 87.83339
796.3286, 86.92982
796.8107, 87.45522
797.2928, 88.68658
797.7749, 89.40373
798.2570, 88.34312
798.7391, 87.92824
799.2213, 89.00447
799.7034, 90.70316
800.1855, 91.46838
800.6676, 91.07893
801.1497, 91.02393
801.6318, 91.72038
802.1140, 92.67518
802.5961, 92.83508
803.0782, 92.54232
803.5603, 92.87917
804.0424, 94.88580
804.5245, 96.62761
805.0067, 96.38592
805.4888, 95.15473
805.9709, 94.60406
806.4530, 95.49404
806.9351, 96.57269
807.4172, 97.79237
807.8994, 99.07233
808.3815, 100.2753
808.8636, 101.4021
809.3457, 102.3862
809.8278, 103.1465
810.3099, 103.9066
810.7921, 105.1593
811.2742, 106.6191
811.7563, 107.6669
812.2384, 107.5831
812.7205, 107.7281
813.2026, 108.8786
813.6848, 110.5572
814.1669, 111.9612
814.6490, 112.9719
815.1311, 113.9137
815.6132, 114.8805
816.0953, 115.7321
816.5775, 116.1493
817.0596, 116.1966
817.5417, 116.3967
818.0238, 116.9992
818.5059, 117.5149
818.9880, 117.3779
819.4702, 116.8376
819.9523, 116.2638
820.4344, 115.5519
820.9165, 115.1062
821.3986, 115.6406
821.8807, 116.1485
822.3629, 115.1970
822.8450, 112.3257
823.3271, 110.0412
823.8092, 108.7419
824.2913, 107.9768
824.7734, 107.4254
825.2556, 106.8927
825.7377, 105.7631
826.2198, 103.7627
826.7019, 101.5415
827.1840, 99.16148
827.6661, 96.97474
828.1483, 95.35152
828.6304, 95.08473
829.1125, 94.36527
829.5946, 92.93382
830.0767, 91.33251
830.5588, 90.19749
831.0410, 89.52541
831.5231, 89.01323
832.0052, 88.67924
832.4873, 88.23434
832.9694, 87.34800
833.4515, 86.15653
833.9337, 84.69925
834.4158, 82.62946
834.8979, 81.43995
835.3800, 82.49630
835.8621, 84.10163
836.3442, 84.80095
836.8264, 84.40410
837.3085, 83.50045
837.7906, 81.86716
838.2727, 80.40023
838.7548, 80.29675
839.2369, 81.09688
839.7191, 81.22256
840.2012, 80.46390
840.6833, 79.58799
841.1654, 78.98577
841.6475, 78.62630
842.1296, 78.58892
842.6118, 79.10744
843.0939, 78.98642
843.5760, 77.65508
844.0581, 76.36888
844.5402, 76.01385
845.0223, 76.61452
845.5045, 77.00060
845.9866, 77.16981
846.4687, 77.22881
846.9508, 77.41680
847.4329, 77.46250
847.9150, 76.81056
848.3972, 75.44790
848.8793, 74.44508
849.3614, 74.61324
849.8435, 74.87409
850.3256, 74.61415
850.8077, 73.82734
851.2899, 73.36334
851.7720, 73.26288
852.2541, 73.32449
852.7362, 73.52015
853.2183, 73.76860
853.7004, 73.89867
854.1826, 73.89912
854.6647, 73.69878
855.1468, 72.88009
855.6289, 72.18825
856.1110, 72.31670
856.5931, 73.12792
857.0753, 73.32186
857.5574, 72.40419
858.0395, 71.67365
858.5216, 71.61205
859.0037, 71.98344
859.4858, 71.86240
859.9680, 71.31888
860.4501, 71.12157
860.9322, 71.88548
861.4143, 72.87563
861.8964, 73.55028
862.3785, 73.87197
862.8607, 73.77003
863.3428, 72.46377
863.8249, 71.68919
864.3070, 72.03411
864.7891, 72.95979
865.2712, 73.40940
865.7534, 73.35753
866.2355, 73.11874
866.7176, 72.71397
867.1997, 72.27352
867.6818, 71.91613
868.1639, 71.66804
868.6461, 71.59602
869.1282, 71.90309
869.6103, 72.05379
870.0924, 71.36876
870.5745, 70.66893
871.0566, 71.07906
871.5388, 73.37452
872.0209, 74.33692
872.5030, 73.46346
872.9851, 72.11442
873.4672, 71.89830
873.9493, 72.49479
874.4315, 72.97184
874.9136, 73.18662
875.3957, 73.32021
875.8778, 73.56512
876.3599, 73.74084
876.8420, 73.63116
877.3242, 73.02282
877.8063, 72.82451
878.2884, 73.21939
878.7705, 73.69414
879.2526, 73.90767
879.7347, 73.87756
880.2169, 73.71535
880.6990, 73.42709
881.1811, 73.17725
881.6632, 73.13708
882.1453, 73.15109
882.6274, 73.03865
883.1096, 72.80644
883.5917, 72.72353
884.0738, 73.05696
884.5559, 73.26958
885.0380, 73.13996
885.5201, 72.74744
886.0023, 72.51535
886.4844, 72.44129
886.9665, 72.43594
887.4486, 72.49892
887.9307, 72.56877
888.4128, 72.56856
888.8950, 72.51534
889.3771, 72.45341
889.8592, 72.17944
890.3413, 72.18526
890.8234, 72.90250
891.3055, 73.81667
891.7877, 73.78798
892.2698, 72.68371
892.7519, 71.88800
893.2340, 71.71687
893.7161, 71.91606
894.1982, 72.51008
894.6804, 73.14046
895.1625, 73.11192
895.6446, 71.92013
896.1267, 70.76351
896.6088, 69.69946
897.0909, 69.12679
897.5731, 69.51939
898.0552, 71.38902
898.5373, 72.24327
899.0194, 71.81835
899.5015, 71.29076
899.9836, 72.13542
900.4658, 73.61534
900.9479, 74.06020
901.4300, 73.30232
901.9121, 72.53642
902.3942, 72.43696
902.8763, 72.52293
903.3585, 72.52773
903.8406, 72.44260
904.3227, 72.20251
904.8048, 71.67723
905.2869, 71.44273
905.7690, 72.09021
906.2512, 73.11745
906.7333, 72.90292
907.2154, 71.73724
907.6975, 70.94941
908.1796, 71.60038
908.6617, 72.47041
909.1439, 73.05264
909.6260, 73.31741
910.1081, 73.24047
910.5902, 72.58344
911.0723, 72.19495
911.5544, 72.24896
912.0366, 72.64789
912.5187, 73.59563
913.0008, 74.78236
913.4829, 74.91702
913.9650, 73.09097
914.4471, 71.64655
914.9293, 72.85468
915.4114, 74.94695
915.8935, 75.84606
916.3756, 74.52888
916.8577, 73.82487
917.3398, 74.02705
917.8220, 74.23825
918.3041, 73.21251
918.7862, 71.43420
919.2683, 71.12655
919.7504, 72.41541
920.2325, 73.85930
920.7147, 74.74000
921.1968, 75.14227
921.6789, 75.00432
922.1610, 74.29989
922.6431, 73.72561
923.1252, 73.21153
923.6074, 73.02084
924.0895, 73.36018
924.5716, 74.06454
925.0537, 74.61533
925.5358, 75.01072
926.0179, 75.20825
926.5001, 74.87860
926.9822, 74.64986
927.4643, 75.13489
927.9464, 75.99471
928.4285, 76.43843
928.9106, 76.21134
929.3928, 75.94489
929.8749, 75.63345
930.3570, 75.44008
930.8391, 75.65589
931.3212, 76.21175
931.8033, 76.87056
932.2855, 77.64296
932.7676, 78.19011
933.2497, 78.16840
933.7318, 77.86985
934.2139, 77.47947
934.6960, 76.84064
935.1782, 76.85614
935.6603, 77.83790
936.1424, 78.81563
936.6245, 79.03051
937.1066, 78.70225
937.5887, 78.87224
938.0709, 79.48907
938.5530, 80.08911
939.0351, 80.42067
939.5172, 80.62392
939.9993, 80.68131
940.4814, 80.66730
940.9636, 80.90205
941.4457, 81.46252
941.9278, 82.14420
942.4099, 83.05005
942.8920, 83.82113
943.3741, 83.43011
943.8563, 82.27319
944.3384, 81.66399
944.8205, 82.09184
945.3026, 82.92318
945.7847, 84.35342
946.2668, 85.68425
946.7490, 86.01149
947.2311, 84.61843
947.7132, 84.13224
948.1953, 84.71219
948.6774, 85.72900
949.1595, 86.90764
949.6417, 88.03288
950.1238, 88.24031
950.6059, 87.57601
951.0880, 87.48143
951.5701, 89.56046
952.0522, 91.69129
952.5344, 92.49068
953.0165, 92.20096
953.4986, 92.37762
953.9807, 93.04843
954.4628, 94.13033
954.9449, 95.81774
955.4271, 97.56922
955.9092, 98.11276
956.3913, 97.95188
956.8734, 98.31490
957.3555, 100.2140
957.8376, 101.8672
958.3198, 102.0532
958.8019, 102.0425
959.2840, 103.3475
959.7661, 106.2665
960.2482, 108.8107
960.7303, 110.8497
961.2125, 112.6511
961.6946, 114.0186
962.1767, 115.5628
962.6588, 118.5363
963.1409, 122.9967
963.6230, 126.9642
964.1052, 128.6808
964.5873, 130.9403
965.0694, 135.0657
965.5515, 140.7057
966.0336, 145.6572
966.5157, 149.9041
966.9979, 154.1048
967.4800, 158.4028
967.9621, 162.8966
968.4442, 167.0880
968.9263, 171.6411
969.4084, 177.6937
969.8906, 186.4442
970.3727, 195.3837
970.8548, 203.3816
971.3369, 212.6648
971.8190, 225.5816
972.3011, 242.0333
972.7833, 262.0110
973.2654, 285.4058
973.7475, 313.1626
974.2296, 347.9177
974.7117, 385.8113
975.1938, 424.3586
975.6760, 462.9938
976.1581, 502.4631
976.6402, 543.0582
977.1223, 583.2296
977.6044, 620.6312
978.0865, 658.0900
978.5687, 700.4789
979.0508, 748.1645
979.5329, 803.6173
980.0150, 866.8427
980.4971, 939.1952
980.9792, 1016.376
981.4614, 1104.863
981.9435, 1212.577
982.4255, 1336.475
982.9077, 1485.247
983.3898, 1657.777
983.8719, 1861.156
984.3540, 2105.750
984.8361, 2384.732
985.3182, 2698.390
985.8004, 3047.519
986.2825, 3391.537
986.7646, 3771.818
987.2467, 4079.769
987.7288, 4298.249
988.2109, 4412.120
988.6931, 4325.033
989.1752, 4033.135
989.6573, 3640.932
990.1394, 3147.951
990.6215, 2639.157
991.1036, 2182.627
991.5858, 1784.237
992.0679, 1452.800
992.5500, 1212.813
993.0321, 1015.977
993.5142, 863.4149
993.9963, 741.3822
994.4785, 642.2402
994.9606, 564.2880
995.4427, 498.7935
995.9248, 445.7607
996.4069, 401.3017
996.8890, 365.9190
997.3712, 336.1057
997.8533, 310.0459
998.3354, 287.8707
998.8175, 268.4748
999.2996, 252.2051
999.7817, 237.5804
1000.264, 224.7488
1000.746, 212.9259
1001.228, 200.4802
1001.710, 188.2423
1002.192, 178.5078
1002.674, 172.7277
1003.157, 167.5628
1003.639, 161.8490
1004.121, 156.1232
1004.603, 150.8588
1005.085, 146.0177
1005.567, 141.7350
1006.049, 138.0133
1006.531, 134.4356
1007.013, 130.4665
1007.496, 126.6088
1007.978, 123.2690
1008.460, 120.4757
1008.942, 118.1588
1009.424, 116.9512
1009.906, 115.3576
1010.388, 112.8828
1010.870, 110.1678
1011.353, 108.5910
1011.835, 107.8659
1012.317, 106.4165
1012.799, 103.8180
1013.281, 101.3316
1013.763, 99.78769
1014.245, 98.87267
1014.727, 98.60612
1015.209, 99.08900
1015.692, 98.49989
1016.174, 96.57185
1016.656, 94.60320
1017.138, 93.23852
1017.620, 92.27097
1018.102, 91.27717
1018.584, 90.36294
1019.066, 89.78893
1019.549, 90.21241
1020.031, 90.26701
1020.513, 89.20746
1020.995, 87.97126
1021.477, 87.80096
1021.959, 88.71279
1022.441, 88.90838
1022.923, 88.22268
1023.405, 87.33596
1023.888, 86.46567
1024.370, 85.92653
1024.852, 86.19249
1025.334, 87.23730
1025.816, 88.01411
1026.298, 88.58385
1026.780, 88.54665
1027.262, 87.57542
1027.745, 86.20679
1028.227, 85.48567
1028.709, 85.31322
1029.191, 85.40401
1029.673, 85.68887
1030.155, 86.18700
1030.637, 87.29789
1031.119, 88.31483
1031.601, 88.59047
1032.084, 87.99963
1032.566, 87.95224
1033.048, 88.47086
1033.530, 89.13022
1034.012, 89.87145
1034.494, 90.41801
1034.976, 90.18887
1035.458, 89.49539
1035.941, 89.37486
1036.423, 91.05262
1036.905, 91.57457
1037.387, 90.19154
1037.869, 88.20761
1038.351, 87.40228
1038.833, 87.56782
1039.315, 88.38499
1039.797, 89.90619
1040.280, 90.47220
1040.762, 87.54152
1041.244, 84.81126
1041.726, 85.08353
1042.208, 87.82383
1042.690, 88.32500
1043.172, 86.37212
1043.654, 84.77354
1044.136, 84.85293
1044.619, 85.34853
1045.101, 84.69347
1045.583, 83.41093
1046.065, 82.33217
1046.547, 81.80147
1047.029, 81.18697
1047.511, 80.43321
1047.993, 79.64520
1048.476, 78.86778
1048.958, 78.12654
1049.440, 77.56939
1049.922, 77.17060
1050.404, 76.72953
1050.886, 75.84351
1051.368, 75.20631
1051.850, 75.40729
1052.333, 75.99778
1052.815, 76.23111
1053.297, 76.12660
1053.779, 75.24242
1054.261, 73.31239
1054.743, 71.71486
1055.225, 72.41874
1055.707, 73.90433
1056.189, 74.36930
1056.672, 73.50167
1057.154, 73.23379
1057.636, 74.09596
1058.118, 74.70461
1058.600, 74.37441
1059.082, 73.59883
1059.564, 73.70479
1060.046, 74.38704
1060.528, 74.75416
1061.011, 74.38815
1061.493, 73.88206
1061.975, 73.29385
1062.457, 72.80809
1062.939, 72.57088
1063.421, 72.58883
1063.903, 72.81223
1064.385, 73.24366
1064.868, 73.68784
1065.350, 73.95506
1065.832, 74.23463
1066.314, 74.98441
1066.796, 75.87157
1067.278, 75.80880
1067.760, 74.00127
1068.242, 73.23891
1068.724, 74.03889
1069.207, 75.43853
1069.689, 76.44527
1070.171, 77.14697
1070.653, 77.77511
1071.135, 78.35149
1071.617, 78.53069
1072.099, 77.50853
1072.581, 76.87430
1073.063, 77.34441
1073.546, 78.49727
1074.028, 78.84151
1074.510, 78.55830
1074.992, 78.93233
1075.474, 80.54248
1075.956, 82.30929
1076.438, 83.68037
1076.920, 84.68442
1077.403, 85.12509
1077.885, 84.81619
1078.367, 85.82554
1078.849, 88.31227
1079.331, 90.74940
1079.813, 92.06863
1080.295, 92.93130
1080.777, 94.19411
1081.259, 95.68753
1081.742, 97.00883
1082.224, 97.45700
1082.706, 98.73009
1083.188, 101.0725
1083.670, 103.9058
1084.152, 107.2478
1084.634, 110.5444
1085.116, 111.9674
1085.599, 111.5359
1086.081, 110.6864
1086.563, 110.2321
1087.045, 109.3417
1087.527, 107.7205
1088.009, 105.4768
1088.491, 102.5393
1088.973, 98.96099
1089.455, 96.10891
1089.938, 94.25246
1090.420, 92.94495
1090.902, 92.36339
1091.384, 91.75676
1091.866, 90.25435
1092.348, 87.81841
1092.830, 86.23536
1093.312, 85.61845
1093.794, 85.18227
1094.277, 84.59280
1094.759, 84.09056
1095.241, 84.33330
1095.723, 84.79985
1096.205, 84.54976
1096.687, 82.70775
1097.169, 81.75646
1097.651, 82.13289
1098.134, 82.83849
1098.616, 83.26029
1099.098, 83.46823
1099.580, 83.64754
1100.062, 83.81818
1100.544, 84.07268
1101.026, 84.93684
1101.508, 85.26398
1101.990, 84.12043
1102.473, 82.74621
1102.955, 82.67863
1103.437, 83.85659
1103.919, 84.81997
1104.401, 85.47212
1104.883, 85.96081
1105.365, 86.36169
1105.847, 86.67123
1106.329, 86.77977
1106.812, 86.79807
1107.294, 87.09980
1107.776, 87.70874
1108.258, 88.45338
1108.740, 89.31195
1109.222, 90.27805
1109.704, 91.36687
1110.186, 92.55687
1110.669, 93.77789
1111.151, 95.00557
1111.633, 96.70490
1112.115, 99.08369
1112.597, 101.4165
1113.079, 103.4758
1113.561, 105.3475
1114.043, 107.1125
1114.526, 108.8801
1115.008, 110.8192
1115.490, 112.8970
1115.972, 115.5017
1116.454, 118.8255
1116.936, 122.5205
1117.418, 126.4170
1117.900, 130.5566
1118.382, 135.0374
1118.865, 139.9229
1119.347, 145.8152
1119.829, 153.5225
1120.311, 161.5229
1120.793, 168.8064
1121.275, 176.3654
1121.757, 185.0542
1122.239, 194.8643
1122.721, 206.3831
1123.204, 219.5923
1123.686, 232.7991
1124.168, 243.4375
1124.650, 254.9884
1125.132, 271.1760
1125.614, 290.1096
1126.096, 306.1204
1126.578, 318.2145
1127.061, 332.5794
1127.543, 350.1313
1128.025, 368.2234
1128.507, 383.1372
1128.989, 397.9622
1129.471, 415.8590
1129.953, 436.8282
1130.435, 460.7296
1130.917, 487.0505
1131.400, 517.0779
1131.882, 551.6637
1132.364, 588.6699
1132.846, 626.1991
1133.328, 663.2916
1133.810, 700.6262
1134.292, 738.7836
1134.774, 771.2587
1135.256, 798.4143
1135.739, 816.9558
1136.221, 826.3954
1136.703, 825.4473
1137.185, 809.7546
1137.667, 781.1295
1138.149, 744.1200
1138.631, 698.0629
1139.113, 649.0949
1139.596, 596.4488
1140.078, 545.2311
1140.560, 497.8493
1141.042, 454.8538
1141.524, 414.5906
1142.006, 377.4899
1142.488, 343.9479
1142.970, 314.7470
1143.453, 288.8735
1143.935, 266.5892
1144.417, 247.4164
1144.899, 231.0082
1145.381, 217.3660
1145.863, 204.7846
1146.345, 193.3135
1146.827, 183.1077
1147.309, 174.7030
1147.792, 167.2962
1148.274, 160.6864
1148.756, 154.7959
1149.238, 149.4304
1149.720, 144.7556
1150.202, 139.6705
1150.684, 134.0482
1151.166, 128.9440
1151.648, 125.8049
1152.131, 123.2942
1152.613, 119.7380
1153.095, 115.6813
1153.577, 113.7157
1154.059, 115.0136
1154.541, 114.5068
1155.023, 111.1994
1155.505, 107.3575
1155.988, 105.3954
1156.470, 104.5379
1156.952, 104.1526
1157.434, 104.1038
1157.916, 103.3606
1158.398, 101.4897
1158.880, 99.82774
1159.362, 98.73111
1159.844, 97.87346
1160.327, 96.66865
1160.809, 95.42204
1161.291, 94.73834
1161.773, 94.75971
1162.255, 94.55090
1162.737, 93.40793
1163.219, 93.08457
1163.701, 94.65285
1164.183, 96.69319
1164.666, 95.74030
1165.148, 93.03334
1165.630, 91.37402
1166.112, 91.54877
1166.594, 92.27852
1167.076, 93.98131
1167.558, 95.04888
1168.040, 94.38306
1168.523, 92.79005
1169.005, 92.98912
1169.487, 94.48431
1169.969, 95.63737
1170.451, 95.65861
1170.933, 95.91379
1171.415, 96.66182
1171.897, 98.04402
1172.380, 100.4545
1172.862, 103.6002
1173.344, 105.6747
1173.826, 106.9256
1174.308, 108.6846
1174.790, 111.8382
1175.272, 115.1674
1175.754, 118.3479
1176.236, 121.3987
1176.719, 124.1320
1177.201, 126.5947
1177.683, 130.3009
1178.165, 135.1671
1178.647, 140.7054
1179.129, 146.5898
1179.611, 153.0454
1180.093, 159.9031
1180.575, 167.6685
1181.058, 177.1966
1181.540, 188.3792
1182.022, 200.4384
1182.504, 213.3704
1182.986, 225.8209
1183.468, 238.2013
1183.950, 248.4993
1184.432, 256.5467
1184.915, 260.9255
1185.397, 259.4359
1185.879, 251.9987
1186.361, 239.7076
1186.843, 222.6016
1187.325, 204.9629
1187.807, 188.7562
1188.289, 173.9841
1188.771, 160.9393
1189.254, 149.3947
1189.736, 138.9097
1190.218, 129.4418
1190.700, 122.0338
1191.182, 116.8336
1191.664, 112.5979
1192.146, 108.5103
1192.628, 104.8117
1193.110, 101.7076
1193.593, 99.17769
1194.075, 97.29704
1194.557, 96.15118
1195.039, 94.35311
1195.521, 91.53838
1196.003, 89.01741
1196.485, 88.35786
1196.967, 88.19223
1197.450, 87.16373
1197.932, 85.50105
1198.414, 85.00369
1198.896, 85.81602
1199.378, 86.03122
1199.860, 85.10831
1200.342, 83.88638
1200.824, 82.73191
1201.307, 81.96095
1201.789, 82.12594
1202.271, 83.10339
1202.753, 83.47547
1203.235, 83.21419
1203.717, 82.65141
1204.199, 81.75697
1204.681, 81.05381
1205.163, 81.42035
1205.646, 81.98485
1206.128, 81.81029
1206.610, 80.87599
1207.092, 79.81338
1207.574, 78.56596
1208.056, 77.90968
1208.538, 78.24994
1209.020, 78.92371
1209.502, 79.64114
1209.985, 80.11216
1210.467, 79.87193
1210.949, 78.92902
1211.431, 78.08702
1211.913, 77.32721
1212.395, 76.91710
1212.877, 77.14024
1213.359, 77.36027
1213.842, 76.79115
1214.324, 75.99351
1214.806, 75.62444
1215.288, 75.71284
1215.770, 75.92665
1216.252, 76.27460
1216.734, 76.48632
1217.216, 76.34822
1217.698, 76.18171
1218.181, 76.22945
1218.663, 76.43307
1219.145, 76.75847
1219.627, 77.21932
1220.109, 77.52577
1220.591, 77.67482
1221.073, 77.68453
1221.555, 77.58862
1222.037, 77.31950
1222.520, 76.53916
1223.002, 75.72881
1223.484, 75.56236
1223.966, 76.16216
1224.448, 76.03963
1224.930, 75.19997
1225.412, 74.51827
1225.894, 74.57919
1226.377, 74.81409
1226.859, 74.90240
1227.341, 74.88958
1227.823, 74.82075
1228.305, 74.68358
1228.787, 74.66472
1229.269, 74.75967
1229.751, 74.88859
1230.234, 74.97334
1230.716, 75.11319
1231.198, 75.53455
1231.680, 75.92625
1232.162, 75.87978
1232.644, 75.36305
1233.126, 75.12370
1233.608, 75.13798
1234.090, 75.12281
1234.573, 74.80172
1235.055, 74.53763
1235.537, 74.63428
1236.019, 74.80255
1236.501, 74.79962
1236.983, 74.62116
1237.465, 73.85028
1237.947, 72.61586
1238.429, 72.03259
1238.912, 73.60036
1239.394, 74.89998
1239.876, 74.56635
1240.358, 73.78761
1240.840, 73.67835
1241.322, 74.14592
1241.804, 74.51523
1242.286, 74.74854
1242.769, 74.71577
1243.251, 73.85874
1243.733, 73.39925
1244.215, 73.87773
1244.697, 74.63255
1245.179, 75.11602
1245.661, 75.32884
1246.143, 75.21021
1246.625, 74.81377
1247.108, 74.41819
1247.590, 73.99533
1248.072, 73.83041
1248.554, 74.08973
1249.036, 74.39413
1249.518, 74.16193
1250.000, 73.71825
1250.482, 74.27354
1250.964, 75.55251
1251.447, 76.35478
1251.929, 75.85959
1252.411, 75.33289
1252.893, 74.82718
1253.375, 74.52298
1253.857, 74.76238
1254.339, 75.25443
1254.821, 75.43853
1255.304, 75.36479
1255.786, 75.27892
1256.268, 75.47651
1256.750, 75.11510
1257.232, 73.91285
1257.714, 72.91787
1258.196, 73.43098
1258.678, 74.51253
1259.161, 74.93061
1259.643, 74.78984
1260.125, 74.50784
1260.607, 74.06324
1261.089, 73.68704
1261.571, 73.36555
1262.053, 73.30412
1262.535, 74.15565
1263.017, 74.94395
1263.500, 74.27070
1263.982, 72.81467
1264.464, 72.34727
1264.946, 73.15598
1265.428, 73.82355
1265.910, 74.27502
1266.392, 74.67805
1266.874, 75.47340
1267.356, 75.94839
1267.839, 75.15923
1268.321, 73.84100
1268.803, 73.38213
1269.285, 73.83318
1269.767, 74.12356
1270.249, 74.21098
1270.731, 74.23643
1271.213, 74.31054
1271.696, 74.32825
1272.178, 74.18071
1272.660, 73.98354
1273.142, 73.86647
1273.624, 73.81999
1274.106, 73.75056
1274.588, 73.64992
1275.070, 73.48689
1275.552, 73.07204
1276.035, 72.83131
1276.517, 72.92138
1276.999, 73.15160
1277.481, 73.46853
1277.963, 73.75432
1278.445, 73.43745
1278.927, 72.66628
1279.409, 72.13388
1279.891, 72.20973
1280.374, 72.44674
1280.856, 72.85755
1281.338, 73.24706
1281.820, 73.36700
1282.302, 73.38899
1282.784, 73.85631
1283.266, 74.50600
1283.748, 74.55595
1284.230, 73.18984
1284.713, 72.59621
1285.195, 72.97919
1285.677, 73.48640
1286.159, 73.45789
1286.641, 73.19738
1287.123, 72.84171
1287.605, 72.59352
1288.087, 72.96402
1288.570, 74.34044
1289.052, 74.63297
1289.534, 73.76626
1290.016, 72.83777
1290.498, 72.37846
1290.980, 72.34776
1291.462, 73.10193
1291.944, 74.04085
1292.427, 74.34071
1292.909, 73.96013
1293.391, 73.89291
1293.873, 74.07907
1294.355, 73.94136
1294.837, 72.76848
1295.319, 71.77081
1295.801, 71.48820
1296.283, 71.60138
1296.766, 71.99636
1297.248, 72.61244
1297.730, 73.21050
1298.212, 73.73748
1298.694, 73.99242
1299.176, 73.77148
1299.658, 73.50025
1300.140, 73.22359
1300.622, 72.95823
1301.105, 72.69613
1301.587, 72.46830
1302.069, 72.26417
1302.551, 72.15315
1303.033, 72.29953
1303.515, 72.90853
1303.997, 73.37696
1304.479, 73.72145
1304.962, 73.82009
1305.444, 73.63625
1305.926, 73.17426
##END=



