##NAMES=Cuproiridsite
##RRUFFID=R070035
##IDEAL CHEMISTRY=Cu^2+^Ir^3+^_2_S^2-^_4_
##LOCALITY=Miass River, Urals, Russia
##OWNER=RRUFF
##SOURCE=Michael Scott
##DESCRIPTION=Iron-black metallic polished fragment embedded in epoxy
##STATUS=The identification of this mineral has been confirmed only by chemical analysis
##URL=rruff.info/R070035
##MEASURED CHEMISTRY=gray inclusion in the dark phase: (Cu_0.67_Ni_0.17_Fe_0.16_)_Σ=1_(Ir_1.94_Pt_0.04_Ru_0.02_)_Σ=2_S_4.00_ trace amounts of Os.
118.3625, 3758.183
118.8447, 3972.564
119.3268, 4202.426
119.8089, 4449.383
120.2910, 4713.873
120.7731, 4992.765
121.2552, 5285.596
121.7373, 5594.248
122.2195, 5927.815
122.7016, 6279.685
123.1837, 6634.187
123.6658, 6972.064
124.1479, 7307.062
124.6300, 7655.966
125.1122, 8023.515
125.5943, 8403.165
126.0764, 8785.689
126.5585, 9171.942
127.0406, 9569.303
127.5227, 9982.923
128.0049, 10411.94
128.4870, 10855.92
128.9691, 11310.22
129.4512, 11784.22
129.9333, 12313.52
130.4154, 12904.22
130.8976, 13503.40
131.3797, 14035.27
131.8618, 14509.31
132.3439, 14985.99
132.8260, 15506.55
133.3081, 16065.71
133.7903, 16581.98
134.2724, 17049.42
134.7545, 17491.70
135.2366, 17954.66
135.7187, 18440.42
136.2008, 18917.29
136.6829, 19372.64
137.1651, 19801.02
137.6472, 20222.29
138.1293, 20643.19
138.6114, 21054.78
139.0935, 21435.68
139.5756, 21776.68
140.0578, 22109.04
140.5399, 22465.73
141.0220, 22869.17
141.5041, 23224.51
141.9862, 23506.24
142.4683, 23713.54
142.9505, 23935.00
143.4326, 24180.57
143.9147, 24430.31
144.3968, 24654.83
144.8789, 24845.51
145.3610, 25030.08
145.8432, 25217.41
146.3253, 25409.16
146.8074, 25591.52
147.2895, 25746.89
147.7716, 25898.01
148.2537, 26089.29
148.7358, 26342.31
149.2180, 26609.96
149.7001, 26878.01
150.1822, 27111.62
150.6643, 27394.95
151.1464, 27753.12
151.6285, 28164.96
152.1107, 28564.89
152.5928, 28954.67
153.0749, 29327.87
153.5570, 29679.92
154.0391, 29983.59
154.5212, 30299.84
155.0034, 30653.81
155.4855, 31038.70
155.9676, 31391.63
156.4497, 31698.07
156.9318, 31968.97
157.4139, 32212.71
157.8961, 32412.69
158.3782, 32602.72
158.8603, 32796.06
159.3424, 32996.04
159.8245, 33177.60
160.3066, 33320.97
160.7887, 33444.10
161.2709, 33570.59
161.7530, 33708.62
162.2351, 33851.50
162.7172, 33999.05
163.1993, 34154.24
163.6814, 34300.77
164.1636, 34416.18
164.6457, 34517.31
165.1278, 34638.05
165.6099, 34824.70
166.0920, 35019.06
166.5741, 35172.13
167.0563, 35256.79
167.5384, 35338.48
168.0205, 35455.89
168.5026, 35605.32
168.9847, 35771.85
169.4668, 35954.58
169.9490, 36146.93
170.4311, 36341.77
170.9132, 36540.78
171.3953, 36737.53
171.8774, 36927.69
172.3595, 37110.57
172.8416, 37286.91
173.3238, 37458.18
173.8059, 37624.41
174.2880, 37786.47
174.7701, 37946.25
175.2522, 38099.32
175.7343, 38233.29
176.2165, 38347.30
176.6986, 38465.48
177.1807, 38630.89
177.6628, 38819.26
178.1449, 38974.73
178.6270, 39038.50
179.1092, 39062.11
179.5913, 39141.82
180.0734, 39286.75
180.5555, 39448.08
181.0376, 39576.20
181.5197, 39674.16
182.0019, 39766.18
182.4840, 39849.47
182.9661, 39935.28
183.4482, 40057.23
183.9303, 40227.91
184.4124, 40409.59
184.8945, 40554.95
185.3767, 40663.00
185.8588, 40750.67
186.3409, 40810.34
186.8230, 40852.51
187.3051, 40922.05
187.7872, 41030.95
188.2694, 41161.96
188.7515, 41283.72
189.2336, 41397.58
189.7157, 41506.94
190.1978, 41616.21
190.6799, 41725.00
191.1621, 41831.89
191.6442, 41930.23
192.1263, 42030.64
192.6084, 42170.54
193.0905, 42355.79
193.5726, 42540.23
194.0548, 42668.73
194.5369, 42741.92
195.0190, 42848.26
195.5011, 43031.63
195.9832, 43267.02
196.4653, 43419.88
196.9474, 43476.31
197.4296, 43497.74
197.9117, 43544.54
198.3938, 43617.30
198.8759, 43709.25
199.3580, 43826.58
199.8401, 43966.63
200.3223, 44084.76
200.8044, 44174.68
201.2865, 44256.27
201.7686, 44357.38
202.2507, 44482.29
202.7328, 44604.75
203.2150, 44717.53
203.6971, 44820.88
204.1792, 44907.11
204.6613, 44969.84
205.1434, 45024.27
205.6255, 45091.16
206.1077, 45167.65
206.5898, 45267.88
207.0719, 45410.04
207.5540, 45608.40
208.0361, 45766.78
208.5182, 45875.16
209.0004, 45950.51
209.4825, 46031.69
209.9646, 46123.61
210.4467, 46207.19
210.9288, 46264.97
211.4109, 46281.03
211.8931, 46337.73
212.3752, 46452.80
212.8573, 46605.34
213.3394, 46734.22
213.8215, 46828.25
214.3036, 46919.31
214.7858, 47025.29
215.2679, 47152.07
215.7500, 47278.05
216.2321, 47407.26
216.7142, 47533.95
217.1963, 47632.13
217.6785, 47683.02
218.1606, 47734.77
218.6427, 47825.88
219.1248, 47977.46
219.6069, 48109.26
220.0890, 48208.01
220.5712, 48276.76
221.0533, 48346.80
221.5354, 48415.46
222.0175, 48488.34
222.4996, 48569.59
222.9817, 48661.11
223.4638, 48758.46
223.9460, 48862.57
224.4281, 48973.89
224.9102, 49078.02
225.3923, 49171.18
225.8744, 49261.57
226.3565, 49355.92
226.8387, 49456.18
227.3208, 49558.83
227.8029, 49669.86
228.2850, 49789.86
228.7671, 49880.54
229.2492, 49921.51
229.7314, 49954.04
230.2135, 50022.38
230.6956, 50144.54
231.1777, 50271.38
231.6598, 50399.23
232.1419, 50532.82
232.6241, 50627.52
233.1062, 50657.56
233.5883, 50670.27
234.0704, 50724.51
234.5525, 50843.31
235.0346, 50963.29
235.5167, 51072.09
235.9989, 51172.29
236.4810, 51246.34
236.9631, 51262.69
237.4452, 51275.96
237.9273, 51366.43
238.4094, 51580.72
238.8916, 51791.54
239.3737, 51964.02
239.8558, 52093.85
240.3379, 52204.18
240.8200, 52292.46
241.3021, 52362.86
241.7843, 52418.08
242.2664, 52439.36
242.7485, 52476.06
243.2306, 52545.78
243.7127, 52657.44
244.1948, 52768.58
244.6770, 52875.65
245.1591, 52984.17
245.6412, 53107.47
246.1233, 53261.41
246.6054, 53401.53
247.0875, 53512.87
247.5696, 53592.43
248.0518, 53649.18
248.5339, 53661.46
249.0160, 53661.82
249.4981, 53716.69
249.9802, 53857.56
250.4623, 54000.67
250.9445, 54112.24
251.4266, 54172.00
251.9087, 54263.54
252.3908, 54406.59
252.8729, 54571.89
253.3550, 54699.50
253.8372, 54784.91
254.3193, 54838.16
254.8014, 54849.47
255.2835, 54779.76
255.7656, 54790.49
256.2477, 54909.42
256.7299, 55095.39
257.2120, 55258.18
257.6941, 55402.25
258.1762, 55517.70
258.6583, 55593.41
259.1404, 55604.18
259.6226, 55654.30
260.1047, 55757.48
260.5868, 55892.67
261.0689, 56019.32
261.5510, 56145.88
262.0331, 56247.17
262.5153, 56303.40
262.9974, 56294.43
263.4795, 56312.41
263.9616, 56360.10
264.4437, 56434.26
264.9258, 56535.55
265.4079, 56687.05
265.8900, 56813.75
266.3722, 56858.15
266.8543, 56782.63
267.3364, 56801.93
267.8185, 56951.21
268.3006, 57176.49
268.7827, 57357.70
269.2649, 57491.79
269.7470, 57595.30
270.2291, 57661.80
270.7112, 57676.79
271.1933, 57748.99
271.6754, 57906.92
272.1576, 58100.76
272.6397, 58205.15
273.1218, 58197.75
273.6039, 58183.68
274.0860, 58217.64
274.5681, 58304.55
275.0503, 58390.13
275.5324, 58470.48
276.0145, 58550.50
276.4966, 58642.59
276.9787, 58747.87
277.4608, 58857.38
277.9430, 58974.20
278.4251, 59098.48
278.9072, 59190.70
279.3893, 59237.50
279.8714, 59268.95
280.3535, 59346.70
280.8357, 59476.11
281.3178, 59612.07
281.7999, 59736.04
282.2820, 59848.35
282.7641, 59942.95
283.2462, 60016.16
283.7284, 60079.65
284.2105, 60148.72
284.6926, 60223.02
285.1747, 60313.22
285.6568, 60438.66
286.1389, 60592.74
286.6211, 60713.55
287.1032, 60796.94
287.5853, 60852.41
288.0674, 60876.02
288.5495, 60870.34
289.0316, 60892.24
289.5137, 60999.01
289.9958, 61164.55
290.4780, 61264.00
290.9601, 61276.63
291.4422, 61272.29
291.9243, 61352.79
292.4064, 61508.16
292.8885, 61667.93
293.3707, 61802.00
293.8528, 61913.25
294.3349, 62014.04
294.8170, 62104.50
295.2991, 62181.99
295.7813, 62226.30
296.2634, 62248.28
296.7455, 62291.39
297.2276, 62382.52
297.7097, 62508.31
298.1918, 62652.10
298.6740, 62819.57
299.1561, 62966.07
299.6382, 63018.00
300.1203, 63006.80
300.6024, 63017.55
301.0845, 63094.96
301.5667, 63214.00
302.0488, 63360.12
302.5309, 63533.68
303.0130, 63681.55
303.4951, 63728.55
303.9772, 63715.14
304.4594, 63720.45
304.9415, 63784.53
305.4236, 63879.86
305.9057, 63991.19
306.3878, 64117.18
306.8699, 64228.49
307.3521, 64287.83
307.8342, 64322.31
308.3163, 64373.42
308.7984, 64467.25
309.2805, 64576.05
309.7626, 64680.85
310.2448, 64781.66
310.7269, 64886.56
311.2090, 65020.83
311.6911, 65156.20
312.1732, 65259.24
312.6553, 65293.34
313.1375, 65313.63
313.6196, 65345.26
314.1017, 65388.03
314.5838, 65437.27
315.0659, 65473.39
315.5480, 65523.37
316.0301, 65611.16
316.5122, 65783.95
316.9944, 65955.36
317.4765, 66104.31
317.9586, 66229.82
318.4407, 66322.41
318.9228, 66336.42
319.4049, 66343.25
319.8871, 66391.18
320.3692, 66530.43
320.8513, 66663.29
321.3334, 66753.95
321.8155, 66816.23
322.2976, 66905.91
322.7798, 67086.34
323.2619, 67258.56
323.7440, 67372.64
324.2261, 67378.77
324.7082, 67388.59
325.1903, 67406.40
325.6725, 67434.21
326.1546, 67477.88
326.6367, 67550.70
327.1188, 67628.28
327.6009, 67699.56
328.0830, 67743.03
328.5652, 67819.18
329.0473, 67943.96
329.5294, 68098.91
330.0115, 68248.32
330.4936, 68410.66
330.9757, 68545.04
331.4579, 68637.15
331.9400, 68675.26
332.4221, 68708.88
332.9042, 68734.67
333.3863, 68757.82
333.8684, 68780.94
334.3506, 68784.80
334.8327, 68828.67
335.3148, 68948.91
335.7969, 69156.91
336.2790, 69294.28
336.7611, 69334.91
337.2433, 69340.90
337.7254, 69388.50
338.2075, 69488.43
338.6896, 69590.23
339.1717, 69679.82
339.6538, 69758.94
340.1359, 69859.88
340.6180, 69988.54
341.1002, 70118.66
341.5823, 70223.41
342.0644, 70303.24
342.5465, 70366.31
343.0286, 70408.16
343.5107, 70437.41
343.9929, 70479.80
344.4750, 70534.70
344.9571, 70605.77
345.4392, 70702.24
345.9213, 70819.54
346.4034, 70937.38
346.8856, 71055.96
347.3677, 71163.71
347.8498, 71228.40
348.3319, 71253.60
348.8140, 71286.40
349.2961, 71365.07
349.7783, 71475.16
350.2604, 71585.26
350.7425, 71692.42
351.2246, 71793.91
351.7067, 71888.39
352.1888, 71975.01
352.6710, 72050.31
353.1531, 72093.51
353.6352, 72132.74
354.1173, 72208.60
354.5994, 72329.95
355.0815, 72459.38
355.5637, 72580.95
356.0458, 72689.78
356.5279, 72777.68
357.0100, 72820.54
357.4921, 72855.03
357.9742, 72916.71
358.4564, 73010.10
358.9385, 73083.23
359.4206, 73075.33
359.9027, 73043.24
360.3848, 73052.70
360.8669, 73152.91
361.3491, 73273.62
361.8312, 73389.52
362.3133, 73500.70
362.7954, 73614.73
363.2775, 73740.48
363.7596, 73867.27
364.2417, 73987.17
364.7238, 74116.98
365.2060, 74219.80
365.6881, 74281.15
366.1702, 74306.88
366.6523, 74327.52
367.1344, 74290.84
367.6165, 74291.74
368.0987, 74379.55
368.5808, 74686.63
369.0629, 74887.60
369.5450, 74924.65
370.0271, 74862.08
370.5092, 74860.94
370.9914, 74955.52
371.4735, 75065.66
371.9556, 75164.00
372.4377, 75247.42
372.9198, 75331.79
373.4019, 75421.59
373.8841, 75509.29
374.3662, 75580.27
374.8483, 75628.50
375.3304, 75677.71
375.8125, 75728.69
376.2946, 75782.77
376.7768, 75876.10
377.2589, 76021.52
377.7410, 76173.46
378.2231, 76278.48
378.7052, 76335.48
379.1873, 76386.74
379.6695, 76437.63
380.1516, 76492.70
380.6337, 76572.40
381.1158, 76677.05
381.5979, 76785.35
382.0800, 76882.61
382.5622, 76969.81
383.0443, 77041.91
383.5264, 77091.55
384.0085, 77139.41
384.4906, 77213.66
384.9727, 77312.48
385.4549, 77423.31
385.9370, 77552.54
386.4191, 77684.60
386.9012, 77804.70
387.3833, 77916.72
387.8654, 77988.63
388.3475, 77922.11
388.8297, 77797.19
389.3118, 77769.02
389.7939, 78032.89
390.2760, 78336.22
390.7581, 78469.18
391.2402, 78418.88
391.7224, 78372.98
392.2045, 78433.12
392.6866, 78544.16
393.1687, 78648.71
393.6508, 78713.91
394.1329, 78785.86
394.6151, 78888.49
395.0972, 79016.69
395.5793, 79127.02
396.0614, 79211.48
396.5435, 79273.88
397.0256, 79315.27
397.5078, 79278.89
397.9899, 79294.42
398.4720, 79397.74
398.9541, 79559.19
399.4362, 79704.00
399.9183, 79826.42
400.4005, 79938.83
400.8826, 80047.91
401.3647, 80160.98
401.8468, 80245.24
402.3289, 80294.01
402.8110, 80319.46
403.2932, 80332.87
403.7753, 80321.65
404.2574, 80334.27
404.7395, 80385.33
405.2216, 80472.93
405.7037, 80588.34
406.1859, 80746.29
406.6680, 80888.08
407.1501, 80935.59
407.6322, 80889.30
408.1143, 80909.43
408.5964, 81052.59
409.0786, 81251.84
409.5607, 81342.88
410.0428, 81327.87
410.5249, 81306.92
411.0070, 81358.18
411.4891, 81454.38
411.9713, 81522.62
412.4534, 81547.54
412.9355, 81570.24
413.4176, 81638.62
413.8997, 81743.41
414.3818, 81854.66
414.8639, 81967.16
415.3460, 82076.26
415.8282, 82178.52
416.3103, 82274.80
416.7924, 82356.41
417.2745, 82403.14
417.7566, 82438.26
418.2387, 82489.07
418.7209, 82579.98
419.2030, 82673.51
419.6851, 82757.03
420.1672, 82831.05
420.6493, 82894.02
421.1314, 82925.65
421.6136, 82960.61
422.0957, 83020.70
422.5778, 83124.94
423.0599, 83225.67
423.5420, 83303.93
424.0241, 83377.56
424.5063, 83484.51
424.9884, 83678.71
425.4705, 83846.16
425.9526, 83950.40
426.4347, 83980.77
426.9168, 84012.07
427.3990, 84043.56
427.8811, 84076.73
428.3632, 84107.05
428.8453, 84123.31
429.3274, 84177.18
429.8095, 84289.25
430.2917, 84446.09
430.7738, 84578.30
431.2559, 84685.04
431.7380, 84775.28
432.2201, 84861.61
432.7022, 84941.93
433.1844, 84968.98
433.6665, 84915.41
434.1486, 84862.36
434.6307, 84971.79
435.1128, 85213.00
435.5949, 85418.38
436.0771, 85464.10
436.5592, 85433.65
437.0413, 85471.90
437.5234, 85585.65
438.0055, 85703.68
438.4876, 85748.89
438.9697, 85766.73
439.4518, 85826.84
439.9340, 86008.43
440.4161, 86181.93
440.8982, 86231.34
441.3803, 86189.26
441.8624, 86194.15
442.3445, 86366.90
442.8267, 86567.71
443.3088, 86700.92
443.7909, 86721.98
444.2730, 86744.19
444.7551, 86803.62
445.2372, 86877.24
445.7194, 86927.89
446.2015, 86898.72
446.6836, 86898.99
447.1657, 86965.63
447.6478, 87107.80
448.1299, 87217.13
448.6121, 87263.02
449.0942, 87308.75
449.5763, 87415.84
450.0584, 87627.19
450.5405, 87778.27
451.0226, 87835.59
451.5048, 87827.77
451.9869, 87839.23
452.4690, 87869.79
452.9511, 87919.80
453.4332, 87990.52
453.9153, 88081.50
454.3975, 88197.35
454.8796, 88344.38
455.3617, 88489.36
455.8438, 88589.24
456.3259, 88649.46
456.8080, 88688.55
457.2902, 88704.63
457.7723, 88709.88
458.2544, 88714.87
458.7365, 88721.41
459.2186, 88746.37
459.7007, 88799.94
460.1829, 88879.12
460.6650, 88984.44
461.1471, 89128.80
461.6292, 89270.60
462.1113, 89384.85
462.5934, 89477.99
463.0755, 89558.92
463.5576, 89612.77
464.0398, 89670.93
464.5219, 89752.83
465.0040, 89864.71
465.4861, 89959.41
465.9682, 90038.20
466.4503, 90091.98
466.9325, 90111.25
467.4146, 90044.88
467.8967, 90017.46
468.3788, 90044.53
468.8609, 90118.80
469.3430, 90217.84
469.8252, 90359.28
470.3073, 90491.18
470.7894, 90585.66
471.2715, 90637.25
471.7536, 90692.53
472.2357, 90754.25
472.7179, 90813.53
473.2000, 90853.52
473.6821, 90875.15
474.1642, 90903.54
474.6463, 90938.22
475.1284, 90990.09
475.6106, 91101.63
476.0927, 91268.26
476.5748, 91422.77
477.0569, 91488.52
477.5390, 91516.48
478.0211, 91597.78
478.5033, 91762.03
478.9854, 91931.67
479.4675, 92059.13
479.9496, 92146.25
480.4317, 92196.41
480.9138, 92182.87
481.3960, 92156.10
481.8781, 92136.24
482.3602, 92124.31
482.8423, 92134.30
483.3244, 92192.35
483.8065, 92260.38
484.2887, 92311.91
484.7708, 92276.16
485.2529, 92309.01
485.7350, 92458.60
486.2171, 92674.69
486.6992, 92833.53
487.1813, 92909.09
487.6635, 92971.99
488.1456, 93040.96
488.6277, 93115.73
489.1098, 93209.68
489.5919, 93331.27
490.0740, 93451.28
490.5562, 93546.87
491.0383, 93617.30
491.5204, 93651.88
492.0025, 93637.84
492.4846, 93600.27
492.9667, 93582.73
493.4489, 93585.38
493.9310, 93608.16
494.4131, 93647.35
494.8952, 93707.84
495.3773, 93808.10
495.8594, 93954.01
496.3416, 94091.88
496.8237, 94163.01
497.3058, 94205.44
497.7879, 94273.34
498.2700, 94444.95
498.7521, 94587.25
499.2343, 94605.54
499.7164, 94533.66
500.1985, 94509.26
500.6806, 94600.45
501.1627, 94725.89
501.6448, 94847.95
502.1270, 94966.24
502.6091, 95079.85
503.0912, 95195.48
503.5733, 95302.70
504.0554, 95391.33
504.5375, 95473.17
505.0197, 95507.79
505.5018, 95469.20
505.9839, 95378.34
506.4660, 95332.73
506.9481, 95334.04
507.4302, 95373.45
507.9124, 95467.45
508.3945, 95607.72
508.8766, 95695.92
509.3587, 95715.15
509.8408, 95730.87
510.3229, 95840.17
510.8051, 96015.55
511.2871, 96167.55
511.7693, 96234.73
512.2514, 96288.26
512.7335, 96444.93
513.2156, 96674.09
513.6978, 96834.24
514.1799, 96758.34
514.6620, 96630.43
515.1441, 96605.84
515.6262, 96742.55
516.1083, 96866.38
516.5905, 96902.20
517.0726, 96898.88
517.5547, 96918.80
518.0368, 97009.04
518.5189, 97080.11
519.0010, 97096.96
519.4832, 97071.75
519.9653, 97109.04
520.4474, 97250.87
520.9295, 97391.91
521.4116, 97469.45
521.8937, 97466.81
522.3759, 97492.15
522.8580, 97550.86
523.3401, 97627.81
523.8221, 97694.94
524.3043, 97754.17
524.7864, 97853.62
525.2685, 98045.81
525.7506, 98255.20
526.2327, 98294.27
526.7148, 98186.00
527.1970, 98095.41
527.6791, 98157.46
528.1612, 98291.09
528.6433, 98396.48
529.1254, 98457.57
529.6075, 98512.79
530.0897, 98591.27
530.5718, 98675.24
531.0539, 98741.45
531.5360, 98766.66
532.0181, 98791.30
532.5002, 98833.91
532.9824, 98888.48
533.4645, 98924.38
533.9466, 98885.64
534.4287, 98881.30
534.9108, 98959.95
535.3929, 99147.46
535.8751, 99321.32
536.3572, 99497.23
536.8393, 99640.77
537.3214, 99701.55
537.8035, 99668.61
538.2856, 99652.03
538.7678, 99674.02
539.2499, 99725.00
539.7320, 99789.07
540.2141, 99864.77
540.6962, 99937.34
541.1783, 99992.05
541.6605, 100038.4
542.1426, 100092.2
542.6247, 100154.8
543.1068, 100219.5
543.5889, 100294.0
544.0710, 100362.8
544.5532, 100404.2
545.0353, 100379.8
545.5174, 100372.3
545.9995, 100424.4
546.4816, 100518.2
546.9637, 100609.8
547.4459, 100650.4
547.9280, 100726.8
548.4101, 100904.0
548.8922, 101199.1
549.3743, 101354.8
549.8564, 101303.2
550.3386, 101198.1
550.8207, 101151.5
551.3028, 101172.7
551.7849, 101208.6
552.2670, 101259.0
552.7491, 101315.9
553.2313, 101366.0
553.7134, 101409.7
554.1955, 101453.2
554.6776, 101495.6
555.1597, 101541.2
555.6418, 101606.8
556.1240, 101688.8
556.6061, 101756.1
557.0882, 101746.0
557.5703, 101729.8
558.0524, 101796.5
558.5345, 101985.5
559.0167, 102169.1
559.4988, 102300.0
559.9809, 102387.0
560.4630, 102440.1
560.9451, 102433.7
561.4272, 102424.8
561.9094, 102408.1
562.3915, 102392.9
562.8736, 102431.6
563.3557, 102567.4
563.8378, 102694.1
564.3199, 102757.1
564.8021, 102748.0
565.2842, 102761.4
565.7663, 102800.0
566.2484, 102853.9
566.7305, 102921.4
567.2126, 102999.2
567.6948, 103059.4
568.1769, 103090.6
568.6590, 103111.0
569.1411, 103154.7
569.6232, 103212.0
570.1053, 103249.1
570.5875, 103198.1
571.0696, 103154.5
571.5517, 103212.7
572.0338, 103371.7
572.5159, 103541.6
572.9980, 103748.3
573.4801, 103907.9
573.9622, 103940.8
574.4443, 103675.2
574.9265, 103573.9
575.4086, 103821.5
575.8907, 104190.2
576.3728, 104374.1
576.8549, 104281.0
577.3370, 104197.4
577.8192, 104180.4
578.3013, 104217.9
578.7834, 104264.5
579.2655, 104324.6
579.7476, 104365.6
580.2297, 104332.0
580.7119, 104259.1
581.1940, 104294.6
581.6761, 104452.0
582.1582, 104629.7
582.6403, 104740.0
583.1224, 104804.5
583.6046, 104856.9
584.0867, 104909.6
584.5688, 104948.9
585.0509, 104949.4
585.5330, 104931.3
586.0151, 104937.1
586.4973, 104996.7
586.9794, 105065.8
587.4615, 105132.0
587.9436, 105194.4
588.4257, 105253.5
588.9078, 105315.6
589.3900, 105366.9
589.8721, 105386.4
590.3542, 105350.7
590.8363, 105408.8
591.3184, 105604.6
591.8005, 105806.3
592.2827, 105796.4
592.7648, 105601.9
593.2469, 105512.0
593.7290, 105648.8
594.2111, 105868.6
594.6932, 105949.5
595.1754, 105921.7
595.6575, 105901.9
596.1396, 105975.5
596.6217, 106068.8
597.1038, 106109.3
597.5859, 106093.2
598.0681, 106106.9
598.5502, 106226.6
599.0323, 106360.7
599.5144, 106441.2
599.9965, 106399.7
600.4786, 106407.8
600.9608, 106500.4
601.4429, 106623.3
601.9250, 106696.5
602.4071, 106707.6
602.8892, 106708.6
603.3713, 106704.7
603.8535, 106701.8
604.3356, 106731.4
604.8177, 106793.2
605.2998, 106830.5
605.7819, 106757.6
606.2640, 106649.2
606.7462, 106685.8
607.2283, 106873.9
607.7104, 107057.4
608.1925, 107107.4
608.6746, 107099.4
609.1567, 107114.7
609.6389, 107177.9
610.1210, 107252.2
610.6031, 107343.0
611.0852, 107432.0
611.5673, 107491.2
612.0494, 107495.5
612.5316, 107496.6
613.0137, 107497.5
