##NAMES=Cuproiridsite
##RRUFFID=R070035
##IDEAL CHEMISTRY=Cu^2+^Ir^3+^_2_S^2-^_4_
##LOCALITY=Miass River, Urals, Russia
##OWNER=RRUFF
##SOURCE=Michael Scott
##DESCRIPTION=Iron-black metallic polished fragment embedded in epoxy
##STATUS=The identification of this mineral has been confirmed only by chemical analysis
##URL=rruff.info/R070035
##MEASURED CHEMISTRY=gray inclusion in the dark phase: (Cu_0.67_Ni_0.17_Fe_0.16_)_Σ=1_(Ir_1.94_Pt_0.04_Ru_0.02_)_Σ=2_S_4.00_ trace amounts of Os.
118.3625, 3758.183
118.8447, 3972.564
119.3268, 4202.426
119.8089, 4449.383
120.2910, 4713.873
120.7731, 4992.765
121.2552, 5285.596
121.7373, 5594.248
122.2195, 5927.815
122.7016, 6279.685
123.1837, 6634.187
123.6658, 6972.064
124.1479, 7307.062
124.6300, 7655.966
125.1122, 8023.515
125.5943, 8403.165
126.0764, 8785.689
126.5585, 9171.942
127.0406, 9569.303
127.5227, 9982.923
128.0049, 10411.94
128.4870, 10855.92
128.9691, 11310.22
129.4512, 11784.22
129.9333, 12313.52
130.4154, 12904.22
130.8976, 13503.40
131.3797, 14035.27
131.8618, 14509.31
132.3439, 14985.99
132.8260, 15506.55
133.3081, 16065.71
133.7903, 16581.98
134.2724, 17049.42
134.7545, 17491.70
135.2366, 17954.66
135.7187, 18440.42
136.2008, 18917.29
136.6829, 19372.64
137.1651, 19801.02
137.6472, 20222.29
138.1293, 20643.19
138.6114, 21054.78
139.0935, 21435.68
139.5756, 21776.68
140.0578, 22109.04
140.5399, 22465.73
141.0220, 22869.17
141.5041, 23224.51
141.9862, 23506.24
142.4683, 23713.54
142.9505, 23935.00
143.4326, 24180.57
143.9147, 24430.31
144.3968, 24654.83
144.8789, 24845.51
145.3610, 25030.08
145.8432, 25217.41
146.3253, 25409.16
146.8074, 25591.52
147.2895, 25746.89
147.7716, 25898.01
148.2537, 26089.29
148.7358, 26342.31
149.2180, 26609.96
149.7001, 26878.01
150.1822, 27111.62
150.6643, 27394.95
151.1464, 27753.12
151.6285, 28164.96
152.1107, 28564.89
152.5928, 28954.67
153.0749, 29327.87
153.5570, 29679.92
154.0391, 29983.59
154.5212, 30299.84
155.0034, 30653.81
155.4855, 31038.70
155.9676, 31391.63
156.4497, 31698.07
156.9318, 31968.97
157.4139, 32212.71
157.8961, 32412.69
158.3782, 32602.72
158.8603, 32796.06
159.3424, 32996.04
159.8245, 33177.60
160.3066, 33320.97
160.7887, 33444.10
161.2709, 33570.59
161.7530, 33708.62
162.2351, 33851.50
162.7172, 33999.05
163.1993, 34154.24
163.6814, 34300.77
164.1636, 34416.18
164.6457, 34517.31
165.1278, 34638.05
165.6099, 34824.70
166.0920, 35019.06
166.5741, 35172.13
167.0563, 35256.79
167.5384, 35338.48
168.0205, 35455.89
168.5026, 35605.32
168.9847, 35771.85
169.4668, 35954.58
169.9490, 36146.93
170.4311, 36341.77
170.9132, 36540.78
171.3953, 36737.53
171.8774, 36927.69
172.3595, 37110.57
172.8416, 37286.91
173.3238, 37458.18
173.8059, 37624.41
174.2880, 37786.47
174.7701, 37946.25
175.2522, 38099.32
175.7343, 38233.29
176.2165, 38347.30
176.6986, 38465.48
177.1807, 38630.89
177.6628, 38819.26
178.1449, 38974.73
178.6270, 39038.50
179.1092, 39062.11
179.5913, 39141.82
180.0734, 39286.75
180.5555, 39448.08
181.0376, 39576.20
181.5197, 39674.16
182.0019, 39766.18
182.4840, 39849.47
182.9661, 39935.28
183.4482, 40057.23
183.9303, 40227.91
184.4124, 40409.59
184.8945, 40554.95
185.3767, 40663.00
185.8588, 40750.67
186.3409, 40810.34
186.8230, 40852.51
187.3051, 40922.05
187.7872, 41030.95
188.2694, 41161.96
188.7515, 41283.72
189.2336, 41397.58
189.7157, 41506.94
190.1978, 41616.21
190.6799, 41725.00
191.1621, 41831.89
191.6442, 41930.23
192.1263, 42030.64
192.6084, 42170.54
193.0905, 42355.79
193.5726, 42540.23
194.0548, 42668.73
194.5369, 42741.92
195.0190, 42848.26
195.5011, 43031.63
195.9832, 43267.02
196.4653, 43419.88
196.9474, 43476.31
197.4296, 43497.74
197.9117, 43544.54
198.3938, 43617.30
198.8759, 43709.25
199.3580, 43826.58
199.8401, 43966.63
200.3223, 44084.76
200.8044, 44174.68
201.2865, 44256.27
201.7686, 44357.38
202.2507, 44482.29
202.7328, 44604.75
203.2150, 44717.53
203.6971, 44820.88
204.1792, 44907.11
204.6613, 44969.84
205.1434, 45024.27
205.6255, 45091.16
206.1077, 45167.65
206.5898, 45267.88
207.0719, 45410.04
207.5540, 45608.40
208.0361, 45766.78
208.5182, 45875.16
209.0004, 45950.51
209.4825, 46031.69
209.9646, 46123.61
210.4467, 46207.19
210.9288, 46264.97
211.4109, 46281.03
211.8931, 46337.73
212.3752, 46452.80
212.8573, 46605.34
213.3394, 46734.22
213.8215, 46828.25
214.3036, 46919.31
214.7858, 47025.29
215.2679, 47152.07
215.7500, 47278.05
216.2321, 47407.26
216.7142, 47533.95
217.1963, 47632.13
217.6785, 47683.02
218.1606, 47734.77
218.6427, 47825.88
219.1248, 47977.46
219.6069, 48109.26
220.0890, 48208.01
220.5712, 48276.76
221.0533, 48346.80
221.5354, 48415.46
222.0175, 48488.34
222.4996, 48569.59
222.9817, 48661.11
223.4638, 48758.46
223.9460, 48862.57
224.4281, 48973.89
224.9102, 49078.02
225.3923, 49171.18
225.8744, 49261.57
226.3565, 49355.92
226.8387, 49456.18
227.3208, 49558.83
227.8029, 49669.86
228.2850, 49789.86
228.7671, 49880.54
229.2492, 49921.51
229.7314, 49954.04
230.2135, 50022.38
230.6956, 50144.54
231.1777, 50271.38
231.6598, 50399.23
232.1419, 50532.82
232.6241, 50627.52
233.1062, 50657.56
233.5883, 50670.27
234.0704, 50724.51
234.5525, 50843.31
235.0346, 50963.29
235.5167, 51072.09
235.9989, 51172.29
236.4810, 51246.34
236.9631, 51262.69
237.4452, 51275.96
237.9273, 51366.43
238.4094, 51580.72
238.8916, 51791.54
239.3737, 51964.02
239.8558, 52093.85
240.3379, 52204.18
240.8200, 52292.46
241.3021, 52362.86
241.7843, 52418.08
242.2664, 52439.36
242.7485, 52476.06
243.2306, 52545.78
243.7127, 52657.44
244.1948, 52768.58
244.6770, 52875.65
245.1591, 52984.17
245.6412, 53107.47
246.1233, 53261.41
246.6054, 53401.53
247.0875, 53512.87
247.5696, 53592.43
248.0518, 53649.18
248.5339, 53661.46
249.0160, 53661.82
249.4981, 53716.69
249.9802, 53857.56
250.4623, 54000.67
250.9445, 54112.24
251.4266, 54172.00
251.9087, 54263.54
252.3908, 54406.59
252.8729, 54571.89
253.3550, 54699.50
253.8372, 54784.91
254.3193, 54838.16
254.8014, 54849.47
255.2835, 54779.76
255.7656, 54790.49
256.2477, 54909.42
256.7299, 55095.39
257.2120, 55258.18
257.6941, 55402.25
258.1762, 55517.70
258.6583, 55593.41
259.1404, 55604.18
259.6226, 55654.30
260.1047, 55757.48
260.5868, 55892.67
261.0689, 56019.32
261.5510, 56145.88
262.0331, 56247.17
262.5153, 56303.40
262.9974, 56294.43
263.4795, 56312.41
263.9616, 56360.10
264.4437, 56434.26
264.9258, 56535.55
265.4079, 56687.05
265.8900, 56813.75
266.3722, 56858.15
266.8543, 56782.63
267.3364, 56801.93
267.8185, 56951.21
268.3006, 57176.49
268.7827, 57357.70
269.2649, 57491.79
269.7470, 57595.30
270.2291, 57661.80
270.7112, 57676.79
271.1933, 57748.99
271.6754, 57906.92
272.1576, 58100.76
272.6397, 58205.15
273.1218, 58197.75
273.6039, 58183.68
274.0860, 58217.64
274.5681, 58304.55
275.0503, 58390.13
275.5324, 58470.48
276.0145, 58550.50
276.4966, 58642.59
276.9787, 58747.87
277.4608, 58857.38
277.9430, 58974.20
278.4251, 59098.48
278.9072, 59190.70
279.3893, 59237.50
279.8714, 59268.95
280.3535, 59346.70
280.8357, 59476.11
281.3178, 59612.07
281.7999, 59736.04
282.2820, 59848.35
282.7641, 59942.95
283.2462, 60016.16
283.7284, 60079.65
284.2105, 60148.72
284.6926, 60223.02
285.1747, 60313.22
285.6568, 60438.66
286.1389, 60592.74
286.6211, 60713.55
287.1032, 60796.94
287.5853, 60852.41
288.0674, 60876.02
288.5495, 60870.34
289.0316, 60892.24
289.5137, 60999.01
289.9958, 61164.55
290.4780, 61264.00
290.9601, 61276.63
291.4422, 61272.29
291.9243, 61352.79
292.4064, 61508.16
292.8885, 61667.93
293.3707, 61802.00
293.8528, 61913.25
294.3349, 62014.04
294.8170, 62104.50
295.2991, 62181.99
295.7813, 62226.30
296.2634, 62248.28
296.7455, 62291.39
297.2276, 62382.52
297.7097, 62508.31
298.1918, 62652.10
298.6740, 62819.57
299.1561, 62966.07
299.6382, 63018.00
300.1203, 63006.80
300.6024, 63017.55
301.0845, 63094.96
301.5667, 63214.00
302.0488, 63360.12
302.5309, 63533.68
303.0130, 63681.55
303.4951, 63728.55
303.9772, 63715.14
304.4594, 63720.45
304.9415, 63784.53
305.4236, 63879.86
305.9057, 63991.19
306.3878, 64117.18
306.8699, 64228.49
307.3521, 64287.83
307.8342, 64322.31
308.3163, 64373.42
308.7984, 64467.25
309.2805, 64576.05
309.7626, 64680.85
310.2448, 64781.66
310.7269, 64886.56
311.2090, 65020.83
311.6911, 65156.20
312.1732, 65259.24
312.6553, 65293.34
313.1375, 65313.63
313.6196, 65345.26
314.1017, 65388.03
314.5838, 65437.27
315.0659, 65473.39
315.5480, 65523.37
316.0301, 65611.16
316.5122, 65783.95
316.9944, 65955.36
317.4765, 66104.31
317.9586, 66229.82
318.4407, 66322.41
318.9228, 66336.42
319.4049, 66343.25
319.8871, 66391.18
320.3692, 66530.43
320.8513, 66663.29
321.3334, 66753.95
321.8155, 66816.23
322.2976, 66905.91
322.7798, 67086.34
323.2619, 67258.56
323.7440, 67372.64
324.2261, 67378.77
324.7082, 67388.59
325.1903, 67406.40
325.6725, 67434.21
326.1546, 67477.88
326.6367, 67550.70
327.1188, 67628.28
327.6009, 67699.56
328.0830, 67743.03
328.5652, 67819.18
329.0473, 67943.96
329.5294, 68098.91
330.0115, 68248.32
330.4936, 68410.66
330.9757, 68545.04
331.4579, 68637.15
331.9400, 68675.26
332.4221, 68708.88
332.9042, 68734.67
333.3863, 68757.82
333.8684, 68780.94
334.3506, 68784.80
334.8327, 68828.67
335.3148, 68948.91
335.7969, 69156.91
336.2790, 69294.28
336.7611, 69334.91
337.2433, 69340.90
337.7254, 69388.50
338.2075, 69488.43
338.6896, 69590.23
339.1717, 69679.82
339.6538, 69758.94
340.1359, 69859.88
340.6180, 69988.54
341.1002, 70118.66
341.5823, 70223.41
342.0644, 70303.24
342.5465, 70366.31
343.0286, 70408.16
343.5107, 70437.41
343.9929, 70479.80
344.4750, 70534.70
344.9571, 70605.77
345.4392, 70702.24
345.9213, 70819.54
346.4034, 70937.38
346.8856, 71055.96
347.3677, 71163.71
347.8498, 71228.40
348.3319, 71253.60
348.8140, 71286.40
349.2961, 71365.07
349.7783, 71475.16
350.2604, 71585.26
350.7425, 71692.42
351.2246, 71793.91
351.7067, 71888.39
352.1888, 71975.01
352.6710, 72050.31
353.1531, 72093.51
353.6352, 72132.74
354.1173, 72208.60
354.5994, 72329.95
355.0815, 72459.38
355.5637, 72580.95
356.0458, 72689.78
356.5279, 72777.68
357.0100, 72820.54
357.4921, 72855.03
357.9742, 72916.71
358.4564, 73010.10
358.9385, 73083.23
359.4206, 73075.33
359.9027, 73043.24
360.3848, 73052.70
360.8669, 73152.91
361.3491, 73273.62
361.8312, 73389.52
362.3133, 73500.70
362.7954, 73614.73
363.2775, 73740.48
363.7596, 73867.27
364.2417, 73987.17
364.7238, 74116.98
365.2060, 74219.80
365.6881, 74281.15
366.1702, 74306.88
366.6523, 74327.52
367.1344, 74290.84
367.6165, 74291.74
368.0987, 74379.55
368.5808, 74686.63
369.0629, 74887.60
369.5450, 74924.65
370.0271, 74862.08
370.5092, 74860.94
370.9914, 74955.52
371.4735, 75065.66
371.9556, 75164.00
372.4377, 75247.42
372.9198, 75331.79
373.4019, 75421.59
373.8841, 75509.29
374.3662, 75580.27
374.8483, 75628.50
375.3304, 75677.71
375.8125, 75728.69
376.2946, 75782.77
376.7768, 75876.10
377.2589, 76021.52
377.7410, 76173.46
378.2231, 76278.48
378.7052, 76335.48
379.1873, 76386.74
379.6695, 76437.63
380.1516, 76492.70
380.6337, 76572.40
381.1158, 76677.05
381.5979, 76785.35
382.0800, 76882.61
382.5622, 76969.81
383.0443, 77041.91
383.5264, 77091.55
384.0085, 77139.41
384.4906, 77213.66
384.9727, 77312.48
385.4549, 77423.31
385.9370, 77552.54
386.4191, 77684.60
386.9012, 77804.70
387.3833, 77916.72
387.8654, 77988.63
388.3475, 77922.11
388.8297, 77797.19
389.3118, 77769.02
389.7939, 78032.89
390.2760, 78336.22
390.7581, 78469.18
391.2402, 78418.88
391.7224, 78372.98
392.2045, 78433.12
392.6866, 78544.16
393.1687, 78648.71
393.6508, 78713.91
394.1329, 78785.86
394.6151, 78888.49
395.0972, 79016.69
395.5793, 79127.02
396.0614, 79211.48
396.5435, 79273.88
397.0256, 79315.27
397.5078, 79278.89
397.9899, 79294.42
398.4720, 79397.74
398.9541, 79559.19
399.4362, 79704.00
399.9183, 79826.42
400.4005, 79938.83
400.8826, 80047.91
401.3647, 80160.98
401.8468, 80245.24
402.3289, 80294.01
402.8110, 80319.46
403.2932, 80332.87
403.7753, 80321.65
404.2574, 80334.27
404.7395, 80385.33
405.2216, 80472.93
405.7037, 80588.34
406.1859, 80746.29
406.6680, 80888.08
407.1501, 80935.59
407.6322, 80889.30
408.1143, 80909.43
408.5964, 81052.59
409.0786, 81251.84
409.5607, 81342.88
410.0428, 81327.87
410.5249, 81306.92
411.0070, 81358.18
411.4891, 81454.38
411.9713, 81522.62
412.4534, 81547.54
412.9355, 81570.24
413.4176, 81638.62
413.8997, 81743.41
414.3818, 81854.66
414.8639, 81967.16
415.3460, 82076.26
415.8282, 82178.52
416.3103, 82274.80
416.7924, 82356.41
417.2745, 82403.14
417.7566, 82438.26
418.2387, 82489.07
418.7209, 82579.98
419.2030, 82673.51
419.6851, 82757.03
420.1672, 82831.05
420.6493, 82894.02
421.1314, 82925.65
421.6136, 82960.61
422.0957, 83020.70
422.5778, 83124.94
423.0599, 83225.67
423.5420, 83303.93
424.0241, 83377.56
424.5063, 83484.51
424.9884, 83678.71
425.4705, 83846.16
425.9526, 83950.40
426.4347, 83980.77
426.9168, 84012.07
427.3990, 84043.56
427.8811, 84076.73
428.3632, 84107.05
428.8453, 84123.31
429.3274, 84177.18
429.8095, 84289.25
430.2917, 84446.09
430.7738, 84578.30
431.2559, 84685.04
431.7380, 84775.28
432.2201, 84861.61
432.7022, 84941.93
433.1844, 84968.98
433.6665, 84915.41
434.1486, 84862.36
434.6307, 84971.79
435.1128, 85213.00
435.5949, 85418.38
436.0771, 85464.10
436.5592, 85433.65
437.0413, 85471.90
437.5234, 85585.65
438.0055, 85703.68
438.4876, 85748.89
438.9697, 85766.73
439.4518, 85826.84
439.9340, 86008.43
440.4161, 86181.93
440.8982, 86231.34
441.3803, 86189.26
441.8624, 86194.15
442.3445, 86366.90
442.8267, 86567.71
443.3088, 86700.92
443.7909, 86721.98
444.2730, 86744.19
444.7551, 86803.62
445.2372, 86877.24
445.7194, 86927.89
446.2015, 86898.72
446.6836, 86898.99
447.1657, 86965.63
447.6478, 87107.80
448.1299, 87217.13
448.6121, 87263.02
449.0942, 87308.75
449.5763, 87415.84
450.0584, 87627.19
450.5405, 87778.27
451.0226, 87835.59
451.5048, 87827.77
451.9869, 87839.23
452.4690, 87869.79
452.9511, 87919.80
453.4332, 87990.52
453.9153, 88081.50
454.3975, 88197.35
454.8796, 88344.38
455.3617, 88489.36
455.8438, 88589.24
456.3259, 88649.46
456.8080, 88688.55
457.2902, 88704.63
457.7723, 88709.88
458.2544, 88714.87
458.7365, 88721.41
459.2186, 88746.37
459.7007, 88799.94
460.1829, 88879.12
460.6650, 88984.44
461.1471, 89128.80
461.6292, 89270.60
462.1113, 89384.85
462.5934, 89477.99
463.0755, 89558.92
463.5576, 89612.77
464.0398, 89670.93
464.5219, 89752.83
465.0040, 89864.71
465.4861, 89959.41
465.9682, 90038.20
466.4503, 90091.98
466.9325, 90111.25
467.4146, 90044.88
467.8967, 90017.46
468.3788, 90044.53
468.8609, 90118.80
469.3430, 90217.84
469.8252, 90359.28
470.3073, 90491.18
470.7894, 90585.66
471.2715, 90637.25
471.7536, 90692.53
472.2357, 90754.25
472.7179, 90813.53
473.2000, 90853.52
473.6821, 90875.15
474.1642, 90903.54
474.6463, 90938.22
475.1284, 90990.09
475.6106, 91101.63
476.0927, 91268.26
476.5748, 91422.77
477.0569, 91488.52
477.5390, 91516.48
478.0211, 91597.78
478.5033, 91762.03
478.9854, 91931.67
479.4675, 92059.13
479.9496, 92146.25
480.4317, 92196.41
480.9138, 92182.87
481.3960, 92156.10
481.8781, 92136.24
482.3602, 92124.31
482.8423, 92134.30
483.3244, 92192.35
483.8065, 92260.38
484.2887, 92311.91
484.7708, 92276.16
485.2529, 92309.01
485.7350, 92458.60
486.2171, 92674.69
486.6992, 92833.53
487.1813, 92909.09
487.6635, 92971.99
488.1456, 93040.96
488.6277, 93115.73
489.1098, 93209.68
489.5919, 93331.27
490.0740, 93451.28
490.5562, 93546.87
491.0383, 93617.30
491.5204, 93651.88
492.0025, 93637.84
492.4846, 93600.27
492.9667, 93582.73
493.4489, 93585.38
493.9310, 93608.16
494.4131, 93647.35
494.8952, 93707.84
495.3773, 93808.10
495.8594, 93954.01
496.3416, 94091.88
496.8237, 94163.01
497.3058, 94205.44
497.7879, 94273.34
498.2700, 94444.95
498.7521, 94587.25
499.2343, 94605.54
499.7164, 94533.66
500.1985, 94509.26
500.6806, 94600.45
501.1627, 94725.89
501.6448, 94847.95
502.1270, 94966.24
502.6091, 95079.85
503.0912, 95195.48
503.5733, 95302.70
504.0554, 95391.33
504.5375, 95473.17
505.0197, 95507.79
505.5018, 95469.20
505.9839, 95378.34
506.4660, 95332.73
506.9481, 95334.04
507.4302, 95373.45
507.9124, 95467.45
508.3945, 95607.72
508.8766, 95695.92
509.3587, 95715.15
509.8408, 95730.87
510.3229, 95840.17
510.8051, 96015.55
511.2871, 96167.55
511.7693, 96234.73
512.2514, 96288.26
512.7335, 96444.93
513.2156, 96674.09
513.6978, 96834.24
514.1799, 96758.34
514.6620, 96630.43
515.1441, 96605.84
515.6262, 96742.55
516.1083, 96866.38
516.5905, 96902.20
517.0726, 96898.88
517.5547, 96918.80
518.0368, 97009.04
518.5189, 97080.11
519.0010, 97096.96
519.4832, 97071.75
519.9653, 97109.04
520.4474, 97250.87
520.9295, 97391.91
521.4116, 97469.45
521.8937, 97466.81
522.3759, 97492.15
522.8580, 97550.86
523.3401, 97627.81
523.8221, 97694.94
524.3043, 97754.17
524.7864, 97853.62
525.2685, 98045.81
525.7506, 98255.20
526.2327, 98294.27
526.7148, 98186.00
527.1970, 98095.41
527.6791, 98157.46
528.1612, 98291.09
528.6433, 98396.48
529.1254, 98457.57
529.6075, 98512.79
530.0897, 98591.27
530.5718, 98675.24
531.0539, 98741.45
531.5360, 98766.66
532.0181, 98791.30
532.5002, 98833.91
532.9824, 98888.48
533.4645, 98924.38
533.9466, 98885.64
534.4287, 98881.30
534.9108, 98959.95
535.3929, 99147.46
535.8751, 99321.32
536.3572, 99497.23
536.8393, 99640.77
537.3214, 99701.55
537.8035, 99668.61
538.2856, 99652.03
538.7678, 99674.02
539.2499, 99725.00
539.7320, 99789.07
540.2141, 99864.77
540.6962, 99937.34
541.1783, 99992.05
541.6605, 100038.4
542.1426, 100092.2
542.6247, 100154.8
543.1068, 100219.5
543.5889, 100294.0
544.0710, 100362.8
544.5532, 100404.2
545.0353, 100379.8
545.5174, 100372.3
545.9995, 100424.4
546.4816, 100518.2
546.9637, 100609.8
547.4459, 100650.4
547.9280, 100726.8
548.4101, 100904.0
548.8922, 101199.1
549.3743, 101354.8
549.8564, 101303.2
550.3386, 101198.1
550.8207, 101151.5
551.3028, 101172.7
551.7849, 101208.6
552.2670, 101259.0
552.7491, 101315.9
553.2313, 101366.0
553.7134, 101409.7
554.1955, 101453.2
554.6776, 101495.6
555.1597, 101541.2
555.6418, 101606.8
556.1240, 101688.8
556.6061, 101756.1
557.0882, 101746.0
557.5703, 101729.8
558.0524, 101796.5
558.5345, 101985.5
559.0167, 102169.1
559.4988, 102300.0
559.9809, 102387.0
560.4630, 102440.1
560.9451, 102433.7
561.4272, 102424.8
561.9094, 102408.1
562.3915, 102392.9
562.8736, 102431.6
563.3557, 102567.4
563.8378, 102694.1
564.3199, 102757.1
564.8021, 102748.0
565.2842, 102761.4
565.7663, 102800.0
566.2484, 102853.9
566.7305, 102921.4
567.2126, 102999.2
567.6948, 103059.4
568.1769, 103090.6
568.6590, 103111.0
569.1411, 103154.7
569.6232, 103212.0
570.1053, 103249.1
570.5875, 103198.1
571.0696, 103154.5
571.5517, 103212.7
572.0338, 103371.7
572.5159, 103541.6
572.9980, 103748.3
573.4801, 103907.9
573.9622, 103940.8
574.4443, 103675.2
574.9265, 103573.9
575.4086, 103821.5
575.8907, 104190.2
576.3728, 104374.1
576.8549, 104281.0
577.3370, 104197.4
577.8192, 104180.4
578.3013, 104217.9
578.7834, 104264.5
579.2655, 104324.6
579.7476, 104365.6
580.2297, 104332.0
580.7119, 104259.1
581.1940, 104294.6
581.6761, 104452.0
582.1582, 104629.7
582.6403, 104740.0
583.1224, 104804.5
583.6046, 104856.9
584.0867, 104909.6
584.5688, 104948.9
585.0509, 104949.4
585.5330, 104931.3
586.0151, 104937.1
586.4973, 104996.7
586.9794, 105065.8
587.4615, 105132.0
587.9436, 105194.4
588.4257, 105253.5
588.9078, 105315.6
589.3900, 105366.9
589.8721, 105386.4
590.3542, 105350.7
590.8363, 105408.8
591.3184, 105604.6
591.8005, 105806.3
592.2827, 105796.4
592.7648, 105601.9
593.2469, 105512.0
593.7290, 105648.8
594.2111, 105868.6
594.6932, 105949.5
595.1754, 105921.7
595.6575, 105901.9
596.1396, 105975.5
596.6217, 106068.8
597.1038, 106109.3
597.5859, 106093.2
598.0681, 106106.9
598.5502, 106226.6
599.0323, 106360.7
599.5144, 106441.2
599.9965, 106399.7
600.4786, 106407.8
600.9608, 106500.4
601.4429, 106623.3
601.9250, 106696.5
602.4071, 106707.6
602.8892, 106708.6
603.3713, 106704.7
603.8535, 106701.8
604.3356, 106731.4
604.8177, 106793.2
605.2998, 106830.5
605.7819, 106757.6
606.2640, 106649.2
606.7462, 106685.8
607.2283, 106873.9
607.7104, 107057.4
608.1925, 107107.4
608.6746, 107099.4
609.1567, 107114.7
609.6389, 107177.9
610.1210, 107252.2
610.6031, 107343.0
611.0852, 107432.0
611.5673, 107491.2
612.0494, 107495.5
612.5316, 107496.6
613.0137, 107497.5
613.4958, 107500.5
613.9779, 107516.8
614.4600, 107546.6
614.9421, 107589.4
615.4243, 107649.7
615.9064, 107725.4
616.3885, 107793.5
616.8706, 107852.1
617.3527, 107923.1
617.8348, 108058.5
618.3170, 108215.9
618.7991, 108297.7
619.2812, 108268.3
619.7633, 108221.9
620.2454, 108211.4
620.7275, 108235.3
621.2097, 108291.7
621.6918, 108424.6
622.1739, 108542.3
622.6559, 108627.2
623.1381, 108675.5
623.6202, 108670.5
624.1023, 108542.1
624.5844, 108456.4
625.0665, 108491.8
625.5486, 108655.3
626.0308, 108737.6
626.5129, 108715.6
626.9950, 108689.7
627.4771, 108764.9
627.9592, 108918.3
628.4413, 109016.1
628.9235, 109037.2
629.4056, 109024.5
629.8877, 109017.1
630.3698, 109011.8
630.8519, 109001.9
631.3340, 108960.3
631.8162, 108941.6
632.2983, 108990.5
632.7804, 109088.2
633.2625, 109180.1
633.7446, 109247.6
634.2267, 109312.6
634.7089, 109391.5
635.1910, 109485.0
635.6731, 109532.0
636.1552, 109498.3
636.6373, 109478.7
637.1194, 109553.2
637.6016, 109729.9
638.0837, 109830.2
638.5658, 109840.7
639.0479, 109804.0
639.5300, 109727.3
640.0121, 109640.4
640.4943, 109637.9
640.9764, 109776.4
641.4585, 109941.8
641.9406, 110035.8
642.4227, 110078.9
642.9048, 110112.8
643.3870, 110155.4
643.8691, 110190.3
644.3512, 110216.3
644.8333, 110231.7
645.3154, 110219.3
645.7975, 110129.0
646.2797, 110072.9
646.7618, 110113.8
647.2439, 110265.6
647.7260, 110321.2
648.2081, 110249.2
648.6902, 110179.0
649.1724, 110254.3
649.6545, 110445.7
650.1366, 110591.3
650.6187, 110669.6
651.1008, 110699.4
651.5829, 110675.9
652.0651, 110622.4
652.5472, 110581.4
653.0293, 110562.5
653.5114, 110565.6
653.9935, 110603.2
654.4756, 110662.7
654.9578, 110712.4
655.4399, 110730.0
655.9220, 110752.9
656.4041, 110797.0
656.8862, 110859.9
657.3683, 110903.2
657.8505, 110926.6
658.3326, 110929.3
658.8147, 110887.5
659.2968, 110808.4
659.7789, 110821.4
660.2610, 110938.6
660.7432, 111062.7
661.2253, 111100.6
661.7074, 111076.4
662.1895, 111024.7
662.6716, 110938.0
663.1537, 110869.4
663.6359, 110861.4
664.1180, 110891.6
664.6001, 110928.3
665.0822, 110959.9
665.5643, 111000.7
666.0464, 111071.5
666.5286, 111153.9
667.0107, 111196.7
667.4928, 111196.6
667.9749, 111160.6
668.4570, 111066.6
668.9391, 110935.0
669.4213, 110908.4
669.9034, 110990.7
670.3855, 111090.9
670.8676, 111164.2
671.3497, 111205.9
671.8318, 111189.7
672.3139, 111110.9
672.7960, 111045.2
673.2781, 111058.4
673.7603, 111104.3
674.2424, 111136.3
674.7245, 111134.0
675.2066, 111139.9
675.6887, 111188.6
676.1708, 111239.4
676.6530, 111236.9
677.1351, 111145.3
677.6172, 111075.6
678.0993, 111034.4
678.5814, 111029.9
679.0635, 111110.2
679.5457, 111277.6
680.0278, 111391.2
680.5099, 111361.0
680.9920, 111264.0
681.4741, 111237.6
681.9562, 111272.7
682.4384, 111320.5
682.9205, 111367.8
683.4026, 111404.5
683.8847, 111421.8
684.3668, 111418.7
684.8489, 111404.0
685.3311, 111351.1
685.8132, 111309.8
686.2953, 111316.4
686.7774, 111406.3
687.2595, 111437.9
687.7416, 111392.9
688.2238, 111320.3
688.7059, 111277.1
689.1880, 111261.3
689.6701, 111237.7
690.1522, 110710.9
690.6343, 111083.6
691.1165, 111297.0
691.5986, 111359.6
692.0807, 110820.1
692.5628, 111058.1
693.0449, 110984.5
693.5270, 110898.2
694.0092, 111245.7
694.4913, 110793.7
694.9734, 111134.3
695.4555, 111158.5
695.9376, 111327.6
696.4197, 111183.1
696.9019, 111135.4
697.3840, 111401.4
697.8661, 111493.7
698.3482, 111313.1
698.8303, 111491.3
699.3124, 111028.4
699.7946, 111128.1
700.2767, 111470.5
700.7588, 111305.7
701.2409, 111407.2
701.7230, 111378.7
702.2051, 111294.5
702.6873, 111255.3
703.1694, 111375.3
703.6515, 111532.9
704.1336, 111608.8
704.6157, 111509.4
705.0978, 111427.8
705.5800, 111363.1
706.0621, 111320.7
706.5442, 111312.3
707.0263, 111342.7
707.5084, 111381.6
707.9905, 111430.6
708.4727, 111472.2
708.9548, 111463.5
709.4369, 111414.4
709.9190, 111367.7
710.4011, 111351.9
710.8832, 111342.2
711.3654, 111305.5
711.8475, 111252.4
712.3296, 111228.4
712.8117, 111289.6
713.2938, 111346.6
713.7759, 111339.9
714.2581, 111265.3
714.7402, 111276.3
715.2223, 111427.8
715.7044, 111564.6
716.1865, 111573.6
716.6686, 111459.7
717.1508, 111436.1
717.6329, 111515.6
718.1150, 111595.3
718.5971, 111541.4
719.0792, 111430.1
719.5613, 111417.3
720.0435, 111562.2
720.5256, 111654.8
721.0077, 111489.2
721.4897, 111243.7
721.9719, 111106.6
722.4540, 111229.8
722.9361, 111317.5
723.4182, 111349.1
723.9003, 111340.1
724.3824, 111304.5
724.8646, 111231.6
725.3467, 111184.6
725.8288, 111178.0
726.3109, 111203.0
726.7930, 111241.9
727.2751, 111296.1
727.7573, 111373.6
728.2394, 111527.9
728.7215, 111668.6
729.2036, 111702.0
729.6857, 111650.6
730.1678, 111596.4
730.6500, 111602.5
731.1321, 111578.5
731.6142, 111448.7
732.0963, 111224.2
732.5784, 111130.0
733.0605, 111226.0
733.5427, 111322.8
734.0248, 111298.8
734.5069, 111169.9
734.9890, 111127.8
735.4711, 111173.8
735.9532, 111252.9
736.4354, 111370.7
736.9175, 111472.3
737.3996, 111458.8
737.8817, 111303.0
738.3638, 111161.1
738.8459, 111107.7
739.3281, 111103.0
739.8102, 111114.2
740.2923, 111130.4
740.7744, 111182.3
741.2565, 111307.7
741.7386, 111428.8
742.2208, 111439.6
742.7029, 111332.3
743.1850, 111257.8
743.6671, 111245.9
744.1492, 111250.6
744.6313, 111196.8
745.1135, 111109.0
745.5956, 111047.6
746.0777, 111050.9
746.5598, 111062.1
747.0419, 111036.4
747.5240, 110995.1
748.0062, 110980.4
748.4883, 111035.0
748.9704, 111077.1
749.4525, 111086.6
749.9346, 111074.9
750.4167, 111073.5
750.8989, 111081.2
751.3810, 111110.5
751.8631, 111191.9
752.3452, 111281.6
752.8273, 111244.3
753.3094, 111101.9
753.7916, 110982.7
754.2737, 110960.9
754.7558, 110992.9
755.2379, 111089.1
755.7200, 111234.7
756.2021, 111280.6
756.6843, 111073.2
757.1664, 110864.4
757.6485, 110756.3
758.1306, 110752.0
758.6127, 110799.3
759.0948, 110919.2
759.5770, 111024.7
760.0591, 111048.6
760.5412, 111006.0
761.0233, 110957.5
761.5054, 110906.4
761.9875, 110845.4
762.4697, 110730.5
762.9518, 110624.5
763.4339, 110612.0
763.9160, 110738.9
764.3981, 110813.9
764.8802, 110706.3
765.3624, 110577.6
765.8445, 110554.0
766.3266, 110678.6
766.8087, 110808.2
767.2908, 110971.9
767.7729, 111073.3
768.2551, 110923.0
768.7372, 110580.4
769.2193, 110405.3
769.7014, 110488.6
770.1835, 110638.5
770.6656, 110690.3
771.1477, 110681.3
771.6298, 110665.0
772.1119, 110660.3
772.5941, 110645.0
773.0762, 110612.8
773.5583, 110566.7
774.0404, 110502.8
774.5225, 110389.7
775.0046, 110354.0
775.4868, 110446.0
775.9689, 110584.3
776.4510, 110587.8
776.9331, 110480.3
777.4152, 110409.4
777.8973, 110464.2
778.3795, 110527.9
778.8616, 110452.8
779.3437, 110296.0
779.8258, 110187.5
780.3079, 110237.7
780.7900, 110277.9
781.2722, 110230.1
781.7543, 110133.6
782.2364, 110111.9
782.7185, 110194.1
783.2006, 110264.3
783.6827, 110283.3
784.1649, 110265.2
784.6470, 110244.6
785.1291, 110223.2
785.6112, 110215.1
786.0933, 110248.7
786.5754, 110283.0
787.0576, 110269.1
787.5397, 110217.0
788.0218, 110183.2
788.5039, 110187.6
788.9860, 110213.8
789.4681, 110285.3
789.9503, 110390.3
790.4324, 110353.9
790.9145, 110127.2
791.3966, 109931.2
791.8787, 109914.2
792.3608, 110020.1
792.8430, 110035.0
793.3251, 109967.5
793.8072, 109910.8
794.2893, 109944.6
794.7714, 110004.4
795.2535, 110043.5
795.7357, 110058.2
796.2178, 110041.4
796.6999, 109964.0
797.1820, 109879.6
797.6641, 109809.8
798.1462, 109754.9
798.6284, 109705.7
799.1105, 109658.1
799.5926, 109635.5
800.0747, 109664.0
800.5568, 109728.8
801.0389, 109807.3
801.5211, 109897.1
802.0032, 109946.3
802.4853, 109872.8
802.9674, 109776.1
803.4495, 109752.3
803.9316, 109840.9
804.4138, 109852.4
804.8959, 109711.3
805.3780, 109565.6
805.8601, 109525.7
806.3422, 109608.8
806.8243, 109585.9
807.3065, 109439.3
807.7886, 109298.3
808.2707, 109306.5
808.7528, 109395.5
809.2349, 109444.3
809.7170, 109435.3
810.1992, 109412.1
810.6813, 109387.2
811.1634, 109365.9
811.6455, 109349.4
812.1276, 109327.0
812.6097, 109347.7
813.0919, 109444.8
813.5740, 109531.6
814.0561, 109513.6
814.5382, 109399.1
815.0203, 109335.4
815.5024, 109335.8
815.9846, 109352.7
816.4667, 109344.8
816.9488, 109324.6
817.4309, 109313.4
817.9130, 109324.0
818.3951, 109307.8
818.8773, 109219.8
819.3594, 109117.8
819.8414, 109044.4
820.3235, 108991.6
820.8057, 108999.1
821.2878, 109082.7
821.7699, 109184.8
822.2520, 109253.2
822.7341, 109288.1
823.2162, 109287.1
823.6984, 109247.2
824.1805, 109188.1
824.6626, 109136.4
825.1447, 109067.9
825.6268, 108947.0
826.1089, 108704.3
826.5911, 108557.2
827.0732, 108549.0
827.5553, 108608.1
828.0374, 108694.4
828.5195, 108817.0
829.0016, 108848.5
829.4838, 108768.0
829.9659, 108654.8
830.4480, 108593.7
830.9301, 108563.8
831.4122, 108521.4
831.8943, 108448.3
832.3765, 108409.3
832.8586, 108500.8
833.3407, 108603.6
833.8228, 108592.3
834.3049, 108376.1
834.7870, 108252.5
835.2692, 108233.4
835.7513, 108283.7
836.2334, 108412.9
836.7155, 108595.3
837.1976, 108646.2
837.6797, 108531.1
838.1619, 108397.7
838.6440, 108410.6
839.1261, 108462.5
839.6082, 108420.0
840.0903, 108209.8
840.5724, 108048.4
841.0546, 108002.9
841.5367, 107998.8
842.0188, 107978.7
842.5009, 107932.7
842.9830, 107938.2
843.4651, 108004.8
843.9473, 108088.6
844.4294, 108146.8
844.9115, 108188.5
845.3936, 108241.2
845.8757, 108315.0
846.3578, 108351.1
846.8400, 108304.0
847.3221, 108214.2
847.8042, 108107.9
848.2863, 107973.9
848.7684, 107868.4
849.2505, 107790.3
849.7327, 107744.6
850.2148, 107753.4
850.6969, 107805.1
851.1790, 107827.3
851.6611, 107815.3
852.1432, 107771.2
852.6254, 107662.1
853.1075, 107542.4
853.5896, 107461.8
854.0717, 107424.6
854.5538, 107438.7
855.0359, 107591.2
855.5181, 107710.2
856.0002, 107682.2
856.4823, 107490.4
856.9644, 107376.9
857.4465, 107346.1
857.9286, 107351.7
858.4108, 107378.7
858.8929, 107408.2
859.3750, 107401.4
859.8571, 107356.7
860.3392, 107319.5
860.8214, 107324.5
861.3035, 107333.4
861.7856, 107316.9
862.2677, 107272.2
862.7498, 107267.6
863.2319, 107332.3
863.7141, 107353.4
864.1962, 107219.8
864.6783, 106989.4
865.1604, 106869.9
865.6425, 106856.6
866.1246, 106892.3
866.6068, 106993.7
867.0889, 107087.1
867.5710, 107096.2
868.0531, 107024.4
868.5352, 107019.2
869.0173, 107147.6
869.4994, 107254.7
869.9815, 107295.5
870.4636, 107267.7
870.9457, 107125.6
871.4279, 106873.5
871.9100, 106645.8
872.3921, 106519.2
872.8742, 106450.0
873.3563, 106395.1
873.8384, 106358.8
874.3206, 106358.4
874.8027, 106457.8
875.2848, 106526.1
875.7669, 106513.9
876.2490, 106447.7
876.7311, 106416.2
877.2133, 106419.9
877.6954, 106460.9
878.1775, 106571.9
878.6596, 106679.1
879.1417, 106640.4
879.6238, 106498.5
880.1060, 106360.1
880.5881, 106207.4
881.0702, 106136.1
881.5523, 106266.2
882.0344, 106482.7
882.5165, 106547.9
882.9987, 106413.2
883.4808, 106279.8
883.9629, 106181.3
884.4450, 106102.0
884.9271, 106004.2
885.4092, 105903.6
885.8914, 105847.0
886.3735, 105855.4
886.8556, 105894.5
887.3377, 105993.7
887.8198, 106090.3
888.3019, 106095.0
888.7841, 105912.1
889.2662, 105815.7
889.7483, 105854.2
890.2304, 105914.0
890.7125, 105821.3
891.1946, 105616.0
891.6768, 105542.4
892.1589, 105650.0
892.6410, 105760.0
893.1231, 105716.3
893.6052, 105600.0
894.0873, 105480.0
894.5695, 105342.6
895.0516, 105296.6
895.5337, 105422.5
896.0158, 105536.3
896.4979, 105479.0
896.9800, 105257.2
897.4622, 105142.9
897.9443, 105143.0
898.4264, 105192.7
898.9085, 105300.2
899.3906, 105392.6
899.8727, 105380.9
900.3549, 105259.5
900.8370, 105119.0
901.3191, 104894.9
901.8012, 104756.0
902.2833, 104797.2
902.7654, 104992.3
903.2476, 105104.0
903.7297, 105129.6
904.2118, 105117.8
904.6939, 105100.7
905.1760, 105058.2
905.6581, 104941.0
906.1403, 104770.0
906.6224, 104624.8
907.1045, 104535.9
907.5866, 104478.8
908.0687, 104453.6
908.5508, 104450.9
909.0330, 104446.8
909.5151, 104441.9
909.9972, 104429.8
910.4793, 104408.2
910.9614, 104379.0
911.4435, 104336.6
911.9257, 104290.0
912.4078, 104258.5
912.8899, 104273.0
913.3720, 104271.0
913.8541, 104211.5
914.3362, 104136.6
914.8184, 104098.2
915.3005, 104102.0
915.7826, 104121.2
916.2647, 104160.5
916.7468, 104188.3
917.2289, 104149.2
917.7111, 104076.0
918.1932, 104037.7
918.6752, 104056.6
919.1573, 104054.9
919.6395, 103980.6
920.1216, 103883.3
920.6037, 103799.2
921.0858, 103729.3
921.5679, 103663.1
922.0500, 103592.2
922.5322, 103561.1
923.0143, 103651.2
923.4964, 103792.3
923.9785, 103817.3
924.4606, 103731.1
924.9427, 103640.9
925.4249, 103603.4
925.9070, 103576.4
926.3891, 103528.6
926.8712, 103466.8
927.3533, 103461.6
927.8354, 103543.9
928.3176, 103551.5
928.7997, 103373.5
929.2818, 103129.4
929.7639, 103091.9
930.2460, 103203.4
930.7281, 103292.9
931.2103, 103272.7
931.6924, 103223.6
932.1745, 103154.3
932.6566, 103084.7
933.1387, 103055.6
933.6208, 103085.1
934.1030, 103092.2
934.5851, 103064.3
935.0672, 103013.6
935.5493, 102945.0
936.0314, 102868.6
936.5135, 102806.6
936.9957, 102770.9
937.4778, 102726.7
937.9599, 102640.9
938.4420, 102550.4
938.9241, 102486.1
939.4063, 102452.8
939.8884, 102426.8
940.3705, 102408.5
940.8526, 102396.2
941.3347, 102390.8
941.8168, 102389.9
942.2990, 102403.6
942.7811, 102427.1
943.2632, 102403.6
943.7453, 102242.8
944.2274, 102088.0
944.7095, 102024.3
945.1917, 102034.3
945.6738, 102006.1
946.1559, 101929.2
946.6380, 101871.3
947.1201, 101867.3
947.6022, 101888.1
948.0844, 101889.1
948.5665, 101873.6
949.0486, 101849.9
949.5307, 101823.8
950.0128, 101787.1
950.4949, 101721.8
950.9771, 101652.1
951.4592, 101611.7
951.9413, 101605.1
952.4234, 101608.0
952.9055, 101623.6
953.3876, 101624.5
953.8698, 101567.3
954.3519, 101478.5
954.8340, 101400.0
955.3161, 101342.6
955.7982, 101276.1
956.2803, 101132.0
956.7625, 101031.2
957.2446, 101065.0
957.7267, 101240.2
958.2088, 101337.3
958.6909, 101357.1
959.1730, 101298.6
959.6552, 101077.6
960.1373, 100833.2
960.6194, 100759.3
961.1015, 100827.2
961.5836, 100884.9
962.0657, 100891.1
962.5479, 100869.1
963.0300, 100821.8
963.5121, 100753.3
963.9942, 100666.8
964.4763, 100563.9
964.9584, 100472.4
965.4406, 100396.4
965.9227, 100347.1
966.4048, 100359.9
966.8869, 100397.1
967.3690, 100407.7
967.8511, 100378.2
968.3332, 100314.9
968.8153, 100175.0
969.2974, 100064.3
969.7795, 100116.1
970.2617, 100303.6
970.7438, 100389.7
971.2259, 100362.9
971.7080, 100274.3
972.1901, 100128.7
972.6722, 99963.39
973.1544, 99785.80
973.6365, 99601.36
974.1186, 99528.05
974.6007, 99637.20
975.0828, 99703.65
975.5649, 99621.67
976.0471, 99463.25
976.5292, 99440.30
977.0113, 99518.60
977.4934, 99563.70
977.9755, 99495.32
978.4576, 99408.02
978.9398, 99338.86
979.4219, 99285.92
979.9040, 99244.00
980.3861, 99211.30
980.8682, 99198.55
981.3503, 99213.96
981.8325, 99224.35
982.3146, 99189.88
982.7967, 99123.36
983.2788, 99036.18
983.7609, 98925.72
984.2430, 98861.05
984.7252, 98943.27
985.2073, 99012.05
985.6894, 98965.56
986.1715, 98812.09
986.6536, 98736.48
987.1357, 98746.63
987.6179, 98732.12
988.1000, 98599.57
988.5821, 98443.91
989.0642, 98394.95
989.5463, 98423.11
990.0284, 98455.58
990.5106, 98480.88
990.9927, 98493.84
991.4748, 98512.18
991.9569, 98501.21
992.4390, 98365.48
992.9211, 98122.87
993.4033, 98040.13
993.8854, 98176.36
994.3675, 98314.52
994.8496, 98247.83
995.3317, 98101.60
995.8138, 97984.36
996.2960, 97909.99
996.7781, 97885.64
997.2602, 97955.34
997.7423, 97975.22
998.2244, 97831.27
998.7065, 97590.00
999.1887, 97482.77
999.6708, 97484.79
1000.153, 97483.47
1000.635, 97408.88
1001.117, 97330.08
1001.599, 97275.84
1002.081, 97241.33
1002.563, 97217.11
1003.046, 97209.57
1003.528, 97182.33
1004.010, 97126.52
1004.492, 97064.19
1004.974, 97008.00
1005.456, 96969.73
1005.938, 96983.71
1006.420, 97069.40
1006.903, 97114.69
1007.385, 97056.80
1007.867, 96975.96
1008.349, 96901.62
1008.831, 96835.44
1009.313, 96802.75
1009.795, 96801.85
1010.277, 96786.90
1010.759, 96733.55
1011.242, 96653.48
1011.724, 96530.49
1012.206, 96390.04
1012.688, 96297.95
1013.170, 96268.60
1013.652, 96288.57
1014.134, 96391.59
1014.616, 96475.46
1015.099, 96338.53
1015.581, 96066.85
1016.063, 95936.12
1016.545, 96001.08
1017.027, 96079.77
1017.509, 96059.48
1017.991, 96024.53
1018.473, 96044.12
1018.955, 96117.23
1019.438, 96109.61
1019.920, 96011.73
1020.402, 95909.77
1020.884, 95850.63
1021.366, 95809.14
1021.848, 95741.18
1022.330, 95662.21
1022.812, 95608.16
1023.294, 95620.30
1023.777, 95619.55
1024.259, 95604.51
1024.741, 95563.33
1025.223, 95468.54
1025.705, 95328.81
1026.187, 95199.88
1026.669, 95085.39
1027.151, 95021.98
1027.634, 95103.46
1028.116, 95192.96
1028.598, 95164.62
1029.080, 95010.95
1029.562, 94930.94
1030.044, 94948.93
1030.526, 94949.60
1031.008, 94878.55
1031.490, 94774.86
1031.973, 94714.38
1032.455, 94678.17
1032.937, 94619.70
1033.419, 94474.20
1033.901, 94377.34
1034.383, 94405.64
1034.865, 94458.80
1035.347, 94436.13
1035.829, 94336.81
1036.312, 94276.32
1036.794, 94261.35
1037.276, 94234.12
1037.758, 94119.53
1038.240, 93996.62
1038.722, 93935.68
1039.204, 93935.18
1039.686, 93943.32
1040.169, 93969.28
1040.651, 93973.75
1041.133, 93952.71
1041.615, 93893.91
1042.097, 93711.73
1042.579, 93481.91
1043.061, 93405.49
1043.543, 93626.13
1044.025, 93769.84
1044.508, 93598.31
1044.990, 93373.34
1045.472, 93282.96
1045.954, 93334.11
1046.436, 93365.40
1046.918, 93376.80
1047.400, 93369.80
1047.882, 93365.85
1048.365, 93326.62
1048.847, 93167.40
1049.329, 92939.09
1049.811, 92829.11
1050.293, 92951.45
1050.775, 92961.93
1051.257, 92768.31
1051.739, 92535.88
1052.221, 92541.38
1052.703, 92684.72
1053.186, 92721.53
1053.668, 92599.78
1054.150, 92478.16
1054.632, 92419.01
1055.114, 92391.43
1055.596, 92387.19
1056.078, 92400.60
1056.560, 92372.97
1057.043, 92305.70
1057.525, 92249.93
1058.007, 92239.16
1058.489, 92236.65
1058.971, 92217.53
1059.453, 92181.17
1059.935, 92123.80
1060.417, 92022.12
1060.900, 91949.84
1061.382, 91914.25
1061.864, 91894.80
1062.346, 91880.78
1062.828, 91866.05
1063.310, 91840.57
1063.792, 91803.14
1064.274, 91747.63
1064.756, 91641.45
1065.239, 91552.16
1065.721, 91509.91
1066.203, 91496.04
1066.685, 91454.13
1067.167, 91388.82
1067.649, 91357.38
1068.131, 91384.97
1068.613, 91411.49
1069.095, 91404.80
1069.578, 91360.70
1070.060, 91260.22
1070.542, 91084.13
1071.024, 90966.61
1071.506, 90914.21
1071.988, 90889.98
1072.470, 90895.51
1072.952, 90899.26
1073.435, 90832.43
1073.917, 90718.05
1074.399, 90616.09
1074.881, 90501.90
1075.363, 90482.51
1075.845, 90649.87
1076.327, 90811.70
1076.809, 90670.59
1077.292, 90300.51
1077.774, 90117.38
1078.256, 90155.56
1078.738, 90224.47
1079.220, 90213.55
1079.702, 90179.96
1080.184, 90157.59
1080.666, 90143.03
1081.148, 90115.28
1081.630, 90072.55
1082.113, 90036.34
1082.595, 90021.29
1083.077, 89993.42
1083.559, 89882.32
1084.041, 89746.99
1084.523, 89670.20
1085.005, 89687.98
1085.487, 89709.41
1085.970, 89746.88
1086.452, 89752.47
1086.934, 89689.54
1087.416, 89574.17
1087.898, 89412.84
1088.380, 89235.07
1088.862, 89148.55
1089.344, 89330.27
1089.827, 89443.74
1090.309, 89361.07
1090.791, 89202.52
1091.273, 89104.24
1091.755, 89064.14
1092.237, 89062.51
1092.719, 89098.86
1093.201, 89103.23
1093.683, 88968.82
1094.166, 88831.05
1094.648, 88813.71
1095.130, 88891.87
1095.612, 88878.67
1096.094, 88756.19
1096.576, 88637.09
1097.058, 88544.23
1097.540, 88483.62
1098.022, 88497.24
1098.505, 88532.86
1098.987, 88512.53
1099.469, 88403.98
1099.951, 88304.05
1100.433, 88209.98
1100.915, 88148.55
1101.397, 88155.48
1101.879, 88196.03
1102.361, 88173.98
1102.844, 88098.47
1103.326, 88000.50
1103.808, 87849.65
1104.290, 87734.49
1104.772, 87700.63
1105.254, 87691.36
1105.736, 87638.16
1106.218, 87545.27
1106.701, 87546.11
1107.183, 87642.83
1107.665, 87688.94
1108.147, 87500.97
1108.629, 87305.90
1109.111, 87274.34
1109.593, 87360.05
1110.075, 87398.07
1110.557, 87385.39
1111.040, 87335.27
1111.522, 87239.15
1112.004, 87155.71
1112.486, 87191.11
1112.968, 87253.48
1113.450, 87227.58
1113.932, 87086.75
1114.414, 86961.33
1114.896, 86848.38
1115.379, 86775.07
1115.861, 86767.96
1116.343, 86787.97
1116.825, 86749.20
1117.307, 86677.13
1117.789, 86629.20
1118.271, 86635.52
1118.753, 86642.99
1119.236, 86660.17
1119.718, 86652.30
1120.200, 86585.26
1120.682, 86467.93
1121.164, 86351.70
1121.646, 86239.59
1122.128, 86144.21
1122.610, 86049.39
1123.093, 85999.18
1123.575, 86069.88
1124.057, 86166.32
1124.539, 86148.29
1125.021, 86013.41
1125.503, 85908.57
1125.985, 85847.19
1126.467, 85812.73
1126.949, 85806.98
1127.432, 85809.94
1127.914, 85818.69
1128.396, 85824.35
1128.878, 85779.57
1129.360, 85673.00
1129.842, 85578.55
1130.324, 85513.10
1130.806, 85466.86
1131.288, 85444.23
1131.771, 85424.95
1132.253, 85377.03
1132.735, 85287.16
1133.217, 85229.90
1133.699, 85223.90
1134.181, 85209.86
1134.663, 85158.31
1135.145, 85086.01
1135.628, 85027.76
1136.110, 84974.66
1136.592, 84905.51
1137.074, 84777.59
1137.556, 84710.16
1138.038, 84753.66
1138.520, 84802.88
1139.002, 84772.57
1139.484, 84680.51
1139.967, 84598.59
1140.449, 84530.52
1140.931, 84496.64
1141.413, 84539.80
1141.895, 84580.05
1142.377, 84601.55
1142.859, 84597.77
1143.341, 84552.12
1143.823, 84468.40
1144.306, 84386.73
1144.788, 84310.59
1145.270, 84240.30
1145.752, 84138.41
1146.234, 84078.45
1146.716, 84148.28
1147.198, 84287.09
1147.680, 84353.09
1148.162, 84346.60
1148.645, 84242.98
1149.127, 84018.94
1149.609, 83808.69
1150.091, 83752.86
1150.573, 83753.10
1151.055, 83711.95
1151.537, 83625.83
1152.019, 83604.86
1152.502, 83670.05
1152.984, 83666.22
1153.466, 83510.80
1153.948, 83323.32
1154.430, 83251.78
1154.912, 83238.86
1155.394, 83211.47
1155.876, 83156.38
1156.359, 83074.73
1156.841, 82945.68
1157.323, 82861.63
1157.805, 82907.67
1158.287, 83000.94
1158.769, 83010.98
1159.251, 82954.50
1159.733, 82867.34
1160.215, 82706.74
1160.698, 82600.32
1161.180, 82560.95
1161.662, 82556.34
1162.144, 82589.09
1162.626, 82626.20
1163.108, 82569.63
1163.590, 82437.35
1164.072, 82317.85
1164.554, 82237.30
1165.037, 82184.77
1165.519, 82157.43
1166.001, 82155.65
1166.483, 82203.34
1166.965, 82276.06
1167.447, 82289.74
1167.929, 82239.08
1168.411, 82159.95
1168.894, 82049.99
1169.376, 81936.80
1169.858, 81817.33
1170.340, 81712.31
1170.822, 81695.19
1171.304, 81739.10
1171.786, 81692.88
1172.268, 81520.78
1172.750, 81370.78
1173.233, 81331.73
1173.715, 81342.05
1174.197, 81378.01
1174.679, 81429.31
1175.161, 81477.39
1175.643, 81513.37
1176.125, 81442.27
1176.607, 81195.63
1177.089, 80980.01
1177.572, 80969.34
1178.054, 81013.13
1178.536, 80986.74
1179.018, 80895.27
1179.500, 80849.16
1179.982, 80846.23
1180.464, 80838.88
1180.946, 80812.01
1181.429, 80764.22
1181.911, 80678.23
1182.393, 80581.10
1182.875, 80498.28
1183.357, 80427.63
1183.839, 80407.76
1184.321, 80439.43
1184.803, 80449.43
1185.286, 80358.81
1185.768, 80261.04
1186.250, 80244.72
1186.732, 80266.80
1187.214, 80248.80
1187.696, 80173.27
1188.178, 80145.88
1188.660, 80178.07
1189.142, 80163.29
1189.625, 79924.51
1190.107, 79682.33
1190.589, 79699.16
1191.071, 79873.75
1191.553, 79894.25
1192.035, 79692.59
1192.517, 79593.25
1192.999, 79637.61
1193.481, 79721.45
1193.964, 79772.74
1194.446, 79792.69
1194.928, 79785.85
1195.410, 79748.48
1195.892, 79662.73
1196.374, 79514.48
1196.856, 79377.80
1197.338, 79263.38
1197.820, 79172.94
1198.303, 79114.98
1198.785, 79075.52
1199.267, 79049.09
1199.749, 79032.27
1200.231, 78971.55
1200.713, 78833.70
1201.195, 78780.51
1201.677, 78879.66
1202.160, 79003.17
1202.642, 78981.98
1203.124, 78889.87
1203.606, 78816.64
1204.088, 78778.22
1204.570, 78731.96
1205.052, 78679.12
1205.534, 78607.32
1206.016, 78504.04
1206.499, 78393.22
1206.981, 78273.25
1207.463, 78181.77
1207.945, 78191.88
1208.427, 78364.91
1208.909, 78434.46
1209.391, 78381.38
1209.873, 78287.21
1210.355, 78168.68
1210.838, 78059.51
1211.320, 78029.90
1211.802, 78037.50
1212.284, 78011.90
1212.766, 77921.16
1213.248, 77838.25
1213.730, 77760.64
1214.212, 77701.55
1214.695, 77680.40
1215.177, 77673.52
1215.659, 77646.65
1216.141, 77607.51
1216.623, 77571.38
1217.105, 77553.68
1217.587, 77506.32
1218.069, 77418.12
1218.552, 77344.81
1219.034, 77359.91
1219.516, 77392.76
1219.998, 77337.65
1220.480, 77220.12
1220.962, 77101.56
1221.444, 76952.38
1221.926, 76916.99
1222.408, 77031.80
1222.891, 77127.47
1223.373, 77004.86
1223.855, 76815.65
1224.337, 76770.02
1224.819, 76826.98
1225.301, 76818.78
1225.783, 76700.42
1226.265, 76596.40
1226.747, 76515.65
1227.230, 76459.35
1227.712, 76426.27
1228.194, 76419.38
1228.676, 76478.83
1229.158, 76574.55
1229.640, 76561.55
1230.122, 76396.95
1230.604, 76249.82
1231.087, 76140.45
1231.569, 76068.82
1232.051, 76046.18
1232.533, 76051.79
1233.015, 76083.13
1233.497, 76127.41
1233.979, 76115.98
1234.461, 76039.07
1234.943, 75941.38
1235.426, 75821.70
1235.908, 75728.77
1236.390, 75757.34
1236.872, 75802.36
1237.354, 75739.70
1237.836, 75578.34
1238.318, 75484.44
1238.800, 75462.48
1239.282, 75489.95
1239.765, 75577.99
1240.247, 75635.05
1240.729, 75542.30
1241.211, 75395.49
1241.693, 75264.52
1242.175, 75160.22
1242.657, 75135.27
1243.139, 75196.66
1243.621, 75220.30
1244.104, 75169.16
1244.586, 75094.09
1245.068, 75017.07
1245.550, 74955.45
1246.032, 74938.03
1246.514, 74953.41
1246.996, 74922.74
1247.478, 74846.71
1247.961, 74767.88
1248.443, 74697.08
1248.925, 74633.00
1249.407, 74555.84
1249.889, 74504.42
1250.371, 74529.34
1250.853, 74608.08
1251.335, 74569.73
1251.818, 74427.12
1252.300, 74304.97
1252.782, 74241.84
1253.264, 74204.77
1253.746, 74182.80
1254.228, 74173.33
1254.710, 74185.70
1255.192, 74207.52
1255.674, 74153.04
1256.156, 74039.10
1256.639, 73950.06
1257.121, 73921.38
1257.603, 73904.27
1258.085, 73897.64
1258.567, 73872.76
1259.049, 73800.43
1259.531, 73700.26
1260.013, 73664.52
1260.496, 73675.55
1260.978, 73677.80
1261.460, 73662.19
1261.942, 73607.92
1262.424, 73466.13
1262.906, 73354.10
1263.388, 73367.65
1263.870, 73446.53
1264.353, 73408.98
1264.835, 73292.61
1265.317, 73196.85
1265.799, 73161.02
1266.281, 73129.30
1266.763, 73099.84
1267.245, 73062.35
1267.727, 72999.88
1268.209, 72933.66
1268.692, 72931.66
1269.174, 72954.27
1269.656, 72913.87
1270.138, 72696.27
1270.620, 72631.13
1271.102, 72765.35
1271.584, 72877.35
1272.066, 72803.41
1272.548, 72647.65
1273.031, 72516.82
1273.513, 72420.79
1273.995, 72386.28
1274.477, 72453.20
1274.959, 72432.94
1275.441, 72311.52
1275.923, 72223.80
1276.405, 72310.07
1276.888, 72412.79
1277.370, 72370.88
1277.852, 72250.79
1278.334, 72154.42
1278.816, 72091.93
1279.298, 72004.80
1279.780, 71894.08
1280.262, 71818.49
1280.745, 71858.31
1281.227, 71896.57
1281.709, 71861.46
1282.191, 71783.43
1282.673, 71687.39
1283.155, 71573.71
1283.637, 71515.48
1284.119, 71508.67
1284.601, 71514.35
1285.083, 71530.19
1285.566, 71530.05
1286.048, 71489.77
1286.530, 71443.95
1287.012, 71425.47
1287.494, 71427.16
1287.976, 71422.99
1288.458, 71405.88
1288.940, 71347.66
1289.422, 71189.93
1289.905, 71056.59
1290.387, 70959.62
1290.869, 70897.63
1291.351, 70897.93
1291.833, 70920.68
1292.315, 70857.63
1292.797, 70736.71
1293.279, 70635.88
1293.762, 70560.73
1294.244, 70551.95
1294.726, 70631.91
1295.208, 70700.49
1295.690, 70667.08
1296.172, 70587.50
1296.654, 70521.80
1297.136, 70469.81
1297.619, 70437.30
1298.101, 70446.35
1298.583, 70382.48
1299.065, 70236.13
1299.547, 70102.14
1300.029, 70058.43
1300.511, 70034.85
1300.993, 69972.41
1301.475, 69897.41
1301.958, 69848.65
1302.440, 69828.16
1302.922, 69813.51
1303.404, 69802.32
1303.886, 69765.87
1304.368, 69667.34
1304.850, 69564.95
1305.332, 69472.95
##END=



