##NAMES=Diamond
##RRUFFID=R150106
##IDEAL CHEMISTRY=C
##LOCALITY=Premier mine, Cullinan, Pretoria, Gauteng Province, South Africa
##OWNER=UAMM
##SOURCE=Rock Currier
##DESCRIPTION=Colorless triangle platy crystal (spinel twin).
##STATUS=The identification of this mineral is not yet confirmed.
##URL=rruff.info/R150106
9.839966e+001, 0.000000e+000
1.003281e+002, 6.595558e+002
1.022566e+002, 6.619970e+002
1.041851e+002, 6.701652e+002
1.061135e+002, 6.893683e+002
1.080420e+002, 7.289933e+002
1.099705e+002, 7.714296e+002
1.118989e+002, 8.216487e+002
1.138274e+002, 8.760872e+002
1.157559e+002, 9.254874e+002
1.176843e+002, 9.742772e+002
1.196128e+002, 1.020656e+003
1.215413e+002, 1.063180e+003
1.234697e+002, 1.102794e+003
1.253982e+002, 1.137691e+003
1.273267e+002, 1.165471e+003
1.292551e+002, 1.187408e+003
1.311836e+002, 1.210783e+003
1.331121e+002, 1.234073e+003
1.350405e+002, 1.257501e+003
1.369690e+002, 1.281049e+003
1.388975e+002, 1.303626e+003
1.408259e+002, 1.326330e+003
1.427544e+002, 1.349053e+003
1.446829e+002, 1.371586e+003
1.466113e+002, 1.393772e+003
1.485398e+002, 1.415357e+003
1.504683e+002, 1.436719e+003
1.523967e+002, 1.458235e+003
1.543252e+002, 1.480345e+003
1.562537e+002, 1.502582e+003
1.581821e+002, 1.524840e+003
1.601106e+002, 1.547184e+003
1.620391e+002, 1.570064e+003
1.639675e+002, 1.594592e+003
1.658960e+002, 1.619224e+003
1.678245e+002, 1.640868e+003
1.697529e+002, 1.657571e+003
1.716814e+002, 1.672681e+003
1.736099e+002, 1.687631e+003
1.755383e+002, 1.703156e+003
1.774668e+002, 1.714802e+003
1.793953e+002, 1.721839e+003
1.813237e+002, 1.724664e+003
1.832522e+002, 1.725584e+003
1.851807e+002, 1.724390e+003
1.871091e+002, 1.722567e+003
1.890376e+002, 1.721115e+003
1.909661e+002, 1.721346e+003
1.928945e+002, 1.721472e+003
1.948230e+002, 1.721690e+003
1.967515e+002, 1.722134e+003
1.986799e+002, 1.722816e+003
2.006084e+002, 1.722809e+003
2.025369e+002, 1.723398e+003
2.044653e+002, 1.725831e+003
2.063938e+002, 1.731067e+003
2.083223e+002, 1.734335e+003
2.102507e+002, 1.732965e+003
2.121792e+002, 1.727766e+003
2.141077e+002, 1.724711e+003
2.160361e+002, 1.724673e+003
2.179646e+002, 1.726085e+003
2.198931e+002, 1.728578e+003
2.218215e+002, 1.733080e+003
2.237500e+002, 1.735615e+003
2.256785e+002, 1.733940e+003
2.276069e+002, 1.728250e+003
2.295354e+002, 1.725289e+003
2.314639e+002, 1.727897e+003
2.333923e+002, 1.731118e+003
2.353208e+002, 1.731792e+003
2.372493e+002, 1.728650e+003
2.391777e+002, 1.725715e+003
2.411062e+002, 1.723593e+003
2.430347e+002, 1.722569e+003
2.449631e+002, 1.722987e+003
2.468916e+002, 1.725718e+003
2.488201e+002, 1.729485e+003
2.507485e+002, 1.733276e+003
2.526770e+002, 1.736603e+003
2.546055e+002, 1.740353e+003
2.565339e+002, 1.744826e+003
2.584624e+002, 1.749751e+003
2.603909e+002, 1.754214e+003
2.623193e+002, 1.758362e+003
2.642478e+002, 1.761662e+003
2.661763e+002, 1.763641e+003
2.681047e+002, 1.763338e+003
2.700332e+002, 1.762884e+003
2.719617e+002, 1.762050e+003
2.738901e+002, 1.761135e+003
2.758186e+002, 1.761318e+003
2.777471e+002, 1.764890e+003
2.796755e+002, 1.768405e+003
2.816040e+002, 1.769325e+003
2.835325e+002, 1.766864e+003
2.854609e+002, 1.764580e+003
2.873894e+002, 1.762947e+003
2.893179e+002, 1.762003e+003
2.912463e+002, 1.762674e+003
2.931748e+002, 1.766534e+003
2.951033e+002, 1.770698e+003
2.970317e+002, 1.773093e+003
2.989602e+002, 1.773313e+003
3.008887e+002, 1.773662e+003
3.028171e+002, 1.774653e+003
3.047456e+002, 1.776112e+003
3.066741e+002, 1.777585e+003
3.086025e+002, 1.779161e+003
3.105310e+002, 1.780676e+003
3.124595e+002, 1.781972e+003
3.143879e+002, 1.782964e+003
3.163164e+002, 1.784338e+003
3.182449e+002, 1.787306e+003
3.201733e+002, 1.790757e+003
3.221018e+002, 1.791601e+003
3.240303e+002, 1.786956e+003
3.259587e+002, 1.783344e+003
3.278872e+002, 1.783690e+003
3.298157e+002, 1.788648e+003
3.317441e+002, 1.794049e+003
3.336726e+002, 1.800926e+003
3.356011e+002, 1.807688e+003
3.375295e+002, 1.811533e+003
3.394580e+002, 1.810518e+003
3.413865e+002, 1.810004e+003
3.433149e+002, 1.812052e+003
3.452434e+002, 1.817323e+003
3.471719e+002, 1.820853e+003
3.491003e+002, 1.821813e+003
3.510288e+002, 1.821404e+003
3.529573e+002, 1.820681e+003
3.548857e+002, 1.819344e+003
3.568142e+002, 1.818883e+003
3.587427e+002, 1.820562e+003
3.606711e+002, 1.824385e+003
3.625996e+002, 1.826611e+003
3.645281e+002, 1.825578e+003
3.664565e+002, 1.824467e+003
3.683850e+002, 1.825281e+003
3.703135e+002, 1.828694e+003
3.722419e+002, 1.831314e+003
3.741704e+002, 1.832027e+003
3.760989e+002, 1.831439e+003
3.780273e+002, 1.831513e+003
3.799558e+002, 1.832041e+003
3.818843e+002, 1.833529e+003
3.838127e+002, 1.836334e+003
3.857412e+002, 1.840729e+003
3.876697e+002, 1.845365e+003
3.895981e+002, 1.851504e+003
3.915266e+002, 1.857172e+003
3.934551e+002, 1.858872e+003
3.953835e+002, 1.853494e+003
3.973120e+002, 1.850548e+003
3.992405e+002, 1.854770e+003
4.011689e+002, 1.866563e+003
4.030974e+002, 1.873054e+003
4.050259e+002, 1.870924e+003
4.069543e+002, 1.866654e+003
4.088828e+002, 1.865120e+003
4.108113e+002, 1.867257e+003
4.127397e+002, 1.868201e+003
4.146682e+002, 1.866553e+003
4.165967e+002, 1.863187e+003
4.185251e+002, 1.860209e+003
4.204536e+002, 1.856750e+003
4.223821e+002, 1.854520e+003
4.243105e+002, 1.854426e+003
4.262390e+002, 1.856267e+003
4.281675e+002, 1.858673e+003
4.300959e+002, 1.860960e+003
4.320244e+002, 1.863707e+003
4.339529e+002, 1.867991e+003
4.358813e+002, 1.875542e+003
4.378098e+002, 1.881149e+003
4.397383e+002, 1.881611e+003
4.416667e+002, 1.878653e+003
4.435952e+002, 1.877936e+003
4.455237e+002, 1.881869e+003
4.474521e+002, 1.886369e+003
4.493806e+002, 1.890039e+003
4.513091e+002, 1.892958e+003
4.532375e+002, 1.894404e+003
4.551660e+002, 1.891935e+003
4.570945e+002, 1.888698e+003
4.590229e+002, 1.888407e+003
4.609514e+002, 1.895051e+003
4.628799e+002, 1.900639e+003
4.648083e+002, 1.903669e+003
4.667368e+002, 1.904469e+003
4.686653e+002, 1.905139e+003
4.705938e+002, 1.906543e+003
4.725222e+002, 1.907117e+003
4.744507e+002, 1.905724e+003
4.763792e+002, 1.899138e+003
4.783076e+002, 1.896917e+003
4.802361e+002, 1.902133e+003
4.821646e+002, 1.910865e+003
4.840930e+002, 1.917770e+003
4.860215e+002, 1.922187e+003
4.879500e+002, 1.925713e+003
4.898784e+002, 1.928748e+003
4.918069e+002, 1.931149e+003
4.937354e+002, 1.932694e+003
4.956638e+002, 1.932333e+003
4.975923e+002, 1.931824e+003
4.995208e+002, 1.932236e+003
5.014492e+002, 1.933744e+003
5.033777e+002, 1.934986e+003
5.053062e+002, 1.936058e+003
5.072346e+002, 1.936855e+003
5.091631e+002, 1.936967e+003
5.110916e+002, 1.935357e+003
5.130200e+002, 1.935173e+003
5.149485e+002, 1.938443e+003
5.168770e+002, 1.944106e+003
5.188054e+002, 1.948897e+003
5.207339e+002, 1.952264e+003
5.226624e+002, 1.954865e+003
5.245908e+002, 1.956325e+003
5.265193e+002, 1.956204e+003
5.284478e+002, 1.957136e+003
5.303762e+002, 1.959655e+003
5.323047e+002, 1.962808e+003
5.342332e+002, 1.965894e+003
5.361616e+002, 1.969737e+003
5.380901e+002, 1.971820e+003
5.400186e+002, 1.970701e+003
5.419470e+002, 1.967803e+003
5.438755e+002, 1.967173e+003
5.458040e+002, 1.971317e+003
5.477324e+002, 1.974631e+003
5.496609e+002, 1.974732e+003
5.515894e+002, 1.971200e+003
5.535178e+002, 1.969487e+003
5.554463e+002, 1.970071e+003
5.573748e+002, 1.971692e+003
5.593032e+002, 1.972999e+003
5.612317e+002, 1.973382e+003
5.631602e+002, 1.975549e+003
5.650886e+002, 1.982020e+003
5.670171e+002, 1.989612e+003
5.689456e+002, 1.994605e+003
5.708740e+002, 1.995643e+003
5.728025e+002, 1.995509e+003
5.747310e+002, 1.993801e+003
5.766594e+002, 1.991262e+003
5.785879e+002, 1.989655e+003
5.805164e+002, 1.989260e+003
5.824448e+002, 1.989958e+003
5.843733e+002, 1.991938e+003
5.863018e+002, 1.995514e+003
5.882302e+002, 1.998539e+003
5.901587e+002, 2.000478e+003
5.920872e+002, 2.002225e+003
5.940156e+002, 2.004558e+003
5.959441e+002, 2.007627e+003
5.978726e+002, 2.009986e+003
5.998010e+002, 2.011281e+003
6.017295e+002, 2.011693e+003
6.036580e+002, 2.011234e+003
6.055864e+002, 2.007888e+003
6.075149e+002, 2.006443e+003
6.094434e+002, 2.009388e+003
6.113718e+002, 2.014675e+003
6.133003e+002, 2.018004e+003
6.152288e+002, 2.017713e+003
6.171572e+002, 2.017271e+003
6.190857e+002, 2.018049e+003
6.210142e+002, 2.020161e+003
6.229426e+002, 2.021553e+003
6.248711e+002, 2.021844e+003
6.267996e+002, 2.021782e+003
6.287280e+002, 2.021060e+003
6.306565e+002, 2.019385e+003
6.325850e+002, 2.020219e+003
6.345134e+002, 2.026834e+003
6.364419e+002, 2.034407e+003
6.383704e+002, 2.038525e+003
6.402988e+002, 2.037597e+003
6.422273e+002, 2.036999e+003
6.441558e+002, 2.038114e+003
6.460842e+002, 2.039577e+003
6.480127e+002, 2.039597e+003
6.499412e+002, 2.037070e+003
6.518696e+002, 2.034897e+003
6.537981e+002, 2.033892e+003
6.557266e+002, 2.033898e+003
6.576550e+002, 2.034111e+003
6.595835e+002, 2.034840e+003
6.615120e+002, 2.035910e+003
6.634404e+002, 2.037272e+003
6.653689e+002, 2.039078e+003
6.672974e+002, 2.041910e+003
6.692258e+002, 2.046581e+003
6.711543e+002, 2.051519e+003
6.730828e+002, 2.055950e+003
6.750112e+002, 2.059521e+003
6.769397e+002, 2.062681e+003
6.788682e+002, 2.064546e+003
6.807966e+002, 2.065944e+003
6.827251e+002, 2.067207e+003
6.846536e+002, 2.068075e+003
6.865820e+002, 2.069542e+003
6.885105e+002, 2.074406e+003
6.904390e+002, 2.078847e+003
6.923674e+002, 2.078144e+003
6.942959e+002, 2.070916e+003
6.962244e+002, 2.064780e+003
6.981528e+002, 2.061944e+003
7.000813e+002, 2.061142e+003
7.020098e+002, 2.060659e+003
7.039382e+002, 2.060301e+003
7.058667e+002, 2.060741e+003
7.077952e+002, 2.062558e+003
7.097236e+002, 2.065163e+003
7.116521e+002, 2.066868e+003
7.135806e+002, 2.066472e+003
7.155090e+002, 2.067169e+003
7.174375e+002, 2.070798e+003
7.193660e+002, 2.076371e+003
7.212944e+002, 2.081067e+003
7.232229e+002, 2.084166e+003
7.251514e+002, 2.086605e+003
7.270798e+002, 2.088244e+003
7.290083e+002, 2.089062e+003
7.309368e+002, 2.090163e+003
7.328652e+002, 2.092087e+003
7.347937e+002, 2.093638e+003
7.367222e+002, 2.093686e+003
7.386506e+002, 2.092353e+003
7.405791e+002, 2.092967e+003
7.425076e+002, 2.098757e+003
7.444360e+002, 2.104089e+003
7.463645e+002, 2.105776e+003
7.482930e+002, 2.103123e+003
7.502214e+002, 2.101553e+003
7.521499e+002, 2.102902e+003
7.540784e+002, 2.104135e+003
7.560068e+002, 2.102659e+003
7.579353e+002, 2.097662e+003
7.598638e+002, 2.096301e+003
7.617922e+002, 2.102697e+003
7.637207e+002, 2.110684e+003
7.656492e+002, 2.115401e+003
7.675776e+002, 2.115567e+003
7.695061e+002, 2.116552e+003
7.714346e+002, 2.119856e+003
7.733630e+002, 2.123039e+003
7.752915e+002, 2.123916e+003
7.772200e+002, 2.121494e+003
7.791484e+002, 2.119879e+003
7.810769e+002, 2.120390e+003
7.830054e+002, 2.121724e+003
7.849338e+002, 2.122277e+003
7.868623e+002, 2.121058e+003
7.887908e+002, 2.122226e+003
7.907192e+002, 2.130645e+003
7.926477e+002, 2.139667e+003
7.945762e+002, 2.141903e+003
7.965046e+002, 2.134510e+003
7.984331e+002, 2.128621e+003
8.003616e+002, 2.126292e+003
8.022900e+002, 2.126572e+003
8.042185e+002, 2.128566e+003
8.061470e+002, 2.133628e+003
8.080754e+002, 2.137868e+003
8.100039e+002, 2.139456e+003
8.119324e+002, 2.140422e+003
8.138608e+002, 2.143350e+003
8.157893e+002, 2.149001e+003
8.177178e+002, 2.154027e+003
8.196462e+002, 2.156849e+003
8.215747e+002, 2.158674e+003
8.235032e+002, 2.161450e+003
8.254316e+002, 2.165904e+003
8.273601e+002, 2.170266e+003
8.292886e+002, 2.175873e+003
8.312170e+002, 2.180840e+003
8.331455e+002, 2.182290e+003
8.350740e+002, 2.178594e+003
8.370024e+002, 2.176563e+003
8.389309e+002, 2.179287e+003
8.408594e+002, 2.184186e+003
8.427878e+002, 2.187604e+003
8.447163e+002, 2.187527e+003
8.466448e+002, 2.188385e+003
8.485732e+002, 2.190578e+003
8.505017e+002, 2.193755e+003
8.524302e+002, 2.197692e+003
8.543586e+002, 2.202964e+003
8.562871e+002, 2.207233e+003
8.582156e+002, 2.209113e+003
8.601440e+002, 2.210066e+003
8.620725e+002, 2.211726e+003
8.640010e+002, 2.213786e+003
8.659294e+002, 2.216979e+003
8.678579e+002, 2.222231e+003
8.697864e+002, 2.227984e+003
8.717148e+002, 2.232383e+003
8.736433e+002, 2.235409e+003
8.755718e+002, 2.236685e+003
8.775002e+002, 2.233987e+003
8.794287e+002, 2.230543e+003
8.813572e+002, 2.229668e+003
8.832856e+002, 2.232937e+003
8.852141e+002, 2.235712e+003
8.871426e+002, 2.237990e+003
8.890710e+002, 2.239832e+003
8.909995e+002, 2.241462e+003
8.929280e+002, 2.243214e+003
8.948564e+002, 2.244165e+003
8.967849e+002, 2.243110e+003
8.987134e+002, 2.242177e+003
9.006418e+002, 2.242724e+003
9.025703e+002, 2.244747e+003
9.044988e+002, 2.247810e+003
9.064272e+002, 2.252893e+003
9.083557e+002, 2.257695e+003
9.102842e+002, 2.260124e+003
9.122126e+002, 2.259115e+003
9.141411e+002, 2.259681e+003
9.160696e+002, 2.264341e+003
9.179980e+002, 2.268218e+003
9.199265e+002, 2.268245e+003
9.218550e+002, 2.264941e+003
9.237834e+002, 2.262122e+003
9.257119e+002, 2.261064e+003
9.276404e+002, 2.260457e+003
9.295688e+002, 2.259711e+003
9.314973e+002, 2.258997e+003
9.334258e+002, 2.259895e+003
9.353542e+002, 2.262941e+003
9.372827e+002, 2.266812e+003
9.392112e+002, 2.271038e+003
9.411396e+002, 2.275504e+003
9.430681e+002, 2.280113e+003
9.449966e+002, 2.284513e+003
9.469250e+002, 2.289036e+003
9.488535e+002, 2.293505e+003
9.507820e+002, 2.297921e+003
9.527104e+002, 2.302563e+003
9.546389e+002, 2.309223e+003
9.565674e+002, 2.313720e+003
9.584958e+002, 2.314899e+003
9.604243e+002, 2.313928e+003
9.623528e+002, 2.312417e+003
9.642813e+002, 2.309911e+003
9.662097e+002, 2.309441e+003
9.681382e+002, 2.314148e+003
9.700667e+002, 2.320278e+003
9.719951e+002, 2.323706e+003
9.739236e+002, 2.322897e+003
9.758521e+002, 2.323895e+003
9.777805e+002, 2.328431e+003
9.797090e+002, 2.333451e+003
9.816375e+002, 2.336372e+003
9.835659e+002, 2.336489e+003
9.854944e+002, 2.336922e+003
9.874229e+002, 2.337940e+003
9.893513e+002, 2.339135e+003
9.912798e+002, 2.340929e+003
9.932083e+002, 2.343290e+003
9.951367e+002, 2.344687e+003
9.970652e+002, 2.345570e+003
9.989937e+002, 2.345315e+003
1.000922e+003, 2.342229e+003
1.002851e+003, 2.337367e+003
1.004779e+003, 2.336731e+003
1.006708e+003, 2.343577e+003
1.008636e+003, 2.349721e+003
1.010564e+003, 2.352878e+003
1.012493e+003, 2.354094e+003
1.014421e+003, 2.355589e+003
1.016350e+003, 2.357550e+003
1.018278e+003, 2.358799e+003
1.020207e+003, 2.357917e+003
1.022135e+003, 2.357040e+003
1.024064e+003, 2.358365e+003
1.025992e+003, 2.363072e+003
1.027921e+003, 2.367544e+003
1.029849e+003, 2.373712e+003
1.031778e+003, 2.378119e+003
1.033706e+003, 2.376104e+003
1.035635e+003, 2.367190e+003
1.037563e+003, 2.365626e+003
1.039491e+003, 2.377439e+003
1.041420e+003, 2.389325e+003
1.043348e+003, 2.394211e+003
1.045277e+003, 2.393836e+003
1.047205e+003, 2.393604e+003
1.049134e+003, 2.394057e+003
1.051062e+003, 2.394472e+003
1.052991e+003, 2.395602e+003
1.054919e+003, 2.396805e+003
1.056848e+003, 2.396525e+003
1.058776e+003, 2.392110e+003
1.060705e+003, 2.391418e+003
1.062633e+003, 2.397836e+003
1.064562e+003, 2.406271e+003
1.066490e+003, 2.411583e+003
1.068418e+003, 2.413575e+003
1.070347e+003, 2.415796e+003
1.072275e+003, 2.418453e+003
1.074204e+003, 2.421332e+003
1.076132e+003, 2.424802e+003
1.078061e+003, 2.428784e+003
1.079989e+003, 2.430789e+003
1.081918e+003, 2.427684e+003
1.083846e+003, 2.426351e+003
1.085775e+003, 2.431168e+003
1.087703e+003, 2.438564e+003
1.089632e+003, 2.439024e+003
1.091560e+003, 2.429331e+003
1.093489e+003, 2.422637e+003
1.095417e+003, 2.424033e+003
1.097345e+003, 2.428314e+003
1.099274e+003, 2.431094e+003
1.101202e+003, 2.432466e+003
1.103131e+003, 2.434007e+003
1.105059e+003, 2.435777e+003
1.106988e+003, 2.438081e+003
1.108916e+003, 2.441203e+003
1.110845e+003, 2.444914e+003
1.112773e+003, 2.447787e+003
1.114702e+003, 2.446129e+003
1.116630e+003, 2.447507e+003
1.118559e+003, 2.456837e+003
1.120487e+003, 2.469002e+003
1.122416e+003, 2.474635e+003
1.124344e+003, 2.472592e+003
1.126272e+003, 2.470667e+003
1.128201e+003, 2.471540e+003
1.130129e+003, 2.472589e+003
1.132058e+003, 2.471475e+003
1.133986e+003, 2.468192e+003
1.135915e+003, 2.466753e+003
1.137843e+003, 2.468565e+003
1.139772e+003, 2.471196e+003
1.141700e+003, 2.474426e+003
1.143629e+003, 2.477892e+003
1.145557e+003, 2.480263e+003
1.147486e+003, 2.480768e+003
1.149414e+003, 2.481333e+003
1.151343e+003, 2.481993e+003
1.153271e+003, 2.482886e+003
1.155199e+003, 2.484175e+003
1.157128e+003, 2.485834e+003
1.159056e+003, 2.487697e+003
1.160985e+003, 2.489562e+003
1.162913e+003, 2.491911e+003
1.164842e+003, 2.495419e+003
1.166770e+003, 2.499870e+003
1.168699e+003, 2.503450e+003
1.170627e+003, 2.505108e+003
1.172556e+003, 2.507824e+003
1.174484e+003, 2.513766e+003
1.176413e+003, 2.520144e+003
1.178341e+003, 2.522866e+003
1.180270e+003, 2.519684e+003
1.182198e+003, 2.519004e+003
1.184126e+003, 2.522563e+003
1.186055e+003, 2.526679e+003
1.187983e+003, 2.530075e+003
1.189912e+003, 2.532434e+003
1.191840e+003, 2.532412e+003
1.193769e+003, 2.528840e+003
1.195697e+003, 2.526226e+003
1.197626e+003, 2.526998e+003
1.199554e+003, 2.529644e+003
1.201483e+003, 2.532852e+003
1.203411e+003, 2.537282e+003
1.205340e+003, 2.540672e+003
1.207268e+003, 2.539715e+003
1.209197e+003, 2.540682e+003
1.211125e+003, 2.547644e+003
1.213053e+003, 2.559191e+003
1.214982e+003, 2.567602e+003
1.216910e+003, 2.571487e+003
1.218839e+003, 2.574030e+003
1.220767e+003, 2.575390e+003
1.222696e+003, 2.575912e+003
1.224624e+003, 2.576334e+003
1.226553e+003, 2.576972e+003
1.228481e+003, 2.576802e+003
1.230410e+003, 2.574445e+003
1.232338e+003, 2.573908e+003
1.234267e+003, 2.577775e+003
1.236195e+003, 2.584764e+003
1.238124e+003, 2.590629e+003
1.240052e+003, 2.594322e+003
1.241980e+003, 2.598344e+003
1.243909e+003, 2.603502e+003
1.245837e+003, 2.608428e+003
1.247766e+003, 2.611991e+003
1.249694e+003, 2.614106e+003
1.251623e+003, 2.615918e+003
1.253551e+003, 2.615429e+003
1.255480e+003, 2.617326e+003
1.257408e+003, 2.625656e+003
1.259337e+003, 2.636193e+003
1.261265e+003, 2.641462e+003
1.263194e+003, 2.640573e+003
1.265122e+003, 2.640611e+003
1.267051e+003, 2.642997e+003
1.268979e+003, 2.646685e+003
1.270907e+003, 2.650703e+003
1.272836e+003, 2.655423e+003
1.274764e+003, 2.662577e+003
1.276693e+003, 2.672858e+003
1.278621e+003, 2.684647e+003
1.280550e+003, 2.696074e+003
1.282478e+003, 2.709754e+003
1.284407e+003, 2.722946e+003
1.286335e+003, 2.729858e+003
1.288264e+003, 2.771975e+003
1.290192e+003, 2.812424e+003
1.292121e+003, 2.928088e+003
1.294049e+003, 3.158886e+003
1.295978e+003, 3.476040e+003
1.297906e+003, 3.857540e+003
1.299834e+003, 4.330749e+003
1.301763e+003, 4.690927e+003
1.303691e+003, 4.902045e+003
1.305620e+003, 4.993751e+003
1.307548e+003, 4.899764e+003
1.309477e+003, 4.703451e+003
1.311405e+003, 4.620147e+003
1.313334e+003, 4.627942e+003
1.315262e+003, 4.841661e+003
1.317191e+003, 5.261042e+003
1.319119e+003, 5.925850e+003
1.321048e+003, 6.825155e+003
1.322976e+003, 7.945175e+003
1.324905e+003, 9.553634e+003
1.326833e+003, 1.107318e+004
1.328761e+003, 1.385590e+004
1.330690e+003, 1.931348e+004
1.332618e+003, 2.551662e+004
1.334547e+003, 3.079853e+004
1.336475e+003, 3.571660e+004
1.338404e+003, 3.615158e+004
1.340332e+003, 2.819623e+004
1.342261e+003, 2.029683e+004
1.344189e+003, 1.527556e+004
1.346118e+003, 1.229942e+004
1.348046e+003, 9.998054e+003
1.349975e+003, 8.408858e+003
1.351903e+003, 7.096346e+003
1.353832e+003, 6.038061e+003
1.355760e+003, 5.175170e+003
1.357688e+003, 4.488818e+003
1.359617e+003, 3.963915e+003
1.361545e+003, 3.583396e+003
1.363474e+003, 3.371819e+003
1.365402e+003, 3.223853e+003
1.367331e+003, 3.148308e+003
1.369259e+003, 3.103264e+003
1.371188e+003, 3.073990e+003
1.373116e+003, 3.058503e+003
1.375045e+003, 3.043806e+003
1.376973e+003, 3.026441e+003
1.378902e+003, 3.015184e+003
1.380830e+003, 3.012985e+003
1.382759e+003, 3.015239e+003
1.384687e+003, 3.019000e+003
1.386615e+003, 3.024386e+003
1.388544e+003, 3.031952e+003
1.390472e+003, 3.042934e+003
1.392401e+003, 3.053760e+003
1.394329e+003, 3.061152e+003
1.396258e+003, 3.069902e+003
1.398186e+003, 3.086596e+003
1.400115e+003, 3.109301e+003
1.402043e+003, 3.126118e+003
1.403972e+003, 3.133409e+003
1.405900e+003, 3.141518e+003
1.407829e+003, 3.153700e+003
1.409757e+003, 3.168655e+003
1.411686e+003, 3.186508e+003
1.413614e+003, 3.207021e+003
1.415542e+003, 3.224148e+003
1.417471e+003, 3.233697e+003
1.419399e+003, 3.247442e+003
1.421328e+003, 3.271084e+003
1.423256e+003, 3.298318e+003
1.425185e+003, 3.323613e+003
1.427113e+003, 3.346645e+003
1.429042e+003, 3.367644e+003
1.430970e+003, 3.385441e+003
1.432899e+003, 3.402463e+003
1.434827e+003, 3.418298e+003
1.436756e+003, 3.434715e+003
1.438684e+003, 3.454349e+003
1.440613e+003, 3.478026e+003
1.442541e+003, 3.500206e+003
1.444469e+003, 3.521220e+003
1.446398e+003, 3.540891e+003
1.448326e+003, 3.559224e+003
1.450255e+003, 3.575643e+003
1.452183e+003, 3.590368e+003
1.454112e+003, 3.602668e+003
1.456040e+003, 3.607926e+003
1.457969e+003, 3.605300e+003
1.459897e+003, 3.596238e+003
1.461826e+003, 3.577500e+003
1.463754e+003, 3.555448e+003
1.465683e+003, 3.536511e+003
1.467611e+003, 3.519883e+003
1.469540e+003, 3.499344e+003
1.471468e+003, 3.472806e+003
1.473396e+003, 3.447213e+003
1.475325e+003, 3.424860e+003
1.477253e+003, 3.403987e+003
1.479182e+003, 3.382951e+003
1.481110e+003, 3.361917e+003
1.483039e+003, 3.343118e+003
1.484967e+003, 3.327860e+003
1.486896e+003, 3.311581e+003
1.488824e+003, 3.290986e+003
1.490753e+003, 3.271381e+003
1.492681e+003, 3.256177e+003
1.494610e+003, 3.244886e+003
1.496538e+003, 3.234547e+003
1.498467e+003, 3.224708e+003
1.500395e+003, 3.216525e+003
1.502323e+003, 3.211446e+003
1.504252e+003, 3.206243e+003
1.506180e+003, 3.198635e+003
1.508109e+003, 3.189734e+003
1.510037e+003, 3.182623e+003
1.511966e+003, 3.177840e+003
1.513894e+003, 3.174243e+003
1.515823e+003, 3.174908e+003
1.517751e+003, 3.173522e+003
1.519680e+003, 3.163839e+003
1.521608e+003, 3.151924e+003
1.523537e+003, 3.149315e+003
1.525465e+003, 3.158711e+003
1.527394e+003, 3.163407e+003
1.529322e+003, 3.158948e+003
1.531250e+003, 3.154894e+003
1.533179e+003, 3.154511e+003
1.535107e+003, 3.155351e+003
1.537036e+003, 3.153854e+003
1.538964e+003, 3.150452e+003
1.540893e+003, 3.151142e+003
1.542821e+003, 3.159304e+003
1.544750e+003, 3.164520e+003
1.546678e+003, 3.161778e+003
1.548607e+003, 3.156750e+003
1.550535e+003, 3.152653e+003
1.552464e+003, 3.149707e+003
1.554392e+003, 3.149382e+003
1.556321e+003, 3.152437e+003
1.558249e+003, 3.154543e+003
1.560177e+003, 3.155016e+003
1.562106e+003, 3.154360e+003
1.564034e+003, 3.152090e+003
1.565963e+003, 3.149563e+003
1.567891e+003, 3.149100e+003
1.569820e+003, 3.150880e+003
1.571748e+003, 3.152608e+003
1.573677e+003, 3.153128e+003
1.575605e+003, 3.154452e+003
1.577534e+003, 3.157819e+003
1.579462e+003, 3.161482e+003
1.581391e+003, 3.164008e+003
1.583319e+003, 3.165323e+003
1.585248e+003, 3.165148e+003
1.587176e+003, 3.162905e+003
1.589104e+003, 3.161027e+003
1.591033e+003, 3.160755e+003
1.592961e+003, 3.160678e+003
1.594890e+003, 3.159347e+003
1.596818e+003, 3.157546e+003
1.598747e+003, 3.158354e+003
1.600675e+003, 3.163055e+003
1.602604e+003, 3.165424e+003
1.604532e+003, 3.162106e+003
1.606461e+003, 3.160496e+003
1.608389e+003, 3.164971e+003
1.610318e+003, 3.171693e+003
1.612246e+003, 3.175175e+003
1.614175e+003, 3.174957e+003
1.616103e+003, 3.178422e+003
1.618031e+003, 3.187628e+003
1.619960e+003, 3.195749e+003
1.621888e+003, 3.200189e+003
1.623817e+003, 3.203598e+003
1.625745e+003, 3.207624e+003
1.627674e+003, 3.211721e+003
1.629602e+003, 3.214615e+003
1.631531e+003, 3.215739e+003
1.633459e+003, 3.217966e+003
1.635388e+003, 3.224564e+003
1.637316e+003, 3.229095e+003
1.639245e+003, 3.228196e+003
1.641173e+003, 3.225882e+003
1.643102e+003, 3.226551e+003
1.645030e+003, 3.230079e+003
1.646958e+003, 3.233004e+003
1.648887e+003, 3.233654e+003
1.650815e+003, 3.236106e+003
1.652744e+003, 3.242374e+003
1.654672e+003, 3.248143e+003
1.656601e+003, 3.249836e+003
1.658529e+003, 3.250081e+003
1.660458e+003, 3.254471e+003
1.662386e+003, 3.264382e+003
1.664315e+003, 3.270099e+003
1.666243e+003, 3.266986e+003
1.668172e+003, 3.266742e+003
1.670100e+003, 3.273692e+003
1.672029e+003, 3.282177e+003
1.673957e+003, 3.287776e+003
1.675885e+003, 3.291543e+003
1.677814e+003, 3.297072e+003
1.679742e+003, 3.305474e+003
1.681671e+003, 3.312322e+003
1.683599e+003, 3.315856e+003
1.685528e+003, 3.319726e+003
1.687456e+003, 3.325208e+003
1.689385e+003, 3.330993e+003
1.691313e+003, 3.335579e+003
1.693242e+003, 3.339189e+003
1.695170e+003, 3.343870e+003
1.697099e+003, 3.352427e+003
1.699027e+003, 3.356040e+003
1.700956e+003, 3.350577e+003
1.702884e+003, 3.345321e+003
1.704813e+003, 3.344130e+003
1.706741e+003, 3.345143e+003
1.708669e+003, 3.345927e+003
1.710598e+003, 3.346678e+003
1.712526e+003, 3.349805e+003
1.714455e+003, 3.357054e+003
1.716383e+003, 3.363345e+003
1.718312e+003, 3.366673e+003
1.720240e+003, 3.370666e+003
1.722169e+003, 3.378291e+003
1.724097e+003, 3.386306e+003
1.726026e+003, 3.389681e+003
1.727954e+003, 3.388153e+003
1.729883e+003, 3.387485e+003
1.731811e+003, 3.388637e+003
1.733740e+003, 3.388860e+003
1.735668e+003, 3.386732e+003
1.737596e+003, 3.385882e+003
1.739525e+003, 3.390413e+003
1.741453e+003, 3.396790e+003
1.743382e+003, 3.398911e+003
1.745310e+003, 3.396871e+003
1.747239e+003, 3.398690e+003
1.749167e+003, 3.405401e+003
1.751096e+003, 3.413710e+003
1.753024e+003, 3.425581e+003
1.754953e+003, 3.435142e+003
1.756881e+003, 3.437560e+003
1.758810e+003, 3.436681e+003
1.760738e+003, 3.438194e+003
1.762667e+003, 3.442139e+003
1.764595e+003, 3.445019e+003
1.766523e+003, 3.447031e+003
1.768452e+003, 3.448618e+003
1.770380e+003, 3.449921e+003
1.772309e+003, 3.451368e+003
1.774237e+003, 3.451935e+003
1.776166e+003, 3.453523e+003
1.778094e+003, 3.460152e+003
1.780023e+003, 3.470915e+003
1.781951e+003, 3.474690e+003
1.783880e+003, 3.466009e+003
1.785808e+003, 3.462528e+003
1.787737e+003, 3.468607e+003
1.789665e+003, 3.475325e+003
1.791594e+003, 3.481816e+003
1.793522e+003, 3.486085e+003
1.795450e+003, 3.483996e+003
1.797379e+003, 3.477575e+003
1.799307e+003, 3.477738e+003
1.801236e+003, 3.486924e+003
1.803164e+003, 3.492947e+003
1.805093e+003, 3.493466e+003
1.807021e+003, 3.493958e+003
1.808950e+003, 3.496060e+003
1.810878e+003, 3.499017e+003
1.812807e+003, 3.502741e+003
1.814735e+003, 3.506923e+003
1.816664e+003, 3.510327e+003
1.818592e+003, 3.512670e+003
1.820521e+003, 3.516048e+003
1.822449e+003, 3.519998e+003
1.824377e+003, 3.525160e+003
1.826306e+003, 3.533346e+003
1.828234e+003, 3.539954e+003
1.830163e+003, 3.542043e+003
1.832091e+003, 3.541676e+003
1.834020e+003, 3.541273e+003
1.835948e+003, 3.541062e+003
1.837877e+003, 3.541354e+003
1.839805e+003, 3.542296e+003
1.841734e+003, 3.544641e+003
1.843662e+003, 3.549448e+003
1.845591e+003, 3.554002e+003
1.847519e+003, 3.556441e+003
1.849448e+003, 3.558576e+003
1.851376e+003, 3.562333e+003
1.853304e+003, 3.566765e+003
1.855233e+003, 3.569623e+003
1.857161e+003, 3.571003e+003
1.859090e+003, 3.573472e+003
1.861018e+003, 3.578355e+003
1.862947e+003, 3.582618e+003
1.864875e+003, 3.583025e+003
1.866804e+003, 3.585780e+003
1.868732e+003, 3.594828e+003
1.870661e+003, 3.607161e+003
1.872589e+003, 3.620780e+003
1.874518e+003, 3.634256e+003
1.876446e+003, 3.639625e+003
1.878375e+003, 3.633181e+003
1.880303e+003, 3.629623e+003
1.882231e+003, 3.630696e+003
1.884160e+003, 3.633674e+003
1.886088e+003, 3.640917e+003
1.888017e+003, 3.647886e+003
1.889945e+003, 3.652202e+003
1.891874e+003, 3.654694e+003
1.893802e+003, 3.655365e+003
1.895731e+003, 3.654298e+003
1.897659e+003, 3.657531e+003
1.899588e+003, 3.667138e+003
1.901516e+003, 3.675720e+003
1.903445e+003, 3.682632e+003
1.905373e+003, 3.687385e+003
1.907302e+003, 3.688054e+003
1.909230e+003, 3.687796e+003
1.911158e+003, 3.689089e+003
1.913087e+003, 3.691704e+003
1.915015e+003, 3.695257e+003
1.916944e+003, 3.700036e+003
1.918872e+003, 3.703972e+003
1.920801e+003, 3.705895e+003
1.922729e+003, 3.710997e+003
1.924658e+003, 3.722926e+003
1.926586e+003, 3.732884e+003
1.928515e+003, 3.736226e+003
1.930443e+003, 3.736601e+003
1.932372e+003, 3.734662e+003
1.934300e+003, 3.733046e+003
1.936229e+003, 3.738406e+003
1.938157e+003, 3.750281e+003
1.940085e+003, 3.758804e+003
1.942014e+003, 3.762381e+003
1.943942e+003, 3.766388e+003
1.945871e+003, 3.773574e+003
1.947799e+003, 3.778551e+003
1.949728e+003, 3.777182e+003
1.951656e+003, 3.774687e+003
1.953585e+003, 3.775749e+003
1.955513e+003, 3.778762e+003
1.957442e+003, 3.779518e+003
1.959370e+003, 3.778039e+003
1.961299e+003, 3.781448e+003
1.963227e+003, 3.793372e+003
1.965156e+003, 3.803340e+003
1.967084e+003, 3.808563e+003
1.969012e+003, 3.815028e+003
1.970941e+003, 3.825391e+003
1.972869e+003, 3.835508e+003
1.974798e+003, 3.840813e+003
1.976726e+003, 3.844823e+003
1.978655e+003, 3.855227e+003
1.980583e+003, 3.871099e+003
1.982512e+003, 3.878448e+003
1.984440e+003, 3.875936e+003
1.986369e+003, 3.877002e+003
1.988297e+003, 3.884593e+003
1.990226e+003, 3.893154e+003
1.992154e+003, 3.900203e+003
1.994083e+003, 3.909003e+003
1.996011e+003, 3.923994e+003
1.997939e+003, 3.938700e+003
1.999868e+003, 3.944100e+003
2.001796e+003, 3.944565e+003
2.003725e+003, 3.952551e+003
2.005653e+003, 3.968193e+003
2.007582e+003, 3.979960e+003
2.009510e+003, 3.985978e+003
2.011439e+003, 3.992654e+003
2.013367e+003, 4.001176e+003
2.015296e+003, 4.010021e+003
2.017224e+003, 4.017803e+003
2.019153e+003, 4.025782e+003
2.021081e+003, 4.035566e+003
2.023010e+003, 4.045297e+003
2.024938e+003, 4.052433e+003
2.026866e+003, 4.057386e+003
2.028795e+003, 4.061695e+003
2.030723e+003, 4.065382e+003
2.032652e+003, 4.071797e+003
2.034580e+003, 4.083117e+003
2.036509e+003, 4.093338e+003
2.038437e+003, 4.099234e+003
2.040366e+003, 4.106471e+003
2.042294e+003, 4.119620e+003
2.044223e+003, 4.131552e+003
2.046151e+003, 4.134107e+003
2.048080e+003, 4.133096e+003
2.050008e+003, 4.139525e+003
2.051937e+003, 4.151604e+003
2.053865e+003, 4.159091e+003
2.055793e+003, 4.161565e+003
2.057722e+003, 4.163420e+003
2.059650e+003, 4.162878e+003
2.061579e+003, 4.166878e+003
2.063507e+003, 4.180931e+003
2.065436e+003, 4.193387e+003
2.067364e+003, 4.198217e+003
2.069293e+003, 4.200179e+003
2.071221e+003, 4.202322e+003
2.073150e+003, 4.204765e+003
2.075078e+003, 4.208188e+003
2.077007e+003, 4.212509e+003
2.078935e+003, 4.216184e+003
2.080864e+003, 4.219709e+003
2.082792e+003, 4.220967e+003
2.084720e+003, 4.219079e+003
2.086649e+003, 4.218564e+003
2.088577e+003, 4.220888e+003
2.090506e+003, 4.224447e+003
2.092434e+003, 4.227322e+003
2.094363e+003, 4.232795e+003
2.096291e+003, 4.246656e+003
2.098220e+003, 4.261241e+003
2.100148e+003, 4.263657e+003
2.102077e+003, 4.257858e+003
2.104005e+003, 4.259644e+003
2.105934e+003, 4.269518e+003
2.107862e+003, 4.276698e+003
2.109791e+003, 4.282041e+003
2.111719e+003, 4.283581e+003
2.113647e+003, 4.279968e+003
2.115576e+003, 4.276638e+003
2.117504e+003, 4.275892e+003
2.119433e+003, 4.275735e+003
2.121361e+003, 4.274310e+003
2.123290e+003, 4.274481e+003
2.125218e+003, 4.279038e+003
2.127147e+003, 4.286358e+003
2.129075e+003, 4.293697e+003
2.131004e+003, 4.300732e+003
2.132932e+003, 4.307300e+003
2.134861e+003, 4.313075e+003
2.136789e+003, 4.318515e+003
2.138718e+003, 4.323603e+003
2.140646e+003, 4.327862e+003
2.142574e+003, 4.330877e+003
2.144503e+003, 4.333801e+003
2.146431e+003, 4.336431e+003
2.148360e+003, 4.340187e+003
2.150288e+003, 4.346516e+003
2.152217e+003, 4.353944e+003
2.154145e+003, 4.362289e+003
2.156074e+003, 4.370046e+003
2.158002e+003, 4.373117e+003
2.159931e+003, 4.372214e+003
2.161859e+003, 4.373808e+003
2.163788e+003, 4.377933e+003
2.165716e+003, 4.381684e+003
2.167645e+003, 4.385161e+003
2.169573e+003, 4.386750e+003
2.171501e+003, 4.384671e+003
2.173430e+003, 4.384673e+003
2.175358e+003, 4.390163e+003
2.177287e+003, 4.396850e+003
2.179215e+003, 4.403746e+003
2.181144e+003, 4.409771e+003
2.183072e+003, 4.413143e+003
2.185001e+003, 4.415061e+003
2.186929e+003, 4.417170e+003
2.188858e+003, 4.419293e+003
2.190786e+003, 4.421840e+003
2.192715e+003, 4.424759e+003
2.194643e+003, 4.426574e+003
2.196572e+003, 4.427384e+003
2.198500e+003, 4.428513e+003
2.200428e+003, 4.431125e+003
2.202357e+003, 4.431567e+003
2.204285e+003, 4.427236e+003
2.206214e+003, 4.423658e+003
2.208142e+003, 4.422505e+003
2.210071e+003, 4.423000e+003
2.211999e+003, 4.425221e+003
2.213928e+003, 4.428201e+003
2.215856e+003, 4.431090e+003
2.217785e+003, 4.434411e+003
2.219713e+003, 4.439938e+003
2.221642e+003, 4.447032e+003
2.223570e+003, 4.449514e+003
2.225499e+003, 4.447336e+003
2.227427e+003, 4.454213e+003
2.229355e+003, 4.472133e+003
2.231284e+003, 4.483076e+003
2.233212e+003, 4.481507e+003
2.235141e+003, 4.481689e+003
2.237069e+003, 4.489468e+003
2.238998e+003, 4.495042e+003
2.240926e+003, 4.494258e+003
2.242855e+003, 4.492099e+003
2.244783e+003, 4.491369e+003
2.246712e+003, 4.491304e+003
2.248640e+003, 4.491027e+003
2.250569e+003, 4.491547e+003
2.252497e+003, 4.492857e+003
2.254426e+003, 4.496271e+003
2.256354e+003, 4.508542e+003
2.258282e+003, 4.527494e+003
2.260211e+003, 4.536525e+003
2.262139e+003, 4.534647e+003
2.264068e+003, 4.534698e+003
2.265996e+003, 4.538383e+003
2.267925e+003, 4.540489e+003
2.269853e+003, 4.537275e+003
2.271782e+003, 4.537479e+003
2.273710e+003, 4.545258e+003
2.275639e+003, 4.553393e+003
2.277567e+003, 4.560090e+003
2.279496e+003, 4.565919e+003
2.281424e+003, 4.571083e+003
2.283353e+003, 4.575563e+003
2.285281e+003, 4.581245e+003
2.287209e+003, 4.584680e+003
2.289138e+003, 4.576734e+003
2.291066e+003, 4.564440e+003
2.292995e+003, 4.566359e+003
2.294923e+003, 4.580579e+003
2.296852e+003, 4.590084e+003
2.298780e+003, 4.594061e+003
2.300709e+003, 4.601216e+003
2.302637e+003, 4.614263e+003
2.304566e+003, 4.623364e+003
2.306494e+003, 4.625605e+003
2.308423e+003, 4.629245e+003
2.310351e+003, 4.635289e+003
2.312280e+003, 4.642320e+003
2.314208e+003, 4.650712e+003
2.316136e+003, 4.658751e+003
2.318065e+003, 4.668158e+003
2.319993e+003, 4.674254e+003
2.321922e+003, 4.668862e+003
2.323850e+003, 4.663951e+003
2.325779e+003, 4.674813e+003
2.327707e+003, 4.691614e+003
2.329636e+003, 4.696941e+003
2.331564e+003, 4.695799e+003
2.333493e+003, 4.705783e+003
2.335421e+003, 4.723812e+003
2.337350e+003, 4.724831e+003
2.339278e+003, 4.709807e+003
2.341207e+003, 4.707406e+003
2.343135e+003, 4.721040e+003
2.345063e+003, 4.731067e+003
2.346992e+003, 4.735552e+003
2.348920e+003, 4.737519e+003
2.350849e+003, 4.731454e+003
2.352777e+003, 4.733391e+003
2.354706e+003, 4.754062e+003
2.356634e+003, 4.770033e+003
2.358563e+003, 4.768442e+003
2.360491e+003, 4.767448e+003
2.362420e+003, 4.775653e+003
2.364348e+003, 4.785527e+003
2.366277e+003, 4.792639e+003
2.368205e+003, 4.798754e+003
2.370134e+003, 4.805600e+003
2.372062e+003, 4.813029e+003
2.373990e+003, 4.820694e+003
2.375919e+003, 4.828888e+003
2.377847e+003, 4.838958e+003
2.379776e+003, 4.850100e+003
2.381704e+003, 4.856120e+003
2.383633e+003, 4.857673e+003
2.385561e+003, 4.866717e+003
2.387490e+003, 4.883491e+003
2.389418e+003, 4.896387e+003
2.391347e+003, 4.903143e+003
2.393275e+003, 4.914771e+003
2.395204e+003, 4.935474e+003
2.397132e+003, 4.952558e+003
2.399061e+003, 4.961462e+003
2.400989e+003, 4.970813e+003
2.402917e+003, 4.982666e+003
2.404846e+003, 4.993961e+003
2.406774e+003, 5.004771e+003
2.408703e+003, 5.014356e+003
2.410631e+003, 5.020969e+003
2.412560e+003, 5.029031e+003
2.414488e+003, 5.041479e+003
2.416417e+003, 5.056521e+003
2.418345e+003, 5.074054e+003
2.420274e+003, 5.091924e+003
2.422202e+003, 5.106493e+003
2.424131e+003, 5.120369e+003
2.426059e+003, 5.137999e+003
2.427988e+003, 5.158116e+003
2.429916e+003, 5.179454e+003
2.431844e+003, 5.200625e+003
2.433773e+003, 5.216747e+003
2.435701e+003, 5.228475e+003
2.437630e+003, 5.238229e+003
2.439558e+003, 5.245829e+003
2.441487e+003, 5.264242e+003
2.443415e+003, 5.298198e+003
2.445344e+003, 5.322525e+003
2.447272e+003, 5.334857e+003
2.449201e+003, 5.345744e+003
2.451129e+003, 5.354195e+003
2.453058e+003, 5.368280e+003
2.454986e+003, 5.390564e+003
2.456915e+003, 5.414451e+003
2.458843e+003, 5.440841e+003
2.460771e+003, 5.464110e+003
2.462700e+003, 5.484075e+003
2.464628e+003, 5.498775e+003
2.466557e+003, 5.501924e+003
2.468485e+003, 5.507565e+003
2.470414e+003, 5.523580e+003
2.472342e+003, 5.541364e+003
2.474271e+003, 5.555925e+003
2.476199e+003, 5.571186e+003
2.478128e+003, 5.595623e+003
2.480056e+003, 5.616361e+003
2.481985e+003, 5.616969e+003
2.483913e+003, 5.610377e+003
2.485842e+003, 5.609993e+003
2.487770e+003, 5.614976e+003
2.489698e+003, 5.626831e+003
2.491627e+003, 5.641718e+003
2.493555e+003, 5.653222e+003
2.495484e+003, 5.660380e+003
2.497412e+003, 5.658195e+003
2.499341e+003, 5.649276e+003
2.501269e+003, 5.644151e+003
2.503198e+003, 5.642478e+003
2.505126e+003, 5.640211e+003
2.507055e+003, 5.637048e+003
2.508983e+003, 5.633940e+003
2.510912e+003, 5.630706e+003
2.512840e+003, 5.619071e+003
2.514769e+003, 5.597576e+003
2.516697e+003, 5.585903e+003
2.518625e+003, 5.589719e+003
2.520554e+003, 5.587392e+003
2.522482e+003, 5.571812e+003
2.524411e+003, 5.560375e+003
2.526339e+003, 5.555055e+003
2.528268e+003, 5.550153e+003
2.530196e+003, 5.544694e+003
2.532125e+003, 5.540814e+003
2.534053e+003, 5.539793e+003
2.535982e+003, 5.537914e+003
2.537910e+003, 5.532650e+003
2.539839e+003, 5.528073e+003
2.541767e+003, 5.521994e+003
2.543696e+003, 5.521362e+003
2.545624e+003, 5.536702e+003
2.547552e+003, 5.545833e+003
2.549481e+003, 5.533644e+003
2.551409e+003, 5.524482e+003
2.553338e+003, 5.535195e+003
2.555266e+003, 5.548772e+003
2.557195e+003, 5.556635e+003
2.559123e+003, 5.561600e+003
2.561052e+003, 5.562101e+003
2.562980e+003, 5.564502e+003
2.564909e+003, 5.576831e+003
2.566837e+003, 5.590061e+003
2.568766e+003, 5.593511e+003
2.570694e+003, 5.595031e+003
2.572623e+003, 5.603267e+003
2.574551e+003, 5.613878e+003
2.576479e+003, 5.621940e+003
2.578408e+003, 5.628760e+003
2.580336e+003, 5.636266e+003
2.582265e+003, 5.644431e+003
2.584193e+003, 5.653263e+003
2.586122e+003, 5.662184e+003
2.588050e+003, 5.668203e+003
2.589979e+003, 5.673588e+003
2.591907e+003, 5.686273e+003
2.593836e+003, 5.701698e+003
2.595764e+003, 5.704958e+003
2.597693e+003, 5.699381e+003
2.599621e+003, 5.698826e+003
2.601550e+003, 5.703321e+003
2.603478e+003, 5.714849e+003
2.605406e+003, 5.731225e+003
2.607335e+003, 5.739867e+003
2.609263e+003, 5.741675e+003
2.611192e+003, 5.745584e+003
2.613120e+003, 5.751627e+003
2.615049e+003, 5.760419e+003
2.616977e+003, 5.771774e+003
2.618906e+003, 5.781475e+003
2.620834e+003, 5.789138e+003
2.622763e+003, 5.792144e+003
2.624691e+003, 5.789991e+003
2.626620e+003, 5.795946e+003
2.628548e+003, 5.813339e+003
2.630477e+003, 5.817896e+003
2.632405e+003, 5.805510e+003
2.634333e+003, 5.813154e+003
2.636262e+003, 5.843989e+003
2.638190e+003, 5.856030e+003
2.640119e+003, 5.843389e+003
2.642047e+003, 5.838083e+003
2.643976e+003, 5.844214e+003
2.645904e+003, 5.854217e+003
2.647833e+003, 5.871426e+003
2.649761e+003, 5.880040e+003
2.651690e+003, 5.878297e+003
2.653618e+003, 5.878532e+003
2.655547e+003, 5.881588e+003
2.657475e+003, 5.892031e+003
2.659404e+003, 5.914261e+003
2.661332e+003, 5.930759e+003
2.663260e+003, 5.937174e+003
2.665189e+003, 5.943524e+003
2.667117e+003, 5.950157e+003
2.669046e+003, 5.954967e+003
2.670974e+003, 5.958377e+003
2.672903e+003, 5.956945e+003
2.674831e+003, 5.948564e+003
2.676760e+003, 5.941187e+003
2.678688e+003, 5.936029e+003
2.680617e+003, 5.932735e+003
2.682545e+003, 5.932814e+003
2.684474e+003, 5.929658e+003
2.686402e+003, 5.920431e+003
2.688331e+003, 5.917402e+003
2.690259e+003, 5.925211e+003
2.692188e+003, 5.933915e+003
2.694116e+003, 5.943938e+003
2.696044e+003, 5.950726e+003
2.697973e+003, 5.951939e+003
2.699901e+003, 5.954787e+003
2.701830e+003, 5.958542e+003
2.703758e+003, 5.970776e+003
2.705687e+003, 6.001235e+003
2.707615e+003, 6.017778e+003
2.709544e+003, 6.003075e+003
2.711472e+003, 5.999804e+003
2.713401e+003, 6.014980e+003
2.715329e+003, 6.024780e+003
2.717258e+003, 6.023618e+003
2.719186e+003, 6.027345e+003
2.721115e+003, 6.044505e+003
2.723043e+003, 6.054013e+003
2.724971e+003, 6.047393e+003
2.726900e+003, 6.049216e+003
2.728828e+003, 6.063334e+003
2.730757e+003, 6.075484e+003
2.732685e+003, 6.082113e+003
2.734614e+003, 6.092069e+003
2.736542e+003, 6.109318e+003
2.738471e+003, 6.120892e+003
2.740399e+003, 6.123299e+003
2.742328e+003, 6.127490e+003
2.744256e+003, 6.134461e+003
2.746185e+003, 6.144127e+003
2.748113e+003, 6.158496e+003
2.750042e+003, 6.164755e+003
2.751970e+003, 6.155527e+003
2.753898e+003, 6.155453e+003
2.755827e+003, 6.167601e+003
2.757755e+003, 6.177197e+003
2.759684e+003, 6.183240e+003
2.761612e+003, 6.190298e+003
2.763541e+003, 6.198721e+003
2.765469e+003, 6.210000e+003
2.767398e+003, 6.225408e+003
2.769326e+003, 6.236787e+003
2.771255e+003, 6.242986e+003
2.773183e+003, 6.254395e+003
2.775112e+003, 6.271228e+003
2.777040e+003, 6.281633e+003
2.778969e+003, 6.284510e+003
2.780897e+003, 6.285255e+003
2.782825e+003, 6.283587e+003
2.784754e+003, 6.289521e+003
2.786682e+003, 6.302654e+003
2.788611e+003, 6.312729e+003
2.790539e+003, 6.319828e+003
2.792468e+003, 6.327789e+003
2.794396e+003, 6.336371e+003
2.796325e+003, 6.341545e+003
2.798253e+003, 6.343517e+003
2.800182e+003, 6.340979e+003
2.802110e+003, 6.337208e+003
2.804039e+003, 6.350108e+003
2.805967e+003, 6.373806e+003
2.807896e+003, 6.386079e+003
2.809824e+003, 6.390617e+003
2.811752e+003, 6.399548e+003
2.813681e+003, 6.411069e+003
2.815609e+003, 6.419596e+003
2.817538e+003, 6.426311e+003
2.819466e+003, 6.431713e+003
2.821395e+003, 6.437813e+003
2.823323e+003, 6.450116e+003
2.825252e+003, 6.463919e+003
2.827180e+003, 6.469979e+003
2.829109e+003, 6.474236e+003
2.831037e+003, 6.486530e+003
2.832966e+003, 6.499790e+003
2.834894e+003, 6.505838e+003
2.836823e+003, 6.509404e+003
2.838751e+003, 6.515548e+003
2.840679e+003, 6.521506e+003
2.842608e+003, 6.523376e+003
2.844536e+003, 6.526257e+003
2.846465e+003, 6.533251e+003
2.848393e+003, 6.543306e+003
2.850322e+003, 6.558148e+003
2.852250e+003, 6.572550e+003
2.854179e+003, 6.584826e+003
2.856107e+003, 6.594611e+003
2.858036e+003, 6.598112e+003
2.859964e+003, 6.605716e+003
2.861893e+003, 6.625171e+003
2.863821e+003, 6.643155e+003
2.865750e+003, 6.654009e+003
2.867678e+003, 6.664586e+003
2.869606e+003, 6.676467e+003
2.871535e+003, 6.685831e+003
2.873463e+003, 6.689687e+003
2.875392e+003, 6.696027e+003
2.877320e+003, 6.708009e+003
2.879249e+003, 6.719614e+003
2.881177e+003, 6.730578e+003
2.883106e+003, 6.745041e+003
2.885034e+003, 6.764303e+003
2.886963e+003, 6.780616e+003
2.888891e+003, 6.791995e+003
2.890820e+003, 6.803995e+003
2.892748e+003, 6.816060e+003
2.894677e+003, 6.820021e+003
2.896605e+003, 6.817348e+003
2.898533e+003, 6.827531e+003
2.900462e+003, 6.849163e+003
2.902390e+003, 6.868385e+003
2.904319e+003, 6.884976e+003
2.906247e+003, 6.892808e+003
2.908176e+003, 6.897667e+003
2.910104e+003, 6.917544e+003
2.912033e+003, 6.941607e+003
2.913961e+003, 6.945726e+003
2.915890e+003, 6.942599e+003
2.917818e+003, 6.951482e+003
2.919747e+003, 6.965546e+003
2.921675e+003, 6.979639e+003
2.923604e+003, 6.992560e+003
2.925532e+003, 7.000263e+003
2.927460e+003, 7.010315e+003
2.929389e+003, 7.033581e+003
2.931317e+003, 7.053555e+003
2.933246e+003, 7.057843e+003
2.935174e+003, 7.064053e+003
2.937103e+003, 7.081925e+003
2.939031e+003, 7.100505e+003
2.940960e+003, 7.118967e+003
2.942888e+003, 7.130953e+003
2.944817e+003, 7.131918e+003
2.946745e+003, 7.137417e+003
2.948674e+003, 7.152541e+003
2.950602e+003, 7.170486e+003
2.952531e+003, 7.191492e+003
2.954459e+003, 7.215362e+003
2.956387e+003, 7.242182e+003
2.958316e+003, 7.259954e+003
2.960244e+003, 7.266481e+003
2.962173e+003, 7.279534e+003
2.964101e+003, 7.298161e+003
2.966030e+003, 7.314479e+003
2.967958e+003, 7.329550e+003
2.969887e+003, 7.348416e+003
2.971815e+003, 7.368471e+003
2.973744e+003, 7.377151e+003
2.975672e+003, 7.385561e+003
2.977601e+003, 7.417489e+003
2.979529e+003, 7.454696e+003
2.981458e+003, 7.478094e+003
2.983386e+003, 7.492852e+003
2.985314e+003, 7.498236e+003
2.987243e+003, 7.504251e+003
2.989171e+003, 7.517072e+003
2.991100e+003, 7.535092e+003
2.993028e+003, 7.562984e+003
2.994957e+003, 7.587648e+003
2.996885e+003, 7.603041e+003
2.998814e+003, 7.617085e+003
3.000742e+003, 7.630015e+003
3.002671e+003, 7.646145e+003
3.004599e+003, 7.667144e+003
3.006528e+003, 7.688467e+003
3.008456e+003, 7.710162e+003
3.010385e+003, 7.729679e+003
3.012313e+003, 7.746904e+003
3.014241e+003, 7.774135e+003
3.016170e+003, 7.809000e+003
3.018098e+003, 7.835418e+003
3.020027e+003, 7.855873e+003
3.021955e+003, 7.883999e+003
3.023884e+003, 7.914263e+003
3.025812e+003, 7.932521e+003
3.027741e+003, 7.948656e+003
3.029669e+003, 7.977638e+003
3.031598e+003, 8.007438e+003
3.033526e+003, 8.020803e+003
3.035455e+003, 8.037177e+003
3.037383e+003, 8.068202e+003
3.039312e+003, 8.103604e+003
3.041240e+003, 8.144057e+003
3.043168e+003, 8.178593e+003
3.045097e+003, 8.205400e+003
3.047025e+003, 8.225819e+003
3.048954e+003, 8.237520e+003
3.050882e+003, 8.257431e+003
3.052811e+003, 8.288843e+003
3.054739e+003, 8.327797e+003
3.056668e+003, 8.373580e+003
3.058596e+003, 8.405806e+003
3.060525e+003, 8.425935e+003
3.062453e+003, 8.450337e+003
3.064382e+003, 8.478150e+003
3.066310e+003, 8.506888e+003
3.068239e+003, 8.535706e+003
3.070167e+003, 8.560669e+003
3.072095e+003, 8.586989e+003
3.074024e+003, 8.621767e+003
3.075952e+003, 8.657422e+003
3.077881e+003, 8.689793e+003
3.079809e+003, 8.716741e+003
3.081738e+003, 8.734758e+003
3.083666e+003, 8.753585e+003
3.085595e+003, 8.778468e+003
3.087523e+003, 8.805321e+003
3.089452e+003, 8.834947e+003
3.091380e+003, 8.865634e+003
3.093309e+003, 8.897038e+003
3.095237e+003, 8.927047e+003
3.097166e+003, 8.954122e+003
3.099094e+003, 8.975266e+003
3.101022e+003, 8.992362e+003
3.102951e+003, 9.022132e+003
3.104879e+003, 9.055276e+003
3.106808e+003, 9.071712e+003
3.108736e+003, 9.080661e+003
3.110665e+003, 9.092950e+003
3.112593e+003, 9.107140e+003
3.114522e+003, 9.125733e+003
3.116450e+003, 9.140557e+003
3.118379e+003, 9.142746e+003
3.120307e+003, 9.147630e+003
3.122236e+003, 9.160579e+003
3.124164e+003, 9.170429e+003
3.126093e+003, 9.171643e+003
3.128021e+003, 9.176203e+003
3.129949e+003, 9.184428e+003
3.131878e+003, 9.189033e+003
3.133806e+003, 9.189808e+003
3.135735e+003, 9.191699e+003
3.137663e+003, 9.193235e+003
3.139592e+003, 9.188580e+003
3.141520e+003, 9.180081e+003
3.143449e+003, 9.167842e+003
3.145377e+003, 9.159106e+003
3.147306e+003, 9.166937e+003
3.149234e+003, 9.172453e+003
3.151163e+003, 9.163026e+003
3.153091e+003, 9.149018e+003
3.155020e+003, 9.130894e+003
3.156948e+003, 9.115848e+003
3.158876e+003, 9.103019e+003
3.160805e+003, 9.103582e+003
3.162733e+003, 9.118954e+003
3.164662e+003, 9.121127e+003
3.166590e+003, 9.109905e+003
3.168519e+003, 9.103036e+003
3.170447e+003, 9.101918e+003
3.172376e+003, 9.117433e+003
3.174304e+003, 9.136915e+003
3.176233e+003, 9.143037e+003
3.178161e+003, 9.141935e+003
3.180090e+003, 9.131291e+003
3.182018e+003, 9.127387e+003
3.183947e+003, 9.140951e+003
3.185875e+003, 9.154589e+003
3.187803e+003, 9.163600e+003
3.189732e+003, 9.167311e+003
3.191660e+003, 9.164915e+003
3.193589e+003, 9.167720e+003
3.195517e+003, 9.176979e+003
3.197446e+003, 9.181532e+003
3.199374e+003, 9.182298e+003
3.201303e+003, 9.183916e+003
3.203231e+003, 9.186432e+003
3.205160e+003, 9.193684e+003
3.207088e+003, 9.198468e+003
3.209017e+003, 9.186649e+003
3.210945e+003, 9.182045e+003
3.212874e+003, 9.203510e+003
3.214802e+003, 9.220490e+003
3.216730e+003, 9.209881e+003
3.218659e+003, 9.216578e+003
3.220587e+003, 9.245736e+003
3.222516e+003, 9.261010e+003
3.224444e+003, 9.259012e+003
3.226373e+003, 9.264760e+003
3.228301e+003, 9.275772e+003
3.230230e+003, 9.278080e+003
3.232158e+003, 9.277393e+003
3.234087e+003, 9.283094e+003
3.236015e+003, 9.288060e+003
3.237944e+003, 9.275361e+003
3.239872e+003, 9.275174e+003
3.241801e+003, 9.308561e+003
3.243729e+003, 9.333169e+003
3.245657e+003, 9.329770e+003
3.247586e+003, 9.329179e+003
3.249514e+003, 9.333042e+003
3.251443e+003, 9.342306e+003
3.253371e+003, 9.355514e+003
3.255300e+003, 9.354074e+003
3.257228e+003, 9.347406e+003
3.259157e+003, 9.361784e+003
3.261085e+003, 9.380142e+003
3.263014e+003, 9.380747e+003
3.264942e+003, 9.383830e+003
3.266871e+003, 9.405847e+003
3.268799e+003, 9.423968e+003
3.270728e+003, 9.429850e+003
3.272656e+003, 9.435271e+003
3.274584e+003, 9.440099e+003
3.276513e+003, 9.455520e+003
3.278441e+003, 9.477879e+003
3.280370e+003, 9.474069e+003
3.282298e+003, 9.458518e+003
3.284227e+003, 9.467996e+003
3.286155e+003, 9.488041e+003
3.288084e+003, 9.505902e+003
3.290012e+003, 9.520636e+003
3.291941e+003, 9.529993e+003
3.293869e+003, 9.537440e+003
3.295798e+003, 9.542225e+003
3.297726e+003, 9.550215e+003
3.299655e+003, 9.562021e+003
3.301583e+003, 9.582622e+003
3.303511e+003, 9.609800e+003
3.305440e+003, 9.620825e+003
3.307368e+003, 9.624327e+003
3.309297e+003, 9.638466e+003
3.311225e+003, 9.654829e+003
3.313154e+003, 9.666490e+003
3.315082e+003, 9.674830e+003
3.317011e+003, 9.675574e+003
3.318939e+003, 9.685217e+003
3.320868e+003, 9.709014e+003
3.322796e+003, 9.733160e+003
3.324725e+003, 9.755965e+003
3.326653e+003, 9.772303e+003
3.328582e+003, 9.783626e+003
3.330510e+003, 9.799282e+003
3.332438e+003, 9.815056e+003
3.334367e+003, 9.823199e+003
3.336295e+003, 9.833666e+003
3.338224e+003, 9.860145e+003
3.340152e+003, 9.879569e+003
3.342081e+003, 9.878654e+003
3.344009e+003, 9.893568e+003
3.345938e+003, 9.935172e+003
3.347866e+003, 9.962531e+003
3.349795e+003, 9.976670e+003
3.351723e+003, 9.981309e+003
3.353652e+003, 9.984478e+003
3.355580e+003, 1.000308e+004
3.357509e+003, 1.002565e+004
3.359437e+003, 1.003933e+004
3.361365e+003, 1.005854e+004
3.363294e+003, 1.009096e+004
3.365222e+003, 1.012506e+004
3.367151e+003, 1.015968e+004
3.369079e+003, 1.017638e+004
3.371008e+003, 1.017684e+004
3.372936e+003, 1.019793e+004
3.374865e+003, 1.022777e+004
3.376793e+003, 1.023987e+004
3.378722e+003, 1.024760e+004
3.380650e+003, 1.026343e+004
3.382579e+003, 1.027839e+004
3.384507e+003, 1.028756e+004
3.386436e+003, 1.030045e+004
3.388364e+003, 1.031840e+004
3.390292e+003, 1.034556e+004
3.392221e+003, 1.037959e+004
3.394149e+003, 1.040373e+004
3.396078e+003, 1.042215e+004
3.398006e+003, 1.044126e+004
3.399935e+003, 1.046142e+004
3.401863e+003, 1.048472e+004
3.403792e+003, 1.050495e+004
3.405720e+003, 1.050874e+004
3.407649e+003, 1.053676e+004
3.409577e+003, 1.059365e+004
3.411506e+003, 1.062760e+004
3.413434e+003, 1.064176e+004
3.415363e+003, 1.066867e+004
3.417291e+003, 1.069773e+004
3.419219e+003, 1.070722e+004
3.421148e+003, 1.071867e+004
3.423076e+003, 1.075379e+004
3.425005e+003, 1.078071e+004
3.426933e+003, 1.078937e+004
3.428862e+003, 1.080398e+004
3.430790e+003, 1.082833e+004
3.432719e+003, 1.086281e+004
3.434647e+003, 1.090053e+004
3.436576e+003, 1.091889e+004
3.438504e+003, 1.093075e+004
3.440433e+003, 1.094555e+004
3.442361e+003, 1.096682e+004
3.444290e+003, 1.099609e+004
3.446218e+003, 1.102919e+004
3.448146e+003, 1.106508e+004
3.450075e+003, 1.109783e+004
3.452003e+003, 1.112593e+004
3.453932e+003, 1.114927e+004
3.455860e+003, 1.116588e+004
3.457789e+003, 1.116381e+004
3.459717e+003, 1.116900e+004
3.461646e+003, 1.121211e+004
3.463574e+003, 1.124341e+004
3.465503e+003, 1.124917e+004
3.467431e+003, 1.126117e+004
3.469360e+003, 1.128197e+004
3.471288e+003, 1.130940e+004
3.473217e+003, 1.133830e+004
3.475145e+003, 1.135474e+004
3.477073e+003, 1.137052e+004
3.479002e+003, 1.140029e+004
3.480930e+003, 1.142708e+004
3.482859e+003, 1.144583e+004
3.484787e+003, 1.146479e+004
3.486716e+003, 1.148449e+004
3.488644e+003, 1.151337e+004
3.490573e+003, 1.154908e+004
3.492501e+003, 1.159158e+004
3.494430e+003, 1.162864e+004
3.496358e+003, 1.164413e+004
3.498287e+003, 1.165576e+004
3.500215e+003, 1.166927e+004
3.502144e+003, 1.168922e+004
3.504072e+003, 1.171708e+004
3.506000e+003, 1.175614e+004
3.507929e+003, 1.180050e+004
3.509857e+003, 1.182689e+004
3.511786e+003, 1.184827e+004
3.513714e+003, 1.187846e+004
3.515643e+003, 1.191070e+004
3.517571e+003, 1.194383e+004
3.519500e+003, 1.197513e+004
3.521428e+003, 1.200506e+004
3.523357e+003, 1.204158e+004
3.525285e+003, 1.207994e+004
3.527214e+003, 1.209388e+004
3.529142e+003, 1.210681e+004
3.531071e+003, 1.214734e+004
3.532999e+003, 1.218715e+004
3.534927e+003, 1.221255e+004
3.536856e+003, 1.223870e+004
3.538784e+003, 1.226736e+004
3.540713e+003, 1.229365e+004
3.542641e+003, 1.231840e+004
3.544570e+003, 1.234240e+004
3.546498e+003, 1.236799e+004
3.548427e+003, 1.239865e+004
3.550355e+003, 1.242713e+004
3.552284e+003, 1.245034e+004
3.554212e+003, 1.247629e+004
3.556141e+003, 1.250658e+004
3.558069e+003, 1.252002e+004
3.559998e+003, 1.252891e+004
3.561926e+003, 1.256570e+004
3.563854e+003, 1.260469e+004
3.565783e+003, 1.261525e+004
3.567711e+003, 1.264022e+004
3.569640e+003, 1.269241e+004
3.571568e+003, 1.273268e+004
3.573497e+003, 1.275828e+004
3.575425e+003, 1.277903e+004
3.577354e+003, 1.279799e+004
3.579282e+003, 1.282491e+004
3.581211e+003, 1.284686e+004
3.583139e+003, 1.285387e+004
3.585068e+003, 1.287294e+004
3.586996e+003, 1.291478e+004
3.588925e+003, 1.294080e+004
3.590853e+003, 1.295842e+004
3.592781e+003, 1.300207e+004
3.594710e+003, 1.304613e+004
3.596638e+003, 1.305802e+004
3.598567e+003, 1.306905e+004
3.600495e+003, 1.309519e+004
3.602424e+003, 1.310806e+004
3.604352e+003, 1.310800e+004
3.606281e+003, 1.310932e+004
3.608209e+003, 1.312025e+004
3.610138e+003, 1.317379e+004
3.612066e+003, 1.321386e+004
3.613995e+003, 1.319351e+004
3.615923e+003, 1.319297e+004
3.617852e+003, 1.323462e+004
3.619780e+003, 1.325078e+004
3.621708e+003, 1.325076e+004
3.623637e+003, 1.327630e+004
3.625565e+003, 1.331002e+004
3.627494e+003, 1.333548e+004
3.629422e+003, 1.335596e+004
3.631351e+003, 1.337153e+004
3.633279e+003, 1.338347e+004
3.635208e+003, 1.339276e+004
3.637136e+003, 1.340460e+004
3.639065e+003, 1.341655e+004
3.640993e+003, 1.341968e+004
3.642922e+003, 1.342648e+004
3.644850e+003, 1.344678e+004
3.646779e+003, 1.346311e+004
3.648707e+003, 1.347346e+004
3.650635e+003, 1.347527e+004
3.652564e+003, 1.347648e+004
3.654492e+003, 1.350606e+004
3.656421e+003, 1.353213e+004
3.658349e+003, 1.352500e+004
3.660278e+003, 1.352201e+004
3.662206e+003, 1.352986e+004
3.664135e+003, 1.355309e+004
3.666063e+003, 1.358526e+004
3.667992e+003, 1.360180e+004
3.669920e+003, 1.360791e+004
3.671849e+003, 1.360154e+004
3.673777e+003, 1.360152e+004
3.675706e+003, 1.361469e+004
3.677634e+003, 1.362918e+004
3.679563e+003, 1.364345e+004
3.681491e+003, 1.364537e+004
3.683419e+003, 1.364744e+004
3.685348e+003, 1.366613e+004
3.687276e+003, 1.368586e+004
3.689205e+003, 1.370286e+004
3.691133e+003, 1.370105e+004
3.693062e+003, 1.368281e+004
3.694990e+003, 1.369246e+004
3.696919e+003, 1.371019e+004
3.698847e+003, 1.370058e+004
3.700776e+003, 1.369613e+004
3.702704e+003, 1.371832e+004
3.704633e+003, 1.373524e+004
3.706561e+003, 1.374401e+004
3.708490e+003, 1.374150e+004
3.710418e+003, 1.374002e+004
3.712346e+003, 1.376855e+004
3.714275e+003, 1.379413e+004
3.716203e+003, 1.379657e+004
3.718132e+003, 1.379965e+004
3.720060e+003, 1.380495e+004
3.721989e+003, 1.379916e+004
3.723917e+003, 1.378872e+004
3.725846e+003, 1.377751e+004
3.727774e+003, 1.378021e+004
3.729703e+003, 1.381890e+004
3.731631e+003, 1.383418e+004
3.733560e+003, 1.382300e+004
3.735488e+003, 1.382831e+004
3.737417e+003, 1.384244e+004
3.739345e+003, 1.385809e+004
3.741273e+003, 1.386527e+004
3.743202e+003, 1.385597e+004
3.745130e+003, 1.384883e+004
3.747059e+003, 1.384727e+004
3.748987e+003, 1.385529e+004
3.750916e+003, 1.386527e+004
3.752844e+003, 1.386181e+004
3.754773e+003, 1.385738e+004
3.756701e+003, 1.384729e+004
3.758630e+003, 1.386308e+004
3.760558e+003, 1.390061e+004
3.762487e+003, 1.393133e+004
3.764415e+003, 1.395078e+004
3.766344e+003, 1.395186e+004
3.768272e+003, 1.394629e+004
3.770200e+003, 1.393582e+004
3.772129e+003, 1.393684e+004
3.774057e+003, 1.394770e+004
3.775986e+003, 1.394614e+004
3.777914e+003, 1.394571e+004
3.779843e+003, 1.395994e+004
3.781771e+003, 1.397905e+004
3.783700e+003, 1.400268e+004
3.785628e+003, 1.400389e+004
3.787557e+003, 1.399109e+004
3.789485e+003, 1.399858e+004
3.791414e+003, 1.401426e+004
3.793342e+003, 1.403436e+004
3.795271e+003, 1.404150e+004
3.797199e+003, 1.402641e+004
3.799127e+003, 1.405314e+004
3.801056e+003, 1.409399e+004
3.802984e+003, 1.407507e+004
3.804913e+003, 1.405949e+004
3.806841e+003, 1.408547e+004
3.808770e+003, 1.410675e+004
3.810698e+003, 1.411597e+004
3.812627e+003, 1.413742e+004
3.814555e+003, 1.416304e+004
3.816484e+003, 1.417920e+004
3.818412e+003, 1.419783e+004
3.820341e+003, 1.422793e+004
3.822269e+003, 1.422413e+004
3.824198e+003, 1.419264e+004
3.826126e+003, 1.418953e+004
3.828054e+003, 1.419377e+004
3.829983e+003, 1.418330e+004
3.831911e+003, 1.418246e+004
3.833840e+003, 1.419737e+004
3.835768e+003, 1.421920e+004
3.837697e+003, 1.424654e+004
3.839625e+003, 1.428755e+004
3.841554e+003, 1.431261e+004
3.843482e+003, 1.429027e+004
3.845411e+003, 1.429474e+004
3.847339e+003, 1.433278e+004
3.849268e+003, 1.433804e+004
3.851196e+003, 1.433273e+004
3.853125e+003, 1.434163e+004
3.855053e+003, 1.436013e+004
3.856981e+003, 1.438687e+004
3.858910e+003, 1.441599e+004
3.860838e+003, 1.444340e+004
3.862767e+003, 1.445467e+004
3.864695e+003, 1.446495e+004
3.866624e+003, 1.448629e+004
3.868552e+003, 1.450815e+004
3.870481e+003, 1.452910e+004
3.872409e+003, 1.454253e+004
3.874338e+003, 1.455716e+004
3.876266e+003, 1.459362e+004
3.878195e+003, 1.462210e+004
3.880123e+003, 1.462341e+004
3.882052e+003, 1.463831e+004
3.883980e+003, 1.466511e+004
3.885908e+003, 1.469829e+004
3.887837e+003, 1.472593e+004
3.889765e+003, 1.473900e+004
3.891694e+003, 1.474638e+004
3.893622e+003, 1.475014e+004
3.895551e+003, 1.478449e+004
3.897479e+003, 1.482597e+004
3.899408e+003, 1.483655e+004
3.901336e+003, 1.485054e+004
3.903265e+003, 1.487966e+004
3.905193e+003, 1.489729e+004
3.907122e+003, 1.491034e+004
3.909050e+003, 1.495185e+004
3.910979e+003, 1.498827e+004
3.912907e+003, 1.499406e+004
3.914835e+003, 1.501377e+004
3.916764e+003, 1.505124e+004
3.918692e+003, 1.509114e+004
3.920621e+003, 1.512621e+004
3.922549e+003, 1.514741e+004
3.924478e+003, 1.516672e+004
3.926406e+003, 1.518800e+004
3.928335e+003, 1.519432e+004
3.930263e+003, 1.519645e+004
3.932192e+003, 1.521594e+004
3.934120e+003, 1.523697e+004
3.936049e+003, 1.524939e+004
3.937977e+003, 1.526650e+004
3.939906e+003, 1.528929e+004
3.941834e+003, 1.532810e+004
3.943762e+003, 1.536122e+004
3.945691e+003, 1.536739e+004
3.947619e+003, 1.539219e+004
3.949548e+003, 1.543802e+004
3.951476e+003, 1.547753e+004
3.953405e+003, 1.551005e+004
3.955333e+003, 1.553035e+004
3.957262e+003, 1.555347e+004
3.959190e+003, 1.558356e+004
3.961119e+003, 1.561699e+004
3.963047e+003, 1.564901e+004
3.964976e+003, 1.566703e+004
3.966904e+003, 1.569043e+004
3.968833e+003, 1.572645e+004
3.970761e+003, 1.574980e+004
3.972689e+003, 1.576453e+004
3.974618e+003, 1.578618e+004
3.976546e+003, 1.581439e+004
3.978475e+003, 1.585993e+004
3.980403e+003, 1.586871e+004
3.982332e+003, 1.585141e+004
3.984260e+003, 1.589672e+004
3.986189e+003, 1.594408e+004
3.988117e+003, 1.593389e+004
3.990046e+003, 1.593977e+004
3.991974e+003, 1.596664e+004
3.993903e+003, 1.598613e+004
3.995831e+003, 1.600660e+004
3.997760e+003, 1.604011e+004
3.999688e+003, 1.607381e+004
4.001616e+003, 1.610613e+004
4.003545e+003, 1.611812e+004
4.005473e+003, 1.612404e+004
4.007402e+003, 1.614450e+004
4.009330e+003, 1.616717e+004
4.011259e+003, 1.618867e+004
4.013187e+003, 1.621754e+004
4.015116e+003, 1.624805e+004
4.017044e+003, 1.626335e+004
4.018973e+003, 1.628696e+004
4.020901e+003, 1.632723e+004
4.022830e+003, 1.635696e+004
4.024758e+003, 1.637697e+004
4.026687e+003, 1.639450e+004
4.028615e+003, 1.640570e+004
4.030543e+003, 1.640263e+004
4.032472e+003, 1.642299e+004
4.034400e+003, 1.645969e+004
4.036329e+003, 1.648561e+004
4.038257e+003, 1.650304e+004
4.040186e+003, 1.650646e+004
4.042114e+003, 1.653382e+004
4.044043e+003, 1.657570e+004
4.045971e+003, 1.657989e+004
4.047900e+003, 1.659179e+004
4.049828e+003, 1.664718e+004
4.051757e+003, 1.666947e+004
4.053685e+003, 1.666026e+004
4.055614e+003, 1.667313e+004
4.057542e+003, 1.669586e+004
4.059470e+003, 1.672521e+004
4.061399e+003, 1.674939e+004
4.063327e+003, 1.676720e+004
4.065256e+003, 1.677269e+004
4.067184e+003, 1.678469e+004
4.069113e+003, 1.681909e+004
4.071041e+003, 1.686311e+004
4.072970e+003, 1.690945e+004
4.074898e+003, 1.693020e+004
4.076827e+003, 1.693725e+004
4.078755e+003, 1.693501e+004
4.080684e+003, 1.694549e+004
4.082612e+003, 1.696948e+004
4.084541e+003, 1.698961e+004
4.086469e+003, 1.699978e+004
4.088397e+003, 1.698478e+004
4.090326e+003, 1.699988e+004
4.092254e+003, 1.704526e+004
4.094183e+003, 1.706290e+004
4.096111e+003, 1.707740e+004
4.098040e+003, 1.711300e+004
4.099968e+003, 1.713511e+004
4.101896e+003, 1.714137e+004
4.103825e+003, 1.713841e+004
4.105754e+003, 1.713872e+004
4.107682e+003, 1.715148e+004
4.109610e+003, 1.717334e+004
4.111539e+003, 1.720014e+004
4.113468e+003, 1.721987e+004
4.115396e+003, 1.722473e+004
4.117324e+003, 1.720252e+004
4.119253e+003, 1.721606e+004
4.121182e+003, 1.725907e+004
4.123110e+003, 1.727493e+004
4.125038e+003, 1.728213e+004
4.126967e+003, 1.728652e+004
4.128896e+003, 1.730580e+004
4.130824e+003, 1.733454e+004
4.132752e+003, 1.735474e+004
4.134681e+003, 1.736532e+004
4.136609e+003, 1.735496e+004
4.138538e+003, 1.737139e+004
4.140466e+003, 1.740213e+004
4.142395e+003, 1.740877e+004
4.144323e+003, 1.742235e+004
4.146251e+003, 1.745887e+004
4.148180e+003, 1.747183e+004
4.150108e+003, 1.747261e+004
4.152037e+003, 1.748712e+004
4.153965e+003, 1.750319e+004
4.155894e+003, 1.751765e+004
4.157822e+003, 1.751582e+004
4.159751e+003, 1.751146e+004
4.161679e+003, 1.752360e+004
4.163607e+003, 1.754411e+004
4.165536e+003, 1.756948e+004
4.167465e+003, 1.757737e+004
4.169393e+003, 1.757880e+004
4.171321e+003, 1.758493e+004
4.173250e+003, 1.759755e+004
4.175179e+003, 1.761713e+004
4.177107e+003, 1.763063e+004
4.179035e+003, 1.764263e+004
4.180964e+003, 1.765385e+004
4.182893e+003, 1.766992e+004
4.184821e+003, 1.768824e+004
4.186749e+003, 1.769882e+004
4.188678e+003, 1.770187e+004
4.190606e+003, 1.768948e+004
4.192535e+003, 1.769779e+004
4.194463e+003, 1.771521e+004
4.196392e+003, 1.770709e+004
4.198320e+003, 1.769604e+004
4.200249e+003, 1.769264e+004
4.202177e+003, 1.768863e+004
4.204105e+003, 1.768638e+004
4.206034e+003, 1.769219e+004
4.207962e+003, 1.768949e+004
4.209891e+003, 1.767539e+004
4.211819e+003, 1.766929e+004
4.213748e+003, 1.767821e+004
4.215676e+003, 1.772168e+004
4.217604e+003, 1.772827e+004
4.219533e+003, 1.770262e+004
4.221462e+003, 1.773475e+004
4.223390e+003, 1.774743e+004
4.225318e+003, 1.768646e+004
4.227247e+003, 1.767086e+004
4.229176e+003, 1.769419e+004
4.231104e+003, 1.771130e+004
4.233032e+003, 1.772100e+004
4.234961e+003, 1.772007e+004
4.236890e+003, 1.773775e+004
4.238818e+003, 1.775848e+004
4.240746e+003, 1.774653e+004
4.242675e+003, 1.772749e+004
##END=



