##NAMES=Diamond
##RRUFFID=R150108
##IDEAL CHEMISTRY=C
##LOCALITY=Bushimaie River, Belgian Congo
##OWNER=UAMM
##SOURCE=Rock Currier
##DESCRIPTION=Tan modified-octahedral crystal
##STATUS=The identification of this mineral is not yet confirmed.
##URL=rruff.info/R150108
9.839966e+001, 0.000000e+000
1.003281e+002, 7.531799e+001
1.022566e+002, 7.631866e+001
1.041851e+002, 7.763190e+001
1.061135e+002, 7.979613e+001
1.080420e+002, 8.384273e+001
1.099705e+002, 8.782323e+001
1.118989e+002, 9.198689e+001
1.138274e+002, 9.632323e+001
1.157559e+002, 1.003039e+002
1.176843e+002, 1.047423e+002
1.196128e+002, 1.087901e+002
1.215413e+002, 1.118667e+002
1.234697e+002, 1.139289e+002
1.253982e+002, 1.158724e+002
1.273267e+002, 1.174904e+002
1.292551e+002, 1.189805e+002
1.311836e+002, 1.213068e+002
1.331121e+002, 1.249135e+002
1.350405e+002, 1.287959e+002
1.369690e+002, 1.323846e+002
1.388975e+002, 1.354645e+002
1.408259e+002, 1.382718e+002
1.427544e+002, 1.407057e+002
1.446829e+002, 1.427527e+002
1.466113e+002, 1.446908e+002
1.485398e+002, 1.460813e+002
1.504683e+002, 1.475806e+002
1.523967e+002, 1.498519e+002
1.543252e+002, 1.541054e+002
1.562537e+002, 1.580614e+002
1.581821e+002, 1.612119e+002
1.601106e+002, 1.636429e+002
1.620391e+002, 1.654751e+002
1.639675e+002, 1.659334e+002
1.658960e+002, 1.659220e+002
1.678245e+002, 1.669584e+002
1.697529e+002, 1.692485e+002
1.716814e+002, 1.721486e+002
1.736099e+002, 1.756227e+002
1.755383e+002, 1.804031e+002
1.774668e+002, 1.835355e+002
1.793953e+002, 1.835970e+002
1.813237e+002, 1.819558e+002
1.832522e+002, 1.817018e+002
1.851807e+002, 1.843095e+002
1.871091e+002, 1.870168e+002
1.890376e+002, 1.885865e+002
1.909661e+002, 1.883109e+002
1.928945e+002, 1.880295e+002
1.948230e+002, 1.876061e+002
1.967515e+002, 1.872377e+002
1.986799e+002, 1.873558e+002
2.006084e+002, 1.883248e+002
2.025369e+002, 1.895553e+002
2.044653e+002, 1.907692e+002
2.063938e+002, 1.918909e+002
2.083223e+002, 1.931266e+002
2.102507e+002, 1.946367e+002
2.121792e+002, 1.963649e+002
2.141077e+002, 1.978501e+002
2.160361e+002, 1.992991e+002
2.179646e+002, 2.004130e+002
2.198931e+002, 2.008463e+002
2.218215e+002, 2.003704e+002
2.237500e+002, 2.000683e+002
2.256785e+002, 2.003402e+002
2.276069e+002, 2.011514e+002
2.295354e+002, 2.016341e+002
2.314639e+002, 2.012069e+002
2.333923e+002, 2.008743e+002
2.353208e+002, 2.013701e+002
2.372493e+002, 2.034151e+002
2.391777e+002, 2.048983e+002
2.411062e+002, 2.050286e+002
2.430347e+002, 2.039127e+002
2.449631e+002, 2.036238e+002
2.468916e+002, 2.054845e+002
2.488201e+002, 2.072591e+002
2.507485e+002, 2.073498e+002
2.526770e+002, 2.025141e+002
2.546055e+002, 1.998364e+002
2.565339e+002, 2.014289e+002
2.584624e+002, 2.063967e+002
2.603909e+002, 2.103157e+002
2.623193e+002, 2.123465e+002
2.642478e+002, 2.133665e+002
2.661763e+002, 2.138029e+002
2.681047e+002, 2.123042e+002
2.700332e+002, 2.119499e+002
2.719617e+002, 2.144727e+002
2.738901e+002, 2.188418e+002
2.758186e+002, 2.213305e+002
2.777471e+002, 2.196303e+002
2.796755e+002, 2.171246e+002
2.816040e+002, 2.159533e+002
2.835325e+002, 2.164270e+002
2.854609e+002, 2.172519e+002
2.873894e+002, 2.184034e+002
2.893179e+002, 2.197916e+002
2.912463e+002, 2.208682e+002
2.931748e+002, 2.211646e+002
2.951033e+002, 2.214689e+002
2.970317e+002, 2.222897e+002
2.989602e+002, 2.236264e+002
3.008887e+002, 2.251345e+002
3.028171e+002, 2.271189e+002
3.047456e+002, 2.293298e+002
3.066741e+002, 2.305168e+002
3.086025e+002, 2.291305e+002
3.105310e+002, 2.281357e+002
3.124595e+002, 2.292991e+002
3.143879e+002, 2.329334e+002
3.163164e+002, 2.362384e+002
3.182449e+002, 2.384904e+002
3.201733e+002, 2.400444e+002
3.221018e+002, 2.418179e+002
3.240303e+002, 2.443326e+002
3.259587e+002, 2.464577e+002
3.278872e+002, 2.476387e+002
3.298157e+002, 2.477030e+002
3.317441e+002, 2.479681e+002
3.336726e+002, 2.482040e+002
3.356011e+002, 2.488169e+002
3.375295e+002, 2.505441e+002
3.394580e+002, 2.541078e+002
3.413865e+002, 2.573746e+002
3.433149e+002, 2.591904e+002
3.452434e+002, 2.588437e+002
3.471719e+002, 2.604113e+002
3.491003e+002, 2.661564e+002
3.510288e+002, 2.723600e+002
3.529573e+002, 2.752749e+002
3.548857e+002, 2.735935e+002
3.568142e+002, 2.722130e+002
3.587427e+002, 2.729294e+002
3.606711e+002, 2.756546e+002
3.625996e+002, 2.771668e+002
3.645281e+002, 2.763171e+002
3.664565e+002, 2.752450e+002
3.683850e+002, 2.752768e+002
3.703135e+002, 2.767927e+002
3.722419e+002, 2.780040e+002
3.741704e+002, 2.785231e+002
3.760989e+002, 2.785007e+002
3.780273e+002, 2.784322e+002
3.799558e+002, 2.781657e+002
3.818843e+002, 2.780553e+002
3.838127e+002, 2.781786e+002
3.857412e+002, 2.784791e+002
3.876697e+002, 2.793217e+002
3.895981e+002, 2.815714e+002
3.915266e+002, 2.839877e+002
3.934551e+002, 2.846311e+002
3.953835e+002, 2.823682e+002
3.973120e+002, 2.808419e+002
3.992405e+002, 2.816890e+002
4.011689e+002, 2.850293e+002
4.030974e+002, 2.871026e+002
4.050259e+002, 2.871159e+002
4.069543e+002, 2.866144e+002
4.088828e+002, 2.868075e+002
4.108113e+002, 2.879736e+002
4.127397e+002, 2.885851e+002
4.146682e+002, 2.877286e+002
4.165967e+002, 2.860596e+002
4.185251e+002, 2.855087e+002
4.204536e+002, 2.875234e+002
4.223821e+002, 2.891328e+002
4.243105e+002, 2.888002e+002
4.262390e+002, 2.865977e+002
4.281675e+002, 2.851762e+002
4.300959e+002, 2.855613e+002
4.320244e+002, 2.865502e+002
4.339529e+002, 2.868506e+002
4.358813e+002, 2.858091e+002
4.378098e+002, 2.853458e+002
4.397383e+002, 2.863345e+002
4.416667e+002, 2.883542e+002
4.435952e+002, 2.901742e+002
4.455237e+002, 2.916964e+002
4.474521e+002, 2.930176e+002
4.493806e+002, 2.944301e+002
4.513091e+002, 2.961194e+002
4.532375e+002, 2.965467e+002
4.551660e+002, 2.940136e+002
4.570945e+002, 2.905519e+002
4.590229e+002, 2.885354e+002
4.609514e+002, 2.890504e+002
4.628799e+002, 2.900012e+002
4.648083e+002, 2.913442e+002
4.667368e+002, 2.929955e+002
4.686653e+002, 2.944843e+002
4.705938e+002, 2.956481e+002
4.725222e+002, 2.967730e+002
4.744507e+002, 2.979704e+002
4.763792e+002, 2.990395e+002
4.783076e+002, 3.006544e+002
4.802361e+002, 3.020589e+002
4.821646e+002, 3.043910e+002
4.840930e+002, 3.097220e+002
4.860215e+002, 3.220282e+002
4.879500e+002, 3.294733e+002
4.898784e+002, 3.269367e+002
4.918069e+002, 3.145424e+002
4.937354e+002, 3.053268e+002
4.956638e+002, 3.004372e+002
4.975923e+002, 2.974266e+002
4.995208e+002, 2.953326e+002
5.014492e+002, 2.942946e+002
5.033777e+002, 2.930284e+002
5.053062e+002, 2.912724e+002
5.072346e+002, 2.892393e+002
5.091631e+002, 2.871335e+002
5.110916e+002, 2.846419e+002
5.130200e+002, 2.826358e+002
5.149485e+002, 2.813742e+002
5.168770e+002, 2.807724e+002
5.188054e+002, 2.808297e+002
5.207339e+002, 2.824424e+002
5.226624e+002, 2.839558e+002
5.245908e+002, 2.845689e+002
5.265193e+002, 2.841005e+002
5.284478e+002, 2.838502e+002
5.303762e+002, 2.839666e+002
5.323047e+002, 2.842850e+002
5.342332e+002, 2.846227e+002
5.361616e+002, 2.847246e+002
5.380901e+002, 2.852733e+002
5.400186e+002, 2.869861e+002
5.419470e+002, 2.892344e+002
5.438755e+002, 2.902722e+002
5.458040e+002, 2.894551e+002
5.477324e+002, 2.885955e+002
5.496609e+002, 2.885937e+002
5.515894e+002, 2.896770e+002
5.535178e+002, 2.900192e+002
5.554463e+002, 2.885147e+002
5.573748e+002, 2.871325e+002
5.593032e+002, 2.874511e+002
5.612317e+002, 2.895050e+002
5.631602e+002, 2.915615e+002
5.650886e+002, 2.931986e+002
5.670171e+002, 2.945869e+002
5.689456e+002, 2.959192e+002
5.708740e+002, 2.977632e+002
5.728025e+002, 2.988925e+002
5.747310e+002, 2.985518e+002
5.766594e+002, 2.973563e+002
5.785879e+002, 2.970015e+002
5.805164e+002, 2.983204e+002
5.824448e+002, 2.995808e+002
5.843733e+002, 2.999816e+002
5.863018e+002, 2.992904e+002
5.882302e+002, 2.990573e+002
5.901587e+002, 2.997333e+002
5.920872e+002, 3.005006e+002
5.940156e+002, 3.005645e+002
5.959441e+002, 2.996965e+002
5.978726e+002, 2.996700e+002
5.998010e+002, 3.015294e+002
6.017295e+002, 3.041339e+002
6.036580e+002, 3.060847e+002
6.055864e+002, 3.074300e+002
6.075149e+002, 3.080920e+002
6.094434e+002, 3.073726e+002
6.113718e+002, 3.059821e+002
6.133003e+002, 3.054012e+002
6.152288e+002, 3.061166e+002
6.171572e+002, 3.072127e+002
6.190857e+002, 3.086362e+002
6.210142e+002, 3.104068e+002
6.229426e+002, 3.115474e+002
6.248711e+002, 3.121286e+002
6.267996e+002, 3.120421e+002
6.287280e+002, 3.106512e+002
6.306565e+002, 3.077161e+002
6.325850e+002, 3.065197e+002
6.345134e+002, 3.090584e+002
6.364419e+002, 3.125576e+002
6.383704e+002, 3.145952e+002
6.402988e+002, 3.145004e+002
6.422273e+002, 3.146071e+002
6.441558e+002, 3.155274e+002
6.460842e+002, 3.166919e+002
6.480127e+002, 3.173808e+002
6.499412e+002, 3.173951e+002
6.518696e+002, 3.172088e+002
6.537981e+002, 3.164406e+002
6.557266e+002, 3.154983e+002
6.576550e+002, 3.159785e+002
6.595835e+002, 3.192675e+002
6.615120e+002, 3.220471e+002
6.634404e+002, 3.226811e+002
6.653689e+002, 3.215982e+002
6.672974e+002, 3.209975e+002
6.692258e+002, 3.211167e+002
6.711543e+002, 3.216953e+002
6.730828e+002, 3.228288e+002
6.750112e+002, 3.246161e+002
6.769397e+002, 3.258664e+002
6.788682e+002, 3.257166e+002
6.807966e+002, 3.255665e+002
6.827251e+002, 3.262433e+002
6.846536e+002, 3.278707e+002
6.865820e+002, 3.297742e+002
6.885105e+002, 3.330698e+002
6.904390e+002, 3.360210e+002
6.923674e+002, 3.364340e+002
6.942959e+002, 3.336051e+002
6.962244e+002, 3.310140e+002
6.981528e+002, 3.290175e+002
7.000813e+002, 3.278183e+002
7.020098e+002, 3.277531e+002
7.039382e+002, 3.296047e+002
7.058667e+002, 3.313270e+002
7.077952e+002, 3.328628e+002
7.097236e+002, 3.339895e+002
7.116521e+002, 3.340023e+002
7.135806e+002, 3.319393e+002
7.155090e+002, 3.304930e+002
7.174375e+002, 3.313118e+002
7.193660e+002, 3.335674e+002
7.212944e+002, 3.346953e+002
7.232229e+002, 3.327698e+002
7.251514e+002, 3.314825e+002
7.270798e+002, 3.322496e+002
7.290083e+002, 3.349337e+002
7.309368e+002, 3.367271e+002
7.328652e+002, 3.369915e+002
7.347937e+002, 3.370946e+002
7.367222e+002, 3.377343e+002
7.386506e+002, 3.388929e+002
7.405791e+002, 3.399008e+002
7.425076e+002, 3.412127e+002
7.444360e+002, 3.419424e+002
7.463645e+002, 3.412501e+002
7.482930e+002, 3.387941e+002
7.502214e+002, 3.374295e+002
7.521499e+002, 3.378600e+002
7.540784e+002, 3.389748e+002
7.560068e+002, 3.402666e+002
7.579353e+002, 3.418600e+002
7.598638e+002, 3.428838e+002
7.617922e+002, 3.426338e+002
7.637207e+002, 3.422480e+002
7.656492e+002, 3.428062e+002
7.675776e+002, 3.448306e+002
7.695061e+002, 3.457426e+002
7.714346e+002, 3.434755e+002
7.733630e+002, 3.410855e+002
7.752915e+002, 3.412846e+002
7.772200e+002, 3.451212e+002
7.791484e+002, 3.476552e+002
7.810769e+002, 3.473236e+002
7.830054e+002, 3.458736e+002
7.849338e+002, 3.450765e+002
7.868623e+002, 3.449713e+002
7.887908e+002, 3.454833e+002
7.907192e+002, 3.476330e+002
7.926477e+002, 3.499041e+002
7.945762e+002, 3.506107e+002
7.965046e+002, 3.490955e+002
7.984331e+002, 3.479316e+002
8.003616e+002, 3.474794e+002
8.022900e+002, 3.476735e+002
8.042185e+002, 3.485749e+002
8.061470e+002, 3.508492e+002
8.080754e+002, 3.525609e+002
8.100039e+002, 3.528830e+002
8.119324e+002, 3.527191e+002
8.138608e+002, 3.532254e+002
8.157893e+002, 3.546902e+002
8.177178e+002, 3.559693e+002
8.196462e+002, 3.567119e+002
8.215747e+002, 3.571183e+002
8.235032e+002, 3.574890e+002
8.254316e+002, 3.577414e+002
8.273601e+002, 3.580951e+002
8.292886e+002, 3.586286e+002
8.312170e+002, 3.593043e+002
8.331455e+002, 3.600107e+002
8.350740e+002, 3.606885e+002
8.370024e+002, 3.616403e+002
8.389309e+002, 3.633961e+002
8.408594e+002, 3.653065e+002
8.427878e+002, 3.664222e+002
8.447163e+002, 3.658836e+002
8.466448e+002, 3.655982e+002
8.485732e+002, 3.658055e+002
8.505017e+002, 3.662556e+002
8.524302e+002, 3.666169e+002
8.543586e+002, 3.669039e+002
8.562871e+002, 3.671067e+002
8.582156e+002, 3.672159e+002
8.601440e+002, 3.672617e+002
8.620725e+002, 3.672442e+002
8.640010e+002, 3.666971e+002
8.659294e+002, 3.667856e+002
8.678579e+002, 3.678297e+002
8.697864e+002, 3.693770e+002
8.717148e+002, 3.711801e+002
8.736433e+002, 3.736024e+002
8.755718e+002, 3.745102e+002
8.775002e+002, 3.715399e+002
8.794287e+002, 3.677897e+002
8.813572e+002, 3.662618e+002
8.832856e+002, 3.678448e+002
8.852141e+002, 3.698184e+002
8.871426e+002, 3.733414e+002
8.890710e+002, 3.763895e+002
8.909995e+002, 3.763502e+002
8.929280e+002, 3.726317e+002
8.948564e+002, 3.701025e+002
8.967849e+002, 3.703354e+002
8.987134e+002, 3.714582e+002
9.006418e+002, 3.720713e+002
9.025703e+002, 3.720443e+002
9.044988e+002, 3.721231e+002
9.064272e+002, 3.723165e+002
9.083557e+002, 3.726237e+002
9.102842e+002, 3.730474e+002
9.122126e+002, 3.735751e+002
9.141411e+002, 3.740677e+002
9.160696e+002, 3.744344e+002
9.179980e+002, 3.748077e+002
9.199265e+002, 3.755099e+002
9.218550e+002, 3.764931e+002
9.237834e+002, 3.767431e+002
9.257119e+002, 3.752911e+002
9.276404e+002, 3.740646e+002
9.295688e+002, 3.737875e+002
9.314973e+002, 3.744975e+002
9.334258e+002, 3.758831e+002
9.353542e+002, 3.788836e+002
9.372827e+002, 3.814843e+002
9.392112e+002, 3.826725e+002
9.411396e+002, 3.828260e+002
9.430681e+002, 3.831059e+002
9.449966e+002, 3.835786e+002
9.469250e+002, 3.840650e+002
9.488535e+002, 3.842049e+002
9.507820e+002, 3.842574e+002
9.527104e+002, 3.850422e+002
9.546389e+002, 3.881389e+002
9.565674e+002, 3.899921e+002
9.584958e+002, 3.891707e+002
9.604243e+002, 3.871750e+002
9.623528e+002, 3.864822e+002
9.642813e+002, 3.871484e+002
9.662097e+002, 3.888053e+002
9.681382e+002, 3.931162e+002
9.700667e+002, 3.974024e+002
9.719951e+002, 3.985419e+002
9.739236e+002, 3.949257e+002
9.758521e+002, 3.931118e+002
9.777805e+002, 3.951431e+002
9.797090e+002, 3.978896e+002
9.816375e+002, 3.989377e+002
9.835659e+002, 3.979119e+002
9.854944e+002, 3.969201e+002
9.874229e+002, 3.956572e+002
9.893513e+002, 3.948083e+002
9.912798e+002, 3.948853e+002
9.932083e+002, 3.958005e+002
9.951367e+002, 3.969910e+002
9.970652e+002, 3.992720e+002
9.989937e+002, 4.008000e+002
1.000922e+003, 4.001652e+002
1.002851e+003, 3.979602e+002
1.004779e+003, 3.976186e+002
1.006708e+003, 4.004315e+002
1.008636e+003, 4.032545e+002
1.010564e+003, 4.057903e+002
1.012493e+003, 4.077774e+002
1.014421e+003, 4.089698e+002
1.016350e+003, 4.093875e+002
1.018278e+003, 4.088982e+002
1.020207e+003, 4.060923e+002
1.022135e+003, 4.031912e+002
1.024064e+003, 4.024650e+002
1.025992e+003, 4.050583e+002
1.027921e+003, 4.067917e+002
1.029849e+003, 4.069208e+002
1.031778e+003, 4.067133e+002
1.033706e+003, 4.067115e+002
1.035635e+003, 4.069098e+002
1.037563e+003, 4.082131e+002
1.039491e+003, 4.118194e+002
1.041420e+003, 4.150089e+002
1.043348e+003, 4.162387e+002
1.045277e+003, 4.159644e+002
1.047205e+003, 4.155318e+002
1.049134e+003, 4.150683e+002
1.051062e+003, 4.143771e+002
1.052991e+003, 4.128035e+002
1.054919e+003, 4.112135e+002
1.056848e+003, 4.112473e+002
1.058776e+003, 4.141593e+002
1.060705e+003, 4.167651e+002
1.062633e+003, 4.190209e+002
1.064562e+003, 4.208198e+002
1.066490e+003, 4.218201e+002
1.068418e+003, 4.219835e+002
1.070347e+003, 4.224479e+002
1.072275e+003, 4.238827e+002
1.074204e+003, 4.249808e+002
1.076132e+003, 4.250743e+002
1.078061e+003, 4.241701e+002
1.079989e+003, 4.229193e+002
1.081918e+003, 4.200771e+002
1.083846e+003, 4.183822e+002
1.085775e+003, 4.193189e+002
1.087703e+003, 4.217493e+002
1.089632e+003, 4.227387e+002
1.091560e+003, 4.213794e+002
1.093489e+003, 4.212228e+002
1.095417e+003, 4.248893e+002
1.097345e+003, 4.288134e+002
1.099274e+003, 4.295435e+002
1.101202e+003, 4.268816e+002
1.103131e+003, 4.252091e+002
1.105059e+003, 4.257969e+002
1.106988e+003, 4.269960e+002
1.108916e+003, 4.281518e+002
1.110845e+003, 4.292416e+002
1.112773e+003, 4.303281e+002
1.114702e+003, 4.308976e+002
1.116630e+003, 4.319698e+002
1.118559e+003, 4.349485e+002
1.120487e+003, 4.381586e+002
1.122416e+003, 4.382609e+002
1.124344e+003, 4.345041e+002
1.126272e+003, 4.316044e+002
1.128201e+003, 4.308605e+002
1.130129e+003, 4.312271e+002
1.132058e+003, 4.320587e+002
1.133986e+003, 4.333765e+002
1.135915e+003, 4.347643e+002
1.137843e+003, 4.367711e+002
1.139772e+003, 4.381686e+002
1.141700e+003, 4.382049e+002
1.143629e+003, 4.372616e+002
1.145557e+003, 4.367381e+002
1.147486e+003, 4.365636e+002
1.149414e+003, 4.368697e+002
1.151343e+003, 4.377615e+002
1.153271e+003, 4.390901e+002
1.155199e+003, 4.410414e+002
1.157128e+003, 4.436459e+002
1.159056e+003, 4.451937e+002
1.160985e+003, 4.448575e+002
1.162913e+003, 4.441041e+002
1.164842e+003, 4.434511e+002
1.166770e+003, 4.429745e+002
1.168699e+003, 4.430951e+002
1.170627e+003, 4.441129e+002
1.172556e+003, 4.453461e+002
1.174484e+003, 4.469742e+002
1.176413e+003, 4.485852e+002
1.178341e+003, 4.496105e+002
1.180270e+003, 4.498072e+002
1.182198e+003, 4.499788e+002
1.184126e+003, 4.491217e+002
1.186055e+003, 4.491134e+002
1.187983e+003, 4.520508e+002
1.189912e+003, 4.567756e+002
1.191840e+003, 4.592555e+002
1.193769e+003, 4.584155e+002
1.195697e+003, 4.574838e+002
1.197626e+003, 4.577687e+002
1.199554e+003, 4.585282e+002
1.201483e+003, 4.588204e+002
1.203411e+003, 4.583190e+002
1.205340e+003, 4.587715e+002
1.207268e+003, 4.619460e+002
1.209197e+003, 4.643333e+002
1.211125e+003, 4.630681e+002
1.213053e+003, 4.589841e+002
1.214982e+003, 4.579954e+002
1.216910e+003, 4.618405e+002
1.218839e+003, 4.652553e+002
1.220767e+003, 4.670179e+002
1.222696e+003, 4.679355e+002
1.224624e+003, 4.689926e+002
1.226553e+003, 4.702523e+002
1.228481e+003, 4.708953e+002
1.230410e+003, 4.704493e+002
1.232338e+003, 4.700150e+002
1.234267e+003, 4.697071e+002
1.236195e+003, 4.697749e+002
1.238124e+003, 4.713093e+002
1.240052e+003, 4.759610e+002
1.241980e+003, 4.785642e+002
1.243909e+003, 4.765618e+002
1.245837e+003, 4.737709e+002
1.247766e+003, 4.733708e+002
1.249694e+003, 4.756208e+002
1.251623e+003, 4.777651e+002
1.253551e+003, 4.802218e+002
1.255480e+003, 4.821218e+002
1.257408e+003, 4.827515e+002
1.259337e+003, 4.828249e+002
1.261265e+003, 4.833690e+002
1.263194e+003, 4.843041e+002
1.265122e+003, 4.861570e+002
1.267051e+003, 4.904431e+002
1.268979e+003, 4.940396e+002
1.270907e+003, 4.945414e+002
1.272836e+003, 4.927263e+002
1.274764e+003, 4.924478e+002
1.276693e+003, 4.937668e+002
1.278621e+003, 4.968611e+002
1.280550e+003, 5.019920e+002
1.282478e+003, 5.085717e+002
1.284407e+003, 5.149518e+002
1.286335e+003, 5.198011e+002
1.288264e+003, 5.326209e+002
1.290192e+003, 5.445215e+002
1.292121e+003, 5.740912e+002
1.294049e+003, 6.340500e+002
1.295978e+003, 7.133925e+002
1.297906e+003, 7.974744e+002
1.299834e+003, 8.908480e+002
1.301763e+003, 9.605944e+002
1.303691e+003, 9.977191e+002
1.305620e+003, 1.013657e+003
1.307548e+003, 9.948833e+002
1.309477e+003, 9.607871e+002
1.311405e+003, 9.634806e+002
1.313334e+003, 1.000415e+003
1.315262e+003, 1.088445e+003
1.317191e+003, 1.231195e+003
1.319119e+003, 1.428135e+003
1.321048e+003, 1.669963e+003
1.322976e+003, 1.953312e+003
1.324905e+003, 2.343553e+003
1.326833e+003, 2.666981e+003
1.328761e+003, 3.328670e+003
1.330690e+003, 4.628918e+003
1.332618e+003, 6.179989e+003
1.334547e+003, 7.743531e+003
1.336475e+003, 9.564963e+003
1.338404e+003, 9.974698e+003
1.340332e+003, 7.847412e+003
1.342261e+003, 5.616704e+003
1.344189e+003, 4.004441e+003
1.346118e+003, 2.893225e+003
1.348046e+003, 2.094600e+003
1.349975e+003, 1.626525e+003
1.351903e+003, 1.282602e+003
1.353832e+003, 1.069999e+003
1.355760e+003, 9.194669e+002
1.357688e+003, 8.052053e+002
1.359617e+003, 7.215030e+002
1.361545e+003, 6.570463e+002
1.363474e+003, 6.140892e+002
1.365402e+003, 5.826627e+002
1.367331e+003, 5.667156e+002
1.369259e+003, 5.561784e+002
1.371188e+003, 5.464940e+002
1.373116e+003, 5.377814e+002
1.375045e+003, 5.308926e+002
1.376973e+003, 5.270280e+002
1.378902e+003, 5.232289e+002
1.380830e+003, 5.188345e+002
1.382759e+003, 5.148575e+002
1.384687e+003, 5.120487e+002
1.386615e+003, 5.104054e+002
1.388544e+003, 5.094813e+002
1.390472e+003, 5.096977e+002
1.392401e+003, 5.098278e+002
1.394329e+003, 5.094627e+002
1.396258e+003, 5.090147e+002
1.398186e+003, 5.087833e+002
1.400115e+003, 5.087477e+002
1.402043e+003, 5.090252e+002
1.403972e+003, 5.099733e+002
1.405900e+003, 5.103352e+002
1.407829e+003, 5.084880e+002
1.409757e+003, 5.068106e+002
1.411686e+003, 5.081791e+002
1.413614e+003, 5.122603e+002
1.415542e+003, 5.138910e+002
1.417471e+003, 5.110573e+002
1.419399e+003, 5.089403e+002
1.421328e+003, 5.092491e+002
1.423256e+003, 5.107546e+002
1.425185e+003, 5.126086e+002
1.427113e+003, 5.149232e+002
1.429042e+003, 5.161234e+002
1.430970e+003, 5.149657e+002
1.432899e+003, 5.142673e+002
1.434827e+003, 5.154189e+002
1.436756e+003, 5.167350e+002
1.438684e+003, 5.160262e+002
1.440613e+003, 5.130335e+002
1.442541e+003, 5.120206e+002
1.444469e+003, 5.143593e+002
1.446398e+003, 5.167103e+002
1.448326e+003, 5.185624e+002
1.450255e+003, 5.199483e+002
1.452183e+003, 5.205375e+002
1.454112e+003, 5.203410e+002
1.456040e+003, 5.210762e+002
1.457969e+003, 5.234826e+002
1.459897e+003, 5.253284e+002
1.461826e+003, 5.251017e+002
1.463754e+003, 5.247023e+002
1.465683e+003, 5.264966e+002
1.467611e+003, 5.299012e+002
1.469540e+003, 5.313861e+002
1.471468e+003, 5.300813e+002
1.473396e+003, 5.286576e+002
1.475325e+003, 5.280179e+002
1.477253e+003, 5.274869e+002
1.479182e+003, 5.261184e+002
1.481110e+003, 5.242425e+002
1.483039e+003, 5.240417e+002
1.484967e+003, 5.262787e+002
1.486896e+003, 5.283816e+002
1.488824e+003, 5.302303e+002
1.490753e+003, 5.312864e+002
1.492681e+003, 5.305300e+002
1.494610e+003, 5.285131e+002
1.496538e+003, 5.282668e+002
1.498467e+003, 5.306925e+002
1.500395e+003, 5.328357e+002
1.502323e+003, 5.348246e+002
1.504252e+003, 5.359876e+002
1.506180e+003, 5.353978e+002
1.508109e+003, 5.337791e+002
1.510037e+003, 5.331541e+002
1.511966e+003, 5.337512e+002
1.513894e+003, 5.349802e+002
1.515823e+003, 5.380851e+002
1.517751e+003, 5.404063e+002
1.519680e+003, 5.401183e+002
1.521608e+003, 5.386495e+002
1.523537e+003, 5.382953e+002
1.525465e+003, 5.390719e+002
1.527394e+003, 5.409753e+002
1.529322e+003, 5.458223e+002
1.531250e+003, 5.494102e+002
1.533179e+003, 5.497230e+002
1.535107e+003, 5.486854e+002
1.537036e+003, 5.482523e+002
1.538964e+003, 5.484298e+002
1.540893e+003, 5.493867e+002
1.542821e+003, 5.518433e+002
1.544750e+003, 5.534735e+002
1.546678e+003, 5.527006e+002
1.548607e+003, 5.516440e+002
1.550535e+003, 5.522246e+002
1.552464e+003, 5.538248e+002
1.554392e+003, 5.545468e+002
1.556321e+003, 5.541682e+002
1.558249e+003, 5.535890e+002
1.560177e+003, 5.522697e+002
1.562106e+003, 5.518171e+002
1.564034e+003, 5.543203e+002
1.565963e+003, 5.579091e+002
1.567891e+003, 5.590292e+002
1.569820e+003, 5.574674e+002
1.571748e+003, 5.569591e+002
1.573677e+003, 5.588788e+002
1.575605e+003, 5.602401e+002
1.577534e+003, 5.587462e+002
1.579462e+003, 5.567767e+002
1.581391e+003, 5.570061e+002
1.583319e+003, 5.592062e+002
1.585248e+003, 5.605550e+002
1.587176e+003, 5.607243e+002
1.589104e+003, 5.605808e+002
1.591033e+003, 5.601181e+002
1.592961e+003, 5.596700e+002
1.594890e+003, 5.589716e+002
1.596818e+003, 5.584453e+002
1.598747e+003, 5.598042e+002
1.600675e+003, 5.639310e+002
1.602604e+003, 5.665110e+002
1.604532e+003, 5.659680e+002
1.606461e+003, 5.653627e+002
1.608389e+003, 5.658303e+002
1.610318e+003, 5.667499e+002
1.612246e+003, 5.671866e+002
1.614175e+003, 5.670446e+002
1.616103e+003, 5.678912e+002
1.618031e+003, 5.707670e+002
1.619960e+003, 5.726291e+002
1.621888e+003, 5.727454e+002
1.623817e+003, 5.718172e+002
1.625745e+003, 5.688796e+002
1.627674e+003, 5.653078e+002
1.629602e+003, 5.656534e+002
1.631531e+003, 5.727830e+002
1.633459e+003, 5.768055e+002
1.635388e+003, 5.753541e+002
1.637316e+003, 5.742528e+002
1.639245e+003, 5.758857e+002
1.641173e+003, 5.782281e+002
1.643102e+003, 5.791305e+002
1.645030e+003, 5.786437e+002
1.646958e+003, 5.779177e+002
1.648887e+003, 5.750863e+002
1.650815e+003, 5.748879e+002
1.652744e+003, 5.800987e+002
1.654672e+003, 5.850114e+002
1.656601e+003, 5.864397e+002
1.658529e+003, 5.857938e+002
1.660458e+003, 5.856030e+002
1.662386e+003, 5.859823e+002
1.664315e+003, 5.860836e+002
1.666243e+003, 5.848514e+002
1.668172e+003, 5.848947e+002
1.670100e+003, 5.885878e+002
1.672029e+003, 5.919122e+002
1.673957e+003, 5.905770e+002
1.675885e+003, 5.864990e+002
1.677814e+003, 5.863280e+002
1.679742e+003, 5.924886e+002
1.681671e+003, 5.958542e+002
1.683599e+003, 5.939918e+002
1.685528e+003, 5.924581e+002
1.687456e+003, 5.936285e+002
1.689385e+003, 5.951623e+002
1.691313e+003, 5.940499e+002
1.693242e+003, 5.909327e+002
1.695170e+003, 5.906006e+002
1.697099e+003, 5.955330e+002
1.699027e+003, 5.977739e+002
1.700956e+003, 5.948430e+002
1.702884e+003, 5.919955e+002
1.704813e+003, 5.911238e+002
1.706741e+003, 5.915168e+002
1.708669e+003, 5.927784e+002
1.710598e+003, 5.948383e+002
1.712526e+003, 5.957745e+002
1.714455e+003, 5.946471e+002
1.716383e+003, 5.942018e+002
1.718312e+003, 5.951789e+002
1.720240e+003, 5.961346e+002
1.722169e+003, 5.958024e+002
1.724097e+003, 5.953702e+002
1.726026e+003, 5.972396e+002
1.727954e+003, 6.014197e+002
1.729883e+003, 6.023777e+002
1.731811e+003, 5.965560e+002
1.733740e+003, 5.934706e+002
1.735668e+003, 5.961728e+002
1.737596e+003, 5.989247e+002
1.739525e+003, 5.990459e+002
1.741453e+003, 5.977553e+002
1.743382e+003, 5.963383e+002
1.745310e+003, 5.948049e+002
1.747239e+003, 5.948927e+002
1.749167e+003, 5.978423e+002
1.751096e+003, 6.003475e+002
1.753024e+003, 6.015659e+002
1.754953e+003, 6.028897e+002
1.756881e+003, 6.051765e+002
1.758810e+003, 6.076939e+002
1.760738e+003, 6.095040e+002
1.762667e+003, 6.106158e+002
1.764595e+003, 6.114164e+002
1.766523e+003, 6.109236e+002
1.768452e+003, 6.119838e+002
1.770380e+003, 6.169681e+002
1.772309e+003, 6.208190e+002
1.774237e+003, 6.201809e+002
1.776166e+003, 6.182183e+002
1.778094e+003, 6.193999e+002
1.780023e+003, 6.232746e+002
1.781951e+003, 6.239197e+002
1.783880e+003, 6.191745e+002
1.785808e+003, 6.160710e+002
1.787737e+003, 6.157987e+002
1.789665e+003, 6.161229e+002
1.791594e+003, 6.168655e+002
1.793522e+003, 6.174615e+002
1.795450e+003, 6.173447e+002
1.797379e+003, 6.165934e+002
1.799307e+003, 6.155825e+002
1.801236e+003, 6.142300e+002
1.803164e+003, 6.129810e+002
1.805093e+003, 6.114736e+002
1.807021e+003, 6.108754e+002
1.808950e+003, 6.116893e+002
1.810878e+003, 6.133729e+002
1.812807e+003, 6.164141e+002
1.814735e+003, 6.198398e+002
1.816664e+003, 6.212715e+002
1.818592e+003, 6.206263e+002
1.820521e+003, 6.185315e+002
1.822449e+003, 6.135244e+002
1.824377e+003, 6.108149e+002
1.826306e+003, 6.131415e+002
1.828234e+003, 6.161281e+002
1.830163e+003, 6.177216e+002
1.832091e+003, 6.185395e+002
1.834020e+003, 6.195393e+002
1.835948e+003, 6.205916e+002
1.837877e+003, 6.205178e+002
1.839805e+003, 6.189996e+002
1.841734e+003, 6.183187e+002
1.843662e+003, 6.197889e+002
1.845591e+003, 6.204888e+002
1.847519e+003, 6.182382e+002
1.849448e+003, 6.155123e+002
1.851376e+003, 6.144183e+002
1.853304e+003, 6.143950e+002
1.855233e+003, 6.143259e+002
1.857161e+003, 6.142167e+002
1.859090e+003, 6.140551e+002
1.861018e+003, 6.134843e+002
1.862947e+003, 6.140175e+002
1.864875e+003, 6.173526e+002
1.866804e+003, 6.204389e+002
1.868732e+003, 6.213847e+002
1.870661e+003, 6.213039e+002
1.872589e+003, 6.216533e+002
1.874518e+003, 6.222130e+002
1.876446e+003, 6.216595e+002
1.878375e+003, 6.191127e+002
1.880303e+003, 6.182203e+002
1.882231e+003, 6.209827e+002
1.884160e+003, 6.229091e+002
1.886088e+003, 6.219257e+002
1.888017e+003, 6.210034e+002
1.889945e+003, 6.234119e+002
1.891874e+003, 6.269105e+002
1.893802e+003, 6.264705e+002
1.895731e+003, 6.219467e+002
1.897659e+003, 6.208475e+002
1.899588e+003, 6.262403e+002
1.901516e+003, 6.286771e+002
1.903445e+003, 6.240189e+002
1.905373e+003, 6.211365e+002
1.907302e+003, 6.246877e+002
1.909230e+003, 6.289337e+002
1.911158e+003, 6.289883e+002
1.913087e+003, 6.265256e+002
1.915015e+003, 6.253669e+002
1.916944e+003, 6.255787e+002
1.918872e+003, 6.260313e+002
1.920801e+003, 6.266280e+002
1.922729e+003, 6.276890e+002
1.924658e+003, 6.299244e+002
1.926586e+003, 6.313968e+002
1.928515e+003, 6.308778e+002
1.930443e+003, 6.295914e+002
1.932372e+003, 6.277451e+002
1.934300e+003, 6.261946e+002
1.936229e+003, 6.273193e+002
1.938157e+003, 6.308695e+002
1.940085e+003, 6.323825e+002
1.942014e+003, 6.308674e+002
1.943942e+003, 6.300865e+002
1.945871e+003, 6.314464e+002
1.947799e+003, 6.326262e+002
1.949728e+003, 6.330448e+002
1.951656e+003, 6.325939e+002
1.953585e+003, 6.306497e+002
1.955513e+003, 6.280004e+002
1.957442e+003, 6.257683e+002
1.959370e+003, 6.239304e+002
1.961299e+003, 6.251338e+002
1.963227e+003, 6.333804e+002
1.965156e+003, 6.370040e+002
1.967084e+003, 6.316827e+002
1.969012e+003, 6.275302e+002
1.970941e+003, 6.282863e+002
1.972869e+003, 6.296764e+002
1.974798e+003, 6.282610e+002
1.976726e+003, 6.259432e+002
1.978655e+003, 6.260270e+002
1.980583e+003, 6.282916e+002
1.982512e+003, 6.298338e+002
1.984440e+003, 6.307366e+002
1.986369e+003, 6.307945e+002
1.988297e+003, 6.294814e+002
1.990226e+003, 6.288382e+002
1.992154e+003, 6.298953e+002
1.994083e+003, 6.310824e+002
1.996011e+003, 6.318353e+002
1.997939e+003, 6.319321e+002
1.999868e+003, 6.303549e+002
2.001796e+003, 6.281150e+002
2.003725e+003, 6.278788e+002
2.005653e+003, 6.296815e+002
2.007582e+003, 6.323292e+002
2.009510e+003, 6.368979e+002
2.011439e+003, 6.389538e+002
2.013367e+003, 6.347736e+002
2.015296e+003, 6.321855e+002
2.017224e+003, 6.348934e+002
2.019153e+003, 6.385272e+002
2.021081e+003, 6.405142e+002
2.023010e+003, 6.410964e+002
2.024938e+003, 6.401797e+002
2.026866e+003, 6.381011e+002
2.028795e+003, 6.373629e+002
2.030723e+003, 6.384716e+002
2.032652e+003, 6.390574e+002
2.034580e+003, 6.390692e+002
2.036509e+003, 6.386025e+002
2.038437e+003, 6.365282e+002
2.040366e+003, 6.356578e+002
2.042294e+003, 6.390537e+002
2.044223e+003, 6.419828e+002
2.046151e+003, 6.383998e+002
2.048080e+003, 6.333035e+002
2.050008e+003, 6.366630e+002
2.051937e+003, 6.462333e+002
2.053865e+003, 6.496628e+002
2.055793e+003, 6.457482e+002
2.057722e+003, 6.434335e+002
2.059650e+003, 6.447360e+002
2.061579e+003, 6.453622e+002
2.063507e+003, 6.440325e+002
2.065436e+003, 6.423124e+002
2.067364e+003, 6.396946e+002
2.069293e+003, 6.379645e+002
2.071221e+003, 6.393491e+002
2.073150e+003, 6.422145e+002
2.075078e+003, 6.437661e+002
2.077007e+003, 6.441320e+002
2.078935e+003, 6.442648e+002
2.080864e+003, 6.440941e+002
2.082792e+003, 6.448383e+002
2.084720e+003, 6.474359e+002
2.086649e+003, 6.482024e+002
2.088577e+003, 6.448868e+002
2.090506e+003, 6.425504e+002
2.092434e+003, 6.442124e+002
2.094363e+003, 6.465406e+002
2.096291e+003, 6.472352e+002
2.098220e+003, 6.471106e+002
2.100148e+003, 6.468541e+002
2.102077e+003, 6.466086e+002
2.104005e+003, 6.473990e+002
2.105934e+003, 6.494015e+002
2.107862e+003, 6.497061e+002
2.109791e+003, 6.463063e+002
2.111719e+003, 6.451595e+002
2.113647e+003, 6.478779e+002
2.115576e+003, 6.507689e+002
2.117504e+003, 6.546942e+002
2.119433e+003, 6.569222e+002
2.121361e+003, 6.551266e+002
2.123290e+003, 6.522217e+002
2.125218e+003, 6.502419e+002
2.127147e+003, 6.491241e+002
2.129075e+003, 6.488265e+002
2.131004e+003, 6.492250e+002
2.132932e+003, 6.501371e+002
2.134861e+003, 6.515314e+002
2.136789e+003, 6.525112e+002
2.138718e+003, 6.530079e+002
2.140646e+003, 6.529259e+002
2.142574e+003, 6.519092e+002
2.144503e+003, 6.508561e+002
2.146431e+003, 6.496197e+002
2.148360e+003, 6.489670e+002
2.150288e+003, 6.490922e+002
2.152217e+003, 6.502495e+002
2.154145e+003, 6.537343e+002
2.156074e+003, 6.579496e+002
2.158002e+003, 6.593345e+002
2.159931e+003, 6.582763e+002
2.161859e+003, 6.580123e+002
2.163788e+003, 6.586076e+002
2.165716e+003, 6.575057e+002
2.167645e+003, 6.536714e+002
2.169573e+003, 6.524370e+002
2.171501e+003, 6.561612e+002
2.173430e+003, 6.597783e+002
2.175358e+003, 6.618942e+002
2.177287e+003, 6.632660e+002
2.179215e+003, 6.644781e+002
2.181144e+003, 6.648765e+002
2.183072e+003, 6.623768e+002
2.185001e+003, 6.595896e+002
2.186929e+003, 6.618552e+002
2.188858e+003, 6.674512e+002
2.190786e+003, 6.685512e+002
2.192715e+003, 6.650851e+002
2.194643e+003, 6.645031e+002
2.196572e+003, 6.676697e+002
2.198500e+003, 6.687719e+002
2.200428e+003, 6.663407e+002
2.202357e+003, 6.645830e+002
2.204285e+003, 6.652690e+002
2.206214e+003, 6.654948e+002
2.208142e+003, 6.632249e+002
2.210071e+003, 6.611918e+002
2.211999e+003, 6.611317e+002
2.213928e+003, 6.619656e+002
2.215856e+003, 6.628721e+002
2.217785e+003, 6.638273e+002
2.219713e+003, 6.649824e+002
2.221642e+003, 6.661954e+002
2.223570e+003, 6.658632e+002
2.225499e+003, 6.639741e+002
2.227427e+003, 6.657009e+002
2.229355e+003, 6.717550e+002
2.231284e+003, 6.770151e+002
2.233212e+003, 6.813390e+002
2.235141e+003, 6.825021e+002
2.237069e+003, 6.769503e+002
2.238998e+003, 6.733568e+002
2.240926e+003, 6.771703e+002
2.242855e+003, 6.807755e+002
2.244783e+003, 6.792938e+002
2.246712e+003, 6.768036e+002
2.248640e+003, 6.769459e+002
2.250569e+003, 6.783945e+002
2.252497e+003, 6.787568e+002
2.254426e+003, 6.788256e+002
2.256354e+003, 6.819276e+002
2.258282e+003, 6.873572e+002
2.260211e+003, 6.894900e+002
2.262139e+003, 6.880245e+002
2.264068e+003, 6.879357e+002
2.265996e+003, 6.901717e+002
2.267925e+003, 6.914456e+002
2.269853e+003, 6.904479e+002
2.271782e+003, 6.898243e+002
2.273710e+003, 6.903570e+002
2.275639e+003, 6.909769e+002
2.277567e+003, 6.903990e+002
2.279496e+003, 6.909974e+002
2.281424e+003, 6.958944e+002
2.283353e+003, 7.007355e+002
2.285281e+003, 7.012589e+002
2.287209e+003, 6.996595e+002
2.289138e+003, 6.984598e+002
2.291066e+003, 6.977572e+002
2.292995e+003, 6.979945e+002
2.294923e+003, 6.990633e+002
2.296852e+003, 6.997397e+002
2.298780e+003, 6.998404e+002
2.300709e+003, 7.013427e+002
2.302637e+003, 7.057714e+002
2.304566e+003, 7.077337e+002
2.306494e+003, 7.047947e+002
2.308423e+003, 7.049824e+002
2.310351e+003, 7.118683e+002
2.312280e+003, 7.165754e+002
2.314208e+003, 7.158193e+002
2.316136e+003, 7.135135e+002
2.318065e+003, 7.093328e+002
2.319993e+003, 7.069960e+002
2.321922e+003, 7.114329e+002
2.323850e+003, 7.165422e+002
2.325779e+003, 7.142151e+002
2.327707e+003, 7.099816e+002
2.329636e+003, 7.141696e+002
2.331564e+003, 7.231037e+002
2.333493e+003, 7.256827e+002
2.335421e+003, 7.227669e+002
2.337350e+003, 7.211019e+002
2.339278e+003, 7.206565e+002
2.341207e+003, 7.194677e+002
2.343135e+003, 7.172803e+002
2.345063e+003, 7.165085e+002
2.346992e+003, 7.175654e+002
2.348920e+003, 7.199160e+002
2.350849e+003, 7.252428e+002
2.352777e+003, 7.290624e+002
2.354706e+003, 7.305621e+002
2.356634e+003, 7.304894e+002
2.358563e+003, 7.272048e+002
2.360491e+003, 7.246605e+002
2.362420e+003, 7.244003e+002
2.364348e+003, 7.255483e+002
2.366277e+003, 7.289576e+002
2.368205e+003, 7.321113e+002
2.370134e+003, 7.320988e+002
2.372062e+003, 7.307596e+002
2.373990e+003, 7.302551e+002
2.375919e+003, 7.307299e+002
2.377847e+003, 7.329689e+002
2.379776e+003, 7.365304e+002
2.381704e+003, 7.390259e+002
2.383633e+003, 7.404936e+002
2.385561e+003, 7.410145e+002
2.387490e+003, 7.405896e+002
2.389418e+003, 7.427068e+002
2.391347e+003, 7.479254e+002
2.393275e+003, 7.534091e+002
2.395204e+003, 7.596109e+002
2.397132e+003, 7.637969e+002
2.399061e+003, 7.630055e+002
2.400989e+003, 7.643904e+002
2.402917e+003, 7.691119e+002
2.404846e+003, 7.761516e+002
2.406774e+003, 7.879321e+002
2.408703e+003, 7.977476e+002
2.410631e+003, 8.001870e+002
2.412560e+003, 8.034934e+002
2.414488e+003, 8.144573e+002
2.416417e+003, 8.265034e+002
2.418345e+003, 8.335862e+002
2.420274e+003, 8.395052e+002
2.422202e+003, 8.476439e+002
2.424131e+003, 8.580245e+002
2.426059e+003, 8.717218e+002
2.427988e+003, 8.872947e+002
2.429916e+003, 9.014700e+002
2.431844e+003, 9.145764e+002
2.433773e+003, 9.281632e+002
2.435701e+003, 9.418602e+002
2.437630e+003, 9.539030e+002
2.439558e+003, 9.644209e+002
2.441487e+003, 9.672889e+002
2.443415e+003, 9.601260e+002
2.445344e+003, 9.560834e+002
2.447272e+003, 9.572157e+002
2.449201e+003, 9.527150e+002
2.451129e+003, 9.401088e+002
2.453058e+003, 9.292886e+002
2.454986e+003, 9.221976e+002
2.456915e+003, 9.157565e+002
2.458843e+003, 9.098058e+002
2.460771e+003, 9.031956e+002
2.462700e+003, 8.945099e+002
2.464628e+003, 8.868098e+002
2.466557e+003, 8.822137e+002
2.468485e+003, 8.773053e+002
2.470414e+003, 8.697584e+002
2.472342e+003, 8.626332e+002
2.474271e+003, 8.583835e+002
2.476199e+003, 8.541051e+002
2.478128e+003, 8.464469e+002
2.480056e+003, 8.389913e+002
2.481985e+003, 8.355068e+002
2.483913e+003, 8.338297e+002
2.485842e+003, 8.313137e+002
2.487770e+003, 8.287863e+002
2.489698e+003, 8.280013e+002
2.491627e+003, 8.280568e+002
2.493555e+003, 8.269875e+002
2.495484e+003, 8.251760e+002
2.497412e+003, 8.232889e+002
2.499341e+003, 8.215824e+002
2.501269e+003, 8.218324e+002
2.503198e+003, 8.236458e+002
2.505126e+003, 8.209213e+002
2.507055e+003, 8.131731e+002
2.508983e+003, 8.086445e+002
2.510912e+003, 8.073690e+002
2.512840e+003, 8.063847e+002
2.514769e+003, 8.055417e+002
2.516697e+003, 8.045201e+002
2.518625e+003, 8.036339e+002
2.520554e+003, 8.011334e+002
2.522482e+003, 7.966548e+002
2.524411e+003, 7.908016e+002
2.526339e+003, 7.818284e+002
2.528268e+003, 7.761678e+002
2.530196e+003, 7.758749e+002
2.532125e+003, 7.749287e+002
2.534053e+003, 7.713265e+002
2.535982e+003, 7.685196e+002
2.537910e+003, 7.681737e+002
2.539839e+003, 7.677653e+002
2.541767e+003, 7.670536e+002
2.543696e+003, 7.653589e+002
2.545624e+003, 7.607478e+002
2.547552e+003, 7.576106e+002
2.549481e+003, 7.588736e+002
2.551409e+003, 7.601078e+002
2.553338e+003, 7.592310e+002
2.555266e+003, 7.572975e+002
2.557195e+003, 7.537294e+002
2.559123e+003, 7.509211e+002
2.561052e+003, 7.514213e+002
2.562980e+003, 7.524935e+002
2.564909e+003, 7.526016e+002
2.566837e+003, 7.512521e+002
2.568766e+003, 7.461898e+002
2.570694e+003, 7.411335e+002
2.572623e+003, 7.405430e+002
2.574551e+003, 7.416947e+002
2.576479e+003, 7.416462e+002
2.578408e+003, 7.407048e+002
2.580336e+003, 7.386443e+002
2.582265e+003, 7.365468e+002
2.584193e+003, 7.363533e+002
2.586122e+003, 7.375872e+002
2.588050e+003, 7.399214e+002
2.589979e+003, 7.425302e+002
2.591907e+003, 7.438754e+002
2.593836e+003, 7.438314e+002
2.595764e+003, 7.415359e+002
2.597693e+003, 7.376745e+002
2.599621e+003, 7.353109e+002
2.601550e+003, 7.341946e+002
2.603478e+003, 7.326434e+002
2.605406e+003, 7.311142e+002
2.607335e+003, 7.326623e+002
2.609263e+003, 7.367354e+002
2.611192e+003, 7.364550e+002
2.613120e+003, 7.319605e+002
2.615049e+003, 7.309055e+002
2.616977e+003, 7.332620e+002
2.618906e+003, 7.365270e+002
2.620834e+003, 7.404691e+002
2.622763e+003, 7.423433e+002
2.624691e+003, 7.419564e+002
2.626620e+003, 7.405378e+002
2.628548e+003, 7.379435e+002
2.630477e+003, 7.355526e+002
2.632405e+003, 7.330525e+002
2.634333e+003, 7.334181e+002
2.636262e+003, 7.369493e+002
2.638190e+003, 7.398436e+002
2.640119e+003, 7.417982e+002
2.642047e+003, 7.428045e+002
2.643976e+003, 7.430211e+002
2.645904e+003, 7.411231e+002
2.647833e+003, 7.353007e+002
2.649761e+003, 7.342826e+002
2.651690e+003, 7.394253e+002
2.653618e+003, 7.430737e+002
2.655547e+003, 7.445040e+002
2.657475e+003, 7.436451e+002
2.659404e+003, 7.382225e+002
2.661332e+003, 7.376320e+002
2.663260e+003, 7.461856e+002
2.665189e+003, 7.493234e+002
2.667117e+003, 7.446497e+002
2.669046e+003, 7.421876e+002
2.670974e+003, 7.440383e+002
2.672903e+003, 7.440873e+002
2.674831e+003, 7.411850e+002
2.676760e+003, 7.368798e+002
2.678688e+003, 7.305189e+002
2.680617e+003, 7.246155e+002
2.682545e+003, 7.192543e+002
2.684474e+003, 7.146192e+002
2.686402e+003, 7.108205e+002
2.688331e+003, 7.073646e+002
2.690259e+003, 7.035067e+002
2.692188e+003, 7.017980e+002
2.694116e+003, 7.041631e+002
2.696044e+003, 7.057480e+002
2.697973e+003, 7.063073e+002
2.699901e+003, 7.056968e+002
2.701830e+003, 7.035049e+002
2.703758e+003, 7.014562e+002
2.705687e+003, 6.990090e+002
2.707615e+003, 6.989469e+002
2.709544e+003, 7.043623e+002
2.711472e+003, 7.064139e+002
2.713401e+003, 7.030380e+002
2.715329e+003, 7.021466e+002
2.717258e+003, 7.060977e+002
2.719186e+003, 7.073960e+002
2.721115e+003, 7.031680e+002
2.723043e+003, 7.001506e+002
2.724971e+003, 6.989595e+002
2.726900e+003, 6.999542e+002
2.728828e+003, 7.043466e+002
2.730757e+003, 7.055145e+002
2.732685e+003, 7.012916e+002
2.734614e+003, 6.998278e+002
2.736542e+003, 7.050414e+002
2.738471e+003, 7.056562e+002
2.740399e+003, 6.975211e+002
2.742328e+003, 6.952551e+002
2.744256e+003, 7.009601e+002
2.746185e+003, 7.055591e+002
2.748113e+003, 7.080614e+002
2.750042e+003, 7.087383e+002
2.751970e+003, 7.069178e+002
2.753898e+003, 7.052947e+002
2.755827e+003, 7.040323e+002
2.757755e+003, 7.021273e+002
2.759684e+003, 6.992675e+002
2.761612e+003, 6.991354e+002
2.763541e+003, 7.025747e+002
2.765469e+003, 7.048781e+002
2.767398e+003, 7.058431e+002
2.769326e+003, 7.043792e+002
2.771255e+003, 6.998548e+002
2.773183e+003, 6.994619e+002
2.775112e+003, 7.034575e+002
2.777040e+003, 7.036550e+002
2.778969e+003, 6.990668e+002
2.780897e+003, 6.992416e+002
2.782825e+003, 7.049996e+002
2.784754e+003, 7.058118e+002
2.786682e+003, 7.019538e+002
2.788611e+003, 6.984203e+002
2.790539e+003, 6.955485e+002
2.792468e+003, 6.949930e+002
2.794396e+003, 6.965881e+002
2.796325e+003, 6.991116e+002
2.798253e+003, 7.023113e+002
2.800182e+003, 7.039764e+002
2.802110e+003, 7.040817e+002
2.804039e+003, 7.015389e+002
2.805967e+003, 6.975380e+002
2.807896e+003, 6.966068e+002
2.809824e+003, 6.978468e+002
2.811752e+003, 6.989359e+002
2.813681e+003, 6.993903e+002
2.815609e+003, 6.965399e+002
2.817538e+003, 6.927637e+002
2.819466e+003, 6.930312e+002
2.821395e+003, 6.954492e+002
2.823323e+003, 6.970573e+002
2.825252e+003, 6.980018e+002
2.827180e+003, 6.987938e+002
2.829109e+003, 6.988246e+002
2.831037e+003, 6.963006e+002
2.832966e+003, 6.937638e+002
2.834894e+003, 6.942194e+002
2.836823e+003, 6.960524e+002
2.838751e+003, 6.990082e+002
2.840679e+003, 7.008126e+002
2.842608e+003, 6.982819e+002
2.844536e+003, 6.955413e+002
2.846465e+003, 6.957983e+002
2.848393e+003, 6.965888e+002
2.850322e+003, 6.962113e+002
2.852250e+003, 6.959552e+002
2.854179e+003, 6.964360e+002
2.856107e+003, 6.974070e+002
2.858036e+003, 6.993231e+002
2.859964e+003, 7.007491e+002
2.861893e+003, 7.007781e+002
2.863821e+003, 7.006429e+002
2.865750e+003, 7.007790e+002
2.867678e+003, 7.003700e+002
2.869606e+003, 6.988807e+002
2.871535e+003, 6.976599e+002
2.873463e+003, 6.964248e+002
2.875392e+003, 6.971383e+002
2.877320e+003, 7.017548e+002
2.879249e+003, 7.040197e+002
2.881177e+003, 7.033604e+002
2.883106e+003, 7.012177e+002
2.885034e+003, 6.971829e+002
2.886963e+003, 6.958079e+002
2.888891e+003, 6.978810e+002
2.890820e+003, 6.994751e+002
2.892748e+003, 7.005328e+002
2.894677e+003, 7.019235e+002
2.896605e+003, 7.035845e+002
2.898533e+003, 7.043872e+002
2.900462e+003, 7.045090e+002
2.902390e+003, 7.051887e+002
2.904319e+003, 7.062344e+002
2.906247e+003, 7.064706e+002
2.908176e+003, 7.062774e+002
2.910104e+003, 7.071392e+002
2.912033e+003, 7.078359e+002
2.913961e+003, 7.046262e+002
2.915890e+003, 7.008509e+002
2.917818e+003, 7.020368e+002
2.919747e+003, 7.054352e+002
2.921675e+003, 7.093397e+002
2.923604e+003, 7.123564e+002
2.925532e+003, 7.128109e+002
2.927460e+003, 7.123644e+002
2.929389e+003, 7.105380e+002
2.931317e+003, 7.108412e+002
2.933246e+003, 7.180032e+002
2.935174e+003, 7.226982e+002
2.937103e+003, 7.170748e+002
2.939031e+003, 7.143064e+002
2.940960e+003, 7.202914e+002
2.942888e+003, 7.248812e+002
2.944817e+003, 7.258021e+002
2.946745e+003, 7.257354e+002
2.948674e+003, 7.248480e+002
2.950602e+003, 7.241929e+002
2.952531e+003, 7.238671e+002
2.954459e+003, 7.238170e+002
2.956387e+003, 7.240284e+002
2.958316e+003, 7.242867e+002
2.960244e+003, 7.245270e+002
2.962173e+003, 7.227352e+002
2.964101e+003, 7.191083e+002
2.966030e+003, 7.182150e+002
2.967958e+003, 7.189362e+002
2.969887e+003, 7.170980e+002
2.971815e+003, 7.135220e+002
2.973744e+003, 7.088949e+002
2.975672e+003, 7.047424e+002
2.977601e+003, 7.042452e+002
2.979529e+003, 7.052299e+002
2.981458e+003, 7.059379e+002
2.983386e+003, 7.057487e+002
2.985314e+003, 7.034899e+002
2.987243e+003, 7.009279e+002
2.989171e+003, 6.990712e+002
2.991100e+003, 6.976979e+002
2.993028e+003, 6.968678e+002
2.994957e+003, 6.963932e+002
2.996885e+003, 6.971522e+002
2.998814e+003, 6.964038e+002
3.000742e+003, 6.930583e+002
3.002671e+003, 6.906531e+002
3.004599e+003, 6.899588e+002
3.006528e+003, 6.892460e+002
3.008456e+003, 6.881022e+002
3.010385e+003, 6.880491e+002
3.012313e+003, 6.890342e+002
3.014241e+003, 6.892772e+002
3.016170e+003, 6.887408e+002
3.018098e+003, 6.881514e+002
3.020027e+003, 6.873587e+002
3.021955e+003, 6.859219e+002
3.023884e+003, 6.839913e+002
3.025812e+003, 6.805319e+002
3.027741e+003, 6.782454e+002
3.029669e+003, 6.823978e+002
3.031598e+003, 6.873315e+002
3.033526e+003, 6.878423e+002
3.035455e+003, 6.863277e+002
3.037383e+003, 6.824857e+002
3.039312e+003, 6.800624e+002
3.041240e+003, 6.822805e+002
3.043168e+003, 6.838136e+002
3.045097e+003, 6.837142e+002
3.047025e+003, 6.816849e+002
3.048954e+003, 6.768500e+002
3.050882e+003, 6.742011e+002
3.052811e+003, 6.747076e+002
3.054739e+003, 6.774230e+002
3.056668e+003, 6.822761e+002
3.058596e+003, 6.833016e+002
3.060525e+003, 6.808160e+002
3.062453e+003, 6.784456e+002
3.064382e+003, 6.761381e+002
3.066310e+003, 6.723448e+002
3.068239e+003, 6.694749e+002
3.070167e+003, 6.733678e+002
3.072095e+003, 6.787768e+002
3.074024e+003, 6.807145e+002
3.075952e+003, 6.806130e+002
3.077881e+003, 6.788717e+002
3.079809e+003, 6.763457e+002
3.081738e+003, 6.719528e+002
3.083666e+003, 6.698114e+002
3.085595e+003, 6.737192e+002
3.087523e+003, 6.754011e+002
3.089452e+003, 6.731728e+002
3.091380e+003, 6.734530e+002
3.093309e+003, 6.775243e+002
3.095237e+003, 6.789964e+002
3.097166e+003, 6.774987e+002
3.099094e+003, 6.739535e+002
3.101022e+003, 6.696599e+002
3.102951e+003, 6.720183e+002
3.104879e+003, 6.773467e+002
3.106808e+003, 6.780862e+002
3.108736e+003, 6.767506e+002
3.110665e+003, 6.769568e+002
3.112593e+003, 6.765561e+002
3.114522e+003, 6.718353e+002
3.116450e+003, 6.690736e+002
3.118379e+003, 6.736514e+002
3.120307e+003, 6.776558e+002
3.122236e+003, 6.791577e+002
3.124164e+003, 6.793959e+002
3.126093e+003, 6.778568e+002
3.128021e+003, 6.772471e+002
3.129949e+003, 6.776859e+002
3.131878e+003, 6.788585e+002
3.133806e+003, 6.802990e+002
3.135735e+003, 6.779576e+002
3.137663e+003, 6.733030e+002
3.139592e+003, 6.709804e+002
3.141520e+003, 6.706778e+002
3.143449e+003, 6.737106e+002
3.145377e+003, 6.760347e+002
3.147306e+003, 6.711056e+002
3.149234e+003, 6.676507e+002
3.151163e+003, 6.733377e+002
3.153091e+003, 6.774139e+002
3.155020e+003, 6.750228e+002
3.156948e+003, 6.729296e+002
3.158876e+003, 6.721466e+002
3.160805e+003, 6.740772e+002
3.162733e+003, 6.790569e+002
3.164662e+003, 6.764840e+002
3.166590e+003, 6.669352e+002
3.168519e+003, 6.668076e+002
3.170447e+003, 6.730386e+002
3.172376e+003, 6.757983e+002
3.174304e+003, 6.767847e+002
3.176233e+003, 6.788776e+002
3.178161e+003, 6.799763e+002
3.180090e+003, 6.764510e+002
3.182018e+003, 6.737193e+002
3.183947e+003, 6.747627e+002
3.185875e+003, 6.761512e+002
3.187803e+003, 6.766068e+002
3.189732e+003, 6.777103e+002
3.191660e+003, 6.799307e+002
3.193589e+003, 6.792924e+002
3.195517e+003, 6.754615e+002
3.197446e+003, 6.740009e+002
3.199374e+003, 6.746160e+002
3.201303e+003, 6.767765e+002
3.203231e+003, 6.789132e+002
3.205160e+003, 6.787481e+002
3.207088e+003, 6.768335e+002
3.209017e+003, 6.710779e+002
3.210945e+003, 6.683052e+002
3.212874e+003, 6.751964e+002
3.214802e+003, 6.787324e+002
3.216730e+003, 6.693087e+002
3.218659e+003, 6.665297e+002
3.220587e+003, 6.729879e+002
3.222516e+003, 6.752475e+002
3.224444e+003, 6.722955e+002
3.226373e+003, 6.749072e+002
3.228301e+003, 6.807457e+002
3.230230e+003, 6.783981e+002
3.232158e+003, 6.727745e+002
3.234087e+003, 6.707526e+002
3.236015e+003, 6.702456e+002
3.237944e+003, 6.689894e+002
3.239872e+003, 6.691801e+002
3.241801e+003, 6.732565e+002
3.243729e+003, 6.749866e+002
3.245657e+003, 6.700963e+002
3.247586e+003, 6.683547e+002
3.249514e+003, 6.702953e+002
3.251443e+003, 6.692065e+002
3.253371e+003, 6.656829e+002
3.255300e+003, 6.675630e+002
3.257228e+003, 6.719777e+002
3.259157e+003, 6.717765e+002
3.261085e+003, 6.698037e+002
3.263014e+003, 6.688411e+002
3.264942e+003, 6.674637e+002
3.266871e+003, 6.632715e+002
3.268799e+003, 6.618143e+002
3.270728e+003, 6.659305e+002
3.272656e+003, 6.687839e+002
3.274584e+003, 6.694393e+002
3.276513e+003, 6.683484e+002
3.278441e+003, 6.657897e+002
3.280370e+003, 6.633707e+002
3.282298e+003, 6.615682e+002
3.284227e+003, 6.630450e+002
3.286155e+003, 6.639462e+002
3.288084e+003, 6.573075e+002
3.290012e+003, 6.526116e+002
3.291941e+003, 6.581725e+002
3.293869e+003, 6.624981e+002
3.295798e+003, 6.624561e+002
3.297726e+003, 6.626535e+002
3.299655e+003, 6.640195e+002
3.301583e+003, 6.646158e+002
3.303511e+003, 6.644619e+002
3.305440e+003, 6.636616e+002
3.307368e+003, 6.625220e+002
3.309297e+003, 6.615322e+002
3.311225e+003, 6.607381e+002
3.313154e+003, 6.602308e+002
3.315082e+003, 6.599632e+002
3.317011e+003, 6.593353e+002
3.318939e+003, 6.605890e+002
3.320868e+003, 6.654782e+002
3.322796e+003, 6.653647e+002
3.324725e+003, 6.596952e+002
3.326653e+003, 6.587853e+002
3.328582e+003, 6.611807e+002
3.330510e+003, 6.590930e+002
3.332438e+003, 6.562438e+002
3.334367e+003, 6.580746e+002
3.336295e+003, 6.610576e+002
3.338224e+003, 6.640466e+002
3.340152e+003, 6.643820e+002
3.342081e+003, 6.597303e+002
3.344009e+003, 6.581747e+002
3.345938e+003, 6.621041e+002
3.347866e+003, 6.637252e+002
3.349795e+003, 6.630336e+002
3.351723e+003, 6.589242e+002
3.353652e+003, 6.541672e+002
3.355580e+003, 6.547026e+002
3.357509e+003, 6.564513e+002
3.359437e+003, 6.556528e+002
3.361365e+003, 6.555076e+002
3.363294e+003, 6.574238e+002
3.365222e+003, 6.605006e+002
3.367151e+003, 6.649203e+002
3.369079e+003, 6.652296e+002
3.371008e+003, 6.616508e+002
3.372936e+003, 6.606170e+002
3.374865e+003, 6.611700e+002
3.376793e+003, 6.620367e+002
3.378722e+003, 6.621564e+002
3.380650e+003, 6.595162e+002
3.382579e+003, 6.575767e+002
3.384507e+003, 6.578589e+002
3.386436e+003, 6.580887e+002
3.388364e+003, 6.576732e+002
3.390292e+003, 6.572094e+002
3.392221e+003, 6.569103e+002
3.394149e+003, 6.593099e+002
3.396078e+003, 6.621910e+002
3.398006e+003, 6.611725e+002
3.399935e+003, 6.583201e+002
3.401863e+003, 6.533567e+002
3.403792e+003, 6.511091e+002
3.405720e+003, 6.561207e+002
3.407649e+003, 6.585045e+002
3.409577e+003, 6.573535e+002
3.411506e+003, 6.575043e+002
3.413434e+003, 6.588596e+002
3.415363e+003, 6.594654e+002
3.417291e+003, 6.595533e+002
3.419219e+003, 6.591082e+002
3.421148e+003, 6.588761e+002
3.423076e+003, 6.583007e+002
3.425005e+003, 6.606664e+002
3.426933e+003, 6.680159e+002
3.428862e+003, 6.713248e+002
3.430790e+003, 6.694191e+002
3.432719e+003, 6.683819e+002
3.434647e+003, 6.677968e+002
3.436576e+003, 6.664440e+002
3.438504e+003, 6.647301e+002
3.440433e+003, 6.636706e+002
3.442361e+003, 6.612280e+002
3.444290e+003, 6.544381e+002
3.446218e+003, 6.517571e+002
3.448146e+003, 6.554350e+002
3.450075e+003, 6.572921e+002
3.452003e+003, 6.570195e+002
3.453932e+003, 6.537418e+002
3.455860e+003, 6.505488e+002
3.457789e+003, 6.553409e+002
3.459717e+003, 6.592799e+002
3.461646e+003, 6.550623e+002
3.463574e+003, 6.516295e+002
3.465503e+003, 6.509675e+002
3.467431e+003, 6.518514e+002
3.469360e+003, 6.540649e+002
3.471288e+003, 6.550138e+002
3.473217e+003, 6.549524e+002
3.475145e+003, 6.541769e+002
3.477073e+003, 6.534718e+002
3.479002e+003, 6.539686e+002
3.480930e+003, 6.540038e+002
3.482859e+003, 6.528387e+002
3.484787e+003, 6.528521e+002
3.486716e+003, 6.546404e+002
3.488644e+003, 6.539937e+002
3.490573e+003, 6.516862e+002
3.492501e+003, 6.493757e+002
3.494430e+003, 6.479828e+002
3.496358e+003, 6.489674e+002
3.498287e+003, 6.507040e+002
3.500215e+003, 6.531910e+002
3.502144e+003, 6.544518e+002
3.504072e+003, 6.540873e+002
3.506000e+003, 6.556459e+002
3.507929e+003, 6.575958e+002
3.509857e+003, 6.526263e+002
3.511786e+003, 6.479056e+002
3.513714e+003, 6.547124e+002
3.515643e+003, 6.596774e+002
3.517571e+003, 6.550460e+002
3.519500e+003, 6.507523e+002
3.521428e+003, 6.476992e+002
3.523357e+003, 6.482404e+002
3.525285e+003, 6.510486e+002
3.527214e+003, 6.514568e+002
3.529142e+003, 6.507666e+002
3.531071e+003, 6.491406e+002
3.532999e+003, 6.493101e+002
3.534927e+003, 6.545822e+002
3.536856e+003, 6.558522e+002
3.538784e+003, 6.523951e+002
3.540713e+003, 6.553065e+002
3.542641e+003, 6.614221e+002
3.544570e+003, 6.577726e+002
3.546498e+003, 6.529833e+002
3.548427e+003, 6.563713e+002
3.550355e+003, 6.586987e+002
3.552284e+003, 6.566909e+002
3.554212e+003, 6.552250e+002
3.556141e+003, 6.549738e+002
3.558069e+003, 6.565445e+002
3.559998e+003, 6.586020e+002
3.561926e+003, 6.572485e+002
3.563854e+003, 6.559044e+002
3.565783e+003, 6.578087e+002
3.567711e+003, 6.596629e+002
3.569640e+003, 6.607787e+002
3.571568e+003, 6.606613e+002
3.573497e+003, 6.593865e+002
3.575425e+003, 6.580106e+002
3.577354e+003, 6.573641e+002
3.579282e+003, 6.611049e+002
3.581211e+003, 6.618085e+002
3.583139e+003, 6.532177e+002
3.585068e+003, 6.503502e+002
3.586996e+003, 6.591768e+002
3.588925e+003, 6.592709e+002
3.590853e+003, 6.542811e+002
3.592781e+003, 6.578554e+002
3.594710e+003, 6.631207e+002
3.596638e+003, 6.622324e+002
3.598567e+003, 6.605668e+002
3.600495e+003, 6.600071e+002
3.602424e+003, 6.587250e+002
3.604352e+003, 6.567601e+002
3.606281e+003, 6.570265e+002
3.608209e+003, 6.575450e+002
3.610138e+003, 6.530877e+002
3.612066e+003, 6.494449e+002
3.613995e+003, 6.511652e+002
3.615923e+003, 6.515574e+002
3.617852e+003, 6.488995e+002
3.619780e+003, 6.477341e+002
3.621708e+003, 6.484747e+002
3.623637e+003, 6.533661e+002
3.625565e+003, 6.576728e+002
3.627494e+003, 6.558671e+002
3.629422e+003, 6.531726e+002
3.631351e+003, 6.508107e+002
3.633279e+003, 6.505005e+002
3.635208e+003, 6.519365e+002
3.637136e+003, 6.519923e+002
3.639065e+003, 6.510612e+002
3.640993e+003, 6.487784e+002
3.642922e+003, 6.475804e+002
3.644850e+003, 6.500554e+002
3.646779e+003, 6.507734e+002
3.648707e+003, 6.492217e+002
3.650635e+003, 6.469765e+002
3.652564e+003, 6.451431e+002
3.654492e+003, 6.476963e+002
3.656421e+003, 6.499865e+002
3.658349e+003, 6.470335e+002
3.660278e+003, 6.467685e+002
3.662206e+003, 6.510688e+002
3.664135e+003, 6.519968e+002
3.666063e+003, 6.497706e+002
3.667992e+003, 6.453719e+002
3.669920e+003, 6.421474e+002
3.671849e+003, 6.447410e+002
3.673777e+003, 6.457695e+002
3.675706e+003, 6.423019e+002
3.677634e+003, 6.413090e+002
3.679563e+003, 6.429155e+002
3.681491e+003, 6.449161e+002
3.683419e+003, 6.460570e+002
3.685348e+003, 6.431920e+002
3.687276e+003, 6.420923e+002
3.689205e+003, 6.459277e+002
3.691133e+003, 6.493561e+002
3.693062e+003, 6.516138e+002
3.694990e+003, 6.498735e+002
3.696919e+003, 6.461022e+002
3.698847e+003, 6.412928e+002
3.700776e+003, 6.395819e+002
3.702704e+003, 6.451830e+002
3.704633e+003, 6.494845e+002
3.706561e+003, 6.516410e+002
3.708490e+003, 6.487059e+002
3.710418e+003, 6.446526e+002
3.712346e+003, 6.477645e+002
3.714275e+003, 6.501970e+002
3.716203e+003, 6.457634e+002
3.718132e+003, 6.455206e+002
3.720060e+003, 6.496786e+002
3.721989e+003, 6.488055e+002
3.723917e+003, 6.449141e+002
3.725846e+003, 6.398343e+002
3.727774e+003, 6.372838e+002
3.729703e+003, 6.406989e+002
3.731631e+003, 6.445765e+002
3.733560e+003, 6.480778e+002
3.735488e+003, 6.461359e+002
3.737417e+003, 6.426179e+002
3.739345e+003, 6.457997e+002
3.741273e+003, 6.482531e+002
3.743202e+003, 6.449762e+002
3.745130e+003, 6.439811e+002
3.747059e+003, 6.452623e+002
3.748987e+003, 6.407831e+002
3.750916e+003, 6.352491e+002
3.752844e+003, 6.367923e+002
3.754773e+003, 6.397245e+002
3.756701e+003, 6.424957e+002
3.758630e+003, 6.427937e+002
3.760558e+003, 6.407756e+002
3.762487e+003, 6.384130e+002
3.764415e+003, 6.368650e+002
3.766344e+003, 6.379752e+002
3.768272e+003, 6.398685e+002
3.770200e+003, 6.436483e+002
3.772129e+003, 6.420628e+002
3.774057e+003, 6.367412e+002
3.775986e+003, 6.360917e+002
3.777914e+003, 6.385121e+002
3.779843e+003, 6.441388e+002
3.781771e+003, 6.469126e+002
3.783700e+003, 6.432476e+002
3.785628e+003, 6.418400e+002
3.787557e+003, 6.418703e+002
3.789485e+003, 6.406445e+002
3.791414e+003, 6.379935e+002
3.793342e+003, 6.313585e+002
3.795271e+003, 6.318862e+002
3.797199e+003, 6.449183e+002
3.799127e+003, 6.426969e+002
3.801056e+003, 6.338210e+002
3.802984e+003, 6.401257e+002
3.804913e+003, 6.459740e+002
3.806841e+003, 6.418349e+002
3.808770e+003, 6.398880e+002
3.810698e+003, 6.419200e+002
3.812627e+003, 6.423082e+002
3.814555e+003, 6.422595e+002
3.816484e+003, 6.434595e+002
3.818412e+003, 6.453182e+002
3.820341e+003, 6.481714e+002
3.822269e+003, 6.475743e+002
3.824198e+003, 6.440580e+002
3.826126e+003, 6.417845e+002
3.828054e+003, 6.410159e+002
3.829983e+003, 6.436247e+002
3.831911e+003, 6.448539e+002
3.833840e+003, 6.436486e+002
3.835768e+003, 6.404749e+002
3.837697e+003, 6.366654e+002
3.839625e+003, 6.351199e+002
3.841554e+003, 6.352778e+002
3.843482e+003, 6.377054e+002
3.845411e+003, 6.387807e+002
3.847339e+003, 6.380577e+002
3.849268e+003, 6.353131e+002
3.851196e+003, 6.333151e+002
3.853125e+003, 6.370802e+002
3.855053e+003, 6.386871e+002
3.856981e+003, 6.351893e+002
3.858910e+003, 6.363876e+002
3.860838e+003, 6.410471e+002
3.862767e+003, 6.439152e+002
3.864695e+003, 6.444846e+002
3.866624e+003, 6.414473e+002
3.868552e+003, 6.376376e+002
3.870481e+003, 6.337697e+002
3.872409e+003, 6.356664e+002
3.874338e+003, 6.398555e+002
3.876266e+003, 6.409109e+002
3.878195e+003, 6.421790e+002
3.880123e+003, 6.467261e+002
3.882052e+003, 6.442363e+002
3.883980e+003, 6.375744e+002
3.885908e+003, 6.375182e+002
3.887837e+003, 6.397215e+002
3.889765e+003, 6.418705e+002
3.891694e+003, 6.421093e+002
3.893622e+003, 6.402389e+002
3.895551e+003, 6.399659e+002
3.897479e+003, 6.404117e+002
3.899408e+003, 6.405287e+002
3.901336e+003, 6.404275e+002
3.903265e+003, 6.401659e+002
3.905193e+003, 6.392101e+002
3.907122e+003, 6.375581e+002
3.909050e+003, 6.339181e+002
3.910979e+003, 6.325087e+002
3.912907e+003, 6.373667e+002
3.914835e+003, 6.388439e+002
3.916764e+003, 6.361298e+002
3.918692e+003, 6.352513e+002
3.920621e+003, 6.349672e+002
3.922549e+003, 6.336481e+002
3.924478e+003, 6.332104e+002
3.926406e+003, 6.340754e+002
3.928335e+003, 6.350062e+002
3.930263e+003, 6.365544e+002
3.932192e+003, 6.418248e+002
3.934120e+003, 6.443044e+002
3.936049e+003, 6.393957e+002
3.937977e+003, 6.362568e+002
3.939906e+003, 6.350345e+002
3.941834e+003, 6.348445e+002
3.943762e+003, 6.351865e+002
3.945691e+003, 6.359157e+002
3.947619e+003, 6.364498e+002
3.949548e+003, 6.367497e+002
3.951476e+003, 6.375596e+002
3.953405e+003, 6.374115e+002
3.955333e+003, 6.327007e+002
3.957262e+003, 6.312343e+002
3.959190e+003, 6.358612e+002
3.961119e+003, 6.366836e+002
3.963047e+003, 6.356060e+002
3.964976e+003, 6.359501e+002
3.966904e+003, 6.358262e+002
3.968833e+003, 6.344621e+002
3.970761e+003, 6.340665e+002
3.972689e+003, 6.343279e+002
3.974618e+003, 6.343405e+002
3.976546e+003, 6.334702e+002
3.978475e+003, 6.301092e+002
3.980403e+003, 6.318381e+002
3.982332e+003, 6.370458e+002
3.984260e+003, 6.310529e+002
3.986189e+003, 6.257441e+002
3.988117e+003, 6.335845e+002
3.990046e+003, 6.365518e+002
3.991974e+003, 6.332477e+002
3.993903e+003, 6.283398e+002
3.995831e+003, 6.249026e+002
3.997760e+003, 6.266389e+002
3.999688e+003, 6.294072e+002
4.001616e+003, 6.326472e+002
4.003545e+003, 6.303152e+002
4.005473e+003, 6.269814e+002
4.007402e+003, 6.301881e+002
4.009330e+003, 6.332546e+002
4.011259e+003, 6.344464e+002
4.013187e+003, 6.324174e+002
4.015116e+003, 6.290940e+002
4.017044e+003, 6.276865e+002
4.018973e+003, 6.274252e+002
4.020901e+003, 6.279149e+002
4.022830e+003, 6.305767e+002
4.024758e+003, 6.334988e+002
4.026687e+003, 6.300519e+002
4.028615e+003, 6.273002e+002
4.030543e+003, 6.292314e+002
4.032472e+003, 6.322281e+002
4.034400e+003, 6.344098e+002
4.036329e+003, 6.272538e+002
4.038257e+003, 6.231569e+002
4.040186e+003, 6.311459e+002
4.042114e+003, 6.342615e+002
4.044043e+003, 6.322208e+002
4.045971e+003, 6.275159e+002
4.047900e+003, 6.238435e+002
4.049828e+003, 6.231512e+002
4.051757e+003, 6.261199e+002
4.053685e+003, 6.315202e+002
4.055614e+003, 6.326426e+002
4.057542e+003, 6.314160e+002
4.059470e+003, 6.281734e+002
4.061399e+003, 6.252896e+002
4.063327e+003, 6.229978e+002
4.065256e+003, 6.205854e+002
4.067184e+003, 6.197264e+002
4.069113e+003, 6.224701e+002
4.071041e+003, 6.248317e+002
4.072970e+003, 6.265635e+002
4.074898e+003, 6.295007e+002
4.076827e+003, 6.309763e+002
4.078755e+003, 6.284282e+002
4.080684e+003, 6.265541e+002
4.082612e+003, 6.258611e+002
4.084541e+003, 6.241483e+002
4.086469e+003, 6.234368e+002
4.088397e+003, 6.261389e+002
4.090326e+003, 6.280986e+002
4.092254e+003, 6.286313e+002
4.094183e+003, 6.259661e+002
4.096111e+003, 6.228303e+002
4.098040e+003, 6.208807e+002
4.099968e+003, 6.207458e+002
4.101896e+003, 6.221444e+002
4.103825e+003, 6.230428e+002
4.105754e+003, 6.240628e+002
4.107682e+003, 6.265981e+002
4.109610e+003, 6.251260e+002
4.111539e+003, 6.208499e+002
4.113468e+003, 6.219239e+002
4.115396e+003, 6.236436e+002
4.117324e+003, 6.228110e+002
4.119253e+003, 6.233347e+002
4.121182e+003, 6.248906e+002
4.123110e+003, 6.237435e+002
4.125038e+003, 6.218054e+002
4.126967e+003, 6.193420e+002
4.128896e+003, 6.209969e+002
4.130824e+003, 6.251496e+002
4.132752e+003, 6.245427e+002
4.134681e+003, 6.239907e+002
4.136609e+003, 6.269003e+002
4.138538e+003, 6.279821e+002
4.140466e+003, 6.277375e+002
4.142395e+003, 6.284621e+002
4.144323e+003, 6.269313e+002
4.146251e+003, 6.207584e+002
4.148180e+003, 6.238116e+002
4.150108e+003, 6.299640e+002
4.152037e+003, 6.245779e+002
4.153965e+003, 6.225947e+002
4.155894e+003, 6.282345e+002
4.157822e+003, 6.254467e+002
4.159751e+003, 6.206472e+002
4.161679e+003, 6.258604e+002
4.163607e+003, 6.286824e+002
4.165536e+003, 6.266174e+002
4.167465e+003, 6.261677e+002
4.169393e+003, 6.257304e+002
4.171321e+003, 6.224064e+002
4.173250e+003, 6.225294e+002
4.175179e+003, 6.268195e+002
4.177107e+003, 6.277150e+002
4.179035e+003, 6.286011e+002
4.180964e+003, 6.338169e+002
4.182893e+003, 6.329684e+002
4.184821e+003, 6.270911e+002
4.186749e+003, 6.269880e+002
4.188678e+003, 6.283163e+002
4.190606e+003, 6.287318e+002
4.192535e+003, 6.289590e+002
4.194463e+003, 6.288234e+002
4.196392e+003, 6.282960e+002
4.198320e+003, 6.260911e+002
4.200249e+003, 6.209076e+002
4.202177e+003, 6.213771e+002
4.204105e+003, 6.235837e+002
4.206034e+003, 6.198808e+002
4.207962e+003, 6.183159e+002
4.209891e+003, 6.205236e+002
4.211819e+003, 6.207867e+002
4.213748e+003, 6.212064e+002
4.215676e+003, 6.246390e+002
4.217604e+003, 6.274454e+002
4.219533e+003, 6.285529e+002
4.221462e+003, 6.231379e+002
4.223390e+003, 6.197188e+002
4.225318e+003, 6.245009e+002
4.227247e+003, 6.244142e+002
4.229176e+003, 6.207375e+002
4.231104e+003, 6.197325e+002
4.233032e+003, 6.191503e+002
4.234961e+003, 6.179655e+002
4.236890e+003, 6.231707e+002
4.238818e+003, 6.288226e+002
4.240746e+003, 6.240767e+002
4.242675e+003, 6.199799e+002
##END=



