##NAMES=Dietrichite
##RRUFFID=R070381
##IDEAL CHEMISTRY=Zn^2+^Al_2_(S^6+^O_4_)_4_&#183;22H_2_O
##LOCALITY=Baia Sprie mine (Felsöbánya mine), Baia Sprie (Felsöbánya), Maramures County, Romania
##OWNER=RRUFF
##SOURCE=Michael Scott
##DESCRIPTION=Light brown fibrous in tufted aggregates
##STATUS=The identification of this mineral has been confirmed by X-ray diffraction.
##URL=rruff.info/R070381
135.9650, 639.4370
136.4471, 635.9028
136.9293, 628.4930
137.4114, 624.4280
137.8935, 628.4930
138.3756, 637.9598
138.8577, 646.3363
139.3398, 648.6544
139.8220, 644.8158
140.3041, 643.1002
140.7862, 643.9905
141.2683, 645.9760
141.7504, 647.3040
142.2325, 648.8037
142.7147, 653.2559
143.1968, 662.8002
143.6789, 677.7435
144.1610, 696.0897
144.6431, 720.3282
145.1252, 745.3580
145.6074, 768.4801
146.0895, 789.6520
146.5716, 810.1191
147.0537, 831.0929
147.5358, 852.4021
148.0179, 871.4001
148.5001, 887.4707
148.9822, 901.7415
149.4643, 915.3416
149.9464, 928.3401
150.4285, 939.5699
150.9106, 948.8966
151.3928, 955.6031
151.8749, 956.8970
152.3570, 949.7722
152.8391, 938.8578
153.3212, 928.3722
153.8033, 918.6744
154.2855, 907.6752
154.7676, 894.0654
155.2497, 877.6383
155.7318, 857.7615
156.2139, 829.1425
156.6960, 799.5475
157.1782, 777.4854
157.6603, 763.5861
158.1424, 755.7232
158.6245, 755.5577
159.1066, 760.6075
159.5887, 765.2797
160.0709, 768.9478
160.5530, 771.1705
161.0351, 770.6015
161.5172, 766.4630
161.9993, 762.3576
162.4814, 760.1041
162.9636, 759.6881
163.4457, 761.6949
163.9278, 768.5018
164.4099, 777.2697
164.8920, 783.1432
165.3741, 786.1727
165.8563, 786.0010
166.3384, 778.1614
166.8205, 767.3824
167.3026, 762.3105
167.7847, 771.0505
168.2668, 786.2424
168.7490, 790.5828
169.2311, 779.2092
169.7132, 767.9200
170.1953, 765.9755
170.6774, 769.4474
171.1595, 772.3207
171.6417, 770.8845
172.1238, 767.4910
172.6059, 769.4330
173.0880, 781.7674
173.5701, 788.9435
174.0522, 779.6744
174.5344, 762.3480
175.0165, 749.2213
175.4986, 747.3369
175.9807, 752.7574
176.4628, 753.9666
176.9449, 747.0039
177.4271, 743.3084
177.9092, 750.6609
178.3913, 762.6296
178.8734, 770.5201
179.3555, 769.8861
179.8376, 762.7056
180.3197, 753.8906
180.8019, 739.7565
181.2840, 730.9871
181.7661, 733.5790
182.2482, 741.6760
182.7303, 748.3316
183.2124, 750.3292
183.6946, 748.5311
184.1767, 744.1733
184.6588, 731.4911
185.1409, 727.0680
185.6230, 743.7746
186.1051, 766.7457
186.5873, 777.8472
187.0694, 767.3668
187.5515, 743.8624
188.0336, 729.9843
188.5157, 731.1946
188.9978, 733.4631
189.4800, 733.1559
189.9621, 732.3295
190.4442, 733.7214
190.9263, 738.7703
191.4084, 745.1757
191.8905, 746.8158
192.3727, 739.3229
192.8548, 734.8665
193.3369, 738.3957
193.8190, 744.0685
194.3011, 745.2281
194.7832, 739.1374
195.2654, 730.4692
195.7475, 730.5406
196.2296, 748.5123
196.7117, 757.7219
197.1938, 747.8936
197.6759, 733.0986
198.1581, 726.5623
198.6402, 732.5620
199.1223, 743.8810
199.6044, 746.2435
200.0865, 732.0271
200.5686, 724.1485
201.0508, 726.1799
201.5329, 733.0224
202.0150, 742.9758
202.4971, 754.9497
202.9792, 765.1969
203.4613, 766.3878
203.9435, 751.4272
204.4256, 743.5138
204.9077, 747.6721
205.3898, 755.2708
205.8719, 761.6143
206.3540, 765.3009
206.8362, 766.4979
207.3183, 764.9490
207.8004, 759.0764
208.2825, 754.4912
208.7646, 749.9286
209.2467, 747.4172
209.7289, 750.1945
210.2110, 757.4875
210.6931, 764.1213
211.1752, 763.3615
211.6573, 752.4622
212.1395, 744.2416
212.6216, 737.1248
213.1037, 733.7615
213.5858, 738.2473
214.0679, 748.8372
214.5500, 759.0144
215.0322, 762.0412
215.5143, 756.7498
215.9964, 751.8852
216.4785, 748.1589
216.9606, 744.1730
217.4427, 738.4163
217.9249, 731.7461
218.4070, 726.6304
218.8891, 725.6689
219.3712, 729.0616
219.8533, 729.3099
220.3354, 721.7313
220.8176, 715.4346
221.2997, 713.8525
221.7818, 715.4667
222.2639, 716.9031
222.7460, 715.7319
223.2281, 709.9541
223.7103, 710.9304
224.1924, 710.7102
224.6745, 709.3574
225.1566, 703.4796
225.6387, 703.4448
226.1208, 701.0685
226.6030, 698.5957
227.0851, 699.3833
227.5672, 694.1637
228.0493, 694.8996
228.5314, 693.2582
229.0135, 692.7048
229.4957, 689.7950
229.9778, 687.6133
230.4599, 687.7883
230.9420, 686.6584
231.4241, 678.0947
231.9062, 674.7217
232.3884, 671.5749
232.8705, 668.3287
233.3526, 665.1449
233.8347, 661.8825
234.3168, 658.5528
234.7989, 655.7606
235.2811, 654.7204
235.7632, 656.2515
236.2453, 657.6349
236.7274, 658.5682
237.2095, 659.3547
237.6916, 660.4955
238.1738, 661.9543
238.6559, 662.8951
239.1380, 662.3223
239.6201, 660.1257
240.1022, 656.7375
240.5843, 649.9214
241.0665, 643.7599
241.5486, 640.6090
242.0307, 640.2770
242.5128, 640.7134
242.9949, 639.4434
243.4770, 636.0828
243.9592, 635.8201
244.4413, 645.7894
244.9234, 651.9789
245.4055, 645.8947
245.8876, 631.2944
246.3697, 618.5019
246.8519, 616.2034
247.3340, 622.7544
247.8161, 622.8745
248.2982, 609.1373
248.7803, 598.9041
249.2624, 600.7087
249.7446, 609.2227
250.2267, 615.7429
250.7088, 615.4129
251.1909, 610.3253
251.6730, 606.2217
252.1551, 602.7458
252.6373, 601.1109
253.1194, 604.0062
253.6015, 607.7960
254.0836, 608.3060
254.5657, 603.7369
255.0478, 596.5149
255.5300, 589.5352
256.0121, 581.9249
256.4942, 578.0315
256.9763, 583.7722
257.4584, 591.0837
257.9406, 594.4520
258.4227, 592.7020
258.9048, 587.5453
259.3869, 578.0082
259.8690, 563.5873
260.3511, 556.9359
260.8333, 567.7145
261.3154, 580.7516
261.7975, 585.0641
262.2796, 580.5052
262.7617, 573.5920
263.2438, 567.6182
263.7260, 562.7793
264.2081, 560.4794
264.6902, 561.7854
265.1723, 564.3537
265.6544, 567.0648
266.1365, 569.6785
266.6187, 571.2593
267.1008, 570.2849
267.5829, 568.1749
268.0650, 568.4495
268.5471, 572.0865
269.0292, 575.1736
269.5114, 575.0524
269.9935, 572.5233
270.4756, 568.3389
270.9577, 560.5621
271.4398, 552.9526
271.9219, 550.2891
272.4041, 552.6976
272.8862, 555.7441
273.3683, 557.1230
273.8504, 557.8760
274.3325, 559.8930
274.8146, 563.3735
275.2968, 567.9361
275.7789, 574.6649
276.2610, 582.6571
276.7431, 588.0010
277.2252, 588.6855
277.7073, 586.8956
278.1895, 586.7101
278.6716, 588.9094
279.1537, 589.0507
279.6358, 583.4378
280.1179, 575.1882
280.6000, 569.5475
281.0822, 567.6752
281.5643, 568.3475
282.0464, 570.9122
282.5285, 575.6010
283.0106, 579.0365
283.4927, 578.9576
283.9749, 578.6576
284.4570, 582.2028
284.9391, 589.5210
285.4212, 595.8309
285.9033, 596.9777
286.3854, 592.9549
286.8676, 589.9467
287.3497, 586.9994
287.8318, 585.8566
288.3139, 587.3474
288.7960, 591.3264
289.2781, 598.0100
289.7603, 608.1106
290.2424, 620.0302
290.7245, 626.6914
291.2066, 626.1937
291.6887, 623.2560
292.1708, 613.7341
292.6530, 603.8500
293.1351, 603.0935
293.6172, 614.5983
294.0993, 630.9407
294.5814, 638.8605
295.0635, 633.2289
295.5457, 628.2303
296.0278, 623.2010
296.5099, 619.2425
296.9920, 616.6782
297.4741, 615.8127
297.9562, 617.6766
298.4384, 624.2187
298.9205, 636.9647
299.4026, 643.6393
299.8847, 637.6165
300.3668, 632.3301
300.8489, 632.8357
301.3311, 637.7130
301.8131, 643.4734
302.2953, 648.1740
302.7774, 651.5324
303.2595, 651.5921
303.7416, 643.0972
304.2237, 639.2946
304.7058, 647.4951
305.1880, 659.2557
305.6701, 664.9289
306.1522, 660.8126
306.6343, 652.2659
307.1164, 647.9891
307.5985, 649.0193
308.0807, 650.5297
308.5628, 651.3297
309.0449, 652.6500
309.5270, 655.6664
310.0091, 660.3304
310.4912, 664.9787
310.9734, 668.4604
311.4555, 670.7783
311.9376, 671.6331
312.4197, 669.8792
312.9018, 668.2628
313.3839, 668.8008
313.8661, 670.8169
314.3482, 672.6064
314.8303, 674.6058
315.3124, 675.3857
315.7945, 670.9605
316.2766, 660.0894
316.7588, 651.3790
317.2409, 651.1617
317.7230, 655.6456
318.2051, 659.0987
318.6872, 662.5025
319.1693, 661.8680
319.6515, 649.4886
320.1336, 628.9549
320.6157, 617.0589
321.0978, 621.6252
321.5799, 634.0106
322.0620, 640.9534
322.5442, 642.1951
323.0263, 641.8666
323.5084, 640.7692
323.9905, 638.9022
324.4726, 635.9769
324.9547, 631.9413
325.4369, 627.7610
325.9190, 624.1884
326.4011, 621.2786
326.8832, 619.5251
327.3653, 620.4745
327.8474, 621.1135
328.3296, 619.3232
328.8117, 615.7220
329.2938, 612.1832
329.7759, 609.6669
330.2580, 608.2615
330.7401, 608.4643
331.2223, 613.2922
331.7044, 615.9848
332.1865, 613.9297
332.6686, 610.2773
333.1507, 608.9943
333.6328, 611.0997
334.1150, 613.6663
334.5971, 611.3787
335.0792, 599.3366
335.5613, 596.1144
336.0434, 612.0258
336.5255, 626.5931
337.0077, 627.9419
337.4898, 617.9930
337.9719, 605.8806
338.4540, 598.0264
338.9361, 594.3787
339.4182, 595.0516
339.9004, 604.8789
340.3825, 611.8063
340.8646, 610.1241
341.3467, 604.6772
341.8288, 601.9981
342.3109, 604.9466
342.7931, 609.4572
343.2752, 608.4591
343.7573, 600.7661
344.2394, 596.1375
344.7215, 599.6099
345.2036, 604.8840
345.6858, 606.7712
346.1679, 605.0789
346.6500, 603.1797
347.1321, 604.1828
347.6142, 606.5941
348.0963, 605.8610
348.5785, 600.7855
349.0606, 594.8638
349.5427, 589.7614
350.0248, 585.8750
350.5069, 584.8513
350.9890, 590.2325
351.4712, 596.0071
351.9533, 596.6602
352.4354, 593.0472
352.9175, 589.7490
353.3996, 588.9614
353.8817, 589.7673
354.3639, 589.8079
354.8460, 588.9099
355.3281, 587.8273
355.8102, 585.9651
356.2923, 584.3470
356.7744, 585.1145
357.2566, 588.4766
357.7387, 591.0685
358.2208, 588.6743
358.7029, 579.7618
359.1850, 574.4587
359.6671, 575.3575
360.1493, 576.7277
360.6314, 575.9903
361.1135, 573.7091
361.5956, 571.4836
362.0777, 570.2218
362.5598, 569.7946
363.0420, 569.7817
363.5241, 570.7435
364.0062, 571.2012
364.4883, 571.6196
364.9704, 571.1470
365.4525, 567.8168
365.9347, 561.7312
366.4168, 556.8186
366.8989, 558.3483
367.3810, 566.7955
367.8631, 574.0559
368.3452, 580.1667
368.8274, 584.5150
369.3095, 585.9401
369.7916, 585.5400
370.2737, 586.2068
370.7558, 591.6803
371.2379, 597.0432
371.7201, 591.2339
372.2022, 572.6216
372.6843, 558.8521
373.1664, 560.1193
373.6485, 569.0836
374.1306, 574.2170
374.6128, 574.4054
375.0949, 573.5845
375.5770, 572.7640
376.0591, 572.5320
376.5412, 575.2836
377.0233, 582.0667
377.5055, 587.3264
377.9876, 584.1505
378.4697, 571.3897
378.9518, 563.6470
379.4339, 564.1479
379.9160, 566.9772
380.3982, 568.9861
380.8803, 570.4431
381.3624, 573.5244
381.8445, 579.9073
382.3266, 586.9772
382.8087, 586.6711
383.2909, 568.1421
383.7730, 556.3708
384.2551, 555.2258
384.7372, 558.7690
385.2193, 563.0177
385.7014, 566.8772
386.1836, 570.4920
386.6657, 574.1140
387.1478, 577.7755
387.6299, 580.5942
388.1120, 583.1224
388.5941, 584.0106
389.0763, 581.1553
389.5584, 576.8297
390.0405, 574.7088
390.5226, 576.6347
391.0047, 580.5491
391.4868, 583.1978
391.9690, 584.3980
392.4511, 586.2399
392.9332, 591.8146
393.4153, 595.7293
393.8974, 590.8908
394.3795, 577.4230
394.8617, 567.6656
395.3438, 569.4602
395.8259, 578.1786
396.3080, 586.9849
396.7901, 595.3629
397.2722, 602.5766
397.7544, 608.0627
398.2365, 611.8347
398.7186, 614.7217
399.2007, 617.0287
399.6828, 618.1249
400.1649, 616.7834
400.6471, 614.2922
401.1292, 612.3396
401.6113, 611.4698
402.0934, 612.4664
402.5755, 616.7542
403.0576, 625.8533
403.5398, 633.6499
404.0219, 640.2643
404.5040, 645.7432
404.9861, 649.3359
405.4682, 651.8178
405.9503, 654.9714
406.4325, 660.0599
406.9146, 666.3480
407.3967, 670.6035
407.8788, 669.8300
408.3609, 673.3317
408.8430, 689.0847
409.3252, 705.4341
409.8073, 711.1180
410.2894, 705.1299
410.7715, 699.3013
411.2536, 704.4244
411.7357, 718.6723
412.2179, 732.7249
412.7000, 745.8489
413.1821, 759.0089
413.6642, 775.7357
414.1463, 792.7761
414.6284, 802.2100
415.1106, 797.8637
415.5927, 791.3685
416.0748, 790.0186
416.5569, 793.3105
417.0390, 800.3488
417.5211, 811.3268
418.0033, 824.1465
418.4854, 836.2902
418.9675, 848.7452
419.4496, 856.3352
419.9317, 853.6595
420.4138, 850.2667
420.8960, 853.7137
421.3781, 862.4642
421.8602, 869.9733
422.3423, 871.9369
422.8244, 869.6032
423.3065, 868.5268
423.7887, 871.3908
424.2708, 871.1688
424.7529, 864.3823
425.2350, 856.3680
425.7171, 851.5837
426.1992, 850.5581
426.6814, 850.6987
427.1635, 850.8297
427.6456, 850.6175
428.1277, 845.3252
428.6098, 831.9273
429.0919, 819.2733
429.5741, 811.7710
430.0562, 807.8626
430.5383, 805.9998
431.0204, 806.9919
431.5025, 807.4103
431.9846, 802.5465
432.4668, 794.4274
432.9489, 791.2030
433.4310, 796.0292
433.9131, 802.6043
434.3952, 803.4602
434.8773, 797.9932
435.3595, 792.3317
435.8416, 785.6139
436.3237, 779.8496
436.8058, 776.1618
437.2879, 774.4294
437.7701, 774.4582
438.2522, 776.2805
438.7343, 778.9503
439.2164, 779.9565
439.6985, 777.6688
440.1806, 776.6226
440.6628, 779.1964
441.1449, 781.0194
441.6270, 776.8937
442.1091, 768.7285
442.5912, 764.4698
443.0733, 771.9871
443.5555, 787.3511
444.0376, 794.5203
444.5197, 790.3964
445.0018, 786.7690
445.4839, 789.8624
445.9660, 794.7553
446.4482, 795.5079
446.9303, 790.5209
447.4124, 788.3958
447.8945, 797.7125
448.3766, 812.9883
448.8587, 821.7311
449.3409, 821.8922
449.8230, 822.0271
450.3051, 830.2513
450.7872, 845.0380
451.2693, 851.4467
451.7514, 843.7225
452.2336, 835.0331
452.7157, 825.4863
453.1978, 819.0753
453.6799, 823.6283
454.1620, 840.6407
454.6441, 860.6371
455.1263, 870.5148
455.6084, 867.2946
456.0905, 870.7925
456.5726, 891.2171
457.0547, 907.9954
457.5368, 914.3704
458.0190, 913.0586
458.5011, 907.5693
458.9832, 898.3685
459.4653, 890.4084
459.9474, 892.6566
460.4295, 905.3032
460.9117, 914.0811
461.3938, 913.5243
461.8759, 912.1346
462.3580, 919.8002
462.8401, 934.3099
463.3222, 943.6332
463.8044, 940.1203
464.2865, 933.5467
464.7686, 934.7911
465.2507, 941.1683
465.7328, 939.8544
466.2149, 923.7980
466.6971, 902.4891
467.1792, 894.9343
467.6613, 910.2634
468.1434, 920.7112
468.6255, 926.2690
469.1076, 927.1139
469.5898, 921.0211
470.0719, 910.1115
470.5540, 899.1453
471.0361, 890.7079
471.5182, 885.2265
472.0003, 885.3306
472.4825, 895.3989
472.9646, 899.0623
473.4467, 886.6259
473.9288, 870.9871
474.4109, 859.7765
474.8930, 853.4000
475.3752, 848.7288
475.8573, 847.2831
476.3394, 845.1146
476.8215, 831.7789
477.3036, 806.9648
477.7857, 789.5795
478.2679, 791.8772
478.7500, 805.2847
479.2321, 808.8175
479.7142, 799.7104
480.1963, 789.6146
480.6784, 779.9417
481.1606, 770.7516
481.6427, 761.8713
482.1248, 753.4341
482.6069, 746.1368
483.0890, 740.5588
483.5711, 736.4185
484.0533, 732.0577
484.5354, 727.5572
485.0175, 722.6554
485.4996, 719.2150
485.9817, 714.1195
486.4638, 702.6487
486.9460, 685.4791
487.4281, 670.9667
487.9102, 668.5699
488.3923, 673.7021
488.8744, 671.5377
489.3565, 660.7036
489.8387, 649.7917
490.3208, 642.2200
490.8029, 637.9014
491.2850, 636.5959
491.7671, 639.8349
492.2492, 641.6174
492.7314, 639.2026
493.2135, 634.6757
493.6956, 629.8614
494.1777, 625.2072
494.6598, 621.3707
495.1419, 619.1602
495.6241, 618.0021
496.1062, 613.9483
496.5883, 602.4853
497.0704, 594.5620
497.5525, 595.4585
498.0346, 597.2346
498.5168, 591.3346
498.9989, 578.1223
499.4810, 567.0477
499.9631, 567.5060
500.4452, 576.2678
500.9273, 580.4865
501.4095, 578.7165
501.8916, 578.8147
502.3737, 587.4184
502.8558, 597.8862
503.3379, 599.4192
503.8200, 589.8920
504.3022, 579.6119
504.7843, 569.7809
505.2664, 562.7473
505.7485, 563.1458
506.2306, 570.2057
506.7127, 577.1942
507.1949, 579.6384
507.6770, 578.4357
508.1591, 577.5074
508.6412, 577.8220
509.1233, 576.9266
509.6054, 573.2002
510.0876, 569.4245
510.5697, 568.1103
511.0518, 568.9432
511.5339, 569.4850
512.0161, 567.9612
512.4982, 564.9098
512.9803, 560.4827
513.4624, 553.6418
513.9445, 552.6003
514.4266, 565.5065
514.9088, 581.0320
515.3909, 583.5253
515.8730, 571.9882
516.3551, 561.2778
516.8372, 555.2634
517.3193, 552.4715
517.8015, 552.5793
518.2836, 554.8412
518.7657, 556.8397
519.2478, 557.2045
519.7299, 556.9246
520.2120, 558.5092
520.6942, 563.9473
521.1763, 567.4330
521.6584, 569.9018
522.1405, 569.8286
522.6226, 562.6628
523.1047, 552.2968
523.5869, 548.8616
524.0690, 559.6896
524.5511, 575.5148
525.0332, 580.2454
525.5153, 573.9601
525.9974, 569.2816
526.4796, 569.2582
526.9617, 571.6332
527.4438, 575.1663
527.9259, 579.5986
528.4080, 581.8532
528.8901, 580.1161
529.3723, 577.4516
529.8544, 574.9201
530.3365, 572.9108
530.8186, 572.7260
531.3007, 574.7075
531.7828, 576.2894
532.2650, 573.3630
532.7471, 564.6157
533.2292, 559.4935
533.7113, 560.3648
534.1934, 562.3225
534.6755, 566.0809
535.1577, 569.1768
535.6398, 567.7171
536.1219, 560.1982
536.6040, 551.7365
537.0861, 546.0748
537.5682, 543.2661
538.0504, 545.0944
538.5325, 552.6560
539.0146, 557.7766
539.4967, 553.2829
539.9788, 541.6042
540.4609, 535.0671
540.9431, 537.4805
541.4252, 539.1155
541.9073, 536.1254
542.3894, 532.7002
542.8715, 534.7790
543.3536, 541.4492
543.8358, 544.8967
544.3179, 537.9724
544.8000, 523.7171
545.2821, 515.8825
545.7642, 516.8467
546.2463, 517.7433
546.7285, 516.6209
547.2106, 514.3987
547.6927, 510.6177
548.1748, 505.7004
548.6569, 503.4461
549.1390, 506.9126
549.6211, 512.9072
550.1032, 519.4572
550.5853, 525.7882
551.0674, 528.4437
551.5496, 525.7026
552.0317, 520.5385
552.5138, 514.1205
552.9959, 518.9279
553.4780, 521.6407
553.9601, 522.3715
554.4423, 515.1837
554.9244, 518.2210
555.4065, 517.1606
555.8886, 515.9321
556.3707, 520.4086
556.8528, 514.3726
557.3350, 518.7585
557.8171, 518.9843
558.2992, 521.1141
558.7813, 519.1208
559.2634, 518.4009
559.7455, 521.8055
560.2277, 522.9265
560.7098, 520.4586
561.1919, 522.7094
561.6740, 516.5292
562.1561, 517.7474
562.6382, 522.1576
563.1204, 519.8970
563.6025, 522.2232
564.0846, 522.8025
564.5667, 515.4427
565.0488, 521.8898
565.5309, 522.3658
566.0131, 516.7111
566.4952, 522.6850
566.9773, 517.8754
567.4594, 516.9149
567.9415, 518.8510
568.4236, 517.7675
568.9058, 521.4448
569.3879, 520.5356
569.8700, 519.2167
570.3521, 519.6860
570.8342, 515.0880
571.3163, 521.2426
571.7985, 528.6802
572.2806, 536.3076
572.7627, 538.2004
573.2448, 533.5150
573.7269, 531.1296
574.2090, 532.7490
574.6912, 534.4818
575.1733, 535.4309
575.6554, 535.9544
576.1375, 536.2089
576.6196, 536.3481
577.1017, 537.1948
577.5839, 539.4709
578.0660, 543.0507
578.5481, 549.0669
579.0302, 558.3844
579.5123, 561.6708
579.9944, 550.8059
580.4766, 534.8028
580.9587, 532.1126
581.4408, 545.1844
581.9229, 557.9387
582.4050, 572.2853
582.8871, 581.9050
583.3693, 578.5294
583.8514, 567.5546
584.3335, 561.4369
584.8156, 565.9509
585.2977, 574.1612
585.7798, 573.4477
586.2620, 562.4335
586.7441, 559.4301
587.2262, 569.8488
587.7083, 580.8493
588.1904, 584.5876
588.6725, 584.2516
589.1547, 584.8328
589.6368, 587.3069
590.1189, 589.8991
590.6010, 591.1019
591.0831, 592.3026
591.5652, 595.5718
592.0474, 600.8043
592.5295, 606.0519
593.0116, 609.8650
593.4937, 613.2050
593.9758, 619.5386
594.4579, 631.2448
594.9401, 640.2079
595.4222, 645.4508
595.9043, 647.9316
596.3864, 645.4110
596.8685, 640.4986
597.3506, 639.7420
597.8328, 647.2064
598.3149, 656.3313
598.7970, 659.8967
599.2791, 660.6249
599.7612, 666.4265
600.2433, 678.8668
600.7255, 692.4128
601.2076, 703.3713
601.6897, 711.2115
602.1718, 711.4069
602.6539, 689.6801
603.1360, 680.0676
603.6182, 696.2645
604.1003, 716.4761
604.5824, 723.6436
605.0645, 718.9280
605.5466, 714.3804
606.0287, 716.9880
606.5109, 723.4081
606.9930, 729.9738
607.4751, 736.3345
607.9572, 739.0660
608.4393, 736.6465
608.9214, 733.0493
609.4036, 732.1451
609.8857, 733.9548
610.3678, 735.9444
610.8499, 741.2927
611.3320, 742.8085
611.8141, 733.4091
612.2963, 722.7789
612.7784, 722.5788
613.2605, 732.5496
613.7426, 741.6373
614.2247, 740.4387
614.7068, 733.3228
615.1890, 730.5283
615.6711, 732.1116
616.1532, 737.5840
616.6353, 749.0569
617.1174, 760.2749
617.5995, 762.8823
618.0817, 756.6693
618.5638, 754.4219
619.0459, 764.5107
619.5280, 769.5376
620.0101, 757.6960
620.4922, 739.5273
620.9744, 728.6459
621.4565, 727.2878
621.9386, 727.8895
622.4207, 723.0667
622.9028, 715.0090
623.3849, 713.6397
623.8671, 720.6504
624.3492, 724.3839
624.8313, 720.5622
625.3134, 712.8513
625.7955, 704.3372
626.2776, 695.0789
626.7598, 688.5314
627.2419, 688.9734
627.7240, 688.1528
628.2061, 678.2584
628.6882, 665.9717
629.1703, 663.2845
629.6525, 671.7075
630.1346, 679.8560
630.6167, 675.5878
631.0988, 661.6092
631.5809, 653.3861
632.0630, 652.2332
632.5452, 651.7423
633.0273, 651.0695
633.5094, 649.1730
633.9915, 645.3315
634.4736, 639.5786
634.9557, 630.8869
635.4379, 610.8956
635.9200, 596.5589
636.4021, 604.5362
636.8842, 621.7864
637.3663, 627.2173
637.8484, 616.3058
638.3306, 599.6594
638.8127, 586.3132
639.2948, 576.7019
639.7769, 575.7599
640.2590, 587.6185
640.7411, 592.8878
641.2233, 579.3852
641.7054, 563.4661
642.1875, 566.0437
642.6696, 584.9901
643.1517, 592.8651
643.6339, 573.9503
644.1160, 553.3409
644.5981, 545.6890
645.0802, 544.8964
645.5623, 540.3823
646.0444, 530.5127
646.5266, 522.9955
647.0087, 525.9315
647.4908, 536.6610
647.9729, 542.6960
648.4550, 543.3149
648.9371, 541.8056
649.4193, 537.8359
649.9014, 533.2534
650.3835, 529.3943
650.8656, 526.3176
651.3477, 524.5510
651.8298, 526.9184
652.3120, 527.4986
652.7941, 521.4280
653.2762, 512.9237
653.7583, 508.0638
654.2404, 507.4299
654.7225, 506.7734
655.2047, 502.1411
655.6868, 495.5758
656.1689, 494.8263
656.6510, 501.2254
657.1331, 505.2536
657.6152, 504.8094
658.0974, 501.6332
658.5795, 495.6049
659.0616, 487.7080
659.5437, 472.3011
660.0258, 484.4856
660.5079, 491.0568
660.9901, 492.3159
661.4722, 472.3539
661.9543, 479.7949
662.4364, 476.2539
662.9185, 472.2627
663.4006, 483.5605
663.8828, 466.6849
664.3649, 477.7402
664.8470, 477.6461
665.3291, 482.6547
665.8112, 476.6137
666.2933, 473.9857
666.7755, 482.4106
667.2576, 484.7155
667.7397, 477.4026
668.2218, 482.7356
668.7039, 465.4742
669.1860, 468.0398
669.6682, 479.1595
670.1503, 472.4022
670.6324, 477.9373
671.1145, 478.7906
671.5966, 458.3680
672.0787, 474.9466
672.5609, 475.5232
673.0430, 459.6696
673.5251, 474.9803
674.0072, 461.3918
674.4893, 458.1186
674.9714, 462.6083
675.4536, 459.0052
675.9357, 468.1611
676.4178, 465.0256
676.8999, 460.7919
677.3820, 461.3506
677.8641, 448.3289
678.3463, 460.5017
678.8284, 455.4644
679.3105, 458.9821
679.7926, 464.4387
680.2747, 455.0481
680.7568, 461.3760
681.2390, 443.3279
681.7211, 445.6761
682.2032, 445.8281
682.6853, 459.0168
683.1674, 441.0877
683.6495, 442.8693
684.1317, 453.0431
684.6138, 451.4742
685.0959, 454.8150
685.5780, 443.6207
686.0601, 446.0810
686.5422, 444.7776
687.0244, 456.4799
687.5065, 457.9148
687.9886, 446.9672
688.4707, 436.0719
688.9528, 448.7103
689.4349, 439.0434
689.9171, 441.4098
690.3992, 431.3482
690.8813, 432.0174
691.3634, 432.5164
691.8455, 438.5162
692.3276, 427.8360
692.8098, 438.7923
693.2919, 437.2434
693.7740, 439.3781
694.2561, 441.1031
694.7382, 426.0469
695.2203, 424.7473
695.7025, 443.1316
696.1846, 431.4968
696.6667, 433.0014
697.1488, 445.1359
697.6309, 456.7694
698.1130, 460.5676
698.5952, 459.6244
699.0773, 456.8517
699.5594, 453.1218
700.0415, 449.2191
700.5236, 445.5447
701.0057, 442.3240
701.4879, 439.9522
701.9700, 438.4136
702.4521, 438.3586
702.9342, 441.0189
703.4163, 442.0011
703.8984, 437.0016
704.3806, 429.2313
704.8627, 426.7380
705.3448, 431.7704
705.8269, 435.2092
706.3090, 434.4224
706.7911, 433.1095
707.2733, 433.2956
707.7554, 434.5562
708.2375, 436.2421
708.7196, 438.0769
709.2017, 439.1751
709.6838, 437.0398
710.1660, 433.9322
710.6481, 437.9471
711.1302, 448.4640
711.6123, 452.1931
712.0944, 443.2016
712.5765, 430.8296
713.0587, 426.5999
713.5408, 430.8754
714.0229, 435.6126
714.5050, 441.2444
714.9871, 446.7191
715.4692, 454.4130
715.9514, 459.9228
716.4335, 458.4569
716.9156, 451.1300
717.3977, 443.8869
717.8798, 438.2052
718.3619, 434.7165
718.8441, 436.1001
719.3262, 439.1654
719.8083, 437.1378
720.2904, 430.1339
720.7725, 425.3951
721.2546, 428.2058
721.7368, 434.7027
722.2189, 433.9453
722.7010, 423.6754
723.1831, 422.9513
723.6652, 439.0026
724.1473, 453.2284
724.6295, 453.8438
725.1116, 446.0823
725.5937, 440.6020
726.0758, 437.5079
726.5579, 436.5794
727.0400, 441.7349
727.5222, 445.0245
728.0043, 437.9372
728.4864, 427.1799
728.9685, 424.6009
729.4506, 432.8629
729.9327, 443.2271
730.4149, 449.7049
730.8970, 451.8741
731.3791, 445.7662
731.8612, 432.7262
732.3433, 426.4323
732.8254, 431.5148
733.3076, 440.1565
733.7897, 444.9059
734.2718, 445.8479
734.7539, 444.1630
735.2360, 437.8727
735.7181, 432.2253
736.2003, 426.4740
736.6824, 422.7103
737.1645, 423.0693
737.6466, 426.4217
738.1287, 429.7049
738.6108, 432.1639
739.0930, 434.3204
739.5751, 436.8918
740.0572, 439.0411
740.5393, 440.0877
741.0214, 439.7966
741.5035, 437.2874
741.9857, 432.1407
742.4678, 426.6455
742.9499, 424.1561
743.4320, 424.4955
743.9141, 425.2041
744.3962, 426.3483
744.8784, 427.4317
745.3605, 428.4853
745.8426, 429.0608
746.3247, 428.4187
746.8068, 426.3923
747.2889, 424.6495
747.7711, 424.5334
748.2532, 422.9370
748.7353, 416.8338
749.2174, 410.6417
749.6995, 408.6791
750.1816, 410.5329
750.6638, 412.9011
751.1459, 414.9881
751.6280, 415.5946
752.1101, 411.8774
752.5922, 406.5031
753.0743, 403.9221
753.5565, 404.8761
754.0386, 410.4423
754.5207, 421.7860
755.0028, 434.1221
755.4849, 437.2425
755.9670, 429.9670
756.4492, 424.5454
756.9313, 422.0411
757.4134, 418.9848
757.8955, 411.1266
758.3776, 403.9001
758.8597, 408.0696
759.3419, 425.2703
759.8240, 434.8790
760.3061, 429.5483
760.7882, 423.1930
761.2703, 421.1768
761.7524, 420.6724
762.2346, 417.3750
762.7167, 411.8754
763.1988, 409.6740
763.6809, 415.6767
764.1630, 423.1185
764.6451, 423.3708
765.1273, 419.1227
765.6094, 416.4915
766.0915, 416.4772
766.5736, 419.5771
767.0557, 426.7176
767.5378, 434.2993
768.0200, 433.7264
768.5021, 423.3940
768.9842, 414.1093
769.4663, 404.2850
769.9484, 399.4915
770.4305, 406.0089
770.9127, 416.3113
771.3948, 418.4191
771.8769, 411.4417
772.3590, 408.5637
772.8411, 417.7938
773.3232, 423.5542
773.8054, 414.0796
774.2875, 401.9316
774.7696, 402.7232
775.2517, 415.2458
775.7338, 424.7344
776.2159, 421.1931
776.6981, 415.3936
777.1802, 423.1872
777.6623, 437.0312
778.1444, 437.5403
778.6265, 423.9934
779.1086, 410.3814
779.5908, 404.4787
780.0729, 403.6076
780.5550, 403.2244
781.0371, 403.3524
781.5192, 403.2039
782.0013, 401.0352
782.4835, 403.7630
782.9656, 418.8549
783.4477, 435.5229
783.9298, 438.4573
784.4119, 427.3416
784.8940, 419.1044
785.3762, 417.0230
785.8583, 414.5701
786.3404, 407.8283
786.8225, 401.7195
787.3046, 400.8306
787.7867, 404.5031
788.2689, 409.4017
788.7510, 414.6356
789.2331, 419.0882
789.7152, 422.5740
790.1973, 424.3245
790.6794, 421.6763
791.1616, 415.8443
791.6437, 412.9691
792.1258, 415.6821
792.6079, 418.3511
793.0900, 411.4891
793.5721, 396.8309
794.0543, 393.5183
794.5364, 403.9366
795.0185, 410.0556
795.5006, 404.8810
795.9827, 397.8051
796.4648, 398.6953
796.9470, 406.5064
797.4291, 409.9486
797.9112, 404.7075
798.3933, 401.2232
798.8754, 399.3794
799.3575, 399.9643
799.8397, 405.8405
800.3218, 413.7733
800.8039, 417.7917
801.2860, 416.2268
801.7681, 412.8677
802.2502, 407.8197
802.7324, 403.3827
803.2145, 400.3819
803.6966, 399.9443
804.1787, 406.0283
804.6608, 418.3411
805.1429, 428.4017
805.6251, 428.4438
806.1072, 422.3702
806.5893, 418.5110
807.0714, 416.3942
807.5535, 411.1294
808.0356, 401.4427
808.5178, 396.5783
808.9999, 403.8106
809.4820, 417.5784
809.9641, 423.6602
810.4462, 420.1839
810.9283, 415.6246
811.4105, 407.6813
811.8926, 402.4353
812.3747, 406.0672
812.8568, 411.0525
813.3389, 406.2857
813.8210, 391.8190
814.3032, 385.6497
814.7853, 397.8271
815.2674, 409.2544
815.7495, 413.3258
816.2316, 413.9096
816.7137, 414.5139
817.1959, 415.0093
817.6780, 412.7784
818.1601, 405.6419
818.6422, 400.7730
819.1243, 408.6654
819.6064, 420.2297
820.0886, 418.8460
820.5707, 407.7843
821.0528, 402.5281
821.5349, 408.3657
822.0170, 416.6332
822.4991, 417.6048
822.9813, 413.1487
823.4634, 411.8465
823.9455, 413.9641
824.4276, 413.0417
824.9097, 407.0555
825.3918, 400.5210
825.8740, 396.6515
826.3561, 394.9628
826.8382, 393.6209
827.3203, 390.3133
827.8024, 392.8628
828.2845, 410.3966
828.7667, 422.5140
829.2488, 417.3289
829.7309, 405.6220
830.2130, 400.5599
830.6951, 402.9082
831.1772, 403.6035
831.6594, 397.4457
832.1415, 392.9354
832.6236, 395.6647
833.1057, 400.4144
833.5878, 401.4459
834.0699, 399.4348
834.5521, 398.8951
835.0342, 402.1797
835.5163, 405.4551
835.9984, 404.4603
836.4805, 401.5324
836.9626, 400.5608
837.4448, 401.2567
837.9269, 401.4975
838.4090, 400.6131
838.8911, 400.1853
839.3732, 402.6883
839.8553, 406.2876
840.3375, 402.2979
840.8196, 390.4584
841.3017, 385.3448
841.7838, 390.5116
842.2659, 397.9526
842.7480, 402.8243
843.2302, 405.5458
843.7123, 407.4776
844.1944, 409.8094
844.6765, 406.9338
845.1586, 392.3567
845.6407, 382.2625
846.1229, 385.8842
846.6050, 393.8499
847.0871, 396.7519
847.5692, 394.9691
848.0513, 395.2863
848.5334, 401.1275
849.0156, 405.7913
849.4977, 408.4393
849.9798, 408.3694
850.4619, 401.1723
850.9440, 391.7388
851.4261, 392.2878
851.9083, 407.4471
852.3904, 418.6185
852.8725, 408.2401
853.3546, 392.3533
853.8367, 387.2649
854.3188, 390.0670
854.8010, 394.3058
855.2831, 398.2829
855.7652, 402.7983
856.2473, 408.9619
856.7294, 414.4055
857.2115, 413.8484
857.6937, 408.7596
858.1758, 405.5981
858.6579, 404.9709
859.1400, 405.8149
859.6221, 407.9872
860.1042, 408.8458
860.5864, 403.9745
861.0685, 393.6946
861.5506, 385.9018
862.0327, 380.1487
862.5148, 378.8028
862.9969, 383.1361
863.4791, 390.9174
863.9612, 403.2078
864.4433, 416.8562
864.9254, 419.6977
865.4075, 402.2657
865.8896, 393.8410
866.3718, 404.1230
866.8539, 411.4008
867.3360, 402.8883
867.8181, 390.7678
868.3002, 389.7618
868.7823, 400.0901
869.2645, 409.5936
869.7466, 418.7023
870.2287, 421.8490
870.7108, 410.7370
871.1929, 397.8304
871.6750, 395.3831
872.1572, 400.2288
872.6393, 402.6638
873.1214, 399.3663
873.6035, 395.9778
874.0856, 397.1425
874.5677, 399.8700
875.0499, 400.7255
875.5320, 400.5394
876.0141, 402.0314
876.4962, 405.0814
876.9783, 405.7833
877.4604, 401.1792
877.9426, 394.1869
878.4247, 387.2747
878.9068, 382.0268
879.3889, 387.0519
879.8710, 401.7234
880.3531, 412.3381
880.8353, 413.2258
881.3174, 409.4380
881.7995, 406.3730
882.2816, 404.1623
882.7637, 403.8245
883.2458, 405.5623
883.7280, 408.0717
884.2101, 411.9289
884.6922, 413.6897
885.1743, 410.1593
885.6564, 404.2292
886.1385, 402.8312
886.6207, 408.3331
887.1028, 407.4191
887.5849, 395.0325
888.0670, 384.3410
888.5491, 376.7479
889.0313, 374.0350
889.5134, 380.9798
889.9955, 394.6799
890.4776, 401.6588
890.9597, 396.1808
891.4418, 392.7027
891.9240, 394.1803
892.4061, 397.0229
892.8882, 400.4653
893.3703, 403.5084
893.8524, 405.2292
894.3345, 405.4391
894.8167, 403.7738
895.2988, 396.8963
895.7809, 391.9942
896.2630, 394.4911
896.7451, 399.6581
897.2272, 403.6329
897.7094, 405.7352
898.1915, 405.6212
898.6736, 403.1554
899.1557, 400.1123
899.6378, 397.0402
900.1199, 394.8754
900.6021, 395.4434
901.0842, 397.6193
901.5663, 399.2419
902.0484, 399.8432
902.5305, 399.4077
903.0126, 397.6952
903.4948, 396.3862
903.9769, 400.1674
904.4590, 406.0436
904.9411, 401.7392
905.4232, 388.7982
905.9053, 382.9037
906.3875, 389.1140
906.8696, 399.2227
907.3517, 406.0840
907.8338, 409.5275
908.3159, 407.6924
908.7980, 400.5210
909.2802, 396.9129
909.7623, 398.0410
910.2444, 401.2325
910.7265, 405.8461
911.2086, 409.8238
911.6907, 409.8770
912.1729, 406.0653
912.6550, 403.5189
913.1371, 402.4437
913.6192, 402.0440
914.1013, 402.6086
914.5834, 402.9561
915.0656, 401.6847
915.5477, 400.0593
916.0298, 401.2216
916.5119, 406.2681
916.9940, 410.0104
917.4761, 412.1641
917.9583, 413.4058
918.4404, 413.5573
918.9225, 413.1584
919.4046, 412.0476
919.8867, 410.6973
920.3688, 410.9732
920.8510, 414.5265
921.3331, 416.3311
921.8152, 416.6750
922.2973, 413.9619
922.7794, 402.2760
923.2615, 390.4741
923.7437, 391.1234
924.2258, 403.0905
924.7079, 411.0213
925.1900, 407.0790
925.6721, 403.7659
926.1542, 408.0327
926.6364, 413.1596
927.1185, 413.3196
927.6006, 410.6272
928.0827, 408.7246
928.5648, 408.6270
929.0469, 410.9453
929.5291, 419.2964
930.0112, 426.3897
930.4933, 424.8013
930.9754, 420.1718
931.4575, 418.8904
931.9396, 421.1578
932.4218, 426.0414
932.9039, 433.0976
933.3860, 437.8348
933.8681, 433.8666
934.3502, 427.4340
934.8323, 426.4721
935.3145, 429.2805
935.7966, 433.0435
936.2787, 436.8732
936.7608, 440.3085
937.2429, 443.2159
937.7250, 443.5900
938.2072, 434.3612
938.6893, 422.6362
939.1714, 427.4929
939.6535, 445.0340
940.1356, 460.4137
940.6177, 469.7516
941.0999, 471.2227
941.5820, 462.4894
942.0641, 450.8828
942.5462, 450.3492
943.0283, 458.8746
943.5104, 466.2298
943.9926, 472.0845
944.4747, 479.1846
944.9568, 488.4760
945.4389, 494.7331
945.9210, 492.6210
946.4031, 485.4521
946.8853, 482.0132
947.3674, 482.3023
947.8495, 486.1181
948.3316, 493.9150
948.8137, 498.9097
949.2958, 497.5932
949.7780, 497.1942
950.2601, 506.5480
950.7422, 523.2747
951.2243, 534.3013
951.7064, 538.5928
952.1885, 544.0101
952.6707, 551.7450
953.1528, 558.4948
953.6349, 562.1036
954.1170, 565.3634
954.5991, 572.6438
955.0812, 583.5798
955.5634, 590.3988
956.0455, 590.6170
956.5276, 594.6728
957.0097, 606.0696
957.4918, 616.8372
957.9739, 622.3898
958.4561, 625.0715
958.9382, 628.1402
959.4203, 631.3921
959.9024, 637.9630
960.3845, 646.2048
960.8666, 661.6758
961.3488, 693.5747
961.8309, 721.1619
962.3130, 726.5601
962.7951, 721.7191
963.2772, 731.0310
963.7593, 757.8762
964.2415, 780.7491
964.7236, 793.8489
965.2057, 811.4259
965.6878, 841.2919
966.1699, 871.1702
966.6520, 890.7726
967.1342, 905.3188
967.6163, 926.3420
968.0984, 954.5533
968.5805, 987.4316
969.0626, 1029.469
969.5447, 1070.177
970.0269, 1110.856
970.5090, 1145.738
970.9911, 1166.363
971.4732, 1178.348
971.9553, 1197.226
972.4374, 1228.197
972.9196, 1252.543
973.4017, 1262.103
973.8838, 1272.079
974.3659, 1293.065
974.8480, 1312.267
975.3301, 1321.045
975.8123, 1318.174
976.2944, 1299.798
976.7765, 1258.089
977.2586, 1225.280
977.7407, 1214.660
978.2228, 1207.070
978.7050, 1195.601
979.1871, 1182.124
979.6692, 1167.359
980.1513, 1152.590
980.6334, 1139.506
981.1155, 1123.690
981.5977, 1124.887
982.0798, 1161.769
982.5619, 1202.065
983.0440, 1223.670
983.5261, 1244.426
984.0082, 1283.843
984.4904, 1341.348
984.9725, 1406.317
985.4546, 1476.183
985.9367, 1552.962
986.4188, 1641.178
986.9009, 1732.770
987.3831, 1823.238
987.8652, 1914.495
988.3473, 2010.371
988.8294, 2108.778
989.3115, 2202.250
989.7936, 2292.752
990.2758, 2365.371
990.7579, 2402.057
991.2400, 2431.435
991.7221, 2477.830
992.2042, 2523.564
992.6863, 2541.716
993.1685, 2536.328
993.6506, 2539.601
994.1327, 2571.434
994.6148, 2585.473
995.0969, 2561.434
995.5790, 2512.194
996.0612, 2436.597
996.5433, 2347.603
997.0254, 2262.883
997.5075, 2180.079
997.9896, 2079.309
998.4717, 1947.974
998.9539, 1815.769
999.4360, 1693.577
999.9181, 1577.317
1000.400, 1464.715
1000.882, 1357.145
1001.364, 1254.111
1001.847, 1157.708
1002.329, 1077.161
1002.811, 1018.472
1003.293, 966.5894
1003.775, 915.2562
1004.257, 866.9800
1004.739, 826.4065
1005.221, 788.4842
1005.703, 743.3641
1006.186, 694.6224
1006.668, 659.2151
1007.150, 646.8121
1007.632, 635.4423
1008.114, 613.0580
1008.596, 590.6911
1009.078, 575.8256
1009.560, 564.8973
1010.043, 553.2901
1010.525, 541.0043
1011.007, 530.4860
1011.489, 522.5350
1011.971, 516.0007
1012.453, 511.4166
1012.935, 506.8599
1013.417, 501.0303
1013.899, 494.7120
1014.382, 488.2964
1014.864, 482.3217
1015.346, 478.4908
1015.828, 478.3461
1016.310, 475.7429
1016.792, 463.6771
1017.274, 454.0298
1017.756, 455.5573
1018.239, 460.9303
1018.721, 463.3569
1019.203, 462.6671
1019.685, 460.6038
1020.167, 457.1308
1020.649, 454.5518
1021.131, 455.3183
1021.613, 455.0134
1022.095, 450.0472
1022.578, 444.3935
1023.060, 442.5554
1023.542, 442.9552
1024.024, 440.5109
1024.506, 433.5891
1024.988, 428.5806
1025.470, 428.0668
1025.952, 428.5511
1026.435, 429.9084
1026.917, 430.7075
1027.399, 430.2046
1027.881, 428.1806
1028.363, 423.1168
1028.845, 413.8642
1029.327, 410.1229
1029.809, 419.7564
1030.292, 426.6307
1030.774, 424.5818
1031.256, 420.2698
1031.738, 417.1904
1032.220, 415.4694
1032.702, 415.0628
1033.184, 416.0226
1033.666, 417.4663
1034.148, 420.7028
1034.630, 422.3652
1035.113, 420.8495
1035.595, 418.7777
1036.077, 416.1394
1036.559, 414.5953
1037.041, 418.3129
1037.523, 427.6412
1038.005, 430.1965
1038.487, 419.2281
1038.970, 412.3019
1039.452, 412.6167
1039.934, 414.2319
1040.416, 414.2326
1040.898, 414.5493
1041.380, 418.4760
1041.862, 425.3830
1042.344, 428.0305
1042.826, 423.0231
1043.309, 421.0198
1043.791, 421.3472
1044.273, 427.3171
1044.755, 445.8839
1045.237, 462.3184
1045.719, 459.3498
1046.201, 442.1314
1046.683, 435.2383
1047.166, 443.2194
1047.648, 445.3448
1048.130, 438.7966
1048.612, 434.6780
1049.094, 437.5050
1049.576, 440.5414
1050.058, 437.6255
1050.540, 431.3528
1051.022, 428.6735
1051.505, 429.7990
1051.987, 432.6230
1052.469, 437.3450
1052.951, 442.4291
1053.433, 447.5183
1053.915, 453.5380
1054.397, 462.0392
1054.879, 468.9108
1055.361, 465.3314
1055.844, 452.5142
1056.326, 444.6784
1056.808, 441.7659
1057.290, 441.5887
1057.772, 443.7843
1058.254, 448.0937
1058.736, 454.6461
1059.218, 459.9286
1059.701, 457.9219
1060.183, 452.0186
1060.665, 454.3902
1061.147, 463.6189
1061.629, 473.7137
1062.111, 483.1172
1062.593, 485.5835
1063.075, 478.9453
1063.557, 469.9010
1064.040, 464.3510
1064.522, 461.6343
1065.004, 460.9581
1065.486, 462.0664
1065.968, 465.1394
1066.450, 469.3988
1066.932, 471.9005
1067.414, 472.2741
1067.896, 473.9991
1068.379, 479.8290
1068.861, 486.4850
1069.343, 491.4457
1069.825, 494.0424
1070.307, 492.5579
1070.789, 488.3047
1071.271, 482.5799
1071.753, 476.7135
1072.236, 474.2578
1072.718, 477.2355
1073.200, 480.7071
1073.682, 479.6044
1074.164, 479.0885
1074.646, 486.1610
1075.128, 494.3990
1075.610, 494.3192
1076.093, 488.5886
1076.575, 467.7305
1077.057, 485.8822
1077.539, 495.7621
1078.021, 497.8146
1078.503, 468.5959
1078.985, 479.7576
1079.467, 474.7366
1079.949, 469.0522
1080.432, 485.8955
1080.914, 461.2253
1081.396, 477.7129
1081.878, 477.7709
1082.360, 485.3485
1082.842, 476.6435
1083.324, 472.9678
1083.806, 485.5796
1084.288, 489.1729
1084.771, 478.5920
1085.253, 481.9512
1085.735, 497.2494
1086.217, 501.0623
1086.699, 487.9840
1087.181, 477.6761
1087.663, 470.4761
1088.145, 465.4008
1088.628, 461.9973
1089.110, 461.2797
1089.592, 465.1904
1090.074, 470.8277
1090.556, 471.3744
1091.038, 466.5224
1091.520, 466.1080
1092.002, 471.2893
1092.484, 473.5770
1092.967, 471.5969
1093.449, 465.3314
1093.931, 453.3507
1094.413, 445.2590
1094.895, 455.5513
1095.377, 476.9583
1095.859, 481.0578
1096.341, 470.3211
1096.823, 464.3376
1097.306, 464.0082
1097.788, 459.7304
1098.270, 448.8101
1098.752, 439.6193
1099.234, 439.0188
1099.716, 442.9655
1100.198, 444.8329
1100.680, 446.9626
1101.163, 456.8432
1101.645, 470.3734
1102.127, 476.6184
1102.609, 474.6980
1103.091, 469.9803
1103.573, 464.7367
1104.055, 461.6483
1104.537, 464.2485
1105.020, 468.6216
1105.502, 472.9342
1105.984, 475.5767
1106.466, 473.6864
1106.948, 468.8939
1107.430, 464.3969
1107.912, 461.0569
1108.394, 459.9469
1108.876, 464.2079
1109.359, 466.6704
1109.841, 465.1248
1110.323, 460.4722
1110.805, 447.6116
1111.287, 435.8692
1111.769, 438.8260
1112.251, 453.8821
1112.733, 464.2898
1113.215, 466.2178
1113.698, 469.3735
1114.180, 476.2019
1114.662, 480.8287
1115.144, 481.5059
1115.626, 480.3248
1116.108, 478.8986
1116.590, 476.2569
1117.072, 469.9551
1117.555, 459.9516
1118.037, 453.3221
1118.519, 449.8825
1119.001, 452.2352
1119.483, 462.1682
1119.965, 467.3517
1120.447, 461.8912
1120.929, 454.6321
1121.411, 454.6583
1121.894, 459.6745
1122.376, 465.6637
1122.858, 471.4210
1123.340, 469.0507
1123.822, 460.0018
1124.304, 452.8821
1124.786, 449.9299
1125.268, 451.5282
1125.750, 458.2275
1126.233, 463.8406
1126.715, 456.7005
1127.197, 448.3281
1127.679, 459.6750
1128.161, 477.7995
1128.643, 480.7225
1129.125, 471.7460
1129.607, 465.5808
1130.090, 465.9543
1130.572, 466.6202
1131.054, 462.4660
1131.536, 461.3971
1132.018, 471.5847
1132.500, 481.7595
1132.982, 483.2093
1133.464, 480.9868
1133.947, 481.2306
1134.429, 483.7877
1134.911, 485.9260
1135.393, 487.7666
1135.875, 487.6474
1136.357, 482.8886
1136.839, 479.9803
1137.321, 481.0542
1137.803, 482.7395
1138.286, 483.4472
1138.768, 483.2309
1139.250, 481.7451
1139.732, 479.3625
1140.214, 480.2687
1140.696, 485.3645
1141.178, 486.3142
1141.660, 482.1989
1142.142, 478.0099
1142.625, 475.2663
1143.107, 474.7061
1143.589, 477.4817
1144.071, 479.7766
1144.553, 473.0541
1145.035, 461.0882
1145.517, 455.1982
1145.999, 454.1323
1146.482, 455.1926
1146.964, 456.7196
1147.446, 453.5490
1147.928, 444.2722
1148.410, 437.6351
1148.892, 442.4687
1149.374, 448.4958
1149.856, 445.3785
1150.339, 440.1817
1150.821, 438.8573
1151.303, 440.9098
1151.785, 447.7070
1152.267, 456.5949
1152.749, 457.3183
1153.231, 444.9615
1153.713, 434.1718
1154.195, 427.8146
1154.677, 424.0257
1155.160, 424.4462
1155.642, 424.8274
1156.124, 421.5882
1156.606, 417.5482
1157.088, 416.8899
1157.570, 419.3637
1158.052, 422.6996
1158.534, 428.4625
1159.017, 427.0134
1159.499, 416.4913
1159.981, 406.8375
1160.463, 400.8768
1160.945, 391.4996
1161.427, 398.8692
1161.909, 402.8874
1162.391, 403.7344
1162.874, 391.9111
1163.356, 396.4487
1163.838, 394.4298
1164.320, 392.1421
1164.802, 398.9822
1165.284, 389.0023
1165.766, 395.6977
1166.248, 395.7366
1166.730, 398.8221
1167.213, 395.3100
1167.695, 393.8362
1168.177, 398.9613
1168.659, 400.4324
1169.141, 396.1616
1169.623, 399.4406
1170.105, 389.2303
1170.587, 390.8571
1171.069, 397.5912
1171.552, 393.6514
1172.034, 397.0511
1172.516, 397.6557
1172.998, 385.5579
1173.480, 395.5510
1173.962, 395.9904
1174.444, 386.6205
1174.926, 395.8566
1175.409, 387.8384
1175.891, 385.9793
1176.373, 388.7549
1176.855, 386.6990
1177.337, 392.2605
1177.819, 390.4837
1178.301, 388.0511
1178.783, 384.3866
1179.266, 375.2637
1179.748, 366.9749
1180.230, 367.4447
1180.712, 372.5517
1181.194, 377.3750
1181.676, 381.0344
1182.158, 382.1443
1182.640, 380.7215
1183.122, 375.1915
1183.604, 367.2477
1184.087, 363.9203
1184.569, 368.4238
1185.051, 372.5993
1185.533, 372.4283
1186.015, 371.5419
1186.497, 371.8327
1186.979, 371.5525
1187.461, 367.7956
1187.944, 363.8141
1188.426, 364.7729
1188.908, 369.7838
1189.390, 373.3968
1189.872, 375.6942
1190.354, 376.1422
1190.836, 374.3004
1191.318, 372.4818
1191.801, 371.1351
1192.283, 370.4991
1192.765, 370.8840
1193.247, 370.4229
1193.729, 365.4667
1194.211, 359.9680
1194.693, 366.1087
1195.175, 378.6182
1195.657, 384.6774
1196.140, 384.0650
1196.622, 376.2784
1197.104, 364.0759
1197.586, 358.3447
1198.068, 364.2342
1198.550, 373.2990
1199.032, 384.0747
1199.514, 391.5452
1199.996, 390.3287
1200.479, 387.3364
1200.961, 391.7807
1201.443, 395.6420
1201.925, 382.3280
1202.407, 355.1510
1202.889, 343.8303
1203.371, 355.0152
1203.853, 360.7519
1204.336, 358.3370
1204.818, 359.9809
1205.300, 369.5683
1205.782, 376.6781
1206.264, 375.5465
1206.746, 370.2881
1207.228, 364.5842
1207.710, 360.7253
1208.193, 367.7387
1208.675, 380.1870
1209.157, 380.3100
1209.639, 365.9188
1210.121, 373.0528
1210.603, 376.8352
1211.085, 377.4465
1211.567, 365.3880
1212.049, 369.6899
1212.531, 367.4352
1213.014, 364.9106
1213.496, 371.5151
1213.978, 361.2994
1214.460, 367.7592
1214.942, 367.5623
1215.424, 370.4121
1215.906, 366.6648
1216.388, 364.9552
1216.871, 369.8435
1217.353, 371.0789
1217.835, 366.5723
1218.317, 369.6156
1218.799, 359.1696
1219.281, 360.5606
1219.763, 367.0590
1220.245, 362.8839
1220.728, 366.0468
1221.210, 366.4158
1221.692, 354.0822
1222.174, 363.8395
1222.656, 364.0432
1223.138, 354.4376
1223.620, 363.4379
1224.102, 355.1845
1224.584, 357.1136
1225.067, 358.5996
1225.549, 361.9536
1226.031, 369.9934
1226.513, 375.2298
1226.995, 372.3071
1227.477, 369.7523
1227.959, 374.6853
1228.441, 377.5995
1228.923, 368.4818
1229.406, 355.5775
1229.888, 353.7527
1230.370, 361.7232
1230.852, 365.1507
1231.334, 363.7847
1231.816, 364.9543
1232.298, 368.8581
1232.780, 368.5281
1233.263, 362.7465
##END=



