##NAMES=Diopside
##RRUFFID=R060085
##IDEAL CHEMISTRY=CaMgSi_2_O_6_
##LOCALITY=Tyrol, Austria
##OWNER=RRUFF
##SOURCE=University of Arizona Mineral Museum
##DESCRIPTION=Brownish-green massive
##STATUS=The identification of this mineral has been confirmed by X-ray diffraction and chemical analysis
##URL=rruff.info/R060085
##MEASURED CHEMISTRY=(Ca_0.97_Na_0.03_)_Σ=1_(Mg_0.79_Fe^2+^_0.10_Fe^3+^_0.04_Al_0.04_Ti_0.02_Cr_0.01_)_Σ=1_(Si_1.90_Al_0.10_)_Σ=2_O_6_
9.112140e+001, 0.000000e+000
9.160352e+001, 3.349066e+004
9.208563e+001, 3.225234e+004
9.256775e+001, 3.210027e+004
9.304987e+001, 3.361426e+004
9.353198e+001, 3.545790e+004
9.401410e+001, 3.681707e+004
9.449622e+001, 3.770881e+004
9.497833e+001, 3.834531e+004
9.546045e+001, 3.890487e+004
9.594257e+001, 3.938786e+004
9.642468e+001, 3.977786e+004
9.690680e+001, 4.010298e+004
9.738892e+001, 4.038714e+004
9.787103e+001, 4.064647e+004
9.835315e+001, 4.083198e+004
9.883527e+001, 4.091353e+004
9.931738e+001, 4.097364e+004
9.979950e+001, 4.101861e+004
1.002816e+002, 4.107763e+004
1.007637e+002, 4.114248e+004
1.012458e+002, 4.120916e+004
1.017280e+002, 4.126963e+004
1.022101e+002, 4.131977e+004
1.026922e+002, 4.137292e+004
1.031743e+002, 4.145429e+004
1.036564e+002, 4.156024e+004
1.041385e+002, 4.166404e+004
1.046207e+002, 4.174714e+004
1.051028e+002, 4.181595e+004
1.055849e+002, 4.189702e+004
1.060670e+002, 4.199628e+004
1.065491e+002, 4.209636e+004
1.070313e+002, 4.217787e+004
1.075134e+002, 4.223628e+004
1.079955e+002, 4.229059e+004
1.084776e+002, 4.236021e+004
1.089597e+002, 4.244716e+004
1.094418e+002, 4.253391e+004
1.099240e+002, 4.261455e+004
1.104061e+002, 4.269173e+004
1.108882e+002, 4.276660e+004
1.113703e+002, 4.283952e+004
1.118524e+002, 4.291025e+004
1.123345e+002, 4.297788e+004
1.128167e+002, 4.303545e+004
1.132988e+002, 4.309979e+004
1.137809e+002, 4.318623e+004
1.142630e+002, 4.327731e+004
1.147451e+002, 4.334996e+004
1.152272e+002, 4.338783e+004
1.157094e+002, 4.339338e+004
1.161915e+002, 4.341038e+004
1.166736e+002, 4.345019e+004
1.171557e+002, 4.348765e+004
1.176378e+002, 4.350921e+004
1.181199e+002, 4.351870e+004
1.186021e+002, 4.353164e+004
1.190842e+002, 4.356220e+004
1.195663e+002, 4.361156e+004
1.200484e+002, 4.365190e+004
1.205305e+002, 4.367546e+004
1.210126e+002, 4.369425e+004
1.214948e+002, 4.371936e+004
1.219769e+002, 4.375248e+004
1.224590e+002, 4.378598e+004
1.229411e+002, 4.381025e+004
1.234232e+002, 4.382759e+004
1.239053e+002, 4.384523e+004
1.243875e+002, 4.386370e+004
1.248696e+002, 4.388405e+004
1.253517e+002, 4.391072e+004
1.258338e+002, 4.395138e+004
1.263159e+002, 4.398814e+004
1.267980e+002, 4.400448e+004
1.272802e+002, 4.400457e+004
1.277623e+002, 4.400745e+004
1.282444e+002, 4.403264e+004
1.287265e+002, 4.408319e+004
1.292086e+002, 4.412350e+004
1.296907e+002, 4.414381e+004
1.301729e+002, 4.415807e+004
1.306550e+002, 4.417209e+004
1.311371e+002, 4.418663e+004
1.316192e+002, 4.419880e+004
1.321013e+002, 4.420268e+004
1.325834e+002, 4.418696e+004
1.330656e+002, 4.418683e+004
1.335477e+002, 4.420844e+004
1.340298e+002, 4.423967e+004
1.345119e+002, 4.427463e+004
1.349940e+002, 4.431059e+004
1.354761e+002, 4.434456e+004
1.359583e+002, 4.436901e+004
1.364404e+002, 4.437626e+004
1.369225e+002, 4.438320e+004
1.374046e+002, 4.438549e+004
1.378867e+002, 4.438913e+004
1.383688e+002, 4.440548e+004
1.388510e+002, 4.444225e+004
1.393331e+002, 4.448988e+004
1.398152e+002, 4.451582e+004
1.402973e+002, 4.450635e+004
1.407794e+002, 4.449995e+004
1.412615e+002, 4.451760e+004
1.417437e+002, 4.455393e+004
1.422258e+002, 4.458535e+004
1.427079e+002, 4.459757e+004
1.431900e+002, 4.459694e+004
1.436721e+002, 4.459911e+004
1.441542e+002, 4.460514e+004
1.446364e+002, 4.461342e+004
1.451185e+002, 4.462446e+004
1.456006e+002, 4.463950e+004
1.460827e+002, 4.464951e+004
1.465648e+002, 4.464180e+004
1.470469e+002, 4.462911e+004
1.475291e+002, 4.462590e+004
1.480112e+002, 4.464111e+004
1.484933e+002, 4.466496e+004
1.489754e+002, 4.467356e+004
1.494575e+002, 4.465471e+004
1.499396e+002, 4.464204e+004
1.504218e+002, 4.464871e+004
1.509039e+002, 4.466651e+004
1.513860e+002, 4.468487e+004
1.518681e+002, 4.469779e+004
1.523502e+002, 4.470584e+004
1.528323e+002, 4.471363e+004
1.533145e+002, 4.472090e+004
1.537966e+002, 4.472779e+004
1.542787e+002, 4.473466e+004
1.547608e+002, 4.474093e+004
1.552429e+002, 4.474589e+004
1.557250e+002, 4.474931e+004
1.562072e+002, 4.475125e+004
1.566893e+002, 4.474657e+004
1.571714e+002, 4.472063e+004
1.576535e+002, 4.470202e+004
1.581356e+002, 4.470979e+004
1.586177e+002, 4.473921e+004
1.590999e+002, 4.476757e+004
1.595820e+002, 4.477348e+004
1.600641e+002, 4.475242e+004
1.605462e+002, 4.473347e+004
1.610283e+002, 4.470754e+004
1.615104e+002, 4.468965e+004
1.619926e+002, 4.469711e+004
1.624747e+002, 4.473175e+004
1.629568e+002, 4.477082e+004
1.634389e+002, 4.479057e+004
1.639210e+002, 4.479196e+004
1.644031e+002, 4.478851e+004
1.648853e+002, 4.478027e+004
1.653674e+002, 4.476923e+004
1.658495e+002, 4.475783e+004
1.663316e+002, 4.474584e+004
1.668137e+002, 4.473550e+004
1.672958e+002, 4.472796e+004
1.677780e+002, 4.472323e+004
1.682601e+002, 4.472303e+004
1.687422e+002, 4.473549e+004
1.692243e+002, 4.475514e+004
1.697064e+002, 4.475718e+004
1.701885e+002, 4.472434e+004
1.706707e+002, 4.469218e+004
1.711528e+002, 4.468419e+004
1.716349e+002, 4.469717e+004
1.721170e+002, 4.471605e+004
1.725991e+002, 4.473176e+004
1.730812e+002, 4.474445e+004
1.735634e+002, 4.475081e+004
1.740455e+002, 4.474350e+004
1.745276e+002, 4.473490e+004
1.750097e+002, 4.472768e+004
1.754918e+002, 4.472308e+004
1.759739e+002, 4.472319e+004
1.764561e+002, 4.473192e+004
1.769382e+002, 4.475338e+004
1.774203e+002, 4.476900e+004
1.779024e+002, 4.477805e+004
1.783845e+002, 4.478238e+004
1.788666e+002, 4.477816e+004
1.793488e+002, 4.476735e+004
1.798309e+002, 4.475900e+004
1.803130e+002, 4.476698e+004
1.807951e+002, 4.480440e+004
1.812772e+002, 4.482817e+004
1.817593e+002, 4.482909e+004
1.822415e+002, 4.482427e+004
1.827236e+002, 4.482930e+004
1.832057e+002, 4.484693e+004
1.836878e+002, 4.486451e+004
1.841699e+002, 4.486168e+004
1.846520e+002, 4.482104e+004
1.851342e+002, 4.479496e+004
1.856163e+002, 4.479177e+004
1.860984e+002, 4.480085e+004
1.865805e+002, 4.481404e+004
1.870626e+002, 4.482957e+004
1.875447e+002, 4.484264e+004
1.880269e+002, 4.484187e+004
1.885090e+002, 4.482242e+004
1.889911e+002, 4.481108e+004
1.894732e+002, 4.481523e+004
1.899553e+002, 4.483094e+004
1.904374e+002, 4.485258e+004
1.909196e+002, 4.488000e+004
1.914017e+002, 4.490957e+004
1.918838e+002, 4.493693e+004
1.923659e+002, 4.496201e+004
1.928480e+002, 4.498392e+004
1.933301e+002, 4.500420e+004
1.938123e+002, 4.502105e+004
1.942944e+002, 4.502718e+004
1.947765e+002, 4.501441e+004
1.952586e+002, 4.499711e+004
1.957407e+002, 4.499163e+004
1.962228e+002, 4.499813e+004
1.967050e+002, 4.500502e+004
1.971871e+002, 4.500477e+004
1.976692e+002, 4.499764e+004
1.981513e+002, 4.498705e+004
1.986334e+002, 4.497379e+004
1.991155e+002, 4.495705e+004
1.995977e+002, 4.493418e+004
2.000798e+002, 4.490576e+004
2.005619e+002, 4.487930e+004
2.010440e+002, 4.486308e+004
2.015261e+002, 4.485877e+004
2.020082e+002, 4.485445e+004
2.024904e+002, 4.484458e+004
2.029725e+002, 4.483780e+004
2.034546e+002, 4.484236e+004
2.039367e+002, 4.485755e+004
2.044188e+002, 4.487254e+004
2.049009e+002, 4.487039e+004
2.053831e+002, 4.484015e+004
2.058652e+002, 4.482695e+004
2.063473e+002, 4.484984e+004
2.068294e+002, 4.487532e+004
2.073115e+002, 4.488450e+004
2.077936e+002, 4.487419e+004
2.082758e+002, 4.485290e+004
2.087579e+002, 4.483090e+004
2.092400e+002, 4.480275e+004
2.097221e+002, 4.478694e+004
2.102042e+002, 4.479152e+004
2.106863e+002, 4.480041e+004
2.111685e+002, 4.480338e+004
2.116506e+002, 4.479813e+004
2.121327e+002, 4.478823e+004
2.126148e+002, 4.477838e+004
2.130969e+002, 4.476664e+004
2.135790e+002, 4.475977e+004
2.140612e+002, 4.476132e+004
2.145433e+002, 4.476507e+004
2.150254e+002, 4.476445e+004
2.155075e+002, 4.475834e+004
2.159896e+002, 4.475319e+004
2.164717e+002, 4.475903e+004
2.169539e+002, 4.478409e+004
2.174360e+002, 4.480017e+004
2.179181e+002, 4.479750e+004
2.184002e+002, 4.479028e+004
2.188823e+002, 4.479482e+004
2.193644e+002, 4.481514e+004
2.198466e+002, 4.483832e+004
2.203287e+002, 4.484507e+004
2.208108e+002, 4.483173e+004
2.212929e+002, 4.482400e+004
2.217750e+002, 4.482890e+004
2.222571e+002, 4.484001e+004
2.227393e+002, 4.484980e+004
2.232214e+002, 4.485679e+004
2.237035e+002, 4.486231e+004
2.241856e+002, 4.486587e+004
2.246677e+002, 4.486754e+004
2.251498e+002, 4.487564e+004
2.256320e+002, 4.490257e+004
2.261141e+002, 4.493486e+004
2.265962e+002, 4.494903e+004
2.270783e+002, 4.493865e+004
2.275604e+002, 4.491791e+004
2.280425e+002, 4.489471e+004
2.285247e+002, 4.487084e+004
2.290068e+002, 4.485669e+004
2.294889e+002, 4.486298e+004
2.299710e+002, 4.488132e+004
2.304531e+002, 4.489438e+004
2.309352e+002, 4.490215e+004
2.314174e+002, 4.490016e+004
2.318995e+002, 4.487754e+004
2.323816e+002, 4.484186e+004
2.328637e+002, 4.481440e+004
2.333458e+002, 4.481149e+004
2.338279e+002, 4.482523e+004
2.343101e+002, 4.482873e+004
2.347922e+002, 4.481446e+004
2.352743e+002, 4.480157e+004
2.357564e+002, 4.480207e+004
2.362385e+002, 4.481159e+004
2.367206e+002, 4.482181e+004
2.372028e+002, 4.483039e+004
2.376849e+002, 4.483609e+004
2.381670e+002, 4.483407e+004
2.386491e+002, 4.482563e+004
2.391312e+002, 4.480592e+004
2.396133e+002, 4.476421e+004
2.400955e+002, 4.471277e+004
2.405776e+002, 4.467104e+004
2.410597e+002, 4.465023e+004
2.415418e+002, 4.464845e+004
2.420239e+002, 4.465906e+004
2.425060e+002, 4.470090e+004
2.429882e+002, 4.472854e+004
2.434703e+002, 4.471986e+004
2.439524e+002, 4.469188e+004
2.444345e+002, 4.466913e+004
2.449166e+002, 4.466602e+004
2.453987e+002, 4.467852e+004
2.458809e+002, 4.468755e+004
2.463630e+002, 4.468623e+004
2.468451e+002, 4.469050e+004
2.473272e+002, 4.470754e+004
2.478093e+002, 4.473056e+004
2.482914e+002, 4.475078e+004
2.487736e+002, 4.476336e+004
2.492557e+002, 4.477011e+004
2.497378e+002, 4.477834e+004
2.502199e+002, 4.479050e+004
2.507020e+002, 4.480121e+004
2.511841e+002, 4.481170e+004
2.516663e+002, 4.481990e+004
2.521484e+002, 4.482352e+004
2.526305e+002, 4.482152e+004
2.531126e+002, 4.481443e+004
2.535947e+002, 4.480333e+004
2.540768e+002, 4.477467e+004
2.545590e+002, 4.475957e+004
2.550411e+002, 4.476914e+004
2.555232e+002, 4.478960e+004
2.560053e+002, 4.480508e+004
2.564874e+002, 4.480893e+004
2.569695e+002, 4.480718e+004
2.574517e+002, 4.481441e+004
2.579338e+002, 4.484707e+004
2.584159e+002, 4.486895e+004
2.588980e+002, 4.486923e+004
2.593801e+002, 4.486299e+004
2.598622e+002, 4.486724e+004
2.603444e+002, 4.488760e+004
2.608265e+002, 4.491534e+004
2.613086e+002, 4.493397e+004
2.617907e+002, 4.493318e+004
2.622728e+002, 4.493886e+004
2.627549e+002, 4.495634e+004
2.632371e+002, 4.497775e+004
2.637192e+002, 4.499761e+004
2.642013e+002, 4.501412e+004
2.646834e+002, 4.502362e+004
2.651655e+002, 4.501876e+004
2.656476e+002, 4.498759e+004
2.661298e+002, 4.497236e+004
2.666119e+002, 4.498264e+004
2.670940e+002, 4.500457e+004
2.675761e+002, 4.502634e+004
2.680582e+002, 4.504569e+004
2.685403e+002, 4.506609e+004
2.690225e+002, 4.509425e+004
2.695046e+002, 4.513520e+004
2.699867e+002, 4.515652e+004
2.704688e+002, 4.514100e+004
2.709509e+002, 4.511611e+004
2.714330e+002, 4.510659e+004
2.719152e+002, 4.511502e+004
2.723973e+002, 4.512581e+004
2.728794e+002, 4.512219e+004
2.733615e+002, 4.510303e+004
2.738436e+002, 4.509727e+004
2.743257e+002, 4.511015e+004
2.748079e+002, 4.513296e+004
2.752900e+002, 4.516186e+004
2.757721e+002, 4.519585e+004
2.762542e+002, 4.522896e+004
2.767363e+002, 4.525763e+004
2.772184e+002, 4.528086e+004
2.777006e+002, 4.529985e+004
2.781827e+002, 4.530939e+004
2.786648e+002, 4.531848e+004
2.791469e+002, 4.533559e+004
2.796290e+002, 4.535943e+004
2.801111e+002, 4.537863e+004
2.805933e+002, 4.538243e+004
2.810754e+002, 4.537800e+004
2.815575e+002, 4.538970e+004
2.820396e+002, 4.543268e+004
2.825217e+002, 4.547350e+004
2.830038e+002, 4.548997e+004
2.834860e+002, 4.548560e+004
2.839681e+002, 4.547796e+004
2.844502e+002, 4.547291e+004
2.849323e+002, 4.547133e+004
2.854144e+002, 4.547351e+004
2.858965e+002, 4.547842e+004
2.863787e+002, 4.548908e+004
2.868608e+002, 4.551221e+004
2.873429e+002, 4.554367e+004
2.878250e+002, 4.556813e+004
2.883071e+002, 4.557870e+004
2.887892e+002, 4.558244e+004
2.892714e+002, 4.558884e+004
2.897535e+002, 4.559743e+004
2.902356e+002, 4.560969e+004
2.907177e+002, 4.563060e+004
2.911998e+002, 4.565577e+004
2.916819e+002, 4.567378e+004
2.921641e+002, 4.568157e+004
2.926462e+002, 4.568228e+004
2.931283e+002, 4.567530e+004
2.936104e+002, 4.566183e+004
2.940925e+002, 4.565566e+004
2.945746e+002, 4.566596e+004
2.950568e+002, 4.568666e+004
2.955389e+002, 4.570698e+004
2.960210e+002, 4.572683e+004
2.965031e+002, 4.574286e+004
2.969852e+002, 4.575083e+004
2.974673e+002, 4.575267e+004
2.979495e+002, 4.575252e+004
2.984316e+002, 4.575071e+004
2.989137e+002, 4.574810e+004
2.993958e+002, 4.574663e+004
2.998779e+002, 4.574696e+004
3.003600e+002, 4.574530e+004
3.008422e+002, 4.573358e+004
3.013243e+002, 4.571893e+004
3.018064e+002, 4.571449e+004
3.022885e+002, 4.572530e+004
3.027706e+002, 4.574530e+004
3.032527e+002, 4.577170e+004
3.037349e+002, 4.580556e+004
3.042170e+002, 4.583188e+004
3.046991e+002, 4.583679e+004
3.051812e+002, 4.583321e+004
3.056633e+002, 4.583685e+004
3.061454e+002, 4.584745e+004
3.066276e+002, 4.587096e+004
3.071097e+002, 4.592471e+004
3.075918e+002, 4.600588e+004
3.080739e+002, 4.606375e+004
3.085560e+002, 4.606664e+004
3.090381e+002, 4.605104e+004
3.095203e+002, 4.605939e+004
3.100024e+002, 4.609446e+004
3.104845e+002, 4.613498e+004
3.109666e+002, 4.616416e+004
3.114487e+002, 4.618544e+004
3.119308e+002, 4.621713e+004
3.124130e+002, 4.626714e+004
3.128951e+002, 4.632151e+004
3.133772e+002, 4.636746e+004
3.138593e+002, 4.640582e+004
3.143414e+002, 4.644065e+004
3.148235e+002, 4.646634e+004
3.153057e+002, 4.649022e+004
3.157878e+002, 4.653795e+004
3.162699e+002, 4.662463e+004
3.167520e+002, 4.670300e+004
3.172341e+002, 4.672369e+004
3.177162e+002, 4.670975e+004
3.181984e+002, 4.671096e+004
3.186805e+002, 4.675130e+004
3.191626e+002, 4.681437e+004
3.196447e+002, 4.687651e+004
3.201268e+002, 4.693804e+004
3.206089e+002, 4.699819e+004
3.210911e+002, 4.705851e+004
3.215732e+002, 4.711713e+004
3.220553e+002, 4.717110e+004
3.225374e+002, 4.722112e+004
3.230195e+002, 4.726488e+004
3.235016e+002, 4.730064e+004
3.239838e+002, 4.732870e+004
3.244659e+002, 4.734631e+004
3.249480e+002, 4.735187e+004
3.254301e+002, 4.734534e+004
3.259122e+002, 4.732454e+004
3.263943e+002, 4.728582e+004
3.268765e+002, 4.725025e+004
3.273586e+002, 4.724227e+004
3.278407e+002, 4.725444e+004
3.283228e+002, 4.724289e+004
3.288049e+002, 4.718674e+004
3.292870e+002, 4.711846e+004
3.297692e+002, 4.707500e+004
3.302513e+002, 4.705392e+004
3.307334e+002, 4.702671e+004
3.312155e+002, 4.697342e+004
3.316976e+002, 4.690480e+004
3.321797e+002, 4.684352e+004
3.326619e+002, 4.678950e+004
3.331440e+002, 4.674974e+004
3.336261e+002, 4.674134e+004
3.341082e+002, 4.675251e+004
3.345903e+002, 4.675576e+004
3.350724e+002, 4.673243e+004
3.355546e+002, 4.670208e+004
3.360367e+002, 4.669412e+004
3.365188e+002, 4.671118e+004
3.370009e+002, 4.672436e+004
3.374830e+002, 4.671571e+004
3.379651e+002, 4.669232e+004
3.384473e+002, 4.666711e+004
3.389294e+002, 4.663868e+004
3.394115e+002, 4.661339e+004
3.398936e+002, 4.659647e+004
3.403757e+002, 4.658745e+004
3.408578e+002, 4.658380e+004
3.413400e+002, 4.658659e+004
3.418221e+002, 4.659242e+004
3.423042e+002, 4.659633e+004
3.427863e+002, 4.659843e+004
3.432684e+002, 4.659837e+004
3.437505e+002, 4.659411e+004
3.442327e+002, 4.658755e+004
3.447148e+002, 4.658253e+004
3.451969e+002, 4.657895e+004
3.456790e+002, 4.657935e+004
3.461611e+002, 4.658857e+004
3.466432e+002, 4.660518e+004
3.471254e+002, 4.662299e+004
3.476075e+002, 4.664220e+004
3.480896e+002, 4.666083e+004
3.485717e+002, 4.667669e+004
3.490538e+002, 4.668973e+004
3.495359e+002, 4.669921e+004
3.500181e+002, 4.670471e+004
3.505002e+002, 4.670594e+004
3.509823e+002, 4.670321e+004
3.514644e+002, 4.668362e+004
3.519465e+002, 4.667122e+004
3.524286e+002, 4.669216e+004
3.529108e+002, 4.673845e+004
3.533929e+002, 4.677156e+004
3.538750e+002, 4.677080e+004
3.543571e+002, 4.674687e+004
3.548392e+002, 4.672410e+004
3.553214e+002, 4.669299e+004
3.558035e+002, 4.668218e+004
3.562856e+002, 4.671946e+004
3.567677e+002, 4.678086e+004
3.572498e+002, 4.682379e+004
3.577319e+002, 4.683575e+004
3.582141e+002, 4.682921e+004
3.586962e+002, 4.681754e+004
3.591783e+002, 4.679894e+004
3.596604e+002, 4.678700e+004
3.601425e+002, 4.678998e+004
3.606246e+002, 4.679629e+004
3.611068e+002, 4.679429e+004
3.615889e+002, 4.678331e+004
3.620710e+002, 4.677151e+004
3.625531e+002, 4.676543e+004
3.630352e+002, 4.676527e+004
3.635173e+002, 4.676648e+004
3.639995e+002, 4.677566e+004
3.644816e+002, 4.677962e+004
3.649637e+002, 4.676356e+004
3.654458e+002, 4.673658e+004
3.659279e+002, 4.672265e+004
3.664100e+002, 4.673520e+004
3.668922e+002, 4.676672e+004
3.673743e+002, 4.679330e+004
3.678564e+002, 4.680761e+004
3.683385e+002, 4.682729e+004
3.688206e+002, 4.686505e+004
3.693027e+002, 4.690464e+004
3.697849e+002, 4.692530e+004
3.702670e+002, 4.692153e+004
3.707491e+002, 4.690601e+004
3.712312e+002, 4.689603e+004
3.717133e+002, 4.689473e+004
3.721954e+002, 4.688946e+004
3.726776e+002, 4.687835e+004
3.731597e+002, 4.686530e+004
3.736418e+002, 4.685252e+004
3.741239e+002, 4.684017e+004
3.746060e+002, 4.682648e+004
3.750881e+002, 4.680879e+004
3.755703e+002, 4.678778e+004
3.760524e+002, 4.678046e+004
3.765345e+002, 4.680148e+004
3.770166e+002, 4.681945e+004
3.774987e+002, 4.682544e+004
3.779808e+002, 4.682469e+004
3.784630e+002, 4.682209e+004
3.789451e+002, 4.681980e+004
3.794272e+002, 4.682401e+004
3.799093e+002, 4.685103e+004
3.803914e+002, 4.692341e+004
3.808735e+002, 4.698152e+004
3.813557e+002, 4.701423e+004
3.818378e+002, 4.703970e+004
3.823199e+002, 4.707014e+004
3.828020e+002, 4.710791e+004
3.832841e+002, 4.714902e+004
3.837662e+002, 4.718881e+004
3.842484e+002, 4.722681e+004
3.847305e+002, 4.726661e+004
3.852126e+002, 4.731051e+004
3.856947e+002, 4.735368e+004
3.861768e+002, 4.738893e+004
3.866589e+002, 4.742244e+004
3.871411e+002, 4.746779e+004
3.876232e+002, 4.753561e+004
3.881053e+002, 4.761767e+004
3.885874e+002, 4.768361e+004
3.890695e+002, 4.772632e+004
3.895516e+002, 4.776533e+004
3.900338e+002, 4.780791e+004
3.905159e+002, 4.784842e+004
3.909980e+002, 4.788464e+004
3.914801e+002, 4.791588e+004
3.919622e+002, 4.793436e+004
3.924443e+002, 4.792688e+004
3.929265e+002, 4.789088e+004
3.934086e+002, 4.785632e+004
3.938907e+002, 4.783986e+004
3.943728e+002, 4.781263e+004
3.948549e+002, 4.775369e+004
3.953370e+002, 4.766865e+004
3.958192e+002, 4.758076e+004
3.963013e+002, 4.750524e+004
3.967834e+002, 4.743817e+004
3.972655e+002, 4.736521e+004
3.977476e+002, 4.728161e+004
3.982297e+002, 4.720505e+004
3.987119e+002, 4.714981e+004
3.991940e+002, 4.710529e+004
3.996761e+002, 4.705868e+004
4.001582e+002, 4.700585e+004
4.006403e+002, 4.695177e+004
4.011224e+002, 4.690321e+004
4.016046e+002, 4.685915e+004
4.020867e+002, 4.680904e+004
4.025688e+002, 4.674257e+004
4.030509e+002, 4.667677e+004
4.035330e+002, 4.663101e+004
4.040151e+002, 4.660516e+004
4.044973e+002, 4.658754e+004
4.049794e+002, 4.658006e+004
4.054615e+002, 4.657552e+004
4.059436e+002, 4.656150e+004
4.064257e+002, 4.653648e+004
4.069078e+002, 4.650381e+004
4.073900e+002, 4.646305e+004
4.078721e+002, 4.641641e+004
4.083542e+002, 4.637441e+004
4.088363e+002, 4.633945e+004
4.093184e+002, 4.630830e+004
4.098005e+002, 4.628001e+004
4.102827e+002, 4.625433e+004
4.107648e+002, 4.623008e+004
4.112469e+002, 4.620615e+004
4.117290e+002, 4.618462e+004
4.122111e+002, 4.617118e+004
4.126932e+002, 4.616806e+004
4.131754e+002, 4.616565e+004
4.136575e+002, 4.616971e+004
4.141396e+002, 4.616957e+004
4.146217e+002, 4.614798e+004
4.151038e+002, 4.610413e+004
4.155859e+002, 4.606086e+004
4.160681e+002, 4.604208e+004
4.165502e+002, 4.605086e+004
4.170323e+002, 4.605002e+004
4.175144e+002, 4.603406e+004
4.179965e+002, 4.601577e+004
4.184786e+002, 4.599453e+004
4.189608e+002, 4.597544e+004
4.194429e+002, 4.596948e+004
4.199250e+002, 4.598308e+004
4.204071e+002, 4.600717e+004
4.208892e+002, 4.601638e+004
4.213713e+002, 4.600246e+004
4.218535e+002, 4.598519e+004
4.223356e+002, 4.596775e+004
4.228177e+002, 4.594596e+004
4.232998e+002, 4.591120e+004
4.237819e+002, 4.586570e+004
4.242640e+002, 4.582560e+004
4.247462e+002, 4.581074e+004
4.252283e+002, 4.582379e+004
4.257104e+002, 4.582095e+004
4.261925e+002, 4.578800e+004
4.266746e+002, 4.575335e+004
4.271567e+002, 4.571955e+004
4.276389e+002, 4.569052e+004
4.281210e+002, 4.567240e+004
4.286031e+002, 4.566883e+004
4.290852e+002, 4.567455e+004
4.295673e+002, 4.568093e+004
4.300494e+002, 4.569027e+004
4.305316e+002, 4.569244e+004
4.310137e+002, 4.567596e+004
4.314958e+002, 4.565784e+004
4.319779e+002, 4.565183e+004
4.324600e+002, 4.565770e+004
4.329421e+002, 4.566046e+004
4.334243e+002, 4.564551e+004
4.339064e+002, 4.561739e+004
4.343885e+002, 4.559613e+004
4.348706e+002, 4.558493e+004
4.353527e+002, 4.557520e+004
4.358348e+002, 4.555852e+004
4.363170e+002, 4.553986e+004
4.367991e+002, 4.552884e+004
4.372812e+002, 4.553359e+004
4.377633e+002, 4.553823e+004
4.382454e+002, 4.552457e+004
4.387275e+002, 4.549535e+004
4.392097e+002, 4.547115e+004
4.396918e+002, 4.546066e+004
4.401739e+002, 4.545572e+004
4.406560e+002, 4.543860e+004
4.411381e+002, 4.540563e+004
4.416202e+002, 4.539507e+004
4.421024e+002, 4.544318e+004
4.425845e+002, 4.550519e+004
4.430666e+002, 4.552530e+004
4.435487e+002, 4.550041e+004
4.440308e+002, 4.546898e+004
4.445129e+002, 4.545938e+004
4.449951e+002, 4.546927e+004
4.454772e+002, 4.547386e+004
4.459593e+002, 4.547455e+004
4.464414e+002, 4.546944e+004
4.469235e+002, 4.545205e+004
4.474056e+002, 4.543029e+004
4.478878e+002, 4.541719e+004
4.483699e+002, 4.541708e+004
4.488520e+002, 4.542193e+004
4.493341e+002, 4.541945e+004
4.498162e+002, 4.540705e+004
4.502983e+002, 4.539423e+004
4.507805e+002, 4.537696e+004
4.512626e+002, 4.536306e+004
4.517447e+002, 4.535635e+004
4.522268e+002, 4.535648e+004
4.527089e+002, 4.536274e+004
4.531910e+002, 4.537582e+004
4.536732e+002, 4.539220e+004
4.541553e+002, 4.539551e+004
4.546374e+002, 4.537224e+004
4.551195e+002, 4.535891e+004
4.556016e+002, 4.536421e+004
4.560837e+002, 4.537836e+004
4.565659e+002, 4.539592e+004
4.570480e+002, 4.541482e+004
4.575301e+002, 4.543068e+004
4.580122e+002, 4.543649e+004
4.584943e+002, 4.543254e+004
4.589764e+002, 4.543561e+004
4.594586e+002, 4.545422e+004
4.599407e+002, 4.546746e+004
4.604228e+002, 4.545788e+004
4.609049e+002, 4.543716e+004
4.613870e+002, 4.542695e+004
4.618691e+002, 4.543814e+004
4.623513e+002, 4.545722e+004
4.628334e+002, 4.546869e+004
4.633155e+002, 4.547279e+004
4.637976e+002, 4.547568e+004
4.642797e+002, 4.548257e+004
4.647618e+002, 4.548496e+004
4.652440e+002, 4.546500e+004
4.657261e+002, 4.542166e+004
4.662082e+002, 4.539787e+004
4.666903e+002, 4.542302e+004
4.671724e+002, 4.546737e+004
4.676545e+002, 4.549845e+004
4.681367e+002, 4.551327e+004
4.686188e+002, 4.551435e+004
4.691009e+002, 4.549966e+004
4.695830e+002, 4.547343e+004
4.700651e+002, 4.545683e+004
4.705472e+002, 4.545825e+004
4.710294e+002, 4.545727e+004
4.715115e+002, 4.544291e+004
4.719936e+002, 4.542560e+004
4.724757e+002, 4.542227e+004
4.729578e+002, 4.543602e+004
4.734399e+002, 4.545016e+004
4.739221e+002, 4.544482e+004
4.744042e+002, 4.541768e+004
4.748863e+002, 4.538316e+004
4.753684e+002, 4.532489e+004
4.758505e+002, 4.527693e+004
4.763326e+002, 4.526295e+004
4.768148e+002, 4.526576e+004
4.772969e+002, 4.525561e+004
4.777790e+002, 4.521798e+004
4.782611e+002, 4.516362e+004
4.787432e+002, 4.511354e+004
4.792253e+002, 4.506545e+004
4.797075e+002, 4.502927e+004
4.801896e+002, 4.501379e+004
4.806717e+002, 4.500462e+004
4.811538e+002, 4.500034e+004
4.816359e+002, 4.499707e+004
4.821180e+002, 4.498342e+004
4.826002e+002, 4.494525e+004
4.830823e+002, 4.489336e+004
4.835644e+002, 4.485991e+004
4.840465e+002, 4.485057e+004
4.845286e+002, 4.483970e+004
4.850107e+002, 4.481496e+004
4.854929e+002, 4.478305e+004
4.859750e+002, 4.475037e+004
4.864571e+002, 4.471687e+004
4.869392e+002, 4.468691e+004
4.874213e+002, 4.466081e+004
4.879034e+002, 4.464042e+004
4.883856e+002, 4.463432e+004
4.888677e+002, 4.464593e+004
4.893498e+002, 4.465372e+004
4.898319e+002, 4.463571e+004
4.903140e+002, 4.459416e+004
4.907961e+002, 4.456645e+004
4.912783e+002, 4.456591e+004
4.917604e+002, 4.456477e+004
4.922425e+002, 4.454382e+004
4.927246e+002, 4.451461e+004
4.932067e+002, 4.450191e+004
4.936888e+002, 4.451450e+004
4.941710e+002, 4.453492e+004
4.946531e+002, 4.453493e+004
4.951352e+002, 4.450344e+004
4.956173e+002, 4.448704e+004
4.960994e+002, 4.449884e+004
4.965815e+002, 4.451074e+004
4.970637e+002, 4.451214e+004
4.975458e+002, 4.450264e+004
4.980279e+002, 4.448354e+004
4.985100e+002, 4.445496e+004
4.989921e+002, 4.441993e+004
4.994742e+002, 4.438373e+004
4.999564e+002, 4.434111e+004
5.004385e+002, 4.431061e+004
5.009206e+002, 4.429373e+004
5.014027e+002, 4.428996e+004
5.018848e+002, 4.430815e+004
5.023669e+002, 4.434307e+004
5.028491e+002, 4.437127e+004
5.033312e+002, 4.437552e+004
5.038133e+002, 4.436188e+004
5.042954e+002, 4.434486e+004
5.047775e+002, 4.432360e+004
5.052596e+002, 4.430369e+004
5.057418e+002, 4.428487e+004
5.062239e+002, 4.427123e+004
5.067060e+002, 4.426993e+004
5.071881e+002, 4.428484e+004
5.076702e+002, 4.429793e+004
5.081523e+002, 4.429907e+004
5.086345e+002, 4.429298e+004
5.091166e+002, 4.428556e+004
5.095987e+002, 4.427761e+004
5.100808e+002, 4.427438e+004
5.105629e+002, 4.428211e+004
5.110450e+002, 4.429917e+004
5.115272e+002, 4.430745e+004
5.120093e+002, 4.430501e+004
5.124914e+002, 4.429712e+004
5.129735e+002, 4.427316e+004
5.134556e+002, 4.424941e+004
5.139377e+002, 4.425300e+004
5.144199e+002, 4.428887e+004
5.149020e+002, 4.433062e+004
5.153841e+002, 4.434444e+004
5.158662e+002, 4.432639e+004
5.163483e+002, 4.430813e+004
5.168304e+002, 4.429323e+004
5.173126e+002, 4.427448e+004
5.177947e+002, 4.424498e+004
5.182768e+002, 4.421193e+004
5.187589e+002, 4.418500e+004
5.192410e+002, 4.416795e+004
5.197231e+002, 4.415897e+004
5.202053e+002, 4.415839e+004
5.206874e+002, 4.416710e+004
5.211695e+002, 4.416923e+004
5.216516e+002, 4.415869e+004
5.221337e+002, 4.414580e+004
5.226158e+002, 4.413833e+004
5.230980e+002, 4.413428e+004
5.235801e+002, 4.412781e+004
5.240622e+002, 4.411388e+004
5.245443e+002, 4.409977e+004
5.250264e+002, 4.409063e+004
5.255085e+002, 4.408730e+004
5.259907e+002, 4.409875e+004
5.264728e+002, 4.413495e+004
5.269549e+002, 4.417266e+004
5.274370e+002, 4.417198e+004
5.279191e+002, 4.412499e+004
5.284012e+002, 4.409485e+004
5.288834e+002, 4.409807e+004
5.293655e+002, 4.411141e+004
5.298476e+002, 4.412435e+004
5.303297e+002, 4.413387e+004
5.308118e+002, 4.413523e+004
5.312939e+002, 4.412546e+004
5.317761e+002, 4.410778e+004
5.322582e+002, 4.408957e+004
5.327403e+002, 4.406232e+004
5.332224e+002, 4.404993e+004
5.337045e+002, 4.406633e+004
5.341866e+002, 4.408294e+004
5.346688e+002, 4.408263e+004
5.351509e+002, 4.406687e+004
5.356330e+002, 4.404504e+004
5.361151e+002, 4.402088e+004
5.365972e+002, 4.399792e+004
5.370793e+002, 4.398860e+004
5.375615e+002, 4.399861e+004
5.380436e+002, 4.399982e+004
5.385257e+002, 4.397838e+004
5.390078e+002, 4.394975e+004
5.394899e+002, 4.392564e+004
5.399720e+002, 4.390693e+004
5.404542e+002, 4.389395e+004
5.409363e+002, 4.389398e+004
5.414184e+002, 4.389689e+004
5.419005e+002, 4.388632e+004
5.423826e+002, 4.386246e+004
5.428647e+002, 4.383855e+004
5.433469e+002, 4.382182e+004
5.438290e+002, 4.380879e+004
5.443111e+002, 4.378908e+004
5.447932e+002, 4.375567e+004
5.452753e+002, 4.373236e+004
5.457574e+002, 4.373073e+004
5.462396e+002, 4.373411e+004
5.467217e+002, 4.372798e+004
5.472038e+002, 4.371236e+004
5.476859e+002, 4.369430e+004
5.481680e+002, 4.367775e+004
5.486501e+002, 4.366452e+004
5.491323e+002, 4.366434e+004
5.496144e+002, 4.368986e+004
5.500965e+002, 4.370641e+004
5.505786e+002, 4.371010e+004
5.510607e+002, 4.370511e+004
5.515428e+002, 4.368855e+004
5.520250e+002, 4.366431e+004
5.525071e+002, 4.364750e+004
5.529892e+002, 4.365309e+004
5.534713e+002, 4.367290e+004
5.539534e+002, 4.368412e+004
5.544355e+002, 4.368656e+004
5.549177e+002, 4.367963e+004
5.553998e+002, 4.365077e+004
5.558819e+002, 4.362146e+004
5.563640e+002, 4.362480e+004
5.568461e+002, 4.366637e+004
5.573282e+002, 4.369764e+004
5.578104e+002, 4.369138e+004
5.582925e+002, 4.366991e+004
5.587746e+002, 4.366169e+004
5.592567e+002, 4.366639e+004
5.597388e+002, 4.366343e+004
5.602209e+002, 4.363798e+004
5.607031e+002, 4.359981e+004
5.611852e+002, 4.358013e+004
5.616673e+002, 4.359995e+004
5.621494e+002, 4.360887e+004
5.626315e+002, 4.359958e+004
5.631136e+002, 4.358452e+004
5.635958e+002, 4.357082e+004
5.640779e+002, 4.355968e+004
5.645600e+002, 4.355121e+004
5.650421e+002, 4.354631e+004
5.655242e+002, 4.354257e+004
5.660063e+002, 4.353036e+004
5.664885e+002, 4.350453e+004
5.669706e+002, 4.348502e+004
5.674527e+002, 4.347850e+004
5.679348e+002, 4.347867e+004
5.684169e+002, 4.348752e+004
5.688990e+002, 4.350204e+004
5.693812e+002, 4.350525e+004
5.698633e+002, 4.347823e+004
5.703454e+002, 4.344013e+004
5.708275e+002, 4.342108e+004
5.713096e+002, 4.341990e+004
5.717917e+002, 4.341501e+004
5.722739e+002, 4.339659e+004
5.727560e+002, 4.337075e+004
5.732381e+002, 4.334677e+004
5.737202e+002, 4.332295e+004
5.742023e+002, 4.330787e+004
5.746844e+002, 4.330958e+004
5.751666e+002, 4.331424e+004
5.756487e+002, 4.331332e+004
5.761308e+002, 4.330732e+004
5.766129e+002, 4.329848e+004
5.770950e+002, 4.328757e+004
5.775771e+002, 4.327788e+004
5.780593e+002, 4.327896e+004
5.785414e+002, 4.329986e+004
5.790235e+002, 4.330621e+004
5.795056e+002, 4.327236e+004
5.799877e+002, 4.324564e+004
5.804698e+002, 4.325740e+004
5.809520e+002, 4.329243e+004
5.814341e+002, 4.331366e+004
5.819162e+002, 4.330196e+004
5.823983e+002, 4.327456e+004
5.828804e+002, 4.324743e+004
5.833625e+002, 4.322196e+004
5.838447e+002, 4.321613e+004
5.843268e+002, 4.323736e+004
5.848089e+002, 4.327239e+004
5.852910e+002, 4.332150e+004
5.857731e+002, 4.338000e+004
5.862552e+002, 4.339515e+004
5.867374e+002, 4.331525e+004
5.872195e+002, 4.324057e+004
5.877016e+002, 4.323115e+004
5.881837e+002, 4.326054e+004
5.886658e+002, 4.328275e+004
5.891479e+002, 4.328364e+004
5.896301e+002, 4.327579e+004
5.901122e+002, 4.327443e+004
5.905943e+002, 4.328039e+004
5.910764e+002, 4.328424e+004
5.915585e+002, 4.328545e+004
5.920406e+002, 4.328457e+004
5.925228e+002, 4.328027e+004
5.930049e+002, 4.327438e+004
5.934870e+002, 4.326779e+004
5.939691e+002, 4.326082e+004
5.944512e+002, 4.325707e+004
5.949333e+002, 4.326462e+004
5.954155e+002, 4.327902e+004
5.958976e+002, 4.327681e+004
5.963797e+002, 4.325131e+004
5.968618e+002, 4.323465e+004
5.973439e+002, 4.325604e+004
5.978260e+002, 4.329522e+004
5.983082e+002, 4.330129e+004
5.987903e+002, 4.325968e+004
5.992724e+002, 4.322253e+004
5.997545e+002, 4.320574e+004
6.002366e+002, 4.320236e+004
6.007188e+002, 4.320645e+004
6.012009e+002, 4.321693e+004
6.016830e+002, 4.323627e+004
6.021651e+002, 4.326841e+004
6.026472e+002, 4.330521e+004
6.031293e+002, 4.331445e+004
6.036115e+002, 4.327162e+004
6.040936e+002, 4.324606e+004
6.045757e+002, 4.325008e+004
6.050578e+002, 4.326382e+004
6.055399e+002, 4.328042e+004
6.060220e+002, 4.329633e+004
6.065042e+002, 4.330600e+004
6.069863e+002, 4.330557e+004
6.074684e+002, 4.329830e+004
6.079505e+002, 4.328958e+004
6.084326e+002, 4.327934e+004
6.089147e+002, 4.326204e+004
6.093969e+002, 4.322877e+004
6.098790e+002, 4.320222e+004
6.103611e+002, 4.321698e+004
6.108432e+002, 4.326865e+004
6.113253e+002, 4.329909e+004
6.118074e+002, 4.328064e+004
6.122896e+002, 4.326224e+004
6.127717e+002, 4.327796e+004
6.132538e+002, 4.330873e+004
6.137359e+002, 4.331789e+004
6.142180e+002, 4.329574e+004
6.147001e+002, 4.326686e+004
6.151823e+002, 4.326191e+004
6.156644e+002, 4.328258e+004
6.161465e+002, 4.328877e+004
6.166286e+002, 4.326871e+004
6.171107e+002, 4.324966e+004
6.175928e+002, 4.324337e+004
6.180750e+002, 4.323872e+004
6.185571e+002, 4.321969e+004
6.190392e+002, 4.318438e+004
6.195213e+002, 4.315656e+004
6.200034e+002, 4.316710e+004
6.204855e+002, 4.319504e+004
6.209677e+002, 4.318685e+004
6.214498e+002, 4.313921e+004
6.219319e+002, 4.309745e+004
6.224140e+002, 4.308300e+004
6.228961e+002, 4.308915e+004
6.233782e+002, 4.310613e+004
6.238604e+002, 4.314302e+004
6.243425e+002, 4.316147e+004
6.248246e+002, 4.314166e+004
6.253067e+002, 4.311577e+004
6.257888e+002, 4.310482e+004
6.262709e+002, 4.310577e+004
6.267531e+002, 4.310784e+004
6.272352e+002, 4.310580e+004
6.277173e+002, 4.309859e+004
6.281994e+002, 4.308142e+004
6.286815e+002, 4.305013e+004
6.291636e+002, 4.303088e+004
6.296458e+002, 4.303188e+004
6.301279e+002, 4.303613e+004
6.306100e+002, 4.303461e+004
6.310921e+002, 4.303012e+004
6.315742e+002, 4.302825e+004
6.320563e+002, 4.303170e+004
6.325385e+002, 4.303402e+004
6.330206e+002, 4.302726e+004
6.335027e+002, 4.301706e+004
6.339848e+002, 4.301836e+004
6.344669e+002, 4.303294e+004
6.349490e+002, 4.304050e+004
6.354312e+002, 4.302388e+004
6.359133e+002, 4.299004e+004
6.363954e+002, 4.297121e+004
6.368775e+002, 4.297668e+004
6.373596e+002, 4.298604e+004
6.378417e+002, 4.300345e+004
6.383239e+002, 4.302070e+004
6.388060e+002, 4.303364e+004
6.392881e+002, 4.304112e+004
6.397702e+002, 4.304145e+004
6.402523e+002, 4.303225e+004
6.407344e+002, 4.301876e+004
6.412166e+002, 4.301100e+004
6.416987e+002, 4.300898e+004
6.421808e+002, 4.300943e+004
6.426629e+002, 4.301392e+004
6.431450e+002, 4.301685e+004
6.436271e+002, 4.300789e+004
6.441093e+002, 4.299191e+004
6.445914e+002, 4.298846e+004
6.450735e+002, 4.301143e+004
6.455556e+002, 4.303471e+004
6.460377e+002, 4.304557e+004
6.465198e+002, 4.304969e+004
6.470020e+002, 4.305268e+004
6.474841e+002, 4.305681e+004
6.479662e+002, 4.306723e+004
6.484483e+002, 4.309018e+004
6.489304e+002, 4.312256e+004
6.494125e+002, 4.314218e+004
6.498947e+002, 4.313987e+004
6.503768e+002, 4.314167e+004
6.508589e+002, 4.315155e+004
6.513410e+002, 4.316711e+004
6.518231e+002, 4.319057e+004
6.523052e+002, 4.321935e+004
6.527874e+002, 4.324325e+004
6.532695e+002, 4.325870e+004
6.537516e+002, 4.326512e+004
6.542337e+002, 4.325413e+004
6.547158e+002, 4.323118e+004
6.551979e+002, 4.322182e+004
6.556801e+002, 4.323352e+004
6.561622e+002, 4.325986e+004
6.566443e+002, 4.329695e+004
6.571264e+002, 4.334584e+004
6.576085e+002, 4.338433e+004
6.580906e+002, 4.340114e+004
6.585728e+002, 4.342340e+004
6.590549e+002, 4.346591e+004
6.595370e+002, 4.351237e+004
6.600191e+002, 4.354538e+004
6.605012e+002, 4.356321e+004
6.609833e+002, 4.357657e+004
6.614655e+002, 4.359402e+004
6.619476e+002, 4.361399e+004
6.624297e+002, 4.362902e+004
6.629118e+002, 4.363746e+004
6.633939e+002, 4.365503e+004
6.638760e+002, 4.369123e+004
6.643582e+002, 4.373281e+004
6.648403e+002, 4.376516e+004
6.653224e+002, 4.378887e+004
6.658045e+002, 4.380708e+004
6.662866e+002, 4.381992e+004
6.667687e+002, 4.382778e+004
6.672509e+002, 4.383869e+004
6.677330e+002, 4.384214e+004
6.682151e+002, 4.381677e+004
6.686972e+002, 4.375904e+004
6.691793e+002, 4.369027e+004
6.696614e+002, 4.362951e+004
6.701436e+002, 4.357729e+004
6.706257e+002, 4.354352e+004
6.711078e+002, 4.354370e+004
6.715899e+002, 4.352995e+004
6.720720e+002, 4.347243e+004
6.725541e+002, 4.340694e+004
6.730363e+002, 4.336042e+004
6.735184e+002, 4.333356e+004
6.740005e+002, 4.331255e+004
6.744826e+002, 4.329477e+004
6.749647e+002, 4.327696e+004
6.754468e+002, 4.325527e+004
6.759290e+002, 4.323066e+004
6.764111e+002, 4.320538e+004
6.768932e+002, 4.318007e+004
6.773753e+002, 4.315746e+004
6.778574e+002, 4.314180e+004
6.783395e+002, 4.313357e+004
6.788217e+002, 4.312042e+004
6.793038e+002, 4.310219e+004
6.797859e+002, 4.307918e+004
6.802680e+002, 4.305806e+004
6.807501e+002, 4.302840e+004
6.812322e+002, 4.296837e+004
6.817144e+002, 4.288430e+004
6.821965e+002, 4.282080e+004
6.826786e+002, 4.281725e+004
6.831607e+002, 4.284559e+004
6.836428e+002, 4.286817e+004
6.841249e+002, 4.288358e+004
6.846071e+002, 4.287529e+004
6.850892e+002, 4.283324e+004
6.855713e+002, 4.278367e+004
6.860534e+002, 4.275567e+004
6.865355e+002, 4.275037e+004
6.870176e+002, 4.274666e+004
6.874998e+002, 4.275030e+004
6.879819e+002, 4.274766e+004
6.884640e+002, 4.273609e+004
6.889461e+002, 4.271596e+004
6.894282e+002, 4.267951e+004
6.899103e+002, 4.263175e+004
6.903925e+002, 4.259756e+004
6.908746e+002, 4.260121e+004
6.913567e+002, 4.262661e+004
6.918388e+002, 4.263591e+004
6.923209e+002, 4.262889e+004
6.928030e+002, 4.261707e+004
6.932852e+002, 4.260372e+004
6.937673e+002, 4.258658e+004
6.942494e+002, 4.256250e+004
6.947315e+002, 4.253187e+004
6.952136e+002, 4.250016e+004
6.956957e+002, 4.245207e+004
6.961779e+002, 4.242186e+004
6.966600e+002, 4.243866e+004
6.971421e+002, 4.246915e+004
6.976242e+002, 4.247081e+004
6.981063e+002, 4.244313e+004
6.985884e+002, 4.242137e+004
6.990706e+002, 4.243411e+004
6.995527e+002, 4.246873e+004
7.000348e+002, 4.248871e+004
7.005169e+002, 4.249135e+004
7.009990e+002, 4.249620e+004
7.014811e+002, 4.250801e+004
7.019633e+002, 4.252139e+004
7.024454e+002, 4.253205e+004
7.029275e+002, 4.254041e+004
7.034096e+002, 4.254827e+004
7.038917e+002, 4.255716e+004
7.043738e+002, 4.256355e+004
7.048560e+002, 4.255692e+004
7.053381e+002, 4.255200e+004
7.058202e+002, 4.257354e+004
7.063023e+002, 4.261800e+004
7.067844e+002, 4.265507e+004
7.072665e+002, 4.266327e+004
7.077487e+002, 4.265212e+004
7.082308e+002, 4.264787e+004
7.087129e+002, 4.265318e+004
7.091950e+002, 4.265257e+004
7.096771e+002, 4.264284e+004
7.101592e+002, 4.262870e+004
7.106414e+002, 4.260589e+004
7.111235e+002, 4.258229e+004
7.116056e+002, 4.257725e+004
7.120877e+002, 4.260406e+004
7.125698e+002, 4.262631e+004
7.130519e+002, 4.261890e+004
7.135341e+002, 4.260207e+004
7.140162e+002, 4.260223e+004
7.144983e+002, 4.261785e+004
7.149804e+002, 4.263042e+004
7.154625e+002, 4.262955e+004
7.159446e+002, 4.261879e+004
7.164268e+002, 4.259961e+004
7.169089e+002, 4.256180e+004
7.173910e+002, 4.256396e+004
7.178731e+002, 4.264236e+004
7.183552e+002, 4.271319e+004
7.188373e+002, 4.273251e+004
7.193195e+002, 4.272269e+004
7.198016e+002, 4.271417e+004
7.202837e+002, 4.271144e+004
7.207658e+002, 4.270856e+004
7.212479e+002, 4.269125e+004
7.217300e+002, 4.268033e+004
7.222122e+002, 4.271114e+004
7.226943e+002, 4.277048e+004
7.231764e+002, 4.280816e+004
7.236585e+002, 4.280214e+004
7.241406e+002, 4.277546e+004
7.246227e+002, 4.276259e+004
7.251049e+002, 4.276483e+004
7.255870e+002, 4.276702e+004
7.260691e+002, 4.276620e+004
7.265512e+002, 4.277005e+004
7.270333e+002, 4.278373e+004
7.275154e+002, 4.280146e+004
7.279976e+002, 4.281807e+004
7.284797e+002, 4.283296e+004
7.289618e+002, 4.284676e+004
7.294439e+002, 4.285113e+004
7.299260e+002, 4.286166e+004
7.304081e+002, 4.290371e+004
7.308903e+002, 4.296169e+004
7.313724e+002, 4.299675e+004
7.318545e+002, 4.299825e+004
7.323366e+002, 4.298629e+004
7.328187e+002, 4.298202e+004
7.333008e+002, 4.298431e+004
7.337830e+002, 4.297738e+004
7.342651e+002, 4.295511e+004
7.347472e+002, 4.293734e+004
7.352293e+002, 4.293188e+004
7.357114e+002, 4.292998e+004
7.361935e+002, 4.292567e+004
7.366757e+002, 4.291959e+004
7.371578e+002, 4.291523e+004
7.376399e+002, 4.291310e+004
7.381220e+002, 4.291381e+004
7.386041e+002, 4.292284e+004
7.390862e+002, 4.293295e+004
7.395684e+002, 4.292818e+004
7.400505e+002, 4.290912e+004
7.405326e+002, 4.289493e+004
7.410147e+002, 4.289975e+004
7.414968e+002, 4.291866e+004
7.419789e+002, 4.293961e+004
7.424611e+002, 4.296712e+004
7.429432e+002, 4.297786e+004
7.434253e+002, 4.294957e+004
7.439074e+002, 4.292949e+004
7.443895e+002, 4.295931e+004
7.448716e+002, 4.301147e+004
7.453538e+002, 4.303249e+004
7.458359e+002, 4.300520e+004
7.463180e+002, 4.297630e+004
7.468001e+002, 4.296008e+004
7.472822e+002, 4.295757e+004
7.477643e+002, 4.298005e+004
7.482465e+002, 4.301791e+004
7.487286e+002, 4.304060e+004
7.492107e+002, 4.303421e+004
7.496928e+002, 4.301906e+004
7.501749e+002, 4.302988e+004
7.506570e+002, 4.306906e+004
7.511392e+002, 4.308180e+004
7.516213e+002, 4.305404e+004
7.521034e+002, 4.303276e+004
7.525855e+002, 4.304995e+004
7.530676e+002, 4.307333e+004
7.535497e+002, 4.305781e+004
7.540319e+002, 4.300137e+004
7.545140e+002, 4.295923e+004
7.549961e+002, 4.294718e+004
7.554782e+002, 4.294985e+004
7.559603e+002, 4.297154e+004
7.564424e+002, 4.299624e+004
7.569246e+002, 4.299593e+004
7.574067e+002, 4.296784e+004
7.578888e+002, 4.293838e+004
7.583709e+002, 4.293121e+004
7.588530e+002, 4.293863e+004
7.593351e+002, 4.293168e+004
7.598173e+002, 4.290727e+004
7.602994e+002, 4.289700e+004
7.607815e+002, 4.291434e+004
7.612636e+002, 4.293586e+004
7.617457e+002, 4.294629e+004
7.622278e+002, 4.294465e+004
7.627100e+002, 4.292732e+004
7.631921e+002, 4.287500e+004
7.636742e+002, 4.283752e+004
7.641563e+002, 4.283763e+004
7.646384e+002, 4.284832e+004
7.651205e+002, 4.284838e+004
7.656027e+002, 4.283968e+004
7.660848e+002, 4.283394e+004
7.665669e+002, 4.283680e+004
7.670490e+002, 4.284232e+004
7.675311e+002, 4.284220e+004
7.680132e+002, 4.283760e+004
7.684954e+002, 4.283385e+004
7.689775e+002, 4.283046e+004
7.694596e+002, 4.283528e+004
7.699417e+002, 4.285569e+004
7.704238e+002, 4.288073e+004
7.709059e+002, 4.289022e+004
7.713881e+002, 4.287783e+004
7.718702e+002, 4.287400e+004
7.723523e+002, 4.288574e+004
7.728344e+002, 4.289696e+004
7.733165e+002, 4.290681e+004
7.737986e+002, 4.291031e+004
7.742808e+002, 4.289409e+004
7.747629e+002, 4.286168e+004
7.752450e+002, 4.284454e+004
7.757271e+002, 4.287677e+004
7.762092e+002, 4.292365e+004
7.766913e+002, 4.292932e+004
7.771735e+002, 4.290348e+004
7.776556e+002, 4.288607e+004
7.781377e+002, 4.288634e+004
7.786198e+002, 4.289143e+004
7.791019e+002, 4.289042e+004
7.795840e+002, 4.288489e+004
7.800662e+002, 4.288346e+004
7.805483e+002, 4.289007e+004
7.810304e+002, 4.289309e+004
7.815125e+002, 4.288751e+004
7.819946e+002, 4.288246e+004
7.824767e+002, 4.288691e+004
7.829589e+002, 4.289390e+004
7.834410e+002, 4.288687e+004
7.839231e+002, 4.285738e+004
7.844052e+002, 4.283682e+004
7.848873e+002, 4.285347e+004
7.853694e+002, 4.288323e+004
7.858516e+002, 4.289771e+004
7.863337e+002, 4.289826e+004
7.868158e+002, 4.289520e+004
7.872979e+002, 4.289280e+004
7.877800e+002, 4.289412e+004
7.882621e+002, 4.290445e+004
7.887443e+002, 4.292342e+004
7.892264e+002, 4.293489e+004
7.897085e+002, 4.293161e+004
7.901906e+002, 4.294236e+004
7.906727e+002, 4.298834e+004
7.911548e+002, 4.303954e+004
7.916370e+002, 4.306335e+004
7.921191e+002, 4.306373e+004
7.926012e+002, 4.306765e+004
7.930833e+002, 4.308030e+004
7.935654e+002, 4.309527e+004
7.940475e+002, 4.310972e+004
7.945297e+002, 4.312529e+004
7.950118e+002, 4.314964e+004
7.954939e+002, 4.317732e+004
7.959760e+002, 4.318913e+004
7.964581e+002, 4.317319e+004
7.969402e+002, 4.314455e+004
7.974224e+002, 4.312076e+004
7.979045e+002, 4.310294e+004
7.983866e+002, 4.310530e+004
7.988687e+002, 4.313196e+004
7.993508e+002, 4.314968e+004
7.998329e+002, 4.313863e+004
8.003151e+002, 4.311305e+004
8.007972e+002, 4.310000e+004
8.012793e+002, 4.310471e+004
8.017614e+002, 4.310105e+004
8.022435e+002, 4.308470e+004
8.027256e+002, 4.306637e+004
8.032078e+002, 4.304098e+004
8.036899e+002, 4.302076e+004
8.041720e+002, 4.301732e+004
8.046541e+002, 4.303207e+004
8.051362e+002, 4.306143e+004
8.056183e+002, 4.311951e+004
8.061005e+002, 4.317312e+004
8.065826e+002, 4.318220e+004
8.070647e+002, 4.316160e+004
8.075468e+002, 4.314261e+004
8.080289e+002, 4.313106e+004
8.085110e+002, 4.312205e+004
8.089932e+002, 4.311282e+004
8.094753e+002, 4.310120e+004
8.099574e+002, 4.307910e+004
8.104395e+002, 4.304179e+004
8.109216e+002, 4.301525e+004
8.114037e+002, 4.300679e+004
8.118859e+002, 4.299913e+004
8.123680e+002, 4.298344e+004
8.128501e+002, 4.296335e+004
8.133322e+002, 4.294158e+004
8.138143e+002, 4.291643e+004
8.142964e+002, 4.290298e+004
8.147786e+002, 4.290807e+004
8.152607e+002, 4.292198e+004
8.157428e+002, 4.294424e+004
8.162249e+002, 4.296917e+004
8.167070e+002, 4.299057e+004
8.171891e+002, 4.300650e+004
8.176713e+002, 4.301605e+004
8.181534e+002, 4.301706e+004
8.186355e+002, 4.301320e+004
8.191176e+002, 4.301285e+004
8.195997e+002, 4.301475e+004
8.200818e+002, 4.300882e+004
8.205640e+002, 4.299229e+004
8.210461e+002, 4.297432e+004
8.215282e+002, 4.296036e+004
8.220103e+002, 4.295043e+004
8.224924e+002, 4.294539e+004
8.229745e+002, 4.294896e+004
8.234567e+002, 4.294877e+004
8.239388e+002, 4.293808e+004
8.244209e+002, 4.293163e+004
8.249030e+002, 4.294664e+004
8.253851e+002, 4.296313e+004
8.258672e+002, 4.294780e+004
8.263494e+002, 4.289737e+004
8.268315e+002, 4.286334e+004
8.273136e+002, 4.288958e+004
8.277957e+002, 4.292390e+004
8.282778e+002, 4.292130e+004
8.287599e+002, 4.289564e+004
8.292421e+002, 4.286886e+004
8.297242e+002, 4.284787e+004
8.302063e+002, 4.283805e+004
8.306884e+002, 4.284477e+004
8.311705e+002, 4.286157e+004
8.316526e+002, 4.287570e+004
8.321348e+002, 4.288730e+004
8.326169e+002, 4.288014e+004
8.330990e+002, 4.284589e+004
8.335811e+002, 4.281129e+004
8.340632e+002, 4.278903e+004
8.345453e+002, 4.277830e+004
8.350275e+002, 4.277990e+004
8.355096e+002, 4.280246e+004
8.359917e+002, 4.280947e+004
8.364738e+002, 4.278773e+004
8.369559e+002, 4.276524e+004
8.374380e+002, 4.275177e+004
8.379202e+002, 4.274326e+004
8.384023e+002, 4.273751e+004
8.388844e+002, 4.273267e+004
8.393665e+002, 4.272166e+004
8.398486e+002, 4.269832e+004
8.403307e+002, 4.267079e+004
8.408129e+002, 4.264529e+004
8.412950e+002, 4.262282e+004
8.417771e+002, 4.260858e+004
8.422592e+002, 4.260133e+004
8.427413e+002, 4.258626e+004
8.432234e+002, 4.255307e+004
8.437056e+002, 4.251421e+004
8.441877e+002, 4.249538e+004
8.446698e+002, 4.249786e+004
8.451519e+002, 4.250633e+004
8.456340e+002, 4.252478e+004
8.461161e+002, 4.253571e+004
8.465983e+002, 4.252808e+004
8.470804e+002, 4.251224e+004
8.475625e+002, 4.250296e+004
8.480446e+002, 4.250060e+004
8.485267e+002, 4.249417e+004
8.490089e+002, 4.247734e+004
8.494910e+002, 4.246361e+004
8.499731e+002, 4.245420e+004
8.504552e+002, 4.245140e+004
8.509373e+002, 4.246282e+004
8.514194e+002, 4.248292e+004
8.519016e+002, 4.249559e+004
8.523837e+002, 4.249434e+004
8.528658e+002, 4.248255e+004
8.533479e+002, 4.245569e+004
8.538300e+002, 4.242401e+004
8.543121e+002, 4.240448e+004
8.547943e+002, 4.239779e+004
8.552764e+002, 4.240261e+004
8.557585e+002, 4.241854e+004
8.562406e+002, 4.243325e+004
8.567227e+002, 4.242874e+004
8.572048e+002, 4.240691e+004
8.576870e+002, 4.239433e+004
8.581691e+002, 4.239230e+004
8.586512e+002, 4.239504e+004
8.591333e+002, 4.240702e+004
8.596154e+002, 4.241318e+004
8.600975e+002, 4.239343e+004
8.605797e+002, 4.235480e+004
8.610618e+002, 4.233717e+004
8.615439e+002, 4.235289e+004
8.620260e+002, 4.236867e+004
8.625081e+002, 4.238652e+004
8.629902e+002, 4.239840e+004
8.634724e+002, 4.240083e+004
8.639545e+002, 4.239384e+004
8.644366e+002, 4.237500e+004
8.649187e+002, 4.234423e+004
8.654008e+002, 4.231600e+004
8.658829e+002, 4.230105e+004
8.663651e+002, 4.229277e+004
8.668472e+002, 4.228642e+004
8.673293e+002, 4.227995e+004
8.678114e+002, 4.226664e+004
8.682935e+002, 4.224620e+004
8.687756e+002, 4.222788e+004
8.692578e+002, 4.221864e+004
8.697399e+002, 4.221639e+004
8.702220e+002, 4.221779e+004
8.707041e+002, 4.222298e+004
8.711862e+002, 4.222202e+004
8.716683e+002, 4.221032e+004
8.721505e+002, 4.220682e+004
8.726326e+002, 4.222877e+004
8.731147e+002, 4.225538e+004
8.735968e+002, 4.224860e+004
8.740789e+002, 4.219881e+004
8.745610e+002, 4.216689e+004
8.750432e+002, 4.216545e+004
8.755253e+002, 4.216444e+004
8.760074e+002, 4.215981e+004
8.764895e+002, 4.215086e+004
8.769716e+002, 4.213478e+004
8.774537e+002, 4.211389e+004
8.779359e+002, 4.209563e+004
8.784180e+002, 4.208245e+004
8.789001e+002, 4.207256e+004
8.793822e+002, 4.206243e+004
8.798643e+002, 4.205693e+004
8.803464e+002, 4.206936e+004
8.808286e+002, 4.209070e+004
8.813107e+002, 4.209139e+004
8.817928e+002, 4.206265e+004
8.822749e+002, 4.203703e+004
8.827570e+002, 4.205817e+004
8.832391e+002, 4.210616e+004
8.837213e+002, 4.210836e+004
8.842034e+002, 4.206880e+004
8.846855e+002, 4.206100e+004
8.851676e+002, 4.210663e+004
8.856497e+002, 4.215237e+004
8.861318e+002, 4.215645e+004
8.866140e+002, 4.212882e+004
8.870961e+002, 4.210372e+004
8.875782e+002, 4.208664e+004
8.880603e+002, 4.205571e+004
8.885424e+002, 4.198090e+004
8.890245e+002, 4.193335e+004
8.895067e+002, 4.197254e+004
8.899888e+002, 4.203464e+004
8.904709e+002, 4.203622e+004
8.909530e+002, 4.197481e+004
8.914351e+002, 4.194363e+004
8.919172e+002, 4.200050e+004
8.923994e+002, 4.204258e+004
8.928815e+002, 4.201429e+004
8.933636e+002, 4.196215e+004
8.938457e+002, 4.193252e+004
8.943278e+002, 4.192182e+004
8.948099e+002, 4.190230e+004
8.952921e+002, 4.186173e+004
8.957742e+002, 4.181488e+004
8.962563e+002, 4.177045e+004
8.967384e+002, 4.173214e+004
8.972205e+002, 4.170850e+004
8.977026e+002, 4.169783e+004
8.981848e+002, 4.169444e+004
8.986669e+002, 4.169610e+004
8.991490e+002, 4.169665e+004
8.996311e+002, 4.168991e+004
9.001132e+002, 4.167751e+004
9.005953e+002, 4.166482e+004
9.010775e+002, 4.165158e+004
9.015596e+002, 4.164093e+004
9.020417e+002, 4.163377e+004
9.025238e+002, 4.162695e+004
9.030059e+002, 4.161768e+004
9.034880e+002, 4.160785e+004
9.039702e+002, 4.160013e+004
9.044523e+002, 4.159077e+004
9.049344e+002, 4.159735e+004
9.054165e+002, 4.164334e+004
9.058986e+002, 4.167414e+004
9.063807e+002, 4.166690e+004
9.068629e+002, 4.164810e+004
9.073450e+002, 4.163893e+004
9.078271e+002, 4.163893e+004
9.083092e+002, 4.164066e+004
9.087913e+002, 4.164820e+004
9.092734e+002, 4.164494e+004
9.097556e+002, 4.160870e+004
9.102377e+002, 4.157152e+004
9.107198e+002, 4.156463e+004
9.112019e+002, 4.157865e+004
9.116840e+002, 4.159550e+004
9.121661e+002, 4.160802e+004
9.126483e+002, 4.160745e+004
9.131304e+002, 4.157796e+004
9.136125e+002, 4.153865e+004
9.140946e+002, 4.151886e+004
9.145767e+002, 4.151583e+004
9.150588e+002, 4.152583e+004
9.155410e+002, 4.154607e+004
9.160231e+002, 4.155796e+004
9.165052e+002, 4.154864e+004
9.169873e+002, 4.153034e+004
9.174694e+002, 4.152814e+004
9.179515e+002, 4.154281e+004
9.184337e+002, 4.155071e+004
9.189158e+002, 4.155060e+004
9.193979e+002, 4.154767e+004
9.198800e+002, 4.154040e+004
9.203621e+002, 4.153849e+004
9.208442e+002, 4.156023e+004
9.213264e+002, 4.159998e+004
9.218085e+002, 4.159675e+004
9.222906e+002, 4.150396e+004
9.227727e+002, 4.144468e+004
9.232548e+002, 4.143865e+004
9.237369e+002, 4.145024e+004
9.242191e+002, 4.147796e+004
9.247012e+002, 4.150632e+004
9.251833e+002, 4.150803e+004
9.256654e+002, 4.147868e+004
9.261475e+002, 4.146101e+004
9.266296e+002, 4.147322e+004
9.271118e+002, 4.149381e+004
9.275939e+002, 4.152198e+004
9.280760e+002, 4.154580e+004
9.285581e+002, 4.154789e+004
9.290402e+002, 4.153340e+004
9.295223e+002, 4.152182e+004
9.300045e+002, 4.152075e+004
9.304866e+002, 4.153016e+004
9.309687e+002, 4.155630e+004
9.314508e+002, 4.158886e+004
9.319329e+002, 4.161634e+004
9.324150e+002, 4.163548e+004
9.328972e+002, 4.163412e+004
9.333793e+002, 4.161145e+004
9.338614e+002, 4.159242e+004
9.343435e+002, 4.160046e+004
9.348256e+002, 4.162339e+004
9.353077e+002, 4.162827e+004
9.357899e+002, 4.161711e+004
9.362720e+002, 4.162332e+004
9.367541e+002, 4.165279e+004
9.372362e+002, 4.166890e+004
9.377183e+002, 4.164930e+004
9.382004e+002, 4.162127e+004
9.386826e+002, 4.162751e+004
9.391647e+002, 4.166904e+004
9.396468e+002, 4.170170e+004
9.401289e+002, 4.172757e+004
9.406110e+002, 4.173948e+004
9.410931e+002, 4.173195e+004
9.415753e+002, 4.171518e+004
9.420574e+002, 4.168554e+004
9.425395e+002, 4.165408e+004
9.430216e+002, 4.165335e+004
9.435037e+002, 4.169969e+004
9.439858e+002, 4.172738e+004
9.444680e+002, 4.172112e+004
9.449501e+002, 4.170819e+004
9.454322e+002, 4.168639e+004
9.459143e+002, 4.167196e+004
9.463964e+002, 4.168761e+004
9.468785e+002, 4.172744e+004
9.473607e+002, 4.175844e+004
9.478428e+002, 4.176785e+004
9.483249e+002, 4.177067e+004
9.488070e+002, 4.176457e+004
9.492891e+002, 4.176405e+004
9.497712e+002, 4.178707e+004
9.502534e+002, 4.182487e+004
9.507355e+002, 4.186012e+004
9.512176e+002, 4.188744e+004
9.516997e+002, 4.190933e+004
9.521818e+002, 4.192654e+004
9.526639e+002, 4.194026e+004
9.531461e+002, 4.194940e+004
9.536282e+002, 4.195705e+004
9.541103e+002, 4.197443e+004
9.545924e+002, 4.199965e+004
9.550745e+002, 4.201527e+004
9.555566e+002, 4.201272e+004
9.560388e+002, 4.199899e+004
9.565209e+002, 4.198094e+004
9.570030e+002, 4.196031e+004
9.574851e+002, 4.194292e+004
9.579672e+002, 4.192894e+004
9.584493e+002, 4.193209e+004
9.589315e+002, 4.195788e+004
9.594136e+002, 4.198338e+004
9.598957e+002, 4.199318e+004
9.603778e+002, 4.198798e+004
9.608599e+002, 4.196654e+004
9.613420e+002, 4.192286e+004
9.618242e+002, 4.189440e+004
9.623063e+002, 4.188717e+004
9.627884e+002, 4.188101e+004
9.632705e+002, 4.187413e+004
9.637526e+002, 4.185879e+004
9.642347e+002, 4.181626e+004
9.647169e+002, 4.175473e+004
9.651990e+002, 4.173452e+004
9.656811e+002, 4.178789e+004
9.661632e+002, 4.183370e+004
9.666453e+002, 4.188860e+004
9.671274e+002, 4.191676e+004
9.676096e+002, 4.187390e+004
9.680917e+002, 4.181312e+004
9.685738e+002, 4.180809e+004
9.690559e+002, 4.186047e+004
9.695380e+002, 4.189736e+004
9.700201e+002, 4.189498e+004
9.705023e+002, 4.188293e+004
9.709844e+002, 4.186312e+004
9.714665e+002, 4.184554e+004
9.719486e+002, 4.183468e+004
9.724307e+002, 4.183331e+004
9.729128e+002, 4.184924e+004
9.733950e+002, 4.188392e+004
9.738771e+002, 4.191332e+004
9.743592e+002, 4.192716e+004
9.748413e+002, 4.192595e+004
9.753234e+002, 4.189394e+004
9.758055e+002, 4.185621e+004
9.762877e+002, 4.185333e+004
9.767698e+002, 4.188234e+004
9.772519e+002, 4.191523e+004
9.777340e+002, 4.193925e+004
9.782161e+002, 4.195373e+004
9.786982e+002, 4.194722e+004
9.791804e+002, 4.193614e+004
9.796625e+002, 4.196019e+004
9.801446e+002, 4.200743e+004
9.806267e+002, 4.203202e+004
9.811088e+002, 4.202683e+004
9.815909e+002, 4.202644e+004
9.820731e+002, 4.205555e+004
9.825552e+002, 4.209665e+004
9.830373e+002, 4.211955e+004
9.835194e+002, 4.212571e+004
9.840015e+002, 4.212140e+004
9.844836e+002, 4.210707e+004
9.849658e+002, 4.210844e+004
9.854479e+002, 4.213498e+004
9.859300e+002, 4.216736e+004
9.864121e+002, 4.218853e+004
9.868942e+002, 4.220027e+004
9.873763e+002, 4.220408e+004
9.878585e+002, 4.219459e+004
9.883406e+002, 4.221746e+004
9.888227e+002, 4.228721e+004
9.893048e+002, 4.234735e+004
9.897869e+002, 4.237440e+004
9.902690e+002, 4.238104e+004
9.907512e+002, 4.237881e+004
9.912333e+002, 4.236878e+004
9.917154e+002, 4.236440e+004
9.921975e+002, 4.235859e+004
9.926796e+002, 4.237446e+004
9.931617e+002, 4.243426e+004
9.936439e+002, 4.248705e+004
9.941260e+002, 4.250532e+004
9.946081e+002, 4.250511e+004
9.950902e+002, 4.250512e+004
9.955723e+002, 4.250494e+004
9.960544e+002, 4.251975e+004
9.965366e+002, 4.257053e+004
9.970187e+002, 4.260746e+004
9.975008e+002, 4.260416e+004
9.979829e+002, 4.260380e+004
9.984650e+002, 4.263888e+004
9.989471e+002, 4.269266e+004
9.994293e+002, 4.273468e+004
9.999114e+002, 4.276052e+004
1.000393e+003, 4.278603e+004
1.000876e+003, 4.280850e+004
1.001358e+003, 4.284011e+004
1.001840e+003, 4.289800e+004
1.002322e+003, 4.295657e+004
1.002804e+003, 4.298869e+004
1.003286e+003, 4.300389e+004
1.003768e+003, 4.302852e+004
1.004250e+003, 4.307007e+004
1.004733e+003, 4.311454e+004
1.005215e+003, 4.315418e+004
1.005697e+003, 4.319430e+004
1.006179e+003, 4.323676e+004
1.006661e+003, 4.328334e+004
1.007143e+003, 4.333681e+004
1.007625e+003, 4.339620e+004
1.008107e+003, 4.346109e+004
1.008589e+003, 4.353188e+004
1.009072e+003, 4.359577e+004
1.009554e+003, 4.363847e+004
1.010036e+003, 4.367059e+004
1.010518e+003, 4.370638e+004
1.011000e+003, 4.374055e+004
1.011482e+003, 4.376559e+004
1.011964e+003, 4.377804e+004
1.012446e+003, 4.377166e+004
1.012929e+003, 4.374229e+004
1.013411e+003, 4.369946e+004
1.013893e+003, 4.365624e+004
1.014375e+003, 4.360726e+004
1.014857e+003, 4.353376e+004
1.015339e+003, 4.344477e+004
1.015821e+003, 4.337405e+004
1.016303e+003, 4.332690e+004
1.016785e+003, 4.327595e+004
1.017268e+003, 4.320174e+004
1.017750e+003, 4.311868e+004
1.018232e+003, 4.305034e+004
1.018714e+003, 4.299280e+004
1.019196e+003, 4.292437e+004
1.019678e+003, 4.284758e+004
1.020160e+003, 4.279027e+004
1.020642e+003, 4.275972e+004
1.021125e+003, 4.273618e+004
1.021607e+003, 4.270393e+004
1.022089e+003, 4.266607e+004
1.022571e+003, 4.262719e+004
1.023053e+003, 4.258754e+004
1.023535e+003, 4.255670e+004
1.024017e+003, 4.253466e+004
1.024499e+003, 4.253637e+004
1.024981e+003, 4.257086e+004
1.025464e+003, 4.259761e+004
1.025946e+003, 4.257615e+004
1.026428e+003, 4.252557e+004
1.026910e+003, 4.250880e+004
1.027392e+003, 4.253087e+004
1.027874e+003, 4.253620e+004
1.028356e+003, 4.251765e+004
1.028838e+003, 4.250994e+004
1.029321e+003, 4.252947e+004
1.029803e+003, 4.255037e+004
1.030285e+003, 4.254617e+004
1.030767e+003, 4.252268e+004
1.031249e+003, 4.250555e+004
1.031731e+003, 4.249338e+004
1.032213e+003, 4.249354e+004
1.032695e+003, 4.251342e+004
1.033177e+003, 4.252639e+004
1.033660e+003, 4.252251e+004
1.034142e+003, 4.250690e+004
1.034624e+003, 4.247814e+004
1.035106e+003, 4.244220e+004
1.035588e+003, 4.243973e+004
1.036070e+003, 4.249377e+004
1.036552e+003, 4.252647e+004
1.037034e+003, 4.253368e+004
1.037516e+003, 4.252431e+004
1.037999e+003, 4.249782e+004
1.038481e+003, 4.245999e+004
1.038963e+003, 4.240784e+004
1.039445e+003, 4.234691e+004
1.039927e+003, 4.232060e+004
1.040409e+003, 4.236591e+004
1.040891e+003, 4.238057e+004
1.041373e+003, 4.233871e+004
1.041855e+003, 4.229895e+004
1.042338e+003, 4.228407e+004
1.042820e+003, 4.228100e+004
1.043302e+003, 4.228129e+004
1.043784e+003, 4.228323e+004
1.044266e+003, 4.227290e+004
1.044748e+003, 4.224067e+004
1.045230e+003, 4.221225e+004
1.045712e+003, 4.217876e+004
1.046195e+003, 4.216195e+004
1.046677e+003, 4.218893e+004
1.047159e+003, 4.222376e+004
1.047641e+003, 4.222233e+004
1.048123e+003, 4.218987e+004
1.048605e+003, 4.217273e+004
1.049087e+003, 4.219045e+004
1.049569e+003, 4.219655e+004
1.050052e+003, 4.217304e+004
1.050534e+003, 4.214961e+004
1.051016e+003, 4.214123e+004
1.051498e+003, 4.213863e+004
1.051980e+003, 4.213210e+004
1.052462e+003, 4.212098e+004
1.052944e+003, 4.210669e+004
1.053426e+003, 4.208194e+004
1.053908e+003, 4.206901e+004
1.054391e+003, 4.208318e+004
1.054873e+003, 4.209843e+004
1.055355e+003, 4.210521e+004
1.055837e+003, 4.210359e+004
1.056319e+003, 4.209115e+004
1.056801e+003, 4.207060e+004
1.057283e+003, 4.205372e+004
1.057765e+003, 4.204527e+004
1.058248e+003, 4.203650e+004
1.058730e+003, 4.201030e+004
1.059212e+003, 4.200001e+004
1.059694e+003, 4.204698e+004
1.060176e+003, 4.210428e+004
1.060658e+003, 4.211399e+004
1.061140e+003, 4.208131e+004
1.061622e+003, 4.205246e+004
1.062104e+003, 4.203938e+004
1.062587e+003, 4.203255e+004
1.063069e+003, 4.203104e+004
1.063551e+003, 4.203212e+004
1.064033e+003, 4.203827e+004
1.064515e+003, 4.204322e+004
1.064997e+003, 4.203479e+004
1.065479e+003, 4.201818e+004
1.065961e+003, 4.201645e+004
1.066443e+003, 4.204245e+004
1.066926e+003, 4.206052e+004
1.067408e+003, 4.204828e+004
1.067890e+003, 4.203261e+004
1.068372e+003, 4.202633e+004
1.068854e+003, 4.202748e+004
1.069336e+003, 4.203599e+004
1.069818e+003, 4.204876e+004
1.070300e+003, 4.205849e+004
1.070782e+003, 4.206319e+004
1.071265e+003, 4.206402e+004
1.071747e+003, 4.206336e+004
1.072229e+003, 4.205681e+004
1.072711e+003, 4.203727e+004
1.073193e+003, 4.201398e+004
1.073675e+003, 4.199553e+004
1.074157e+003, 4.198289e+004
1.074639e+003, 4.197555e+004
1.075122e+003, 4.197402e+004
1.075604e+003, 4.197325e+004
1.076086e+003, 4.198361e+004
1.076568e+003, 4.197922e+004
1.077050e+003, 4.193211e+004
1.077532e+003, 4.187286e+004
1.078014e+003, 4.183088e+004
1.078496e+003, 4.180494e+004
1.078979e+003, 4.178330e+004
1.079461e+003, 4.176287e+004
1.079943e+003, 4.174753e+004
1.080425e+003, 4.174152e+004
1.080907e+003, 4.173827e+004
1.081389e+003, 4.174020e+004
1.081871e+003, 4.173810e+004
1.082353e+003, 4.171801e+004
1.082835e+003, 4.168855e+004
1.083318e+003, 4.167110e+004
1.083800e+003, 4.167026e+004
1.084282e+003, 4.166339e+004
1.084764e+003, 4.163354e+004
1.085246e+003, 4.160468e+004
1.085728e+003, 4.159049e+004
1.086210e+003, 4.158098e+004
1.086692e+003, 4.156277e+004
1.087175e+003, 4.154464e+004
1.087657e+003, 4.154731e+004
1.088139e+003, 4.157254e+004
1.088621e+003, 4.159098e+004
1.089103e+003, 4.159000e+004
1.089585e+003, 4.158093e+004
1.090067e+003, 4.156774e+004
1.090549e+003, 4.154876e+004
1.091031e+003, 4.150938e+004
1.091514e+003, 4.147009e+004
1.091996e+003, 4.146691e+004
1.092478e+003, 4.149943e+004
1.092960e+003, 4.152530e+004
1.093442e+003, 4.152929e+004
1.093924e+003, 4.152656e+004
1.094406e+003, 4.153520e+004
1.094888e+003, 4.152553e+004
1.095370e+003, 4.145593e+004
1.095853e+003, 4.137133e+004
1.096335e+003, 4.133217e+004
1.096817e+003, 4.133619e+004
1.097299e+003, 4.133773e+004
1.097781e+003, 4.132570e+004
1.098263e+003, 4.130934e+004
1.098745e+003, 4.128582e+004
1.099227e+003, 4.126626e+004
1.099709e+003, 4.126631e+004
1.100192e+003, 4.126621e+004
1.100674e+003, 4.123581e+004
1.101156e+003, 4.118657e+004
1.101638e+003, 4.116368e+004
1.102120e+003, 4.118448e+004
1.102602e+003, 4.119645e+004
1.103084e+003, 4.118331e+004
1.103566e+003, 4.116246e+004
1.104049e+003, 4.113401e+004
1.104531e+003, 4.110568e+004
1.105013e+003, 4.107793e+004
1.105495e+003, 4.105605e+004
1.105977e+003, 4.105292e+004
1.106459e+003, 4.107227e+004
1.106941e+003, 4.109335e+004
1.107423e+003, 4.112344e+004
1.107906e+003, 4.114001e+004
1.108388e+003, 4.113489e+004
1.108870e+003, 4.111718e+004
1.109352e+003, 4.108380e+004
1.109834e+003, 4.104643e+004
1.110316e+003, 4.102590e+004
1.110798e+003, 4.102432e+004
1.111280e+003, 4.102125e+004
1.111762e+003, 4.101914e+004
1.112245e+003, 4.101030e+004
1.112727e+003, 4.098916e+004
1.113209e+003, 4.096688e+004
1.113691e+003, 4.094337e+004
1.114173e+003, 4.092531e+004
1.114655e+003, 4.092532e+004
1.115137e+003, 4.094135e+004
1.115619e+003, 4.094680e+004
1.116102e+003, 4.093244e+004
1.116584e+003, 4.092311e+004
1.117066e+003, 4.092357e+004
1.117548e+003, 4.092154e+004
1.118030e+003, 4.090981e+004
1.118512e+003, 4.089655e+004
1.118994e+003, 4.088902e+004
1.119476e+003, 4.088634e+004
1.119958e+003, 4.088496e+004
1.120441e+003, 4.088307e+004
1.120923e+003, 4.088854e+004
1.121405e+003, 4.090350e+004
1.121887e+003, 4.092155e+004
1.122369e+003, 4.094190e+004
1.122851e+003, 4.096400e+004
1.123333e+003, 4.098953e+004
1.123815e+003, 4.101486e+004
1.124297e+003, 4.103365e+004
1.124780e+003, 4.104748e+004
1.125262e+003, 4.103194e+004
1.125744e+003, 4.097180e+004
1.126226e+003, 4.094207e+004
1.126708e+003, 4.096261e+004
1.127190e+003, 4.099067e+004
1.127672e+003, 4.100193e+004
1.128154e+003, 4.101058e+004
1.128636e+003, 4.104106e+004
1.129119e+003, 4.108755e+004
1.129601e+003, 4.109438e+004
1.130083e+003, 4.105496e+004
1.130565e+003, 4.105384e+004
1.131047e+003, 4.110521e+004
1.131529e+003, 4.113526e+004
1.132011e+003, 4.111113e+004
1.132493e+003, 4.107650e+004
1.132976e+003, 4.107411e+004
1.133458e+003, 4.109811e+004
1.133940e+003, 4.114106e+004
1.134422e+003, 4.119937e+004
1.134904e+003, 4.122348e+004
1.135386e+003, 4.121231e+004
1.135868e+003, 4.118543e+004
1.136350e+003, 4.114877e+004
1.136833e+003, 4.111879e+004
1.137315e+003, 4.110717e+004
1.137797e+003, 4.110846e+004
1.138279e+003, 4.111855e+004
1.138761e+003, 4.113298e+004
1.139243e+003, 4.112921e+004
1.139725e+003, 4.111488e+004
1.140207e+003, 4.112937e+004
1.140689e+003, 4.117302e+004
1.141172e+003, 4.120189e+004
1.141654e+003, 4.119536e+004
1.142136e+003, 4.117862e+004
1.142618e+003, 4.117708e+004
1.143100e+003, 4.118379e+004
1.143582e+003, 4.119025e+004
1.144064e+003, 4.119438e+004
1.144546e+003, 4.119360e+004
1.145029e+003, 4.118626e+004
1.145511e+003, 4.116296e+004
1.145993e+003, 4.112471e+004
1.146475e+003, 4.110190e+004
1.146957e+003, 4.112232e+004
1.147439e+003, 4.114729e+004
1.147921e+003, 4.113675e+004
1.148403e+003, 4.111077e+004
1.148885e+003, 4.108681e+004
1.149368e+003, 4.106909e+004
1.149850e+003, 4.106974e+004
1.150332e+003, 4.108211e+004
1.150814e+003, 4.107140e+004
1.151296e+003, 4.101713e+004
1.151778e+003, 4.097845e+004
1.152260e+003, 4.101333e+004
1.152742e+003, 4.105041e+004
1.153224e+003, 4.103487e+004
1.153707e+003, 4.100171e+004
1.154189e+003, 4.099083e+004
1.154671e+003, 4.099453e+004
1.155153e+003, 4.098295e+004
1.155635e+003, 4.094983e+004
1.156117e+003, 4.093129e+004
1.156599e+003, 4.095227e+004
1.157081e+003, 4.097027e+004
1.157563e+003, 4.096692e+004
1.158046e+003, 4.096229e+004
1.158528e+003, 4.097015e+004
1.159010e+003, 4.098329e+004
1.159492e+003, 4.099342e+004
1.159974e+003, 4.099954e+004
1.160456e+003, 4.099934e+004
1.160938e+003, 4.098880e+004
1.161420e+003, 4.097885e+004
1.161903e+003, 4.096293e+004
1.162385e+003, 4.095724e+004
1.162867e+003, 4.097106e+004
1.163349e+003, 4.099117e+004
1.163831e+003, 4.101336e+004
1.164313e+003, 4.103061e+004
1.164795e+003, 4.102216e+004
1.165277e+003, 4.098192e+004
1.165760e+003, 4.096845e+004
1.166242e+003, 4.099185e+004
1.166724e+003, 4.101130e+004
1.167206e+003, 4.102325e+004
1.167688e+003, 4.101914e+004
1.168170e+003, 4.098629e+004
1.168652e+003, 4.096074e+004
1.169134e+003, 4.099545e+004
1.169616e+003, 4.107164e+004
1.170099e+003, 4.109621e+004
1.170581e+003, 4.106851e+004
1.171063e+003, 4.104439e+004
1.171545e+003, 4.102714e+004
1.172027e+003, 4.102443e+004
1.172509e+003, 4.103862e+004
1.172991e+003, 4.106208e+004
1.173473e+003, 4.109099e+004
1.173956e+003, 4.111412e+004
1.174438e+003, 4.110719e+004
1.174920e+003, 4.107985e+004
1.175402e+003, 4.106205e+004
1.175884e+003, 4.105245e+004
1.176366e+003, 4.104608e+004
1.176848e+003, 4.104161e+004
1.177330e+003, 4.103666e+004
1.177813e+003, 4.103055e+004
1.178295e+003, 4.102946e+004
1.178777e+003, 4.103938e+004
1.179259e+003, 4.105671e+004
1.179741e+003, 4.108655e+004
1.180223e+003, 4.111414e+004
1.180705e+003, 4.111305e+004
1.181187e+003, 4.109407e+004
1.181669e+003, 4.108232e+004
1.182151e+003, 4.108155e+004
1.182634e+003, 4.107836e+004
1.183116e+003, 4.106337e+004
1.183598e+003, 4.105747e+004
1.184080e+003, 4.108086e+004
1.184562e+003, 4.110809e+004
1.185044e+003, 4.112554e+004
1.185526e+003, 4.113499e+004
1.186008e+003, 4.113582e+004
1.186490e+003, 4.113164e+004
1.186973e+003, 4.112861e+004
1.187455e+003, 4.112739e+004
1.187937e+003, 4.113268e+004
1.188419e+003, 4.115202e+004
1.188901e+003, 4.116797e+004
1.189383e+003, 4.117412e+004
1.189865e+003, 4.117976e+004
1.190347e+003, 4.119095e+004
1.190830e+003, 4.120288e+004
1.191312e+003, 4.121111e+004
1.191794e+003, 4.121552e+004
1.192276e+003, 4.121553e+004
1.192758e+003, 4.120961e+004
1.193240e+003, 4.120502e+004
1.193722e+003, 4.120393e+004
1.194204e+003, 4.119521e+004
1.194687e+003, 4.116900e+004
1.195169e+003, 4.116140e+004
1.195651e+003, 4.120130e+004
1.196133e+003, 4.125614e+004
1.196615e+003, 4.127390e+004
1.197097e+003, 4.125967e+004
1.197579e+003, 4.124174e+004
1.198061e+003, 4.122036e+004
1.198543e+003, 4.120010e+004
1.199026e+003, 4.118161e+004
1.199508e+003, 4.116423e+004
1.199990e+003, 4.114868e+004
1.200472e+003, 4.115571e+004
1.200954e+003, 4.120646e+004
1.201436e+003, 4.126565e+004
1.201918e+003, 4.128049e+004
1.202400e+003, 4.126501e+004
1.202883e+003, 4.123666e+004
1.203365e+003, 4.120519e+004
1.203847e+003, 4.119220e+004
1.204329e+003, 4.119643e+004
1.204811e+003, 4.120275e+004
1.205293e+003, 4.120536e+004
1.205775e+003, 4.120447e+004
1.206257e+003, 4.119839e+004
1.206740e+003, 4.119168e+004
1.207222e+003, 4.119004e+004
1.207704e+003, 4.118714e+004
1.208186e+003, 4.116523e+004
1.208668e+003, 4.114561e+004
1.209150e+003, 4.117292e+004
1.209632e+003, 4.123611e+004
1.210114e+003, 4.126129e+004
1.210596e+003, 4.121567e+004
1.211078e+003, 4.118643e+004
1.211561e+003, 4.119503e+004
1.212043e+003, 4.121588e+004
1.212525e+003, 4.125512e+004
1.213007e+003, 4.128882e+004
1.213489e+003, 4.130269e+004
1.213971e+003, 4.130048e+004
1.214453e+003, 4.128156e+004
1.214935e+003, 4.124806e+004
1.215417e+003, 4.124764e+004
1.215900e+003, 4.129450e+004
1.216382e+003, 4.131744e+004
1.216864e+003, 4.130688e+004
1.217346e+003, 4.129926e+004
1.217828e+003, 4.130858e+004
1.218310e+003, 4.130776e+004
1.218792e+003, 4.127318e+004
1.219274e+003, 4.122801e+004
1.219757e+003, 4.121744e+004
1.220239e+003, 4.123349e+004
1.220721e+003, 4.123413e+004
1.221203e+003, 4.122448e+004
1.221685e+003, 4.123604e+004
1.222167e+003, 4.126548e+004
1.222649e+003, 4.126827e+004
1.223131e+003, 4.123161e+004
1.223614e+003, 4.119558e+004
1.224096e+003, 4.118959e+004
1.224578e+003, 4.119990e+004
1.225060e+003, 4.121860e+004
1.225542e+003, 4.123844e+004
1.226024e+003, 4.125209e+004
1.226506e+003, 4.125966e+004
1.226988e+003, 4.125936e+004
1.227470e+003, 4.125413e+004
1.227953e+003, 4.125137e+004
1.228435e+003, 4.125298e+004
1.228917e+003, 4.125736e+004
1.229399e+003, 4.126731e+004
1.229881e+003, 4.127461e+004
1.230363e+003, 4.126921e+004
1.230845e+003, 4.126856e+004
1.231327e+003, 4.128960e+004
1.231810e+003, 4.131589e+004
1.232292e+003, 4.132600e+004
1.232774e+003, 4.132438e+004
1.233256e+003, 4.133227e+004
1.233738e+003, 4.136079e+004
1.234220e+003, 4.134509e+004
1.234702e+003, 4.126119e+004
1.235184e+003, 4.121411e+004
1.235667e+003, 4.123062e+004
1.236149e+003, 4.126004e+004
1.236631e+003, 4.128125e+004
1.237113e+003, 4.127957e+004
1.237595e+003, 4.123084e+004
1.238077e+003, 4.115726e+004
1.238559e+003, 4.112443e+004
1.239041e+003, 4.112650e+004
1.239523e+003, 4.114235e+004
1.240005e+003, 4.116401e+004
1.240488e+003, 4.115584e+004
1.240970e+003, 4.111585e+004
1.241452e+003, 4.107536e+004
1.241934e+003, 4.104936e+004
1.242416e+003, 4.104531e+004
1.242898e+003, 4.109579e+004
1.243380e+003, 4.114159e+004
1.243862e+003, 4.110193e+004
1.244344e+003, 4.104335e+004
1.244827e+003, 4.104284e+004
1.245309e+003, 4.107811e+004
1.245791e+003, 4.110682e+004
1.246273e+003, 4.112225e+004
1.246755e+003, 4.113135e+004
1.247237e+003, 4.113452e+004
1.247719e+003, 4.113602e+004
1.248201e+003, 4.113232e+004
1.248684e+003, 4.113343e+004
1.249166e+003, 4.114832e+004
1.249648e+003, 4.116201e+004
1.250130e+003, 4.116338e+004
1.250612e+003, 4.116201e+004
1.251094e+003, 4.117239e+004
1.251576e+003, 4.119180e+004
1.252058e+003, 4.120266e+004
1.252541e+003, 4.120557e+004
1.253023e+003, 4.119211e+004
1.253505e+003, 4.115927e+004
1.253987e+003, 4.114446e+004
1.254469e+003, 4.115639e+004
1.254951e+003, 4.118190e+004
1.255433e+003, 4.121402e+004
1.255915e+003, 4.124520e+004
1.256397e+003, 4.126758e+004
1.256880e+003, 4.128113e+004
1.257362e+003, 4.128451e+004
1.257844e+003, 4.127974e+004
1.258326e+003, 4.125935e+004
1.258808e+003, 4.123810e+004
1.259290e+003, 4.125494e+004
1.259772e+003, 4.130808e+004
1.260254e+003, 4.135840e+004
1.260737e+003, 4.139119e+004
1.261219e+003, 4.141082e+004
1.261701e+003, 4.141756e+004
1.262183e+003, 4.141470e+004
1.262665e+003, 4.139122e+004
1.263147e+003, 4.137211e+004
1.263629e+003, 4.137789e+004
1.264111e+003, 4.139737e+004
1.264594e+003, 4.141440e+004
1.265076e+003, 4.142945e+004
1.265558e+003, 4.145106e+004
1.266040e+003, 4.148674e+004
1.266522e+003, 4.149909e+004
1.267004e+003, 4.148110e+004
1.267486e+003, 4.146136e+004
1.267968e+003, 4.144168e+004
1.268450e+003, 4.144045e+004
1.268932e+003, 4.146918e+004
1.269415e+003, 4.150749e+004
1.269897e+003, 4.153497e+004
1.270379e+003, 4.155013e+004
1.270861e+003, 4.154020e+004
1.271343e+003, 4.151826e+004
1.271825e+003, 4.153232e+004
1.272307e+003, 4.156833e+004
1.272789e+003, 4.157538e+004
1.273271e+003, 4.155323e+004
1.273754e+003, 4.154010e+004
1.274236e+003, 4.154996e+004
1.274718e+003, 4.156250e+004
1.275200e+003, 4.156339e+004
1.275682e+003, 4.156657e+004
1.276164e+003, 4.157814e+004
1.276646e+003, 4.159712e+004
1.277128e+003, 4.163560e+004
1.277611e+003, 4.167148e+004
1.278093e+003, 4.167657e+004
1.278575e+003, 4.165810e+004
1.279057e+003, 4.164141e+004
1.279539e+003, 4.162855e+004
1.280021e+003, 4.162695e+004
1.280503e+003, 4.163071e+004
1.280985e+003, 4.163932e+004
1.281468e+003, 4.166645e+004
1.281950e+003, 4.169703e+004
1.282432e+003, 4.172600e+004
1.282914e+003, 4.174461e+004
1.283396e+003, 4.174438e+004
1.283878e+003, 4.173925e+004
1.284360e+003, 4.175591e+004
1.284842e+003, 4.176813e+004
1.285324e+003, 4.170929e+004
##END=



