##NAMES=Diopside
##RRUFFID=R090046
##IDEAL CHEMISTRY=CaMgSi_2_O_6_
##LOCALITY=Merelani, Tanzania
##OWNER=RRUFF
##SOURCE=Wendell Wilson
##DESCRIPTION=Green crystals associated with graphite, R090047
##STATUS=The identification of this mineral has been confirmed by single-crystal X-ray diffraction.
##URL=rruff.info/R090046
89.78156, 0.0000000E+00
90.26367, 1406.169
90.74579, 1398.368
91.22791, 1403.433
91.71002, 1419.632
92.19214, 1431.544
92.67426, 1422.045
93.15638, 1397.833
93.63850, 1376.699
94.12061, 1362.944
94.60273, 1356.395
95.08485, 1359.887
95.56696, 1374.805
96.04908, 1390.189
96.53120, 1390.160
97.01331, 1375.571
97.49543, 1363.638
97.97755, 1363.396
98.45966, 1374.133
98.94178, 1382.852
99.42390, 1389.800
99.90602, 1394.204
100.3881, 1393.481
100.8703, 1385.971
101.3524, 1379.201
101.8345, 1378.557
102.3166, 1386.952
102.7987, 1388.275
103.2808, 1378.315
103.7630, 1360.560
104.2451, 1351.042
104.7272, 1352.676
105.2093, 1358.583
105.6914, 1365.134
106.1735, 1376.350
106.6557, 1380.861
107.1378, 1372.922
107.6199, 1351.765
108.1020, 1342.734
108.5841, 1354.127
109.0662, 1373.269
109.5484, 1388.931
110.0305, 1389.422
110.5126, 1398.190
110.9947, 1423.505
111.4768, 1471.519
111.9590, 1508.804
112.4411, 1519.257
112.9232, 1520.737
113.4053, 1535.896
113.8874, 1583.762
114.3695, 1633.915
114.8517, 1672.028
115.3338, 1687.743
115.8159, 1713.525
116.2980, 1760.304
116.7801, 1824.305
117.2622, 1896.488
117.7444, 1973.113
118.2265, 2057.531
118.7086, 2151.014
119.1907, 2252.337
119.6728, 2366.849
120.1549, 2496.953
120.6371, 2642.656
121.1192, 2804.678
121.6013, 2993.417
122.0834, 3193.927
122.5655, 3388.609
123.0476, 3568.500
123.5298, 3743.638
124.0119, 3925.281
124.4940, 4112.669
124.9761, 4295.817
125.4582, 4463.548
125.9404, 4620.183
126.4225, 4772.682
126.9046, 4924.489
127.3867, 5073.592
127.8688, 5213.797
128.3509, 5344.063
128.8331, 5475.579
129.3152, 5618.510
129.7973, 5773.248
130.2794, 5937.739
130.7615, 6102.344
131.2436, 6274.787
131.7258, 6481.533
132.2079, 6726.310
132.6900, 6997.378
133.1721, 7275.751
133.6542, 7560.138
134.1364, 7865.991
134.6185, 8207.216
135.1006, 8584.584
135.5827, 8971.707
136.0648, 9366.905
136.5469, 9790.423
137.0291, 10224.22
137.5112, 10677.32
137.9933, 11149.23
138.4754, 11634.74
138.9575, 12145.68
139.4396, 12575.48
139.9218, 12922.23
140.4039, 13176.77
140.8860, 13278.71
141.3681, 13209.47
141.8502, 13017.54
142.3323, 12723.25
142.8145, 12268.93
143.2966, 11849.14
143.7787, 11490.97
144.2608, 11191.52
144.7429, 10953.14
145.2250, 10778.32
145.7072, 10659.86
146.1893, 10592.16
146.6714, 10590.59
147.1535, 10617.11
147.6356, 10669.92
148.1178, 10752.35
148.5999, 10836.27
149.0820, 10912.22
149.5641, 10993.41
150.0462, 11094.67
150.5283, 11223.09
151.0105, 11363.18
151.4926, 11412.39
151.9747, 11466.79
152.4568, 11509.64
152.9389, 11536.14
153.4210, 11552.40
153.9032, 11567.14
154.3853, 11584.24
154.8674, 11597.24
155.3495, 11602.53
155.8316, 11594.06
156.3137, 11591.68
156.7959, 11608.39
157.2780, 11632.34
157.7601, 11641.15
158.2422, 11620.46
158.7243, 11590.61
159.2065, 11559.26
159.6886, 11519.02
160.1707, 11491.76
160.6528, 11487.08
161.1349, 11500.04
161.6170, 11518.10
162.0992, 11540.25
162.5813, 11563.66
163.0634, 11586.32
163.5455, 11606.26
164.0276, 11627.31
164.5097, 11655.85
164.9919, 11688.58
165.4740, 11712.40
165.9561, 11716.15
166.4382, 11710.46
166.9203, 11704.73
167.4024, 11698.84
167.8846, 11696.57
168.3667, 11701.51
168.8488, 11712.88
169.3309, 11725.64
169.8130, 11735.39
170.2952, 11745.09
170.7773, 11758.30
171.2594, 11779.17
171.7415, 11801.61
172.2236, 11820.14
172.7057, 11834.91
173.1879, 11849.83
173.6700, 11865.01
174.1521, 11882.39
174.6342, 11905.33
175.1163, 11936.63
175.5984, 11973.33
176.0806, 12013.05
176.5627, 12055.92
177.0448, 12098.04
177.5269, 12134.73
178.0090, 12167.76
178.4911, 12202.46
178.9733, 12240.69
179.4554, 12281.69
179.9375, 12326.32
180.4196, 12374.70
180.9017, 12422.13
181.3838, 12476.93
181.8660, 12530.43
182.3481, 12552.95
182.8302, 12515.29
183.3123, 12438.60
183.7944, 12366.94
184.2766, 12299.67
184.7587, 12244.33
185.2408, 12212.55
185.7229, 12202.15
186.2050, 12197.99
186.6871, 12190.25
187.1693, 12182.32
187.6514, 12187.34
188.1335, 12206.41
188.6156, 12235.70
189.0977, 12272.41
189.5798, 12315.99
190.0620, 12361.31
190.5441, 12403.53
191.0262, 12444.19
191.5083, 12495.13
191.9904, 12559.77
192.4725, 12629.90
192.9547, 12691.05
193.4368, 12743.50
193.9189, 12796.35
194.4010, 12859.76
194.8831, 12932.27
195.3652, 12992.39
195.8474, 13042.98
196.3295, 13074.23
196.8116, 13059.85
197.2937, 12996.63
197.7758, 12920.88
198.2579, 12849.94
198.7401, 12783.68
199.2222, 12723.28
199.7043, 12665.75
200.1864, 12618.11
200.6685, 12601.55
201.1507, 12621.21
201.6328, 12647.61
202.1149, 12664.43
202.5970, 12671.06
203.0791, 12672.71
203.5612, 12667.08
204.0434, 12658.80
204.5255, 12661.81
205.0076, 12678.80
205.4897, 12698.17
205.9718, 12712.62
206.4539, 12721.21
206.9361, 12730.76
207.4182, 12740.66
207.9003, 12752.58
208.3824, 12773.80
208.8645, 12807.88
209.3466, 12842.34
209.8288, 12868.55
210.3109, 12883.60
210.7930, 12903.30
211.2751, 12929.60
211.7572, 12961.28
212.2393, 12995.44
212.7215, 13032.56
213.2036, 13070.16
213.6857, 13107.34
214.1678, 13145.51
214.6499, 13177.56
215.1320, 13199.20
215.6142, 13214.65
216.0963, 13244.58
216.5784, 13297.76
217.0605, 13348.39
217.5426, 13375.89
218.0247, 13366.43
218.5069, 13375.21
218.9890, 13414.77
219.4711, 13476.74
219.9532, 13520.20
220.4353, 13536.31
220.9175, 13549.30
221.3996, 13574.02
221.8817, 13611.57
222.3638, 13658.58
222.8459, 13719.20
223.3280, 13789.93
223.8102, 13846.16
224.2923, 13878.36
224.7744, 13911.92
225.2565, 13963.21
225.7386, 14038.33
226.2207, 14115.01
226.7029, 14187.84
227.1850, 14260.11
227.6671, 14348.80
228.1492, 14470.05
228.6313, 14584.78
229.1134, 14669.65
229.5956, 14721.71
230.0777, 14752.84
230.5598, 14766.52
231.0419, 14760.63
231.5240, 14721.20
232.0062, 14627.76
232.4883, 14529.04
232.9704, 14455.39
233.4525, 14420.55
233.9346, 14380.43
234.4167, 14326.44
234.8989, 14264.27
235.3810, 14221.03
235.8631, 14201.16
236.3452, 14193.51
236.8273, 14192.30
237.3094, 14199.95
237.7916, 14207.98
238.2737, 14214.56
238.7558, 14220.87
239.2379, 14232.80
239.7200, 14253.12
240.2021, 14275.02
240.6843, 14295.00
241.1664, 14312.06
241.6485, 14329.47
242.1306, 14347.38
242.6127, 14366.01
243.0948, 14384.96
243.5770, 14402.72
244.0591, 14423.60
244.5412, 14450.47
245.0233, 14488.22
245.5054, 14521.66
245.9876, 14546.51
246.4697, 14567.39
246.9518, 14600.71
247.4339, 14654.26
247.9160, 14708.85
248.3981, 14753.42
248.8803, 14779.83
249.3624, 14816.03
249.8445, 14863.77
250.3266, 14920.98
250.8087, 14983.33
251.2908, 15053.22
251.7730, 15122.89
252.2551, 15186.89
252.7372, 15240.36
253.2193, 15302.90
253.7014, 15382.71
254.1835, 15467.37
254.6657, 15528.43
255.1478, 15564.61
255.6299, 15579.56
256.1120, 15574.33
256.5941, 15547.57
257.0763, 15503.26
257.5584, 15432.12
258.0405, 15349.04
258.5226, 15284.86
259.0047, 15243.97
259.4868, 15211.93
259.9690, 15182.66
260.4511, 15153.89
260.9332, 15139.85
261.4153, 15145.53
261.8974, 15161.38
262.3795, 15169.91
262.8617, 15165.62
263.3438, 15167.46
263.8259, 15185.32
264.3080, 15223.19
264.7901, 15245.17
265.2722, 15243.42
265.7544, 15234.92
266.2365, 15245.71
266.7186, 15281.67
267.2007, 15318.57
267.6828, 15349.09
268.1649, 15373.40
268.6471, 15395.95
269.1292, 15418.13
269.6113, 15437.19
270.0934, 15447.20
270.5755, 15444.15
271.0576, 15448.16
271.5398, 15466.11
272.0219, 15497.77
272.5040, 15528.92
272.9861, 15559.42
273.4682, 15588.93
273.9503, 15615.75
274.4325, 15638.29
274.9146, 15666.76
275.3967, 15706.67
275.8788, 15755.70
276.3610, 15791.73
276.8431, 15812.13
277.3252, 15826.58
277.8073, 15841.85
278.2894, 15857.60
278.7715, 15879.72
279.2537, 15912.07
279.7358, 15951.49
280.2179, 15985.46
280.7000, 16014.20
281.1821, 16037.71
281.6642, 16054.52
282.1464, 16064.65
282.6285, 16074.67
283.1106, 16081.96
283.5927, 16092.77
284.0748, 16127.92
284.5569, 16189.60
285.0391, 16256.00
285.5212, 16313.22
286.0033, 16361.59
286.4854, 16407.39
286.9675, 16450.99
287.4496, 16492.46
287.9318, 16531.74
288.4139, 16569.06
288.8960, 16605.03
289.3781, 16641.63
289.8602, 16678.25
290.3423, 16710.97
290.8245, 16738.77
291.3066, 16765.12
291.7887, 16793.99
292.2708, 16825.71
292.7529, 16861.06
293.2350, 16900.56
293.7172, 16944.18
294.1993, 16989.33
294.6814, 17035.38
295.1635, 17086.58
295.6456, 17151.05
296.1277, 17226.01
296.6099, 17299.49
297.0920, 17359.61
297.5741, 17414.50
298.0562, 17482.28
298.5383, 17563.54
299.0204, 17644.48
299.5026, 17704.86
299.9847, 17752.83
300.4668, 17812.41
300.9489, 17899.04
301.4311, 17998.62
301.9132, 18091.93
302.3953, 18179.88
302.8774, 18261.20
303.3595, 18329.19
303.8416, 18391.39
304.3238, 18463.42
304.8059, 18554.51
305.2880, 18651.61
305.7701, 18739.36
306.2522, 18819.71
306.7343, 18899.25
307.2165, 18977.81
307.6986, 19060.46
308.1807, 19154.03
308.6628, 19264.09
309.1449, 19380.80
309.6270, 19499.40
310.1092, 19620.35
310.5913, 19741.74
311.0734, 19860.54
311.5555, 19980.61
312.0376, 20103.92
312.5197, 20231.61
313.0019, 20360.60
313.4840, 20493.84
313.9661, 20628.80
314.4482, 20761.50
314.9303, 20881.57
315.4124, 21005.46
315.8946, 21141.48
316.3767, 21291.57
316.8588, 21452.71
317.3409, 21629.09
317.8230, 21815.83
318.3051, 22005.60
318.7873, 22185.80
319.2694, 22380.38
319.7515, 22608.04
320.2336, 22872.55
320.7157, 23126.53
321.1978, 23362.78
321.6800, 23577.51
322.1621, 23766.21
322.6442, 23940.88
323.1263, 24075.88
323.6084, 24172.26
324.0905, 24228.39
324.5727, 24222.87
325.0548, 24141.10
325.5369, 24004.39
326.0190, 23825.63
326.5012, 23588.46
326.9833, 23329.07
327.4654, 23033.85
327.9475, 22714.72
328.4296, 22423.12
328.9117, 22166.43
329.3939, 21931.16
329.8760, 21709.25
330.3581, 21492.80
330.8402, 21303.27
331.3223, 21145.25
331.8044, 21011.14
332.2866, 20885.17
332.7687, 20764.63
333.2508, 20657.00
333.7329, 20563.23
334.2150, 20482.34
334.6971, 20418.43
335.1793, 20373.76
335.6614, 20343.16
336.1435, 20322.06
336.6256, 20313.94
337.1077, 20306.45
337.5898, 20294.30
338.0720, 20278.68
338.5541, 20281.81
339.0362, 20308.82
339.5183, 20344.68
340.0004, 20375.63
340.4825, 20401.30
340.9647, 20428.52
341.4468, 20457.32
341.9289, 20489.04
342.4110, 20529.52
342.8931, 20578.94
343.3752, 20632.29
343.8574, 20685.42
344.3395, 20738.57
344.8216, 20791.11
345.3037, 20839.92
345.7858, 20893.06
346.2679, 20967.01
346.7501, 21061.17
347.2322, 21159.25
347.7143, 21255.95
348.1964, 21350.41
348.6785, 21439.47
349.1607, 21523.08
349.6428, 21607.60
350.1249, 21700.96
350.6070, 21802.09
351.0891, 21909.57
351.5713, 22022.21
352.0534, 22139.97
352.5355, 22266.22
353.0176, 22399.40
353.4997, 22535.91
353.9818, 22675.81
354.4640, 22815.82
354.9461, 22954.20
355.4282, 23097.27
355.9103, 23228.02
356.3924, 23330.26
356.8745, 23407.31
357.3567, 23469.79
357.8388, 23530.10
358.3209, 23575.97
358.8030, 23593.85
359.2851, 23573.16
359.7672, 23546.39
360.2494, 23534.60
360.7315, 23528.49
361.2136, 23511.17
361.6957, 23468.09
362.1778, 23418.62
362.6599, 23371.38
363.1421, 23327.09
363.6242, 23284.00
364.1063, 23235.88
364.5884, 23190.50
365.0705, 23156.17
365.5526, 23133.89
366.0348, 23123.09
366.5169, 23129.73
366.9990, 23152.22
367.4811, 23166.69
367.9632, 23172.89
368.4453, 23168.91
368.9275, 23153.25
369.4096, 23110.92
369.8917, 23077.54
370.3738, 23051.08
370.8559, 23034.01
371.3380, 23033.53
371.8202, 23052.89
372.3023, 23084.59
372.7844, 23126.03
373.2665, 23177.13
373.7487, 23238.33
374.2308, 23314.13
374.7129, 23395.70
375.1950, 23469.88
375.6771, 23530.94
376.1592, 23604.08
376.6414, 23697.37
377.1235, 23809.56
377.6056, 23933.54
378.0877, 24074.41
378.5698, 24214.31
379.0519, 24335.86
379.5341, 24437.99
380.0162, 24548.89
380.4983, 24672.21
380.9804, 24807.42
381.4625, 24943.86
381.9446, 25083.49
382.4268, 25239.56
382.9089, 25426.66
383.3910, 25637.43
383.8731, 25854.76
384.3552, 26075.85
384.8373, 26304.57
385.3195, 26544.07
385.8016, 26793.54
386.2837, 27055.96
386.7658, 27341.72
387.2479, 27632.96
387.7300, 27918.13
388.2122, 28195.12
388.6943, 28448.81
389.1764, 28681.85
389.6585, 28879.01
390.1406, 29016.93
390.6227, 29093.91
391.1049, 29103.74
391.5870, 29040.12
392.0691, 28904.92
392.5512, 28703.87
393.0333, 28398.49
393.5154, 28056.81
393.9976, 27717.20
394.4797, 27381.79
394.9618, 27060.25
395.4439, 26754.32
395.9260, 26464.48
396.4081, 26192.55
396.8903, 25934.21
397.3724, 25695.03
397.8545, 25471.29
398.3366, 25262.57
398.8188, 25083.73
399.3009, 24947.37
399.7830, 24833.69
400.2651, 24730.14
400.7472, 24627.45
401.2293, 24549.20
401.7115, 24504.92
402.1936, 24484.45
402.6757, 24455.96
403.1578, 24410.06
403.6399, 24371.96
404.1220, 24353.95
404.6042, 24359.14
405.0863, 24365.19
405.5684, 24372.45
406.0505, 24379.74
406.5326, 24385.27
407.0147, 24388.84
407.4969, 24392.69
407.9790, 24397.14
408.4611, 24402.65
408.9432, 24411.00
409.4253, 24422.36
409.9074, 24435.66
410.3896, 24448.62
410.8717, 24462.54
411.3538, 24483.84
411.8359, 24514.57
412.3180, 24549.69
412.8001, 24583.76
413.2823, 24616.07
413.7644, 24646.35
414.2465, 24668.50
414.7286, 24690.73
415.2107, 24728.27
415.6928, 24781.85
416.1750, 24832.79
416.6571, 24867.12
417.1392, 24889.63
417.6213, 24907.71
418.1034, 24917.97
418.5855, 24930.39
419.0677, 24949.61
419.5498, 24975.61
420.0319, 25007.39
420.5140, 25053.14
420.9961, 25098.91
421.4782, 25134.41
421.9604, 25151.41
422.4425, 25176.47
422.9246, 25222.49
423.4067, 25277.49
423.8889, 25325.67
424.3710, 25355.43
424.8531, 25388.20
425.3352, 25431.97
425.8173, 25486.93
426.2994, 25528.41
426.7816, 25547.97
427.2637, 25562.22
427.7458, 25580.40
428.2279, 25599.62
428.7100, 25632.17
429.1921, 25685.57
429.6743, 25748.14
430.1564, 25789.53
430.6385, 25805.72
431.1206, 25816.07
431.6027, 25824.43
432.0848, 25831.52
432.5670, 25854.84
433.0491, 25897.13
433.5312, 25945.09
434.0133, 25984.88
434.4954, 26017.89
434.9775, 26053.28
435.4597, 26094.52
435.9418, 26138.07
436.4239, 26173.49
436.9060, 26202.60
437.3881, 26238.73
437.8702, 26298.01
438.3524, 26366.49
438.8345, 26423.32
439.3166, 26465.02
439.7987, 26502.43
440.2808, 26542.47
440.7629, 26584.11
441.2451, 26625.42
441.7272, 26670.45
442.2093, 26710.30
442.6914, 26736.15
443.1735, 26750.38
443.6556, 26768.88
444.1378, 26795.95
444.6199, 26830.64
445.1020, 26872.98
445.5841, 26926.35
446.0662, 26981.34
446.5483, 27043.02
447.0305, 27104.83
447.5126, 27155.45
447.9947, 27179.73
448.4768, 27210.70
448.9590, 27258.17
449.4411, 27322.28
449.9232, 27379.34
450.4053, 27425.11
450.8874, 27469.95
451.3695, 27521.12
451.8517, 27580.01
452.3338, 27639.42
452.8159, 27699.78
453.2980, 27757.58
453.7801, 27802.66
454.2622, 27833.15
454.7444, 27871.15
455.2265, 27932.72
455.7086, 28010.82
456.1907, 28070.64
456.6728, 28112.00
457.1549, 28148.76
457.6371, 28193.34
458.1192, 28244.12
458.6013, 28299.18
459.0834, 28359.95
459.5655, 28420.40
460.0476, 28472.29
460.5298, 28518.07
461.0119, 28562.33
461.4940, 28610.59
461.9761, 28657.39
462.4582, 28695.48
462.9403, 28723.68
463.4225, 28758.37
463.9046, 28820.98
464.3867, 28887.62
464.8688, 28934.31
465.3509, 28933.24
465.8330, 28937.77
466.3152, 28965.68
466.7973, 29009.11
467.2794, 29039.07
467.7615, 29036.34
468.2436, 29037.55
468.7257, 29056.00
469.2079, 29095.29
469.6900, 29133.93
470.1721, 29172.30
470.6542, 29208.89
471.1363, 29241.11
471.6184, 29266.96
472.1006, 29296.19
472.5827, 29331.25
473.0648, 29370.32
473.5469, 29409.68
474.0291, 29449.95
474.5112, 29484.64
474.9933, 29502.40
475.4754, 29510.03
475.9575, 29539.24
476.4396, 29592.93
476.9218, 29655.21
477.4039, 29710.97
477.8860, 29761.88
478.3681, 29810.87
478.8502, 29856.52
479.3323, 29903.08
479.8145, 29955.57
480.2966, 30012.95
480.7787, 30069.53
481.2608, 30125.62
481.7429, 30178.34
482.2250, 30225.16
482.7072, 30265.21
483.1893, 30302.40
483.6714, 30338.63
484.1535, 30372.64
484.6356, 30403.21
485.1177, 30422.21
485.5999, 30448.00
486.0820, 30486.16
486.5641, 30534.18
487.0462, 30583.89
487.5283, 30636.75
488.0104, 30690.38
488.4926, 30745.19
488.9747, 30801.54
489.4568, 30853.85
489.9389, 30898.01
490.4210, 30944.82
490.9031, 31007.77
491.3853, 31088.07
491.8674, 31166.80
492.3495, 31241.49
492.8316, 31309.48
493.3137, 31358.79
493.7958, 31391.40
494.2780, 31430.07
494.7601, 31489.07
495.2422, 31562.49
495.7243, 31640.08
496.2064, 31722.46
496.6885, 31803.23
497.1707, 31882.45
497.6528, 31957.12
498.1349, 32022.03
498.6170, 32065.74
499.0992, 32114.83
499.5813, 32191.37
500.0634, 32284.95
500.5455, 32370.77
501.0276, 32431.21
501.5097, 32490.49
501.9919, 32560.69
502.4740, 32644.48
502.9561, 32722.93
503.4382, 32787.24
503.9203, 32852.08
504.4024, 32928.30
504.8846, 33019.37
505.3667, 33113.77
505.8488, 33214.37
506.3309, 33315.29
506.8130, 33404.71
507.2951, 33482.80
507.7773, 33548.21
508.2594, 33598.48
508.7415, 33634.79
509.2236, 33667.93
509.7057, 33698.75
510.1878, 33716.89
510.6700, 33704.76
511.1521, 33672.84
511.6342, 33649.74
512.1163, 33638.37
512.5984, 33643.13
513.0806, 33677.15
513.5627, 33730.50
514.0448, 33782.48
514.5269, 33826.27
515.0090, 33863.38
515.4911, 33892.23
515.9733, 33913.82
516.4554, 33934.99
516.9375, 33953.20
517.4196, 33975.26
517.9017, 34008.34
518.3839, 34065.47
518.8660, 34102.81
519.3481, 34093.02
519.8302, 34071.39
520.3123, 34076.09
520.7944, 34120.77
521.2766, 34167.64
521.7587, 34212.28
522.2408, 34255.32
522.7229, 34301.14
523.2050, 34352.23
523.6871, 34399.29
524.1693, 34432.01
524.6514, 34452.62
525.1335, 34496.26
525.6156, 34565.61
526.0977, 34642.91
526.5798, 34715.69
527.0620, 34783.04
527.5441, 34840.01
528.0262, 34881.84
528.5083, 34919.32
528.9904, 34957.27
529.4725, 34998.58
529.9547, 35050.76
530.4368, 35131.69
530.9189, 35211.98
531.4010, 35266.26
531.8831, 35294.79
532.3652, 35330.96
532.8474, 35403.11
533.3295, 35474.93
533.8116, 35522.89
534.2937, 35521.59
534.7758, 35535.09
535.2579, 35573.51
535.7401, 35623.85
536.2222, 35666.84
536.7043, 35703.10
537.1864, 35732.39
537.6685, 35747.61
538.1506, 35757.60
538.6328, 35808.21
539.1149, 35907.15
539.5970, 36004.62
540.0791, 36065.75
540.5612, 36098.88
541.0433, 36136.00
541.5255, 36177.74
542.0076, 36227.02
542.4897, 36285.84
542.9718, 36354.38
543.4539, 36436.38
543.9360, 36541.15
544.4182, 36641.84
544.9003, 36707.90
545.3824, 36752.39
545.8645, 36804.93
546.3466, 36886.97
546.8287, 36970.57
547.3109, 37040.59
547.7930, 37095.45
548.2751, 37154.60
548.7572, 37220.21
549.2393, 37291.74
549.7214, 37370.82
550.2036, 37469.26
550.6857, 37547.64
551.1678, 37595.09
551.6499, 37634.73
552.1320, 37701.86
552.6141, 37802.84
553.0963, 37893.13
553.5784, 37959.23
554.0605, 38011.42
554.5426, 38074.48
555.0247, 38148.31
555.5068, 38229.49
555.9890, 38314.16
556.4711, 38404.57
556.9532, 38511.99
557.4353, 38636.39
557.9174, 38746.80
558.3995, 38815.54
558.8817, 38858.16
559.3638, 38890.60
559.8459, 38914.61
560.3281, 38931.77
560.8102, 38940.20
561.2923, 38942.64
561.7744, 38943.50
562.2565, 38945.03
562.7386, 38943.53
563.2208, 38936.12
563.7029, 38924.48
564.1850, 38918.43
564.6671, 38917.04
565.1492, 38923.50
565.6313, 38939.53
566.1135, 38965.13
566.5956, 39000.57
567.0777, 39047.54
567.5598, 39097.29
568.0419, 39139.44
568.5240, 39175.54
569.0062, 39217.32
569.4883, 39268.23
569.9704, 39321.38
570.4525, 39365.82
570.9346, 39405.36
571.4167, 39447.50
571.8989, 39494.38
572.3810, 39547.34
572.8631, 39613.99
573.3452, 39690.81
573.8273, 39758.28
574.3094, 39795.17
574.7916, 39831.23
575.2737, 39883.64
575.7558, 39959.51
576.2379, 40034.02
576.7200, 40110.85
577.2021, 40181.57
577.6843, 40236.59
578.1664, 40266.15
578.6485, 40307.79
579.1306, 40368.83
579.6127, 40439.84
580.0948, 40503.68
580.5770, 40559.95
581.0591, 40616.60
581.5412, 40675.83
582.0233, 40737.33
582.5054, 40807.27
582.9875, 40882.19
583.4697, 40942.38
583.9518, 40955.72
584.4339, 40956.54
584.9160, 40982.22
585.3981, 41038.40
585.8802, 41106.76
586.3624, 41199.02
586.8445, 41288.91
587.3266, 41351.97
587.8087, 41347.13
588.2908, 41362.10
588.7729, 41420.88
589.2551, 41501.76
589.7372, 41568.17
590.2193, 41611.10
590.7014, 41656.77
591.1835, 41710.43
591.6656, 41771.21
592.1478, 41834.97
592.6299, 41900.82
593.1120, 41969.19
593.5941, 42047.54
594.0762, 42128.73
594.5583, 42175.89
595.0405, 42185.46
595.5226, 42209.20
596.0047, 42319.90
596.4868, 42464.79
596.9689, 42565.13
597.4510, 42589.51
597.9332, 42604.96
598.4153, 42653.63
598.8974, 42717.68
599.3795, 42771.55
599.8616, 42792.84
600.3438, 42821.84
600.8259, 42872.41
601.3080, 42939.53
601.7901, 43002.17
602.2722, 43055.49
602.7543, 43110.89
603.2365, 43173.59
603.7186, 43242.37
604.2007, 43307.09
604.6828, 43365.52
605.1649, 43422.96
605.6470, 43479.48
606.1292, 43536.58
606.6113, 43610.16
607.0934, 43703.46
607.5755, 43793.41
608.0576, 43849.61
608.5398, 43886.69
609.0219, 43928.77
609.5040, 43991.66
609.9861, 44052.27
610.4683, 44101.24
610.9504, 44139.63
611.4325, 44169.68
611.9146, 44174.95
612.3967, 44191.28
612.8788, 44233.64
613.3610, 44300.05
613.8431, 44368.78
614.3252, 44443.80
614.8073, 44514.47
615.2894, 44569.97
615.7715, 44607.43
616.2537, 44682.75
616.7358, 44802.23
617.2179, 44925.19
617.7000, 45001.41
618.1821, 45044.27
618.6642, 45102.83
619.1464, 45189.41
619.6285, 45278.71
620.1106, 45336.79
620.5927, 45380.96
621.0748, 45441.24
621.5569, 45551.69
622.0391, 45658.71
622.5212, 45735.03
623.0033, 45789.87
623.4854, 45851.26
623.9675, 45928.39
624.4496, 46010.34
624.9318, 46096.82
625.4139, 46188.17
625.8960, 46276.76
626.3781, 46366.95
626.8602, 46444.21
627.3423, 46489.35
627.8245, 46504.08
628.3066, 46548.15
628.7887, 46624.33
629.2708, 46719.29
629.7529, 46826.25
630.2350, 46939.66
630.7172, 47050.73
631.1993, 47158.17
631.6814, 47258.32
632.1635, 47345.14
632.6456, 47422.34
633.1277, 47497.82
633.6099, 47572.29
634.0920, 47647.02
634.5741, 47725.34
635.0562, 47805.04
635.5383, 47879.79
636.0204, 47942.87
636.5026, 48012.33
636.9847, 48098.77
637.4668, 48200.45
637.9489, 48284.23
638.4310, 48348.19
638.9131, 48409.26
639.3953, 48472.29
639.8774, 48541.80
640.3595, 48640.90
640.8416, 48772.51
641.3237, 48910.35
641.8058, 49021.58
642.2880, 49123.96
642.7701, 49239.57
643.2522, 49375.56
643.7343, 49520.77
644.2164, 49672.04
644.6985, 49829.74
645.1807, 49992.99
645.6628, 50157.62
646.1449, 50332.80
646.6270, 50517.79
647.1091, 50714.55
647.5912, 50924.68
648.0734, 51156.05
648.5555, 51382.24
649.0376, 51587.29
649.5197, 51784.68
650.0018, 52034.22
650.4839, 52338.71
650.9661, 52664.66
651.4482, 52994.82
651.9303, 53334.74
652.4124, 53703.00
652.8945, 54099.80
653.3766, 54495.01
653.8588, 54854.32
654.3409, 55211.12
654.8230, 55599.30
655.3051, 56030.49
655.7872, 56469.25
656.2693, 56887.82
656.7515, 57322.45
657.2336, 57808.27
657.7158, 58368.06
658.1979, 58926.32
658.6800, 59469.35
659.1621, 60015.44
659.6442, 60602.20
660.1263, 61226.79
660.6085, 61853.82
661.0906, 62469.70
661.5727, 63075.86
662.0548, 63699.07
662.5369, 64328.65
663.0190, 64924.79
663.5012, 65499.30
663.9833, 66007.26
664.4654, 66428.15
664.9475, 66755.36
665.4296, 66970.63
665.9117, 67096.08
666.3939, 67086.40
666.8760, 66908.64
667.3581, 66559.83
667.8402, 66097.22
668.3223, 65494.98
668.8044, 64814.38
669.2866, 64096.07
669.7687, 63335.38
670.2508, 62555.77
670.7329, 61743.04
671.2150, 60964.96
671.6971, 60274.84
672.1793, 59667.60
672.6614, 59150.36
673.1435, 58735.72
673.6256, 58364.05
674.1077, 57977.30
674.5898, 57598.09
675.0720, 57266.86
675.5541, 57006.63
676.0362, 56779.24
676.5183, 56583.28
677.0004, 56416.22
677.4825, 56266.73
677.9647, 56137.08
678.4468, 56026.11
678.9289, 55934.93
679.4110, 55863.59
679.8931, 55808.61
680.3752, 55771.16
680.8574, 55741.82
681.3395, 55714.07
681.8216, 55690.69
682.3037, 55680.27
682.7858, 55681.67
683.2679, 55684.52
683.7501, 55672.09
684.2322, 55663.66
684.7143, 55677.10
685.1964, 55716.95
685.6785, 55759.74
686.1606, 55796.51
686.6428, 55835.18
687.1249, 55882.44
687.6070, 55944.82
688.0891, 56000.68
688.5712, 56049.13
689.0533, 56093.89
689.5355, 56139.20
690.0176, 56185.93
690.4997, 56231.96
690.9818, 56276.25
691.4639, 56323.70
691.9460, 56380.63
692.4282, 56444.70
692.9103, 56509.89
693.3924, 56571.27
693.8745, 56635.64
694.3566, 56703.31
694.8387, 56775.71
695.3209, 56856.73
695.8030, 56948.58
696.2851, 57046.71
696.7672, 57155.31
697.2493, 57270.17
697.7314, 57363.83
698.2136, 57429.08
698.6957, 57496.36
699.1778, 57583.88
699.6599, 57684.49
700.1420, 57760.99
700.6241, 57815.12
701.1063, 57867.84
701.5884, 57929.48
702.0705, 58001.05
702.5526, 58091.84
703.0347, 58202.26
703.5168, 58297.13
703.9990, 58339.00
704.4811, 58372.54
704.9632, 58429.02
705.4453, 58522.79
705.9274, 58608.62
706.4095, 58682.59
706.8917, 58752.43
707.3738, 58826.84
707.8560, 58906.11
708.3381, 58974.25
708.8202, 59027.20
709.3023, 59079.38
709.7844, 59150.30
710.2665, 59234.99
710.7487, 59322.13
711.2308, 59409.43
711.7129, 59495.71
712.1950, 59575.99
712.6771, 59656.52
713.1592, 59746.91
713.6414, 59868.49
714.1235, 59977.52
714.6056, 60052.23
715.0877, 60109.39
715.5698, 60180.07
716.0519, 60266.70
716.5341, 60359.59
717.0162, 60458.79
717.4983, 60559.50
717.9804, 60643.76
718.4625, 60712.91
718.9446, 60778.54
719.4268, 60843.60
719.9089, 60909.95
720.3910, 60983.51
720.8731, 61061.76
721.3552, 61136.88
721.8373, 61189.54
722.3195, 61251.44
722.8016, 61353.46
723.2837, 61496.02
723.7658, 61595.01
724.2479, 61611.20
724.7300, 61633.45
725.2122, 61706.38
725.6943, 61830.99
726.1764, 61938.46
726.6585, 62027.29
727.1406, 62116.46
727.6227, 62236.12
728.1049, 62366.12
728.5870, 62449.26
729.0691, 62479.93
729.5512, 62506.23
730.0333, 62550.23
730.5154, 62613.26
730.9976, 62698.76
731.4797, 62815.75
731.9618, 62929.72
732.4439, 63035.75
732.9260, 63135.76
733.4081, 63231.28
733.8903, 63319.91
734.3724, 63413.94
734.8545, 63516.72
735.3366, 63616.89
735.8187, 63688.68
736.3008, 63741.67
736.7830, 63823.52
737.2651, 63949.93
737.7472, 64088.05
738.2293, 64204.82
738.7114, 64310.95
739.1935, 64422.29
739.6757, 64573.13
740.1578, 64691.32
740.6399, 64717.24
741.1220, 64707.91
741.6041, 64767.49
742.0862, 64941.77
742.5684, 65079.12
743.0505, 65143.93
743.5326, 65170.63
744.0147, 65237.57
744.4968, 65341.38
744.9789, 65448.19
745.4611, 65552.85
745.9432, 65645.89
746.4253, 65710.80
746.9074, 65754.95
747.3895, 65796.04
747.8716, 65828.31
748.3538, 65875.05
748.8359, 65960.80
749.3180, 66076.09
749.8001, 66165.23
750.2822, 66205.30
750.7643, 66260.12
751.2465, 66358.63
751.7286, 66486.83
752.2107, 66561.30
752.6928, 66581.25
753.1749, 66613.27
753.6570, 66694.48
754.1392, 66810.61
754.6213, 66950.57
755.1034, 67109.07
755.5855, 67251.84
756.0676, 67342.70
756.5498, 67427.38
757.0319, 67538.25
757.5140, 67676.71
757.9962, 67793.42
758.4783, 67861.20
758.9604, 67939.91
759.4425, 68067.08
759.9246, 68239.11
760.4067, 68357.66
760.8889, 68416.34
761.3710, 68472.91
761.8531, 68576.45
762.3352, 68706.08
762.8173, 68826.84
763.2994, 68936.52
763.7816, 69033.09
764.2637, 69115.12
764.7458, 69184.03
765.2279, 69235.36
765.7100, 69263.86
766.1921, 69310.75
766.6743, 69385.83
767.1564, 69471.65
767.6385, 69556.68
768.1206, 69640.57
768.6027, 69735.23
769.0848, 69841.86
769.5670, 69951.52
770.0491, 70057.88
770.5312, 70161.29
771.0133, 70260.27
771.4954, 70353.27
771.9775, 70452.66
772.4597, 70566.20
772.9418, 70688.57
773.4239, 70821.42
773.9060, 70984.57
774.3881, 71103.34
774.8702, 71154.64
775.3524, 71186.25
775.8345, 71237.26
776.3166, 71309.73
776.7987, 71381.98
777.2808, 71450.08
777.7629, 71531.23
778.2451, 71656.32
778.7272, 71805.30
779.2093, 71939.55
779.6914, 72049.95
780.1735, 72147.09
780.6556, 72215.64
781.1378, 72283.77
781.6199, 72379.64
782.1020, 72527.13
782.5841, 72667.82
783.0662, 72801.86
783.5483, 72927.74
784.0305, 73040.61
784.5126, 73140.68
784.9947, 73240.94
785.4768, 73344.73
785.9589, 73439.14
786.4410, 73498.13
786.9232, 73539.39
787.4053, 73596.15
787.8874, 73679.45
788.3695, 73772.44
788.8516, 73871.16
789.3337, 73974.62
789.8159, 74084.83
790.2980, 74223.78
790.7801, 74324.37
791.2622, 74362.34
791.7443, 74390.29
792.2264, 74483.92
792.7086, 74639.73
793.1907, 74778.69
793.6728, 74888.41
794.1549, 74981.28
794.6370, 75068.15
795.1191, 75150.34
795.6013, 75231.02
796.0834, 75313.38
796.5655, 75390.32
797.0476, 75445.16
797.5297, 75501.61
798.0118, 75588.76
798.4940, 75721.24
798.9761, 75854.57
799.4582, 75988.45
799.9403, 76117.39
800.4224, 76240.43
800.9045, 76355.38
801.3867, 76450.03
801.8688, 76516.37
802.3509, 76580.56
802.8330, 76658.98
803.3151, 76753.67
803.7972, 76867.65
804.2794, 77016.88
804.7615, 77160.10
805.2436, 77295.45
805.7258, 77417.76
806.2079, 77513.82
806.6900, 77566.55
807.1721, 77668.83
807.6542, 77842.63
808.1364, 78031.11
808.6185, 78156.54
809.1006, 78233.77
809.5827, 78306.32
810.0648, 78384.02
810.5469, 78457.61
811.0291, 78507.84
811.5112, 78555.16
811.9933, 78624.11
812.4754, 78727.34
812.9575, 78842.70
813.4396, 78984.11
813.9218, 79122.86
814.4039, 79218.41
814.8860, 79268.20
815.3681, 79341.53
815.8502, 79452.80
816.3323, 79563.77
816.8145, 79606.64
817.2966, 79624.00
817.7787, 79698.88
818.2608, 79867.98
818.7429, 80036.95
819.2250, 80153.22
819.7072, 80252.00
820.1893, 80369.59
820.6714, 80524.20
821.1535, 80655.84
821.6356, 80753.84
822.1177, 80847.45
822.5999, 80973.54
823.0820, 81125.13
823.5641, 81254.45
824.0462, 81354.02
824.5283, 81449.09
825.0104, 81552.48
825.4926, 81668.04
825.9747, 81805.77
826.4568, 81982.48
826.9389, 82126.91
827.4210, 82183.59
827.9031, 82233.30
828.3853, 82333.02
828.8674, 82493.73
829.3495, 82650.46
829.8316, 82803.88
830.3137, 82944.20
830.7958, 83051.16
831.2780, 83137.52
831.7601, 83233.00
832.2422, 83340.95
832.7243, 83444.65
833.2064, 83518.07
833.6885, 83594.39
834.1707, 83707.98
834.6528, 83882.66
835.1349, 84004.52
835.6170, 84038.87
836.0991, 84080.08
836.5812, 84202.66
837.0634, 84398.67
837.5455, 84536.92
838.0276, 84616.96
838.5097, 84712.34
838.9918, 84900.59
839.4739, 85121.13
839.9561, 85309.58
840.4382, 85462.10
840.9203, 85603.41
841.4024, 85736.12
841.8845, 85863.42
842.3666, 85988.59
842.8488, 86111.64
843.3309, 86221.27
843.8130, 86312.82
844.2951, 86420.36
844.7772, 86580.06
845.2593, 86767.03
845.7415, 86920.06
846.2236, 87044.63
846.7057, 87163.31
847.1878, 87269.45
847.6699, 87392.16
848.1520, 87558.43
848.6342, 87762.63
849.1163, 87947.62
849.5984, 88086.52
850.0805, 88254.45
850.5626, 88484.55
851.0447, 88753.08
851.5269, 88983.54
852.0090, 89177.45
852.4911, 89351.45
852.9732, 89503.27
853.4553, 89645.01
853.9374, 89798.59
854.4196, 89951.13
854.9017, 90071.89
855.3839, 90133.66
855.8660, 90181.95
856.3481, 90231.48
856.8302, 90240.88
857.3123, 90271.86
857.7944, 90230.38
858.2766, 90190.61
858.7587, 90157.33
859.2408, 90145.52
859.7229, 90190.20
860.2050, 90271.73
860.6871, 90349.59
861.1693, 90417.42
861.6514, 90470.27
862.1335, 90477.34
862.6156, 90482.80
863.0977, 90547.52
863.5798, 90702.17
864.0620, 90826.84
864.5441, 90906.23
865.0262, 90968.09
865.5083, 91045.56
865.9904, 91135.86
866.4725, 91231.02
866.9547, 91328.35
867.4368, 91436.55
867.9189, 91567.02
868.4010, 91708.29
868.8831, 91854.38
869.3652, 92019.05
869.8474, 92148.14
870.3295, 92225.93
870.8116, 92293.95
871.2937, 92383.90
871.7758, 92494.81
872.2579, 92606.41
872.7401, 92720.08
873.2222, 92826.39
873.7043, 92907.54
874.1864, 92985.44
874.6685, 93088.38
875.1506, 93219.56
875.6328, 93330.45
876.1149, 93367.59
876.5970, 93426.28
877.0791, 93548.25
877.5612, 93726.52
878.0433, 93892.66
878.5255, 94045.96
879.0076, 94193.42
879.4897, 94341.96
879.9718, 94482.44
880.4539, 94597.05
880.9360, 94691.27
881.4182, 94782.83
881.9003, 94859.40
882.3824, 94956.61
882.8645, 95099.57
883.3466, 95269.66
883.8287, 95423.17
884.3109, 95558.66
884.7930, 95682.84
885.2751, 95789.81
885.7572, 95898.07
886.2393, 96047.02
886.7214, 96221.70
887.2036, 96384.48
887.6857, 96519.13
888.1678, 96643.80
888.6499, 96778.70
889.1320, 96902.09
889.6141, 96979.47
890.0963, 96969.05
890.5784, 97034.55
891.0605, 97208.46
891.5426, 97408.61
892.0247, 97540.95
892.5068, 97625.81
892.9890, 97718.33
893.4711, 97825.27
893.9532, 97950.20
894.4353, 98113.21
894.9174, 98281.70
895.3995, 98427.72
895.8817, 98539.13
896.3638, 98665.82
896.8459, 98808.11
897.3280, 98961.18
897.8101, 99121.79
898.2922, 99289.05
898.7744, 99449.11
899.2565, 99602.80
899.7386, 99769.98
900.2207, 99999.37
900.7028, 100216.0
901.1849, 100350.6
901.6671, 100413.0
902.1492, 100501.9
902.6313, 100638.0
903.1134, 100780.8
903.5955, 100924.5
904.0776, 101066.6
904.5598, 101207.9
905.0419, 101346.9
905.5240, 101469.2
906.0062, 101560.7
906.4883, 101651.1
906.9704, 101763.7
907.4525, 101894.5
907.9346, 102037.8
908.4167, 102210.5
908.8989, 102368.9
909.3810, 102509.4
909.8631, 102634.6
910.3452, 102730.9
910.8273, 102803.0
911.3094, 102939.3
911.7916, 103156.4
912.2737, 103382.9
912.7558, 103568.1
913.2379, 103717.7
913.7200, 103823.2
914.2021, 103867.1
914.6843, 103963.5
915.1664, 104176.2
915.6485, 104386.3
916.1306, 104522.3
916.6127, 104590.9
917.0948, 104711.0
917.5770, 104882.9
918.0591, 105048.2
918.5412, 105155.8
919.0233, 105249.4
919.5054, 105379.0
919.9875, 105535.6
920.4697, 105681.8
920.9518, 105816.9
921.4339, 105922.5
921.9160, 105973.0
922.3981, 106003.8
922.8802, 106120.4
923.3624, 106318.0
923.8445, 106486.0
924.3266, 106585.0
924.8087, 106661.6
925.2908, 106763.5
925.7729, 106880.0
926.2551, 106996.5
926.7372, 107106.4
927.2193, 107225.6
927.7014, 107371.6
928.1835, 107515.5
928.6656, 107627.8
929.1478, 107709.7
929.6299, 107789.0
930.1120, 107866.2
930.5941, 107962.2
931.0762, 108106.4
931.5583, 108271.6
932.0405, 108428.1
932.5226, 108570.8
933.0047, 108733.5
933.4868, 108959.8
933.9689, 109156.6
934.4510, 109272.2
934.9332, 109330.3
935.4153, 109462.1
935.8974, 109663.6
936.3795, 109851.5
936.8616, 109976.7
937.3438, 110080.9
937.8259, 110206.7
938.3080, 110342.2
938.7901, 110461.3
939.2722, 110538.0
939.7543, 110624.9
940.2365, 110721.6
940.7186, 110836.8
941.2007, 110993.0
941.6828, 111185.6
942.1649, 111349.3
942.6470, 111475.9
943.1292, 111584.4
943.6113, 111659.0
944.0934, 111745.7
944.5755, 111902.0
945.0576, 112150.2
945.5397, 112384.0
946.0219, 112606.3
946.5040, 112795.5
946.9861, 112929.6
947.4682, 113021.4
947.9503, 113137.5
948.4324, 113275.6
948.9146, 113412.3
949.3967, 113514.1
949.8788, 113627.3
950.3609, 113796.9
950.8430, 114006.2
951.3251, 114201.0
951.8073, 114374.4
952.2894, 114540.6
952.7715, 114702.8
953.2536, 114857.1
953.7357, 115001.8
954.2179, 115133.9
954.7000, 115227.4
955.1821, 115261.6
955.6642, 115332.7
956.1464, 115555.3
956.6285, 115814.8
957.1106, 116003.4
957.5927, 116093.4
958.0748, 116198.6
958.5569, 116310.8
959.0391, 116459.1
959.5212, 116695.8
960.0033, 116976.4
960.4854, 117147.3
960.9675, 117228.6
961.4496, 117335.4
961.9318, 117578.3
962.4139, 117812.6
962.8960, 117937.9
963.3781, 118000.7
963.8602, 118141.1
964.3423, 118388.0
964.8245, 118589.7
965.3066, 118712.9
965.7887, 118796.7
966.2708, 118860.5
966.7529, 118938.3
967.2350, 119110.5
967.7172, 119438.7
968.1993, 119713.0
968.6814, 119802.8
969.1635, 119854.4
969.6456, 119968.5
970.1277, 120148.9
970.6099, 120325.5
971.0920, 120494.9
971.5741, 120676.3
972.0562, 120893.4
972.5383, 121117.2
973.0204, 121308.8
973.5026, 121473.6
973.9847, 121644.0
974.4668, 121840.4
974.9489, 122027.9
975.4310, 122195.9
975.9131, 122356.4
976.3953, 122542.6
976.8774, 122753.4
977.3595, 122935.8
977.8416, 123070.8
978.3237, 123205.8
978.8058, 123413.4
979.2880, 123630.9
979.7701, 123783.2
980.2522, 123828.9
980.7343, 123911.2
981.2164, 124042.2
981.6985, 124197.9
982.1807, 124376.7
982.6628, 124568.1
983.1449, 124722.0
983.6270, 124842.7
984.1091, 124963.9
984.5912, 125091.3
985.0734, 125236.2
985.5555, 125416.1
986.0376, 125617.1
986.5197, 125803.3
987.0018, 125971.7
987.4839, 126131.6
987.9661, 126281.3
988.4482, 126435.6
988.9303, 126628.8
989.4124, 126837.0
989.8945, 127002.3
990.3766, 127105.8
990.8588, 127238.8
991.3409, 127470.6
991.8230, 127717.5
992.3051, 127925.9
992.7872, 128095.9
993.2693, 128308.6
993.7515, 128564.1
994.2336, 128849.0
994.7157, 129165.6
995.1978, 129496.2
995.6799, 129820.7
996.1620, 130146.2
996.6442, 130487.7
997.1263, 130832.8
997.6084, 131213.4
998.0905, 131634.4
998.5726, 132085.6
999.0547, 132562.5
999.5369, 133066.0
1000.019, 133602.9
1000.501, 134177.4
1000.983, 134724.0
1001.465, 135154.9
1001.947, 135580.2
1002.430, 136086.1
1002.912, 136684.9
1003.394, 137271.8
1003.876, 137847.0
1004.358, 138432.0
1004.840, 139037.8
1005.322, 139672.8
1005.804, 140368.3
1006.287, 141113.7
1006.769, 141902.6
1007.251, 142752.8
1007.733, 143602.6
1008.215, 144436.0
1008.697, 145271.6
1009.179, 146154.8
1009.661, 147093.2
1010.143, 147950.7
1010.626, 148734.4
1011.108, 149392.7
1011.590, 149963.4
1012.072, 150343.0
1012.554, 150422.7
1013.036, 150207.5
1013.518, 149782.2
1014.000, 149140.8
1014.483, 148336.3
1014.965, 147347.0
1015.447, 146249.3
1015.929, 145118.4
1016.411, 143990.8
1016.893, 143002.5
1017.375, 142183.3
1017.857, 141489.8
1018.339, 140916.5
1018.822, 140442.5
1019.304, 140038.8
1019.786, 139697.5
1020.268, 139464.3
1020.750, 139352.6
1021.232, 139254.7
1021.714, 139070.3
1022.196, 138875.4
1022.679, 138801.0
1023.161, 138817.3
1023.643, 138841.4
1024.125, 138837.5
1024.607, 138851.5
1025.089, 138891.9
1025.571, 138953.9
1026.053, 139028.9
1026.535, 139119.0
1027.018, 139256.5
1027.500, 139450.3
1027.982, 139619.4
1028.464, 139672.6
1028.946, 139700.6
1029.428, 139760.7
1029.910, 139860.4
1030.392, 140026.7
1030.875, 140290.6
1031.357, 140505.2
1031.839, 140595.7
1032.321, 140643.1
1032.803, 140783.0
1033.285, 140990.5
1033.767, 141214.4
1034.249, 141450.3
1034.731, 141675.1
1035.214, 141889.0
1035.696, 142084.5
1036.178, 142254.4
1036.660, 142398.2
1037.142, 142547.0
1037.624, 142699.5
1038.106, 142862.4
1038.588, 143040.6
1039.071, 143230.8
1039.553, 143427.8
1040.035, 143637.6
1040.517, 143882.8
1040.999, 144188.7
1041.481, 144461.3
1041.963, 144675.2
1042.445, 144894.2
1042.927, 145237.9
1043.410, 145641.3
1043.892, 145966.8
1044.374, 146188.4
1044.856, 146437.9
1045.338, 146871.2
1045.820, 147221.6
1046.302, 147322.5
1046.784, 147243.9
1047.266, 147400.8
1047.749, 147766.9
1048.231, 148024.4
1048.713, 148003.8
1049.195, 147902.8
1049.677, 147849.7
1050.159, 147823.9
1050.641, 147795.8
1051.123, 147748.2
1051.606, 147753.2
1052.088, 147829.5
1052.570, 147899.4
1053.052, 147878.2
1053.534, 147822.8
1054.016, 147840.7
1054.498, 147923.9
1054.980, 148019.0
1055.463, 148102.5
1055.945, 148200.4
1056.427, 148323.3
1056.909, 148454.7
1057.391, 148566.7
1057.873, 148660.5
1058.355, 148750.0
1058.837, 148837.2
1059.319, 148920.1
1059.802, 148966.2
1060.284, 149031.3
1060.766, 149174.5
1061.248, 149391.3
1061.730, 149569.1
1062.212, 149696.5
1062.694, 149857.8
1063.176, 150108.5
1063.658, 150363.6
1064.141, 150468.5
1064.623, 150500.7
1065.105, 150594.4
1065.587, 150813.1
1066.069, 151024.7
1066.551, 151215.3
1067.033, 151389.1
1067.515, 151527.6
1067.998, 151647.3
1068.480, 151848.8
1068.962, 152120.1
1069.444, 152400.1
1069.926, 152702.5
1070.408, 152949.8
1070.890, 153075.3
1071.372, 153131.2
1071.854, 153183.3
1072.337, 153230.3
1072.819, 153310.8
1073.301, 153432.3
1073.783, 153569.0
1074.265, 153712.4
1074.747, 153848.6
1075.229, 153946.4
1075.711, 154011.2
1076.193, 154142.7
1076.676, 154395.8
1077.158, 154582.1
1077.640, 154628.8
1078.122, 154621.8
1078.604, 154698.9
1079.086, 154838.2
1079.568, 155005.3
1080.051, 155208.8
1080.533, 155371.3
1081.015, 155399.5
1081.497, 155450.4
1081.979, 155622.5
1082.461, 155887.2
1082.943, 156040.4
1083.425, 156102.7
1083.907, 156212.6
1084.390, 156470.0
1084.872, 156747.0
1085.354, 156992.8
1085.836, 157192.5
1086.318, 157317.7
1086.800, 157315.8
1087.282, 157478.2
1087.764, 157828.4
1088.246, 158180.4
1088.729, 158378.0
1089.211, 158501.1
1089.693, 158620.4
1090.175, 158745.4
1090.657, 158904.5
1091.139, 159132.4
1091.621, 159334.5
1092.103, 159491.5
1092.586, 159634.1
1093.068, 159812.7
1093.550, 160006.4
1094.032, 160168.7
1094.514, 160294.6
1094.996, 160411.9
1095.478, 160506.4
1095.960, 160627.1
1096.443, 160801.3
1096.925, 161008.5
1097.407, 161197.2
1097.889, 161368.5
1098.371, 161517.7
1098.853, 161630.8
1099.335, 161770.6
1099.817, 162021.2
1100.299, 162288.5
1100.781, 162492.1
1101.264, 162631.9
1101.746, 162718.4
1102.228, 162746.5
1102.710, 162788.5
1103.192, 162877.8
1103.674, 163001.5
1104.156, 163157.9
1104.638, 163334.2
1105.121, 163515.5
1105.603, 163746.2
1106.085, 163871.4
1106.567, 163855.3
1107.049, 163842.3
1107.531, 163962.4
1108.013, 164161.5
1108.495, 164331.3
1108.978, 164483.0
1109.460, 164669.7
1109.942, 164922.9
1110.424, 165203.5
1110.906, 165531.4
1111.388, 165844.8
1111.870, 166054.2
1112.352, 166177.2
1112.834, 166281.1
1113.317, 166373.3
1113.799, 166487.7
1114.281, 166665.6
1114.763, 166847.2
1115.245, 166993.1
1115.727, 167123.6
1116.209, 167303.3
1116.691, 167532.2
1117.173, 167705.5
1117.656, 167796.9
1118.138, 167867.1
1118.620, 167929.9
1119.102, 168025.7
1119.584, 168219.3
1120.066, 168506.2
1120.548, 168692.7
1121.030, 168762.2
1121.513, 168844.8
1121.995, 168997.3
1122.477, 169162.6
1122.959, 169256.2
1123.441, 169325.6
1123.923, 169442.9
1124.405, 169644.3
1124.887, 169814.4
1125.370, 169924.0
1125.852, 170080.4
1126.334, 170391.9
1126.816, 170762.0
1127.298, 170984.8
1127.780, 171104.0
1128.262, 171220.2
1128.744, 171355.2
1129.226, 171512.9
1129.709, 171711.4
1130.191, 171901.0
1130.673, 172015.9
1131.155, 172086.2
1131.637, 172252.8
1132.119, 172500.5
1132.601, 172731.2
1133.083, 172864.8
1133.566, 173010.4
1134.048, 173234.8
1134.530, 173463.3
1135.012, 173584.9
1135.494, 173609.3
1135.976, 173628.0
1136.458, 173651.0
1136.940, 173731.7
1137.422, 173969.5
1137.905, 174217.0
1138.387, 174396.6
1138.869, 174520.0
1139.351, 174584.8
1139.833, 174585.9
1140.315, 174704.4
1140.797, 174989.2
1141.279, 175278.3
1141.761, 175412.6
1142.244, 175499.1
1142.726, 175624.1
1143.208, 175791.5
1143.690, 175976.7
1144.172, 176176.9
1144.654, 176405.1
1145.136, 176675.7
1145.618, 176928.5
1146.101, 177039.4
1146.583, 177108.3
1147.065, 177269.0
1147.547, 177565.5
1148.029, 177814.3
1148.511, 178010.9
1148.993, 178158.9
1149.475, 178252.4
1149.958, 178309.2
1150.440, 178336.3
1150.922, 178357.3
1151.404, 178417.0
1151.886, 178549.2
1152.368, 178675.3
1152.850, 178795.6
1153.332, 178905.3
1153.814, 178994.4
1154.297, 179078.3
1154.779, 179208.0
1155.261, 179364.3
1155.743, 179485.4
1156.225, 179464.2
1156.707, 179537.9
1157.189, 179773.2
1157.671, 180037.2
1158.153, 180211.9
1158.636, 180318.9
1159.118, 180441.2
1159.600, 180579.2
1160.082, 180738.1
1160.564, 180947.4
1161.046, 181142.1
1161.528, 181299.0
1162.010, 181441.8
1162.493, 181587.4
1162.975, 181740.5
1163.457, 181949.9
1163.939, 182212.4
1164.421, 182449.3
1164.903, 182587.8
1165.385, 182720.1
1165.867, 182885.4
1166.349, 183067.2
1166.832, 183235.8
1167.314, 183392.6
1167.796, 183565.5
1168.278, 183758.6
1168.760, 183891.5
1169.242, 183766.8
1169.724, 183703.3
1170.206, 183985.1
1170.688, 184455.5
1171.171, 184724.0
1171.653, 184796.0
1172.135, 184865.6
1172.617, 184965.2
1173.099, 185094.0
1173.581, 185291.4
1174.063, 185483.0
1174.545, 185573.9
1175.028, 185603.1
1175.510, 185795.0
1175.992, 186163.7
1176.474, 186364.8
1176.956, 186276.5
1177.438, 186144.7
1177.920, 186177.1
1178.402, 186290.8
1178.885, 186418.8
1179.367, 186555.5
1179.849, 186715.0
1180.331, 186903.4
1180.813, 187072.4
1181.295, 187205.8
1181.777, 187318.5
1182.259, 187398.3
1182.741, 187484.2
1183.224, 187632.3
1183.706, 187854.2
1184.188, 188053.8
1184.670, 188235.2
1185.152, 188367.4
1185.634, 188381.3
1186.116, 188431.6
1186.598, 188760.7
1187.081, 189203.5
1187.563, 189534.2
1188.045, 189711.4
1188.527, 189808.7
1189.009, 189802.5
1189.491, 189838.2
1189.973, 189996.1
1190.455, 190235.5
1190.938, 190594.4
1191.420, 190968.8
1191.902, 191176.9
1192.384, 191102.2
1192.866, 191136.7
1193.348, 191306.3
1193.830, 191472.2
1194.312, 191515.7
1194.794, 191531.7
1195.276, 191629.3
1195.759, 191796.8
1196.241, 192013.7
1196.723, 192328.9
1197.205, 192567.0
1197.687, 192717.5
1198.169, 192824.4
1198.651, 192865.5
1199.133, 192920.9
1199.616, 193141.0
1200.098, 193455.7
1200.580, 193684.2
1201.062, 193763.2
1201.544, 193820.4
1202.026, 193842.0
1202.508, 193919.5
1202.990, 194195.0
1203.473, 194527.4
1203.955, 194745.6
1204.437, 194861.2
1204.919, 194928.8
1205.401, 194922.0
1205.883, 194963.5
1206.365, 195072.7
1206.847, 195194.8
1207.329, 195257.5
1207.812, 195317.4
1208.294, 195491.3
1208.776, 195738.5
1209.258, 195854.8
1209.740, 195724.3
1210.222, 195747.9
1210.704, 196006.8
1211.186, 196284.4
1211.668, 196302.3
1212.151, 196254.2
1212.633, 196413.7
1213.115, 196748.6
1213.597, 196982.5
1214.079, 197043.0
1214.561, 197150.0
1215.043, 197337.0
1215.525, 197555.6
1216.008, 197801.5
1216.490, 198017.4
1216.972, 198088.1
1217.454, 198042.4
1217.936, 198125.0
1218.418, 198390.4
1218.900, 198628.5
1219.382, 198805.1
1219.865, 198947.8
1220.347, 199072.1
1220.829, 199192.3
1221.311, 199325.7
1221.793, 199472.3
1222.275, 199623.6
1222.757, 199784.1
1223.239, 199933.5
1223.721, 200065.9
1224.203, 200203.7
1224.686, 200420.7
1225.168, 200620.9
1225.650, 200661.5
1226.132, 200560.5
1226.614, 200618.1
1227.096, 200872.9
1227.578, 201080.3
1228.061, 201180.0
1228.543, 201255.4
1229.025, 201365.9
1229.507, 201514.1
1229.989, 201721.5
1230.471, 201977.8
1230.953, 202191.2
1231.435, 202358.7
1231.917, 202499.3
1232.400, 202612.9
1232.882, 202720.1
1233.364, 202851.2
1233.846, 202978.2
1234.328, 203096.9
1234.810, 203195.1
1235.292, 203150.0
1235.774, 202949.2
1236.256, 202982.2
1236.739, 203402.0
1237.221, 203771.2
1237.703, 203580.0
1238.185, 203307.2
1238.667, 203397.4
1239.149, 203755.0
1239.631, 203913.3
1240.113, 203880.8
1240.596, 203963.5
1241.078, 204259.5
1241.560, 204530.6
1242.042, 204507.9
1242.524, 204480.4
1243.006, 204666.2
1243.488, 204996.8
1243.970, 205212.2
1244.453, 205325.3
1244.935, 205432.0
1245.417, 205550.0
1245.899, 205697.1
1246.381, 205922.2
1246.863, 206141.2
1247.345, 206294.4
1247.827, 206415.2
1248.309, 206628.0
1248.792, 206902.6
1249.274, 207101.0
1249.756, 207182.2
1250.238, 207241.4
1250.720, 207344.5
1251.202, 207403.8
1251.684, 207346.9
1252.166, 207255.4
1252.648, 207368.1
1253.131, 207621.5
1253.613, 207830.0
1254.095, 207948.2
1254.577, 208054.6
1255.059, 208170.8
1255.541, 208277.2
1256.023, 208345.5
1256.505, 208428.0
1256.988, 208706.8
1257.470, 209065.0
1257.952, 209223.3
1258.434, 209101.6
1258.916, 209062.1
1259.398, 209186.0
1259.880, 209341.4
1260.362, 209487.2
1260.844, 209643.6
1261.327, 209894.4
1261.809, 210153.7
1262.291, 210256.2
1262.773, 210154.2
1263.255, 210212.5
1263.737, 210494.3
1264.219, 210759.0
1264.701, 210919.0
1265.183, 211049.1
1265.666, 211208.7
1266.148, 211412.7
1266.630, 211693.4
1267.112, 212054.3
1267.594, 212411.8
1268.076, 212782.4
1268.558, 213001.8
1269.040, 212987.7
1269.523, 212938.6
1270.005, 213071.3
1270.487, 213244.8
1270.969, 213309.4
1271.451, 213290.2
1271.933, 213339.3
1272.415, 213457.7
1272.897, 213573.3
1273.380, 213665.7
1273.862, 213779.1
1274.344, 214045.9
1274.826, 214238.8
1275.308, 214172.2
1275.790, 213943.8
1276.272, 213853.0
1276.754, 213889.9
1277.236, 214022.3
1277.719, 214254.4
1278.201, 214472.2
1278.683, 214644.3
1279.165, 214741.7
1279.647, 214724.7
1280.129, 214664.5
1280.611, 214723.6
1281.093, 214864.5
1281.576, 214984.5
1282.058, 215067.2
1282.540, 215162.0
1283.022, 215294.5
1283.504, 215420.8
1283.986, 215523.7
1284.468, 215626.0
1284.950, 215745.3
1285.432, 215896.8
1285.915, 216141.5
1286.397, 216478.0
1286.879, 216676.5
1287.361, 216674.8
1287.843, 216688.0
1288.325, 216755.9
1288.807, 216882.0
1289.289, 217127.2
1289.771, 217390.3
1290.254, 217580.7
1290.736, 217681.8
1291.218, 217661.5
1291.700, 217489.3
1292.182, 217481.3
1292.664, 217698.9
1293.146, 217995.4
1293.628, 218312.0
1294.111, 218596.5
1294.593, 218850.3
1295.075, 219030.7
1295.557, 218975.4
1296.039, 218717.2
1296.521, 218623.7
1297.003, 218751.5
1297.485, 218956.6
1297.968, 219205.9
1298.450, 219374.1
1298.932, 219395.0
1299.414, 219368.2
1299.896, 219443.4
1300.378, 219596.5
1300.860, 219713.5
1301.342, 219794.8
1301.824, 219938.7
##END=



