##NAMES=Eakerite
##RRUFFID=R060319
##IDEAL CHEMISTRY=Ca_2_Sn^4+^Al_2_Si_6_O_18_(OH)_2_&#183;2H_2_O
##LOCALITY=Foote Mineral Company mine, Kings Mountain, North Carolina, USA
##OWNER=RRUFF
##SOURCE=Michael Scott
##DESCRIPTION=Transparent colorless bladed single crystals
##STATUS=The identification of this mineral has been confirmed by single-crystal X-ray diffraction.
##URL=rruff.info/R060319
##MEASURED CHEMISTRY=Ca_2.00_Sn^4+^_1.00_Al_2.00_Si_6_O_18_(OH)_2_Â·2H_2_O
101.6577, 245.1284
102.1398, 244.2875
102.6219, 244.1833
103.1040, 243.9315
103.5861, 243.5512
104.0682, 243.0155
104.5504, 242.1350
105.0325, 240.9433
105.5146, 239.7895
105.9967, 239.1461
106.4788, 239.1459
106.9609, 239.3123
107.4431, 239.8899
107.9252, 240.5378
108.4073, 240.6660
108.8894, 239.9230
109.3715, 238.9525
109.8536, 239.0252
110.3358, 240.3770
110.8179, 241.5224
111.3000, 241.4037
111.7821, 240.1664
112.2642, 239.2361
112.7463, 239.2534
113.2285, 239.8116
113.7106, 240.4868
114.1927, 241.1857
114.6748, 242.0582
115.1569, 243.4214
115.6390, 245.6057
116.1212, 247.4431
116.6033, 248.5066
117.0854, 249.1483
117.5675, 249.6957
118.0496, 250.3152
118.5317, 250.9574
119.0139, 251.3795
119.4960, 251.2243
119.9781, 251.2126
120.4602, 251.6113
120.9423, 252.2426
121.4244, 252.7587
121.9066, 252.8577
122.3887, 252.4798
122.8708, 252.5581
123.3529, 253.4622
123.8350, 254.3806
124.3171, 254.5653
124.7993, 254.1667
125.2814, 254.2812
125.7635, 256.1815
126.2456, 260.3952
126.7277, 263.8848
127.2098, 266.5668
127.6920, 268.5183
128.1741, 269.7635
128.6562, 270.2569
129.1383, 270.2334
129.6204, 270.0529
130.1025, 269.7549
130.5847, 268.7323
131.0668, 266.1772
131.5489, 262.5778
132.0310, 259.7179
132.5131, 258.4323
132.9952, 257.4784
133.4774, 255.4870
133.9595, 252.4572
134.4416, 249.7467
134.9237, 248.9507
135.4058, 250.4564
135.8879, 251.1646
136.3701, 249.3059
136.8522, 247.2293
137.3343, 246.3583
137.8164, 247.0294
138.2985, 248.4660
138.7806, 249.3751
139.2628, 249.5386
139.7449, 249.5075
140.2270, 249.3347
140.7091, 249.0356
141.1912, 248.5650
141.6733, 247.9053
142.1555, 247.1525
142.6376, 246.6507
143.1197, 246.4775
143.6018, 246.4895
144.0839, 246.6322
144.5660, 246.9560
145.0482, 247.6125
145.5303, 248.7467
146.0124, 250.2397
146.4945, 251.2170
146.9766, 251.2398
147.4587, 251.2954
147.9409, 252.0382
148.4230, 253.2855
148.9051, 254.1139
149.3872, 253.6153
149.8693, 252.1134
150.3514, 251.5988
150.8336, 253.1864
151.3157, 255.1091
151.7978, 255.6784
152.2799, 254.7206
152.7620, 253.4318
153.2441, 252.4084
153.7263, 251.6830
154.2084, 251.4216
154.6905, 252.1907
155.1726, 253.3969
155.6547, 253.6576
156.1368, 252.5780
156.6190, 251.2054
157.1011, 249.8521
157.5832, 248.6529
158.0653, 247.8946
158.5474, 248.0028
159.0295, 248.8781
159.5117, 249.1767
159.9938, 248.1742
160.4759, 247.2744
160.9580, 246.9843
161.4401, 247.2247
161.9222, 247.7007
162.4044, 248.1825
162.8865, 248.6894
163.3686, 249.0929
163.8507, 249.1453
164.3328, 249.3114
164.8149, 249.8813
165.2971, 250.8199
165.7792, 251.8348
166.2613, 252.5901
166.7434, 252.9766
167.2255, 253.3870
167.7076, 253.7468
168.1898, 254.1779
168.6719, 254.9969
169.1540, 256.1990
169.6361, 257.1653
170.1182, 256.9088
170.6003, 254.6189
171.0825, 253.1679
171.5646, 253.3367
172.0467, 254.1566
172.5288, 254.4983
173.0109, 254.0120
173.4930, 253.1880
173.9752, 252.8489
174.4573, 253.0385
174.9394, 253.1829
175.4215, 252.8762
175.9036, 252.4043
176.3857, 252.4674
176.8679, 253.4279
177.3500, 254.7579
177.8321, 255.7622
178.3142, 256.4408
178.7963, 256.9760
179.2784, 257.2922
179.7606, 257.4578
180.2427, 258.0296
180.7248, 259.3734
181.2069, 261.0240
181.6890, 262.5209
182.1711, 263.8296
182.6533, 265.2019
183.1354, 267.0600
183.6175, 269.5308
184.0996, 271.4845
184.5817, 272.0923
185.0638, 272.4357
185.5460, 273.1501
186.0281, 274.3672
186.5102, 275.7277
186.9923, 276.6346
187.4744, 276.7280
187.9565, 277.3488
188.4387, 279.3235
188.9208, 281.4191
189.4029, 282.5912
189.8850, 282.5641
190.3671, 282.0364
190.8492, 282.4504
191.3314, 285.0751
191.8135, 286.5172
192.2956, 285.9364
192.7777, 284.5553
193.2598, 283.6545
193.7419, 283.7063
194.2241, 283.9420
194.7062, 282.5096
195.1883, 277.0721
195.6704, 272.5429
196.1525, 269.6248
196.6346, 267.4866
197.1168, 265.0584
197.5989, 261.8535
198.0810, 258.3364
198.5631, 255.9076
199.0452, 255.4978
199.5273, 254.8594
200.0095, 253.3135
200.4916, 251.3583
200.9737, 249.7750
201.4558, 248.8970
201.9379, 248.6228
202.4200, 248.7266
202.9022, 249.4926
203.3843, 250.0705
203.8664, 250.0260
204.3485, 249.5436
204.8306, 249.1651
205.3127, 249.2093
205.7949, 249.3895
206.2770, 249.0158
206.7591, 247.7232
207.2412, 246.6914
207.7233, 246.8240
208.2054, 247.9365
208.6876, 248.8854
209.1697, 249.1762
209.6518, 249.0685
210.1339, 248.9254
210.6160, 248.6654
211.0981, 248.6420
211.5803, 249.3666
212.0624, 250.8411
212.5445, 251.9682
213.0266, 252.0232
213.5087, 251.7397
213.9908, 251.8345
214.4730, 252.4596
214.9551, 253.1890
215.4372, 253.5475
215.9193, 253.4887
216.4014, 253.3609
216.8836, 253.1342
217.3657, 252.9465
217.8478, 252.8642
218.3299, 252.9018
218.8120, 253.1124
219.2941, 253.6366
219.7763, 254.6115
220.2584, 255.4398
220.7405, 256.0680
221.2226, 256.4931
221.7047, 256.5701
222.1868, 256.2839
222.6690, 255.9792
223.1511, 256.2520
223.6332, 257.4149
224.1153, 258.4636
224.5974, 259.4218
225.0795, 260.1784
225.5617, 260.5176
226.0438, 260.4213
226.5259, 260.2248
227.0080, 260.5417
227.4901, 261.7470
227.9722, 262.8080
228.4544, 263.5864
228.9365, 264.2914
229.4186, 265.0653
229.9007, 265.9511
230.3828, 266.9173
230.8649, 267.9507
231.3471, 269.6566
231.8292, 270.3541
232.3113, 269.3718
232.7934, 267.8685
233.2755, 266.6691
233.7576, 266.0385
234.2398, 265.8757
234.7219, 266.0609
235.2040, 267.0815
235.6861, 267.5411
236.1682, 267.1794
236.6503, 266.4145
237.1325, 265.3719
237.6146, 264.1349
238.0967, 263.2025
238.5788, 263.4056
239.0609, 265.4527
239.5430, 267.0534
240.0252, 268.1971
240.5073, 268.8293
240.9894, 268.6900
241.4715, 267.7226
241.9536, 266.5363
242.4357, 265.9836
242.9179, 266.2616
243.4000, 266.3120
243.8821, 266.4676
244.3642, 266.1505
244.8463, 264.3231
245.3284, 260.6933
245.8106, 256.9106
246.2927, 255.1493
246.7748, 255.4954
247.2569, 255.3682
247.7390, 253.9767
248.2211, 252.0936
248.7033, 250.6405
249.1854, 249.7757
249.6675, 249.1460
250.1496, 248.3868
250.6317, 247.5282
251.1138, 246.8673
251.5960, 246.7420
252.0781, 246.7296
252.5602, 246.0846
253.0423, 244.5985
253.5244, 243.3209
254.0065, 243.5488
254.4887, 244.7770
254.9708, 245.6421
255.4529, 245.6810
255.9350, 245.2179
256.4171, 244.5489
256.8992, 243.5813
257.3813, 242.8749
257.8635, 242.8723
258.3456, 243.4045
258.8277, 244.3425
259.3098, 246.1948
259.7919, 248.1050
260.2740, 248.6053
260.7562, 247.3578
261.2383, 246.1546
261.7204, 246.1624
262.2025, 246.7917
262.6846, 247.3815
263.1667, 247.7197
263.6489, 247.9660
264.1310, 248.3118
264.6131, 248.7391
265.0952, 249.3469
265.5773, 250.6271
266.0594, 251.9307
266.5416, 252.5327
267.0237, 252.0962
267.5058, 251.2914
267.9879, 250.9703
268.4700, 251.1806
268.9521, 251.6737
269.4343, 252.7231
269.9164, 253.8465
270.3985, 254.6346
270.8806, 254.9718
271.3627, 255.1521
271.8448, 255.5120
272.3270, 256.0667
272.8091, 256.7265
273.2912, 257.9366
273.7733, 258.9410
274.2554, 259.1763
274.7375, 258.5602
275.2197, 257.5613
275.7018, 256.7665
276.1839, 256.2832
276.6660, 255.3153
277.1481, 253.1273
277.6302, 250.8643
278.1124, 248.8857
278.5945, 247.3124
279.0766, 246.3913
279.5587, 246.7112
280.0408, 248.5002
280.5229, 249.4743
281.0051, 248.7784
281.4872, 247.8504
281.9693, 247.0129
282.4514, 246.4143
282.9335, 246.3164
283.4156, 247.3529
283.8978, 249.5818
284.3799, 250.1750
284.8620, 247.2058
285.3441, 244.4463
285.8262, 243.1671
286.3083, 243.1110
286.7905, 243.5958
287.2726, 244.3214
287.7547, 245.1921
288.2368, 245.2298
288.7189, 243.6433
289.2010, 242.1059
289.6832, 241.0093
290.1653, 240.2704
290.6474, 239.7920
291.1295, 239.5867
291.6116, 239.4980
292.0938, 238.8363
292.5759, 236.9701
293.0580, 235.4361
293.5401, 234.5483
294.0222, 234.1109
294.5043, 233.9397
294.9865, 233.9573
295.4686, 234.1303
295.9507, 234.4010
296.4328, 234.9054
296.9149, 235.2567
297.3970, 235.4208
297.8792, 235.4318
298.3613, 235.2055
298.8434, 234.7460
299.3255, 234.3276
299.8076, 234.5083
300.2897, 235.8257
300.7719, 236.4997
301.2540, 235.8969
301.7361, 235.1296
302.2182, 234.9660
302.7003, 235.4902
303.1824, 236.1930
303.6646, 236.4501
304.1467, 236.1197
304.6288, 235.8444
305.1109, 235.5945
305.5930, 235.4184
306.0751, 235.3284
306.5573, 235.3330
307.0394, 235.4563
307.5215, 235.7536
308.0036, 236.2496
308.4857, 236.5724
308.9678, 236.3467
309.4500, 236.3142
309.9321, 236.7992
310.4142, 237.6459
310.8963, 238.5596
311.3784, 239.3943
311.8605, 240.1013
312.3427, 240.2780
312.8248, 239.2789
313.3069, 238.4770
313.7890, 238.0207
314.2711, 237.9308
314.7532, 238.2830
315.2354, 239.1323
315.7175, 240.2839
316.1996, 241.1652
316.6817, 241.6333
317.1638, 242.0406
317.6459, 242.5149
318.1281, 242.9113
318.6102, 243.0203
319.0923, 242.7979
319.5744, 242.4919
320.0565, 242.5760
320.5386, 243.4093
321.0208, 243.7852
321.5029, 243.1735
321.9850, 242.5236
322.4671, 242.4636
322.9492, 243.0363
323.4313, 243.8364
323.9135, 244.4771
324.3956, 244.9793
324.8777, 245.1887
325.3598, 244.3224
325.8419, 243.8864
326.3240, 244.7915
326.8062, 246.6850
327.2883, 248.5081
327.7704, 249.3823
328.2525, 249.3828
328.7346, 249.8828
329.2167, 251.1398
329.6989, 252.6727
330.1810, 254.7760
330.6631, 256.9882
331.1452, 258.5962
331.6273, 259.1776
332.1094, 259.0529
332.5916, 259.1728
333.0737, 259.4243
333.5558, 260.1745
334.0379, 262.2650
334.5200, 264.4070
335.0021, 265.1876
335.4843, 264.1863
335.9664, 262.4373
336.4485, 261.7065
336.9306, 262.5320
337.4127, 262.7528
337.8948, 261.7762
338.3770, 260.4574
338.8591, 259.1623
339.3412, 257.9810
339.8233, 256.9510
340.3055, 256.0811
340.7876, 255.3644
341.2697, 254.9124
341.7518, 255.0374
342.2339, 255.1358
342.7160, 254.7238
343.1982, 254.0816
343.6803, 253.9204
344.1624, 254.9045
344.6445, 256.7272
345.1266, 257.8043
345.6087, 257.6973
346.0909, 257.5257
346.5730, 257.5049
347.0551, 257.6969
347.5372, 258.3233
348.0193, 259.6088
348.5014, 260.9221
348.9836, 261.1175
349.4657, 260.0353
349.9478, 258.3549
350.4299, 255.8951
350.9120, 253.1132
351.3941, 250.1187
351.8763, 246.9633
352.3584, 244.1711
352.8405, 242.4842
353.3226, 241.9308
353.8047, 241.1872
354.2868, 239.7706
354.7690, 238.4631
355.2511, 237.8670
355.7332, 237.8464
356.2153, 237.7924
356.6974, 237.1568
357.1795, 236.1444
357.6617, 235.6754
358.1438, 236.1594
358.6259, 236.3472
359.1080, 235.1156
359.5901, 233.2184
360.0722, 231.8652
360.5544, 231.6123
361.0365, 231.9430
361.5186, 232.1318
362.0007, 232.1407
362.4828, 232.3176
362.9649, 233.0696
363.4471, 233.9079
363.9292, 234.2740
364.4113, 234.0638
364.8934, 233.5912
365.3755, 232.8775
365.8576, 232.0250
366.3398, 231.6915
366.8219, 232.3335
367.3040, 233.0782
367.7861, 232.9608
368.2682, 232.0630
368.7503, 231.0778
369.2325, 230.2286
369.7146, 229.4785
370.1967, 228.7226
370.6788, 227.9211
371.1609, 227.2963
371.6430, 227.0588
372.1252, 227.1508
372.6073, 227.3789
373.0894, 228.2033
373.5715, 228.7695
374.0536, 228.0731
374.5357, 226.3457
375.0179, 224.9384
375.5000, 224.4830
375.9821, 224.8091
376.4642, 225.5413
376.9463, 226.9448
377.4284, 228.0902
377.9106, 228.5946
378.3927, 228.6235
378.8748, 228.3719
379.3569, 227.8596
379.8390, 227.3211
380.3211, 227.0220
380.8033, 226.9646
381.2854, 227.2209
381.7675, 228.2220
382.2496, 229.2343
382.7317, 229.5622
383.2138, 229.2428
383.6960, 228.9285
384.1781, 229.1433
384.6602, 229.8302
385.1423, 230.1536
385.6244, 229.5707
386.1065, 229.2937
386.5887, 230.0389
387.0708, 231.2988
387.5529, 232.1539
388.0350, 232.1872
388.5171, 231.7915
388.9992, 231.8344
389.4814, 232.7388
389.9635, 233.4577
390.4456, 233.9299
390.9277, 234.2629
391.4098, 234.5173
391.8919, 234.7162
392.3741, 234.8779
392.8562, 235.0029
393.3383, 235.0649
393.8204, 235.3095
394.3025, 236.3366
394.7846, 236.9195
395.2668, 236.0063
395.7489, 234.4081
396.2310, 233.6956
396.7131, 234.8468
397.1952, 237.2995
397.6773, 239.1137
398.1595, 240.0488
398.6416, 240.6914
399.1237, 240.7576
399.6058, 240.8204
400.0879, 241.5402
400.5700, 243.0000
401.0522, 244.4832
401.5343, 245.0617
402.0164, 244.5706
402.4985, 244.1262
402.9806, 243.8437
403.4627, 243.5340
403.9449, 242.8403
404.4270, 242.0311
404.9091, 241.8059
405.3912, 242.8176
405.8733, 244.6179
406.3554, 245.7684
406.8376, 246.0582
407.3197, 246.2355
407.8018, 246.3494
408.2839, 246.6164
408.7660, 247.3503
409.2481, 248.6944
409.7303, 250.1646
410.2124, 251.1131
410.6945, 251.6037
411.1766, 252.7087
411.6587, 254.9825
412.1408, 257.5405
412.6230, 259.5744
413.1051, 261.1354
413.5872, 262.5584
414.0693, 263.9492
414.5514, 265.3041
415.0335, 266.7060
415.5157, 268.1960
415.9978, 269.3588
416.4799, 270.0968
416.9620, 270.2110
417.4441, 269.3074
417.9262, 266.7878
418.4084, 264.0193
418.8905, 261.6442
419.3726, 259.6189
419.8547, 257.9923
420.3368, 256.9109
420.8189, 255.7895
421.3011, 253.5291
421.7832, 249.7529
422.2653, 246.5285
422.7474, 243.9490
423.2295, 242.0984
423.7116, 241.4566
424.1938, 241.8283
424.6759, 241.9515
425.1580, 240.7207
425.6401, 238.2569
426.1222, 236.8050
426.6043, 236.8877
427.0865, 237.2010
427.5686, 237.7236
428.0507, 238.1883
428.5328, 238.0955
429.0149, 237.2743
429.4970, 236.2982
429.9792, 236.2181
430.4613, 237.5863
430.9434, 238.6688
431.4255, 239.2881
431.9076, 239.8335
432.3897, 240.6540
432.8719, 241.6329
433.3540, 242.3074
433.8361, 242.2185
434.3182, 241.5272
434.8003, 241.4466
435.2824, 242.5162
435.7646, 243.3817
436.2467, 243.3334
436.7288, 243.1102
437.2109, 243.5785
437.6930, 245.0155
438.1751, 246.7778
438.6573, 248.0617
439.1394, 248.8295
439.6215, 249.6650
440.1036, 251.0279
440.5857, 252.0171
441.0678, 252.0247
441.5500, 251.1867
442.0321, 250.0569
442.5142, 248.8971
442.9963, 247.6279
443.4784, 245.9906
443.9605, 243.9185
444.4427, 242.0076
444.9248, 240.7355
445.4069, 239.7242
445.8890, 238.3606
446.3711, 236.6015
446.8532, 234.5306
447.3354, 231.7419
447.8175, 228.7310
448.2996, 226.7189
448.7817, 226.0723
449.2638, 225.8399
449.7459, 224.9978
450.2281, 223.4975
450.7102, 222.2681
451.1923, 221.4085
451.6744, 220.7697
452.1565, 220.3245
452.6386, 220.0316
453.1208, 219.8197
453.6029, 219.6658
454.0850, 219.5180
454.5671, 219.2307
455.0492, 218.4837
455.5313, 218.0434
456.0135, 218.0360
456.4956, 218.2584
456.9777, 218.6531
457.4598, 219.1474
457.9419, 219.5431
458.4240, 219.6230
458.9062, 219.3810
459.3883, 219.3036
459.8704, 219.2178
460.3525, 219.5318
460.8346, 220.7650
461.3167, 222.2881
461.7989, 223.2485
462.2810, 223.3174
462.7631, 223.0230
463.2452, 223.2560
463.7273, 224.1628
464.2094, 224.7012
464.6916, 224.2702
465.1737, 223.8824
465.6558, 224.2865
466.1379, 225.2789
466.6200, 226.0644
467.1021, 226.1235
467.5843, 225.7323
468.0664, 225.2311
468.5485, 224.5061
469.0306, 224.5426
469.5127, 226.3228
469.9948, 228.8333
470.4770, 230.4594
470.9591, 231.0078
471.4412, 231.2071
471.9233, 231.1488
472.4054, 231.0555
472.8875, 231.3877
473.3697, 232.2435
473.8518, 233.3041
474.3339, 234.4646
474.8160, 235.6680
475.2981, 235.9445
475.7802, 234.5234
476.2624, 233.0134
476.7445, 232.4190
477.2266, 232.1971
477.7087, 231.2474
478.1908, 229.1181
478.6729, 226.3020
479.1551, 223.6597
479.6372, 221.1118
480.1193, 218.9405
480.6014, 217.0933
481.0835, 215.6013
481.5656, 214.6311
482.0478, 214.0461
482.5299, 213.5526
483.0120, 212.9895
483.4941, 212.3136
483.9762, 211.2999
484.4583, 209.5491
484.9405, 208.2978
485.4226, 208.1501
485.9047, 208.3026
486.3868, 208.2324
486.8689, 207.8404
487.3510, 207.1825
487.8332, 205.9847
488.3153, 204.4801
488.7974, 203.9215
489.2795, 204.7239
489.7616, 205.5610
490.2437, 205.3572
490.7259, 204.7262
491.2080, 204.6831
491.6901, 205.7434
492.1722, 206.7455
492.6543, 206.6742
493.1364, 205.8663
493.6186, 205.2984
494.1007, 205.2296
494.5828, 205.3913
495.0649, 205.4817
495.5470, 205.4876
496.0291, 205.6264
496.5113, 206.2917
496.9934, 206.7337
497.4755, 206.3953
497.9576, 205.4832
498.4397, 204.3847
498.9218, 203.2527
499.4040, 202.4009
499.8861, 202.6262
500.3682, 205.0085
500.8503, 206.4738
501.3324, 206.6985
501.8145, 206.4040
502.2967, 205.7548
502.7788, 204.9592
503.2609, 204.3801
503.7430, 204.2585
504.2251, 204.5570
504.7072, 205.2751
505.1894, 206.9310
505.6715, 207.8066
506.1536, 206.5994
506.6357, 205.0287
507.1178, 204.4997
507.5999, 205.1599
508.0821, 206.0405
508.5642, 206.5145
509.0463, 206.6566
509.5284, 206.6962
510.0105, 206.6628
510.4926, 206.4251
510.9748, 205.5860
511.4569, 204.5777
511.9390, 204.4361
512.4211, 205.6886
512.9032, 206.9446
513.3853, 207.7730
513.8674, 208.0821
514.3495, 207.4603
514.8317, 205.8160
515.3138, 204.0934
515.7959, 203.2169
516.2780, 203.2249
516.7601, 203.6237
517.2422, 205.0027
517.7244, 206.0491
518.2065, 206.0092
518.6886, 205.4659
519.1707, 205.3489
519.6528, 205.9680
520.1349, 206.7800
520.6171, 206.9287
521.0992, 206.2432
521.5813, 205.5931
522.0634, 204.5308
522.5455, 203.9837
523.0276, 204.5615
523.5098, 205.8633
523.9919, 207.1535
524.4740, 208.1364
524.9561, 208.9059
525.4382, 209.5594
525.9203, 210.0898
526.4025, 210.6625
526.8846, 211.2550
527.3667, 211.9791
527.8488, 213.0316
528.3309, 214.3503
528.8130, 215.5626
529.2952, 216.6304
529.7773, 217.4897
530.2594, 217.8645
530.7415, 217.9118
531.2236, 218.3736
531.7057, 219.6370
532.1879, 221.3149
532.6700, 222.6533
533.1521, 223.4160
533.6342, 224.3936
534.1163, 225.8323
534.5984, 227.2865
535.0806, 228.3149
535.5627, 229.0892
536.0448, 230.1817
536.5269, 231.9700
537.0090, 234.1898
537.4911, 235.9800
537.9733, 237.0724
538.4554, 238.3589
538.9375, 240.2185
539.4196, 242.0670
539.9017, 243.5452
540.3839, 244.6735
540.8660, 245.6793
541.3481, 246.6537
541.8302, 247.6370
542.3123, 248.7292
542.7944, 249.9389
543.2766, 251.1939
543.7587, 252.5797
544.2408, 253.8930
544.7229, 254.9401
545.2050, 255.7608
545.6871, 256.0642
546.1693, 255.2765
546.6514, 254.2121
547.1335, 253.8558
547.6156, 254.1691
548.0977, 254.4316
548.5798, 254.2188
549.0620, 253.6148
549.5441, 252.9102
550.0262, 251.8770
550.5083, 251.0480
550.9904, 250.0839
551.4725, 249.5806
551.9547, 250.3049
552.4368, 251.9972
552.9189, 253.6046
553.4010, 254.3149
553.8831, 254.3555
554.3652, 254.6237
554.8474, 255.1947
555.3295, 255.8040
555.8116, 256.1926
556.2937, 256.7383
556.7758, 257.8805
557.2579, 259.5768
557.7401, 261.1286
558.2222, 261.9883
558.7043, 262.4915
559.1864, 263.1239
559.6685, 263.8947
560.1506, 265.0968
560.6328, 266.9997
561.1149, 269.2852
561.5970, 271.3178
562.0791, 273.0938
562.5612, 274.6681
563.0433, 275.6725
563.5255, 276.7511
564.0076, 278.5325
564.4897, 280.9407
564.9718, 283.6487
565.4539, 286.5554
565.9360, 289.2606
566.4182, 290.3201
566.9003, 288.8417
567.3824, 287.3709
567.8645, 286.5576
568.3466, 285.4169
568.8287, 283.4137
569.3109, 280.5168
569.7930, 276.9149
570.2751, 272.6229
570.7572, 267.7749
571.2393, 262.5051
571.7214, 256.7690
572.2036, 251.3848
572.6857, 246.8364
573.1678, 242.5774
573.6499, 237.6943
574.1320, 232.2236
574.6141, 227.5617
575.0963, 224.1406
575.5784, 221.6621
576.0605, 220.5569
576.5426, 220.2677
577.0247, 218.8980
577.5068, 215.5014
577.9890, 211.1706
578.4711, 207.9247
578.9532, 206.0278
579.4353, 204.6284
579.9174, 203.9674
580.3995, 203.4949
580.8817, 203.2192
581.3638, 202.8912
581.8459, 202.0360
582.3280, 200.3880
582.8101, 198.4474
583.2922, 196.8740
583.7744, 195.6493
584.2565, 195.2549
584.7386, 196.5046
585.2207, 197.5223
585.7029, 196.7492
586.1850, 194.7422
586.6671, 192.8578
587.1492, 191.2191
587.6313, 190.0520
588.1135, 189.7283
588.5956, 189.9779
589.0777, 190.1356
589.5598, 190.0274
590.0419, 190.0246
590.5240, 190.6267
591.0062, 191.8908
591.4883, 192.3643
591.9704, 191.5721
592.4525, 190.6706
592.9346, 189.7626
593.4167, 188.9895
593.8989, 188.5078
594.3810, 188.3415
594.8631, 188.3484
595.3452, 188.3682
595.8273, 188.4183
596.3094, 188.7412
596.7916, 189.5153
597.2737, 190.1613
597.7558, 190.6540
598.2379, 190.7691
598.7200, 190.0277
599.2021, 188.2654
599.6843, 186.7606
600.1664, 186.6152
600.6485, 186.8869
601.1306, 185.8225
601.6127, 183.5223
602.0948, 182.1256
602.5770, 183.0558
603.0591, 185.3909
603.5412, 186.5917
604.0233, 185.8808
604.5054, 185.2345
604.9875, 184.4943
605.4697, 183.9526
605.9518, 184.0398
606.4339, 184.4828
606.9160, 184.5599
607.3981, 183.8293
607.8802, 182.7080
608.3624, 181.9558
608.8445, 181.5773
609.3266, 181.6054
609.8087, 182.3655
610.2908, 183.1231
610.7729, 183.1669
611.2551, 182.7637
611.7372, 182.7440
612.2193, 183.7959
612.7014, 184.6939
613.1835, 184.2830
613.6656, 183.1096
614.1478, 182.3044
614.6299, 182.1509
615.1120, 182.5165
615.5941, 183.4008
616.0762, 184.8091
616.5583, 185.4467
617.0405, 184.6072
617.5226, 183.8811
618.0047, 183.7565
618.4868, 183.7189
618.9689, 183.0043
619.4510, 181.6641
619.9332, 180.7640
620.4153, 181.5752
620.8974, 183.4615
621.3795, 183.9393
621.8616, 182.7110
622.3438, 181.6825
622.8259, 181.6999
623.3080, 182.1399
623.7901, 182.0633
624.2722, 181.4234
624.7543, 181.1849
625.2365, 182.1552
625.7186, 183.1658
626.2007, 183.0634
626.6828, 182.1818
627.1649, 181.5869
627.6470, 181.7298
628.1292, 182.1711
628.6113, 182.1994
629.0934, 181.7120
629.5755, 181.2299
630.0576, 180.6163
630.5397, 180.1581
631.0219, 179.9162
631.5040, 179.8909
631.9861, 180.1326
632.4682, 180.6640
632.9503, 181.2225
633.4324, 181.5405
633.9146, 181.6937
634.3967, 181.9597
634.8788, 182.3843
635.3609, 182.6983
635.8430, 182.7694
636.3251, 182.6062
636.8073, 182.1834
637.2894, 181.3205
637.7715, 180.6650
638.2536, 180.3076
638.7357, 180.1941
639.2178, 180.4302
639.7000, 180.8769
640.1821, 181.2538
640.6642, 181.4258
641.1463, 181.2893
641.6284, 180.3481
642.1105, 178.2147
642.5927, 177.4483
643.0748, 179.3227
643.5569, 181.2651
644.0390, 181.8360
644.5211, 181.4532
645.0032, 180.9035
645.4854, 180.2530
645.9675, 179.7600
646.4496, 179.7514
646.9317, 179.9728
647.4138, 179.9220
647.8959, 179.5399
648.3781, 179.1257
648.8602, 178.9032
649.3423, 178.8315
649.8244, 178.7212
650.3065, 178.4448
650.7886, 178.3277
651.2708, 178.5805
651.7529, 178.8162
652.2350, 178.7529
652.7171, 178.4453
653.1992, 178.1051
653.6813, 177.8220
654.1635, 177.6112
654.6456, 177.4494
655.1277, 177.3507
655.6098, 177.5501
656.0919, 178.1795
656.5740, 178.8671
657.0562, 179.3637
657.5383, 179.6408
658.0204, 179.6470
658.5025, 178.9525
658.9846, 178.5241
659.4667, 178.9797
659.9489, 179.6336
660.4310, 179.6401
660.9131, 179.0219
661.3952, 178.5160
661.8773, 178.7018
662.3594, 179.3308
662.8416, 179.5280
663.3237, 179.1174
663.8058, 178.9206
664.2879, 179.0569
664.7700, 179.4919
665.2521, 180.5073
665.7343, 181.8219
666.2164, 182.4754
666.6985, 181.9580
667.1806, 181.0296
667.6627, 179.8591
668.1448, 178.7526
668.6270, 178.4296
669.1091, 178.9876
669.5912, 179.7023
670.0733, 179.8947
670.5554, 179.7019
671.0375, 180.1816
671.5197, 182.2295
672.0018, 183.4566
672.4839, 183.3388
672.9660, 182.6313
673.4481, 181.6307
673.9302, 180.4855
674.4124, 179.4006
674.8945, 178.3419
675.3766, 177.6335
675.8587, 178.1342
676.3408, 179.4573
676.8229, 179.6752
677.3051, 178.2573
677.7872, 176.4014
678.2693, 175.0244
678.7514, 174.1363
679.2335, 173.8822
679.7156, 174.6685
680.1978, 175.4748
680.6799, 176.5135
681.1620, 177.2549
681.6441, 177.0928
682.1262, 176.1762
682.6083, 175.1596
683.0905, 174.3929
683.5726, 173.8862
684.0547, 173.7598
684.5368, 174.0123
685.0189, 174.0632
685.5010, 173.7328
685.9832, 173.3366
686.4653, 173.1228
686.9474, 173.0689
687.4295, 173.0392
687.9116, 172.8975
688.3937, 172.9625
688.8759, 173.5996
689.3580, 174.3077
689.8401, 174.5624
690.3222, 174.3640
690.8043, 173.9851
691.2864, 173.5682
691.7686, 173.2183
692.2507, 173.3093
692.7328, 173.9848
693.2149, 174.1452
693.6970, 173.2960
694.1791, 172.4089
694.6613, 172.2912
695.1434, 172.6176
695.6255, 172.6222
696.1076, 171.9018
696.5897, 171.4412
697.0718, 172.0187
697.5540, 172.9063
698.0361, 173.2908
698.5182, 173.0973
699.0003, 172.4427
699.4824, 171.3360
699.9645, 170.1686
700.4467, 170.0318
700.9288, 171.3248
701.4109, 172.1687
701.8930, 172.3911
702.3751, 172.2134
702.8572, 171.4833
703.3394, 170.5370
703.8215, 169.9838
704.3036, 170.0429
704.7857, 170.1128
705.2678, 169.6976
705.7499, 169.1720
706.2321, 169.1651
706.7142, 169.6043
707.1963, 169.8395
707.6784, 169.5117
708.1605, 168.9255
708.6426, 168.7558
709.1248, 169.3002
709.6069, 169.1861
710.0890, 167.7077
710.5711, 166.3909
711.0532, 165.7162
711.5353, 165.5159
712.0175, 165.6710
712.4996, 166.1758
712.9817, 166.5674
713.4638, 166.2356
713.9459, 165.8097
714.4280, 166.4914
714.9102, 168.0197
715.3923, 168.8881
715.8744, 168.4304
716.3565, 167.2658
716.8386, 166.2055
717.3207, 165.1803
717.8029, 164.8006
718.2850, 165.9832
718.7671, 166.6741
719.2492, 165.9422
719.7313, 164.8086
720.2134, 164.3204
720.6956, 164.5703
721.1777, 164.8775
721.6598, 164.6651
722.1419, 164.4117
722.6240, 164.9907
723.1061, 166.1200
723.5883, 166.5777
724.0704, 165.9731
724.5525, 165.0985
725.0346, 164.8079
725.5167, 165.0784
725.9988, 165.0370
726.4810, 164.2878
726.9631, 163.7975
727.4452, 163.8104
727.9273, 164.0036
728.4094, 164.1784
728.8915, 164.3112
729.3737, 164.4146
729.8558, 164.4726
730.3379, 164.5431
730.8200, 164.6890
731.3021, 164.8975
731.7842, 165.1462
732.2664, 165.4296
732.7485, 165.7310
733.2306, 166.0777
733.7127, 166.3849
734.1948, 166.2952
734.6769, 165.4906
735.1591, 164.8673
735.6412, 164.3717
736.1233, 164.1235
736.6054, 164.3658
737.0875, 164.8567
737.5696, 165.1490
738.0518, 165.0836
738.5339, 164.9228
739.0160, 164.9161
739.4981, 164.9401
739.9802, 164.5892
740.4623, 163.9328
740.9445, 163.8722
741.4266, 164.9768
741.9087, 166.3529
742.3908, 166.3021
742.8729, 164.3599
743.3550, 162.9920
743.8372, 162.5174
744.3193, 162.2595
744.8014, 162.0947
745.2835, 162.0209
745.7656, 162.0756
746.2477, 162.2538
746.7299, 162.4198
747.2120, 162.6624
747.6941, 162.7343
748.1762, 162.0212
748.6583, 160.8843
749.1404, 160.6229
749.6226, 161.5912
750.1047, 162.6811
750.5868, 162.7217
751.0689, 161.8269
751.5510, 161.2214
752.0331, 160.8762
752.5153, 160.8860
752.9974, 161.9320
753.4795, 162.7531
753.9616, 162.2324
754.4437, 160.7949
754.9258, 159.8801
755.4080, 160.1565
755.8901, 160.5905
756.3722, 160.5968
756.8543, 160.2614
757.3364, 159.4431
757.8185, 158.3172
758.3007, 157.7917
758.7828, 158.4855
759.2649, 159.6951
759.7470, 159.7361
760.2291, 158.1730
760.7112, 157.6349
761.1934, 159.0234
761.6755, 160.1257
762.1576, 159.5785
762.6397, 158.3122
763.1218, 157.3806
763.6039, 156.8566
764.0861, 156.7680
764.5682, 157.4185
765.0503, 158.2369
765.5324, 158.9459
766.0145, 159.4397
766.4966, 159.4832
766.9788, 159.0528
767.4609, 158.5290
767.9430, 158.2887
768.4251, 158.2877
768.9072, 158.3297
769.3893, 158.4385
769.8715, 158.4406
770.3536, 158.1668
770.8357, 157.9536
771.3178, 158.1975
771.7999, 158.8010
772.2820, 159.2617
772.7642, 159.5190
773.2463, 159.6735
773.7284, 159.5283
774.2105, 159.4648
774.6926, 160.0304
775.1747, 160.9893
775.6569, 161.5620
776.1390, 161.3363
776.6211, 160.8180
777.1032, 160.7578
777.5853, 161.0442
778.0674, 160.9373
778.5496, 160.3179
779.0317, 159.9212
779.5138, 160.1404
779.9959, 160.7405
780.4780, 161.3744
780.9601, 162.1534
781.4423, 162.4829
781.9244, 161.7892
782.4065, 161.3616
782.8886, 161.8304
783.3707, 162.6371
783.8528, 163.1786
784.3350, 163.3880
784.8171, 163.5795
785.2992, 164.0156
785.7813, 164.4542
786.2634, 164.4646
786.7455, 164.2084
787.2277, 164.2340
787.7098, 164.6479
788.1919, 165.2269
788.6740, 165.8454
789.1561, 166.4104
789.6382, 166.5173
790.1204, 165.7998
790.6025, 165.5196
791.0846, 166.4871
791.5667, 167.0667
792.0488, 166.2063
792.5309, 164.6364
793.0131, 163.4320
793.4952, 162.7575
793.9773, 162.5474
794.4594, 163.2736
794.9415, 164.0281
795.4236, 163.8584
795.9058, 163.0389
796.3879, 162.2435
796.8700, 161.6978
797.3521, 161.3241
797.8342, 161.0609
798.3163, 160.8888
798.7985, 160.7294
799.2806, 160.6033
799.7627, 160.3430
800.2448, 159.8106
800.7269, 159.2963
801.2090, 159.1006
801.6912, 159.1510
802.1733, 159.0390
802.6554, 158.7277
803.1375, 158.3083
803.6196, 157.5088
804.1017, 156.8671
804.5839, 157.0605
805.0660, 157.6642
805.5481, 157.6398
806.0302, 156.5985
806.5123, 155.5602
806.9944, 155.7292
807.4766, 156.6146
807.9587, 157.0929
808.4408, 157.1385
808.9229, 156.9307
809.4050, 156.5364
809.8871, 155.8778
810.3693, 154.7317
810.8514, 153.1132
811.3335, 152.4022
811.8156, 153.0718
812.2977, 153.8653
812.7798, 154.7568
813.2620, 155.5653
813.7441, 156.3251
814.2262, 156.8951
814.7083, 156.8238
815.1904, 155.6312
815.6725, 154.6880
816.1547, 155.0619
816.6368, 155.8799
817.1189, 156.1237
817.6010, 155.8776
818.0831, 155.7714
818.5652, 156.0652
819.0474, 156.2852
819.5295, 155.6776
820.0116, 154.3686
820.4937, 153.4901
820.9758, 153.0429
821.4579, 153.1024
821.9401, 153.9802
822.4222, 154.8665
822.9043, 154.7863
823.3864, 153.7895
823.8685, 153.2463
824.3506, 153.6378
824.8328, 153.7919
825.3149, 153.2195
825.7970, 152.6323
826.2791, 152.5755
826.7612, 152.9222
827.2433, 153.3295
827.7255, 153.7073
828.2076, 153.8770
828.6897, 153.4998
829.1718, 152.9131
829.6539, 152.7281
830.1360, 152.8849
830.6182, 152.9566
831.1003, 152.7816
831.5824, 152.5093
832.0645, 152.3155
832.5466, 152.1919
833.0287, 152.0221
833.5109, 151.6954
833.9930, 151.6768
834.4751, 152.2986
834.9572, 152.9682
835.4393, 153.2006
835.9214, 153.0952
836.4036, 152.9240
836.8857, 152.7311
837.3678, 152.4224
837.8499, 151.7752
838.3320, 151.1918
838.8141, 150.9715
839.2963, 151.0334
839.7784, 151.1855
840.2605, 151.3708
840.7426, 151.6769
841.2247, 152.4597
841.7068, 153.2922
842.1890, 153.1888
842.6711, 152.3060
843.1532, 151.4427
843.6353, 150.7943
844.1174, 150.5462
844.5995, 150.9359
845.0817, 151.7815
845.5638, 152.2471
846.0459, 152.2183
846.5280, 152.1243
847.0101, 152.0156
847.4922, 151.8149
847.9744, 151.3114
848.4565, 150.7625
848.9386, 150.6307
849.4207, 151.0290
849.9028, 151.2701
850.3849, 151.1095
850.8671, 150.8064
851.3492, 150.2578
851.8313, 149.7957
852.3134, 150.1011
852.7955, 151.0690
853.2776, 151.6067
853.7598, 150.8244
854.2419, 149.5755
854.7240, 149.1752
855.2061, 149.4368
855.6882, 149.7121
856.1703, 149.9095
856.6525, 149.7460
857.1346, 148.9576
857.6167, 148.1204
858.0988, 148.4717
858.5809, 150.3316
859.0630, 151.2112
859.5452, 150.6194
860.0273, 149.9201
860.5094, 149.5089
860.9915, 149.1682
861.4736, 148.5618
861.9557, 147.7987
862.4379, 147.5456
862.9200, 148.4746
863.4021, 149.1529
863.8842, 148.8607
864.3663, 148.2988
864.8484, 147.9780
865.3306, 147.9263
865.8127, 148.0771
866.2948, 148.4022
866.7769, 148.7210
867.2590, 148.8557
867.7411, 148.8535
868.2233, 148.7808
868.7054, 148.6535
869.1875, 148.5613
869.6696, 148.5299
870.1517, 148.4774
870.6339, 148.3291
871.1160, 148.0930
871.5981, 147.7901
872.0802, 147.3784
872.5623, 147.0320
873.0444, 146.6662
873.5266, 146.5451
874.0087, 147.0309
874.4908, 147.7652
874.9729, 148.0752
875.4550, 147.8956
875.9371, 147.6685
876.4193, 147.4079
876.9014, 147.1634
877.3835, 146.8259
877.8656, 146.6044
878.3477, 146.9107
878.8298, 147.5887
879.3120, 147.9006
879.7941, 147.4018
880.2762, 146.6190
880.7583, 145.8287
881.2404, 145.2089
881.7225, 145.2007
882.2047, 145.7093
882.6868, 146.1965
883.1689, 146.4293
883.6510, 146.5071
884.1331, 146.5871
884.6152, 146.6307
885.0974, 146.2014
885.5795, 145.1659
886.0616, 144.6945
886.5437, 145.2170
887.0258, 145.9997
887.5079, 146.5868
887.9901, 146.9166
888.4722, 146.7177
888.9543, 145.4218
889.4364, 144.6843
889.9185, 144.9473
890.4006, 145.2471
890.8828, 145.0926
891.3649, 144.8307
891.8470, 145.0216
892.3291, 145.6707
892.8112, 146.0001
893.2933, 145.2781
893.7755, 144.6210
894.2576, 144.9174
894.7397, 145.5584
895.2218, 145.8942
895.7039, 145.8246
896.1860, 145.2793
896.6682, 144.1910
897.1503, 143.2703
897.6324, 143.6490
898.1145, 144.8311
898.5966, 145.3575
899.0787, 145.2337
899.5609, 144.8820
900.0430, 144.4129
900.5251, 144.0415
901.0072, 144.0102
901.4893, 144.2169
901.9714, 144.1567
902.4536, 143.7535
902.9357, 143.3287
903.4178, 142.7286
903.8999, 142.4499
904.3820, 143.0706
904.8641, 143.9998
905.3463, 144.0712
905.8284, 143.1119
906.3105, 142.7677
906.7926, 143.7508
907.2747, 144.6011
907.7568, 144.7471
908.2390, 144.6814
908.7211, 145.0097
909.2032, 145.5232
909.6853, 145.4104
910.1674, 144.2121
910.6495, 143.0635
911.1317, 142.6721
911.6138, 142.7554
912.0959, 143.2188
912.5780, 143.8441
913.0601, 144.1648
913.5422, 144.0811
914.0244, 143.9287
914.5065, 144.0017
914.9886, 144.1836
915.4707, 144.2708
915.9528, 144.2525
916.4349, 143.8945
916.9171, 143.1553
917.3992, 143.0114
917.8813, 144.1073
918.3634, 145.6471
918.8455, 146.2802
919.3276, 145.9511
919.8098, 145.6737
920.2919, 145.3918
920.7740, 145.3349
921.2561, 145.8419
921.7382, 146.2223
922.2203, 145.6816
922.7025, 144.5376
923.1846, 144.0468
923.6667, 144.5193
924.1488, 144.9611
924.6309, 145.5343
925.1130, 145.7717
925.5952, 145.3232
926.0773, 144.5061
926.5594, 143.4802
927.0415, 142.3988
927.5236, 141.9088
928.0057, 142.4938
928.4879, 143.4322
928.9700, 144.7727
929.4521, 145.8442
929.9342, 145.5122
930.4163, 144.2315
930.8984, 143.4294
931.3806, 143.6292
931.8627, 144.0494
932.3448, 143.8676
932.8269, 143.3837
933.3090, 143.1931
933.7911, 143.2560
934.2733, 143.5775
934.7554, 144.1125
935.2375, 144.0234
935.7196, 142.6253
936.2017, 140.8531
936.6838, 141.0148
937.1660, 143.2737
937.6481, 143.9275
938.1302, 142.5303
938.6123, 141.4723
939.0944, 141.6184
939.5765, 142.2300
940.0587, 142.6048
940.5408, 142.7797
941.0229, 143.0081
941.5050, 143.4060
941.9871, 143.6453
942.4692, 143.6298
942.9514, 143.5494
943.4335, 143.3353
943.9156, 143.1773
944.3977, 143.4567
944.8798, 144.1739
945.3619, 144.4610
945.8441, 143.7395
946.3262, 143.0752
946.8083, 142.8668
947.2904, 142.8505
947.7725, 142.8659
948.2546, 142.8677
948.7368, 142.8423
949.2189, 142.7881
949.7010, 142.6060
950.1831, 141.9025
950.6652, 141.3374
951.1473, 142.0909
951.6295, 143.2554
952.1116, 142.8431
952.5937, 140.9536
953.0758, 139.6157
953.5579, 140.0272
954.0400, 141.1044
954.5222, 141.4193
955.0043, 141.2048
955.4864, 141.2405
955.9685, 141.4668
956.4506, 141.0957
956.9327, 139.8948
957.4149, 138.8591
957.8970, 138.8988
958.3791, 139.7066
958.8612, 140.4721
959.3433, 141.2300
959.8254, 141.2616
960.3076, 140.2955
960.7897, 139.6025
961.2718, 139.7418
961.7539, 140.3899
962.2360, 141.2746
962.7181, 142.3602
963.2003, 142.6888
963.6824, 141.5773
964.1645, 141.1405
964.6466, 142.2562
965.1287, 143.2366
965.6108, 142.9659
966.0930, 142.1062
966.5751, 141.6214
967.0572, 141.5649
967.5393, 141.5174
968.0214, 141.2663
968.5035, 141.2479
968.9857, 141.7388
969.4678, 142.3601
969.9499, 143.1709
970.4320, 143.7998
970.9141, 143.2609
971.3962, 141.1208
971.8784, 139.7069
972.3605, 141.0211
972.8426, 142.4180
973.3247, 141.6433
973.8068, 140.1378
974.2889, 139.8982
974.7711, 140.8581
975.2532, 141.6902
975.7353, 141.8077
976.2174, 141.4892
976.6995, 140.7618
977.1816, 139.9071
977.6638, 139.3896
978.1459, 139.0651
978.6280, 138.4017
979.1101, 137.3822
979.5922, 136.7391
980.0743, 137.0489
980.5565, 137.7248
981.0386, 137.7068
981.5207, 137.2550
982.0028, 137.5045
982.4849, 138.3815
982.9670, 138.5662
983.4492, 137.6071
983.9313, 136.4792
984.4134, 136.0503
984.8955, 136.2791
985.3776, 137.3891
985.8597, 139.4496
986.3419, 139.8325
986.8240, 138.0520
987.3061, 136.3374
987.7882, 135.5476
988.2703, 135.5639
988.7524, 136.4449
989.2346, 138.0241
989.7167, 138.3816
990.1988, 136.8790
990.6809, 136.1404
991.1630, 136.7781
991.6451, 137.5171
992.1273, 137.8065
992.6094, 137.7588
993.0915, 137.4131
993.5736, 136.7239
994.0557, 136.5982
994.5378, 137.7207
995.0200, 138.3991
995.5021, 138.0690
995.9842, 137.6890
996.4663, 137.7910
996.9484, 138.1723
997.4305, 138.5824
997.9127, 139.0341
998.3948, 139.0441
998.8769, 138.0463
999.3590, 137.2458
999.8411, 137.1868
1000.323, 137.2985
1000.805, 137.0840
1001.287, 136.7084
1001.770, 136.6667
1002.252, 137.0982
1002.734, 137.2257
1003.216, 136.3324
1003.698, 135.5047
1004.180, 135.6722
1004.662, 136.0232
1005.144, 135.4028
1005.627, 134.1863
1006.109, 133.6952
1006.591, 134.4152
1007.073, 135.2980
1007.555, 135.6055
1008.037, 135.7477
1008.519, 136.2144
1009.001, 136.7337
1009.483, 136.7440
1009.966, 136.3401
1010.448, 136.0982
1010.930, 136.2886
1011.412, 136.7260
1011.894, 137.3735
1012.376, 138.0462
1012.858, 138.4776
1013.340, 138.6951
1013.823, 138.7751
1014.305, 138.7392
1014.787, 138.5142
1015.269, 138.0314
1015.751, 137.7469
1016.233, 138.4696
1016.715, 139.8278
1017.197, 140.9931
1017.679, 141.8497
1018.162, 141.6995
1018.644, 140.4891
1019.126, 139.5312
1019.608, 139.7310
1020.090, 140.4299
1020.572, 140.4097
1021.054, 139.8184
1021.536, 139.8124
1022.018, 140.3725
1022.501, 140.6927
1022.983, 140.5696
1023.465, 140.3336
1023.947, 140.2100
1024.429, 140.1882
1024.911, 140.3373
1025.393, 140.6701
1025.875, 140.4436
1026.358, 139.5835
1026.840, 138.8036
1027.322, 138.3267
1027.804, 137.7412
1028.286, 136.6077
1028.768, 135.3601
1029.250, 135.2159
1029.732, 136.4007
1030.214, 136.9427
1030.697, 136.7419
1031.179, 136.1589
1031.661, 135.0343
1032.143, 134.1611
1032.625, 134.3004
1033.107, 135.0394
1033.589, 135.2221
1034.071, 134.7994
1034.553, 133.9532
1035.036, 132.0959
1035.518, 131.1200
1036.000, 131.9321
1036.482, 133.1549
1036.964, 133.8252
1037.446, 134.0320
1037.928, 133.9733
1038.410, 133.4492
1038.893, 133.3786
1039.375, 134.1951
1039.857, 134.7751
1040.339, 134.7362
1040.821, 134.4988
1041.303, 134.2374
1041.785, 134.0420
1042.267, 134.2952
1042.750, 135.4269
1043.232, 135.5764
1043.714, 133.3923
1044.196, 132.0280
1044.678, 133.0694
1045.160, 134.3564
1045.642, 133.9276
1046.124, 132.6064
1046.606, 132.5962
1047.089, 134.4905
1047.571, 135.6880
1048.053, 135.2883
1048.535, 135.0076
1049.017, 135.8119
1049.499, 136.4374
1049.981, 135.4749
1050.463, 133.7137
1050.945, 133.0325
1051.428, 133.8187
1051.910, 134.5072
1052.392, 135.2602
1052.874, 135.2705
1053.356, 133.3702
1053.838, 131.4866
1054.320, 131.3308
1054.802, 132.2393
1055.285, 132.7375
1055.767, 132.5774
1056.249, 132.3658
1056.731, 132.1892
1057.213, 132.0806
1057.695, 132.1843
1058.177, 132.2356
1058.659, 131.8133
1059.141, 131.2700
1059.624, 131.3904
1060.106, 132.3081
1060.588, 132.9299
1061.070, 132.7195
1061.552, 132.4028
1062.034, 131.9896
1062.516, 131.8436
1062.998, 132.6355
1063.480, 133.7243
1063.963, 133.8568
1064.445, 132.8962
1064.927, 132.2658
1065.409, 133.1266
1065.891, 133.5473
1066.373, 132.0567
1066.855, 130.4997
1067.337, 130.2959
1067.820, 130.9994
1068.302, 131.9856
1068.784, 133.0499
1069.266, 133.6704
1069.748, 133.1834
1070.230, 133.0293
1070.712, 134.3520
1071.194, 135.7301
1071.677, 136.1907
1072.159, 135.9643
1072.641, 135.2807
1073.123, 134.3135
1073.605, 133.6201
1074.087, 133.4355
1074.569, 133.4710
1075.051, 133.7593
1075.533, 134.0457
1076.016, 134.1125
1076.498, 134.0897
1076.980, 134.0930
1077.462, 134.1811
1077.944, 134.5591
1078.426, 135.5244
1078.908, 135.9579
1079.390, 134.7427
1079.873, 133.4947
1080.355, 133.3200
1080.837, 133.6816
1081.319, 134.0487
1081.801, 134.3132
1082.283, 134.4085
1082.765, 134.2749
1083.247, 134.2359
1083.729, 134.4384
1084.212, 134.7759
1084.694, 135.6496
1085.176, 136.2524
1085.658, 135.3922
1086.140, 133.6619
1086.622, 132.5944
1087.104, 132.5688
1087.586, 132.7698
1088.068, 133.1578
1088.551, 133.3024
1089.033, 132.7124
1089.515, 132.0397
1089.997, 131.9048
1090.479, 132.1004
1090.961, 132.2253
1091.443, 132.1918
1091.925, 131.9164
1092.408, 131.1275
1092.890, 130.4194
1093.372, 130.1484
1093.854, 129.9239
1094.336, 129.2873
1094.818, 128.6043
1095.300, 128.5833
1095.782, 129.1768
1096.265, 129.4001
1096.747, 128.8148
1097.229, 128.1258
1097.711, 127.2262
1098.193, 126.6756
1098.675, 127.2222
1099.157, 128.0022
1099.639, 127.8398
1100.121, 126.9344
1100.604, 126.5508
1101.086, 127.1578
1101.568, 127.6530
1102.050, 127.4748
1102.532, 127.4698
1103.014, 128.4217
1103.496, 129.3529
1103.978, 129.2333
1104.460, 128.3873
1104.943, 127.7611
1105.425, 127.4968
1105.907, 127.3805
1106.389, 127.3455
1106.871, 127.4910
1107.353, 128.0495
1107.835, 128.5938
1108.317, 128.9562
1108.800, 129.0489
1109.282, 128.6015
1109.764, 127.5659
1110.246, 126.9204
1110.728, 127.0277
1111.210, 127.1157
1111.692, 127.0534
1112.174, 126.9822
1112.656, 126.6836
1113.139, 126.6015
1113.621, 127.7737
1114.103, 129.9519
1114.585, 130.4216
1115.067, 127.6049
1115.549, 125.9021
1116.031, 126.0583
1116.513, 126.2753
1116.995, 125.8552
1117.478, 125.4380
1117.960, 125.7575
1118.442, 126.4799
1118.924, 126.4513
1119.406, 125.2661
1119.888, 124.9893
1120.370, 126.2596
1120.852, 127.0728
1121.335, 126.7011
1121.817, 126.3454
1122.299, 126.9472
1122.781, 127.8502
1123.263, 127.6806
1123.745, 126.3915
1124.227, 126.7305
1124.709, 129.5482
1125.192, 130.8495
1125.674, 129.7177
1126.156, 128.2903
1126.638, 127.4198
1127.120, 127.0348
1127.602, 127.1399
1128.084, 127.5954
1128.566, 127.6225
1129.048, 127.1103
1129.531, 127.3163
1130.013, 128.4524
1130.495, 129.1095
1130.977, 128.7948
1131.459, 128.2322
1131.941, 128.0038
1132.423, 127.9463
1132.905, 127.7218
1133.387, 127.3358
1133.870, 126.7717
1134.352, 126.0465
1134.834, 125.6733
1135.316, 125.7509
1135.798, 126.1446
1136.280, 126.8022
1136.762, 127.4173
1137.244, 127.6081
1137.727, 127.4359
1138.209, 126.9102
1138.691, 126.1864
1139.173, 125.9683
1139.655, 126.2719
1140.137, 126.8307
1140.619, 127.5100
1141.101, 127.8835
1141.583, 127.5119
1142.066, 126.9571
1142.548, 127.3650
1143.030, 128.0728
1143.512, 127.4428
1143.994, 125.9862
1144.476, 125.2360
1144.958, 125.4160
1145.440, 125.9177
1145.922, 126.4543
1146.405, 126.9287
1146.887, 127.4590
1147.369, 127.6818
1147.851, 126.8411
1148.333, 125.6391
1148.815, 125.0822
1149.297, 125.1279
1149.779, 125.4963
1150.262, 126.0359
1150.744, 126.1340
1151.226, 124.8613
1151.708, 124.0149
1152.190, 125.4962
1152.672, 127.1505
1153.154, 126.8687
1153.636, 125.7301
1154.119, 125.3789
1154.601, 125.9004
1155.083, 126.5638
1155.565, 127.2799
1156.047, 127.7282
1156.529, 127.6859
1157.011, 127.5052
1157.493, 127.3509
1157.975, 127.1115
1158.458, 126.5137
1158.940, 125.8187
1159.422, 125.6115
1159.904, 125.9801
1160.386, 126.2391
1160.868, 126.1549
1161.350, 126.2330
1161.832, 126.7790
1162.314, 127.1656
1162.797, 127.0504
1163.279, 126.7336
1163.761, 126.4948
1164.243, 126.3336
1164.725, 126.2435
1165.207, 126.1957
1165.689, 126.3731
1166.171, 126.9794
1166.654, 127.1329
1167.136, 126.4133
1167.618, 125.8635
1168.100, 126.2425
1168.582, 127.0350
1169.064, 127.3856
1169.546, 127.3276
1170.028, 127.1519
1170.510, 126.8589
1170.993, 126.2889
1171.475, 125.4148
1171.957, 124.8286
1172.439, 124.7491
1172.921, 125.0612
1173.403, 125.7344
1173.885, 126.4467
1174.367, 126.5079
1174.849, 126.0806
1175.332, 125.6017
1175.814, 125.1490
1176.296, 124.8448
1176.778, 124.7789
1177.260, 125.5125
1177.742, 127.3016
1178.224, 128.4866
1178.706, 126.8421
1179.189, 124.4431
1179.671, 123.9146
1180.153, 124.4148
1180.635, 124.9462
1181.117, 125.3722
1181.599, 125.5460
1182.081, 125.5573
1182.563, 126.1206
1183.046, 127.9801
1183.528, 129.0511
1184.010, 127.2163
1184.492, 125.1950
1184.974, 124.8810
1185.456, 125.2949
1185.938, 125.4121
1186.420, 125.3152
1186.902, 125.5118
1187.385, 126.1036
1187.867, 126.5008
1188.349, 126.3184
1188.831, 126.3410
1189.313, 126.9484
1189.795, 127.5097
1190.277, 127.8392
1190.759, 127.8637
1191.241, 127.1818
1191.724, 126.1687
1192.206, 126.4622
1192.688, 128.7477
1193.170, 129.2654
1193.652, 127.2012
1194.134, 125.9306
1194.616, 126.3209
1195.098, 126.9218
1195.581, 126.9346
1196.063, 126.7039
1196.545, 126.7456
1197.027, 126.9073
1197.509, 126.3913
1197.991, 125.2600
1198.473, 124.4705
1198.955, 124.0969
1199.438, 124.4012
1199.920, 125.3907
1200.402, 126.1590
1200.884, 126.0772
1201.366, 125.7327
1201.848, 126.0083
1202.330, 126.4928
1202.812, 126.3588
1203.294, 125.8515
1203.776, 125.2822
1204.259, 124.8534
1204.741, 125.1407
1205.223, 126.1536
1205.705, 126.6991
1206.187, 125.8557
1206.669, 125.0104
1207.151, 125.1908
1207.633, 125.6760
1208.116, 125.9993
1208.598, 126.2306
1209.080, 126.6050
1209.562, 126.9666
1210.044, 126.7742
1210.526, 125.8639
1211.008, 125.3879
1211.490, 126.0913
1211.973, 126.4441
1212.455, 125.8176
1212.937, 125.2109
1213.419, 124.9093
1213.901, 124.9888
1214.383, 125.7741
1214.865, 126.9073
1215.347, 127.1115
1215.829, 126.2119
1216.312, 125.5369
1216.794, 125.0468
1217.276, 125.1458
1217.758, 126.0562
1218.240, 126.4365
1218.722, 125.5164
1219.204, 124.6945
1219.686, 125.6986
1220.168, 127.5927
1220.651, 127.9342
1221.133, 127.0752
1221.615, 126.2327
1222.097, 125.5443
1222.579, 125.3016
1223.061, 125.5054
1223.543, 125.9529
1224.025, 126.5426
1224.508, 126.7893
1224.990, 125.9736
1225.472, 124.9744
1225.954, 124.5801
1226.436, 124.5709
1226.918, 124.7720
1227.400, 125.1311
1227.882, 125.7195
1228.365, 126.4371
1228.847, 126.8992
1229.329, 126.9790
1229.811, 126.8773
1230.293, 126.3836
1230.775, 126.0889
1231.257, 126.4769
1231.739, 126.8074
1232.221, 126.5047
1232.703, 125.9457
1233.186, 125.5881
1233.668, 125.4129
1234.150, 125.2931
1234.632, 125.2229
1235.114, 125.2444
1235.596, 125.3810
1236.078, 125.5211
1236.560, 125.6581
1237.043, 125.6449
1237.525, 125.3768
1238.007, 125.0403
1238.489, 124.8544
1238.971, 124.8173
1239.453, 125.0116
1239.935, 125.3311
1240.417, 125.4400
1240.900, 125.3289
1241.382, 124.9077
1241.864, 124.2918
1242.346, 124.1689
1242.828, 124.8974
1243.310, 125.5263
1243.792, 124.9366
1244.274, 124.3724
1244.756, 125.1661
1245.239, 126.1433
1245.721, 126.1681
1246.203, 125.5906
1246.685, 124.8614
1247.167, 124.1624
1247.649, 123.9898
1248.131, 124.6457
1248.613, 125.0952
1249.095, 125.0066
1249.578, 125.0333
1250.060, 125.5330
1250.542, 125.7423
1251.024, 125.0433
1251.506, 124.2600
1251.988, 124.4897
1252.470, 125.3593
1252.952, 125.2678
1253.435, 124.1734
1253.917, 124.0821
1254.399, 124.9677
1254.881, 125.0128
1255.363, 123.9684
1255.845, 123.3925
1256.327, 123.9943
1256.809, 124.7543
1257.292, 124.6614
1257.774, 124.3167
1258.256, 124.6683
1258.738, 125.1910
1259.220, 124.8292
1259.702, 124.2593
1260.184, 125.0097
1260.666, 126.6765
1261.148, 127.5086
1261.630, 127.0278
1262.113, 126.1936
1262.595, 124.7970
1263.077, 123.9390
1263.559, 124.3714
1264.041, 124.8680
1264.523, 124.7210
1265.005, 124.4904
1265.487, 124.7426
1265.970, 125.2315
1266.452, 125.3731
1266.934, 125.1608
1267.416, 125.1125
1267.898, 125.2801
1268.380, 125.1497
1268.862, 124.6464
1269.344, 124.4403
1269.827, 124.7534
1270.309, 124.7194
1270.791, 123.6442
1271.273, 122.4795
1271.755, 122.7830
1272.237, 123.7622
1272.719, 123.6950
1273.201, 123.3933
1273.683, 124.8299
1274.166, 127.1097
1274.648, 127.7379
1275.130, 126.5283
1275.612, 125.4330
1276.094, 125.1848
1276.576, 125.0525
1277.058, 124.6592
1277.540, 124.4506
1278.022, 124.9426
1278.505, 125.2952
1278.987, 124.5565
1279.469, 123.7073
1279.951, 124.0360
1280.433, 125.1823
1280.915, 125.6036
1281.397, 125.1660
1281.879, 125.3001
1282.362, 126.1022
1282.844, 126.2573
1283.326, 125.5422
1283.808, 124.9848
1284.290, 125.0063
1284.772, 125.2250
1285.254, 125.2699
1285.736, 125.1393
##END=



