##NAMES=Eastonite
##RRUFFID=R100078
##IDEAL CHEMISTRY=KAlMg_2_(Si_2_Al_2_)O_10_(OH)_2_
##LOCALITY=C.K. Williams & Co. quarry, Northampton County, Pennsylvania, USA
##OWNER=RRUFF
##SOURCE=Jeff Weissman
##DESCRIPTION=Yellowish-green platy
##STATUS=The identification of this mineral is not yet confirmed.
##URL=rruff.info/R100078
90.01007, 0.0000000E+00
90.49219, 108.6504
90.97430, 107.2558
91.45642, 106.7635
91.93854, 107.9072
92.42065, 109.7413
92.90277, 110.8299
93.38489, 111.0016
93.86700, 110.8465
94.34912, 110.8069
94.83124, 110.9394
95.31335, 111.5891
95.79547, 113.8403
96.27759, 117.0257
96.75970, 118.1611
97.24182, 116.1379
97.72394, 112.7199
98.20605, 112.0360
98.68817, 114.3791
99.17029, 117.0860
99.65240, 118.3103
100.1345, 118.0223
100.6166, 116.4574
101.0988, 112.9306
101.5809, 107.9153
102.0630, 105.4565
102.5451, 106.1255
103.0272, 108.2924
103.5093, 110.5535
103.9915, 113.4820
104.4736, 114.8957
104.9557, 113.5199
105.4378, 108.3995
105.9199, 106.0370
106.4020, 108.0014
106.8842, 111.9410
107.3663, 113.7042
107.8484, 111.3418
108.3305, 109.0382
108.8126, 108.2195
109.2947, 109.6017
109.7769, 111.2893
110.2590, 114.3147
110.7411, 117.8333
111.2232, 119.1414
111.7053, 115.3248
112.1874, 111.3067
112.6696, 109.3257
113.1517, 111.6465
113.6338, 113.8020
114.1159, 115.2301
114.5980, 115.9794
115.0801, 116.4669
115.5623, 116.1000
116.0444, 115.8309
116.5265, 116.3932
117.0086, 119.4956
117.4907, 122.1397
117.9728, 122.6984
118.4550, 121.0593
118.9371, 120.0093
119.4192, 121.7675
119.9013, 124.6163
120.3834, 126.3380
120.8655, 124.4714
121.3477, 122.1429
121.8298, 121.7800
122.3119, 123.8496
122.7940, 126.3242
123.2761, 127.7476
123.7582, 128.4973
124.2404, 129.4139
124.7225, 131.1320
125.2046, 133.2093
125.6867, 134.8161
126.1688, 135.3929
126.6509, 136.5839
127.1331, 140.4150
127.6152, 146.5771
128.0973, 153.5338
128.5794, 159.8734
129.0615, 166.2162
129.5436, 173.9010
130.0258, 182.9053
130.5079, 193.7379
130.9900, 208.0465
131.4721, 225.7061
131.9542, 244.7868
132.4363, 263.0715
132.9185, 280.9489
133.4006, 301.0113
133.8827, 323.7443
134.3648, 349.0640
134.8469, 377.6327
135.3290, 409.0373
135.8112, 445.6879
136.2933, 489.6624
136.7754, 541.1724
137.2575, 599.2147
137.7396, 663.9709
138.2217, 734.3306
138.7039, 812.1940
139.1860, 899.0964
139.6681, 991.3231
140.1502, 1086.009
140.6323, 1183.123
141.1144, 1279.709
141.5966, 1375.537
142.0787, 1470.945
142.5608, 1561.740
143.0429, 1647.384
143.5250, 1728.553
144.0071, 1805.806
144.4893, 1876.960
144.9714, 1946.659
145.4535, 2015.172
145.9356, 2078.835
146.4177, 2150.113
146.8998, 2230.332
147.3820, 2318.555
147.8641, 2414.452
148.3462, 2515.140
148.8283, 2624.973
149.3104, 2747.923
149.7925, 2893.239
150.2747, 3038.857
150.7568, 3179.865
151.2389, 3316.977
151.7210, 3459.414
152.2031, 3619.567
152.6852, 3776.089
153.1674, 3917.469
153.6495, 4035.047
154.1316, 4144.581
154.6137, 4247.576
155.0958, 4344.067
155.5779, 4434.842
156.0601, 4519.102
156.5422, 4598.302
157.0243, 4672.659
157.5064, 4744.431
157.9885, 4809.370
158.4706, 4862.858
158.9528, 4902.943
159.4349, 4947.956
159.9170, 5001.771
160.3991, 5063.239
160.8812, 5131.026
161.3633, 5210.052
161.8455, 5291.077
162.3276, 5368.329
162.8097, 5437.890
163.2918, 5515.615
163.7739, 5611.112
164.2560, 5711.608
164.7382, 5770.835
165.2203, 5811.255
165.7024, 5853.539
166.1845, 5903.768
166.6666, 5965.291
167.1487, 6026.672
167.6309, 6083.722
168.1130, 6136.949
168.5951, 6186.320
169.0772, 6230.636
169.5593, 6272.460
170.0414, 6314.685
170.5236, 6359.797
171.0057, 6401.083
171.4878, 6433.730
171.9699, 6459.092
172.4520, 6480.514
172.9341, 6498.869
173.4163, 6515.017
173.8984, 6530.018
174.3805, 6544.438
174.8626, 6557.161
175.3447, 6566.366
175.8268, 6572.703
176.3090, 6579.420
176.7911, 6587.589
177.2732, 6597.615
177.7553, 6610.503
178.2374, 6628.058
178.7195, 6646.737
179.2017, 6660.701
179.6838, 6670.643
180.1659, 6682.284
180.6480, 6701.105
181.1301, 6724.987
181.6122, 6749.312
182.0944, 6771.665
182.5765, 6794.458
183.0586, 6823.397
183.5407, 6857.924
184.0228, 6893.937
184.5049, 6928.011
184.9871, 6960.460
185.4692, 6990.771
185.9513, 7017.003
186.4334, 7041.835
186.9155, 7072.557
187.3976, 7109.233
187.8798, 7149.366
188.3619, 7190.968
188.8440, 7234.279
189.3261, 7278.199
189.8082, 7323.782
190.2903, 7369.968
190.7725, 7414.584
191.2546, 7458.812
191.7367, 7498.350
192.2188, 7530.994
192.7009, 7556.815
193.1830, 7570.920
193.6652, 7571.828
194.1473, 7559.701
194.6294, 7533.313
195.1115, 7490.914
195.5936, 7440.289
196.0757, 7390.251
196.5579, 7340.786
197.0400, 7292.108
197.5221, 7242.954
198.0042, 7193.900
198.4863, 7150.946
198.9684, 7114.758
199.4506, 7083.736
199.9327, 7055.439
200.4148, 7029.343
200.8969, 7009.038
201.3790, 6997.115
201.8611, 6993.880
202.3433, 6990.825
202.8254, 6988.046
203.3075, 6985.048
203.7896, 6980.485
204.2717, 6973.651
204.7538, 6968.067
205.2360, 6965.933
205.7181, 6967.792
206.2002, 6967.023
206.6823, 6962.483
207.1644, 6956.627
207.6465, 6954.661
208.1287, 6957.932
208.6108, 6960.597
209.0929, 6959.526
209.5750, 6953.704
210.0571, 6950.324
210.5392, 6949.893
211.0214, 6951.731
211.5035, 6955.005
211.9856, 6960.862
212.4677, 6965.352
212.9498, 6966.233
213.4319, 6962.446
213.9140, 6959.461
214.3962, 6956.519
214.8783, 6954.864
215.3604, 6957.809
215.8425, 6966.706
216.3246, 6976.867
216.8067, 6986.642
217.2889, 6996.366
217.7710, 7003.569
218.2531, 7007.297
218.7352, 7008.724
219.2173, 7010.747
219.6994, 7013.246
220.1816, 7016.367
220.6637, 7020.252
221.1458, 7025.047
221.6279, 7030.381
222.1100, 7036.780
222.5921, 7043.674
223.0743, 7049.790
223.5564, 7055.423
224.0385, 7060.072
224.5206, 7063.234
225.0027, 7064.196
225.4848, 7066.017
225.9670, 7068.204
226.4491, 7071.545
226.9312, 7078.337
227.4133, 7089.670
227.8954, 7102.616
228.3775, 7116.053
228.8597, 7131.858
229.3418, 7143.350
229.8239, 7148.180
230.3060, 7148.966
230.7881, 7153.377
231.2702, 7163.944
231.7524, 7173.886
232.2345, 7179.542
232.7166, 7177.920
233.1987, 7179.018
233.6808, 7184.193
234.1629, 7191.742
234.6451, 7197.328
235.1272, 7200.884
235.6093, 7202.851
236.0914, 7203.612
236.5735, 7203.854
237.0556, 7201.915
237.5378, 7197.477
238.0199, 7191.287
238.5020, 7184.866
238.9841, 7177.607
239.4662, 7171.185
239.9483, 7166.536
240.4305, 7165.030
240.9126, 7161.999
241.3947, 7156.459
241.8768, 7149.545
242.3589, 7143.973
242.8410, 7139.334
243.3232, 7136.315
243.8053, 7135.232
244.2874, 7136.317
244.7695, 7138.688
245.2516, 7143.282
245.7337, 7148.784
246.2159, 7152.003
246.6980, 7151.065
247.1801, 7150.928
247.6622, 7153.978
248.1443, 7162.240
248.6264, 7168.033
249.1086, 7169.788
249.5907, 7169.984
250.0728, 7174.237
250.5549, 7185.883
251.0370, 7195.913
251.5191, 7200.223
252.0013, 7196.204
252.4834, 7194.780
252.9655, 7196.573
253.4476, 7200.399
253.9297, 7204.124
254.4118, 7207.196
254.8940, 7210.875
255.3761, 7215.600
255.8582, 7221.487
256.3403, 7228.325
256.8224, 7237.521
257.3046, 7246.685
257.7867, 7251.361
258.2688, 7249.975
258.7509, 7247.750
259.2330, 7245.921
259.7151, 7244.128
260.1973, 7245.990
260.6794, 7253.525
261.1615, 7262.927
261.6436, 7267.678
262.1257, 7264.928
262.6078, 7264.656
263.0900, 7270.695
263.5721, 7283.951
264.0542, 7294.250
264.5363, 7299.947
265.0184, 7304.560
265.5005, 7313.313
265.9827, 7327.683
266.4648, 7341.354
266.9469, 7352.385
267.4290, 7360.632
267.9111, 7368.759
268.3932, 7377.830
268.8754, 7384.917
269.3575, 7385.214
269.8396, 7375.939
270.3217, 7370.366
270.8038, 7372.760
271.2859, 7382.700
271.7681, 7390.356
272.2502, 7394.596
272.7323, 7399.006
273.2144, 7408.299
273.6965, 7424.080
274.1786, 7436.211
274.6608, 7441.667
275.1429, 7441.469
275.6250, 7443.044
276.1071, 7446.573
276.5892, 7451.412
277.0714, 7456.764
277.5535, 7462.557
278.0356, 7470.263
278.5177, 7481.242
278.9998, 7494.152
279.4819, 7503.219
279.9641, 7508.221
280.4462, 7511.001
280.9283, 7513.353
281.4104, 7515.382
281.8925, 7514.235
282.3746, 7508.211
282.8568, 7499.718
283.3389, 7495.569
283.8210, 7495.984
284.3031, 7498.624
284.7852, 7501.963
285.2673, 7505.917
285.7495, 7511.330
286.2316, 7518.859
286.7137, 7526.738
287.1958, 7530.648
287.6779, 7530.358
288.1600, 7530.125
288.6422, 7533.008
289.1243, 7538.493
289.6064, 7542.979
290.0885, 7546.173
290.5706, 7548.471
291.0527, 7551.133
291.5349, 7554.070
292.0170, 7555.025
292.4991, 7550.635
292.9812, 7543.036
293.4633, 7540.562
293.9454, 7544.401
294.4276, 7550.430
294.9097, 7552.741
295.3918, 7552.137
295.8739, 7552.720
296.3560, 7557.057
296.8381, 7563.877
297.3203, 7570.695
297.8024, 7577.516
298.2845, 7583.005
298.7666, 7585.287
299.2487, 7584.912
299.7308, 7583.697
300.2130, 7579.405
300.6951, 7575.848
301.1772, 7581.085
301.6593, 7595.101
302.1414, 7609.700
302.6235, 7616.777
303.1057, 7619.337
303.5878, 7623.244
304.0699, 7632.253
304.5520, 7642.352
305.0341, 7648.637
305.5162, 7651.452
305.9984, 7653.698
306.4805, 7656.488
306.9626, 7660.174
307.4447, 7665.471
307.9268, 7674.208
308.4089, 7682.283
308.8911, 7684.502
309.3732, 7682.271
309.8553, 7681.607
310.3374, 7688.423
310.8195, 7697.376
311.3016, 7702.791
311.7838, 7702.158
312.2659, 7700.714
312.7480, 7701.614
313.2301, 7704.390
313.7122, 7707.782
314.1943, 7709.485
314.6765, 7712.892
315.1586, 7721.236
315.6407, 7736.421
316.1228, 7751.515
316.6049, 7761.255
317.0870, 7768.952
317.5692, 7779.866
318.0513, 7802.008
318.5334, 7822.763
319.0155, 7834.376
319.4976, 7834.795
319.9797, 7836.558
320.4619, 7844.436
320.9440, 7855.417
321.4261, 7866.039
321.9082, 7875.839
322.3903, 7884.743
322.8724, 7892.615
323.3546, 7899.467
323.8367, 7905.905
324.3188, 7912.877
324.8009, 7919.257
325.2830, 7924.154
325.7651, 7923.685
326.2473, 7926.334
326.7294, 7935.486
327.2115, 7950.200
327.6936, 7962.242
328.1757, 7968.260
328.6578, 7973.644
329.1400, 7981.092
329.6221, 7992.872
330.1042, 8003.481
330.5863, 8012.587
331.0684, 8020.412
331.5505, 8027.511
332.0327, 8033.376
332.5148, 8038.880
332.9969, 8043.648
333.4790, 8045.130
333.9611, 8052.402
334.4432, 8067.194
334.9254, 8086.751
335.4075, 8106.755
335.8896, 8128.899
336.3717, 8148.511
336.8538, 8164.200
337.3359, 8176.125
337.8180, 8183.308
338.3001, 8182.778
338.7823, 8182.202
339.2644, 8191.683
339.7465, 8214.147
340.2286, 8234.369
340.7107, 8248.915
341.1928, 8258.215
341.6750, 8262.801
342.1571, 8261.287
342.6392, 8260.171
343.1213, 8265.965
343.6034, 8278.671
344.0855, 8289.570
344.5677, 8296.984
345.0498, 8301.760
345.5319, 8305.081
346.0140, 8306.872
346.4961, 8309.413
346.9782, 8314.579
347.4604, 8322.004
347.9425, 8329.563
348.4246, 8337.324
348.9067, 8345.035
349.3888, 8352.212
349.8709, 8359.060
350.3531, 8366.257
350.8352, 8375.896
351.3173, 8385.823
351.7994, 8391.459
352.2815, 8392.438
352.7636, 8391.620
353.2458, 8391.035
353.7279, 8390.673
354.2100, 8390.538
354.6921, 8390.702
355.1742, 8390.906
355.6563, 8392.718
356.1385, 8395.506
356.6206, 8393.571
357.1027, 8376.809
357.5848, 8355.346
358.0669, 8341.045
358.5490, 8339.103
359.0312, 8341.860
359.5133, 8346.808
359.9954, 8352.919
360.4775, 8357.188
360.9596, 8356.486
361.4417, 8354.469
361.9239, 8353.864
362.4060, 8355.882
362.8881, 8356.890
363.3702, 8355.673
363.8523, 8352.549
364.3344, 8347.997
364.8166, 8338.161
365.2987, 8330.497
365.7808, 8329.271
366.2629, 8335.622
366.7450, 8340.068
367.2271, 8341.279
367.7093, 8340.044
368.1914, 8337.066
368.6735, 8332.099
369.1556, 8325.843
369.6377, 8316.104
370.1198, 8303.819
370.6020, 8298.363
371.0841, 8304.731
371.5662, 8313.301
372.0483, 8318.672
372.5304, 8317.425
373.0125, 8319.605
373.4947, 8327.066
373.9768, 8337.404
374.4589, 8344.579
374.9410, 8346.045
375.4231, 8349.537
375.9052, 8357.976
376.3874, 8371.700
376.8695, 8388.956
377.3516, 8411.713
377.8337, 8435.045
378.3158, 8452.478
378.7979, 8463.118
379.2801, 8475.293
379.7622, 8492.088
380.2443, 8512.131
380.7264, 8529.725
381.2085, 8544.431
381.6906, 8558.868
382.1728, 8576.015
382.6549, 8595.288
383.1370, 8611.689
383.6191, 8623.553
384.1012, 8633.851
384.5833, 8648.668
385.0655, 8667.355
385.5476, 8684.896
386.0297, 8695.965
386.5118, 8704.748
386.9939, 8719.458
387.4760, 8741.078
387.9582, 8765.946
388.4403, 8792.128
388.9224, 8819.277
389.4045, 8846.419
389.8866, 8873.010
390.3687, 8899.843
390.8509, 8928.426
391.3330, 8958.255
391.8151, 8985.547
392.2972, 9009.063
392.7793, 9028.112
393.2614, 9042.506
393.7436, 9055.688
394.2257, 9058.950
394.7078, 9049.538
395.1899, 9027.426
395.6720, 8992.509
396.1541, 8938.629
396.6363, 8876.967
397.1184, 8811.137
397.6005, 8738.803
398.0826, 8671.204
398.5647, 8608.828
399.0468, 8552.530
399.5290, 8503.343
400.0111, 8461.305
400.4932, 8426.564
400.9753, 8399.396
401.4574, 8379.714
401.9395, 8366.763
402.4217, 8363.858
402.9038, 8363.916
403.3859, 8362.142
403.8680, 8357.063
404.3501, 8353.519
404.8322, 8352.255
405.3144, 8352.459
405.7965, 8352.187
406.2786, 8351.396
406.7607, 8350.180
407.2428, 8348.074
407.7249, 8344.982
408.2071, 8344.028
408.6892, 8345.512
409.1713, 8348.119
409.6534, 8349.890
410.1355, 8350.936
410.6176, 8353.684
411.0998, 8359.774
411.5819, 8367.473
412.0640, 8372.089
412.5461, 8373.715
413.0282, 8375.538
413.5103, 8381.651
413.9925, 8389.481
414.4746, 8393.308
414.9567, 8391.354
415.4388, 8387.717
415.9209, 8386.626
416.4030, 8387.191
416.8852, 8387.169
417.3673, 8384.106
417.8494, 8380.858
418.3315, 8380.580
418.8136, 8383.479
419.2957, 8385.064
419.7779, 8379.382
420.2600, 8372.580
420.7421, 8370.928
421.2242, 8382.101
421.7063, 8392.614
422.1884, 8398.357
422.6706, 8400.087
423.1527, 8400.746
423.6348, 8398.641
424.1169, 8397.627
424.5990, 8400.119
425.0811, 8409.504
425.5633, 8415.154
426.0454, 8414.800
426.5275, 8411.443
427.0096, 8408.639
427.4917, 8405.259
427.9738, 8404.307
428.4560, 8407.174
428.9381, 8413.640
429.4202, 8418.430
429.9023, 8420.923
430.3844, 8422.631
430.8665, 8424.322
431.3487, 8425.790
431.8308, 8428.065
432.3129, 8431.092
432.7950, 8434.952
433.2771, 8440.152
433.7592, 8446.639
434.2414, 8452.938
434.7235, 8459.077
435.2056, 8464.478
435.6877, 8466.020
436.1698, 8463.357
436.6519, 8460.455
437.1341, 8461.623
437.6162, 8465.678
438.0983, 8469.911
438.5804, 8474.900
439.0625, 8477.986
439.5446, 8473.353
440.0268, 8463.442
440.5089, 8457.043
440.9910, 8465.304
441.4731, 8475.953
441.9552, 8477.075
442.4373, 8465.777
442.9195, 8453.868
443.4016, 8446.153
443.8837, 8441.652
444.3658, 8439.163
444.8479, 8440.425
445.3300, 8441.581
445.8122, 8440.178
446.2943, 8436.812
446.7764, 8436.768
447.2585, 8444.231
447.7406, 8452.521
448.2227, 8458.363
448.7049, 8460.863
449.1870, 8462.337
449.6691, 8461.608
450.1512, 8460.427
450.6333, 8461.753
451.1154, 8466.821
451.5976, 8471.705
452.0797, 8475.242
452.5618, 8477.538
453.0439, 8480.233
453.5260, 8483.544
454.0081, 8486.393
454.4903, 8487.385
454.9724, 8486.558
455.4545, 8486.877
455.9366, 8488.541
456.4187, 8491.847
456.9008, 8498.556
457.3830, 8508.166
457.8651, 8516.083
458.3472, 8518.086
458.8293, 8517.737
459.3114, 8523.233
459.7935, 8534.509
460.2757, 8543.663
460.7578, 8541.236
461.2399, 8533.593
461.7220, 8529.717
462.2041, 8533.267
462.6862, 8538.692
463.1684, 8543.014
463.6505, 8546.449
464.1326, 8549.450
464.6147, 8552.526
465.0968, 8554.847
465.5789, 8555.814
466.0611, 8555.245
466.5432, 8554.056
467.0253, 8551.645
467.5074, 8548.987
467.9895, 8546.898
468.4716, 8542.745
468.9538, 8542.643
469.4359, 8549.549
469.9180, 8560.752
470.4001, 8567.310
470.8822, 8566.987
471.3643, 8566.203
471.8465, 8567.968
472.3286, 8572.822
472.8107, 8575.559
473.2928, 8575.792
473.7749, 8575.225
474.2570, 8576.244
474.7392, 8578.889
475.2213, 8579.416
475.7034, 8576.104
476.1855, 8571.358
476.6676, 8569.931
477.1497, 8571.643
477.6319, 8575.056
478.1140, 8580.383
478.5961, 8586.385
479.0782, 8590.838
479.5603, 8593.435
480.0424, 8595.601
480.5246, 8598.208
481.0067, 8601.120
481.4888, 8604.187
481.9709, 8607.726
482.4530, 8610.939
482.9352, 8613.324
483.4173, 8615.018
483.8994, 8616.464
484.3815, 8619.976
484.8636, 8621.472
485.3457, 8617.761
485.8279, 8606.137
486.3100, 8598.832
486.7921, 8599.480
487.2742, 8603.517
487.7563, 8607.121
488.2384, 8610.293
488.7206, 8613.074
489.2027, 8615.082
489.6848, 8616.814
490.1669, 8620.684
490.6490, 8628.118
491.1311, 8633.463
491.6133, 8632.565
492.0954, 8625.636
492.5775, 8622.881
493.0596, 8624.642
493.5417, 8629.504
494.0238, 8637.864
494.5060, 8648.618
494.9881, 8656.185
495.4702, 8658.348
495.9523, 8657.874
496.4344, 8656.986
496.9165, 8656.328
497.3987, 8658.346
497.8808, 8667.628
498.3629, 8678.268
498.8450, 8683.761
499.3271, 8683.389
499.8092, 8683.513
500.2914, 8687.970
500.7735, 8694.207
501.2556, 8699.942
501.7377, 8705.759
502.2198, 8709.381
502.7019, 8708.038
503.1841, 8703.966
503.6662, 8703.335
504.1483, 8712.134
504.6304, 8718.636
505.1125, 8719.339
505.5946, 8713.960
506.0768, 8707.205
506.5589, 8697.414
507.0410, 8689.024
507.5231, 8686.224
508.0052, 8689.914
508.4873, 8693.929
508.9695, 8697.833
509.4516, 8701.449
509.9337, 8704.629
510.4158, 8707.319
510.8979, 8708.689
511.3800, 8707.166
511.8622, 8704.354
512.3443, 8704.479
512.8264, 8707.323
513.3085, 8709.771
513.7906, 8707.587
514.2728, 8704.260
514.7549, 8705.199
515.2370, 8713.226
515.7191, 8720.092
516.2012, 8719.411
516.6833, 8714.536
517.1655, 8710.610
517.6476, 8709.514
518.1297, 8709.538
518.6118, 8710.360
519.0939, 8711.972
519.5760, 8714.047
520.0582, 8716.857
520.5403, 8719.907
521.0224, 8722.925
521.5045, 8725.784
521.9866, 8729.026
522.4688, 8733.247
522.9509, 8737.051
523.4330, 8738.170
523.9151, 8735.772
524.3972, 8735.074
524.8793, 8737.483
525.3615, 8741.957
525.8436, 8746.110
526.3257, 8749.943
526.8078, 8753.459
527.2899, 8758.217
527.7720, 8762.489
528.2542, 8761.441
528.7363, 8754.811
529.2184, 8747.191
529.7005, 8740.457
530.1826, 8735.871
530.6647, 8735.377
531.1469, 8740.704
531.6290, 8748.298
532.1111, 8757.896
532.5932, 8768.181
533.0753, 8776.434
533.5574, 8780.847
534.0396, 8784.063
534.5217, 8787.581
535.0038, 8791.509
535.4859, 8791.735
535.9680, 8783.569
536.4501, 8776.053
536.9323, 8774.862
537.4144, 8783.182
537.8965, 8788.608
538.3786, 8789.954
538.8607, 8789.752
539.3428, 8792.375
539.8250, 8798.247
540.3071, 8802.210
540.7892, 8802.415
541.2713, 8800.219
541.7534, 8798.589
542.2355, 8797.532
542.7177, 8796.667
543.1998, 8794.462
543.6819, 8792.796
544.1640, 8796.253
544.6461, 8805.522
545.1282, 8812.129
545.6104, 8805.722
546.0925, 8795.044
546.5746, 8789.998
547.0567, 8796.280
547.5388, 8804.251
548.0209, 8811.720
548.5031, 8818.457
548.9852, 8824.179
549.4673, 8828.514
549.9494, 8832.125
550.4315, 8835.675
550.9136, 8839.157
551.3958, 8839.420
551.8779, 8834.943
552.3600, 8829.863
552.8421, 8826.330
553.3242, 8824.252
553.8063, 8825.349
554.2885, 8830.707
554.7706, 8836.459
555.2527, 8835.978
555.7348, 8830.496
556.2169, 8827.875
556.6990, 8831.347
557.1812, 8837.699
557.6633, 8844.029
558.1454, 8849.747
558.6275, 8852.644
559.1096, 8847.813
559.5917, 8842.150
560.0739, 8841.563
560.5560, 8846.520
561.0381, 8852.782
561.5202, 8860.534
562.0023, 8867.726
562.4844, 8872.782
562.9666, 8874.458
563.4487, 8875.363
563.9308, 8874.051
564.4129, 8872.655
564.8950, 8874.991
565.3771, 8883.651
565.8593, 8889.621
566.3414, 8889.173
566.8235, 8884.576
567.3056, 8887.957
567.7877, 8900.567
568.2698, 8911.451
568.7520, 8912.340
569.2341, 8905.951
569.7162, 8903.073
570.1983, 8904.260
570.6804, 8906.050
571.1625, 8905.369
571.6447, 8903.181
572.1268, 8900.964
572.6089, 8899.038
573.0910, 8897.411
573.5731, 8896.290
574.0552, 8895.513
574.5374, 8894.745
575.0195, 8893.972
575.5016, 8893.285
575.9837, 8892.347
576.4658, 8891.369
576.9479, 8892.179
577.4301, 8896.596
577.9122, 8900.753
578.3943, 8902.394
578.8764, 8900.387
579.3585, 8902.735
579.8406, 8910.621
580.3228, 8920.178
580.8049, 8927.710
581.2870, 8933.190
581.7691, 8937.051
582.2512, 8938.435
582.7333, 8939.999
583.2155, 8946.266
583.6975, 8955.979
584.1796, 8965.763
584.6617, 8973.699
585.1439, 8980.939
585.6260, 8988.784
586.1081, 8996.909
586.5902, 9003.911
587.0723, 9010.905
587.5544, 9015.173
588.0366, 9014.101
588.5187, 9005.547
589.0008, 9000.160
589.4829, 9000.106
589.9650, 9003.272
590.4471, 9009.021
590.9293, 9021.391
591.4114, 9026.469
591.8935, 9020.317
592.3756, 9010.021
592.8577, 9010.235
593.3398, 9021.845
593.8220, 9028.862
594.3041, 9023.750
594.7862, 9012.506
595.2683, 9008.951
595.7504, 9012.431
596.2325, 9017.972
596.7147, 9025.107
597.1968, 9031.220
597.6789, 9031.864
598.1610, 9026.656
598.6431, 9023.650
599.1252, 9030.701
599.6074, 9040.037
600.0895, 9045.119
600.5716, 9041.720
601.0537, 9039.501
601.5358, 9039.390
602.0179, 9041.465
602.5001, 9046.185
602.9822, 9055.271
603.4643, 9063.357
603.9464, 9069.346
604.4285, 9073.675
604.9106, 9077.713
605.3928, 9081.171
605.8749, 9085.592
606.3570, 9092.141
606.8391, 9100.087
607.3212, 9108.074
607.8033, 9115.943
608.2855, 9121.529
608.7676, 9120.457
609.2497, 9117.192
609.7318, 9117.971
610.2139, 9124.583
610.6960, 9131.028
611.1782, 9134.003
611.6603, 9135.113
612.1424, 9136.106
612.6245, 9135.584
613.1066, 9137.168
613.5887, 9143.496
614.0709, 9151.854
614.5530, 9156.889
615.0351, 9157.671
615.5172, 9156.966
615.9993, 9155.089
616.4814, 9152.386
616.9636, 9149.946
617.4457, 9147.632
617.9278, 9147.796
618.4099, 9154.215
618.8920, 9164.126
619.3741, 9169.769
619.8563, 9170.888
620.3384, 9170.428
620.8205, 9170.054
621.3026, 9169.763
621.7847, 9169.354
622.2668, 9168.250
622.7490, 9168.312
623.2311, 9169.755
623.7132, 9172.962
624.1953, 9178.432
624.6774, 9191.554
625.1595, 9200.224
625.6417, 9200.290
626.1238, 9195.457
626.6059, 9196.854
627.0880, 9207.207
627.5701, 9215.662
628.0522, 9217.293
628.5344, 9213.994
629.0165, 9215.159
629.4986, 9220.861
629.9807, 9228.498
630.4628, 9237.525
630.9449, 9246.757
631.4271, 9253.728
631.9092, 9258.114
632.3913, 9262.403
632.8734, 9268.429
633.3555, 9275.130
633.8376, 9281.456
634.3198, 9286.675
634.8019, 9292.127
635.2840, 9299.016
635.7661, 9305.877
636.2482, 9310.801
636.7303, 9313.020
637.2125, 9314.326
637.6946, 9314.201
638.1767, 9313.685
638.6588, 9316.560
639.1409, 9323.703
639.6230, 9328.837
640.1052, 9328.605
640.5873, 9325.091
641.0694, 9324.265
641.5515, 9326.099
642.0336, 9328.940
642.5157, 9331.863
642.9979, 9335.299
643.4800, 9339.616
643.9621, 9344.962
644.4442, 9351.359
644.9263, 9359.052
645.4084, 9367.733
645.8906, 9377.236
646.3727, 9389.016
646.8548, 9398.354
647.3369, 9402.542
647.8190, 9405.503
648.3011, 9412.006
648.7833, 9423.080
649.2654, 9433.608
649.7475, 9442.849
650.2296, 9450.918
650.7117, 9457.740
651.1938, 9463.522
651.6760, 9470.592
652.1581, 9481.100
652.6402, 9492.679
653.1223, 9502.792
653.6044, 9511.155
654.0865, 9516.901
654.5687, 9517.470
655.0508, 9516.983
655.5329, 9517.635
656.0150, 9519.647
656.4971, 9523.763
656.9792, 9530.298
657.4614, 9538.954
657.9435, 9549.877
658.4256, 9564.137
658.9077, 9576.601
659.3898, 9586.801
659.8719, 9595.816
660.3541, 9603.745
660.8362, 9610.624
661.3183, 9621.424
661.8004, 9637.584
662.2825, 9654.889
662.7646, 9667.058
663.2468, 9676.005
663.7289, 9686.470
664.2110, 9701.346
664.6931, 9716.994
665.1752, 9730.573
665.6573, 9743.081
666.1395, 9757.044
666.6216, 9772.953
667.1037, 9790.866
667.5858, 9810.125
668.0679, 9831.199
668.5500, 9857.396
669.0322, 9890.818
669.5143, 9925.663
669.9964, 9960.797
670.4785, 9995.844
670.9606, 10024.53
671.4427, 10046.30
671.9249, 10067.30
672.4070, 10089.94
672.8891, 10116.21
673.3712, 10152.19
673.8533, 10199.57
674.3354, 10246.24
674.8176, 10282.39
675.2997, 10314.43
675.7818, 10348.66
676.2639, 10387.99
676.7460, 10427.72
677.2281, 10469.33
677.7103, 10509.12
678.1924, 10541.99
678.6745, 10564.59
679.1566, 10587.21
679.6387, 10611.72
680.1208, 10636.45
680.6030, 10657.40
681.0851, 10674.24
681.5672, 10693.47
682.0493, 10719.75
682.5314, 10747.11
683.0135, 10764.74
683.4957, 10773.93
683.9778, 10779.36
684.4599, 10781.44
684.9420, 10782.40
685.4241, 10783.28
685.9063, 10784.24
686.3884, 10786.47
686.8705, 10793.52
687.3526, 10799.16
687.8347, 10800.82
688.3168, 10798.27
688.7990, 10794.84
689.2811, 10791.94
689.7632, 10785.42
690.2453, 10772.05
690.7274, 10751.93
691.2095, 10727.29
691.6917, 10698.25
692.1738, 10665.34
692.6559, 10631.43
693.1380, 10594.06
693.6201, 10548.23
694.1022, 10490.10
694.5844, 10430.82
695.0665, 10375.49
695.5486, 10323.56
696.0307, 10274.17
696.5128, 10225.96
696.9949, 10182.79
697.4771, 10147.39
697.9592, 10116.05
698.4413, 10081.07
698.9234, 10040.03
699.4055, 10005.73
699.8876, 9983.287
700.3698, 9968.098
700.8519, 9948.533
701.3340, 9925.396
701.8161, 9904.220
702.2982, 9889.064
702.7803, 9876.733
703.2625, 9862.775
703.7446, 9848.122
704.2267, 9837.624
704.7088, 9837.378
705.1909, 9838.301
705.6730, 9834.276
706.1552, 9824.247
706.6373, 9821.794
707.1194, 9832.356
707.6015, 9842.754
708.0836, 9843.911
708.5657, 9834.839
709.0479, 9835.506
709.5300, 9847.278
710.0121, 9859.017
710.4942, 9860.170
710.9763, 9853.427
711.4584, 9844.996
711.9406, 9835.568
712.4227, 9824.674
712.9048, 9811.807
713.3869, 9797.279
713.8690, 9781.264
714.3511, 9762.990
714.8333, 9745.301
715.3154, 9730.274
715.7975, 9715.899
716.2796, 9699.563
716.7617, 9680.331
717.2438, 9663.593
717.7260, 9651.012
718.2081, 9640.379
718.6902, 9626.710
719.1723, 9610.800
719.6544, 9599.710
720.1365, 9597.530
720.6187, 9598.076
721.1008, 9593.084
721.5829, 9584.974
722.0650, 9579.406
722.5471, 9580.132
723.0292, 9582.313
723.5114, 9584.596
723.9935, 9586.544
724.4756, 9586.834
724.9577, 9583.604
725.4398, 9581.432
725.9219, 9582.271
726.4041, 9585.328
726.8862, 9585.179
727.3683, 9581.486
727.8504, 9579.264
728.3325, 9584.559
728.8146, 9592.465
729.2968, 9591.690
729.7789, 9582.952
730.2610, 9572.644
730.7431, 9560.743
731.2252, 9551.886
731.7073, 9551.043
732.1895, 9559.334
732.6716, 9565.396
733.1537, 9563.594
733.6358, 9562.123
734.1179, 9566.024
734.6000, 9577.226
735.0822, 9580.760
735.5643, 9574.954
736.0464, 9566.931
736.5285, 9562.326
737.0106, 9560.822
737.4927, 9561.571
737.9749, 9564.688
738.4570, 9568.913
738.9391, 9575.470
739.4212, 9581.653
739.9033, 9584.596
740.3854, 9584.330
740.8676, 9579.833
741.3497, 9563.716
741.8318, 9547.482
742.3139, 9543.343
742.7960, 9558.120
743.2781, 9567.395
743.7603, 9567.775
744.2424, 9564.969
744.7245, 9567.129
745.2066, 9573.597
745.6887, 9580.231
746.1708, 9585.843
746.6530, 9591.246
747.1351, 9597.913
747.6172, 9604.813
748.0993, 9610.197
748.5814, 9612.716
749.0635, 9614.366
749.5457, 9616.234
750.0278, 9617.777
750.5099, 9617.579
750.9920, 9613.451
751.4741, 9612.801
751.9562, 9619.632
752.4384, 9628.988
752.9205, 9625.243
753.4026, 9608.924
753.8847, 9597.354
754.3668, 9599.058
754.8489, 9607.189
755.3311, 9613.666
755.8132, 9618.491
756.2953, 9621.456
756.7774, 9620.697
757.2595, 9619.801
757.7416, 9620.506
758.2238, 9622.587
758.7059, 9624.624
759.1880, 9626.394
759.6701, 9628.262
760.1522, 9630.465
760.6343, 9632.840
761.1165, 9633.863
761.5986, 9633.335
762.0807, 9635.157
762.5628, 9643.155
763.0449, 9654.079
763.5270, 9663.451
764.0092, 9670.956
764.4913, 9675.315
764.9734, 9672.522
765.4555, 9669.111
765.9376, 9669.818
766.4197, 9674.881
766.9019, 9677.268
767.3840, 9675.440
767.8661, 9672.749
768.3482, 9670.267
768.8303, 9668.064
769.3124, 9668.046
769.7946, 9670.441
770.2767, 9672.675
770.7588, 9671.755
771.2409, 9669.873
771.7230, 9672.174
772.2051, 9678.497
772.6873, 9682.511
773.1694, 9676.690
773.6515, 9670.040
774.1336, 9669.132
774.6157, 9675.732
775.0978, 9680.515
775.5800, 9682.645
776.0621, 9683.454
776.5442, 9683.650
777.0263, 9683.207
777.5084, 9680.652
777.9905, 9675.448
778.4727, 9672.875
778.9548, 9681.300
779.4369, 9694.169
779.9190, 9699.835
780.4011, 9696.938
780.8832, 9691.504
781.3654, 9683.906
781.8475, 9677.464
782.3296, 9675.124
782.8117, 9679.153
783.2938, 9681.950
783.7759, 9683.770
784.2581, 9684.277
784.7402, 9681.642
785.2223, 9675.903
785.7044, 9678.141
786.1865, 9689.651
786.6686, 9700.901
787.1508, 9700.858
787.6329, 9695.187
788.1150, 9692.149
788.5971, 9692.811
789.0792, 9696.447
789.5613, 9705.585
790.0435, 9715.384
790.5256, 9721.730
791.0077, 9722.645
791.4898, 9724.479
791.9719, 9727.689
792.4540, 9730.881
792.9362, 9732.943
793.4183, 9733.910
793.9004, 9733.524
794.3825, 9731.790
794.8646, 9729.298
795.3467, 9725.342
795.8289, 9721.651
796.3110, 9721.119
796.7931, 9725.254
797.2752, 9728.525
797.7573, 9727.261
798.2394, 9725.641
798.7216, 9727.521
799.2037, 9735.814
799.6858, 9739.601
800.1679, 9737.475
800.6500, 9733.894
801.1321, 9732.499
801.6143, 9733.265
802.0964, 9737.673
802.5785, 9746.416
803.0606, 9752.507
803.5427, 9745.839
804.0248, 9735.000
804.5070, 9729.799
804.9891, 9734.004
805.4712, 9737.750
805.9533, 9738.495
806.4354, 9738.493
806.9175, 9739.497
807.3997, 9742.060
807.8818, 9744.135
808.3639, 9746.173
808.8460, 9746.358
809.3281, 9740.125
809.8102, 9730.878
810.2924, 9728.500
810.7745, 9735.108
811.2566, 9741.198
811.7387, 9737.679
812.2208, 9731.978
812.7029, 9730.569
813.1851, 9735.128
813.6672, 9742.349
814.1493, 9753.985
814.6314, 9765.596
815.1135, 9773.572
815.5956, 9777.830
816.0778, 9780.311
816.5599, 9780.967
817.0420, 9780.686
817.5241, 9778.488
818.0062, 9776.616
818.4883, 9779.582
818.9705, 9788.691
819.4526, 9796.333
819.9347, 9796.456
820.4168, 9795.542
820.8989, 9799.114
821.3810, 9809.342
821.8632, 9814.949
822.3453, 9814.284
822.8274, 9812.697
823.3095, 9815.382
823.7916, 9821.200
824.2737, 9823.443
824.7559, 9821.800
825.2380, 9818.783
825.7201, 9814.093
826.2022, 9810.542
826.6843, 9812.988
827.1664, 9823.222
827.6486, 9827.240
828.1307, 9811.378
828.6128, 9798.512
829.0949, 9801.726
829.5770, 9822.588
830.0591, 9835.021
830.5413, 9838.363
831.0234, 9836.828
831.5055, 9829.818
831.9876, 9821.318
832.4697, 9820.941
832.9518, 9828.322
833.4340, 9833.698
833.9161, 9827.405
834.3982, 9820.385
834.8803, 9821.178
835.3624, 9831.020
835.8445, 9833.293
836.3267, 9824.253
836.8088, 9815.083
837.2909, 9811.991
837.7730, 9813.611
838.2551, 9810.065
838.7372, 9801.935
839.2194, 9797.034
839.7015, 9803.037
840.1836, 9812.985
840.6657, 9821.196
841.1478, 9827.542
841.6299, 9831.838
842.1121, 9832.370
842.5942, 9832.573
843.0763, 9832.818
843.5584, 9833.460
844.0405, 9837.116
844.5226, 9843.932
845.0048, 9851.804
845.4869, 9861.780
845.9690, 9870.322
846.4511, 9867.714
846.9332, 9857.182
847.4153, 9849.567
847.8975, 9851.810
848.3796, 9856.437
848.8617, 9861.307
849.3438, 9865.799
849.8259, 9868.160
850.3080, 9867.614
850.7902, 9867.113
851.2723, 9867.649
851.7544, 9868.541
852.2365, 9868.079
852.7186, 9866.518
853.2007, 9864.799
853.6829, 9863.220
854.1650, 9861.854
854.6471, 9859.565
855.1292, 9857.778
855.6113, 9858.869
856.0934, 9866.207
856.5756, 9872.814
857.0577, 9877.724
857.5398, 9881.518
858.0219, 9885.698
858.5040, 9890.388
858.9861, 9890.834
859.4683, 9884.928
859.9504, 9879.136
860.4325, 9882.044
860.9146, 9890.452
861.3967, 9899.733
861.8788, 9910.527
862.3610, 9916.991
862.8431, 9913.063
863.3252, 9906.099
863.8073, 9903.440
864.2894, 9907.690
864.7715, 9907.707
865.2537, 9902.203
865.7358, 9896.452
866.2179, 9896.627
866.7000, 9900.745
867.1821, 9903.564
867.6642, 9904.689
868.1464, 9904.293
868.6285, 9898.027
869.1106, 9893.698
869.5927, 9898.951
870.0748, 9917.702
870.5569, 9929.040
871.0391, 9930.046
871.5212, 9928.576
872.0033, 9927.231
872.4854, 9926.669
872.9675, 9935.190
873.4496, 9951.985
873.9318, 9965.075
874.4139, 9961.559
874.8960, 9954.098
875.3781, 9955.373
875.8602, 9964.181
876.3423, 9968.115
876.8245, 9956.257
877.3066, 9948.953
877.7887, 9954.346
878.2708, 9968.154
878.7529, 9971.331
879.2350, 9963.993
879.7172, 9956.698
880.1993, 9954.694
880.6814, 9954.632
881.1635, 9953.069
881.6456, 9950.058
882.1277, 9945.579
882.6099, 9934.743
883.0920, 9928.458
883.5741, 9932.319
884.0562, 9941.335
884.5383, 9947.965
885.0204, 9951.868
885.5026, 9955.116
885.9847, 9957.480
886.4668, 9960.923
886.9489, 9970.839
887.4310, 9983.331
887.9131, 9989.473
888.3953, 9984.018
888.8774, 9980.616
889.3595, 9990.084
889.8416, 10001.31
890.3237, 10002.77
890.8058, 9988.013
891.2880, 9982.649
891.7701, 9988.783
892.2522, 9997.728
892.7343, 10001.15
893.2164, 10001.25
893.6985, 10003.89
894.1807, 10009.50
894.6628, 10016.59
895.1449, 10028.01
895.6270, 10037.40
896.1091, 10039.08
896.5912, 10032.00
897.0734, 10028.39
897.5555, 10028.63
898.0376, 10031.49
898.5197, 10037.97
899.0018, 10046.12
899.4839, 10046.73
899.9661, 10041.42
900.4482, 10039.60
900.9303, 10052.36
901.4124, 10064.89
901.8945, 10066.38
902.3766, 10059.69
902.8588, 10054.61
903.3409, 10052.50
903.8230, 10051.61
904.3051, 10051.46
904.7872, 10052.69
905.2693, 10057.94
905.7515, 10066.21
906.2336, 10071.32
906.7157, 10070.48
907.1978, 10068.70
907.6799, 10070.05
908.1620, 10072.94
908.6442, 10075.56
909.1263, 10078.32
909.6084, 10079.25
910.0905, 10078.27
910.5726, 10075.72
911.0547, 10069.97
911.5369, 10061.91
912.0190, 10063.14
912.5011, 10074.81
912.9832, 10084.42
913.4653, 10075.83
913.9474, 10064.28
914.4296, 10065.03
914.9117, 10079.90
915.3938, 10095.44
915.8759, 10113.44
916.3580, 10126.03
916.8401, 10128.38
917.3223, 10122.34
917.8044, 10117.74
918.2865, 10114.68
918.7686, 10116.03
919.2507, 10126.91
919.7328, 10139.74
920.2150, 10148.01
920.6971, 10152.37
921.1792, 10154.62
921.6613, 10155.47
922.1434, 10153.76
922.6255, 10147.93
923.1077, 10141.03
923.5898, 10138.88
924.0719, 10141.23
924.5540, 10142.15
925.0361, 10139.69
925.5182, 10138.74
926.0004, 10146.39
926.4825, 10157.12
926.9646, 10164.16
927.4467, 10164.64
927.9288, 10165.31
928.4109, 10167.12
928.8931, 10169.01
929.3752, 10171.12
929.8573, 10173.39
930.3394, 10170.14
930.8215, 10161.50
931.3036, 10153.48
931.7858, 10151.54
932.2679, 10151.92
932.7500, 10150.22
933.2321, 10147.06
933.7142, 10147.30
934.1964, 10158.11
934.6785, 10164.28
935.1606, 10159.86
935.6427, 10149.44
936.1248, 10147.22
936.6069, 10152.55
937.0891, 10158.17
937.5712, 10161.35
938.0533, 10164.27
938.5354, 10169.41
939.0175, 10175.42
939.4996, 10180.32
939.9818, 10183.98
940.4639, 10185.45
940.9460, 10183.73
941.4281, 10181.11
941.9102, 10179.50
942.3923, 10178.96
942.8745, 10180.79
943.3566, 10185.23
943.8387, 10188.67
944.3208, 10183.97
944.8029, 10180.11
945.2850, 10187.14
945.7672, 10206.33
946.2493, 10219.06
946.7314, 10222.55
947.2135, 10222.26
947.6956, 10218.93
948.1777, 10214.04
948.6599, 10213.05
949.1420, 10215.64
949.6241, 10220.11
950.1062, 10227.25
950.5883, 10234.12
951.0704, 10238.59
951.5526, 10241.46
952.0347, 10244.07
952.5168, 10246.56
952.9989, 10248.63
953.4810, 10249.45
953.9631, 10251.45
954.4453, 10259.97
954.9274, 10272.31
955.4095, 10277.54
955.8916, 10273.61
956.3737, 10270.81
956.8558, 10277.86
957.3380, 10287.06
957.8201, 10293.20
958.3022, 10295.89
958.7843, 10295.22
959.2664, 10289.90
959.7485, 10284.95
960.2307, 10282.47
960.7128, 10282.22
961.1949, 10284.88
961.6770, 10289.59
962.1591, 10293.33
962.6412, 10296.46
963.1234, 10296.55
963.6055, 10288.84
964.0876, 10279.19
964.5697, 10278.53
965.0518, 10290.41
965.5339, 10294.83
966.0161, 10288.21
966.4982, 10278.41
966.9803, 10271.52
967.4624, 10269.04
967.9445, 10275.98
968.4266, 10294.64
968.9088, 10308.60
969.3909, 10306.74
969.8730, 10303.13
970.3551, 10305.69
970.8372, 10313.72
971.3193, 10315.04
971.8015, 10309.11
972.2836, 10308.37
972.7657, 10325.20
973.2478, 10345.91
973.7299, 10355.26
974.2120, 10355.57
974.6942, 10352.71
975.1763, 10341.04
975.6584, 10336.92
976.1405, 10344.73
976.6226, 10358.40
977.1047, 10370.94
977.5869, 10382.17
978.0690, 10387.58
978.5511, 10386.01
979.0332, 10383.58
979.5153, 10385.41
979.9974, 10388.87
980.4796, 10391.45
980.9617, 10392.70
981.4438, 10395.17
981.9259, 10400.21
982.4080, 10403.80
982.8901, 10403.36
983.3723, 10400.50
983.8544, 10399.92
984.3365, 10401.28
984.8186, 10403.19
985.3007, 10405.02
985.7828, 10407.02
986.2650, 10408.90
986.7471, 10411.05
987.2292, 10414.14
987.7113, 10418.23
988.1934, 10423.09
988.6755, 10429.28
989.1577, 10433.72
989.6398, 10430.28
990.1219, 10423.76
990.6040, 10423.55
991.0861, 10430.84
991.5682, 10435.92
992.0504, 10434.25
992.5325, 10430.33
993.0146, 10426.16
993.4967, 10421.85
993.9788, 10416.79
994.4609, 10411.13
994.9431, 10406.80
995.4252, 10406.02
995.9073, 10405.11
996.3894, 10397.01
996.8715, 10386.96
997.3536, 10383.31
997.8358, 10394.79
998.3179, 10403.18
998.8000, 10406.97
999.2821, 10409.03
999.7642, 10410.81
1000.246, 10412.94
1000.728, 10420.87
1001.211, 10434.47
1001.693, 10444.80
1002.175, 10443.35
1002.657, 10438.90
1003.139, 10436.31
1003.621, 10435.68
1004.103, 10435.42
1004.585, 10434.51
1005.068, 10438.20
1005.550, 10449.64
1006.032, 10463.18
1006.514, 10469.52
1006.996, 10471.40
1007.478, 10474.74
1007.960, 10482.65
1008.442, 10488.47
1008.924, 10488.83
1009.407, 10487.63
1009.889, 10487.44
1010.371, 10488.36
1010.853, 10487.08
1011.335, 10483.53
1011.817, 10481.89
1012.299, 10487.64
1012.781, 10494.28
1013.263, 10494.85
1013.746, 10491.14
1014.228, 10489.73
1014.710, 10491.44
1015.192, 10496.39
1015.674, 10506.72
1016.156, 10516.76
1016.638, 10515.33
1017.120, 10506.64
1017.603, 10504.34
1018.085, 10511.30
1018.567, 10519.48
1019.049, 10524.62
1019.531, 10528.75
1020.013, 10532.89
1020.495, 10537.04
1020.977, 10544.20
1021.459, 10555.18
1021.942, 10561.19
1022.424, 10555.13
1022.906, 10545.42
1023.388, 10544.30
1023.870, 10548.17
1024.352, 10549.91
1024.834, 10542.67
1025.316, 10540.35
1025.799, 10544.78
1026.281, 10553.54
1026.763, 10566.76
1027.245, 10582.86
1027.727, 10591.15
1028.209, 10591.34
1028.691, 10591.43
1029.173, 10599.35
1029.656, 10606.71
1030.138, 10604.49
1030.620, 10595.70
1031.102, 10597.91
1031.584, 10614.33
1032.066, 10628.25
1032.548, 10635.28
1033.030, 10638.56
1033.512, 10639.17
1033.995, 10640.37
1034.477, 10649.69
1034.959, 10672.98
1035.441, 10687.96
1035.923, 10684.20
1036.405, 10676.43
1036.887, 10672.10
1037.369, 10670.79
1037.851, 10668.61
1038.334, 10665.61
1038.816, 10660.97
1039.298, 10653.58
1039.780, 10645.37
1040.262, 10635.65
1040.744, 10626.67
1041.226, 10623.15
1041.708, 10628.16
1042.191, 10629.25
1042.673, 10624.43
1043.155, 10620.09
1043.637, 10625.93
1044.119, 10635.44
1044.601, 10634.85
1045.083, 10623.86
1045.565, 10619.21
1046.047, 10637.67
1046.530, 10649.79
1047.012, 10642.86
1047.494, 10625.39
1047.976, 10622.33
1048.458, 10631.83
1048.940, 10639.08
1049.422, 10639.59
1049.904, 10638.28
1050.386, 10636.48
1050.869, 10636.15
1051.351, 10639.87
1051.833, 10648.32
1052.315, 10656.51
1052.797, 10664.70
1053.279, 10671.16
1053.761, 10674.08
1054.243, 10675.15
1054.726, 10676.92
1055.208, 10679.26
1055.690, 10681.95
1056.172, 10686.35
1056.654, 10689.01
1057.136, 10689.66
1057.618, 10688.47
1058.100, 10684.77
1058.583, 10679.21
1059.065, 10676.43
1059.547, 10676.77
1060.029, 10676.28
1060.511, 10669.94
1060.993, 10664.25
1061.475, 10665.19
1061.957, 10670.63
1062.439, 10669.70
1062.922, 10660.39
1063.404, 10658.69
1063.886, 10670.75
1064.368, 10685.22
1064.850, 10688.51
1065.332, 10685.30
1065.814, 10680.96
1066.296, 10675.28
1066.778, 10674.55
1067.261, 10682.00
1067.743, 10689.02
1068.225, 10689.99
1068.707, 10687.85
1069.189, 10692.72
1069.671, 10703.20
1070.153, 10714.24
1070.635, 10725.91
1071.118, 10734.60
1071.600, 10737.36
1072.082, 10737.19
1072.564, 10735.53
1073.046, 10731.70
1073.528, 10736.75
1074.010, 10751.21
1074.492, 10764.91
1074.974, 10766.69
1075.457, 10766.78
1075.939, 10775.60
1076.421, 10790.78
1076.903, 10801.71
1077.385, 10806.90
1077.867, 10809.78
1078.349, 10810.34
1078.831, 10810.21
1079.313, 10811.25
1079.796, 10813.25
1080.278, 10815.15
1080.760, 10816.63
1081.242, 10821.83
1081.724, 10839.29
1082.206, 10852.20
1082.688, 10853.69
1083.170, 10846.69
1083.652, 10838.63
1084.135, 10830.12
1084.617, 10824.59
1085.099, 10823.93
1085.581, 10824.82
1086.063, 10829.21
1086.545, 10831.47
1087.027, 10824.41
1087.509, 10805.98
1087.992, 10804.82
1088.474, 10822.34
1088.956, 10837.11
1089.438, 10831.36
1089.920, 10820.36
1090.402, 10819.15
1090.884, 10824.87
1091.366, 10831.83
1091.849, 10840.01
1092.331, 10846.33
1092.813, 10849.82
1093.295, 10852.64
1093.777, 10858.13
1094.259, 10863.89
1094.741, 10865.22
1095.223, 10862.09
1095.705, 10856.56
1096.188, 10845.83
1096.670, 10837.83
1097.152, 10834.77
1097.634, 10835.63
1098.116, 10839.66
1098.598, 10846.33
1099.080, 10851.38
1099.562, 10854.14
1100.044, 10857.23
1100.527, 10863.75
1101.009, 10870.15
1101.491, 10874.51
1101.973, 10876.75
1102.455, 10874.86
1102.937, 10868.46
1103.419, 10865.37
1103.901, 10868.78
1104.384, 10874.66
1104.866, 10879.25
1105.348, 10883.53
1105.830, 10889.53
1106.312, 10899.06
1106.794, 10901.79
1107.276, 10895.90
1107.758, 10889.12
1108.240, 10884.96
1108.723, 10883.36
1109.205, 10886.28
1109.687, 10891.36
1110.169, 10893.13
1110.651, 10885.91
1111.133, 10881.62
1111.615, 10882.69
1112.097, 10884.53
1112.579, 10883.28
1113.062, 10879.35
1113.544, 10872.06
1114.026, 10862.51
1114.508, 10857.81
1114.990, 10867.30
1115.472, 10875.50
1115.954, 10875.61
1116.436, 10872.10
1116.919, 10871.50
1117.401, 10873.58
1117.883, 10875.00
1118.365, 10875.27
1118.847, 10876.25
1119.329, 10879.11
1119.811, 10883.17
1120.293, 10889.52
1120.776, 10896.65
1121.258, 10897.79
1121.740, 10891.97
1122.222, 10889.29
1122.704, 10893.07
1123.186, 10896.49
1123.668, 10889.22
1124.150, 10879.75
1124.632, 10879.17
1125.115, 10876.09
1125.597, 10872.20
1126.079, 10880.25
1126.561, 10873.71
1127.043, 10882.89
1127.525, 10897.57
1128.007, 10900.23
1128.489, 10896.54
1128.971, 10896.96
1129.454, 10908.12
1129.936, 10910.56
1130.418, 10896.84
1130.900, 10885.48
1131.382, 10889.20
1131.864, 10902.53
1132.346, 10911.44
1132.828, 10916.20
1133.311, 10917.76
1133.793, 10911.38
1134.275, 10909.19
1134.757, 10917.05
1135.239, 10926.08
1135.721, 10927.59
1136.203, 10922.81
1136.685, 10921.87
1137.167, 10924.74
1137.650, 10929.29
1138.132, 10936.32
1138.614, 10942.49
1139.096, 10946.31
1139.578, 10948.41
1140.060, 10949.28
1140.542, 10948.91
1141.024, 10948.75
1141.506, 10948.97
1141.989, 10947.86
1142.471, 10942.15
1142.953, 10936.55
1143.435, 10933.91
1143.917, 10934.27
1144.399, 10937.60
1144.881, 10944.53
1145.363, 10949.42
1145.846, 10950.98
1146.328, 10952.31
1146.810, 10957.21
1147.292, 10962.84
1147.774, 10965.98
1148.256, 10966.52
1148.738, 10969.60
1149.220, 10976.65
1149.703, 10980.29
1150.185, 10977.38
1150.667, 10973.24
1151.149, 10974.33
1151.631, 10978.83
1152.113, 10984.44
1152.595, 10990.79
1153.077, 10998.04
1153.559, 11007.04
1154.042, 11014.12
1154.524, 11017.16
1155.006, 11018.26
1155.488, 11021.26
1155.970, 11025.29
1156.452, 11028.23
1156.934, 11028.33
1157.416, 11031.88
1157.898, 11044.02
1158.381, 11051.06
1158.863, 11042.99
1159.345, 11025.87
1159.827, 11016.59
1160.309, 11013.08
1160.791, 11009.54
1161.273, 11001.62
1161.755, 10998.56
1162.238, 11005.71
1162.720, 11013.86
1163.202, 11015.31
1163.684, 11011.99
1164.166, 11014.01
1164.648, 11020.43
1165.130, 11026.98
1165.612, 11029.61
1166.094, 11034.55
1166.577, 11046.37
1167.059, 11058.21
1167.541, 11062.32
1168.023, 11059.46
1168.505, 11057.54
1168.987, 11056.58
1169.469, 11056.21
1169.951, 11053.99
1170.433, 11054.65
1170.916, 11063.75
1171.398, 11074.83
1171.880, 11079.90
1172.362, 11079.25
1172.844, 11074.63
1173.326, 11066.52
1173.808, 11061.99
1174.290, 11071.93
1174.773, 11081.14
1175.255, 11076.99
1175.737, 11067.58
1176.219, 11071.09
1176.701, 11087.75
1177.183, 11090.76
1177.665, 11076.11
1178.147, 11059.18
1178.630, 11047.21
1179.112, 11041.87
1179.594, 11048.11
1180.076, 11061.76
1180.558, 11069.26
1181.040, 11070.12
1181.522, 11075.05
1182.004, 11086.66
1182.486, 11097.91
1182.969, 11101.18
1183.451, 11102.32
1183.933, 11106.39
1184.415, 11112.89
1184.897, 11117.92
1185.379, 11121.65
1185.861, 11120.70
1186.343, 11112.65
1186.825, 11106.37
1187.308, 11115.06
1187.790, 11126.70
1188.272, 11130.06
1188.754, 11124.68
1189.236, 11112.97
1189.718, 11093.57
1190.200, 11083.80
1190.682, 11090.98
1191.165, 11105.19
1191.647, 11122.06
1192.129, 11136.34
1192.611, 11140.39
1193.093, 11132.69
1193.575, 11130.49
1194.057, 11134.38
1194.539, 11138.55
1195.021, 11140.42
1195.504, 11141.81
1195.986, 11142.64
1196.468, 11145.20
1196.950, 11153.75
1197.432, 11170.11
1197.914, 11180.59
1198.396, 11184.59
1198.878, 11185.88
1199.360, 11184.65
1199.843, 11184.13
1200.325, 11191.47
1200.807, 11200.56
1201.289, 11201.79
1201.771, 11191.93
1202.253, 11186.09
1202.735, 11185.02
1203.217, 11184.03
1203.700, 11178.57
1204.182, 11174.49
1204.664, 11181.02
1205.146, 11192.65
1205.628, 11200.44
1206.110, 11202.47
1206.592, 11203.19
1207.074, 11201.97
1207.557, 11202.62
1208.039, 11207.13
1208.521, 11214.85
1209.003, 11229.25
1209.485, 11245.04
1209.967, 11251.13
1210.449, 11239.66
1210.931, 11241.62
1211.413, 11259.48
1211.896, 11275.20
1212.378, 11273.08
1212.860, 11265.32
1213.342, 11265.03
1213.824, 11268.86
1214.306, 11269.42
1214.788, 11263.93
1215.270, 11264.04
1215.752, 11270.76
1216.235, 11277.16
1216.717, 11279.73
1217.199, 11278.13
1217.681, 11267.91
1218.163, 11254.24
1218.645, 11249.63
1219.127, 11257.73
1219.609, 11261.53
1220.092, 11260.07
1220.574, 11257.30
1221.056, 11255.77
1221.538, 11254.92
1222.020, 11252.89
1222.502, 11251.54
1222.984, 11255.60
1223.466, 11267.01
1223.948, 11274.03
1224.431, 11275.75
1224.913, 11275.50
1225.395, 11274.80
1225.877, 11274.23
1226.359, 11273.46
1226.841, 11273.42
1227.323, 11276.45
1227.805, 11283.35
1228.287, 11287.96
1228.770, 11289.81
1229.252, 11290.85
1229.734, 11290.56
1230.216, 11291.94
1230.698, 11299.82
1231.180, 11310.21
1231.662, 11314.23
1232.144, 11311.46
1232.627, 11305.73
1233.109, 11297.13
1233.591, 11292.45
1234.073, 11300.24
1234.555, 11310.18
1235.037, 11318.65
1235.519, 11323.28
1236.001, 11316.52
1236.484, 11298.52
1236.966, 11296.43
1237.448, 11312.66
1237.930, 11326.52
1238.412, 11317.68
1238.894, 11309.23
1239.376, 11318.06
1239.858, 11333.57
1240.340, 11337.34
1240.823, 11330.67
1241.305, 11331.46
1241.787, 11340.96
1242.269, 11346.26
1242.751, 11332.03
1243.233, 11320.51
1243.715, 11323.26
1244.197, 11332.63
1244.679, 11337.17
1245.162, 11337.87
1245.644, 11338.35
1246.126, 11339.26
1246.608, 11344.17
1247.090, 11360.64
1247.572, 11374.04
1248.054, 11378.91
1248.536, 11379.68
1249.019, 11381.25
1249.501, 11384.26
1249.983, 11392.49
1250.465, 11405.53
1250.947, 11416.36
1251.429, 11422.92
1251.911, 11424.51
1252.393, 11419.21
1252.875, 11412.24
1253.358, 11410.58
1253.840, 11412.64
1254.322, 11416.03
1254.804, 11420.12
1255.286, 11421.04
1255.768, 11414.89
1256.250, 11410.80
1256.732, 11410.36
1257.214, 11412.43
1257.697, 11417.93
1258.179, 11423.83
1258.661, 11424.88
1259.143, 11421.37
1259.625, 11416.69
1260.107, 11409.20
1260.589, 11407.11
1261.071, 11412.50
1261.554, 11419.79
1262.036, 11423.61
1262.518, 11425.53
1263.000, 11426.84
1263.482, 11427.78
1263.964, 11429.23
1264.446, 11429.52
1264.928, 11432.09
1265.411, 11430.25
1265.893, 11429.24
1266.375, 11429.90
1266.857, 11434.34
1267.339, 11447.71
1267.821, 11466.01
1268.303, 11477.67
1268.785, 11482.58
1269.267, 11481.02
1269.750, 11472.76
1270.232, 11466.50
1270.714, 11470.47
1271.196, 11476.80
1271.678, 11481.53
1272.160, 11484.82
1272.642, 11486.97
1273.124, 11487.99
1273.606, 11487.47
1274.089, 11485.44
1274.571, 11481.99
1275.053, 11474.65
1275.535, 11469.25
1276.017, 11468.12
1276.499, 11469.66
1276.981, 11473.36
1277.463, 11477.89
1277.946, 11475.23
1278.428, 11466.78
1278.910, 11465.45
1279.392, 11487.85
1279.874, 11501.90
1280.356, 11500.08
1280.838, 11492.38
1281.320, 11487.99
1281.802, 11486.55
1282.285, 11488.76
1282.767, 11493.44
1283.249, 11495.82
1283.731, 11493.06
1284.213, 11490.68
1284.695, 11488.68
1285.177, 11489.00
1285.659, 11496.17
1286.141, 11504.80
1286.624, 11508.53
1287.106, 11507.91
1287.588, 11504.04
1288.070, 11495.06
1288.552, 11492.80
1289.034, 11498.32
1289.516, 11505.57
1289.998, 11508.94
1290.481, 11513.09
1290.963, 11526.67
1291.445, 11540.85
1291.927, 11539.12
1292.409, 11519.70
1292.891, 11514.04
1293.373, 11522.49
1293.855, 11538.00
1294.338, 11565.72
1294.820, 11588.03
1295.302, 11594.01
1295.784, 11592.54
1296.266, 11587.52
1296.748, 11580.88
1297.230, 11586.67
1297.712, 11603.43
1298.194, 11622.05
1298.677, 11640.72
1299.159, 11650.05
1299.641, 11643.66
1300.123, 11637.95
1300.605, 11648.36
1301.087, 11666.07
1301.569, 11667.76
1302.051, 11657.32
1302.533, 11644.61
1303.016, 11622.58
##END=



