##NAMES=Enstatite
##RRUFFID=R060630
##IDEAL CHEMISTRY=MgSiO_3_
##LOCALITY=unknown
##OWNER=RRUFF
##SOURCE=Gemological Institute of America
##DESCRIPTION=Tan colored fragment
##STATUS=The identification of this mineral has been confirmed by X-ray diffraction and chemical analysis
##URL=rruff.info/R060630
##MEASURED CHEMISTRY=(Mg_0.89_Fe_0.07_Al_0.04_)_Σ=1_(Si_0.96_Al_0.04_)_Σ=1_O_3_
114.7015, 0.0000000E+00
115.1836, 0.2687990
115.6658, 0.4957280
116.1479, 3.557495
116.6300, 5.152222
117.1121, 3.589478
117.5942, 0.4692380
118.0763, 0.3496090
118.5584, 1.113159
119.0406, 3.848877
119.5227, 8.275635
120.0048, 13.80713
120.4869, 18.76062
120.9690, 21.80237
121.4511, 24.20386
121.9333, 28.53186
122.4154, 35.34167
122.8975, 43.05383
123.3796, 50.74463
123.8617, 58.54248
124.3438, 65.19678
124.8260, 69.30713
125.3081, 72.12634
125.7902, 74.23315
126.2723, 75.13440
126.7544, 76.25549
127.2365, 81.03491
127.7187, 91.07947
128.2008, 102.5607
128.6829, 113.6986
129.1650, 125.3866
129.6471, 138.9773
130.1292, 155.6300
130.6114, 175.2111
131.0935, 194.1470
131.5756, 210.0029
132.0577, 227.5612
132.5398, 247.8877
133.0219, 270.8463
133.5041, 295.6323
133.9862, 321.5388
134.4683, 348.4872
134.9504, 378.4778
135.4325, 410.9857
135.9146, 446.2101
136.3968, 484.6490
136.8789, 526.1389
137.3610, 569.7328
137.8431, 614.4637
138.3252, 661.1473
138.8073, 705.1011
139.2895, 747.3480
139.7716, 786.5958
140.2537, 822.7909
140.7358, 856.8425
141.2179, 883.5890
141.7000, 895.2649
142.1821, 893.7979
142.6643, 882.3398
143.1464, 861.1531
143.6285, 830.8635
144.1106, 792.6262
144.5927, 743.7922
145.0748, 690.4409
145.5570, 636.3231
146.0391, 582.6721
146.5212, 531.9768
147.0033, 483.7472
147.4854, 439.3169
147.9675, 399.3873
148.4497, 364.6501
148.9318, 333.5010
149.4139, 304.8103
149.8960, 277.9178
150.3781, 254.0228
150.8602, 235.9437
151.3424, 224.9457
151.8245, 216.2354
152.3066, 209.1898
152.7887, 203.7863
153.2708, 200.3685
153.7529, 199.0360
154.2351, 199.1006
154.7172, 198.9209
155.1993, 200.1100
155.6814, 198.8116
156.1635, 194.7921
156.6456, 188.3331
157.1278, 179.5894
157.6099, 168.5498
158.0920, 155.6082
158.5741, 142.3251
159.0562, 127.4208
159.5383, 113.5873
160.0205, 101.5536
160.5026, 91.12000
160.9847, 81.86279
161.4668, 73.73132
161.9489, 66.62646
162.4310, 59.99695
162.9131, 53.82288
163.3953, 48.10822
163.8774, 42.88232
164.3595, 38.13452
164.8416, 33.94318
165.3237, 30.49048
165.8058, 27.65613
166.2880, 25.05078
166.7701, 22.55817
167.2522, 20.31219
167.7343, 18.42834
168.2164, 16.87762
168.6985, 15.85339
169.1807, 15.53534
169.6628, 15.79779
170.1449, 16.67468
170.6270, 18.61975
171.1091, 20.93835
171.5912, 22.07074
172.0734, 21.87531
172.5555, 21.12610
173.0376, 19.40729
173.5197, 16.93579
174.0018, 13.73834
174.4839, 9.585693
174.9661, 4.777100
175.4482, 1.302124
175.9303, 0.8244630
176.4124, 0.1336060
176.8945, 3.522888
177.3766, 8.003479
177.8588, 11.00641
178.3409, 10.41162
178.8230, 6.181274
179.3051, 3.777588
179.7872, 5.054138
180.2693, 6.325378
180.7515, 6.486145
181.2336, 5.706482
181.7157, 4.690430
182.1978, 4.049927
182.6799, 3.856506
183.1620, 3.350769
183.6441, 3.002319
184.1263, 2.046143
184.6084, 0.4183960
185.0905, 4.106995
185.5726, 7.549927
186.0547, 9.197937
186.5368, 8.689880
187.0190, 9.728516
187.5011, 13.72601
187.9832, 18.21313
188.4653, 21.22705
188.9474, 22.59186
189.4296, 23.68939
189.9117, 25.86005
190.3938, 29.09711
190.8759, 32.32507
191.3580, 35.06256
191.8401, 37.90753
192.3223, 41.80725
192.8044, 47.07343
193.2865, 52.33447
193.7686, 55.85590
194.2507, 58.17847
194.7328, 60.93103
195.2150, 65.24933
195.6971, 70.25800
196.1792, 74.12158
196.6613, 76.41693
197.1434, 78.09277
197.6255, 79.77734
198.1077, 81.43573
198.5898, 82.97607
199.0719, 83.95062
199.5540, 84.67670
200.0361, 86.58051
200.5182, 90.44116
201.0004, 94.50116
201.4825, 97.53979
201.9646, 99.95111
202.4467, 102.7098
202.9288, 106.5822
203.4109, 111.5452
203.8930, 116.6700
204.3752, 122.2057
204.8573, 127.5626
205.3394, 132.6853
205.8215, 137.4918
206.3036, 141.8455
206.7857, 145.5510
207.2679, 148.5856
207.7500, 151.3568
208.2321, 154.7130
208.7142, 156.9755
209.1963, 157.4788
209.6784, 156.3223
210.1606, 153.9052
210.6427, 150.5319
211.1248, 146.1932
211.6069, 141.8806
212.0890, 137.6992
212.5711, 133.4271
213.0533, 128.6738
213.5354, 123.6414
214.0175, 118.7950
214.4996, 114.5114
214.9817, 110.7018
215.4638, 108.5377
215.9460, 108.3494
216.4281, 109.0178
216.9102, 109.9393
217.3923, 111.1169
217.8744, 112.9750
218.3565, 116.0869
218.8387, 120.7205
219.3208, 124.8544
219.8029, 127.9119
220.2850, 131.0422
220.7671, 135.0757
221.2492, 139.9141
221.7314, 144.6790
222.2135, 148.5002
222.6956, 151.3577
223.1777, 155.2156
223.6598, 160.6785
224.1419, 166.6442
224.6240, 172.2386
225.1062, 177.4468
225.5883, 182.8138
226.0704, 188.6962
226.5525, 195.1597
227.0346, 202.2746
227.5167, 210.2590
227.9989, 218.7648
228.4810, 227.1200
228.9631, 235.2795
229.4452, 244.5826
229.9273, 256.2355
230.4094, 269.6477
230.8916, 283.5294
231.3737, 297.3934
231.8558, 311.7814
232.3379, 327.2070
232.8200, 343.6160
233.3021, 361.0402
233.7843, 379.7422
234.2664, 399.6609
234.7485, 420.9205
235.2306, 444.1004
235.7127, 468.1893
236.1948, 492.7340
236.6770, 518.7330
237.1591, 542.6396
237.6412, 563.9498
238.1233, 581.5794
238.6054, 594.0998
239.0875, 601.6604
239.5697, 603.1603
240.0518, 596.5869
240.5339, 581.2833
241.0160, 559.4185
241.4981, 529.0456
241.9802, 494.0541
242.4624, 457.0807
242.9445, 418.5536
243.4266, 380.1132
243.9087, 344.3564
244.3908, 311.1440
244.8729, 281.1976
245.3550, 255.2654
245.8372, 232.1952
246.3193, 211.2868
246.8014, 192.2817
247.2835, 175.1140
247.7656, 159.5741
248.2477, 146.1844
248.7299, 133.3718
249.2120, 120.3911
249.6941, 108.0836
250.1762, 97.20459
250.6583, 87.95184
251.1404, 79.92511
251.6226, 72.46967
252.1047, 65.91010
252.5868, 59.28790
253.0689, 51.68433
253.5510, 44.53101
254.0331, 38.88776
254.5153, 34.99841
254.9974, 32.21436
255.4795, 29.64105
255.9616, 27.57056
256.4437, 25.07751
256.9258, 21.48755
257.4080, 18.01569
257.8901, 15.41364
258.3722, 13.83545
258.8543, 12.96503
259.3364, 12.47937
259.8185, 12.77002
260.3007, 12.41821
260.7828, 10.83087
261.2649, 9.184692
261.7470, 8.362244
262.2291, 8.354675
262.7112, 8.419373
263.1934, 7.664246
263.6755, 5.781982
264.1576, 4.164368
264.6397, 2.810303
265.1218, 1.657654
265.6039, 0.6583250
266.0861, 0.1762700
266.5682, 0.7526250
267.0503, 0.9059450
267.5324, 0.4801030
268.0145, 0.6932370
268.4966, 1.952454
268.9788, 3.341858
269.4609, 4.528442
269.9430, 5.457703
270.4251, 6.123962
270.9072, 6.485840
271.3893, 6.524780
271.8715, 6.735046
272.3536, 7.394409
272.8357, 7.921448
273.3178, 8.118469
273.7999, 7.984802
274.2820, 7.500916
274.7642, 6.572266
275.2463, 5.276123
275.7284, 4.620728
276.2105, 4.803162
276.6926, 5.238464
277.1747, 5.947876
277.6568, 6.768738
278.1389, 7.345825
278.6211, 7.456909
279.1032, 7.221130
279.5853, 7.145264
280.0674, 7.428894
280.5495, 7.604614
281.0316, 7.487488
281.5138, 7.188721
281.9959, 6.903809
282.4780, 6.716858
282.9601, 6.581909
283.4422, 6.396118
283.9243, 6.168274
284.4065, 5.875916
284.8886, 5.312744
285.3707, 4.730103
285.8528, 4.740173
286.3349, 5.648010
286.8170, 6.537781
287.2992, 5.617615
287.7813, 2.259705
288.2634, 0.5693360
288.7455, 2.159790
289.2276, 3.069092
289.7097, 3.798096
290.1919, 4.442566
290.6740, 5.273438
291.1561, 6.794250
291.6382, 9.143738
292.1203, 10.99359
292.6024, 11.54803
293.0846, 11.92224
293.5667, 13.33722
294.0488, 15.94196
294.5309, 18.76935
295.0130, 20.88190
295.4951, 22.27496
295.9773, 24.08051
296.4594, 26.09711
296.9415, 28.70929
297.4236, 32.91113
297.9057, 38.47357
298.3878, 43.13263
298.8700, 45.09778
299.3521, 44.64056
299.8342, 44.54492
300.3163, 45.89502
300.7984, 46.61670
301.2805, 45.19543
301.7627, 41.96729
302.2448, 38.51044
302.7269, 35.64221
303.2090, 33.08081
303.6911, 29.90759
304.1732, 25.45276
304.6554, 21.49951
305.1375, 19.27960
305.6196, 18.20209
306.1017, 16.54993
306.5838, 13.40033
307.0659, 9.916748
307.5481, 8.527649
308.0302, 9.497559
308.5123, 10.78015
308.9944, 12.13330
309.4765, 13.29187
309.9586, 13.46112
310.4408, 12.20264
310.9229, 10.91077
311.4050, 11.67322
311.8871, 14.48804
312.3692, 17.51141
312.8513, 20.50159
313.3335, 23.46179
313.8156, 26.34003
314.2977, 29.10437
314.7798, 32.05225
315.2619, 35.65942
315.7440, 39.85748
316.2262, 43.52142
316.7083, 45.77472
317.1904, 48.04449
317.6725, 51.79016
318.1546, 56.94476
318.6367, 61.95007
319.1188, 65.69788
319.6010, 68.46918
320.0831, 71.79968
320.5652, 75.48706
321.0473, 79.90045
321.5294, 85.31519
322.0115, 91.60919
322.4937, 98.52820
322.9758, 106.0172
323.4579, 113.9527
323.9400, 121.7241
324.4221, 128.9628
324.9042, 136.9319
325.3864, 146.3894
325.8685, 156.8457
326.3506, 167.4295
326.8327, 177.8507
327.3148, 188.5230
327.7969, 200.1926
328.2791, 212.8795
328.7612, 226.1249
329.2433, 239.3715
329.7254, 253.3279
330.2075, 268.9812
330.6896, 286.5132
331.1718, 304.9601
331.6539, 323.4589
332.1360, 342.0200
332.6181, 361.5865
333.1002, 382.0272
333.5823, 403.4659
334.0645, 425.9274
334.5466, 449.3451
335.0287, 474.3501
335.5108, 501.5276
335.9929, 530.6807
336.4750, 559.0914
336.9572, 586.5840
337.4393, 613.9567
337.9214, 640.5903
338.4035, 667.3929
338.8856, 696.4174
339.3677, 728.8006
339.8499, 763.4543
340.3320, 797.3146
340.8141, 829.0135
341.2962, 862.3223
341.7783, 898.6829
342.2604, 936.8329
342.7426, 975.3862
343.2247, 1013.802
343.7068, 1051.520
344.1889, 1087.651
344.6710, 1121.783
345.1531, 1155.147
345.6353, 1188.784
346.1174, 1220.722
346.5995, 1250.244
347.0816, 1276.767
347.5637, 1299.255
348.0458, 1316.432
348.5280, 1328.148
349.0101, 1335.721
349.4922, 1340.420
349.9743, 1340.598
350.4564, 1335.561
350.9385, 1325.441
351.4207, 1310.378
351.9028, 1290.385
352.3849, 1265.846
352.8670, 1237.858
353.3491, 1205.872
353.8312, 1171.257
354.3134, 1133.029
354.7955, 1092.762
355.2776, 1051.746
355.7597, 1010.519
356.2418, 969.3690
356.7239, 928.3954
357.2061, 887.2947
357.6882, 847.1081
358.1703, 807.0704
358.6524, 768.3350
359.1345, 731.8204
359.6166, 697.4694
360.0987, 665.1871
360.5808, 634.8520
361.0630, 606.6594
361.5451, 578.4923
362.0272, 549.7567
362.5093, 521.7210
362.9914, 495.0793
363.4735, 469.3383
363.9557, 443.9086
364.4378, 418.3016
364.9199, 392.8842
365.4020, 369.1929
365.8841, 347.3340
366.3662, 327.3842
366.8484, 310.2018
367.3305, 294.4493
367.8126, 278.8546
368.2947, 263.0748
368.7768, 247.4677
369.2589, 232.4748
369.7411, 218.0219
370.2232, 204.5181
370.7053, 191.9835
371.1874, 180.2779
371.6695, 169.2086
372.1516, 158.8478
372.6338, 149.2061
373.1159, 140.2790
373.5980, 132.0917
374.0801, 125.1262
374.5622, 120.2387
375.0443, 115.5905
375.5265, 110.1646
376.0086, 104.6321
376.4907, 100.1875
376.9728, 97.51843
377.4549, 95.92010
377.9370, 93.81610
378.4192, 91.02417
378.9013, 88.24054
379.3834, 85.36292
379.8655, 82.74371
380.3476, 80.79541
380.8297, 79.59174
381.3119, 78.57654
381.7940, 76.89227
382.2761, 74.57037
382.7582, 73.47693
383.2403, 74.38141
383.7224, 76.02771
384.2046, 77.64813
384.6867, 79.23499
385.1688, 80.82178
385.6509, 82.53253
386.1330, 84.22791
386.6151, 85.63116
387.0973, 86.76300
387.5794, 87.49908
388.0615, 87.44635
388.5436, 87.01752
389.0257, 86.74463
389.5078, 86.63373
389.9900, 86.85736
390.4721, 87.41858
390.9542, 88.36609
391.4363, 90.23572
391.9184, 93.59351
392.4005, 97.47931
392.8827, 100.2869
393.3648, 101.8624
393.8469, 104.3096
394.3290, 108.7448
394.8111, 114.4689
395.2932, 120.4350
395.7754, 126.5546
396.2575, 132.7776
396.7396, 139.0203
397.2217, 145.3433
397.7038, 152.1591
398.1859, 159.3868
398.6681, 167.2656
399.1501, 176.5181
399.6323, 186.6978
400.1144, 196.2479
400.5965, 204.3593
401.0786, 211.3801
401.5607, 218.1760
402.0428, 225.0077
402.5250, 231.2215
403.0071, 237.0126
403.4892, 241.9835
403.9713, 245.6757
404.4534, 247.9714
404.9355, 248.9902
405.4177, 248.8285
405.8998, 247.4060
406.3819, 245.0001
406.8640, 241.4948
407.3461, 237.3017
407.8282, 231.9238
408.3104, 225.9929
408.7925, 220.9418
409.2746, 217.6762
409.7567, 215.8344
410.2388, 213.5607
410.7209, 209.1896
411.2031, 206.6452
411.6852, 206.6661
412.1673, 208.3891
412.6494, 210.9783
413.1315, 214.1888
413.6136, 218.3121
414.0958, 223.9979
414.5779, 231.8139
415.0600, 238.9991
415.5421, 244.8713
416.0242, 250.7377
416.5063, 257.0205
416.9885, 263.7866
417.4706, 270.9567
417.9527, 278.5916
418.4348, 286.4691
418.9169, 294.1104
419.3990, 301.8739
419.8812, 308.2067
420.3633, 313.1606
420.8454, 316.4674
421.3275, 317.8872
421.8096, 317.3333
422.2917, 314.2444
422.7739, 307.6688
423.2560, 297.6796
423.7381, 286.2103
424.2202, 273.2573
424.7023, 259.3088
425.1844, 244.8870
425.6666, 229.8762
426.1487, 213.6891
426.6308, 195.1905
427.1129, 175.7899
427.5950, 157.5246
428.0771, 140.2676
428.5593, 123.8452
429.0414, 107.8968
429.5235, 93.10223
430.0056, 80.65601
430.4877, 71.33490
430.9698, 62.58258
431.4520, 52.63977
431.9341, 42.56873
432.4162, 34.34589
432.8983, 28.52679
433.3804, 24.55902
433.8625, 22.05591
434.3447, 21.19507
434.8268, 20.61523
435.3089, 19.45435
435.7910, 19.24951
436.2731, 21.38525
436.7552, 25.45398
437.2374, 29.90479
437.7195, 33.77539
438.2016, 37.51733
438.6837, 42.78680
439.1658, 49.83673
439.6479, 58.13708
440.1301, 68.23083
440.6122, 79.25238
441.0943, 90.31769
441.5764, 101.1611
442.0585, 112.2220
442.5406, 124.0596
443.0227, 136.9010
443.5049, 149.4134
443.9870, 161.2609
444.4691, 173.0320
444.9512, 186.1099
445.4333, 198.9713
445.9154, 209.3609
446.3976, 216.0137
446.8797, 219.4749
447.3618, 220.9374
447.8439, 220.3969
448.3260, 217.9167
448.8081, 213.4038
449.2903, 206.9239
449.7724, 198.0172
450.2545, 186.8514
450.7366, 174.5639
451.2187, 161.7296
451.7008, 148.4233
452.1830, 135.3115
452.6651, 122.4330
453.1472, 109.8607
453.6293, 97.20374
454.1114, 84.99335
454.5935, 74.15063
455.0757, 65.13452
455.5578, 57.10767
456.0399, 49.29205
456.5220, 41.84381
457.0041, 35.28058
457.4862, 29.76166
457.9684, 25.14270
458.4505, 21.50519
458.9326, 18.83093
459.4147, 16.12103
459.8968, 12.84821
460.3789, 9.745544
460.8611, 7.613892
461.3432, 6.342712
461.8253, 5.078369
462.3074, 3.197876
462.7895, 1.005859
463.2716, 0.2940060
463.7538, 0.2193600
464.2359, 0.3562620
464.7180, 0.4764400
465.2001, 1.631714
465.6822, 2.382202
466.1643, 2.631348
466.6465, 2.845154
467.1286, 3.558350
467.6107, 4.863953
468.0928, 5.970581
468.5749, 6.746521
469.0570, 7.468872
469.5392, 8.377625
470.0213, 9.230469
470.5034, 9.615601
470.9855, 9.344421
471.4676, 8.689880
471.9497, 8.073608
472.4319, 7.458344
472.9140, 7.025543
473.3961, 6.672150
473.8782, 6.635986
474.3603, 7.267517
474.8424, 8.391754
475.3246, 9.383026
475.8067, 10.03323
476.2888, 10.22583
476.7709, 9.422882
477.2530, 7.378998
477.7351, 5.897552
478.2173, 6.255554
478.6994, 7.458496
479.1815, 7.940369
479.6636, 7.549896
480.1457, 6.768097
480.6278, 5.511993
481.1100, 4.107147
481.5920, 3.210632
482.0742, 2.953339
482.5563, 2.863037
483.0384, 2.523071
483.5205, 1.938568
484.0026, 1.522736
484.4847, 1.564575
484.9669, 1.453827
485.4490, 0.8970640
485.9311, 3.4545999E-02
486.4132, 0.9044490
486.8953, 1.831879
487.3774, 2.759857
487.8596, 3.749054
488.3417, 5.005676
488.8238, 5.721375
489.3059, 5.688660
489.7880, 5.415588
490.2701, 4.934509
490.7523, 4.425781
491.2344, 4.210510
491.7165, 4.502808
492.1986, 5.173035
492.6807, 5.892151
493.1628, 6.695068
493.6450, 7.456970
494.1271, 8.332916
494.6092, 9.030762
495.0913, 9.245758
495.5734, 9.013855
496.0555, 8.755371
496.5377, 8.812866
497.0198, 9.067871
497.5019, 9.026917
497.9840, 8.485443
498.4661, 8.612122
498.9482, 10.66287
499.4304, 13.56598
499.9125, 15.17545
500.3946, 14.86368
500.8767, 14.54294
501.3588, 15.44003
501.8409, 16.89038
502.3231, 17.51529
502.8052, 17.02332
503.2873, 16.59360
503.7694, 17.45621
504.2515, 19.67126
504.7336, 21.19748
505.2158, 21.33499
505.6979, 21.65292
506.1800, 22.79517
506.6621, 24.44473
507.1442, 26.07074
507.6263, 27.48727
508.1085, 28.94547
508.5906, 30.92496
509.0727, 33.76910
509.5548, 35.87607
510.0369, 36.46786
510.5190, 37.09613
511.0012, 38.11951
511.4833, 39.64389
511.9654, 41.91537
512.4475, 45.22479
512.9296, 48.78384
513.4117, 50.95505
513.8939, 51.49588
514.3760, 52.57260
514.8581, 54.95581
515.3402, 57.75922
515.8223, 60.43329
516.3044, 62.91595
516.7866, 64.88885
517.2687, 65.46878
517.7508, 65.90332
518.2329, 68.13983
518.7150, 72.05151
519.1971, 75.62872
519.6793, 77.91925
520.1614, 79.31763
520.6435, 80.59787
521.1256, 81.69302
521.6077, 82.86578
522.0898, 84.49896
522.5720, 85.97885
523.0541, 86.67435
523.5362, 86.62576
524.0183, 86.32031
524.5004, 86.10147
524.9825, 85.91660
525.4647, 85.51608
525.9468, 84.54941
526.4289, 83.91675
526.9110, 83.92007
527.3931, 84.08032
527.8752, 84.10101
528.3574, 83.93347
528.8395, 83.61768
529.3216, 83.22192
529.8037, 82.71271
530.2858, 81.76801
530.7679, 80.04605
531.2501, 78.64221
531.7322, 77.70880
532.2143, 77.41934
532.6964, 78.32523
533.1785, 80.75275
533.6606, 83.04718
534.1428, 83.65466
534.6249, 83.33948
535.1070, 84.13788
535.5891, 86.37469
536.0712, 88.87006
536.5533, 90.85553
537.0355, 92.36713
537.5176, 93.60992
537.9997, 94.58072
538.4818, 95.38812
538.9639, 96.28235
539.4460, 96.92529
539.9282, 96.95532
540.4103, 96.29758
540.8924, 94.99988
541.3745, 93.01312
541.8566, 90.25891
542.3387, 87.35040
542.8209, 84.12503
543.3029, 80.99399
543.7850, 78.02292
544.2672, 75.39951
544.7493, 73.18881
545.2314, 71.27542
545.7135, 69.59668
546.1956, 68.20248
546.6777, 67.16852
547.1599, 66.72668
547.6420, 67.05826
548.1241, 67.55435
548.6062, 68.05862
549.0883, 68.36386
549.5704, 68.12662
550.0526, 67.20447
550.5347, 65.99686
551.0168, 64.72842
551.4989, 63.45712
551.9810, 62.07327
552.4631, 60.51453
552.9453, 59.04355
553.4274, 57.97037
553.9095, 57.29230
554.3916, 56.32510
554.8737, 54.87918
555.3558, 53.36859
555.8380, 52.02603
556.3201, 50.57983
556.8022, 48.71384
557.2843, 46.41669
557.7664, 44.07535
558.2485, 42.01993
558.7307, 40.23187
559.2128, 38.93176
559.6949, 38.71725
560.1770, 38.08630
560.6591, 36.36087
561.1412, 34.07874
561.6234, 31.78940
562.1055, 29.62753
562.5876, 27.79395
563.0697, 26.52191
563.5518, 25.71481
564.0339, 25.12296
564.5161, 24.77258
564.9982, 24.35095
565.4803, 23.53552
565.9624, 22.46146
566.4445, 21.74075
566.9266, 21.74854
567.4088, 21.57657
567.8909, 20.68616
568.3730, 19.55063
568.8551, 18.67453
569.3372, 18.18710
569.8193, 18.08310
570.3015, 18.39590
570.7836, 19.10718
571.2657, 19.88052
571.7478, 21.23718
572.2299, 21.91876
572.7120, 21.13562
573.1942, 19.99551
573.6763, 19.52689
574.1584, 19.87665
574.6405, 20.49686
575.1226, 21.07095
575.6047, 21.53830
576.0869, 21.59027
576.5690, 21.14182
577.0511, 20.61902
577.5332, 20.08356
578.0153, 19.68408
578.4974, 19.73413
578.9796, 20.40292
579.4617, 20.77640
579.9438, 20.12051
580.4259, 19.22232
580.9080, 19.19855
581.3901, 19.96243
581.8723, 20.43201
582.3544, 19.92636
582.8365, 18.61707
583.3186, 17.05472
583.8007, 14.56467
584.2828, 12.88034
584.7650, 12.86893
585.2471, 12.91418
585.7292, 11.80774
586.2113, 9.767578
586.6934, 7.769714
587.1755, 6.392792
587.6577, 5.498718
588.1398, 4.830322
588.6219, 4.404144
589.1040, 4.112640
589.5861, 4.162811
590.0682, 4.070892
590.5504, 3.002136
591.0325, 1.209991
591.5146, 0.4202880
591.9967, 2.317047
592.4788, 4.445221
592.9609, 4.463806
593.4431, 2.957153
593.9252, 1.686707
594.4073, 1.281555
594.8894, 1.421875
595.3715, 1.708496
595.8536, 2.212830
596.3358, 2.539032
596.8179, 2.933899
597.3000, 2.909882
597.7821, 1.885529
598.2642, 0.4822080
598.7463, 0.4222410
599.2285, 0.5339360
599.7106, 0.2589420
600.1927, 0.1175230
600.6748, 0.5697940
601.1569, 0.1817320
601.6390, 1.679565
602.1212, 3.115051
602.6033, 2.382965
603.0854, 0.7267760
603.5675, 7.1990997E-02
604.0496, 0.8953860
604.5317, 1.964294
605.0139, 2.953247
605.4960, 3.677979
605.9781, 3.742584
606.4602, 3.158722
606.9423, 2.395752
607.4244, 1.720428
607.9066, 1.210510
608.3887, 1.237518
608.8708, 2.379059
609.3529, 3.240875
609.8350, 3.633423
610.3171, 3.849243
610.7993, 4.115051
611.2814, 4.401428
611.7635, 4.533875
612.2456, 4.404938
612.7277, 4.051025
613.2098, 3.381348
613.6920, 2.320648
614.1741, 1.862946
614.6562, 2.557800
615.1383, 3.532562
615.6204, 4.027039
616.1025, 4.076569
616.5847, 3.742340
617.0668, 2.718933
617.5489, 1.632111
618.0310, 0.8718260
618.5131, 0.3407290
618.9952, 0.1437680
619.4774, 0.6412350
619.9595, 1.164398
620.4416, 1.681213
620.9237, 2.157745
621.4058, 3.141327
621.8879, 5.302124
622.3701, 7.160370
622.8522, 8.114502
623.3343, 8.785034
623.8164, 9.869446
624.2985, 11.47147
624.7806, 13.06009
625.2628, 13.97742
625.7448, 14.57220
626.2269, 15.88000
626.7090, 17.98370
627.1912, 20.06866
627.6733, 21.65244
628.1554, 23.12378
628.6375, 25.39923
629.1196, 28.71643
629.6017, 31.53311
630.0839, 32.85309
630.5660, 34.28455
631.0481, 37.07739
631.5302, 40.90039
632.0123, 44.80847
632.4944, 48.34995
632.9766, 51.82867
633.4587, 55.85077
633.9408, 60.64108
634.4229, 64.84732
634.9050, 67.74307
635.3871, 70.96210
635.8693, 75.45898
636.3514, 80.61411
636.8335, 85.51599
637.3156, 89.92267
637.7977, 94.09079
638.2798, 97.92813
638.7620, 101.7050
639.2441, 106.1568
639.7262, 111.3095
640.2083, 116.2562
640.6904, 120.3262
641.1725, 123.8313
641.6547, 127.8584
642.1368, 132.5327
642.6189, 137.5921
643.1010, 143.4055
643.5831, 149.2535
644.0652, 154.3386
644.5474, 159.0901
645.0295, 164.6599
645.5116, 171.6447
645.9937, 179.6256
646.4758, 187.9816
646.9579, 196.7166
647.4401, 205.7766
647.9222, 214.8298
648.4043, 224.7879
648.8864, 236.5784
649.3685, 249.8766
649.8506, 263.3219
650.3328, 276.1983
650.8149, 289.9995
651.2970, 305.6677
651.7791, 322.3066
652.2612, 338.5735
652.7433, 354.5170
653.2255, 371.3294
653.7076, 389.9109
654.1897, 409.9631
654.6718, 430.6420
655.1539, 451.8988
655.6360, 473.7092
656.1182, 496.2664
656.6003, 519.1935
657.0824, 542.4120
657.5645, 565.9542
658.0466, 589.7780
658.5287, 614.4419
659.0109, 638.5704
659.4930, 661.0687
659.9751, 681.9089
660.4572, 701.6653
660.9393, 720.4631
661.4214, 737.1572
661.9036, 751.0129
662.3857, 761.9117
662.8678, 768.4978
663.3499, 770.0125
663.8320, 768.1402
664.3141, 762.1115
664.7963, 753.5244
665.2784, 743.0015
665.7605, 731.0156
666.2426, 718.4468
666.7247, 705.7270
667.2068, 692.6586
667.6890, 678.2173
668.1711, 662.4926
668.6532, 647.9743
669.1353, 635.0005
669.6174, 624.0179
670.0995, 615.5438
670.5817, 609.6873
671.0638, 606.2861
671.5459, 605.7389
672.0280, 607.1234
672.5101, 610.0521
672.9922, 614.7433
673.4744, 621.4088
673.9565, 630.1514
674.4386, 641.1039
674.9207, 654.4387
675.4028, 670.1096
675.8849, 687.9955
676.3671, 708.0233
676.8492, 730.4593
677.3313, 755.3558
677.8134, 783.0117
678.2955, 813.2606
678.7776, 846.1542
679.2598, 881.9340
679.7419, 921.5850
680.2240, 962.9433
680.7061, 1004.028
681.1882, 1046.225
681.6703, 1092.818
682.1525, 1143.787
682.6346, 1196.171
683.1167, 1247.893
683.5988, 1298.567
684.0809, 1346.910
684.5630, 1393.459
685.0452, 1436.285
685.5273, 1476.559
686.0094, 1511.367
686.4915, 1540.807
686.9736, 1563.276
687.4557, 1574.805
687.9379, 1573.369
688.4200, 1561.229
688.9021, 1539.041
689.3842, 1507.934
689.8663, 1470.560
690.3484, 1427.166
690.8306, 1377.096
691.3127, 1318.849
691.7948, 1253.844
692.2769, 1187.942
692.7590, 1120.272
693.2411, 1053.016
693.7233, 984.4933
694.2054, 918.4184
694.6875, 856.9760
695.1696, 799.5567
695.6517, 744.3799
696.1339, 690.2593
696.6160, 639.2910
697.0981, 593.9354
697.5802, 553.6072
698.0623, 515.4348
698.5444, 479.2061
699.0266, 445.7622
699.5087, 416.0135
699.9908, 389.3438
700.4729, 363.8659
700.9550, 339.3846
701.4371, 316.6352
701.9193, 295.8628
702.4014, 276.6032
702.8835, 258.4001
703.3656, 241.5438
703.8477, 226.6990
704.3298, 214.3640
704.8120, 203.1276
705.2941, 191.2299
705.7762, 179.0436
706.2583, 168.4548
706.7404, 159.8439
707.2225, 151.5731
707.7046, 142.4431
708.1867, 133.1476
708.6688, 125.5554
709.1509, 120.4901
709.6331, 114.9470
710.1152, 107.9109
710.5973, 101.0929
711.0794, 95.49606
711.5615, 90.84576
712.0436, 86.56342
712.5258, 82.41379
713.0079, 78.60818
713.4900, 75.67123
713.9721, 73.37631
714.4542, 70.10916
714.9363, 65.63925
715.4185, 61.30713
715.9006, 57.73355
716.3827, 54.75687
716.8648, 52.07727
717.3469, 49.68988
717.8290, 47.56088
718.3112, 45.83765
718.7933, 44.16385
719.2754, 42.43372
719.7575, 40.66135
720.2396, 38.82581
720.7217, 36.88077
721.2039, 34.86728
721.6860, 32.92096
722.1681, 31.16006
722.6502, 29.62527
723.1323, 28.20770
723.6144, 26.99802
724.0966, 26.08582
724.5787, 25.49789
725.0608, 25.51813
725.5429, 26.11847
726.0250, 25.73831
726.5071, 23.08347
726.9893, 20.80301
727.4714, 20.19452
727.9535, 20.28687
728.4356, 19.97742
728.9177, 19.16214
729.3998, 18.45294
729.8820, 18.32324
730.3641, 18.39206
730.8462, 17.67004
731.3283, 16.16016
731.8104, 15.78561
732.2925, 17.32043
732.7747, 18.89517
733.2568, 19.01053
733.7389, 17.90161
734.2210, 16.93356
734.7031, 15.93640
735.1852, 15.39493
735.6674, 15.86536
736.1495, 16.43005
736.6316, 16.25775
737.1137, 15.51477
737.5958, 14.85586
738.0779, 14.59354
738.5601, 14.47693
739.0422, 14.02063
739.5243, 13.30670
740.0064, 13.19287
740.4885, 13.89294
740.9706, 14.50000
741.4528, 14.45279
741.9349, 14.06055
742.4170, 14.00708
742.8991, 14.41003
743.3812, 14.75876
743.8633, 15.00403
744.3455, 15.13110
744.8276, 14.95938
745.3097, 14.77435
745.7918, 15.04559
746.2739, 15.86383
746.7560, 16.79871
747.2382, 17.42670
747.7203, 17.85464
748.2024, 18.50616
748.6845, 19.39630
749.1666, 19.77966
749.6487, 19.17511
750.1309, 18.54596
750.6130, 19.10684
751.0951, 20.94302
751.5772, 22.40680
752.0593, 23.49338
752.5414, 24.22836
753.0236, 24.57480
753.5057, 24.59857
753.9878, 24.39999
754.4699, 23.94458
754.9520, 23.04556
755.4341, 21.50684
755.9163, 19.64011
756.3984, 17.80533
756.8805, 16.00781
757.3626, 14.32114
757.8447, 12.75436
758.3268, 11.27866
758.8090, 9.894592
759.2911, 8.568207
759.7732, 7.160614
760.2553, 5.445099
760.7374, 4.073120
761.2195, 3.132568
761.7017, 2.433716
762.1838, 2.044373
762.6659, 1.787445
763.1480, 1.348755
763.6301, 0.6343080
764.1122, 2.3773000E-02
764.5944, 5.3771999E-02
765.0765, 7.1990997E-02
765.5586, 0.1290890
766.0407, 0.6375120
766.5228, 1.215454
767.0049, 1.785675
767.4871, 2.290131
767.9692, 2.648102
768.4513, 2.866302
768.9334, 2.972382
769.4155, 2.887482
769.8976, 2.831177
770.3798, 2.782990
770.8619, 2.838013
771.3440, 3.206421
771.8261, 3.786987
772.3082, 4.068176
772.7903, 3.603149
773.2725, 3.147797
773.7546, 3.327698
774.2367, 3.810730
774.7188, 4.151184
775.2009, 4.255859
775.6830, 4.061768
776.1652, 3.484253
776.6473, 2.792755
777.1294, 2.780762
777.6115, 3.658752
778.0936, 3.694305
778.5757, 2.136078
779.0579, 0.9231570
779.5400, 1.619324
780.0221, 3.099670
780.5042, 3.360596
780.9863, 2.040497
781.4684, 1.061127
781.9506, 1.069489
782.4327, 1.375488
782.9148, 1.767029
783.3969, 2.069000
783.8790, 1.961792
784.3611, 1.413574
784.8433, 0.8359380
785.3254, 0.6047360
785.8075, 0.6349490
786.2896, 0.7813110
786.7717, 1.049438
787.2538, 0.8355410
787.7360, 0.2104800
788.2181, 1.149780
788.7002, 0.9718630
789.1823, 0.1376950
789.6644, 0.5805360
790.1465, 0.1376650
790.6286, 0.7756350
791.1107, 1.335754
791.5928, 1.704590
792.0750, 1.682190
792.5571, 1.438751
793.0392, 1.332397
793.5213, 1.505127
794.0034, 1.722961
794.4855, 1.741547
794.9677, 1.681549
795.4498, 1.782043
795.9319, 2.036560
796.4140, 2.303864
796.8961, 2.521362
797.3782, 2.766327
797.8604, 3.179932
798.3425, 3.779694
798.8246, 4.082611
799.3067, 3.977448
799.7888, 3.772797
800.2709, 3.181549
800.7531, 2.806305
801.2352, 3.370270
801.7173, 4.641144
802.1994, 5.440247
802.6815, 5.069794
803.1636, 4.738464
803.6458, 5.206543
804.1279, 5.975494
804.6100, 6.485046
805.0921, 6.714569
805.5742, 6.857819
806.0563, 7.011169
806.5385, 7.246613
807.0206, 7.850861
807.5027, 8.758270
807.9848, 8.851532
808.4669, 7.871246
808.9490, 7.222198
809.4312, 7.693054
809.9133, 8.587677
810.3954, 8.847870
810.8775, 8.346863
811.3596, 8.017487
811.8417, 7.679840
812.3239, 7.739532
812.8060, 8.713348
813.2881, 9.843781
813.7702, 10.29898
814.2523, 10.17892
814.7344, 10.28323
815.2166, 11.11353
815.6987, 12.09845
816.1808, 12.71677
816.6629, 13.01620
817.1450, 12.97849
817.6271, 12.66129
818.1093, 12.49063
818.5914, 12.71408
819.0735, 13.18710
819.5556, 13.67206
820.0377, 14.20422
820.5198, 14.45627
821.0020, 14.09030
821.4841, 14.08453
821.9662, 15.10385
822.4483, 16.45245
822.9304, 17.23132
823.4125, 17.46591
823.8947, 18.19626
824.3768, 20.16434
824.8589, 22.00226
825.3410, 23.16397
825.8231, 23.86417
826.3052, 24.26855
826.7874, 24.46338
827.2695, 24.56790
827.7516, 24.64020
828.2337, 24.65640
828.7158, 24.41513
829.1979, 24.04651
829.6801, 24.28696
830.1622, 25.22156
830.6443, 26.09946
831.1264, 26.49951
831.6085, 26.65057
832.0906, 26.93655
832.5728, 27.32599
833.0549, 28.13995
833.5370, 29.70551
834.0191, 31.28558
834.5012, 32.68777
834.9833, 34.01392
835.4655, 35.30579
835.9476, 36.63028
836.4297, 38.12845
836.9118, 39.79739
837.3939, 41.49152
837.8760, 43.03870
838.3582, 44.71506
838.8403, 46.95120
839.3224, 49.62534
839.8045, 52.22400
840.2866, 54.50873
840.7687, 56.90341
841.2509, 60.15933
841.7330, 64.08017
842.2151, 67.41977
842.6972, 70.11517
843.1793, 72.73267
843.6614, 75.46335
844.1436, 78.13181
844.6257, 80.50128
845.1078, 82.58102
845.5899, 84.50488
846.0720, 85.96848
846.5541, 87.63498
847.0363, 90.05823
847.5184, 92.16061
848.0005, 93.07138
848.4826, 93.23703
848.9647, 93.76553
849.4468, 95.01788
849.9290, 96.21246
850.4111, 97.20340
850.8932, 97.71747
851.3753, 97.24936
851.8574, 96.13528
852.3395, 95.22729
852.8217, 94.74594
853.3038, 94.05685
853.7859, 92.51456
854.2680, 90.32455
854.7501, 88.02634
855.2322, 85.61765
855.7144, 83.65060
856.1965, 82.42419
856.6786, 80.77838
857.1607, 77.55051
857.6428, 73.47409
858.1249, 70.97714
858.6071, 71.37140
859.0892, 70.54092
859.5713, 67.17966
860.0534, 64.15619
860.5355, 62.70602
861.0176, 61.98593
861.4998, 61.10596
861.9819, 59.92566
862.4640, 58.37350
862.9461, 56.06104
863.4282, 53.73114
863.9103, 51.75174
864.3925, 50.15021
864.8746, 49.14020
865.3567, 48.58643
865.8388, 48.03922
866.3209, 47.27026
866.8030, 46.12384
867.2852, 44.07571
867.7673, 41.39032
868.2494, 39.45493
868.7315, 38.36298
869.2136, 37.79083
869.6957, 37.68527
870.1779, 37.77301
870.6600, 37.76990
871.1421, 37.67850
871.6242, 36.91681
872.1063, 34.92020
872.5884, 33.24597
873.0705, 32.37363
873.5526, 31.69858
874.0347, 30.95444
874.5168, 30.12323
874.9990, 29.17447
875.4811, 28.11615
875.9632, 26.91977
876.4453, 25.30554
876.9274, 23.81818
877.4095, 22.91800
877.8917, 22.41199
878.3738, 22.01740
878.8559, 21.62314
879.3380, 21.09454
879.8201, 20.31006
880.3022, 19.35052
880.7844, 18.24371
881.2665, 17.06842
881.7486, 16.19229
882.2307, 15.65253
882.7128, 14.98624
883.1949, 13.85226
883.6771, 12.64603
884.1592, 12.34012
884.6413, 13.15186
885.1234, 13.17020
885.6055, 12.13525
886.0876, 10.90057
886.5698, 9.423279
887.0519, 8.219971
887.5340, 8.217743
888.0161, 9.281891
888.4982, 9.302826
888.9803, 6.841431
889.4625, 5.284546
889.9446, 6.136261
890.4267, 7.198944
890.9088, 6.668427
891.3909, 5.281723
891.8730, 4.864746
892.3552, 5.968613
892.8373, 6.746185
893.3194, 5.706970
893.8015, 4.018372
894.2836, 2.653702
894.7657, 1.687698
895.2479, 1.351730
895.7300, 1.590454
896.2121, 1.829895
896.6942, 1.656189
897.1763, 1.180511
897.6584, 0.4577330
898.1406, 0.4411160
898.6227, 0.6944120
899.1048, 0.1661830
899.5869, 0.2278750
900.0690, 4.4312000E-02
900.5511, 0.4792630
901.0333, 1.062088
901.5154, 1.728561
901.9975, 1.893387
902.4796, 1.347000
902.9617, 0.6795960
903.4438, 0.3391720
903.9260, 1.112045
904.4081, 0.9529110
904.8902, 0.2724300
905.3723, 0.2087550
905.8544, 1.255875
906.3365, 1.848709
906.8187, 1.222397
907.3008, 0.4429170
907.7829, 3.1372000E-02
908.2650, 7.4005000E-02
908.7471, 6.5125003E-02
909.2292, 0.3822780
909.7114, 0.6365200
910.1935, 0.5785520
910.6756, 0.5677030
911.1577, 1.077591
911.6398, 1.852036
912.1219, 2.489380
912.6041, 2.980133
913.0862, 3.335373
913.5683, 3.553268
914.0504, 3.929794
914.5325, 4.919708
915.0146, 6.467667
915.4968, 8.445862
915.9789, 10.89688
916.4610, 12.17996
916.9431, 11.65392
917.4252, 11.00948
917.9073, 11.60939
918.3895, 13.16496
918.8716, 14.76074
919.3537, 16.59070
919.8358, 18.05347
920.3179, 18.89728
920.8000, 19.74841
921.2822, 21.03973
921.7643, 22.24747
922.2464, 22.56174
922.7285, 22.09474
923.2106, 22.57912
923.6927, 25.09009
924.1749, 27.44212
924.6570, 29.10191
925.1391, 30.30452
925.6212, 30.77591
926.1033, 31.06020
926.5854, 32.33676
927.0676, 34.98122
927.5497, 37.52260
928.0318, 38.93907
928.5139, 39.82556
928.9960, 40.41995
929.4781, 41.08185
929.9603, 42.73108
930.4424, 45.28209
930.9245, 47.43036
931.4066, 48.30402
931.8887, 48.59898
932.3708, 49.43539
932.8530, 50.63474
933.3351, 51.40800
933.8172, 51.73549
934.2993, 52.06879
934.7814, 52.56929
935.2635, 53.17609
935.7457, 53.88553
936.2278, 54.60229
936.7099, 54.66684
937.1920, 53.83707
937.6741, 53.45108
938.1563, 53.88066
938.6384, 54.26233
939.1205, 54.03181
939.6026, 53.54018
940.0847, 53.49284
940.5668, 54.06773
941.0490, 54.04105
941.5311, 52.78603
942.0132, 51.81372
942.4953, 51.58337
942.9774, 51.57410
943.4595, 51.46643
943.9417, 51.26120
944.4238, 50.97519
944.9059, 50.51141
945.3880, 50.35542
945.8701, 51.10042
946.3522, 51.76117
946.8344, 51.48286
947.3165, 50.82964
947.7986, 50.72083
948.2807, 51.13800
948.7628, 51.20677
949.2449, 50.35779
949.7271, 49.26663
950.2092, 48.57051
950.6913, 48.04916
951.1734, 47.23740
951.6555, 46.27318
952.1376, 45.77063
952.6198, 45.89857
953.1019, 46.08112
953.5840, 45.79901
954.0661, 45.13321
954.5482, 44.26546
955.0303, 43.19223
955.5124, 41.82463
955.9945, 40.13670
956.4766, 38.50728
956.9587, 37.15268
957.4409, 35.92496
957.9230, 34.63545
958.4051, 33.26468
958.8872, 31.64745
959.3693, 29.68333
959.8514, 27.87454
960.3336, 26.45668
960.8157, 24.98761
961.2978, 23.03770
961.7799, 20.85638
962.2620, 19.22818
962.7441, 18.50012
963.2263, 17.25514
963.7084, 15.06674
964.1905, 12.94591
964.6726, 11.12773
965.1547, 9.517410
965.6368, 8.058136
966.1190, 6.731613
966.6011, 5.460495
967.0832, 4.089401
967.5653, 3.057129
968.0474, 2.918808
968.5295, 2.642242
969.0117, 1.399811
969.4938, 0.2027890
969.9759, 1.399323
970.4580, 2.078827
970.9401, 2.425049
971.4222, 2.345993
971.9044, 2.227173
972.3865, 2.335754
972.8686, 2.507751
973.3507, 2.554291
973.8328, 2.517700
974.3149, 2.579803
974.7971, 2.770599
975.2792, 2.815323
975.7613, 2.383774
976.2434, 1.810272
976.7255, 1.538101
977.2076, 1.467926
977.6898, 1.521988
978.1719, 1.589706
978.6540, 1.212967
979.1361, 0.1759190
979.6182, 1.009552
980.1003, 1.625504
980.5825, 1.908478
981.0646, 2.640350
981.5467, 3.784042
982.0288, 5.146790
982.5109, 6.684799
982.9930, 7.931152
983.4752, 8.509354
983.9573, 8.935120
984.4394, 10.25594
984.9215, 12.47676
985.4036, 14.55769
985.8857, 16.50642
986.3679, 18.13147
986.8500, 19.13515
987.3321, 20.66345
987.8142, 23.86699
988.2963, 28.10220
988.7784, 31.27306
989.2606, 32.87444
989.7427, 35.14880
990.2248, 38.19164
990.7069, 41.75032
991.1890, 46.03467
991.6711, 50.50583
992.1533, 54.49545
992.6354, 58.18071
993.1175, 62.59297
993.5996, 67.97025
994.0817, 73.62036
994.5638, 79.88223
995.0460, 86.04086
995.5281, 91.46652
996.0102, 96.87587
996.4923, 102.9734
996.9744, 109.7896
997.4565, 117.0693
997.9387, 125.1001
998.4208, 132.9938
998.9029, 140.0011
999.3850, 147.3191
999.8671, 155.7987
1000.349, 164.9442
1000.831, 173.9348
1001.313, 182.6989
1001.796, 191.6931
1002.278, 201.0479
1002.760, 210.7127
1003.242, 220.7663
1003.724, 230.9912
1004.206, 241.4138
1004.688, 251.8516
1005.170, 262.1686
1005.653, 272.3214
1006.135, 282.3084
1006.617, 292.1275
1007.099, 301.8784
1007.581, 311.9306
1008.063, 321.7638
1008.545, 330.6842
1009.027, 338.6668
1009.509, 345.8388
1009.992, 352.2476
1010.474, 358.2298
1010.956, 364.3637
1011.438, 369.8668
1011.920, 373.5086
1012.402, 375.5886
1012.884, 376.8252
1013.366, 377.2569
1013.849, 376.4878
1014.331, 374.3515
1014.813, 371.3495
1015.295, 367.9822
1015.777, 364.2093
1016.259, 359.9128
1016.741, 355.1064
1017.223, 349.6654
1017.705, 343.7008
1018.188, 338.3160
1018.670, 334.0932
1019.152, 330.5356
1019.634, 327.0559
1020.116, 323.6257
1020.598, 319.9104
1021.080, 315.9496
1021.562, 312.4645
1022.044, 309.5823
1022.527, 307.1252
1023.009, 305.0439
1023.491, 303.0417
1023.973, 300.5042
1024.455, 297.5113
1024.937, 295.5692
1025.419, 294.8192
1025.901, 293.9780
1026.384, 292.7566
1026.866, 291.6322
1027.348, 290.8138
1027.830, 290.3009
1028.312, 290.2157
1028.794, 290.5974
1029.276, 291.0573
1029.758, 291.6404
1030.240, 292.2841
1030.723, 293.1504
1031.205, 293.5244
1031.687, 292.8284
1032.169, 291.4301
1032.651, 290.0770
1033.133, 288.7929
1033.615, 287.3227
1034.097, 285.5966
1034.579, 283.9286
1035.062, 283.1497
1035.544, 281.2016
1036.026, 276.3226
1036.508, 269.6867
1036.990, 263.7234
1037.472, 258.6641
1037.954, 252.7710
1038.436, 245.8624
1038.919, 238.3686
1039.401, 230.1159
1039.883, 221.7141
1040.365, 213.4752
1040.847, 205.3098
1041.329, 197.0847
1041.811, 188.6691
1042.293, 180.8764
1042.776, 174.1417
1043.258, 167.3367
1043.740, 160.1711
1044.222, 153.0395
1044.704, 145.8267
1045.186, 138.7901
1045.668, 132.6238
1046.150, 127.5215
1046.632, 122.3873
1047.115, 117.0284
1047.597, 111.7926
1048.079, 106.5074
1048.561, 101.5257
1049.043, 97.33086
1049.525, 93.56801
1050.007, 89.35934
1050.489, 84.54790
1050.971, 80.38992
1051.454, 77.80609
1051.936, 75.00174
1052.418, 70.77428
1052.900, 66.78909
1053.382, 64.50139
1053.864, 63.22777
1054.346, 61.67456
1054.828, 59.64781
1055.311, 57.54810
1055.793, 55.53949
1056.275, 53.44182
1056.757, 51.06165
1057.239, 48.62654
1057.721, 46.14851
1058.203, 43.79576
1058.685, 41.89909
1059.167, 40.49315
1059.650, 38.93803
1060.132, 36.65320
1060.614, 34.68832
1061.096, 33.88469
1061.578, 33.11345
1062.060, 31.25272
1062.542, 28.92140
1063.024, 27.26367
1063.506, 26.42287
1063.989, 25.61522
1064.471, 24.51450
1064.953, 23.43925
1065.435, 22.59041
1065.917, 21.74872
1066.399, 20.90277
1066.881, 19.92368
1067.363, 18.25221
1067.846, 16.00294
1068.328, 14.36682
1068.810, 14.14577
1069.292, 13.98790
1069.774, 13.38438
1070.256, 12.53981
1070.738, 11.49863
1071.220, 10.35229
1071.703, 9.028183
1072.185, 7.636337
1072.667, 6.697952
1073.149, 6.554764
1073.631, 6.545044
1074.113, 6.448486
1074.595, 6.282852
1075.077, 6.037201
1075.559, 5.742538
1076.042, 5.458359
1076.524, 5.170944
1077.006, 4.746155
1077.488, 4.033707
1077.970, 3.513687
1078.452, 3.705887
1078.934, 3.844421
1079.416, 3.166595
1079.898, 2.311539
1080.380, 2.185806
1080.863, 2.626801
1081.345, 2.725922
1081.827, 2.120071
1082.309, 1.609650
1082.791, 1.693436
1083.273, 1.813980
1083.755, 1.611603
1084.237, 1.283844
1084.720, 1.041656
1085.202, 0.8739780
1085.684, 0.6850280
1086.166, 0.4503780
1086.648, 0.1863250
1087.130, 0.3119350
1087.612, 0.5754240
1088.094, 6.1278999E-02
1088.577, 0.5361480
1089.059, 0.4842830
1089.541, 2.4383999E-02
1090.023, 0.2672730
1090.505, 0.2727510
1090.987, 8.3251998E-02
1091.469, 0.5691830
1091.951, 1.003510
1092.433, 0.8711400
1092.916, 0.4762420
1093.398, 7.1762003E-02
1093.880, 0.6574710
1094.362, 1.177017
1094.844, 1.594696
1095.326, 1.743073
1095.808, 1.249908
1096.290, 0.9416200
1096.772, 1.391357
1097.255, 1.787506
1097.737, 1.475723
1098.219, 0.8948820
1098.701, 0.7509920
1099.183, 0.9922330
1099.665, 0.7950900
1100.147, 0.5593410
1100.629, 1.232239
1101.112, 0.1073910
1101.594, 1.211884
1102.076, 0.5897980
1102.558, 0.5275270
1103.040, 0.8739470
1103.522, 0.5032810
1104.004, 4.9254999E-02
1104.486, 0.9223330
1104.969, 1.282974
1105.451, 0.6336670
1105.933, 9.6511997E-02
1106.415, 0.8210450
1106.897, 1.294647
1107.379, 1.130524
1107.861, 0.6099240
1108.343, 0.4343410
1108.825, 0.7194820
1109.307, 0.9750820
1109.790, 1.152313
1110.272, 1.291519
1110.754, 1.454132
1111.236, 1.530807
1111.718, 1.489456
1112.200, 1.303177
1112.682, 0.7804410
1113.164, 0.1205290
1113.647, 0.3840180
1114.129, 0.5617370
1114.611, 1.194824
1115.093, 1.180496
1115.575, 1.161346
1116.057, 1.435135
1116.539, 1.828171
1117.021, 2.236298
1117.504, 2.596466
1117.986, 2.427963
1118.468, 1.227524
1118.950, 0.7548680
1119.432, 1.474640
1119.914, 2.003922
1120.396, 1.854584
1120.878, 1.448517
1121.360, 1.015869
1121.843, 0.6985020
1122.325, 1.047333
1122.807, 2.356842
1123.289, 2.382858
1123.771, 0.5191500
1124.253, 0.5018310
1124.735, 0.1138610
1125.217, 1.080582
1125.699, 1.701477
1126.182, 1.901047
1126.664, 1.411728
1127.146, 0.3120420
1127.628, 0.1189270
1128.110, 0.9326480
1128.592, 1.894150
1129.074, 2.990494
1129.556, 3.363327
1130.039, 2.501602
1130.521, 1.461945
1131.003, 1.511276
1131.485, 2.262695
1131.967, 2.192856
1132.449, 1.386993
1132.931, 1.577454
1133.413, 2.826187
1133.896, 3.459824
1134.378, 2.968689
1134.860, 2.509552
1135.342, 3.026443
1135.824, 3.852173
1136.306, 3.646378
1136.788, 2.727051
1137.270, 2.204132
1137.752, 2.086884
1138.234, 2.409195
1138.717, 3.115921
1139.199, 3.888428
1139.681, 4.559784
1140.163, 4.896957
1140.645, 4.495255
1141.127, 3.730621
1141.609, 3.180527
1142.091, 2.848450
1142.574, 2.774292
1143.056, 2.925323
1143.538, 3.326172
1144.020, 3.912262
1144.502, 4.117920
1144.984, 3.328232
1145.466, 2.447571
1145.948, 2.572784
1146.431, 3.091934
1146.913, 3.396149
1147.395, 3.453659
1147.877, 3.168533
1148.359, 2.672226
1148.841, 2.494965
1149.323, 2.936356
1149.805, 3.169083
1150.287, 2.228516
1150.770, 1.395782
1151.252, 1.757462
1151.734, 2.543106
1152.216, 3.216003
1152.698, 3.545349
1153.180, 3.101456
1153.662, 1.838455
1154.144, 0.8875120
1154.626, 0.5358580
1155.109, 0.5783230
1155.591, 1.511688
1156.073, 2.308533
1156.555, 2.000473
1157.037, 1.310745
1157.519, 1.384018
1158.001, 2.173416
1158.483, 2.495056
1158.966, 2.036179
1159.448, 1.463196
1159.930, 0.7117310
1160.412, 0.2509000
1160.894, 0.2413330
1161.376, 0.4405060
1161.858, 0.6264650
1162.340, 0.8278500
1162.822, 1.293823
1163.305, 2.194336
1163.787, 2.663055
1164.269, 2.446289
1164.751, 2.173920
1165.233, 1.950378
1165.715, 1.654175
1166.197, 1.122467
1166.679, 0.7316590
1167.161, 0.9925380
1167.644, 1.707474
1168.126, 2.020889
1168.608, 1.916306
1169.090, 1.854553
1169.572, 1.841675
1170.054, 2.504669
1170.536, 4.032364
1171.018, 5.446609
1171.500, 6.135422
1171.983, 6.158737
1172.465, 5.279434
1172.947, 3.776917
1173.429, 2.312256
1173.911, 1.059036
1174.393, 0.9817810
1174.875, 1.922272
1175.357, 2.445190
1175.840, 2.043747
1176.322, 1.583511
1176.804, 1.823288
1177.286, 2.285492
1177.768, 2.349731
1178.250, 2.262711
1178.732, 2.438828
1179.214, 2.726715
1179.697, 2.738480
1180.179, 2.488739
1180.661, 2.360535
1181.143, 2.546448
1181.625, 2.529388
1182.107, 1.621735
1182.589, 0.8655090
1183.071, 0.9178010
1183.553, 1.343430
1184.036, 1.922974
1184.518, 2.466370
1185.000, 2.740417
1185.482, 2.715485
1185.964, 2.418427
1186.446, 1.459564
1186.928, 0.8159790
1187.410, 0.7330170
1187.892, 0.8909760
1188.375, 1.272827
1188.857, 1.723770
1189.339, 2.048065
1189.821, 2.366028
1190.303, 3.166321
1190.785, 4.772141
1191.267, 4.872391
1191.749, 2.755707
1192.232, 1.058960
1192.714, 7.1792997E-02
1193.196, 1.6295999E-02
1193.678, 1.035812
1194.160, 2.657104
1194.642, 4.364594
1195.124, 5.794403
1195.606, 5.110168
1196.089, 2.428802
1196.571, 0.9568180
1197.053, 0.8018190
1197.535, 0.9972530
1198.017, 1.275818
1198.499, 1.392624
1198.981, 1.178070
1199.463, 0.9982600
1199.945, 1.568451
1200.427, 2.342133
1200.910, 2.060287
1201.392, 1.186996
1201.874, 0.6406860
1202.356, 0.4921720
1202.838, 0.6015320
1203.320, 0.9096980
1203.802, 1.404709
1204.284, 2.163879
1204.767, 2.684464
1205.249, 2.311691
1205.731, 1.824265
1206.213, 1.998550
1206.695, 2.341064
1207.177, 2.180359
1207.659, 1.649231
1208.141, 1.214462
1208.624, 0.9607540
1209.106, 0.9600680
1209.588, 1.553970
1210.070, 1.916672
1210.552, 1.655212
1211.034, 1.382324
1211.516, 1.500778
1211.998, 1.657486
1212.480, 1.445160
1212.963, 0.9902950
1213.445, 0.7611390
1213.927, 0.7672270
1214.409, 0.9625400
1214.891, 1.462555
1215.373, 1.696228
1215.855, 1.570786
1216.337, 0.9928590
1216.819, 0.2174680
1217.302, 1.179413
1217.784, 0.6964420
1218.266, 0.6896510
1218.748, 1.415375
1219.230, 1.532120
1219.712, 1.141373
1220.194, 0.3531340
1220.676, 0.4983670
1221.159, 1.244644
1221.641, 1.372604
1222.123, 0.5873410
1222.605, 0.3081670
1223.087, 0.4063110
1223.569, 0.2873840
1224.051, 0.7738950
1224.533, 1.317398
1225.016, 1.058640
1225.498, 0.3670500
1225.980, 2.8839000E-02
1226.462, 0.1630710
1226.944, 0.4698640
1227.426, 0.9276280
1227.908, 1.340790
1228.390, 1.672562
1228.872, 1.792007
1229.354, 1.500473
1229.837, 1.099121
1230.319, 0.5873110
1230.801, 0.2894440
1231.283, 1.021332
1231.765, 2.726151
1232.247, 3.261185
1232.729, 2.075867
1233.211, 1.427765
1233.694, 1.548325
1234.176, 1.740753
1234.658, 1.875061
1235.140, 1.765656
1235.622, 1.214951
1236.104, 0.5335080
1236.586, 0.2722930
1237.068, 0.3910830
1237.551, 0.7885590
1238.033, 1.357498
1238.515, 1.537003
1238.997, 1.350403
1239.479, 1.434799
1239.961, 1.953384
1240.443, 2.297684
1240.925, 2.053421
1241.407, 1.713501
1241.890, 1.876236
1242.372, 2.063751
1242.854, 1.680038
1243.336, 1.163589
1243.818, 1.184311
1244.300, 1.502960
1244.782, 1.349777
1245.264, 0.6572420
1245.746, 0.4113770
1246.229, 1.237778
1246.711, 1.866837
1247.193, 1.966034
1247.675, 2.027649
1248.157, 2.218872
1248.639, 2.395187
1249.121, 2.472458
1249.603, 2.426590
1250.085, 2.191803
1250.568, 1.792023
1251.050, 1.633713
1251.532, 1.577637
1252.014, 2.048828
1252.496, 2.827499
1252.978, 3.132523
1253.460, 2.598236
1253.942, 2.276413
1254.425, 2.401428
1254.907, 2.588150
1255.389, 2.253906
1255.871, 1.697739
1256.353, 1.700333
1256.835, 1.920868
1257.317, 1.655762
1257.799, 1.059158
1258.281, 0.6833950
1258.764, 0.6853330
1259.246, 0.8538970
1259.728, 1.249008
1260.210, 1.360107
1260.692, 0.4367370
1261.174, 0.2197110
1261.656, 0.3494260
1262.138, 1.168488
1262.620, 1.491531
1263.103, 1.581467
1263.585, 1.940552
1264.067, 2.514282
1264.549, 2.687836
1265.031, 2.376617
1265.513, 1.948517
1265.995, 1.397476
1266.477, 1.209045
1266.960, 1.520386
1267.442, 2.066666
1267.924, 2.727158
1268.406, 3.264023
1268.888, 3.443497
1269.370, 3.242737
1269.852, 2.331543
1270.334, 1.147354
1270.817, 0.9455720
1271.299, 1.430908
1271.781, 1.426514
1272.263, 1.046112
1272.745, 1.795197
1273.227, 4.098907
1273.709, 5.722244
1274.191, 4.536301
1274.673, 3.024170
1275.156, 2.276901
1275.638, 1.807709
1276.120, 1.078217
1276.602, 0.6009520
1277.084, 1.448395
1277.566, 2.977112
1278.048, 2.942352
1278.530, 1.071838
1279.012, 0.1966090
1279.495, 0.6741180
1279.977, 0.8418730
1280.459, 0.4674840
1280.941, 0.1052250
1281.423, 7.0145003E-02
1281.905, 0.1037750
1282.387, 0.8029480
1282.869, 1.581665
1283.352, 1.199951
1283.834, 0.4473420
1284.316, 1.0483000E-02
1284.798, 0.0000000E+00
##END=



