##NAMES=Epididymite
##RRUFFID=R060773
##IDEAL CHEMISTRY=Na_2_Be_2_Si_6_O_15_&#183;H_2_O
##LOCALITY=unknown
##OWNER=RRUFF
##SOURCE=Michael Scott
##DESCRIPTION=Colorless platy crystals forming a pseudohexagonal aggregate
##STATUS=The identification of this mineral has been confirmed by single-crystal X-ray diffraction.
##URL=rruff.info/R060773
155.7580, 5146.216
156.2401, 5135.189
156.7222, 5134.950
157.2043, 5146.663
157.6864, 5162.527
158.1686, 5168.817
158.6507, 5162.482
159.1328, 5177.679
159.6149, 5250.829
160.0970, 5336.162
160.5791, 5395.933
161.0613, 5420.845
161.5434, 5433.207
162.0255, 5455.892
162.5076, 5488.107
162.9897, 5533.657
163.4718, 5609.005
163.9540, 5689.939
164.4361, 5760.575
164.9182, 5816.389
165.4003, 5861.731
165.8824, 5898.705
166.3645, 5922.124
166.8467, 5955.278
167.3288, 6032.958
167.8109, 6106.255
168.2930, 6129.453
168.7751, 6086.869
169.2572, 6020.712
169.7394, 6000.595
170.2215, 6047.097
170.7036, 6081.875
171.1857, 6085.524
171.6678, 6074.378
172.1499, 6058.485
172.6321, 6040.936
173.1142, 6023.339
173.5963, 6008.528
174.0784, 5997.453
174.5605, 5987.071
175.0426, 5975.200
175.5248, 5964.563
176.0069, 5956.705
176.4890, 5952.057
176.9711, 5951.870
177.4532, 5959.975
177.9353, 5983.130
178.4175, 5999.617
178.8996, 6000.576
179.3817, 5997.819
179.8638, 6000.756
180.3459, 6012.535
180.8280, 6029.905
181.3102, 6046.683
181.7923, 6061.101
182.2744, 6078.508
182.7565, 6100.104
183.2386, 6123.825
183.7207, 6149.253
184.2029, 6176.041
184.6850, 6201.607
185.1671, 6221.149
185.6492, 6233.175
186.1313, 6241.143
186.6134, 6236.976
187.0956, 6234.318
187.5777, 6244.149
188.0598, 6270.024
188.5419, 6307.289
189.0240, 6350.251
189.5061, 6410.189
189.9883, 6452.371
190.4704, 6469.769
190.9525, 6475.291
191.4346, 6475.833
191.9167, 6474.355
192.3988, 6474.832
192.8810, 6484.010
193.3631, 6503.828
193.8452, 6529.978
194.3273, 6567.455
194.8094, 6606.893
195.2915, 6643.001
195.7737, 6673.869
196.2558, 6698.650
196.7379, 6716.135
197.2200, 6726.831
197.7021, 6728.015
198.1842, 6713.017
198.6664, 6694.886
199.1485, 6684.176
199.6306, 6682.609
200.1127, 6682.790
200.5948, 6673.457
201.0770, 6649.741
201.5591, 6626.545
202.0412, 6600.613
202.5233, 6577.410
203.0054, 6563.439
203.4875, 6558.362
203.9697, 6553.887
204.4518, 6537.780
204.9339, 6502.101
205.4160, 6475.021
205.8981, 6463.086
206.3802, 6453.016
206.8624, 6432.313
207.3445, 6402.151
207.8266, 6377.733
208.3087, 6380.122
208.7908, 6422.989
209.2729, 6446.659
209.7551, 6447.679
210.2372, 6435.294
210.7193, 6402.441
211.2014, 6356.071
211.6835, 6319.188
212.1656, 6319.023
212.6478, 6365.965
213.1299, 6400.623
213.6120, 6417.824
214.0941, 6428.770
214.5762, 6436.731
215.0583, 6442.609
215.5405, 6446.533
216.0226, 6447.609
216.5047, 6444.815
216.9868, 6449.325
217.4689, 6474.924
217.9510, 6494.919
218.4332, 6491.288
218.9153, 6472.648
219.3974, 6462.524
219.8795, 6481.930
220.3616, 6531.574
220.8437, 6570.324
221.3259, 6591.592
221.8080, 6607.588
222.2901, 6619.063
222.7722, 6627.609
223.2543, 6635.122
223.7364, 6642.799
224.2186, 6650.671
224.7007, 6659.066
225.1828, 6665.144
225.6649, 6675.042
226.1470, 6689.263
226.6291, 6708.185
227.1113, 6732.789
227.5934, 6764.280
228.0755, 6800.979
228.5576, 6835.523
229.0397, 6861.388
229.5218, 6894.071
230.0040, 6936.623
230.4861, 6986.884
230.9682, 7044.608
231.4503, 7110.380
231.9324, 7178.919
232.4145, 7233.170
232.8967, 7255.146
233.3788, 7293.584
233.8609, 7362.225
234.3430, 7445.847
234.8251, 7533.610
235.3072, 7621.734
235.7894, 7704.684
236.2715, 7770.285
236.7536, 7808.099
237.2357, 7852.562
237.7178, 7914.864
238.1999, 7981.129
238.6821, 8045.720
239.1642, 8106.327
239.6463, 8154.731
240.1284, 8180.732
240.6105, 8184.043
241.0926, 8164.638
241.5748, 8102.258
242.0569, 8032.083
242.5390, 7978.536
243.0211, 7942.992
243.5032, 7903.452
243.9853, 7827.883
244.4675, 7709.073
244.9496, 7617.119
245.4317, 7582.321
245.9138, 7556.540
246.3959, 7514.059
246.8780, 7457.183
247.3602, 7405.993
247.8423, 7378.825
248.3244, 7375.038
248.8065, 7374.903
249.2886, 7392.071
249.7707, 7394.799
250.2529, 7350.316
250.7350, 7277.247
251.2171, 7226.655
251.6992, 7245.216
252.1813, 7313.214
252.6634, 7346.789
253.1456, 7329.481
253.6277, 7305.082
254.1098, 7294.645
254.5919, 7293.104
255.0740, 7291.448
255.5561, 7281.648
256.0382, 7272.042
256.5204, 7282.663
257.0025, 7320.467
257.4846, 7355.809
257.9667, 7373.051
258.4488, 7379.795
258.9309, 7383.782
259.4131, 7387.195
259.8952, 7388.499
260.3773, 7384.739
260.8594, 7375.545
261.3415, 7367.463
261.8236, 7365.475
262.3058, 7364.639
262.7879, 7358.199
263.2700, 7343.761
263.7521, 7329.046
264.2342, 7321.659
264.7163, 7320.268
265.1985, 7315.096
265.6806, 7301.040
266.1627, 7284.434
266.6448, 7277.472
267.1269, 7283.231
267.6090, 7277.150
268.0912, 7239.249
268.5733, 7181.175
269.0554, 7131.337
269.5375, 7098.369
270.0196, 7068.586
270.5017, 7021.236
270.9839, 6957.978
271.4660, 6903.250
271.9481, 6866.687
272.4302, 6840.926
272.9123, 6816.874
273.3944, 6793.443
273.8766, 6772.114
274.3587, 6753.013
274.8408, 6736.697
275.3229, 6729.080
275.8050, 6740.382
276.2871, 6752.925
276.7693, 6749.478
277.2514, 6732.232
277.7335, 6720.311
278.2156, 6727.394
278.6977, 6751.464
279.1798, 6772.447
279.6620, 6791.247
280.1441, 6806.568
280.6262, 6819.234
281.1083, 6827.979
281.5904, 6829.878
282.0725, 6823.194
282.5547, 6809.468
283.0368, 6793.443
283.5189, 6764.720
284.0010, 6746.851
284.4831, 6750.487
284.9652, 6763.296
285.4474, 6773.297
285.9295, 6776.254
286.4116, 6770.912
286.8937, 6754.407
287.3758, 6718.995
287.8579, 6687.194
288.3401, 6651.235
288.8222, 6624.283
289.3043, 6624.897
289.7864, 6649.797
290.2685, 6671.332
290.7506, 6655.226
291.2328, 6588.455
291.7149, 6557.050
292.1970, 6594.020
292.6791, 6631.999
293.1612, 6643.426
293.6433, 6633.770
294.1255, 6622.631
294.6076, 6624.763
295.0897, 6637.986
295.5718, 6642.591
296.0539, 6630.227
296.5360, 6619.284
297.0182, 6604.316
297.5003, 6595.901
297.9824, 6613.265
298.4645, 6668.855
298.9466, 6737.918
299.4287, 6760.305
299.9109, 6710.703
300.3930, 6680.525
300.8751, 6711.801
301.3572, 6756.633
301.8393, 6775.546
302.3214, 6759.709
302.8036, 6735.760
303.2857, 6733.421
303.7678, 6753.577
304.2499, 6769.566
304.7320, 6771.133
305.2141, 6774.004
305.6963, 6794.932
306.1784, 6830.872
306.6605, 6857.412
307.1426, 6849.316
307.6247, 6820.152
308.1068, 6813.540
308.5890, 6840.947
309.0711, 6869.097
309.5532, 6867.071
310.0353, 6846.303
310.5174, 6832.504
310.9995, 6843.641
311.4817, 6858.254
311.9638, 6848.700
312.4459, 6815.525
312.9280, 6784.476
313.4101, 6767.006
313.8922, 6763.523
314.3744, 6771.369
314.8565, 6800.607
315.3386, 6826.382
315.8207, 6832.521
316.3028, 6826.250
316.7849, 6825.867
317.2671, 6839.337
317.7492, 6856.922
318.2313, 6859.633
318.7134, 6840.007
319.1955, 6827.059
319.6776, 6829.495
320.1598, 6837.361
320.6419, 6837.769
321.1240, 6829.728
321.6061, 6826.002
322.0882, 6839.987
322.5703, 6873.927
323.0525, 6914.248
323.5346, 6979.230
324.0167, 7031.937
324.4988, 7046.208
324.9809, 7033.325
325.4630, 7022.499
325.9452, 7033.384
326.4273, 7061.966
326.9094, 7084.606
327.3915, 7098.001
327.8736, 7108.748
328.3557, 7109.490
328.8379, 7111.532
329.3200, 7132.725
329.8021, 7178.874
330.2842, 7228.821
330.7663, 7241.545
331.2484, 7197.189
331.7306, 7176.559
332.2127, 7214.978
332.6948, 7257.685
333.1769, 7270.949
333.6590, 7255.365
334.1411, 7238.507
334.6233, 7246.375
335.1054, 7276.172
335.5875, 7299.095
336.0696, 7312.037
336.5517, 7322.265
337.0338, 7329.100
337.5160, 7336.671
337.9981, 7354.248
338.4802, 7392.099
338.9623, 7436.397
339.4444, 7463.582
339.9265, 7471.887
340.4087, 7486.891
340.8908, 7522.696
341.3729, 7571.157
341.8550, 7618.361
342.3371, 7667.180
342.8192, 7706.455
343.3014, 7725.409
343.7835, 7730.318
344.2656, 7740.415
344.7477, 7763.996
345.2298, 7782.537
345.7119, 7770.987
346.1941, 7727.327
346.6762, 7667.775
347.1583, 7568.320
347.6404, 7470.794
348.1225, 7417.366
348.6046, 7405.840
349.0868, 7398.399
349.5689, 7363.584
350.0510, 7303.159
350.5331, 7269.302
351.0152, 7289.042
351.4973, 7300.802
351.9795, 7288.068
352.4616, 7256.521
352.9437, 7208.022
353.4258, 7143.132
353.9079, 7080.664
354.3900, 7066.099
354.8722, 7141.947
355.3543, 7184.558
355.8364, 7172.943
356.3185, 7143.825
356.8006, 7116.576
357.2827, 7095.670
357.7649, 7080.083
358.2470, 7066.471
358.7291, 7054.943
359.2112, 7061.368
359.6933, 7104.306
360.1754, 7140.623
360.6576, 7153.840
361.1397, 7148.252
361.6218, 7130.025
362.1039, 7095.435
362.5860, 7057.906
363.0681, 7040.864
363.5503, 7046.365
364.0324, 7051.944
364.5145, 7045.199
364.9966, 7037.591
365.4787, 7045.254
365.9608, 7072.090
366.4430, 7098.340
366.9251, 7114.398
367.4072, 7121.981
367.8893, 7119.284
368.3714, 7102.590
368.8535, 7094.478
369.3357, 7121.516
369.8178, 7186.010
370.2999, 7247.188
370.7820, 7301.876
371.2641, 7353.785
371.7462, 7404.346
372.2284, 7454.036
372.7105, 7503.981
373.1926, 7554.750
373.6747, 7606.427
374.1568, 7659.759
374.6389, 7718.687
375.1211, 7774.274
375.6032, 7823.640
376.0853, 7870.703
376.5674, 7922.999
377.0495, 7980.850
377.5316, 8033.554
378.0138, 8065.490
378.4959, 8072.012
378.9780, 8081.015
379.4601, 8107.586
379.9422, 8122.086
380.4243, 8115.563
380.9065, 8088.168
381.3886, 8040.482
381.8707, 7967.715
382.3528, 7880.574
382.8349, 7808.152
383.3170, 7755.937
383.7992, 7699.436
384.2813, 7615.646
384.7634, 7530.947
385.2455, 7474.563
385.7276, 7454.158
386.2097, 7437.771
386.6919, 7404.324
387.1740, 7357.100
387.6561, 7304.256
388.1382, 7244.599
388.6203, 7188.097
389.1024, 7146.292
389.5846, 7118.482
390.0667, 7093.036
390.5488, 7070.440
391.0309, 7048.294
391.5130, 7021.310
391.9951, 6992.420
392.4773, 6971.059
392.9594, 6962.082
393.4415, 6965.019
393.9236, 6978.900
394.4057, 7018.467
394.8878, 7050.074
395.3700, 7061.033
395.8521, 7069.864
396.3342, 7093.420
396.8163, 7134.494
397.2984, 7184.267
397.7805, 7230.961
398.2627, 7272.083
398.7448, 7335.751
399.2269, 7444.699
399.7090, 7553.520
400.1911, 7646.329
400.6732, 7730.053
401.1554, 7818.408
401.6375, 7919.563
402.1196, 8023.388
402.6017, 8106.852
403.0838, 8165.860
403.5659, 8239.332
404.0481, 8341.246
404.5302, 8460.732
405.0123, 8601.311
405.4944, 8764.029
405.9765, 8886.050
406.4586, 8929.399
406.9408, 8915.602
407.4229, 8883.026
407.9050, 8836.363
408.3871, 8752.605
408.8692, 8609.235
409.3513, 8410.627
409.8335, 8205.292
410.3156, 7974.243
410.7977, 7758.647
411.2798, 7565.417
411.7619, 7399.978
412.2440, 7274.008
412.7262, 7190.958
413.2083, 7133.885
413.6904, 7075.436
414.1725, 7008.312
414.6546, 6959.237
415.1367, 6932.159
415.6189, 6915.633
416.1010, 6909.607
416.5831, 6909.285
417.0652, 6904.128
417.5473, 6885.030
418.0294, 6858.733
418.5116, 6852.460
418.9937, 6880.880
419.4758, 6891.865
419.9579, 6848.890
420.4400, 6793.783
420.9221, 6764.137
421.4043, 6766.702
421.8864, 6771.531
422.3685, 6751.480
422.8506, 6716.618
423.3327, 6699.241
423.8148, 6707.259
424.2970, 6716.763
424.7791, 6701.724
425.2612, 6669.146
425.7433, 6661.875
426.2254, 6716.300
426.7076, 6763.250
427.1897, 6754.968
427.6718, 6712.060
428.1539, 6681.313
428.6360, 6681.287
429.1181, 6694.480
429.6003, 6688.026
430.0824, 6641.169
430.5645, 6622.628
431.0466, 6660.121
431.5287, 6698.199
432.0108, 6697.465
432.4930, 6667.710
432.9751, 6645.818
433.4572, 6659.302
433.9393, 6697.752
434.4214, 6722.703
434.9035, 6731.077
435.3857, 6732.889
435.8678, 6724.901
436.3499, 6715.271
436.8320, 6711.977
437.3141, 6716.384
437.7962, 6719.917
438.2784, 6713.042
438.7605, 6700.456
439.2426, 6697.694
439.7247, 6708.426
440.2068, 6719.250
440.6889, 6722.723
441.1711, 6717.540
441.6532, 6701.241
442.1353, 6650.130
442.6174, 6612.696
443.0995, 6622.070
443.5816, 6658.324
444.0638, 6685.073
444.5459, 6690.034
445.0280, 6686.262
445.5101, 6694.159
445.9922, 6722.018
446.4743, 6733.509
446.9565, 6721.423
447.4386, 6702.438
447.9207, 6677.714
448.4028, 6652.379
448.8849, 6634.885
449.3670, 6630.307
449.8492, 6635.200
450.3313, 6643.582
450.8134, 6657.288
451.2955, 6666.858
451.7776, 6669.729
452.2597, 6667.914
452.7419, 6659.452
453.2240, 6645.329
453.7061, 6638.566
454.1882, 6650.595
454.6703, 6671.974
455.1524, 6688.030
455.6346, 6698.083
456.1167, 6708.693
456.5988, 6725.243
457.0809, 6744.419
457.5630, 6753.301
458.0451, 6740.251
458.5273, 6735.877
459.0093, 6758.840
459.4915, 6786.154
459.9736, 6788.662
460.4557, 6764.667
460.9378, 6739.387
461.4199, 6737.462
461.9020, 6758.837
462.3842, 6785.208
462.8663, 6822.778
463.3484, 6857.272
463.8305, 6880.416
464.3126, 6900.696
464.7947, 6929.428
465.2769, 6970.337
465.7590, 7013.810
466.2411, 7047.953
466.7232, 7074.518
467.2053, 7107.638
467.6874, 7150.153
468.1696, 7198.007
468.6517, 7249.168
469.1338, 7303.256
469.6159, 7359.165
470.0980, 7408.032
470.5801, 7467.052
471.0623, 7556.930
471.5444, 7664.032
472.0265, 7758.129
472.5086, 7827.711
472.9907, 7884.818
473.4728, 7947.571
473.9550, 8023.846
474.4371, 8080.542
474.9192, 8141.324
475.4013, 8162.682
475.8834, 8114.999
476.3655, 8013.837
476.8477, 7886.154
477.3298, 7741.974
477.8119, 7595.955
478.2940, 7479.523
478.7761, 7396.474
479.2582, 7318.503
479.7404, 7234.166
480.2225, 7160.245
480.7046, 7111.115
481.1867, 7084.950
481.6688, 7068.548
482.1509, 7065.265
482.6331, 7063.887
483.1152, 7049.056
483.5973, 7023.349
484.0794, 7004.726
484.5615, 7003.900
485.0436, 7010.284
485.5258, 7000.921
486.0079, 6969.784
486.4900, 6932.214
486.9721, 6876.264
487.4542, 6823.559
487.9363, 6789.823
488.4185, 6772.916
488.9006, 6760.214
489.3827, 6742.369
489.8648, 6724.084
490.3469, 6723.706
490.8290, 6750.756
491.3112, 6768.708
491.7933, 6758.787
492.2754, 6743.156
492.7575, 6738.840
493.2396, 6746.236
493.7217, 6752.297
494.2039, 6748.054
494.6860, 6739.352
495.1681, 6734.787
495.6502, 6734.622
496.1323, 6735.264
496.6144, 6733.893
497.0966, 6733.062
497.5787, 6740.298
498.0608, 6760.143
498.5429, 6779.471
499.0250, 6798.552
499.5071, 6815.614
499.9893, 6829.303
500.4714, 6839.494
500.9535, 6844.863
501.4356, 6841.803
501.9177, 6836.168
502.3998, 6856.592
502.8820, 6917.830
503.3641, 6969.883
503.8462, 6987.025
504.3283, 6999.383
504.8104, 7026.945
505.2925, 7072.029
505.7747, 7131.909
506.2568, 7208.795
506.7389, 7298.378
507.2210, 7391.631
507.7031, 7488.469
508.1852, 7604.448
508.6674, 7749.521
509.1495, 7917.133
509.6316, 8086.517
510.1137, 8246.157
510.5958, 8429.437
511.0779, 8627.404
511.5601, 8859.031
512.0422, 9149.280
512.5243, 9489.462
513.0064, 9844.826
513.4885, 10191.19
513.9706, 10532.70
514.4528, 10884.90
514.9349, 11250.22
515.4170, 11620.19
515.8991, 12000.65
516.3812, 12376.54
516.8633, 12759.59
517.3455, 13141.98
517.8276, 13450.34
518.3097, 13662.51
518.7918, 13771.36
519.2739, 13774.23
519.7560, 13667.95
520.2382, 13418.65
520.7203, 12995.89
521.2024, 12449.39
521.6845, 11880.31
522.1666, 11248.12
522.6487, 10674.41
523.1309, 10160.42
523.6130, 9701.920
524.0951, 9296.455
524.5772, 8940.308
525.0593, 8625.736
525.5414, 8349.839
526.0236, 8107.872
526.5057, 7885.780
526.9878, 7679.471
527.4699, 7520.541
527.9520, 7441.317
528.4341, 7386.530
528.9163, 7303.420
529.3984, 7197.318
529.8805, 7107.832
530.3626, 7058.142
530.8447, 7020.021
531.3268, 6971.327
531.8090, 6914.377
532.2911, 6855.539
532.7732, 6797.065
533.2553, 6742.129
533.7374, 6696.564
534.2195, 6664.458
534.7017, 6627.740
535.1838, 6564.986
535.6659, 6520.343
536.1480, 6523.893
536.6301, 6553.886
537.1122, 6574.061
537.5944, 6569.323
538.0765, 6553.404
538.5586, 6542.471
539.0407, 6535.845
539.5228, 6526.651
540.0049, 6511.886
540.4871, 6499.483
540.9692, 6498.291
541.4513, 6505.681
541.9334, 6506.863
542.4155, 6496.184
542.8976, 6485.078
543.3798, 6477.627
543.8619, 6472.666
544.3440, 6471.405
544.8261, 6472.809
545.3082, 6468.497
545.7903, 6448.240
546.2725, 6412.822
546.7546, 6384.234
547.2367, 6363.570
547.7188, 6348.412
548.2009, 6341.657
548.6830, 6337.515
549.1652, 6331.164
549.6473, 6321.854
550.1294, 6308.739
550.6115, 6280.439
551.0936, 6252.249
551.5757, 6255.094
552.0579, 6289.105
552.5400, 6326.308
553.0221, 6353.704
553.5042, 6370.191
553.9863, 6372.642
554.4684, 6345.555
554.9506, 6328.625
555.4327, 6327.429
555.9148, 6331.553
556.3969, 6338.385
556.8790, 6344.683
557.3611, 6343.990
557.8433, 6331.443
558.3254, 6313.169
558.8075, 6300.194
559.2896, 6292.589
559.7717, 6289.733
560.2538, 6293.340
560.7360, 6298.934
561.2181, 6306.282
561.7002, 6313.664
562.1823, 6308.532
562.6644, 6273.301
563.1465, 6241.128
563.6287, 6233.909
564.1108, 6241.454
564.5929, 6248.189
565.0750, 6248.967
565.5571, 6242.194
566.0392, 6222.251
566.5214, 6187.668
567.0035, 6178.511
567.4856, 6222.576
567.9677, 6249.813
568.4498, 6223.653
568.9319, 6179.181
569.4141, 6152.014
569.8962, 6148.491
570.3783, 6163.056
570.8604, 6208.503
571.3425, 6263.078
571.8246, 6284.733
572.3068, 6273.609
572.7889, 6267.536
573.2710, 6288.885
573.7531, 6327.828
574.2352, 6358.677
574.7173, 6380.465
575.1995, 6394.862
575.6816, 6388.192
576.1637, 6387.232
576.6458, 6411.702
577.1279, 6454.546
577.6100, 6496.575
578.0922, 6527.734
578.5743, 6555.281
579.0564, 6590.959
579.5385, 6633.995
580.0206, 6676.575
580.5027, 6720.405
580.9849, 6754.312
581.4670, 6762.841
581.9491, 6748.376
582.4312, 6747.330
582.9133, 6776.149
583.3954, 6798.588
583.8776, 6808.021
584.3597, 6802.225
584.8418, 6776.149
585.3239, 6730.825
585.8060, 6675.087
586.2881, 6615.300
586.7703, 6552.188
587.2524, 6488.126
587.7345, 6418.749
588.2166, 6363.381
588.6987, 6333.747
589.1808, 6316.538
589.6630, 6298.369
590.1451, 6279.084
590.6272, 6258.254
591.1093, 6234.556
591.5914, 6210.198
592.0735, 6181.257
592.5557, 6153.432
593.0378, 6143.047
593.5199, 6156.372
594.0020, 6177.854
594.4841, 6184.030
594.9662, 6172.669
595.4484, 6160.447
595.9305, 6146.701
596.4126, 6132.850
596.8947, 6119.093
597.3768, 6105.637
597.8589, 6091.931
598.3411, 6077.274
598.8232, 6066.373
599.3053, 6065.924
599.7874, 6069.469
600.2695, 6067.021
600.7516, 6058.153
601.2338, 6046.380
601.7159, 6032.724
602.1980, 6019.967
602.6801, 6016.319
603.1622, 6032.184
603.6443, 6036.924
604.1265, 6016.632
604.6086, 5999.704
605.0907, 6006.093
605.5728, 6025.863
606.0549, 6034.976
606.5370, 6019.822
607.0192, 6004.398
607.5013, 6022.935
607.9834, 6062.013
608.4655, 6073.694
608.9476, 6048.737
609.4297, 6020.990
609.9119, 6016.743
610.3940, 6032.150
610.8761, 6043.729
611.3582, 6047.133
611.8403, 6052.444
612.3224, 6069.105
612.8046, 6080.826
613.2867, 6068.368
613.7688, 6038.431
614.2509, 6018.509
614.7330, 6029.827
615.2151, 6051.155
615.6973, 6044.949
616.1794, 6014.578
616.6615, 5990.244
617.1436, 5977.661
617.6257, 5979.088
618.1078, 6003.831
618.5900, 6051.019
619.0721, 6068.275
619.5542, 6031.621
620.0363, 5998.189
620.5184, 5979.382
621.0005, 5971.323
621.4827, 5975.125
621.9648, 5987.230
622.4469, 5993.135
622.9290, 5975.832
623.4111, 5949.537
623.8932, 5953.613
624.3754, 5989.256
624.8575, 6015.465
625.3396, 6017.271
625.8217, 6011.103
626.3038, 6016.298
626.7859, 6034.145
627.2681, 6046.367
627.7502, 6050.671
628.2323, 6051.725
628.7144, 6053.747
629.1965, 6052.289
629.6786, 6037.627
630.1608, 6010.272
630.6429, 5986.515
631.1250, 5982.637
631.6071, 5993.498
632.0892, 6002.296
632.5714, 6009.359
633.0535, 6010.872
633.5356, 6003.655
634.0177, 5992.742
634.4998, 5984.537
634.9819, 5979.230
635.4641, 5973.817
635.9462, 5954.695
636.4283, 5949.990
636.9104, 5998.070
637.3925, 6057.726
637.8746, 6062.188
638.3568, 5998.970
638.8389, 5925.308
639.3210, 5901.088
639.8031, 5915.148
640.2852, 5917.851
640.7673, 5908.329
641.2495, 5891.671
641.7316, 5864.440
642.2137, 5836.908
642.6958, 5826.813
643.1779, 5836.755
643.6600, 5840.093
644.1422, 5826.397
644.6243, 5814.602
645.1064, 5816.160
645.5885, 5824.738
646.0706, 5833.393
646.5527, 5839.133
647.0349, 5836.409
647.5170, 5812.005
647.9991, 5773.752
648.4812, 5761.488
648.9633, 5779.442
649.4454, 5790.608
649.9276, 5774.257
650.4097, 5752.077
650.8918, 5760.575
651.3739, 5807.373
651.8560, 5837.007
652.3381, 5837.509
652.8203, 5829.905
653.3024, 5820.739
653.7845, 5810.566
654.2666, 5797.425
654.7487, 5781.489
655.2308, 5768.863
655.7130, 5762.509
656.1951, 5764.313
656.6772, 5790.000
657.1593, 5842.817
657.6414, 5868.909
658.1235, 5838.559
658.6057, 5787.657
659.0878, 5768.501
659.5699, 5790.805
660.0520, 5796.425
660.5341, 5764.729
661.0162, 5740.377
661.4984, 5751.718
661.9805, 5773.933
662.4626, 5769.527
662.9447, 5733.842
663.4268, 5704.594
663.9089, 5727.748
664.3911, 5775.722
664.8732, 5778.002
665.3553, 5736.780
665.8374, 5703.487
666.3195, 5696.709
666.8016, 5702.991
667.2838, 5706.930
667.7659, 5709.205
668.2480, 5703.370
668.7301, 5678.864
669.2122, 5659.885
669.6943, 5651.953
670.1765, 5652.397
670.6586, 5661.381
671.1407, 5677.176
671.6228, 5690.459
672.1049, 5695.250
672.5870, 5693.967
673.0692, 5687.377
673.5513, 5677.173
674.0334, 5675.122
674.5155, 5685.925
674.9976, 5689.394
675.4797, 5657.109
675.9619, 5589.528
676.4440, 5568.260
676.9261, 5637.613
677.4082, 5687.988
677.8903, 5694.277
678.3724, 5681.305
678.8546, 5662.705
679.3367, 5642.233
679.8188, 5627.698
680.3009, 5621.488
680.7830, 5623.914
681.2651, 5645.140
681.7473, 5673.291
682.2294, 5678.360
682.7115, 5655.570
683.1936, 5631.060
683.6757, 5629.550
684.1578, 5644.274
684.6400, 5636.515
685.1221, 5592.485
685.6042, 5562.809
686.0863, 5566.380
686.5684, 5576.291
687.0505, 5571.830
687.5327, 5557.617
688.0148, 5550.048
688.4969, 5553.328
688.9790, 5562.905
689.4611, 5583.126
689.9432, 5604.689
690.4254, 5616.787
690.9075, 5618.499
691.3896, 5613.392
691.8717, 5603.353
692.3538, 5589.693
692.8359, 5572.940
693.3181, 5552.428
693.8002, 5541.008
694.2823, 5539.412
694.7644, 5550.044
695.2465, 5586.685
695.7286, 5634.827
696.2108, 5645.356
696.6929, 5593.273
697.1750, 5554.947
697.6571, 5547.802
698.1392, 5553.088
698.6213, 5561.709
699.1035, 5571.611
699.5856, 5584.982
700.0677, 5603.483
700.5498, 5612.359
701.0319, 5584.108
701.5140, 5532.853
701.9962, 5506.188
702.4783, 5507.380
702.9604, 5525.154
703.4425, 5561.655
703.9246, 5594.141
704.4067, 5574.546
704.8889, 5472.838
705.3710, 5425.127
705.8531, 5485.774
706.3352, 5536.405
706.8173, 5532.797
707.2994, 5504.359
707.7816, 5484.351
708.2637, 5478.885
708.7458, 5480.971
709.2279, 5489.650
709.7100, 5501.625
710.1921, 5516.153
710.6743, 5530.751
711.1564, 5539.835
711.6385, 5541.531
712.1206, 5533.765
712.6027, 5510.375
713.0848, 5474.790
713.5670, 5467.214
714.0491, 5501.700
714.5312, 5523.118
715.0133, 5511.196
715.4954, 5488.043
715.9775, 5471.288
716.4597, 5460.725
716.9418, 5455.463
717.4239, 5460.147
717.9060, 5464.160
718.3881, 5464.067
718.8702, 5460.941
719.3524, 5451.367
719.8345, 5439.063
720.3166, 5437.910
720.7987, 5458.650
721.2808, 5487.415
721.7629, 5504.573
722.2451, 5510.024
722.7272, 5498.657
723.2093, 5466.985
723.6914, 5440.671
724.1735, 5438.803
724.6556, 5452.461
725.1378, 5455.104
725.6199, 5438.048
726.1020, 5427.031
726.5841, 5428.701
727.0662, 5428.880
727.5483, 5413.335
728.0305, 5395.313
728.5126, 5401.343
728.9947, 5440.314
729.4768, 5468.143
729.9589, 5441.325
730.4410, 5400.953
730.9232, 5398.349
731.4053, 5425.520
731.8874, 5454.948
732.3695, 5476.070
732.8516, 5482.035
733.3337, 5459.816
733.8159, 5412.508
734.2980, 5380.874
734.7801, 5367.680
735.2622, 5359.531
735.7443, 5349.479
736.2264, 5346.506
736.7086, 5370.168
737.1907, 5417.643
737.6728, 5435.114
738.1549, 5391.188
738.6370, 5353.121
739.1191, 5343.542
739.6013, 5345.912
740.0834, 5341.957
740.5655, 5334.336
741.0476, 5342.631
741.5297, 5384.026
742.0118, 5427.301
742.4940, 5430.516
742.9761, 5404.988
743.4582, 5382.429
743.9403, 5366.844
744.4224, 5350.970
744.9045, 5329.901
745.3867, 5306.702
745.8688, 5285.894
746.3509, 5259.707
746.8330, 5263.952
747.3151, 5323.241
747.7972, 5378.036
748.2794, 5400.942
748.7615, 5405.557
749.2436, 5408.220
749.7257, 5410.639
750.2078, 5406.400
750.6899, 5380.787
751.1721, 5361.139
751.6542, 5371.242
752.1363, 5396.142
752.6184, 5413.227
753.1005, 5417.146
753.5826, 5415.223
754.0648, 5413.284
754.5469, 5409.856
755.0290, 5400.515
755.5111, 5385.987
755.9932, 5372.490
756.4753, 5361.258
756.9575, 5352.816
757.4396, 5348.328
757.9217, 5346.568
758.4038, 5340.385
758.8859, 5322.708
759.3680, 5314.532
759.8502, 5330.111
760.3323, 5342.681
760.8144, 5337.218
761.2965, 5320.230
761.7786, 5304.452
762.2607, 5292.386
762.7429, 5280.483
763.2250, 5260.731
763.7071, 5245.936
764.1892, 5252.917
764.6713, 5272.762
765.1534, 5287.612
765.6356, 5290.814
766.1177, 5282.107
766.5998, 5253.673
767.0819, 5214.765
767.5640, 5202.459
768.0461, 5215.978
768.5283, 5205.520
769.0104, 5147.746
769.4925, 5103.099
769.9746, 5143.908
770.4567, 5259.735
770.9388, 5306.852
771.4210, 5230.627
771.9031, 5179.164
772.3852, 5182.513
772.8673, 5201.060
773.3494, 5221.940
773.8315, 5238.746
774.3137, 5236.947
774.7958, 5207.094
775.2779, 5175.504
775.7600, 5150.849
776.2421, 5132.306
776.7242, 5113.228
777.2064, 5100.354
777.6885, 5116.136
778.1706, 5167.712
778.6527, 5218.679
779.1348, 5223.737
779.6169, 5195.911
780.0991, 5176.379
780.5812, 5165.115
781.0633, 5153.790
781.5454, 5138.613
782.0275, 5128.610
782.5096, 5134.211
782.9918, 5154.617
783.4739, 5178.799
783.9560, 5215.111
784.4381, 5238.618
784.9202, 5241.662
785.4023, 5234.036
785.8845, 5213.596
786.3666, 5187.716
786.8487, 5177.621
787.3308, 5197.233
787.8129, 5209.137
788.2950, 5193.466
788.7772, 5171.476
789.2593, 5158.892
789.7414, 5153.889
790.2235, 5150.386
790.7056, 5146.172
791.1877, 5140.682
791.6699, 5131.769
792.1520, 5121.878
792.6341, 5112.188
793.1162, 5105.015
793.5983, 5116.471
794.0804, 5151.717
794.5626, 5189.688
795.0447, 5209.538
795.5268, 5213.244
796.0089, 5212.782
796.4910, 5209.613
796.9731, 5197.215
797.4553, 5173.421
797.9374, 5141.553
798.4195, 5094.808
798.9016, 5042.845
799.3837, 5015.093
799.8658, 5020.743
800.3480, 5030.460
800.8301, 5048.965
801.3122, 5061.682
801.7943, 5054.186
802.2764, 5038.512
802.7585, 5034.282
803.2407, 5045.360
803.7228, 5056.302
804.2049, 5054.695
804.6870, 5050.225
805.1691, 5059.222
805.6512, 5072.318
806.1334, 5061.624
806.6155, 5026.009
807.0976, 5001.536
807.5797, 5019.414
808.0618, 5059.370
808.5439, 5069.332
809.0261, 5050.002
809.5082, 5043.685
809.9903, 5058.389
810.4724, 5069.632
810.9545, 5061.556
811.4366, 5043.653
811.9188, 5035.552
812.4009, 5038.329
812.8830, 5047.290
813.3651, 5077.139
813.8472, 5093.732
814.3293, 5074.779
814.8115, 5047.712
815.2936, 5042.207
815.7757, 5057.712
816.2578, 5068.030
816.7399, 5061.342
817.2220, 5054.157
817.7042, 5053.546
818.1863, 5056.399
818.6684, 5063.946
819.1505, 5071.951
819.6326, 5068.298
820.1147, 5045.993
820.5969, 5019.727
821.0790, 5004.748
821.5611, 4997.270
822.0432, 4988.085
822.5253, 4978.136
823.0074, 4976.464
823.4896, 4986.556
823.9717, 5002.279
824.4538, 5019.098
824.9359, 5034.616
825.4180, 5025.891
825.9001, 4986.684
826.3823, 4960.159
826.8644, 4958.146
827.3465, 4966.537
827.8286, 4978.230
828.3107, 4990.233
828.7928, 4988.856
829.2749, 4956.267
829.7570, 4940.282
830.2391, 4954.107
830.7213, 4969.291
831.2034, 4980.540
831.6855, 4982.198
832.1676, 4959.119
832.6497, 4907.676
833.1318, 4877.512
833.6140, 4904.766
834.0961, 4938.124
834.5782, 4945.917
835.0603, 4940.666
835.5424, 4940.919
836.0245, 4947.167
836.5067, 4946.060
836.9888, 4927.900
837.4709, 4904.813
837.9530, 4888.213
838.4351, 4878.878
838.9172, 4884.309
839.3994, 4901.352
839.8815, 4905.319
840.3636, 4884.233
840.8457, 4857.766
841.3278, 4853.561
841.8099, 4870.161
842.2921, 4891.204
842.7742, 4918.298
843.2563, 4939.915
843.7384, 4956.391
844.2205, 4956.131
844.7026, 4920.755
845.1848, 4859.534
845.6669, 4829.715
846.1490, 4851.152
846.6311, 4867.666
847.1132, 4880.018
847.5953, 4883.363
848.0775, 4862.072
848.5596, 4835.981
849.0417, 4841.789
849.5238, 4888.831
850.0059, 4916.226
850.4880, 4892.290
850.9702, 4864.680
851.4523, 4853.167
851.9344, 4852.667
852.4165, 4860.557
852.8986, 4873.207
853.3807, 4880.920
853.8629, 4877.722
854.3450, 4871.162
854.8271, 4868.063
855.3092, 4865.890
855.7913, 4860.503
856.2734, 4852.380
856.7556, 4843.212
857.2377, 4833.840
857.7198, 4828.440
858.2019, 4834.589
858.6840, 4847.830
859.1661, 4854.291
859.6483, 4853.854
860.1304, 4840.716
860.6125, 4811.799
861.0946, 4794.174
861.5767, 4813.264
862.0588, 4854.444
862.5410, 4869.158
863.0231, 4851.275
863.5052, 4836.057
863.9873, 4827.425
864.4694, 4815.951
864.9515, 4793.634
865.4337, 4769.627
865.9158, 4756.063
866.3979, 4752.229
866.8800, 4765.260
867.3621, 4824.394
867.8442, 4859.861
868.3264, 4842.432
868.8085, 4812.244
869.2906, 4795.803
869.7727, 4791.406
870.2548, 4790.237
870.7369, 4794.296
871.2191, 4790.697
871.7012, 4764.214
872.1833, 4739.085
872.6654, 4730.889
873.1475, 4736.178
873.6296, 4752.547
874.1118, 4776.830
874.5939, 4793.628
875.0760, 4791.617
875.5581, 4779.879
876.0402, 4761.867
876.5223, 4743.309
877.0045, 4733.503
877.4866, 4733.258
877.9687, 4741.761
878.4508, 4759.029
878.9329, 4775.102
879.4150, 4772.297
879.8972, 4757.957
880.3793, 4759.936
880.8614, 4776.572
881.3435, 4786.681
881.8256, 4784.018
882.3077, 4771.857
882.7899, 4750.000
883.2720, 4725.733
883.7541, 4733.486
884.2362, 4781.002
884.7183, 4788.214
885.2004, 4733.299
885.6826, 4688.866
886.1647, 4697.583
886.6468, 4730.216
887.1289, 4736.866
887.6110, 4712.618
888.0931, 4705.005
888.5753, 4729.171
889.0574, 4744.157
889.5395, 4739.741
890.0216, 4725.097
890.5037, 4698.124
890.9858, 4666.490
891.4680, 4657.148
891.9501, 4688.126
892.4322, 4704.460
892.9143, 4682.493
893.3964, 4662.306
893.8785, 4667.989
894.3607, 4683.979
894.8428, 4687.807
895.3249, 4678.408
895.8070, 4676.240
896.2891, 4696.436
896.7712, 4716.909
897.2534, 4732.552
897.7355, 4738.146
898.2176, 4721.313
898.6997, 4690.915
899.1818, 4670.137
899.6639, 4667.358
900.1461, 4664.860
900.6282, 4636.292
901.1103, 4609.787
901.5924, 4630.268
902.0745, 4677.118
902.5566, 4707.751
903.0388, 4713.541
903.5209, 4701.860
904.0030, 4674.463
904.4851, 4646.405
904.9672, 4647.745
905.4493, 4666.975
905.9315, 4663.569
906.4136, 4638.680
906.8957, 4620.314
907.3778, 4619.013
907.8599, 4625.618
908.3420, 4630.627
908.8242, 4635.025
909.3063, 4646.531
909.7884, 4665.539
910.2705, 4662.574
910.7526, 4628.821
911.2347, 4607.355
911.7169, 4627.151
912.1990, 4662.359
912.6811, 4663.147
913.1632, 4625.840
913.6453, 4605.250
914.1274, 4609.328
914.6096, 4604.529
915.0917, 4571.921
915.5738, 4547.726
916.0559, 4572.337
916.5380, 4628.025
917.0201, 4641.177
917.5023, 4584.065
917.9844, 4543.588
918.4665, 4517.826
918.9486, 4511.347
919.4307, 4544.271
919.9128, 4584.892
920.3950, 4595.091
920.8771, 4576.555
921.3592, 4568.340
921.8413, 4596.890
922.3234, 4602.818
922.8055, 4547.876
923.2877, 4495.773
923.7698, 4489.703
924.2519, 4511.862
924.7340, 4532.682
925.2161, 4548.160
925.6982, 4547.694
926.1804, 4511.402
926.6625, 4478.233
927.1446, 4460.539
927.6267, 4460.575
928.1088, 4495.806
928.5909, 4549.258
929.0731, 4570.478
929.5552, 4535.652
930.0373, 4502.920
930.5194, 4508.988
931.0015, 4531.484
931.4836, 4558.177
931.9658, 4583.493
932.4479, 4601.141
932.9300, 4609.874
933.4121, 4610.667
933.8942, 4601.715
934.3763, 4591.519
934.8585, 4587.786
935.3406, 4588.747
935.8227, 4597.333
936.3048, 4607.674
936.7869, 4602.085
937.2690, 4576.602
937.7512, 4548.440
938.2333, 4529.984
938.7154, 4520.431
939.1975, 4526.602
939.6796, 4538.846
940.1617, 4521.571
940.6439, 4478.856
941.1260, 4458.812
941.6081, 4483.875
942.0902, 4520.693
942.5723, 4526.200
943.0544, 4511.077
943.5366, 4513.404
944.0187, 4529.703
944.5008, 4532.845
944.9829, 4518.262
945.4650, 4504.311
945.9471, 4502.876
946.4293, 4508.220
946.9114, 4513.364
947.3935, 4517.396
947.8756, 4501.089
948.3577, 4463.026
948.8398, 4439.393
949.3220, 4440.541
949.8041, 4456.195
950.2862, 4481.742
950.7683, 4508.128
951.2504, 4502.802
951.7325, 4459.801
952.2147, 4445.693
952.6968, 4468.921
953.1789, 4492.040
953.6610, 4502.355
954.1431, 4505.302
954.6252, 4506.292
955.1074, 4505.155
955.5895, 4500.648
956.0716, 4492.260
956.5537, 4481.785
957.0358, 4466.752
957.5179, 4456.651
958.0001, 4459.153
958.4822, 4464.422
958.9643, 4459.397
959.4464, 4444.189
959.9285, 4421.878
960.4106, 4377.774
960.8928, 4361.219
961.3749, 4398.218
961.8570, 4432.076
962.3391, 4423.259
962.8212, 4397.016
963.3033, 4400.911
963.7855, 4441.528
964.2676, 4465.722
964.7497, 4473.331
965.2318, 4464.240
965.7139, 4413.421
966.1960, 4371.523
966.6782, 4382.107
967.1603, 4423.300
967.6424, 4444.710
968.1245, 4440.969
968.6066, 4435.908
969.0887, 4434.111
969.5709, 4425.829
970.0530, 4393.278
970.5351, 4366.982
971.0172, 4378.628
971.4993, 4415.902
971.9814, 4439.904
972.4636, 4443.930
972.9457, 4444.734
973.4278, 4446.345
973.9099, 4442.482
974.3920, 4420.368
974.8741, 4399.829
975.3563, 4405.811
975.8384, 4431.521
976.3205, 4442.939
976.8026, 4427.964
977.2847, 4413.912
977.7668, 4399.954
978.2490, 4395.476
978.7311, 4415.580
979.2132, 4440.437
979.6953, 4445.687
980.1774, 4432.529
980.6595, 4421.498
981.1417, 4416.812
981.6238, 4415.635
982.1059, 4427.539
982.5880, 4431.662
983.0701, 4404.378
983.5522, 4368.184
984.0344, 4354.845
984.5165, 4365.858
984.9986, 4377.229
985.4807, 4385.588
985.9628, 4387.453
986.4449, 4380.286
986.9271, 4367.560
987.4092, 4344.608
987.8913, 4321.214
988.3734, 4312.372
988.8555, 4319.630
989.3376, 4330.346
989.8198, 4350.336
990.3019, 4358.948
990.7840, 4344.104
991.2661, 4318.164
991.7482, 4280.341
992.2303, 4242.965
992.7125, 4228.144
993.1946, 4238.791
993.6767, 4249.166
994.1588, 4240.310
994.6409, 4239.912
995.1230, 4272.663
995.6052, 4308.867
996.0873, 4323.929
996.5694, 4321.791
997.0515, 4310.885
997.5336, 4293.463
998.0157, 4282.639
998.4979, 4280.366
998.9800, 4290.917
999.4621, 4327.839
999.9442, 4368.636
1000.426, 4396.813
1000.908, 4411.168
1001.391, 4411.285
1001.873, 4396.914
1002.355, 4383.250
1002.837, 4370.435
1003.319, 4368.057
1003.801, 4387.988
1004.283, 4415.164
1004.765, 4449.632
1005.247, 4475.814
1005.730, 4452.588
1006.212, 4367.060
1006.694, 4310.495
1007.176, 4346.965
1007.658, 4394.402
1008.140, 4417.415
1008.622, 4422.732
1009.104, 4406.428
1009.587, 4381.623
1010.069, 4379.361
1010.551, 4409.668
1011.033, 4424.149
1011.515, 4385.153
1011.997, 4345.873
1012.479, 4339.177
1012.961, 4341.292
1013.443, 4320.749
1013.926, 4291.450
1014.408, 4296.297
1014.890, 4349.135
1015.372, 4385.644
1015.854, 4374.464
1016.336, 4347.966
1016.818, 4303.696
1017.300, 4267.068
1017.783, 4267.170
1018.265, 4292.184
1018.747, 4314.674
1019.229, 4330.021
1019.711, 4328.552
1020.193, 4293.230
1020.675, 4257.755
1021.157, 4237.843
1021.639, 4223.553
1022.122, 4203.990
1022.604, 4183.374
1023.086, 4177.056
1023.568, 4191.242
1024.050, 4186.200
1024.532, 4116.860
1025.014, 4070.346
1025.496, 4097.936
1025.979, 4145.038
1026.461, 4171.687
1026.943, 4182.679
1027.425, 4196.721
1027.907, 4218.301
1028.389, 4225.566
1028.871, 4187.941
1029.353, 4170.406
1029.835, 4213.548
1030.318, 4263.812
1030.800, 4281.494
1031.282, 4278.107
1031.764, 4283.174
1032.246, 4303.093
1032.728, 4298.344
1033.210, 4232.876
1033.692, 4185.626
1034.175, 4176.473
1034.657, 4188.426
1035.139, 4225.938
1035.621, 4270.933
1036.103, 4289.702
1036.585, 4277.566
1037.067, 4269.977
1037.549, 4270.676
1038.031, 4273.089
1038.514, 4276.021
1038.996, 4280.887
1039.478, 4290.907
1039.960, 4301.927
1040.442, 4305.267
1040.924, 4299.821
1041.406, 4306.664
1041.888, 4345.545
1042.370, 4359.541
1042.853, 4326.099
1043.335, 4292.242
1043.817, 4282.951
1044.299, 4284.601
1044.781, 4276.808
1045.263, 4260.178
1045.745, 4257.477
1046.227, 4275.123
1046.710, 4290.627
1047.192, 4303.837
1047.674, 4310.478
1048.156, 4306.498
1048.638, 4298.729
1049.120, 4295.523
1049.602, 4296.319
1050.084, 4295.556
1050.567, 4290.904
1051.049, 4298.153
1051.531, 4324.353
1052.013, 4337.741
1052.495, 4322.948
1052.977, 4299.868
1053.459, 4289.685
1053.941, 4288.568
1054.423, 4279.869
1054.906, 4262.691
1055.388, 4255.148
1055.870, 4259.473
1056.352, 4257.172
1056.834, 4241.199
1057.316, 4224.207
1057.798, 4216.799
1058.280, 4217.676
1058.762, 4228.992
1059.245, 4247.798
1059.727, 4239.939
1060.209, 4206.620
1060.691, 4182.203
1061.173, 4175.957
1061.655, 4184.541
1062.137, 4208.188
1062.619, 4230.200
1063.102, 4212.574
1063.584, 4171.413
1064.066, 4161.168
1064.548, 4176.854
1065.030, 4193.072
1065.512, 4204.641
1065.994, 4220.495
1066.476, 4246.881
1066.958, 4262.458
1067.441, 4228.805
1067.923, 4174.769
1068.405, 4149.052
1068.887, 4143.884
1069.369, 4141.779
1069.851, 4140.427
1070.333, 4145.951
1070.815, 4160.906
1071.297, 4173.213
1071.780, 4171.834
1072.262, 4163.167
1072.744, 4147.653
1073.226, 4133.345
1073.708, 4137.186
1074.190, 4150.764
1074.672, 4146.548
1075.154, 4118.293
1075.637, 4099.451
1076.119, 4124.370
1076.601, 4145.203
1077.083, 4132.000
1077.565, 4102.380
1078.047, 4056.043
1078.529, 4012.283
1079.011, 4007.936
1079.493, 4043.588
1079.976, 4067.182
1080.458, 4049.756
1080.940, 4038.800
1081.422, 4060.888
1081.904, 4079.359
1082.386, 4070.346
1082.868, 4048.470
1083.350, 4025.500
1083.833, 4005.239
1084.315, 4002.646
1084.797, 4035.802
1085.279, 4051.861
1085.761, 4029.803
1086.243, 4014.475
1086.725, 4019.705
1087.207, 4035.533
1087.689, 4062.764
1088.172, 4091.313
1088.654, 4088.830
1089.136, 4044.532
1089.618, 4024.692
1090.100, 4041.042
1090.582, 4047.201
1091.064, 4027.031
1091.546, 4014.321
1092.028, 4035.346
1092.511, 4065.603
1092.993, 4059.516
1093.475, 4020.725
1093.957, 4012.151
1094.439, 4035.796
1094.921, 4055.318
1095.403, 4066.420
1095.885, 4061.523
1096.368, 4035.760
1096.850, 4008.925
1097.332, 4002.875
1097.814, 4013.407
1098.296, 4034.651
1098.778, 4062.493
1099.260, 4079.082
1099.742, 4084.080
1100.224, 4084.530
1100.707, 4082.312
1101.189, 4071.071
1101.671, 4042.104
1102.153, 4017.550
1102.635, 4035.454
1103.117, 4070.861
1103.599, 4089.499
1104.081, 4091.475
1104.563, 4074.448
1105.046, 4044.776
1105.528, 4025.988
1106.010, 4029.662
1106.492, 4035.943
1106.974, 4030.743
1107.456, 4023.015
1107.938, 4020.419
1108.420, 4018.385
1108.903, 4003.062
1109.385, 3986.051
1109.867, 3999.204
1110.349, 4050.297
1110.831, 4092.682
1111.313, 4108.500
1111.795, 4119.124
1112.277, 4137.121
1112.760, 4144.854
1113.242, 4115.520
1113.724, 4078.867
1114.206, 4085.284
1114.688, 4131.730
1115.170, 4148.397
1115.652, 4115.401
1116.134, 4092.212
1116.616, 4074.743
1117.099, 4079.954
1117.581, 4127.964
1118.063, 4172.065
1118.545, 4168.483
1119.027, 4135.984
1119.509, 4127.439
1119.991, 4145.015
1120.473, 4150.423
1120.955, 4142.466
1121.438, 4134.141
1121.920, 4126.840
1122.402, 4146.864
1122.884, 4212.453
1123.366, 4276.909
1123.848, 4268.705
1124.330, 4216.481
1124.812, 4199.988
1125.295, 4212.590
1125.777, 4238.900
1126.259, 4272.293
1126.741, 4292.907
1127.223, 4296.209
1127.705, 4304.600
1128.187, 4337.296
1128.669, 4374.926
1129.151, 4397.735
1129.634, 4412.844
1130.116, 4427.991
1130.598, 4442.247
1131.080, 4450.099
1131.562, 4454.205
1132.044, 4467.318
1132.526, 4495.815
1133.008, 4523.492
1133.490, 4548.178
1133.973, 4564.019
1134.455, 4561.297
1134.937, 4555.047
1135.419, 4552.840
1135.901, 4558.059
1136.383, 4582.792
1136.865, 4631.207
1137.347, 4646.367
1137.830, 4601.754
1138.312, 4572.086
1138.794, 4578.954
1139.276, 4568.819
1139.758, 4509.429
1140.240, 4442.983
1140.722, 4411.932
1141.204, 4408.571
1141.687, 4408.151
1142.169, 4411.203
1142.651, 4410.369
1143.133, 4405.837
1143.615, 4385.016
1144.097, 4344.971
1144.579, 4311.277
1145.061, 4300.165
1145.543, 4294.959
1146.026, 4272.943
1146.508, 4240.372
1146.990, 4207.279
1147.472, 4177.164
1147.954, 4168.842
1148.436, 4171.173
1148.918, 4137.812
1149.400, 4060.535
1149.882, 3993.553
1150.365, 3970.882
1150.847, 3969.732
1151.329, 3987.770
1151.811, 4005.009
1152.293, 4005.510
1152.775, 3993.934
1153.257, 3972.537
1153.739, 3946.155
1154.222, 3926.742
1154.704, 3916.853
1155.186, 3913.204
1155.668, 3926.137
1156.150, 3929.444
1156.632, 3899.534
1157.114, 3880.095
1157.596, 3907.094
1158.078, 3944.387
1158.561, 3937.233
1159.043, 3892.268
1159.525, 3872.903
1160.007, 3884.666
1160.489, 3889.087
1160.971, 3884.630
1161.453, 3862.528
1161.935, 3817.846
1162.417, 3789.457
1162.900, 3808.372
1163.382, 3849.785
1163.864, 3880.605
1164.346, 3896.919
1164.828, 3877.202
1165.310, 3835.923
1165.792, 3811.248
1166.274, 3807.225
1166.757, 3818.424
1167.239, 3841.425
1167.721, 3860.817
1168.203, 3867.501
1168.685, 3864.512
1169.167, 3845.839
1169.649, 3826.816
1170.131, 3819.042
1170.614, 3820.672
1171.096, 3838.311
1171.578, 3862.538
1172.060, 3853.801
1172.542, 3786.933
1173.024, 3752.701
1173.506, 3789.875
1173.988, 3818.746
1174.470, 3826.815
1174.953, 3820.099
1175.435, 3790.315
1175.917, 3764.831
1176.399, 3785.660
1176.881, 3843.584
1177.363, 3884.693
1177.845, 3909.485
1178.327, 3893.228
1178.809, 3835.502
1179.292, 3791.594
1179.774, 3776.573
1180.256, 3777.629
1180.738, 3787.521
1181.220, 3797.232
1181.702, 3791.097
1182.184, 3779.888
1182.666, 3779.990
1183.149, 3788.734
1183.631, 3808.558
1184.113, 3830.764
1184.595, 3832.970
1185.077, 3812.015
1185.559, 3794.074
1186.041, 3793.366
1186.523, 3792.732
1187.005, 3786.817
1187.488, 3777.353
1187.970, 3755.211
1188.452, 3738.436
1188.934, 3748.772
1189.416, 3777.148
1189.898, 3802.746
1190.380, 3827.492
1190.862, 3827.870
1191.344, 3794.032
1191.827, 3773.399
1192.309, 3773.120
1192.791, 3778.781
1193.273, 3784.934
1193.755, 3792.729
1194.237, 3804.409
1194.719, 3814.819
1195.201, 3812.756
1195.684, 3800.948
1196.166, 3779.832
1196.648, 3757.844
1197.130, 3765.210
1197.612, 3796.073
1198.094, 3807.263
1198.576, 3783.146
1199.058, 3763.472
1199.541, 3782.299
1200.023, 3801.935
1200.505, 3798.191
1200.987, 3788.748
1201.469, 3797.307
1201.951, 3800.674
1202.433, 3750.853
1202.915, 3665.524
1203.397, 3642.663
1203.880, 3709.488
1204.362, 3731.950
1204.844, 3685.644
1205.326, 3662.204
1205.808, 3685.345
1206.290, 3700.693
1206.772, 3679.942
1207.254, 3647.361
1207.736, 3628.803
1208.219, 3622.578
1208.701, 3623.864
1209.183, 3633.744
1209.665, 3664.795
1210.147, 3706.896
1210.629, 3724.126
1211.111, 3714.968
1211.593, 3704.632
1212.076, 3703.654
1212.558, 3706.906
1213.040, 3718.966
1213.522, 3723.391
1214.004, 3699.799
1214.486, 3675.072
1214.968, 3671.823
1215.450, 3679.413
1215.932, 3681.617
1216.415, 3679.613
1216.897, 3686.506
1217.379, 3707.465
1217.861, 3718.218
1218.343, 3720.136
1218.825, 3702.489
1219.307, 3654.367
1219.789, 3633.527
1220.271, 3673.098
1220.754, 3718.732
1221.236, 3708.373
1221.718, 3666.849
1222.200, 3647.751
1222.682, 3642.634
1223.164, 3623.475
1223.646, 3600.225
1224.128, 3607.399
1224.611, 3640.780
1225.093, 3662.153
1225.575, 3657.569
1226.057, 3655.352
1226.539, 3681.232
1227.021, 3698.768
1227.503, 3681.142
1227.985, 3662.381
1228.468, 3673.461
1228.950, 3686.781
1229.432, 3664.707
1229.914, 3620.940
1230.396, 3596.133
1230.878, 3590.972
1231.360, 3599.620
1231.842, 3623.892
1232.324, 3653.202
1232.807, 3687.070
1233.289, 3694.773
1233.771, 3664.271
1234.253, 3632.268
1234.735, 3633.634
1235.217, 3637.121
1235.699, 3576.029
1236.181, 3506.591
1236.663, 3531.223
1237.146, 3594.979
1237.628, 3612.072
1238.110, 3585.486
1238.592, 3544.106
1239.074, 3496.329
1239.556, 3477.238
1240.038, 3530.953
1240.520, 3558.458
1241.003, 3510.525
1241.485, 3486.135
1241.967, 3524.790
1242.449, 3575.809
1242.931, 3606.406
1243.413, 3620.770
1243.895, 3623.961
1244.377, 3618.279
1244.859, 3615.836
1245.342, 3616.331
1245.824, 3619.420
1246.306, 3623.669
1246.788, 3622.645
1247.270, 3615.419
1247.752, 3606.427
1248.234, 3597.908
1248.716, 3589.298
1249.198, 3577.072
1249.681, 3568.516
1250.163, 3568.224
1250.645, 3573.607
1251.127, 3582.613
1251.609, 3595.804
1252.091, 3621.599
1252.573, 3653.180
1253.055, 3655.404
1253.538, 3617.910
1254.020, 3606.250
1254.502, 3626.384
1254.984, 3636.390
1255.466, 3629.502
1255.948, 3609.146
1256.430, 3576.779
1256.912, 3543.081
1257.395, 3513.660
1257.877, 3502.031
1258.359, 3550.187
1258.841, 3608.409
1259.323, 3595.584
1259.805, 3553.268
1260.287, 3545.945
1260.769, 3567.128
1261.251, 3582.076
1261.734, 3584.274
1262.216, 3587.729
1262.698, 3602.920
1263.180, 3605.502
1263.662, 3589.632
1264.144, 3568.403
##END=



