##NAMES=Eucairite
##RRUFFID=R060639
##IDEAL CHEMISTRY=CuAgSe
##LOCALITY=Mina Santa Brigida, Sierra de Famatina, La Rioja, Argentina
##OWNER=RRUFF
##SOURCE=Michael Scott
##DESCRIPTION=Black metallic coarsely crystalline massive
##STATUS=The identification of this mineral has been confirmed by X-ray diffraction and chemical analysis
##URL=rruff.info/R060639
##MEASURED CHEMISTRY=Cu_1.00_Ag_1.00_Se_1.00_
111.404, 527.094
111.886, 554.870
112.368, 590.696
112.850, 633.900
113.332, 685.062
113.814, 747.352
114.296, 813.459
114.778, 876.568
115.260, 940.821
115.743, 988.146
116.225, 1013.758
116.707, 1018.815
117.189, 999.113
117.671, 945.288
118.153, 871.627
118.635, 795.034
119.117, 644.406
119.600, 630.972
120.082, 653.678
120.564, 713.494
121.046, 764.301
121.528, 806.581
122.010, 814.798
122.492, 867.001
122.974, 901.584
123.456, 944.886
123.939, 1012.047
124.421, 1131.351
124.903, 1277.718
125.385, 1437.313
125.867, 1611.658
126.349, 1764.964
126.831, 1870.509
127.313, 1978.577
127.796, 2099.876
128.278, 2236.434
128.760, 2391.445
129.242, 2576.168
129.724, 2809.337
130.206, 2973.630
130.688, 3058.373
131.170, 3094.185
131.652, 3095.664
132.135, 3062.543
132.617, 2982.610
133.099, 2836.344
133.581, 2592.215
134.063, 2368.730
134.545, 2154.293
135.027, 1963.490
135.509, 1805.099
135.992, 1680.796
136.474, 1589.226
136.956, 1531.518
137.438, 1527.394
137.920, 1520.566
138.402, 1497.011
138.884, 1478.719
139.366, 1484.275
139.848, 1518.384
140.331, 1572.727
140.813, 1634.066
141.295, 1707.135
141.777, 1780.641
142.259, 1861.182
142.741, 1939.191
143.223, 2003.065
143.705, 2048.877
144.188, 2082.267
144.670, 2113.629
145.152, 2142.266
145.634, 2170.117
146.116, 2197.926
146.598, 2224.978
147.080, 2251.452
147.562, 2278.245
148.044, 2302.094
148.527, 2314.316
149.009, 2313.890
149.491, 2307.659
149.973, 2298.406
150.455, 2284.504
150.937, 2260.335
151.419, 2220.407
151.901, 2174.441
152.383, 2145.788
152.866, 2137.612
153.348, 2135.943
153.830, 2140.345
154.312, 2147.849
154.794, 2149.766
155.276, 2141.062
155.758, 2125.728
156.240, 2112.914
156.723, 2099.338
157.205, 2092.967
157.687, 2100.566
158.169, 2119.813
158.651, 2143.053
159.133, 2173.406
159.615, 2199.922
160.097, 2201.296
160.579, 2165.456
161.062, 2124.454
161.544, 2096.018
162.026, 2079.729
162.508, 2072.650
162.990, 2079.718
163.472, 2092.031
163.954, 2091.439
164.436, 2069.436
164.919, 2046.065
165.401, 2039.617
165.883, 2049.250
166.365, 2055.779
166.847, 2047.876
167.329, 2032.325
167.811, 2021.062
168.293, 2017.526
168.775, 2015.031
169.258, 2006.478
169.740, 1991.674
170.222, 1978.862
170.704, 1976.837
171.186, 1976.826
171.668, 1965.757
172.150, 1937.295
172.632, 1904.068
173.115, 1878.914
173.597, 1862.373
174.079, 1847.899
174.561, 1834.102
175.043, 1820.003
175.525, 1804.118
176.007, 1785.036
176.489, 1765.747
176.971, 1748.860
177.454, 1734.194
177.936, 1723.257
178.418, 1722.987
178.900, 1724.578
179.382, 1717.559
179.864, 1696.694
180.346, 1670.969
180.828, 1651.102
181.311, 1637.634
181.793, 1627.041
182.275, 1621.484
182.757, 1616.738
183.239, 1608.044
183.721, 1592.652
184.203, 1575.637
184.685, 1564.626
185.167, 1561.267
185.650, 1555.979
186.132, 1541.210
186.614, 1523.807
187.096, 1510.181
187.578, 1502.585
188.060, 1498.235
188.542, 1492.194
189.024, 1482.946
189.507, 1478.987
189.989, 1494.256
190.471, 1512.064
190.953, 1516.272
191.435, 1500.416
191.917, 1474.800
192.399, 1450.735
192.881, 1427.108
193.363, 1410.463
193.846, 1408.179
194.328, 1411.908
194.810, 1415.452
195.292, 1417.431
195.774, 1418.018
196.256, 1417.471
196.738, 1415.852
197.220, 1412.841
197.702, 1404.751
198.185, 1396.955
198.667, 1395.480
199.149, 1403.272
199.631, 1411.665
200.113, 1408.673
200.595, 1392.198
201.077, 1375.306
201.559, 1360.980
202.042, 1348.426
202.524, 1336.647
203.006, 1324.955
203.488, 1316.338
203.970, 1316.720
204.452, 1328.113
204.934, 1334.880
205.416, 1326.971
205.898, 1315.575
206.380, 1309.205
206.863, 1309.762
207.345, 1312.058
207.827, 1311.359
208.309, 1307.729
208.791, 1300.251
209.273, 1285.131
209.755, 1268.132
210.238, 1252.207
210.720, 1237.594
211.202, 1227.335
211.684, 1226.131
212.166, 1234.360
212.648, 1242.242
213.130, 1249.403
213.612, 1253.912
214.094, 1253.530
214.577, 1248.083
215.059, 1241.423
215.541, 1237.946
216.023, 1237.532
216.505, 1233.167
216.987, 1220.134
217.469, 1205.915
217.951, 1195.035
218.434, 1187.831
218.916, 1184.407
219.398, 1188.247
219.880, 1198.082
220.362, 1199.708
220.844, 1181.547
221.326, 1165.784
221.808, 1172.913
222.290, 1200.444
222.773, 1224.571
223.255, 1226.516
223.737, 1210.703
224.219, 1201.775
224.701, 1208.173
225.183, 1213.190
225.665, 1200.470
226.147, 1174.130
226.629, 1153.254
227.112, 1153.556
227.594, 1167.766
228.076, 1172.653
228.558, 1162.910
229.040, 1150.573
229.522, 1142.821
230.004, 1139.277
230.486, 1139.850
230.969, 1151.137
231.451, 1165.398
231.933, 1164.449
232.415, 1143.079
232.897, 1119.006
233.379, 1103.491
233.861, 1094.637
234.343, 1089.853
234.825, 1089.808
235.307, 1092.825
235.790, 1098.269
236.272, 1107.358
236.754, 1112.263
237.236, 1104.327
237.718, 1088.784
238.200, 1075.756
238.682, 1067.527
239.165, 1062.484
239.647, 1058.822
240.129, 1056.484
240.611, 1057.292
241.093, 1065.005
241.575, 1075.855
242.057, 1081.395
242.539, 1078.460
243.021, 1073.105
243.503, 1070.096
243.986, 1069.065
244.468, 1066.545
244.950, 1059.451
245.432, 1050.929
245.914, 1048.344
246.396, 1055.701
246.878, 1061.906
247.361, 1058.585
247.843, 1048.775
248.325, 1043.612
248.807, 1049.726
249.289, 1059.292
249.771, 1055.097
250.253, 1031.051
250.735, 1012.484
251.217, 1012.088
251.699, 1022.896
252.182, 1032.797
252.664, 1038.566
253.146, 1040.674
253.628, 1038.259
254.110, 1029.235
254.592, 1024.481
255.074, 1029.741
255.556, 1038.837
256.039, 1044.854
256.521, 1046.288
257.003, 1043.866
257.485, 1037.359
257.967, 1024.688
258.449, 1017.132
258.931, 1018.349
259.413, 1022.685
259.896, 1025.927
260.378, 1027.559
260.860, 1028.898
261.342, 1031.332
261.824, 1035.114
262.306, 1037.394
262.788, 1040.146
263.270, 1039.892
263.752, 1033.273
264.234, 1021.567
264.717, 1009.123
265.199, 998.786
265.681, 990.575
266.163, 984.558
266.645, 978.272
267.127, 976.351
267.609, 983.700
268.091, 996.105
268.574, 1006.117
269.056, 1009.529
269.538, 1007.601
270.020, 1005.708
270.502, 1005.690
270.984, 1003.456
271.466, 997.823
271.948, 990.100
272.431, 981.400
272.913, 972.176
273.395, 962.955
273.877, 954.487
274.359, 945.007
274.841, 939.851
275.323, 942.766
275.805, 947.243
276.287, 947.310
276.770, 942.113
277.252, 936.421
277.734, 937.927
278.216, 951.005
278.698, 956.859
279.180, 948.085
279.662, 938.112
280.144, 931.749
280.626, 929.997
281.109, 932.834
281.591, 942.418
282.073, 958.951
282.555, 968.540
283.037, 957.359
283.519, 955.378
284.001, 940.954
284.483, 956.747
284.966, 965.205
285.448, 966.723
285.930, 940.511
286.412, 949.620
286.894, 948.411
287.376, 949.672
287.858, 932.698
288.340, 919.424
288.823, 933.563
289.305, 941.047
289.787, 942.235
290.269, 918.267
290.751, 926.783
291.233, 922.280
291.715, 917.244
292.197, 930.332
292.679, 910.023
293.161, 921.046
293.644, 927.640
294.126, 936.474
294.608, 946.494
295.090, 950.899
295.572, 946.018
296.054, 937.305
296.536, 930.754
297.018, 926.089
297.501, 924.732
297.983, 931.630
298.465, 941.117
298.947, 941.850
299.429, 930.819
299.911, 917.571
300.393, 911.109
300.875, 911.455
301.358, 915.078
301.840, 928.461
302.322, 940.239
302.804, 937.114
303.286, 920.554
303.768, 907.277
304.250, 910.919
304.732, 929.570
305.214, 936.839
305.697, 924.726
306.179, 911.525
306.661, 900.162
307.143, 892.983
307.625, 896.436
308.107, 914.908
308.589, 940.936
309.071, 952.204
309.553, 928.047
310.036, 914.289
310.518, 921.467
311.000, 935.608
311.482, 943.290
311.964, 940.759
312.446, 932.249
312.928, 923.742
313.410, 915.240
313.892, 906.761
314.375, 894.102
314.857, 884.863
315.339, 877.413
315.821, 875.774
316.303, 892.717
316.785, 874.903
317.267, 898.435
317.750, 911.931
318.232, 915.929
318.714, 881.985
319.196, 897.036
319.678, 892.451
320.160, 887.062
320.642, 909.009
321.124, 880.583
321.606, 902.096
322.089, 903.675
322.571, 914.377
323.053, 905.323
323.535, 902.371
324.017, 919.181
324.499, 925.049
324.981, 913.721
325.463, 925.003
325.945, 895.887
326.428, 902.221
326.910, 923.850
327.392, 906.722
327.874, 905.958
328.356, 887.390
328.838, 873.454
329.320, 878.075
329.802, 892.562
330.284, 901.000
330.767, 900.730
331.249, 900.555
331.731, 911.076
332.213, 930.056
332.695, 937.236
333.177, 916.553
333.659, 895.916
334.141, 900.342
334.624, 923.781
335.106, 938.498
335.588, 927.229
336.070, 898.010
336.552, 883.345
337.034, 894.767
337.516, 904.199
337.998, 907.115
338.480, 905.266
338.963, 899.219
339.445, 889.428
339.927, 879.607
340.409, 876.071
340.891, 883.722
341.373, 885.876
341.855, 876.667
342.337, 867.675
342.819, 865.696
343.302, 870.575
343.784, 878.472
344.266, 886.942
344.748, 895.800
345.230, 901.561
345.712, 904.676
346.194, 903.541
346.677, 894.212
347.159, 881.563
347.641, 872.145
348.123, 868.916
348.605, 870.304
349.087, 875.017
349.569, 884.797
350.051, 890.305
350.533, 884.281
351.016, 875.893
351.498, 873.931
351.980, 879.574
352.462, 882.620
352.944, 870.045
353.426, 847.654
353.908, 840.084
354.390, 855.744
354.872, 875.125
355.355, 878.877
355.837, 870.426
356.319, 861.912
356.801, 855.478
357.283, 850.539
357.765, 845.126
358.247, 839.816
358.729, 840.065
359.211, 850.841
359.694, 868.869
360.176, 880.053
360.658, 886.944
361.140, 885.341
361.622, 873.656
362.104, 854.145
362.586, 878.520
363.069, 892.243
363.551, 895.885
364.033, 859.254
364.515, 874.627
364.997, 869.159
365.479, 862.837
365.961, 874.054
366.443, 873.296
366.925, 861.717
367.408, 850.466
367.890, 848.684
368.372, 854.960
368.854, 857.178
369.336, 863.932
369.818, 849.013
370.300, 864.368
370.782, 872.374
371.264, 873.427
371.747, 846.699
372.229, 855.843
372.711, 850.612
373.193, 844.791
373.675, 858.985
374.157, 836.297
374.639, 850.174
375.121, 846.781
375.603, 841.032
376.086, 834.881
376.568, 841.275
377.050, 854.663
377.532, 866.212
378.014, 875.622
378.496, 879.719
378.978, 873.698
379.460, 859.734
379.943, 851.097
380.425, 851.610
380.907, 853.741
381.389, 854.115
381.871, 853.318
382.353, 853.062
382.835, 854.170
383.317, 855.172
383.799, 853.031
384.282, 843.359
384.764, 838.760
385.246, 844.197
385.728, 850.906
386.210, 850.711
386.692, 844.633
387.174, 841.359
387.656, 849.882
388.138, 869.513
388.621, 879.410
389.103, 874.043
389.585, 864.960
390.067, 850.473
390.549, 835.690
391.031, 828.172
391.513, 831.563
391.996, 837.720
392.478, 831.372
392.960, 810.128
393.442, 800.780
393.924, 816.257
394.406, 838.415
394.888, 854.360
395.370, 863.715
395.852, 866.220
396.335, 857.276
396.817, 842.975
397.299, 833.136
397.781, 828.512
398.263, 826.284
398.745, 823.567
399.227, 822.088
399.709, 828.082
400.191, 855.648
400.674, 874.620
401.156, 864.348
401.638, 839.674
402.120, 826.733
402.602, 834.267
403.084, 849.841
403.566, 854.213
404.048, 841.344
404.530, 833.623
405.013, 836.463
405.495, 838.851
405.977, 832.160
406.459, 819.613
406.941, 811.488
407.423, 815.685
407.905, 828.552
408.387, 834.130
408.870, 829.352
409.352, 823.114
409.834, 815.723
410.316, 809.044
410.798, 804.607
411.280, 802.712
411.762, 803.466
412.244, 808.689
412.727, 817.268
413.209, 822.571
413.691, 822.643
414.173, 821.732
414.655, 821.970
415.137, 823.769
415.619, 829.721
416.101, 849.217
416.583, 865.640
417.065, 861.576
417.548, 842.248
418.030, 827.282
418.512, 825.688
418.994, 832.555
419.476, 837.079
419.958, 839.015
420.440, 838.812
420.922, 831.976
421.405, 826.195
421.887, 830.047
422.369, 842.236
422.851, 852.866
423.333, 852.663
423.815, 842.593
424.297, 837.555
424.779, 842.512
425.262, 845.693
425.744, 842.852
426.226, 837.507
426.708, 834.182
427.190, 834.451
427.672, 834.340
428.154, 826.560
428.636, 812.029
429.118, 806.442
429.601, 815.792
430.083, 829.109
430.565, 838.784
431.047, 844.920
431.529, 846.839
432.011, 840.018
432.493, 832.141
432.975, 822.951
433.457, 816.468
433.940, 800.781
434.422, 821.092
434.904, 832.665
435.386, 835.969
435.868, 806.238
436.350, 819.165
436.832, 814.997
437.314, 810.128
437.797, 829.059
438.279, 804.133
438.761, 822.686
439.243, 823.883
439.725, 833.024
440.207, 824.964
440.689, 822.217
441.171, 836.676
441.654, 841.608
442.136, 831.567
442.618, 841.213
443.100, 815.686
443.582, 821.023
444.064, 839.678
444.546, 830.502
445.028, 840.463
445.510, 843.135
445.992, 812.686
446.475, 839.838
446.957, 842.080
447.439, 818.744
447.921, 843.922
448.403, 824.113
448.885, 820.361
449.367, 828.118
449.849, 815.837
450.332, 808.572
450.814, 806.068
451.296, 788.611
451.778, 810.301
452.260, 822.488
452.742, 825.683
453.224, 792.954
453.706, 806.614
454.189, 801.683
454.671, 795.990
455.153, 816.178
455.635, 788.675
456.117, 808.453
456.599, 809.357
457.081, 818.899
457.563, 809.736
458.045, 805.858
458.527, 805.975
459.010, 809.889
459.492, 814.103
459.974, 815.788
460.456, 816.355
460.938, 819.414
461.420, 825.527
461.902, 830.645
462.384, 831.814
462.867, 829.733
463.349, 828.260
463.831, 827.078
464.313, 826.819
464.795, 827.793
465.277, 829.737
465.759, 834.130
466.241, 840.593
466.724, 843.645
467.206, 835.881
467.688, 815.725
468.170, 801.518
468.652, 793.914
469.134, 792.280
469.616, 799.125
470.098, 810.925
470.580, 824.119
471.063, 837.851
471.545, 848.976
472.027, 851.330
472.509, 845.716
472.991, 845.238
473.473, 855.898
473.955, 865.496
474.437, 859.411
474.919, 841.319
475.402, 827.487
475.884, 822.969
476.366, 821.676
476.848, 820.383
477.330, 818.914
477.812, 816.734
478.294, 813.477
478.776, 810.707
479.259, 811.719
479.741, 820.547
480.223, 822.999
480.705, 812.061
481.187, 824.740
481.669, 831.686
482.151, 833.207
482.633, 813.056
483.116, 820.891
483.598, 817.510
484.080, 813.669
484.562, 825.442
485.044, 808.443
485.526, 818.437
486.008, 815.072
486.490, 808.107
486.972, 820.607
487.454, 828.382
487.937, 831.686
488.419, 817.129
488.901, 825.636
489.383, 824.899
489.865, 823.784
490.347, 835.538
490.829, 823.578
491.311, 833.865
491.794, 830.626
492.276, 826.724
492.758, 813.845
493.240, 806.933
493.722, 792.163
494.204, 808.791
494.686, 817.797
495.168, 819.591
495.651, 792.572
496.133, 802.255
496.615, 795.455
497.097, 795.856
497.579, 807.820
498.061, 820.126
498.543, 820.955
499.025, 809.549
499.507, 799.063
499.990, 794.977
500.472, 795.612
500.954, 800.620
501.436, 809.250
501.918, 816.120
502.400, 817.798
502.882, 815.787
503.364, 814.887
503.846, 817.124
504.329, 817.708
504.811, 813.371
505.293, 809.721
505.775, 811.723
506.257, 818.858
506.739, 827.237
507.221, 834.864
507.703, 840.700
508.185, 838.878
508.668, 825.194
509.150, 816.339
509.632, 797.880
510.114, 821.606
510.596, 835.091
511.078, 838.888
511.560, 803.972
512.042, 819.045
512.525, 814.085
513.007, 808.303
513.489, 830.411
513.971, 801.126
514.453, 820.057
514.935, 821.043
515.417, 822.401
515.899, 827.506
516.381, 828.002
516.864, 819.075
517.346, 809.421
517.828, 805.359
518.310, 806.486
518.792, 808.850
519.274, 810.189
519.756, 810.382
520.239, 808.644
520.721, 804.423
521.203, 800.849
521.685, 796.450
522.167, 795.483
522.649, 805.302
523.131, 826.356
523.613, 840.257
524.095, 837.717
524.578, 827.966
525.060, 816.610
525.542, 805.357
526.024, 798.320
526.506, 797.605
526.988, 801.869
527.470, 808.752
527.952, 822.947
528.434, 830.266
528.917, 829.000
529.399, 823.376
529.881, 810.984
530.363, 796.091
530.845, 787.645
531.327, 789.969
531.809, 801.661
532.291, 784.431
532.773, 808.014
533.256, 821.690
533.738, 825.991
534.220, 792.840
534.702, 808.051
535.184, 803.880
535.666, 798.915
536.148, 820.933
536.630, 793.229
537.112, 814.819
537.595, 816.732
538.077, 814.083
538.559, 809.760
539.041, 806.363
539.523, 802.359
540.005, 796.611
540.487, 797.180
540.969, 811.437
541.452, 822.998
541.934, 825.143
542.416, 820.710
542.898, 812.950
543.380, 801.036
543.862, 792.218
544.344, 796.117
544.826, 807.463
545.308, 810.789
545.791, 803.010
546.273, 797.424
546.755, 807.100
547.237, 829.891
547.719, 839.234
548.201, 823.541
548.683, 810.685
549.166, 805.425
549.648, 805.250
550.130, 809.742
550.612, 817.517
551.094, 823.750
551.576, 824.009
552.058, 819.217
552.540, 800.404
553.022, 820.670
553.505, 831.451
553.987, 833.255
554.469, 799.196
554.951, 811.446
555.433, 805.139
555.915, 798.070
556.397, 816.837
556.879, 787.996
557.362, 803.819
557.844, 824.695
558.326, 840.696
558.808, 840.168
559.290, 829.627
559.772, 823.292
560.254, 821.830
560.736, 822.860
561.218, 833.766
561.701, 840.060
562.183, 829.795
562.665, 810.180
563.147, 798.762
563.629, 805.763
564.111, 816.214
564.593, 812.340
565.075, 798.527
565.557, 791.442
566.040, 795.297
566.522, 802.206
567.004, 805.608
567.486, 805.492
567.968, 800.115
568.450, 779.227
568.932, 766.388
569.414, 774.978
569.896, 789.814
570.379, 792.896
570.861, 782.249
571.343, 771.891
571.825, 776.523
572.307, 792.095
572.789, 801.343
573.271, 803.351
573.753, 803.338
574.235, 802.021
574.718, 800.908
575.200, 803.084
575.682, 809.565
576.164, 813.526
576.646, 812.444
577.128, 809.068
577.610, 802.645
578.093, 795.784
578.575, 795.388
579.057, 805.101
579.539, 819.106
580.021, 827.373
580.503, 830.342
580.985, 824.492
581.467, 796.700
581.949, 776.414
582.432, 785.903
582.914, 811.851
583.396, 827.234
583.878, 822.003
584.360, 812.887
584.842, 810.740
585.324, 812.413
585.806, 812.825
586.289, 811.020
586.771, 806.940
587.253, 799.854
587.735, 790.758
588.217, 786.180
588.699, 785.394
589.181, 790.713
589.663, 811.115
590.145, 830.264
590.628, 834.334
591.110, 824.919
591.592, 814.929
592.074, 811.717
592.556, 811.872
593.038, 810.271
593.520, 807.453
594.002, 806.897
594.484, 809.863
594.967, 814.948
595.449, 821.552
595.931, 830.886
596.413, 832.131
596.895, 813.176
597.377, 801.303
597.859, 810.055
598.341, 828.030
598.823, 843.689
599.306, 853.461
599.788, 855.888
600.270, 845.359
600.752, 826.260
601.234, 815.005
601.716, 812.509
602.198, 812.009
602.680, 811.461
603.162, 810.210
603.645, 805.628
604.127, 794.393
604.609, 791.797
605.091, 807.660
605.573, 824.848
606.055, 833.979
606.537, 836.021
607.019, 833.529
607.502, 827.517
607.984, 821.171
608.466, 818.848
608.948, 820.513
609.430, 825.607
609.912, 837.606
610.394, 844.113
610.876, 833.209
611.359, 812.578
611.841, 801.485
612.323, 805.508
612.805, 807.815
613.287, 801.337
613.769, 792.557
614.251, 783.682
614.733, 775.203
615.216, 794.137
615.698, 806.416
616.180, 812.399
616.662, 793.226
617.144, 806.536
617.626, 806.828
618.108, 806.588
618.590, 824.470
619.072, 808.955
619.555, 826.550
620.037, 830.928
620.519, 832.243
621.001, 844.729
621.483, 836.522
621.965, 819.513
622.447, 807.377
622.929, 802.481
623.411, 803.106
623.894, 808.954
624.376, 817.442
624.858, 817.875
625.340, 805.774
625.822, 800.523
626.304, 807.465
626.786, 820.386
627.268, 839.811
627.750, 862.111
628.233, 872.752
628.715, 860.456
629.197, 844.169
629.679, 833.869
630.161, 827.567
630.643, 822.834
631.125, 818.869
631.607, 814.181
632.089, 806.795
632.572, 798.005
633.054, 796.998
633.536, 809.463
634.018, 814.719
634.500, 801.817
634.982, 818.318
635.464, 827.681
635.946, 830.291
636.429, 805.920
636.911, 816.389
637.393, 812.896
637.875, 808.830
638.357, 824.203
638.839, 803.756
639.321, 818.821
639.803, 819.710
640.286, 827.087
640.768, 817.513
641.250, 811.990
641.732, 832.760
642.214, 844.790
642.696, 829.301
643.178, 809.640
643.660, 804.933
644.143, 814.249
644.625, 823.652
645.107, 830.243
645.589, 833.845
646.071, 833.620
646.553, 830.516
647.035, 825.540
647.517, 819.244
647.999, 813.457
648.482, 809.922
648.964, 808.637
649.446, 809.477
649.928, 812.712
650.410, 817.646
650.892, 829.117
651.374, 838.115
651.856, 834.668
652.338, 819.896
652.821, 807.931
653.303, 803.325
653.785, 802.259
654.267, 801.441
654.749, 802.593
655.231, 814.068
655.713, 835.422
656.195, 846.250
656.677, 821.222
657.160, 769.178
657.642, 751.498
658.124, 779.743
658.606, 806.852
659.088, 821.934
659.570, 829.506
660.052, 832.634
660.534, 831.812
661.016, 832.469
661.499, 842.297
661.981, 846.739
662.463, 830.276
662.945, 806.964
663.427, 798.335
663.909, 807.690
664.391, 822.317
664.873, 832.774
665.356, 838.203
665.838, 831.702
666.320, 809.594
666.802, 797.644
667.284, 807.642
667.766, 822.717
668.248, 824.779
668.730, 815.479
669.213, 809.074
669.695, 803.591
670.177, 804.971
670.659, 823.638
671.141, 845.505
671.623, 854.577
672.105, 849.537
672.587, 838.032
673.070, 822.996
673.552, 809.182
674.034, 810.464
674.516, 826.876
674.998, 836.282
675.480, 831.640
675.962, 825.244
676.444, 828.580
676.926, 840.749
677.409, 849.838
677.891, 863.471
678.373, 864.206
678.855, 833.478
679.337, 800.739
679.819, 792.570
680.301, 805.838
680.783, 820.209
681.265, 825.065
681.748, 824.748
682.230, 824.594
682.712, 824.333
683.194, 822.310
683.676, 818.085
684.158, 814.276
684.640, 812.752
685.122, 813.303
685.604, 815.144
686.087, 819.995
686.569, 823.293
687.051, 824.643
687.533, 824.787
688.015, 823.042
688.497, 820.566
688.979, 819.925
689.461, 822.508
689.943, 825.338
690.426, 828.403
690.908, 829.206
691.390, 820.148
691.872, 802.556
692.354, 790.049
692.836, 790.898
693.318, 799.277
693.800, 801.058
694.283, 791.533
694.765, 793.944
695.247, 821.698
695.729, 843.493
696.211, 838.099
696.693, 821.056
697.175, 816.788
697.657, 831.692
698.140, 840.671
698.622, 827.781
699.104, 810.284
699.586, 801.767
700.068, 801.378
700.550, 805.616
701.032, 812.946
701.514, 820.779
701.997, 826.115
702.479, 829.045
702.961, 830.174
703.443, 828.964
703.925, 828.752
704.407, 832.648
704.889, 836.057
705.371, 830.763
705.853, 814.991
706.336, 806.206
706.818, 809.394
707.300, 814.583
707.782, 817.706
708.264, 821.063
708.746, 829.152
709.228, 841.515
709.710, 851.088
710.192, 852.099
710.675, 848.006
711.157, 844.335
711.639, 840.812
712.121, 834.766
712.603, 825.094
713.085, 818.310
713.567, 821.534
714.049, 833.088
714.531, 838.079
715.014, 829.652
715.496, 826.650
715.978, 834.154
716.460, 844.691
716.942, 857.901
717.424, 870.332
717.906, 871.941
718.388, 850.980
718.870, 836.794
719.353, 825.372
719.835, 838.467
720.317, 845.612
720.799, 847.124
721.281, 826.138
721.763, 834.205
722.245, 830.628
722.727, 826.574
723.210, 838.730
723.692, 821.016
724.174, 832.914
724.656, 832.992
725.138, 838.480
725.620, 832.253
726.102, 829.644
726.584, 838.754
727.067, 841.375
727.549, 833.800
728.031, 839.631
728.513, 821.509
728.995, 824.406
729.477, 836.373
729.959, 829.386
730.441, 835.432
730.924, 836.515
731.406, 815.040
731.888, 832.794
732.370, 833.583
732.852, 816.953
733.334, 833.363
733.816, 819.134
734.298, 815.841
734.780, 820.779
735.263, 819.890
735.745, 838.042
736.227, 848.136
736.709, 829.771
737.191, 807.948
737.673, 796.006
738.155, 794.097
738.637, 801.232
739.119, 779.933
739.602, 809.762
740.084, 827.179
740.566, 832.853
741.048, 791.610
741.530, 810.950
742.012, 806.011
742.494, 800.077
742.976, 827.944
743.458, 793.525
743.941, 820.856
744.423, 823.538
744.905, 820.506
745.387, 817.837
745.869, 814.341
746.351, 810.546
746.833, 807.552
747.315, 805.886
747.797, 802.756
748.280, 785.467
748.762, 782.232
749.244, 818.103
749.726, 860.358
750.208, 871.668
750.690, 850.606
751.172, 831.040
751.654, 827.511
752.137, 832.486
752.619, 847.341
753.101, 863.826
753.583, 865.349
754.065, 850.731
754.547, 833.638
755.029, 824.167
755.511, 819.855
755.994, 813.803
756.476, 805.768
756.958, 803.822
757.440, 810.900
757.922, 818.196
758.404, 818.993
758.886, 816.245
759.368, 819.189
759.851, 835.702
760.333, 842.036
760.815, 826.690
761.297, 813.435
761.779, 810.453
762.261, 788.119
762.743, 817.394
763.225, 834.141
763.707, 839.033
764.190, 796.566
764.672, 815.254
765.154, 809.434
765.636, 802.609
766.118, 829.904
766.600, 794.325
767.082, 821.080
767.564, 822.952
768.046, 836.212
768.529, 824.813
769.011, 821.029
769.493, 841.914
769.975, 849.140
770.457, 822.366
770.939, 830.032
771.421, 834.113
771.903, 832.111
772.385, 818.631
772.868, 807.888
773.350, 797.046
773.832, 792.521
774.314, 804.733
774.796, 823.370
775.278, 829.142
775.760, 816.032
776.242, 804.637
776.724, 813.460
777.207, 826.549
777.689, 822.567
778.171, 807.784
778.653, 801.375
779.135, 808.576
779.617, 818.796
780.099, 821.464
780.581, 818.307
781.064, 820.686
781.546, 830.700
782.028, 810.473
782.510, 826.090
782.992, 833.006
783.474, 831.689
783.956, 797.478
784.438, 805.742
784.920, 796.985
785.403, 787.529
785.885, 792.399
786.367, 806.741
786.849, 822.140
787.331, 834.322
787.813, 834.482
788.295, 819.193
788.778, 805.846
789.260, 803.009
789.742, 806.035
790.224, 813.098
790.706, 822.102
791.188, 829.785
791.670, 835.208
792.152, 839.246
792.634, 842.711
793.117, 845.326
793.599, 845.537
794.081, 843.651
794.563, 845.259
795.045, 852.398
795.527, 856.324
796.009, 849.604
796.491, 835.286
796.973, 824.617
797.456, 821.903
797.938, 812.218
798.420, 780.007
798.902, 759.611
799.384, 776.873
799.866, 809.231
800.348, 823.837
800.830, 815.647
801.312, 808.638
801.795, 810.984
802.277, 814.317
802.759, 814.471
803.241, 812.485
803.723, 810.558
804.205, 808.566
804.687, 803.099
805.169, 788.291
805.652, 775.144
806.134, 784.012
806.616, 805.752
807.098, 811.937
807.580, 800.511
808.062, 795.055
808.544, 810.829
809.026, 834.693
809.508, 837.489
809.991, 815.865
810.473, 812.762
810.955, 840.155
811.437, 849.273
811.919, 808.439
812.401, 796.038
812.883, 816.047
813.365, 828.190
813.847, 832.888
814.330, 807.844
814.812, 821.205
815.294, 819.175
815.776, 816.514
816.258, 835.281
816.740, 814.562
817.222, 832.990
817.705, 835.791
818.187, 845.743
818.669, 840.209
819.151, 839.051
819.633, 830.351
820.115, 838.606
820.597, 841.131
821.079, 829.993
821.561, 817.756
822.044, 819.818
822.526, 830.123
823.008, 831.148
823.490, 823.975
823.972, 818.084
824.454, 815.992
824.936, 814.216
825.418, 809.028
825.900, 802.386
826.383, 803.556
826.865, 815.868
827.347, 823.656
827.829, 823.026
828.311, 822.472
828.793, 830.244
829.275, 839.448
829.757, 834.377
830.239, 809.941
830.722, 794.107
831.204, 792.570
831.686, 795.330
832.168, 804.147
832.650, 811.826
833.132, 807.515
833.614, 793.513
834.096, 787.157
834.578, 803.266
835.061, 817.622
835.543, 805.301
836.025, 786.321
836.507, 791.027
836.989, 814.058
837.471, 827.006
837.953, 816.873
838.435, 800.899
838.917, 801.929
839.400, 813.328
839.882, 812.864
840.364, 801.791
840.846, 798.005
841.328, 807.555
841.810, 815.693
842.292, 805.321
842.774, 782.664
843.257, 783.859
843.739, 817.790
844.221, 835.763
844.703, 823.905
845.185, 811.495
845.667, 817.640
846.149, 834.461
846.631, 844.967
847.114, 848.390
847.596, 847.074
848.078, 832.734
848.560, 823.814
849.042, 833.273
849.524, 845.924
850.006, 844.631
850.488, 830.244
850.971, 817.994
851.453, 814.576
851.935, 811.758
852.417, 802.117
852.899, 793.586
853.381, 796.292
853.863, 806.863
854.345, 815.128
854.827, 817.101
855.310, 817.206
855.792, 821.659
856.274, 825.729
856.756, 817.874
857.238, 802.469
857.720, 794.950
858.202, 798.982
858.684, 807.891
859.166, 816.966
859.649, 825.035
860.131, 828.346
860.613, 826.996
861.095, 826.836
861.577, 828.995
862.059, 828.359
862.541, 821.413
863.023, 812.023
863.505, 806.459
863.988, 804.779
864.470, 806.931
864.952, 814.418
865.434, 822.983
865.916, 835.844
866.398, 845.294
866.880, 841.716
867.362, 828.471
867.844, 820.057
868.327, 819.417
868.809, 819.345
869.291, 819.593
869.773, 819.549
870.255, 817.687
870.737, 815.886
871.219, 817.808
871.701, 823.900
872.184, 828.018
872.666, 825.103
873.148, 821.948
873.630, 821.957
874.112, 824.987
874.594, 835.693
875.076, 849.519
875.558, 849.801
876.041, 826.045
876.523, 800.085
877.005, 793.455
877.487, 800.908
877.969, 821.260
878.451, 847.646
878.933, 854.070
879.415, 833.565
879.898, 808.510
880.380, 799.709
880.862, 803.109
881.344, 809.787
881.826, 819.211
882.308, 822.607
882.790, 818.405
883.272, 812.885
883.754, 809.340
884.237, 807.698
884.719, 808.010
885.201, 810.413
885.683, 813.074
886.165, 815.531
886.647, 820.177
887.129, 830.729
887.611, 838.666
888.093, 833.469
888.576, 818.478
889.058, 812.927
889.540, 805.684
890.022, 815.298
890.504, 820.819
890.986, 822.469
891.468, 808.651
891.950, 814.806
892.432, 812.957
892.915, 810.780
893.397, 819.747
893.879, 808.178
894.361, 815.876
894.843, 819.760
895.325, 829.438
895.807, 815.491
896.289, 833.900
896.771, 844.455
897.254, 847.578
897.736, 821.008
898.218, 832.780
898.700, 829.186
899.182, 824.963
899.664, 842.131
900.146, 834.141
900.628, 838.051
901.111, 849.302
901.593, 843.447
902.075, 829.568
902.557, 812.958
903.039, 798.527
903.521, 797.918
904.003, 809.635
904.485, 825.807
904.968, 843.055
905.450, 854.646
905.932, 851.455
906.414, 838.331
906.896, 828.742
907.378, 822.431
907.860, 817.649
908.342, 814.080
908.825, 813.913
909.307, 819.078
909.789, 825.967
910.271, 825.854
910.753, 818.257
911.235, 821.574
911.717, 838.651
912.199, 849.731
912.681, 847.979
913.164, 840.751
913.646, 833.924
914.128, 827.866
914.610, 824.302
915.092, 823.987
915.574, 824.227
916.056, 825.742
916.538, 826.205
917.020, 822.861
917.503, 819.451
917.985, 822.404
918.467, 832.343
918.949, 836.089
919.431, 826.658
919.913, 821.210
920.395, 827.376
920.877, 832.223
921.359, 821.684
921.842, 802.111
922.324, 825.229
922.806, 837.984
923.288, 840.933
923.770, 804.706
924.252, 819.067
924.734, 813.155
925.216, 806.411
925.698, 827.892
926.181, 797.363
926.663, 818.396
927.145, 818.846
927.627, 828.717
928.109, 818.190
928.591, 813.962
929.073, 830.140
929.555, 812.324
930.038, 813.118
930.520, 829.224
931.002, 842.275
931.484, 841.896
931.966, 836.644
932.448, 834.772
932.930, 831.113
933.412, 812.366
933.894, 787.380
934.377, 781.683
934.859, 801.765
935.341, 822.596
935.823, 819.161
936.305, 809.821
936.787, 783.289
937.269, 812.735
937.752, 828.593
938.234, 831.593
938.716, 783.224
939.198, 801.188
939.680, 792.568
940.162, 782.859
940.644, 810.158
941.126, 769.261
941.608, 795.973
942.091, 790.754
942.573, 784.311
943.055, 773.969
943.537, 790.849
944.019, 818.951
944.501, 830.659
944.983, 827.852
945.465, 820.042
945.947, 807.894
946.430, 802.960
946.912, 808.919
947.394, 817.139
947.876, 819.304
948.358, 819.478
948.840, 810.461
949.322, 793.782
949.804, 821.486
950.286, 838.417
950.769, 845.153
951.251, 811.159
951.733, 829.759
952.215, 827.283
952.697, 835.240
953.179, 835.888
953.661, 846.847
954.143, 843.808
954.625, 818.013
955.108, 797.544
955.590, 793.364
956.072, 806.871
956.554, 785.433
957.036, 808.608
957.518, 820.954
958.000, 823.051
958.482, 784.210
958.965, 798.233
959.447, 791.071
959.929, 783.039
960.411, 792.838
960.893, 791.259
961.375, 825.784
961.857, 834.967
962.339, 797.781
962.821, 773.110
963.304, 776.983
963.786, 791.015
964.268, 803.683
964.750, 816.361
965.232, 834.346
965.714, 864.271
966.196, 878.686
966.679, 870.592
967.161, 856.133
967.643, 831.066
968.125, 807.809
968.607, 795.986
969.089, 794.218
969.571, 798.118
970.053, 811.830
970.535, 821.029
971.018, 824.978
971.500, 823.938
971.982, 812.201
972.464, 799.917
972.946, 796.926
973.428, 802.521
973.910, 811.158
974.392, 825.544
974.875, 836.183
975.357, 842.445
975.839, 843.604
976.321, 834.292
976.803, 823.062
977.285, 820.857
977.767, 826.998
978.249, 830.401
978.731, 827.753
979.214, 823.940
979.696, 818.259
980.178, 813.684
980.660, 813.022
981.142, 813.909
981.624, 810.566
982.106, 803.720
982.588, 806.603
983.070, 837.217
983.553, 857.359
984.035, 845.950
984.517, 829.633
984.999, 826.911
985.481, 831.563
985.963, 830.776
986.445, 823.360
986.927, 822.019
987.409, 840.154
987.892, 852.977
988.374, 846.723
988.856, 835.328
989.338, 830.517
989.820, 828.114
990.302, 816.601
990.784, 794.613
991.266, 781.512
991.748, 791.773
992.231, 803.585
992.713, 806.886
993.195, 807.758
993.677, 790.487
994.159, 815.831
994.641, 830.830
995.123, 836.041
995.606, 802.146
996.088, 818.748
996.570, 815.113
997.052, 810.649
997.534, 834.358
998.016, 806.151
998.498, 829.414
998.980, 828.368
999.462, 851.598
999.945, 873.802
1000.427, 895.455
1000.909, 901.489
1001.391, 866.790
1001.873, 826.859
1002.355, 819.519
1002.837, 833.534
1003.319, 835.957
1003.801, 818.237
1004.284, 807.407
1004.766, 822.602
1005.248, 839.339
1005.730, 846.096
1006.212, 846.825
1006.694, 845.972
1007.176, 842.488
1007.658, 831.081
1008.141, 809.860
1008.623, 793.559
1009.105, 790.915
1009.587, 792.098
1010.069, 796.081
1010.551, 797.880
1011.033, 787.054
1011.515, 771.750
1011.997, 772.596
1012.480, 795.382
1012.962, 815.044
1013.444, 815.716
1013.926, 817.484
1014.408, 782.851
1014.890, 794.863
1015.372, 780.446
1015.854, 803.199
1016.336, 816.928
1016.819, 822.125
1017.301, 793.210
1017.783, 808.337
1018.265, 805.815
1018.747, 802.568
1019.229, 823.895
1019.711, 799.940
1020.193, 818.467
1020.676, 838.188
1021.158, 867.751
1021.640, 876.568
1022.122, 830.404
1022.604, 794.005
1023.086, 804.312
1023.568, 823.935
1024.050, 820.858
1024.532, 804.989
1025.015, 801.506
1025.497, 815.315
1025.979, 822.054
1026.461, 807.250
1026.943, 795.904
1027.425, 796.440
1027.907, 802.779
1028.389, 814.994
1028.872, 827.924
1029.354, 832.372
1029.836, 826.774
1030.318, 822.444
1030.800, 821.133
1031.282, 821.689
1031.764, 825.188
1032.246, 829.078
1032.729, 834.443
1033.211, 837.873
1033.693, 831.670
1034.175, 814.780
1034.657, 805.520
1035.139, 803.585
1035.621, 812.409
1036.103, 847.319
1036.585, 876.691
1037.068, 878.669
1037.550, 868.081
1038.032, 868.921
1038.514, 881.852
1038.996, 879.802
1039.478, 844.143
1039.960, 823.118
1040.442, 814.080
1040.924, 794.651
1041.407, 821.943
1041.889, 837.892
1042.371, 843.109
1042.853, 805.455
1043.335, 823.161
1043.817, 818.681
1044.299, 813.292
1044.781, 826.573
1045.264, 818.197
1045.746, 797.471
1046.228, 781.964
1046.710, 794.739
1047.192, 829.644
1047.674, 850.730
1048.156, 858.622
1048.638, 847.519
1049.120, 805.928
1049.603, 778.287
1050.085, 781.460
1050.567, 796.059
1051.049, 793.476
1051.531, 798.313
1052.013, 779.184
1052.495, 809.603
1052.977, 827.995
1053.459, 835.006
1053.942, 796.554
1054.424, 816.809
1054.906, 813.535
1055.388, 809.296
1055.870, 837.815
1056.352, 805.971
1056.834, 833.970
1057.316, 838.082
1057.799, 853.131
1058.281, 839.611
1058.763, 841.685
1059.245, 844.791
1059.727, 849.992
1060.209, 855.227
1060.691, 856.394
1061.173, 854.742
1061.656, 857.880
1062.138, 864.217
1062.620, 862.023
1063.102, 850.535
1063.584, 842.053
1064.066, 842.947
1064.548, 846.133
1065.030, 843.884
1065.512, 837.354
1065.995, 825.418
1066.477, 812.167
1066.959, 811.226
1067.441, 820.666
1067.923, 824.733
1068.405, 817.950
1068.887, 812.585
1069.369, 823.644
1069.851, 834.948
1070.334, 817.594
1070.816, 791.733
1071.298, 791.240
1071.780, 809.396
1072.262, 824.734
1072.744, 831.104
1073.226, 831.332
1073.708, 824.324
1074.190, 817.836
1074.673, 820.012
1075.155, 823.819
1075.637, 819.936
1076.119, 814.101
1076.601, 817.078
1077.083, 828.570
1077.565, 838.473
1078.047, 842.443
1078.530, 817.127
1079.012, 843.361
1079.494, 857.082
1079.976, 858.964
1080.458, 813.544
1080.940, 829.205
1081.422, 820.387
1081.904, 810.565
1082.386, 834.822
1082.869, 796.277
1083.351, 819.994
1083.833, 814.307
1084.315, 823.000
1084.797, 828.778
1085.279, 822.009
1085.761, 809.361
1086.243, 803.757
1086.725, 805.461
1087.208, 811.665
1087.690, 812.990
1088.172, 795.567
1088.654, 820.365
1089.136, 834.914
1089.618, 839.765
1090.100, 805.871
1090.582, 821.329
1091.065, 828.465
1091.547, 829.025
1092.029, 820.658
1092.511, 818.688
1092.993, 824.936
1093.475, 833.079
1093.957, 841.347
1094.439, 849.286
1094.922, 857.576
1095.404, 862.448
1095.886, 849.272
1096.368, 821.144
1096.850, 815.654
1097.332, 831.312
1097.814, 837.448
1098.296, 827.753
1098.778, 817.363
1099.260, 815.323
1099.743, 819.894
1100.225, 834.763
1100.707, 851.305
1101.189, 844.581
1101.671, 824.836
1102.153, 818.365
1102.635, 825.963
1103.117, 837.424
1103.600, 848.144
1104.082, 850.054
1104.564, 829.155
1105.046, 807.291
1105.528, 808.695
1106.010, 819.462
1106.492, 824.394
1106.974, 824.722
1107.457, 826.723
1107.939, 830.642
1108.421, 829.110
1108.903, 810.361
1109.385, 831.171
1109.867, 842.380
1110.349, 844.501
1110.831, 810.318
1111.313, 823.014
1111.796, 816.921
1112.278, 810.060
1112.760, 829.354
1113.242, 800.452
1113.724, 819.331
1114.206, 819.136
1114.688, 827.672
1115.170, 817.304
1115.652, 812.775
1116.135, 811.153
1116.617, 808.534
1117.099, 805.754
1117.581, 802.911
1118.063, 806.065
1118.545, 816.979
1119.027, 827.753
1119.509, 839.275
1119.992, 842.219
1120.474, 830.836
1120.956, 814.803
1121.438, 836.378
1121.920, 848.824
1122.402, 852.631
1122.884, 821.927
1123.366, 835.787
1123.849, 831.790
1124.331, 827.058
1124.813, 837.357
1125.295, 834.808
1125.777, 850.304
1126.259, 867.116
1126.741, 862.433
1127.223, 846.987
1127.705, 835.146
1128.188, 827.809
1128.670, 829.786
1129.152, 837.353
1129.634, 838.209
1130.116, 829.586
1130.598, 824.460
1131.080, 835.152
1131.562, 843.929
1132.044, 834.334
1132.527, 823.477
1133.009, 828.500
1133.491, 838.933
1133.973, 837.621
1134.455, 826.388
1134.937, 822.259
1135.419, 831.761
1135.901, 838.411
1136.384, 836.349
1136.866, 835.626
1137.348, 842.685
1137.830, 847.938
1138.312, 845.161
1138.794, 836.520
1139.276, 823.964
1139.758, 807.524
1140.240, 803.649
1140.723, 816.100
1141.205, 825.054
1141.687, 828.478
1142.169, 828.901
1142.651, 827.161
1143.133, 823.292
1143.615, 816.886
1144.097, 809.705
1144.579, 802.509
1145.062, 798.182
1145.544, 819.116
1146.026, 857.287
1146.508, 869.930
1146.990, 852.941
1147.472, 835.951
1147.954, 833.859
1148.436, 834.750
1148.919, 824.169
1149.401, 813.277
1149.883, 818.931
1150.365, 828.825
1150.847, 824.167
1151.329, 811.672
1151.811, 808.881
1152.293, 817.755
1152.776, 824.131
1153.258, 820.676
1153.740, 818.955
1154.222, 828.224
1154.704, 833.642
1155.186, 822.330
1155.668, 808.839
1156.150, 810.347
1156.632, 819.654
1157.115, 814.744
1157.597, 792.194
1158.079, 782.391
1158.561, 790.071
1159.043, 797.684
1159.525, 803.594
1160.007, 807.400
1160.489, 808.997
1160.971, 807.345
1161.454, 799.585
1161.936, 791.056
1162.418, 802.304
1162.900, 828.509
1163.382, 832.353
1163.864, 817.562
1164.346, 818.169
1164.828, 838.269
1165.311, 851.577
1165.793, 844.387
1166.275, 829.798
1166.757, 812.636
1167.239, 803.636
1167.721, 825.465
1168.203, 854.927
1168.685, 863.148
1169.167, 854.210
1169.650, 837.322
1170.132, 816.910
1170.614, 806.419
1171.096, 813.337
1171.578, 823.552
1172.060, 838.055
1172.542, 848.548
1173.024, 848.148
1173.506, 845.605
1173.989, 849.634
1174.471, 855.611
1174.953, 854.003
1175.435, 844.562
1175.917, 835.953
1176.399, 827.924
1176.881, 821.394
1177.363, 815.840
1177.846, 817.985
1178.328, 831.774
1178.810, 837.828
1179.292, 816.451
1179.774, 787.730
1180.256, 799.283
1180.738, 831.969
1181.220, 823.322
1181.703, 789.330
1182.185, 780.976
1182.667, 798.495
1183.149, 809.021
1183.631, 801.202
1184.113, 793.648
1184.595, 800.471
1185.077, 808.894
1185.559, 810.460
1186.042, 810.262
1186.524, 812.860
1187.006, 815.704
1187.488, 813.773
1187.970, 808.770
1188.452, 808.919
1188.934, 817.481
1189.416, 822.039
1189.898, 819.756
1190.381, 819.332
1190.863, 825.205
1191.345, 824.211
1191.827, 805.594
1192.309, 789.700
1192.791, 803.123
1193.273, 833.675
1193.755, 837.757
1194.238, 820.318
1194.720, 813.746
1195.202, 822.795
1195.684, 814.717
1196.166, 827.309
1196.648, 834.883
1197.130, 837.710
1197.612, 821.570
1198.094, 829.922
1198.577, 828.461
1199.059, 826.594
1199.541, 838.394
1200.023, 825.012
1200.505, 836.594
1200.987, 836.386
1201.469, 848.516
1201.951, 854.813
1202.433, 835.096
1202.916, 823.373
1203.398, 833.130
1203.880, 836.456
1204.362, 823.706
1204.844, 812.879
1205.326, 815.153
1205.808, 820.550
1206.290, 815.138
1206.773, 803.781
1207.255, 809.852
1207.737, 831.040
1208.219, 827.058
1208.701, 801.621
1209.183, 799.024
1209.665, 824.472
1210.147, 841.320
1210.630, 831.263
1211.112, 818.243
1211.594, 828.790
1212.076, 840.908
1212.558, 828.890
1213.040, 810.581
1213.522, 801.353
1214.004, 814.971
1214.486, 823.044
1214.969, 825.871
1215.451, 807.732
1215.933, 816.663
1216.415, 814.746
1216.897, 812.384
1217.379, 825.126
1217.861, 810.036
1218.343, 822.538
1218.825, 824.026
1219.308, 830.557
1219.790, 823.915
1220.272, 842.788
1220.754, 846.948
1221.236, 838.463
1221.718, 828.845
1222.200, 820.043
1222.682, 822.339
1223.165, 834.236
1223.647, 839.613
1224.129, 832.178
1224.611, 821.615
1225.093, 812.539
1225.575, 807.064
1226.057, 806.057
1226.539, 810.119
1227.021, 801.218
1227.504, 817.568
1227.986, 827.784
1228.468, 832.201
1228.950, 813.452
1229.432, 824.619
1229.914, 823.796
1230.396, 822.482
1230.878, 837.858
1231.360, 833.605
1231.843, 833.271
1232.325, 832.220
1232.807, 833.347
1233.289, 839.576
1233.771, 846.853
1234.253, 848.273
1234.735, 845.139
1235.217, 841.202
1235.700, 835.224
##END=



