##NAMES=Evansite
##RRUFFID=R061030
##IDEAL CHEMISTRY=Al_3_PO_4_(OH)_6_&#183;8H_2_O
##LOCALITY=Creu Olorde, Barcelona, Spain
##OWNER=RRUFF
##SOURCE=Michael Scott
##DESCRIPTION=Colorless to very pale blue transparent botryoidal crust. Sample is amorphous to X-rays.
##STATUS=The identification of this mineral is not yet confirmed.
##URL=rruff.info/R061030
162.9898, 4777.598
163.4719, 4801.664
163.9541, 4839.300
164.4362, 4905.778
164.9183, 4981.016
165.4004, 5039.258
165.8825, 5070.048
166.3646, 5084.046
166.8468, 5108.639
167.3289, 5157.271
167.8110, 5199.774
168.2931, 5231.569
168.7752, 5256.205
169.2573, 5279.615
169.7395, 5304.883
170.2216, 5327.702
170.7037, 5335.358
171.1858, 5314.888
171.6679, 5297.897
172.1500, 5294.528
172.6322, 5296.374
173.1143, 5288.736
173.5964, 5264.077
174.0785, 5230.769
174.5606, 5212.958
175.0427, 5228.678
175.5249, 5232.646
176.0070, 5203.941
176.4891, 5159.232
176.9712, 5127.073
177.4533, 5120.969
177.9354, 5131.470
178.4176, 5131.849
178.8997, 5116.758
179.3818, 5101.615
179.8639, 5090.319
180.3460, 5081.386
180.8281, 5071.831
181.3103, 5059.952
181.7924, 5047.544
182.2745, 5040.353
182.7566, 5042.909
183.2387, 5042.069
183.7208, 5027.942
184.2030, 5008.214
184.6851, 4998.359
185.1672, 5005.631
185.6493, 5024.402
186.1314, 5042.100
186.6135, 5064.349
187.0957, 5076.500
187.5778, 5064.695
188.0599, 5040.174
188.5420, 5026.660
189.0241, 5035.449
189.5062, 5056.567
189.9884, 5065.973
190.4705, 5060.494
190.9526, 5053.582
191.4347, 5047.814
191.9168, 5043.652
192.3989, 5041.432
192.8811, 5040.770
193.3632, 5043.329
193.8453, 5055.367
194.3274, 5084.464
194.8095, 5103.716
195.2916, 5099.049
195.7738, 5079.221
196.2559, 5059.617
196.7380, 5044.129
197.2201, 5034.524
197.7022, 5037.066
198.1843, 5055.447
198.6665, 5071.446
199.1486, 5076.791
199.6307, 5076.389
200.1128, 5080.918
200.5949, 5095.479
201.0770, 5111.739
201.5592, 5111.025
202.0413, 5088.377
202.5234, 5072.416
203.0055, 5076.344
203.4876, 5091.220
203.9697, 5102.772
204.4519, 5107.480
204.9340, 5105.739
205.4161, 5095.458
205.8982, 5074.514
206.3803, 5057.089
206.8624, 5047.290
207.3446, 5042.934
207.8267, 5043.250
208.3088, 5049.501
208.7909, 5053.711
209.2730, 5042.418
209.7551, 5014.194
210.2373, 4984.454
210.7194, 4951.033
211.2015, 4919.583
211.6836, 4898.997
212.1657, 4891.693
212.6479, 4891.289
213.1300, 4892.022
213.6121, 4895.065
214.0942, 4891.098
214.5763, 4870.397
215.0584, 4845.680
215.5406, 4832.763
216.0227, 4834.762
216.5048, 4842.489
216.9869, 4846.708
217.4690, 4847.259
217.9511, 4845.742
218.4333, 4837.436
218.9154, 4829.856
219.3975, 4833.880
219.8796, 4850.712
220.3617, 4866.071
220.8438, 4865.963
221.3260, 4848.344
221.8081, 4827.666
222.2902, 4796.016
222.7723, 4766.995
223.2544, 4754.335
223.7365, 4758.124
224.2187, 4764.526
224.7008, 4761.586
225.1829, 4748.542
225.6650, 4739.480
226.1471, 4737.284
226.6292, 4736.614
227.1114, 4735.311
227.5935, 4732.786
228.0756, 4727.847
228.5577, 4720.525
229.0398, 4710.078
229.5219, 4690.033
230.0041, 4646.527
230.4862, 4607.101
230.9683, 4586.096
231.4504, 4581.629
231.9325, 4585.552
232.4146, 4594.000
232.8968, 4606.321
233.3789, 4617.099
233.8610, 4632.899
234.3431, 4640.801
234.8252, 4630.875
235.3073, 4609.316
235.7895, 4589.209
236.2716, 4576.983
236.7537, 4572.376
237.2358, 4574.846
237.7179, 4600.406
238.2000, 4613.521
238.6822, 4593.298
239.1643, 4557.922
239.6464, 4538.418
240.1285, 4549.514
240.6106, 4578.927
241.0927, 4593.076
241.5749, 4582.069
242.0570, 4567.992
242.5391, 4544.661
243.0212, 4522.064
243.5033, 4515.699
243.9854, 4530.729
244.4676, 4553.334
244.9497, 4557.218
245.4318, 4520.484
245.9139, 4498.258
246.3960, 4500.511
246.8781, 4511.344
247.3603, 4518.012
247.8424, 4517.248
248.3245, 4512.791
248.8066, 4509.833
249.2887, 4509.993
249.7708, 4507.413
250.2530, 4499.761
250.7351, 4491.378
251.2172, 4484.325
251.6993, 4479.168
252.1814, 4476.217
252.6635, 4476.375
253.1457, 4480.926
253.6278, 4481.945
254.1099, 4476.753
254.5920, 4470.898
255.0741, 4465.766
255.5562, 4461.979
256.0384, 4460.444
256.5205, 4462.494
257.0026, 4468.253
257.4847, 4470.703
257.9668, 4468.794
258.4489, 4464.451
258.9311, 4454.170
259.4132, 4442.092
259.8953, 4435.182
260.3774, 4438.114
260.8595, 4449.662
261.3416, 4463.470
261.8238, 4482.814
262.3059, 4500.095
262.7880, 4514.622
263.2701, 4525.999
263.7522, 4534.781
264.2343, 4541.622
264.7165, 4543.923
265.1986, 4533.804
265.6807, 4503.480
266.1628, 4476.905
266.6449, 4456.125
267.1270, 4442.083
267.6092, 4438.079
268.0913, 4445.235
268.5734, 4456.031
269.0555, 4458.921
269.5376, 4451.420
270.0197, 4447.422
270.5019, 4453.266
270.9840, 4461.082
271.4661, 4466.406
271.9482, 4468.650
272.4303, 4470.111
272.9124, 4473.852
273.3946, 4479.744
273.8767, 4481.593
274.3588, 4476.589
274.8409, 4469.333
275.3230, 4461.891
275.8051, 4454.652
276.2873, 4449.167
276.7694, 4444.613
277.2515, 4442.315
277.7336, 4448.680
278.2157, 4469.086
278.6978, 4487.575
279.1800, 4490.284
279.6621, 4482.586
280.1442, 4476.695
280.6263, 4479.552
281.1084, 4485.509
281.5905, 4485.304
282.0727, 4477.985
282.5548, 4471.301
283.0369, 4468.469
283.5190, 4469.997
284.0011, 4477.345
284.4832, 4498.682
284.9654, 4517.271
285.4475, 4516.663
285.9296, 4499.633
286.4117, 4483.521
286.8938, 4474.933
287.3759, 4473.386
287.8581, 4478.656
288.3402, 4498.698
288.8223, 4509.203
289.3044, 4488.962
289.7865, 4453.227
290.2686, 4434.831
290.7508, 4446.052
291.2329, 4470.332
291.7150, 4480.765
292.1971, 4473.004
292.6792, 4467.045
293.1613, 4468.207
293.6435, 4470.911
294.1256, 4467.072
294.6077, 4455.908
295.0898, 4447.225
295.5719, 4453.055
296.0540, 4478.012
296.5362, 4491.944
297.0183, 4483.482
297.5004, 4474.602
297.9825, 4481.075
298.4646, 4499.383
298.9467, 4512.003
299.4289, 4503.062
299.9110, 4475.013
300.3931, 4479.422
300.8752, 4564.612
301.3573, 4627.294
301.8394, 4632.891
302.3216, 4603.162
302.8037, 4570.220
303.2858, 4549.634
303.7679, 4539.590
304.2500, 4535.506
304.7321, 4542.289
305.2143, 4547.574
305.6964, 4548.487
306.1785, 4548.626
306.6606, 4551.911
307.1427, 4559.086
307.6248, 4566.523
308.1070, 4568.467
308.5891, 4562.962
309.0712, 4559.849
309.5533, 4558.785
310.0354, 4561.165
310.5175, 4570.909
310.9997, 4586.077
311.4818, 4598.689
311.9639, 4600.436
312.4460, 4592.775
312.9281, 4590.070
313.4102, 4596.482
313.8924, 4601.551
314.3745, 4597.409
314.8566, 4588.695
315.3387, 4584.060
315.8208, 4587.143
316.3029, 4596.516
316.7851, 4613.689
317.2672, 4641.376
317.7493, 4659.891
318.2314, 4654.968
318.7135, 4637.105
319.1956, 4620.138
319.6778, 4603.729
320.1599, 4592.328
320.6420, 4590.871
321.1241, 4597.662
321.6062, 4604.559
322.0883, 4607.884
322.5705, 4612.109
323.0526, 4625.320
323.5347, 4648.407
324.0168, 4670.558
324.4989, 4686.534
324.9810, 4700.678
325.4632, 4721.884
325.9453, 4751.586
326.4274, 4775.794
326.9095, 4778.283
327.3916, 4755.569
327.8737, 4744.098
328.3559, 4755.031
328.8380, 4766.905
329.3201, 4763.864
329.8022, 4750.542
330.2843, 4743.997
330.7664, 4756.100
331.2486, 4782.500
331.7307, 4798.426
332.2128, 4794.812
332.6949, 4791.495
333.1770, 4790.239
333.6591, 4791.066
334.1413, 4795.967
334.6234, 4805.312
335.1055, 4813.375
335.5876, 4808.287
336.0698, 4778.789
336.5519, 4761.849
337.0340, 4771.831
337.5161, 4782.102
337.9982, 4773.062
338.4803, 4746.720
338.9625, 4721.787
339.4446, 4716.208
339.9267, 4729.337
340.4088, 4740.123
340.8909, 4748.632
341.3730, 4754.262
341.8552, 4756.662
342.3373, 4756.344
342.8194, 4753.809
343.3015, 4748.075
343.7836, 4741.757
344.2657, 4739.809
344.7479, 4742.860
345.2300, 4746.187
345.7121, 4747.325
346.1942, 4748.200
346.6763, 4750.856
347.1584, 4755.441
347.6406, 4761.945
348.1227, 4771.141
348.6048, 4782.356
349.0869, 4794.418
349.5690, 4808.244
350.0511, 4819.697
350.5333, 4822.226
351.0154, 4816.110
351.4975, 4810.519
351.9796, 4804.391
352.4617, 4801.208
352.9438, 4807.944
353.4260, 4823.213
353.9081, 4833.381
354.3902, 4826.923
354.8723, 4806.228
355.3544, 4798.594
355.8365, 4816.799
356.3187, 4830.648
356.8008, 4832.024
357.2829, 4823.630
357.7650, 4807.329
358.2471, 4783.844
358.7292, 4759.328
359.2114, 4745.856
359.6935, 4749.191
360.1756, 4753.960
360.6577, 4758.068
361.1398, 4764.941
361.6219, 4782.276
362.1041, 4806.796
362.5862, 4823.354
363.0683, 4813.995
363.5504, 4779.571
364.0325, 4762.329
364.5146, 4775.924
364.9968, 4788.892
365.4789, 4784.754
365.9610, 4773.759
366.4431, 4774.419
366.9252, 4799.733
367.4073, 4828.852
367.8895, 4824.344
368.3716, 4782.084
368.8537, 4748.146
369.3358, 4736.410
369.8179, 4741.309
370.3000, 4761.836
370.7822, 4800.922
371.2643, 4826.670
371.7464, 4810.385
372.2285, 4770.388
372.7106, 4745.518
373.1927, 4743.118
373.6749, 4746.432
374.1570, 4740.910
374.6391, 4726.497
375.1212, 4712.798
375.6033, 4697.654
376.0854, 4685.573
376.5676, 4683.317
377.0497, 4686.896
377.5318, 4684.217
378.0139, 4668.531
378.4960, 4643.750
378.9781, 4621.903
379.4603, 4601.891
379.9424, 4586.394
380.4245, 4583.270
380.9066, 4579.968
381.3887, 4562.651
381.8708, 4530.356
382.3530, 4495.943
382.8351, 4474.272
383.3172, 4467.357
383.7993, 4457.195
384.2814, 4438.425
384.7635, 4421.974
385.2457, 4413.843
385.7278, 4410.333
386.2099, 4403.622
386.6920, 4387.972
387.1741, 4370.185
387.6563, 4365.772
388.1384, 4378.050
388.6205, 4387.539
389.1026, 4388.366
389.5847, 4383.110
390.0668, 4372.072
390.5490, 4354.526
391.0311, 4340.158
391.5132, 4336.281
391.9953, 4339.698
392.4774, 4343.015
392.9595, 4344.888
393.4417, 4348.330
393.9238, 4358.286
394.4059, 4373.735
394.8880, 4380.525
395.3701, 4373.879
395.8522, 4362.208
396.3344, 4345.341
396.8165, 4327.123
397.2986, 4317.209
397.7807, 4320.578
398.2628, 4332.642
398.7449, 4342.718
399.2271, 4358.521
399.7092, 4359.747
400.1913, 4334.234
400.6734, 4303.381
401.1555, 4280.999
401.6376, 4269.497
402.1198, 4266.077
402.6019, 4269.499
403.0840, 4279.603
403.5661, 4287.288
404.0482, 4294.036
404.5303, 4296.078
405.0125, 4290.620
405.4946, 4280.924
405.9767, 4271.341
406.4588, 4263.558
406.9409, 4255.987
407.4230, 4244.950
407.9052, 4230.534
408.3873, 4221.639
408.8694, 4221.001
409.3515, 4226.194
409.8336, 4236.415
410.3157, 4251.291
410.7979, 4263.101
411.2800, 4267.500
411.7621, 4268.333
412.2442, 4269.434
412.7263, 4271.085
413.2084, 4273.151
413.6906, 4275.086
414.1727, 4277.422
414.6548, 4283.611
415.1369, 4292.606
415.6190, 4305.783
416.1011, 4329.649
416.5833, 4355.104
417.0654, 4370.411
417.5475, 4372.930
418.0296, 4369.591
418.5117, 4368.307
418.9938, 4368.553
419.4760, 4373.693
419.9581, 4391.222
420.4402, 4406.333
420.9223, 4409.426
421.4044, 4407.068
421.8865, 4412.410
422.3687, 4433.566
422.8508, 4462.763
423.3329, 4485.381
423.8150, 4500.881
424.2971, 4513.284
424.7792, 4520.954
425.2614, 4527.957
425.7435, 4537.823
426.2256, 4550.630
426.7077, 4565.653
427.1898, 4584.208
427.6719, 4603.991
428.1541, 4621.279
428.6362, 4635.675
429.1183, 4649.129
429.6004, 4662.371
430.0825, 4675.903
430.5646, 4693.070
431.0468, 4713.872
431.5289, 4737.773
432.0110, 4769.515
432.4931, 4802.405
432.9752, 4827.416
433.4573, 4841.986
433.9395, 4849.543
434.4216, 4852.611
434.9037, 4846.547
435.3858, 4856.020
435.8679, 4893.338
436.3500, 4933.949
436.8322, 4972.511
437.3143, 5007.582
437.7964, 5037.437
438.2785, 5060.758
438.7606, 5080.000
439.2427, 5099.852
439.7249, 5120.580
440.2070, 5140.236
440.6891, 5158.840
441.1712, 5175.608
441.6533, 5191.723
442.1354, 5207.198
442.6176, 5215.175
443.0997, 5204.180
443.5818, 5188.099
444.0639, 5185.967
444.5460, 5198.662
445.0281, 5217.903
445.5103, 5240.578
445.9924, 5264.735
446.4745, 5280.324
446.9566, 5285.660
447.4387, 5286.088
447.9208, 5283.162
448.4030, 5275.454
448.8851, 5256.534
449.3672, 5227.630
449.8493, 5203.395
450.3314, 5202.149
450.8135, 5226.200
451.2957, 5241.650
451.7778, 5247.403
452.2599, 5245.157
452.7420, 5229.056
453.2241, 5207.717
453.7062, 5193.849
454.1884, 5192.933
454.6705, 5196.301
455.1526, 5191.226
455.6347, 5178.855
456.1168, 5176.367
456.5989, 5190.395
457.0811, 5209.719
457.5632, 5222.773
458.0453, 5230.623
458.5274, 5240.087
459.0095, 5251.729
459.4916, 5266.099
459.9738, 5286.974
460.4559, 5311.376
460.9380, 5330.297
461.4201, 5339.510
461.9022, 5340.659
462.3843, 5337.188
462.8665, 5325.556
463.3486, 5315.456
463.8307, 5313.132
464.3128, 5307.233
464.7949, 5292.572
465.2770, 5268.007
465.7592, 5232.337
466.2413, 5182.865
466.7234, 5123.510
467.2055, 5066.758
467.6876, 5011.290
468.1697, 4962.518
468.6519, 4930.160
469.1340, 4900.350
469.6161, 4856.316
470.0982, 4795.334
470.5803, 4743.626
471.0624, 4726.341
471.5446, 4724.307
472.0267, 4702.600
472.5088, 4657.762
472.9909, 4609.212
473.4730, 4568.180
473.9551, 4534.599
474.4373, 4509.038
474.9194, 4497.557
475.4015, 4484.805
475.8836, 4465.458
476.3657, 4444.521
476.8478, 4428.820
477.3300, 4418.876
477.8121, 4408.193
478.2942, 4389.001
478.7763, 4360.978
479.2584, 4337.839
479.7405, 4322.802
480.2227, 4308.213
480.7048, 4289.148
481.1869, 4269.956
481.6690, 4256.983
482.1511, 4252.551
482.6332, 4250.760
483.1154, 4248.881
483.5975, 4245.565
484.0796, 4232.126
484.5617, 4203.224
485.0438, 4179.620
485.5259, 4184.706
486.0081, 4216.107
486.4902, 4228.899
486.9723, 4204.917
487.4544, 4180.991
487.9365, 4172.718
488.4186, 4174.972
488.9008, 4181.180
489.3829, 4188.727
489.8650, 4193.939
490.3471, 4190.885
490.8292, 4177.427
491.3113, 4166.330
491.7935, 4161.583
492.2756, 4155.035
492.7577, 4142.741
493.2398, 4127.145
493.7219, 4111.656
494.2040, 4096.813
494.6862, 4085.296
495.1683, 4082.138
495.6504, 4086.371
496.1325, 4089.226
496.6146, 4089.153
497.0967, 4086.779
497.5789, 4081.049
498.0610, 4072.421
498.5431, 4068.117
499.0252, 4075.331
499.5073, 4080.623
499.9895, 4071.318
500.4716, 4055.282
500.9537, 4050.191
501.4358, 4062.725
501.9179, 4081.525
502.4001, 4088.662
502.8822, 4081.373
503.3643, 4071.796
503.8464, 4053.548
504.3285, 4039.548
504.8106, 4038.762
505.2928, 4045.002
505.7749, 4045.432
506.2570, 4032.731
506.7391, 4017.817
507.2212, 4015.304
507.7033, 4024.198
508.1855, 4035.099
508.6676, 4047.820
509.1497, 4057.771
509.6318, 4055.749
510.1139, 4042.736
510.5960, 4043.221
511.0782, 4072.977
511.5603, 4103.168
512.0424, 4120.371
512.5245, 4126.201
513.0066, 4121.218
513.4887, 4105.989
513.9708, 4090.988
514.4529, 4094.049
514.9351, 4121.381
515.4172, 4141.120
515.8993, 4148.671
516.3814, 4152.883
516.8635, 4156.394
517.3456, 4158.816
517.8278, 4158.717
518.3099, 4154.786
518.7920, 4150.573
519.2741, 4150.094
519.7562, 4152.781
520.2383, 4154.709
520.7205, 4153.757
521.2026, 4156.966
521.6847, 4174.430
522.1668, 4206.027
522.6489, 4224.245
523.1310, 4223.797
523.6132, 4215.741
524.0953, 4197.130
524.5774, 4176.323
525.0595, 4166.849
525.5416, 4172.117
526.0237, 4180.743
526.5059, 4176.859
526.9880, 4158.810
527.4701, 4151.150
527.9522, 4162.243
528.4343, 4171.771
528.9164, 4169.998
529.3986, 4162.654
529.8807, 4158.768
530.3628, 4162.257
530.8449, 4161.770
531.3270, 4144.919
531.8091, 4118.572
532.2913, 4097.848
532.7734, 4085.191
533.2555, 4075.126
533.7376, 4062.641
534.2197, 4048.646
534.7018, 4042.783
535.1840, 4055.579
535.6661, 4062.158
536.1482, 4053.798
536.6303, 4040.236
537.1124, 4029.995
537.5945, 4024.720
538.0767, 4022.409
538.5588, 4022.199
539.0409, 4023.378
539.5230, 4022.826
540.0051, 4021.111
540.4872, 4015.683
540.9694, 4004.285
541.4515, 3989.252
541.9336, 3973.756
542.4157, 3958.059
542.8978, 3941.246
543.3799, 3920.755
543.8621, 3900.498
544.3442, 3882.045
544.8263, 3867.074
545.3084, 3863.368
545.7905, 3877.104
546.2726, 3898.743
546.7548, 3900.495
547.2369, 3866.346
547.7190, 3843.894
548.2011, 3843.983
548.6832, 3846.712
549.1653, 3842.395
549.6475, 3831.424
550.1296, 3817.483
550.6117, 3801.581
551.0938, 3785.012
551.5759, 3767.685
552.0580, 3750.335
552.5402, 3741.844
553.0223, 3746.717
553.5044, 3755.356
553.9865, 3758.399
554.4686, 3755.419
554.9507, 3745.788
555.4329, 3719.342
555.9150, 3697.308
556.3971, 3692.424
556.8792, 3696.264
557.3613, 3695.780
557.8434, 3687.012
558.3256, 3675.629
558.8077, 3666.455
559.2898, 3659.374
559.7719, 3664.041
560.2540, 3687.229
560.7361, 3709.300
561.2183, 3721.480
561.7004, 3726.490
562.1825, 3726.876
562.6646, 3722.842
563.1467, 3714.551
563.6288, 3694.125
564.1110, 3673.374
564.5931, 3674.138
565.0752, 3694.657
565.5573, 3707.297
566.0394, 3691.990
566.5215, 3657.387
567.0037, 3637.000
567.4858, 3641.616
567.9679, 3641.694
568.4500, 3626.868
568.9321, 3614.535
569.4142, 3620.680
569.8964, 3640.185
570.3785, 3652.644
570.8606, 3642.972
571.3427, 3625.940
571.8248, 3622.407
572.3069, 3630.931
572.7891, 3642.986
573.2712, 3658.166
573.7533, 3668.989
574.2354, 3664.206
574.7175, 3640.670
575.1996, 3629.781
575.6818, 3637.775
576.1639, 3650.449
576.6460, 3666.470
577.1281, 3682.661
577.6102, 3694.792
578.0923, 3701.977
578.5745, 3707.871
579.0566, 3716.864
579.5387, 3728.408
580.0208, 3737.536
580.5029, 3743.881
580.9850, 3748.765
581.4672, 3750.893
581.9493, 3752.984
582.4315, 3761.481
582.9136, 3780.492
583.3957, 3790.655
583.8778, 3774.435
584.3599, 3756.119
584.8420, 3759.908
585.3242, 3781.890
585.8063, 3803.135
586.2884, 3813.331
586.7705, 3817.725
587.2526, 3828.257
587.7347, 3847.220
588.2169, 3863.481
588.6990, 3876.195
589.1811, 3885.931
589.6632, 3890.759
590.1453, 3893.296
590.6274, 3900.281
591.1096, 3917.656
591.5917, 3932.299
592.0738, 3930.975
592.5559, 3921.813
593.0380, 3920.734
593.5201, 3930.268
594.0023, 3941.541
594.4844, 3946.068
594.9665, 3945.874
595.4486, 3957.908
595.9307, 3990.952
596.4128, 4022.347
596.8950, 4050.189
597.3771, 4074.691
597.8592, 4097.509
598.3413, 4117.465
598.8234, 4129.190
599.3055, 4125.589
599.7877, 4115.429
600.2698, 4108.171
600.7519, 4104.263
601.2340, 4106.300
601.7161, 4115.360
602.1982, 4129.402
602.6804, 4146.543
603.1625, 4167.170
603.6446, 4187.699
604.1267, 4216.854
604.6088, 4235.573
605.0909, 4229.227
605.5731, 4214.903
606.0552, 4212.217
606.5373, 4225.094
607.0194, 4243.430
607.5015, 4259.907
607.9836, 4274.947
608.4658, 4291.911
608.9479, 4311.150
609.4300, 4322.588
609.9121, 4321.199
610.3942, 4310.446
610.8763, 4294.681
611.3585, 4269.087
611.8406, 4254.457
612.3227, 4259.863
612.8048, 4267.560
613.2869, 4270.423
613.7690, 4268.662
614.2512, 4264.173
614.7333, 4257.632
615.2154, 4247.574
615.6975, 4227.734
616.1796, 4200.861
616.6617, 4189.123
617.1439, 4196.820
617.6260, 4206.371
618.1081, 4210.749
618.5902, 4208.921
619.0723, 4195.601
619.5544, 4158.547
620.0366, 4141.489
620.5187, 4177.072
621.0008, 4213.423
621.4829, 4207.710
621.9650, 4170.907
622.4471, 4136.641
622.9293, 4121.721
623.4114, 4117.069
623.8935, 4110.323
624.3756, 4101.479
624.8577, 4085.104
625.3398, 4056.095
625.8220, 4030.793
626.3041, 4022.023
626.7862, 4025.135
627.2683, 4025.081
627.7504, 4022.315
628.2325, 4015.353
628.7147, 4000.083
629.1968, 3983.205
629.6789, 3969.321
630.1610, 3959.498
630.6431, 3957.354
631.1252, 3967.064
631.6074, 3976.012
632.0895, 3951.182
632.5716, 3888.335
633.0537, 3848.857
633.5358, 3849.174
634.0179, 3859.656
634.5001, 3863.751
634.9822, 3860.837
635.4643, 3848.417
635.9464, 3817.630
636.4285, 3790.400
636.9106, 3774.336
637.3928, 3764.975
637.8749, 3759.852
638.3570, 3757.134
638.8391, 3753.224
639.3212, 3745.870
639.8033, 3735.319
640.2855, 3720.569
640.7676, 3700.473
641.2497, 3686.660
641.7318, 3683.456
642.2139, 3683.085
642.6960, 3683.595
643.1782, 3682.446
643.6603, 3669.425
644.1424, 3627.108
644.6245, 3595.318
645.1066, 3598.258
645.5887, 3611.448
646.0709, 3606.878
646.5530, 3584.981
647.0351, 3565.620
647.5172, 3562.870
647.9993, 3570.377
648.4814, 3575.469
648.9636, 3579.094
649.4457, 3567.674
649.9278, 3528.126
650.4099, 3491.720
650.8920, 3490.798
651.3741, 3516.690
651.8563, 3528.504
652.3384, 3511.425
652.8205, 3496.035
653.3026, 3490.892
653.7847, 3491.850
654.2668, 3498.637
654.7490, 3508.052
655.2311, 3510.760
655.7132, 3499.333
656.1953, 3480.341
656.6774, 3467.639
657.1595, 3461.372
657.6417, 3455.629
658.1238, 3448.017
658.6059, 3444.046
659.0880, 3450.986
659.5701, 3466.242
660.0522, 3473.604
660.5344, 3473.625
661.0165, 3465.317
661.4986, 3438.710
661.9807, 3411.012
662.4628, 3399.414
662.9449, 3401.458
663.4271, 3403.149
663.9092, 3396.756
664.3913, 3383.937
664.8734, 3363.833
665.3555, 3337.665
665.8376, 3320.237
666.3198, 3314.114
666.8019, 3317.703
667.2840, 3335.650
667.7661, 3362.287
668.2482, 3366.954
668.7303, 3329.217
669.2125, 3300.110
669.6946, 3287.801
670.1767, 3282.229
670.6588, 3278.155
671.1409, 3274.614
671.6230, 3272.253
672.1052, 3272.378
672.5873, 3269.945
673.0694, 3251.351
673.5515, 3224.192
674.0336, 3222.769
674.5157, 3253.043
674.9979, 3281.291
675.4800, 3284.491
675.9621, 3269.657
676.4442, 3260.080
676.9263, 3259.232
677.4084, 3257.935
677.8906, 3264.193
678.3727, 3262.128
678.8548, 3236.448
679.3369, 3198.031
679.8190, 3168.224
680.3011, 3154.931
680.7833, 3146.724
681.2654, 3134.529
681.7475, 3120.931
682.2296, 3111.265
682.7117, 3105.534
683.1938, 3100.376
683.6760, 3094.160
684.1581, 3086.548
684.6402, 3076.643
685.1223, 3064.021
685.6044, 3050.525
686.0865, 3032.811
686.5687, 3018.510
687.0508, 3010.971
687.5329, 3008.241
688.0150, 3008.238
688.4971, 3011.036
688.9792, 3013.716
689.4614, 3019.645
689.9435, 3021.210
690.4256, 3005.986
690.9077, 2979.809
691.3898, 2960.256
691.8719, 2954.198
692.3541, 2952.710
692.8362, 2942.447
693.3183, 2923.421
693.8004, 2914.658
694.2825, 2921.455
694.7646, 2923.344
695.2468, 2909.354
695.7289, 2889.055
696.2110, 2874.916
696.6931, 2867.024
697.1752, 2861.281
697.6573, 2857.001
698.1395, 2854.755
698.6216, 2858.949
699.1037, 2863.500
699.5858, 2858.387
700.0679, 2842.712
700.5500, 2826.254
701.0322, 2818.170
701.5143, 2815.161
701.9964, 2809.640
702.4785, 2801.605
702.9606, 2788.621
703.4427, 2767.854
703.9249, 2749.190
704.4070, 2743.785
704.8891, 2751.224
705.3712, 2755.150
705.8533, 2758.385
706.3354, 2754.358
706.8176, 2734.702
707.2997, 2713.501
707.7818, 2701.594
708.2639, 2698.211
708.7460, 2697.164
709.2281, 2696.208
709.7103, 2695.270
710.1924, 2694.146
710.6745, 2693.003
711.1566, 2692.914
711.6387, 2693.744
712.1208, 2692.168
712.6030, 2685.305
713.0851, 2676.018
713.5672, 2673.221
714.0493, 2680.305
714.5314, 2682.673
715.0135, 2678.095
715.4957, 2670.421
715.9778, 2658.340
716.4599, 2645.590
716.9420, 2638.734
717.4241, 2638.890
717.9063, 2643.703
718.3884, 2661.108
718.8705, 2675.458
719.3526, 2671.227
719.8347, 2653.444
720.3168, 2633.569
720.7990, 2616.192
721.2811, 2603.266
721.7632, 2598.081
722.2453, 2599.661
722.7274, 2603.010
723.2095, 2608.314
723.6917, 2612.923
724.1738, 2615.693
724.6559, 2617.503
725.1380, 2619.392
725.6201, 2621.304
726.1022, 2623.873
726.5844, 2633.926
727.0665, 2636.047
727.5486, 2619.076
728.0307, 2597.734
728.5128, 2585.354
728.9949, 2582.939
729.4771, 2583.761
729.9592, 2584.658
730.4413, 2586.769
730.9234, 2593.818
731.4055, 2602.509
731.8876, 2604.186
732.3698, 2597.739
732.8519, 2590.510
733.3340, 2588.833
733.8161, 2589.007
734.2982, 2575.134
734.7803, 2539.198
735.2625, 2524.816
735.7446, 2548.552
736.2267, 2576.348
736.7088, 2588.262
737.1909, 2588.334
737.6730, 2584.949
738.1552, 2577.325
738.6373, 2569.201
739.1194, 2557.769
739.6015, 2549.544
740.0836, 2550.681
740.5657, 2558.075
741.0479, 2565.594
741.5300, 2571.104
742.0121, 2576.512
742.4942, 2587.361
742.9763, 2598.590
743.4584, 2595.302
743.9406, 2578.278
744.4227, 2560.041
744.9048, 2544.178
745.3869, 2534.552
745.8690, 2536.701
746.3511, 2550.904
746.8333, 2566.539
747.3154, 2593.562
747.7975, 2605.208
748.2796, 2578.905
748.7617, 2549.661
749.2438, 2546.193
749.7260, 2564.089
750.2081, 2576.998
750.6902, 2577.034
751.1723, 2572.138
751.6544, 2559.392
752.1365, 2548.331
752.6187, 2554.188
753.1008, 2573.306
753.5829, 2588.168
754.0650, 2589.122
754.5471, 2581.083
755.0292, 2568.599
755.5114, 2552.988
755.9935, 2543.402
756.4756, 2540.991
756.9577, 2541.153
757.4398, 2542.338
757.9219, 2543.373
758.4041, 2541.973
758.8862, 2537.518
759.3683, 2533.171
759.8504, 2524.989
760.3325, 2521.793
760.8146, 2532.920
761.2968, 2545.539
761.7789, 2542.986
762.2610, 2525.401
762.7431, 2514.031
763.2252, 2523.377
763.7073, 2535.805
764.1895, 2539.698
764.6716, 2537.852
765.1537, 2534.047
765.6358, 2529.283
766.1179, 2523.694
766.6000, 2517.043
767.0822, 2510.563
767.5643, 2505.423
768.0464, 2501.948
768.5285, 2509.050
769.0106, 2530.807
769.4927, 2545.240
769.9749, 2534.557
770.4570, 2512.098
770.9391, 2512.067
771.4212, 2551.770
771.9033, 2569.536
772.3854, 2544.324
772.8676, 2522.284
773.3497, 2522.684
773.8318, 2532.784
774.3139, 2536.689
774.7960, 2532.253
775.2781, 2526.951
775.7603, 2521.094
776.2424, 2518.417
776.7245, 2525.997
777.2066, 2537.004
777.6887, 2538.755
778.1708, 2530.276
778.6530, 2522.530
779.1351, 2524.262
779.6172, 2530.977
780.0993, 2533.625
780.5814, 2532.375
781.0635, 2527.828
781.5457, 2519.226
782.0278, 2514.643
782.5099, 2521.651
782.9920, 2533.445
783.4741, 2530.100
783.9562, 2498.872
784.4384, 2485.600
784.9205, 2503.218
785.4026, 2523.626
785.8847, 2540.260
786.3668, 2552.512
786.8489, 2559.090
787.3311, 2559.781
787.8132, 2558.903
788.2953, 2556.268
788.7774, 2554.207
789.2595, 2553.460
789.7416, 2554.565
790.2238, 2560.844
790.7059, 2570.695
791.1880, 2574.744
791.6701, 2564.749
792.1522, 2549.764
792.6343, 2543.486
793.1165, 2544.855
793.5986, 2551.672
794.0807, 2563.466
794.5628, 2570.953
795.0449, 2567.916
795.5270, 2558.875
796.0092, 2554.204
796.4913, 2555.908
796.9734, 2551.358
797.4555, 2531.337
797.9376, 2522.390
798.4197, 2551.162
798.9019, 2585.167
799.3840, 2578.360
799.8661, 2529.487
800.3482, 2494.218
800.8303, 2482.308
801.3124, 2482.339
801.7946, 2501.562
802.2767, 2522.670
802.7588, 2525.541
803.2409, 2513.805
803.7230, 2509.308
804.2051, 2525.647
804.6873, 2543.408
805.1694, 2539.768
805.6515, 2526.724
806.1336, 2528.224
806.6157, 2542.844
807.0978, 2551.888
807.5800, 2546.476
808.0621, 2536.129
808.5442, 2535.239
809.0263, 2542.895
809.5084, 2545.096
809.9905, 2540.327
810.4727, 2540.558
810.9548, 2551.751
811.4369, 2564.787
811.9190, 2571.013
812.4011, 2570.433
812.8832, 2563.291
813.3654, 2539.558
813.8475, 2524.278
814.3296, 2524.354
814.8117, 2528.307
815.2938, 2530.559
815.7759, 2531.390
816.2581, 2532.575
816.7402, 2535.176
817.2223, 2535.345
817.7044, 2526.404
818.1865, 2519.090
818.6686, 2525.933
819.1508, 2539.493
819.6329, 2545.442
820.1150, 2540.554
820.5971, 2533.779
821.0792, 2533.017
821.5613, 2534.410
822.0435, 2529.031
822.5256, 2519.700
823.0077, 2519.658
823.4898, 2530.875
823.9719, 2539.043
824.4540, 2533.547
824.9362, 2519.593
825.4183, 2510.138
825.9004, 2505.538
826.3825, 2502.436
826.8646, 2499.907
827.3467, 2501.554
827.8289, 2512.725
828.3110, 2525.232
828.7931, 2525.128
829.2752, 2509.579
829.7573, 2500.357
830.2394, 2502.311
830.7216, 2504.091
831.2037, 2503.689
831.6858, 2501.824
832.1679, 2495.076
832.6500, 2487.108
833.1321, 2491.194
833.6143, 2519.229
834.0964, 2542.590
834.5785, 2542.698
835.0606, 2534.108
835.5427, 2529.680
836.0248, 2529.036
836.5070, 2527.346
836.9891, 2523.108
837.4712, 2520.864
837.9533, 2526.196
838.4354, 2536.005
838.9175, 2547.233
839.3997, 2557.823
839.8818, 2556.246
840.3639, 2540.282
840.8460, 2526.663
841.3281, 2530.121
841.8102, 2543.677
842.2924, 2544.677
842.7745, 2530.781
843.2566, 2527.438
843.7387, 2540.773
844.2208, 2550.870
844.7029, 2543.479
845.1851, 2531.866
845.6672, 2541.707
846.1493, 2580.193
846.6314, 2600.578
847.1135, 2591.485
847.5956, 2578.514
848.0778, 2557.522
848.5599, 2541.748
849.0420, 2545.680
849.5241, 2565.133
850.0062, 2581.283
850.4883, 2591.807
850.9705, 2595.368
851.4526, 2584.427
851.9347, 2572.700
852.4168, 2572.967
852.8989, 2580.491
853.3810, 2584.351
853.8632, 2581.451
854.3453, 2577.989
854.8274, 2581.125
855.3095, 2584.437
855.7916, 2575.322
856.2737, 2560.942
856.7559, 2561.571
857.2380, 2578.440
857.7201, 2590.652
858.2022, 2582.396
858.6843, 2565.819
859.1664, 2565.368
859.6486, 2578.798
860.1307, 2588.979
860.6128, 2594.741
861.0949, 2592.401
861.5770, 2578.579
862.0591, 2563.075
862.5413, 2560.328
863.0234, 2570.189
863.5055, 2575.228
863.9876, 2570.979
864.4697, 2575.378
864.9518, 2601.256
865.4340, 2623.253
865.9161, 2618.311
866.3982, 2594.144
866.8803, 2579.539
867.3624, 2576.247
867.8445, 2578.343
868.3267, 2594.641
868.8088, 2605.944
869.2909, 2596.907
869.7730, 2582.713
870.2551, 2587.193
870.7372, 2610.447
871.2194, 2618.327
871.7015, 2582.377
872.1836, 2548.343
872.6657, 2540.979
873.1478, 2545.440
873.6299, 2543.984
874.1121, 2540.175
874.5942, 2553.406
875.0763, 2593.698
875.5584, 2626.920
876.0405, 2616.030
876.5226, 2585.713
877.0048, 2567.176
877.4869, 2560.114
877.9690, 2560.857
878.4511, 2567.654
878.9332, 2577.008
879.4153, 2587.240
879.8975, 2595.433
880.3796, 2594.439
880.8617, 2585.486
881.3438, 2574.445
881.8259, 2562.062
882.3080, 2552.914
882.7902, 2549.655
883.2723, 2549.013
883.7544, 2545.761
884.2365, 2539.994
884.7186, 2537.905
885.2007, 2540.946
885.6829, 2540.779
886.1650, 2532.659
886.6471, 2527.290
887.1292, 2536.418
887.6113, 2554.315
888.0934, 2558.140
888.5756, 2535.931
889.0577, 2525.380
889.5398, 2537.659
890.0219, 2547.420
890.5040, 2541.591
890.9861, 2531.064
891.4683, 2529.313
891.9504, 2536.394
892.4325, 2539.088
892.9146, 2528.897
893.3967, 2523.232
893.8788, 2530.966
894.3610, 2540.932
894.8431, 2545.714
895.3252, 2545.893
895.8073, 2542.121
896.2894, 2533.321
896.7715, 2532.396
897.2537, 2559.156
897.7358, 2582.358
898.2179, 2569.952
898.7000, 2543.573
899.1821, 2538.486
899.6642, 2554.843
900.1464, 2564.527
900.6285, 2549.916
901.1106, 2529.608
901.5927, 2521.437
902.0748, 2520.752
902.5569, 2520.111
903.0391, 2519.873
903.5212, 2524.532
904.0033, 2535.170
904.4854, 2545.391
904.9675, 2548.771
905.4496, 2547.797
905.9318, 2548.182
906.4139, 2549.407
906.8960, 2547.749
907.3781, 2542.973
907.8602, 2541.556
908.3423, 2547.548
908.8245, 2556.365
909.3066, 2560.242
909.7887, 2559.426
910.2708, 2559.347
910.7529, 2560.265
911.2351, 2559.047
911.7172, 2554.413
912.1993, 2549.233
912.6815, 2545.939
913.1636, 2544.086
913.6457, 2541.813
914.1278, 2538.367
914.6099, 2537.372
915.0920, 2539.316
915.5742, 2543.049
916.0563, 2549.185
916.5384, 2555.733
917.0205, 2560.494
917.5026, 2563.491
917.9847, 2564.220
918.4669, 2561.213
918.9490, 2558.261
919.4311, 2554.611
919.9132, 2552.213
920.3953, 2553.709
920.8774, 2556.534
921.3596, 2555.819
921.8417, 2550.561
922.3238, 2546.637
922.8059, 2540.222
923.2880, 2541.234
923.7701, 2557.572
924.2523, 2578.800
924.7344, 2601.184
925.2165, 2620.361
925.6986, 2625.377
926.1807, 2608.720
926.6628, 2594.716
927.1450, 2594.948
927.6271, 2598.600
928.1092, 2597.154
928.5913, 2595.258
929.0734, 2602.046
929.5555, 2616.427
930.0377, 2625.259
930.5198, 2617.772
931.0019, 2612.445
931.4840, 2628.033
931.9661, 2648.639
932.4482, 2658.557
932.9304, 2658.137
933.4125, 2649.150
933.8946, 2633.456
934.3767, 2620.049
934.8588, 2613.547
935.3409, 2615.631
935.8231, 2636.258
936.3052, 2663.520
936.7873, 2673.804
937.2694, 2667.909
937.7515, 2660.935
938.2336, 2659.671
938.7158, 2660.502
939.1979, 2658.250
939.6800, 2655.695
940.1621, 2662.394
940.6442, 2674.327
941.1263, 2674.095
941.6085, 2660.129
942.0906, 2649.745
942.5727, 2653.865
943.0548, 2666.752
943.5369, 2682.766
944.0190, 2699.603
944.5012, 2701.160
944.9833, 2689.056
945.4654, 2692.161
945.9475, 2718.903
946.4296, 2744.344
946.9117, 2746.128
947.3939, 2734.636
947.8760, 2738.856
948.3581, 2758.464
948.8402, 2769.427
949.3223, 2769.215
949.8044, 2775.202
950.2866, 2795.294
950.7687, 2817.281
951.2508, 2826.829
951.7329, 2827.154
952.2150, 2837.828
952.6971, 2861.428
953.1793, 2877.373
953.6614, 2881.122
954.1435, 2886.938
954.6256, 2902.212
955.1077, 2921.888
955.5898, 2937.494
956.0720, 2949.386
956.5541, 2974.976
957.0362, 3023.517
957.5183, 3055.544
958.0004, 3055.103
958.4825, 3058.533
958.9647, 3089.363
959.4468, 3135.884
959.9289, 3176.942
960.4110, 3212.971
960.8931, 3238.834
961.3752, 3241.203
961.8574, 3259.144
962.3395, 3303.970
962.8216, 3360.988
963.3037, 3418.920
963.7858, 3482.073
964.2679, 3564.185
964.7501, 3677.344
965.2322, 3770.619
965.7143, 3830.734
966.1964, 3889.346
966.6785, 3936.595
967.1606, 4000.128
967.6428, 4108.236
968.1249, 4251.513
968.6070, 4393.626
969.0891, 4522.924
969.5712, 4675.601
970.0533, 4864.595
970.5355, 5062.716
971.0176, 5248.157
971.4997, 5447.359
971.9818, 5692.644
972.4639, 5976.183
972.9460, 6259.716
973.4282, 6532.347
973.9103, 6816.678
974.3924, 7118.252
974.8745, 7427.033
975.3566, 7753.023
975.8387, 8075.113
976.3209, 8366.208
976.8030, 8628.779
977.2851, 8901.382
977.7672, 9215.483
978.2493, 9505.612
978.7314, 9759.071
979.2136, 9982.630
979.6957, 10185.79
980.1778, 10359.65
980.6599, 10492.16
981.1420, 10582.07
981.6241, 10632.75
982.1063, 10648.09
982.5884, 10620.32
983.0705, 10538.53
983.5526, 10421.70
984.0347, 10280.05
984.5168, 10113.55
984.9990, 9920.306
985.4811, 9700.677
985.9632, 9454.164
986.4453, 9148.496
986.9274, 8860.199
987.4095, 8643.417
987.8917, 8435.474
988.3738, 8178.496
988.8559, 7896.931
989.3380, 7636.450
989.8201, 7406.503
990.3022, 7190.087
990.7844, 6980.276
991.2665, 6783.631
991.7486, 6599.176
992.2307, 6431.584
992.7128, 6281.000
993.1949, 6151.350
993.6771, 6055.133
994.1592, 5995.519
994.6413, 5935.316
995.1234, 5854.774
995.6055, 5774.935
996.0876, 5691.376
996.5698, 5625.743
997.0519, 5609.227
997.5340, 5624.381
998.0161, 5632.967
998.4982, 5625.668
998.9803, 5609.292
999.4625, 5572.835
999.9446, 5544.984
1000.427, 5544.407
1000.909, 5557.596
1001.391, 5579.373
1001.873, 5601.631
1002.355, 5608.433
1002.837, 5594.705
1003.319, 5580.729
1003.802, 5570.180
1004.284, 5568.368
1004.766, 5592.552
1005.248, 5615.598
1005.730, 5605.044
1006.212, 5571.160
1006.694, 5545.976
1007.176, 5538.876
1007.658, 5527.188
1008.141, 5488.333
1008.623, 5457.191
1009.105, 5465.996
1009.587, 5482.403
1010.069, 5470.444
1010.551, 5438.362
1011.033, 5415.977
1011.515, 5412.548
1011.997, 5402.957
1012.480, 5366.798
1012.962, 5333.550
1013.444, 5321.804
1013.926, 5318.112
1014.408, 5312.520
1014.890, 5302.409
1015.372, 5286.660
1015.854, 5265.447
1016.337, 5233.103
1016.819, 5164.595
1017.301, 5112.465
1017.783, 5123.960
1018.265, 5145.838
1018.747, 5125.432
1019.229, 5074.677
1019.711, 5031.375
1020.193, 5003.802
1020.676, 4982.059
1021.158, 4971.224
1021.640, 4955.101
1022.122, 4922.027
1022.604, 4884.728
1023.086, 4852.774
1023.568, 4826.187
1024.050, 4804.237
1024.532, 4788.122
1025.015, 4764.773
1025.497, 4719.623
1025.979, 4681.150
1026.461, 4672.843
1026.943, 4662.912
1027.425, 4613.784
1027.907, 4547.373
1028.389, 4515.094
1028.872, 4528.166
1029.354, 4533.807
1029.836, 4520.172
1030.318, 4499.839
1030.800, 4476.588
1031.282, 4447.673
1031.764, 4408.295
1032.246, 4362.751
1032.729, 4316.615
1033.211, 4268.685
1033.693, 4237.441
1034.175, 4243.201
1034.657, 4239.891
1035.139, 4213.544
1035.621, 4180.786
1036.103, 4147.097
1036.585, 4115.753
1037.068, 4092.029
1037.550, 4076.849
1038.032, 4061.802
1038.514, 4054.016
1038.996, 4035.195
1039.478, 3994.357
1039.960, 3952.588
1040.442, 3915.330
1040.924, 3886.544
1041.407, 3876.883
1041.889, 3886.850
1042.371, 3878.332
1042.853, 3844.597
1043.335, 3804.946
1043.817, 3751.735
1044.299, 3708.099
1044.781, 3687.685
1045.264, 3679.415
1045.746, 3670.223
1046.228, 3660.325
1046.710, 3653.043
1047.192, 3652.363
1047.674, 3642.333
1048.156, 3619.449
1048.638, 3592.294
1049.120, 3559.084
1049.603, 3534.456
1050.085, 3540.291
1050.567, 3566.500
1051.049, 3556.022
1051.531, 3497.306
1052.013, 3469.026
1052.495, 3482.867
1052.977, 3485.958
1053.459, 3457.700
1053.942, 3423.006
1054.424, 3405.386
1054.906, 3398.663
1055.388, 3382.891
1055.870, 3357.664
1056.352, 3342.940
1056.834, 3339.935
1057.316, 3332.991
1057.799, 3317.432
1058.281, 3301.049
1058.763, 3289.128
1059.245, 3282.354
1059.727, 3286.343
1060.209, 3297.686
1060.691, 3288.813
1061.173, 3262.526
1061.656, 3251.493
1062.138, 3261.316
1062.620, 3261.715
1063.102, 3232.951
1063.584, 3198.088
1064.066, 3195.022
1064.548, 3210.475
1065.030, 3204.612
1065.512, 3185.951
1065.995, 3189.894
1066.477, 3215.106
1066.959, 3220.793
1067.441, 3187.927
1067.923, 3149.560
1068.405, 3138.539
1068.887, 3144.384
1069.369, 3159.331
1069.851, 3175.775
1070.334, 3179.343
1070.816, 3170.778
1071.298, 3156.254
1071.780, 3138.470
1072.262, 3121.824
1072.744, 3105.903
1073.226, 3097.699
1073.708, 3110.976
1074.191, 3129.316
1074.673, 3139.336
1075.155, 3137.041
1075.637, 3110.959
1076.119, 3064.010
1076.601, 3031.821
1077.083, 3037.072
1077.565, 3047.521
1078.047, 3050.164
1078.530, 3047.690
1079.012, 3036.691
1079.494, 3025.213
1079.976, 3026.562
1080.458, 3038.237
1080.940, 3041.290
1081.422, 3024.938
1081.904, 3016.649
1082.387, 3035.828
1082.869, 3048.382
1083.351, 3029.505
1083.833, 3006.789
1084.315, 3006.340
1084.797, 3022.755
1085.279, 3037.966
1085.761, 3053.088
1086.244, 3059.814
1086.726, 3058.226
1087.208, 3047.456
1087.690, 3016.389
1088.172, 2991.944
1088.654, 2996.430
1089.136, 3012.308
1089.618, 3005.492
1090.100, 2975.152
1090.583, 2970.876
1091.065, 3001.574
1091.547, 3026.096
1092.029, 3041.011
1092.511, 3042.476
1092.993, 3025.406
1093.475, 3005.090
1093.957, 3000.150
1094.439, 3006.312
1094.922, 3003.754
1095.404, 2992.854
1095.886, 2995.401
1096.368, 3012.421
1096.850, 3019.842
1097.332, 3009.999
1097.814, 2993.738
1098.296, 2978.336
1098.779, 2968.187
1099.261, 2977.775
1099.743, 2997.320
1100.225, 2992.734
1100.707, 2971.807
1101.189, 2967.075
1101.671, 2981.361
1102.153, 2991.304
1102.635, 2984.753
1103.118, 2972.450
1103.600, 2960.964
1104.082, 2953.657
1104.564, 2957.965
1105.046, 2967.150
1105.528, 2968.733
1106.010, 2966.064
1106.492, 2975.901
1106.974, 3001.407
1107.457, 3012.623
1107.939, 2977.219
1108.421, 2944.252
1108.903, 2941.128
1109.385, 2951.329
1109.867, 2976.278
1110.349, 2997.353
1110.831, 2978.962
1111.314, 2926.408
1111.796, 2901.302
1112.278, 2928.758
1112.760, 2957.284
1113.242, 2985.747
1113.724, 3004.114
1114.206, 3008.565
1114.688, 3001.156
1115.171, 2976.859
1115.653, 2944.466
1116.135, 2928.079
1116.617, 2930.115
1117.099, 2934.754
1117.581, 2942.738
1118.063, 2952.423
1118.545, 2966.750
1119.027, 2972.636
1119.510, 2960.455
1119.992, 2942.229
1120.474, 2934.241
1120.956, 2935.788
1121.438, 2946.084
1121.920, 2964.738
1122.402, 2968.831
1122.884, 2957.124
1123.366, 2953.853
1123.849, 2966.986
1124.331, 2977.418
1124.813, 2967.694
1125.295, 2952.840
1125.777, 2962.315
1126.259, 2983.617
1126.741, 2986.311
1127.223, 2976.624
1127.706, 2972.062
1128.188, 2976.369
1128.670, 2990.395
1129.152, 3015.119
1129.634, 3035.706
1130.116, 3035.059
1130.598, 3031.405
1131.080, 3043.563
1131.563, 3058.279
1132.045, 3058.689
1132.527, 3050.734
1133.009, 3048.523
1133.491, 3054.313
1133.973, 3060.687
1134.455, 3064.129
1134.937, 3069.903
1135.419, 3080.117
1135.901, 3091.926
1136.384, 3104.750
1136.866, 3117.735
1137.348, 3129.560
1137.830, 3140.805
1138.312, 3153.172
1138.794, 3165.326
1139.276, 3184.697
1139.758, 3215.241
1140.241, 3241.746
1140.723, 3260.748
1141.205, 3275.525
1141.687, 3285.723
1142.169, 3300.356
1142.651, 3335.816
1143.133, 3384.762
1143.615, 3405.606
1144.098, 3401.909
1144.580, 3412.052
1145.062, 3439.099
1145.544, 3479.472
1146.026, 3530.747
1146.508, 3578.061
1146.990, 3609.587
1147.472, 3635.686
1147.954, 3662.628
1148.437, 3698.435
1148.919, 3762.255
1149.401, 3841.362
1149.883, 3912.500
1150.365, 3974.279
1150.847, 4034.527
1151.329, 4095.519
1151.811, 4161.208
1152.293, 4239.228
1152.776, 4314.820
1153.258, 4369.943
1153.740, 4431.236
1154.222, 4526.987
1154.704, 4637.063
1155.186, 4726.171
1155.668, 4796.808
1156.150, 4890.500
1156.633, 5027.676
1157.115, 5151.866
1157.597, 5248.621
1158.079, 5360.862
1158.561, 5509.615
1159.043, 5655.825
1159.525, 5772.917
1160.007, 5869.861
1160.490, 5959.374
1160.972, 6043.345
1161.454, 6145.173
1161.936, 6264.965
1162.418, 6411.648
1162.900, 6583.718
1163.382, 6725.511
1163.864, 6818.395
1164.346, 6897.248
1164.828, 6992.060
1165.311, 7082.216
1165.793, 7135.949
1166.275, 7166.971
1166.757, 7195.751
1167.239, 7220.567
1167.721, 7236.545
1168.203, 7243.110
1168.685, 7242.466
1169.168, 7235.520
1169.650, 7214.693
1170.132, 7172.900
1170.614, 7120.680
1171.096, 7075.970
1171.578, 7008.479
1172.060, 6878.911
1172.542, 6725.951
1173.025, 6602.935
1173.507, 6507.937
1173.989, 6403.726
1174.471, 6294.911
1174.953, 6160.765
1175.435, 5983.685
1175.917, 5828.095
1176.399, 5714.755
1176.881, 5607.156
1177.364, 5485.114
1177.846, 5350.406
1178.328, 5205.817
1178.810, 5053.317
1179.292, 4896.837
1179.774, 4739.491
1180.256, 4608.101
1180.738, 4499.977
1181.220, 4389.060
1181.703, 4269.984
1182.185, 4164.462
1182.667, 4087.067
1183.149, 4016.519
1183.631, 3931.594
1184.113, 3843.261
1184.595, 3759.353
1185.077, 3681.560
1185.560, 3613.330
1186.042, 3551.966
1186.524, 3489.248
1187.006, 3424.386
1187.488, 3371.215
1187.970, 3350.102
1188.452, 3313.834
1188.934, 3240.532
1189.417, 3171.206
1189.899, 3117.412
1190.381, 3074.735
1190.863, 3041.345
1191.345, 3015.184
1191.827, 2993.368
1192.309, 2975.704
1192.791, 2950.312
1193.273, 2917.031
1193.755, 2889.200
1194.238, 2868.544
1194.720, 2856.731
1195.202, 2854.015
1195.684, 2850.799
1196.166, 2839.471
1196.648, 2822.023
1197.130, 2797.297
1197.612, 2771.287
1198.095, 2750.739
1198.577, 2736.543
1199.059, 2731.587
1199.541, 2733.371
1200.023, 2736.508
1200.505, 2739.563
1200.987, 2735.483
1201.469, 2713.105
1201.952, 2696.014
1202.434, 2690.394
1202.916, 2692.098
1203.398, 2705.565
1203.880, 2719.434
1204.362, 2721.478
1204.844, 2717.575
1205.326, 2725.477
1205.808, 2746.786
1206.291, 2751.335
1206.773, 2735.948
1207.255, 2747.919
1207.737, 2794.431
1208.219, 2832.718
1208.701, 2845.486
1209.183, 2853.148
1209.665, 2872.765
1210.147, 2900.889
1210.630, 2938.090
1211.112, 2975.663
1211.594, 2990.159
1212.076, 2999.795
1212.558, 3038.750
1213.040, 3103.551
1213.522, 3170.117
1214.004, 3231.832
1214.487, 3299.077
1214.969, 3372.459
1215.451, 3456.345
1215.933, 3564.453
1216.415, 3667.418
1216.897, 3748.240
1217.379, 3821.845
1217.861, 3894.175
1218.344, 3975.043
1218.826, 4092.561
1219.308, 4247.308
1219.790, 4380.514
1220.272, 4491.821
1220.754, 4623.009
1221.236, 4778.893
1221.718, 4928.553
1222.200, 5061.562
1222.682, 5196.224
1223.165, 5346.540
1223.647, 5507.238
1224.129, 5676.647
1224.611, 5847.337
1225.093, 6009.424
1225.575, 6167.443
1226.057, 6330.736
1226.539, 6494.829
1227.022, 6644.240
1227.504, 6777.434
1227.986, 6922.663
1228.468, 7113.088
1228.950, 7271.062
1229.432, 7373.092
1229.914, 7470.375
1230.396, 7585.752
1230.879, 7683.501
1231.361, 7734.398
1231.843, 7763.153
1232.325, 7813.979
1232.807, 7877.495
1233.289, 7901.774
1233.771, 7892.393
1234.253, 7883.858
1234.735, 7875.913
1235.218, 7855.415
1235.700, 7817.754
1236.182, 7759.656
1236.664, 7679.541
1237.146, 7576.909
1237.628, 7428.216
1238.110, 7285.473
1238.592, 7203.771
1239.074, 7125.379
1239.557, 6996.913
1240.039, 6842.152
1240.521, 6693.330
1241.003, 6554.235
1241.485, 6430.708
1241.967, 6330.939
1242.449, 6209.792
1242.931, 6062.024
1243.414, 5914.911
1243.896, 5773.129
1244.378, 5633.432
1244.860, 5494.863
1245.342, 5357.682
1245.824, 5223.178
1246.306, 5086.647
1246.788, 4933.550
1247.271, 4774.798
1247.753, 4625.212
1248.235, 4487.571
1248.717, 4363.629
1249.199, 4255.689
1249.681, 4171.165
1250.163, 4111.003
1250.645, 4048.447
1251.127, 3973.651
1251.609, 3897.464
1252.092, 3826.114
1252.574, 3745.760
1253.056, 3641.777
1253.538, 3545.458
1254.020, 3479.787
1254.502, 3432.065
1254.984, 3382.152
1255.466, 3331.315
1255.949, 3288.820
1256.431, 3251.398
1256.913, 3196.918
1257.395, 3129.311
1257.877, 3070.051
1258.359, 3023.747
1258.841, 2984.770
1259.323, 2950.454
1259.806, 2926.426
1260.288, 2931.605
1260.770, 2928.186
1261.252, 2881.966
1261.734, 2834.570
1262.216, 2817.739
1262.698, 2812.903
##END=



