##NAMES=Fersmite
##RRUFFID=R060717
##IDEAL CHEMISTRY=(Ca,Ce^3+^,Na)(Nb^5+^,Ta^5+^,Ti^4+^)_2_(O,OH,F)_6_
##LOCALITY=Lueshe carbonatite, Kivu Province, Democratic Republic of the Congo
##OWNER=RRUFF
##SOURCE=Michael Scott
##DESCRIPTION=Dark brown coating on octahedral columbite crystals
##STATUS=The identification of this mineral is not yet confirmed.
##URL=rruff.info/R060717
181.793, 31394.789
182.275, 31406.500
182.757, 31430.090
183.239, 31473.980
183.721, 31533.240
184.203, 31595.350
184.685, 31648.570
185.167, 31692.199
185.650, 31753.570
186.132, 31864.490
186.614, 31963.680
187.096, 32028.131
187.578, 32066.359
188.060, 32100.350
188.542, 32148.369
189.024, 32210.211
189.507, 32261.480
189.989, 32292.119
190.471, 32320.910
190.953, 32348.590
191.435, 32378.270
191.917, 32415.711
192.399, 32467.461
192.881, 32533.090
193.363, 32587.600
193.846, 32617.770
194.328, 32650.221
194.810, 32695.189
195.292, 32747.770
195.774, 32796.051
196.256, 32829.520
196.738, 32850.250
197.220, 32891.320
197.702, 32969.129
198.185, 33053.371
198.667, 33150.500
199.149, 33249.371
199.631, 33329.211
200.113, 33374.461
200.595, 33389.469
201.077, 33417.441
201.559, 33455.422
202.042, 33511.922
202.524, 33606.789
203.006, 33719.090
203.488, 33816.309
203.970, 33878.121
204.452, 33908.520
204.934, 33932.930
205.416, 33947.320
205.898, 33958.398
206.380, 33963.578
206.863, 33966.500
207.345, 33971.781
207.827, 33981.879
208.309, 33996.148
208.791, 34012.051
209.273, 34019.578
209.755, 34041.629
210.238, 34100.578
210.720, 34169.320
211.202, 34211.160
211.684, 34206.512
212.166, 34172.129
212.648, 34163.199
213.130, 34212.539
213.612, 34243.969
214.094, 34227.680
214.577, 34198.762
215.059, 34196.891
215.541, 34239.730
216.023, 34309.512
216.505, 34363.480
216.987, 34398.859
217.469, 34420.719
217.951, 34427.320
218.434, 34424.359
218.916, 34411.340
219.398, 34389.199
219.880, 34370.680
220.362, 34384.781
220.844, 34468.750
221.326, 34516.930
221.808, 34498.422
222.290, 34462.480
222.773, 34444.609
223.255, 34455.059
223.737, 34485.328
224.219, 34528.078
224.701, 34606.531
225.183, 34641.570
225.665, 34586.852
226.147, 34525.078
226.629, 34513.980
227.112, 34561.000
227.594, 34628.270
228.076, 34667.148
228.558, 34664.770
229.040, 34671.469
229.522, 34701.859
230.004, 34728.789
230.486, 34731.148
230.969, 34711.770
231.451, 34694.078
231.933, 34705.301
232.415, 34752.102
232.897, 34789.551
233.379, 34805.262
233.861, 34821.949
234.343, 34850.750
234.825, 34889.371
235.307, 34926.238
235.790, 34944.078
236.272, 34941.910
236.754, 34983.730
237.236, 35138.961
237.718, 35269.359
238.200, 35307.031
238.682, 35283.609
239.165, 35274.289
239.647, 35340.512
240.129, 35466.801
240.611, 35537.371
241.093, 35508.621
241.575, 35480.051
242.057, 35481.289
242.539, 35504.859
243.021, 35539.199
243.503, 35580.512
243.986, 35626.328
244.468, 35671.031
244.950, 35723.609
245.432, 35757.551
245.914, 35753.770
246.396, 35734.230
246.878, 35721.930
247.361, 35724.770
247.843, 35742.672
248.325, 35779.289
248.807, 35842.641
249.289, 35900.828
249.771, 35940.551
250.253, 35972.781
250.735, 36007.719
251.217, 36048.371
251.699, 36086.480
252.182, 36107.641
252.664, 36107.840
253.146, 36118.441
253.628, 36160.109
254.110, 36205.512
254.592, 36228.059
255.074, 36223.531
255.556, 36225.660
256.039, 36267.211
256.521, 36346.320
257.003, 36431.172
257.485, 36534.852
257.967, 36620.680
258.449, 36654.781
258.931, 36640.219
259.413, 36622.180
259.896, 36627.660
260.378, 36651.879
260.860, 36677.840
261.342, 36705.629
261.824, 36732.520
262.306, 36759.051
262.788, 36784.301
263.270, 36802.828
263.752, 36796.969
264.234, 36787.961
264.717, 36824.441
265.199, 36921.719
265.681, 37006.980
266.163, 37017.211
266.645, 36973.680
267.127, 36927.309
267.609, 36875.488
268.091, 36833.148
268.574, 36823.051
269.056, 36844.480
269.538, 36861.770
270.020, 36855.160
270.502, 36827.941
270.984, 36796.430
271.466, 36748.090
271.948, 36710.238
272.431, 36697.820
272.913, 36709.141
273.395, 36743.250
273.877, 36809.922
274.359, 36886.680
274.841, 36916.398
275.323, 36876.539
275.805, 36845.520
276.287, 36849.020
276.770, 36876.891
277.252, 36912.660
277.734, 36951.250
278.216, 36996.211
278.698, 37056.199
279.180, 37140.750
279.662, 37210.801
280.144, 37251.891
280.626, 37283.121
281.109, 37316.719
281.591, 37356.500
282.073, 37413.430
282.555, 37504.699
283.037, 37645.430
283.519, 37740.539
284.001, 37756.809
284.483, 37760.879
284.966, 37802.801
285.448, 37870.980
285.930, 37910.879
286.412, 37872.840
286.894, 37759.789
287.376, 37707.461
287.858, 37793.879
288.340, 37851.859
288.823, 37817.770
289.305, 37728.430
289.787, 37649.602
290.269, 37617.488
290.751, 37614.879
291.233, 37581.031
291.715, 37472.840
292.197, 37394.961
292.679, 37380.531
293.161, 37387.672
293.644, 37378.238
294.126, 37339.711
294.608, 37283.328
295.090, 37223.422
295.572, 37150.871
296.054, 37099.801
296.536, 37072.531
297.018, 37064.648
297.501, 37080.789
297.983, 37117.301
298.465, 37158.898
298.947, 37188.391
299.429, 37204.379
299.911, 37230.371
300.393, 37273.660
300.875, 37317.809
301.358, 37336.488
301.840, 37348.301
302.322, 37401.078
302.804, 37549.859
303.286, 37751.070
303.768, 37872.020
304.250, 37889.020
304.732, 37883.180
305.214, 37883.980
305.697, 37888.711
306.179, 37896.199
306.661, 37911.980
307.143, 37920.711
307.625, 37890.480
308.107, 37820.602
308.589, 37786.660
309.071, 37854.410
309.553, 37942.551
310.036, 37931.012
310.518, 37793.711
311.000, 37660.359
311.482, 37609.551
311.964, 37618.781
312.446, 37635.250
312.928, 37653.789
313.410, 37658.488
313.892, 37621.379
314.375, 37543.852
314.857, 37469.512
315.339, 37404.211
315.821, 37348.770
316.303, 37305.539
316.785, 37274.762
317.267, 37248.840
317.750, 37213.320
318.232, 37172.469
318.714, 37196.641
319.196, 37381.230
319.678, 37531.000
320.160, 37534.422
320.642, 37431.141
321.124, 37316.160
321.606, 37235.770
322.089, 37190.320
322.571, 37183.469
323.053, 37234.922
323.535, 37301.230
324.017, 37405.531
324.499, 37509.730
324.981, 37562.070
325.463, 37552.340
325.945, 37529.801
326.428, 37575.910
326.910, 37742.891
327.392, 37835.371
327.874, 37796.070
328.356, 37741.730
328.838, 37725.352
329.320, 37749.879
329.802, 37798.711
330.284, 37867.219
330.767, 37951.961
331.249, 37996.828
331.731, 37972.770
332.213, 37946.250
332.695, 37946.801
333.177, 37956.621
333.659, 37946.340
334.141, 37898.012
334.624, 37837.129
335.106, 37817.172
335.588, 37851.430
336.070, 37864.770
336.552, 37813.102
337.034, 37743.680
337.516, 37698.410
337.998, 37684.172
338.480, 37671.199
338.963, 37633.500
339.445, 37577.398
339.927, 37524.012
340.409, 37465.012
340.891, 37433.602
341.373, 37497.160
341.855, 37634.250
342.337, 37713.969
342.819, 37654.961
343.302, 37547.051
343.784, 37482.949
344.266, 37466.719
344.748, 37477.730
345.230, 37509.750
345.712, 37557.320
346.194, 37591.480
346.677, 37576.031
347.159, 37586.961
347.641, 37676.930
348.123, 37808.871
348.605, 37919.969
349.087, 37986.539
349.569, 38013.961
350.051, 38007.961
350.533, 37914.500
351.016, 37887.301
351.498, 37983.559
351.980, 38102.910
352.462, 38175.789
352.944, 38194.559
353.426, 38186.379
353.908, 38173.051
354.390, 38153.570
354.872, 38151.500
355.355, 38209.422
355.837, 38241.379
356.319, 38207.441
356.801, 38137.359
357.283, 38078.660
357.765, 38056.000
358.247, 38054.371
358.729, 38037.559
359.211, 37995.672
359.694, 37968.879
360.176, 37983.270
360.658, 38006.320
361.140, 38014.379
361.622, 38004.070
362.104, 37990.422
362.586, 37978.801
363.069, 37972.148
363.551, 37993.469
364.033, 38063.590
364.515, 38126.148
364.997, 38118.328
365.479, 38062.059
365.961, 38026.980
366.443, 38041.852
366.925, 38080.590
367.408, 38120.809
367.890, 38161.770
368.372, 38201.891
368.854, 38238.410
369.336, 38273.988
369.818, 38316.852
370.300, 38360.070
370.782, 38418.660
371.264, 38515.211
371.747, 38622.590
372.229, 38698.602
372.711, 38733.141
373.193, 38758.109
373.675, 38817.301
374.157, 38928.711
374.639, 39005.230
375.121, 39020.422
375.603, 39030.949
376.086, 39066.539
376.568, 39121.121
377.050, 39172.090
377.532, 39202.949
378.014, 39220.570
378.496, 39260.352
378.978, 39366.891
379.460, 39418.219
379.943, 39343.941
380.425, 39239.352
380.907, 39197.270
381.389, 39239.789
381.871, 39307.691
382.353, 39336.340
382.835, 39326.199
383.317, 39315.660
383.799, 39306.699
384.282, 39301.738
384.764, 39297.410
385.246, 39297.109
385.728, 39312.949
386.210, 39355.480
386.692, 39414.250
387.174, 39476.941
387.656, 39543.609
388.138, 39615.699
388.621, 39703.801
389.103, 39791.609
389.585, 39834.762
390.067, 39799.969
390.549, 39786.090
391.031, 39834.461
391.513, 39921.051
391.996, 40018.672
392.478, 40119.391
392.960, 40212.660
393.442, 40282.910
393.924, 40321.699
394.406, 40377.719
394.888, 40470.340
395.370, 40558.039
395.852, 40620.309
396.335, 40662.551
396.817, 40701.559
397.299, 40748.219
397.781, 40793.461
398.263, 40804.172
398.745, 40749.430
399.227, 40721.781
399.709, 40762.320
400.191, 40812.738
400.674, 40835.391
401.156, 40822.320
401.638, 40778.250
402.120, 40692.480
402.602, 40572.352
403.084, 40470.891
403.566, 40386.102
404.048, 40330.980
404.530, 40355.398
405.013, 40412.949
405.495, 40404.910
405.977, 40266.871
406.459, 40099.801
406.941, 39996.871
407.423, 39944.590
407.905, 39874.039
408.387, 39750.160
408.870, 39616.141
409.352, 39557.430
409.834, 39603.621
410.316, 39619.449
410.798, 39571.590
411.280, 39497.941
411.762, 39427.859
412.244, 39363.852
412.727, 39293.238
413.209, 39202.289
413.691, 39094.469
414.173, 39020.801
414.655, 39011.180
415.137, 39001.590
415.619, 38981.770
416.101, 38957.340
416.583, 38936.129
417.065, 38920.141
417.548, 38902.441
418.030, 38872.012
418.512, 38826.699
418.994, 38787.211
419.476, 38765.238
419.958, 38736.969
420.440, 38690.480
420.922, 38627.961
421.405, 38554.828
421.887, 38452.891
422.369, 38357.891
422.851, 38332.738
423.333, 38374.852
423.815, 38402.410
424.297, 38378.250
424.779, 38323.129
425.262, 38273.469
425.744, 38225.711
426.226, 38192.859
426.708, 38190.859
427.190, 38198.551
427.672, 38203.301
428.154, 38199.000
428.636, 38159.359
429.118, 38050.180
429.601, 37874.809
430.083, 37788.191
430.565, 37892.309
431.047, 37964.000
431.529, 37936.309
432.011, 37862.738
432.493, 37806.609
432.975, 37789.250
433.457, 37793.000
433.940, 37796.699
434.422, 37801.121
434.904, 37801.250
435.386, 37807.059
435.868, 37795.781
436.350, 37731.391
436.832, 37640.359
437.314, 37593.090
437.797, 37643.922
438.279, 37731.699
438.761, 37780.828
439.243, 37792.590
439.725, 37782.129
440.207, 37746.980
440.689, 37702.270
441.171, 37674.090
441.654, 37661.500
442.136, 37661.398
442.618, 37673.500
443.100, 37697.199
443.582, 37745.180
444.064, 37809.789
444.546, 37852.109
445.028, 37839.191
445.510, 37778.809
445.992, 37734.980
446.475, 37720.070
446.957, 37706.941
447.439, 37690.230
447.921, 37675.020
448.403, 37670.109
448.885, 37675.898
449.367, 37679.199
449.849, 37661.531
450.332, 37623.539
450.814, 37599.840
451.296, 37604.809
451.778, 37602.629
452.260, 37562.801
452.742, 37505.820
453.224, 37468.789
453.706, 37470.090
454.189, 37480.539
454.671, 37479.820
455.153, 37468.500
455.635, 37446.160
456.117, 37410.801
456.599, 37371.270
457.081, 37336.949
457.563, 37306.930
458.045, 37288.379
458.528, 37283.180
459.010, 37287.090
459.492, 37301.750
459.974, 37322.891
460.456, 37337.102
460.938, 37335.410
461.420, 37335.629
461.902, 37393.090
462.384, 37567.922
462.867, 37661.398
463.349, 37579.680
463.831, 37481.340
464.313, 37468.199
464.795, 37529.102
465.277, 37581.469
465.759, 37560.359
466.241, 37499.699
466.724, 37478.488
467.206, 37501.031
467.688, 37531.422
468.170, 37557.891
468.652, 37581.840
469.134, 37609.012
469.616, 37645.160
470.098, 37663.809
470.580, 37643.000
471.063, 37606.781
471.545, 37579.750
472.027, 37565.590
472.509, 37564.160
472.991, 37579.270
473.473, 37606.141
473.955, 37602.719
474.437, 37526.461
474.919, 37469.828
475.402, 37458.090
475.884, 37460.949
476.366, 37445.590
476.848, 37407.672
477.330, 37373.191
477.812, 37382.969
478.294, 37431.141
478.776, 37422.430
479.259, 37326.301
479.741, 37237.160
480.223, 37213.570
480.705, 37226.000
481.187, 37236.320
481.669, 37239.480
482.151, 37237.031
482.633, 37220.410
483.116, 37200.750
483.598, 37204.039
484.080, 37236.398
484.562, 37278.191
485.044, 37310.340
485.526, 37332.102
486.008, 37357.590
486.490, 37395.449
486.972, 37426.039
487.454, 37433.578
487.937, 37433.520
488.419, 37451.340
488.901, 37493.941
489.383, 37536.898
489.865, 37538.500
490.347, 37491.141
490.829, 37479.672
491.311, 37535.109
491.794, 37586.578
492.276, 37593.250
492.758, 37571.762
493.240, 37552.309
493.722, 37540.340
494.204, 37538.449
494.686, 37569.430
495.168, 37614.730
495.651, 37602.672
496.133, 37508.352
496.615, 37397.250
497.097, 37347.090
497.579, 37368.910
498.061, 37360.988
498.543, 37296.430
499.025, 37233.230
499.507, 37188.391
499.990, 37162.910
500.472, 37160.410
500.954, 37181.590
501.436, 37211.391
501.918, 37231.762
502.400, 37245.461
502.882, 37228.969
503.364, 37143.551
503.846, 37074.820
504.329, 37074.051
504.811, 37118.230
505.293, 37158.801
505.775, 37179.949
506.257, 37193.801
506.739, 37209.270
507.221, 37226.660
507.703, 37249.609
508.185, 37280.961
508.668, 37307.789
509.150, 37313.559
509.632, 37294.789
510.114, 37283.039
510.596, 37282.930
511.078, 37284.270
511.560, 37273.570
512.042, 37264.449
512.525, 37284.578
513.007, 37342.641
513.489, 37407.711
513.971, 37424.859
514.453, 37383.730
514.935, 37392.199
515.417, 37488.750
515.899, 37586.871
516.381, 37634.602
516.864, 37653.371
517.346, 37686.129
517.828, 37754.859
518.310, 37818.602
518.792, 37839.879
519.274, 37831.301
519.756, 37823.180
520.239, 37822.148
520.721, 37824.281
521.203, 37825.238
521.685, 37824.590
522.167, 37829.262
522.649, 37843.422
523.131, 37856.820
523.613, 37871.301
524.095, 37881.148
524.578, 37874.781
525.060, 37850.840
525.542, 37828.371
526.024, 37834.301
526.506, 37866.891
526.988, 37888.410
527.470, 37905.160
527.952, 37897.488
528.434, 37835.730
528.917, 37748.750
529.399, 37678.719
529.881, 37635.090
530.363, 37598.070
530.845, 37557.820
531.327, 37518.371
531.809, 37488.391
532.291, 37468.141
532.773, 37445.172
533.256, 37407.578
533.738, 37358.871
534.220, 37327.539
534.702, 37332.672
535.184, 37329.641
535.666, 37304.340
536.148, 37275.191
536.630, 37260.051
537.112, 37258.801
537.595, 37255.141
538.077, 37237.930
538.559, 37207.969
539.041, 37162.961
539.523, 37099.410
540.005, 37047.531
540.487, 37023.289
540.969, 37014.199
541.452, 37000.172
541.934, 36983.270
542.416, 36954.371
542.898, 36907.199
543.380, 36850.949
543.862, 36781.730
544.344, 36709.488
544.826, 36662.211
545.308, 36657.070
545.791, 36675.359
546.273, 36675.328
546.755, 36658.789
547.237, 36619.051
547.719, 36515.410
548.201, 36427.199
548.683, 36416.121
549.166, 36456.000
549.648, 36467.961
550.130, 36405.109
550.612, 36323.762
551.094, 36276.012
551.576, 36257.102
552.058, 36252.840
552.540, 36260.879
553.022, 36271.711
553.505, 36275.961
553.987, 36273.852
554.469, 36260.680
554.951, 36228.699
555.433, 36196.480
555.915, 36171.391
556.397, 36148.281
556.879, 36113.801
557.362, 36066.879
557.844, 36032.781
558.326, 36051.039
558.808, 36112.102
559.290, 36138.172
559.772, 36117.711
560.254, 36098.000
560.736, 36109.711
561.218, 36134.609
561.701, 36134.160
562.183, 36096.629
562.665, 36065.449
563.147, 36058.770
563.629, 36061.359
564.111, 36063.711
564.593, 36061.621
565.075, 36043.090
565.557, 35997.328
566.040, 35940.410
566.522, 35931.172
567.004, 36010.781
567.486, 36030.551
567.968, 35904.211
568.450, 35772.039
568.932, 35716.449
569.414, 35722.578
569.896, 35727.371
570.379, 35707.141
570.861, 35673.820
571.343, 35633.570
571.825, 35590.031
572.307, 35554.078
572.789, 35528.969
573.271, 35511.949
573.753, 35501.660
574.235, 35499.789
574.718, 35487.352
575.200, 35438.422
575.682, 35411.320
576.164, 35439.660
576.646, 35486.191
577.128, 35507.512
577.610, 35495.230
578.093, 35476.020
578.575, 35473.250
579.057, 35482.590
579.539, 35491.980
580.021, 35502.238
580.503, 35499.621
580.985, 35466.020
581.467, 35424.969
581.949, 35434.172
582.432, 35515.070
582.914, 35563.531
583.396, 35540.121
583.878, 35502.070
584.360, 35479.801
584.842, 35476.500
585.324, 35497.719
585.806, 35548.129
586.289, 35597.422
586.771, 35580.262
587.253, 35486.141
587.735, 35437.641
588.217, 35471.969
588.699, 35511.039
589.181, 35501.621
589.663, 35460.039
590.145, 35416.180
590.628, 35357.262
591.110, 35327.031
591.592, 35387.969
592.074, 35470.191
592.556, 35471.262
593.038, 35383.891
593.520, 35270.609
594.002, 35172.711
594.484, 35096.762
594.967, 35081.949
595.449, 35158.020
595.931, 35229.102
596.413, 35299.449
596.895, 35342.660
597.377, 35316.512
597.859, 35239.109
598.341, 35196.859
598.823, 35263.141
599.306, 35344.500
599.788, 35337.980
600.270, 35272.922
600.752, 35240.070
601.234, 35266.230
601.716, 35297.180
602.198, 35268.539
602.680, 35176.621
603.162, 35111.762
603.645, 35091.078
604.127, 35078.219
604.609, 35067.031
605.091, 35060.539
605.573, 35066.090
606.055, 35082.988
606.537, 35094.672
607.019, 35082.680
607.502, 35061.012
607.984, 35059.090
608.466, 35074.480
608.948, 35075.340
609.430, 35045.211
609.912, 35003.711
610.394, 34979.949
610.876, 34971.871
611.359, 34990.000
611.841, 35080.238
612.323, 35142.660
612.805, 35122.301
613.287, 35057.289
613.769, 34996.770
614.251, 34955.738
614.733, 34933.641
615.216, 34941.672
615.698, 34968.219
616.180, 34971.660
616.662, 34948.371
617.144, 34927.871
617.626, 34926.578
618.108, 34937.051
618.590, 34942.629
619.072, 34941.270
619.555, 34940.449
620.037, 34943.148
620.519, 34943.961
621.001, 34932.051
621.483, 34917.359
621.965, 34925.281
622.447, 34968.211
622.929, 35006.910
623.411, 34971.500
623.894, 34877.930
624.376, 34852.879
624.858, 34925.898
625.340, 34977.949
625.822, 34912.051
626.304, 34781.391
626.786, 34759.410
627.268, 34923.801
627.750, 35027.520
628.233, 35009.328
628.715, 34944.328
629.197, 34857.250
629.679, 34771.789
630.161, 34732.090
630.643, 34765.039
631.125, 34826.660
631.607, 34849.539
632.089, 34835.660
632.572, 34821.059
633.054, 34809.801
633.536, 34798.211
634.018, 34779.551
634.500, 34759.070
634.982, 34756.750
635.464, 34789.320
635.946, 34810.922
636.429, 34808.730
636.911, 34795.059
637.393, 34768.730
637.875, 34739.359
638.357, 34734.129
638.839, 34773.102
639.321, 34822.762
639.803, 34813.699
640.286, 34747.141
640.768, 34713.699
641.250, 34734.852
641.732, 34767.281
642.214, 34790.141
642.696, 34798.020
643.178, 34771.121
643.660, 34672.680
644.143, 34596.551
644.625, 34591.238
645.107, 34593.039
645.589, 34527.461
646.071, 34415.488
646.553, 34347.281
647.035, 34381.629
647.517, 34460.949
647.999, 34483.211
648.482, 34450.371
648.964, 34424.539
649.446, 34419.219
649.928, 34409.781
650.410, 34374.160
650.892, 34318.730
651.374, 34275.859
651.856, 34229.840
652.338, 34217.570
652.821, 34279.500
653.303, 34350.359
653.785, 34371.172
654.267, 34350.980
654.749, 34337.809
655.231, 34361.660
655.713, 34391.820
656.195, 34367.570
656.677, 34296.320
657.160, 34262.449
657.642, 34285.090
658.124, 34315.641
658.606, 34316.898
659.088, 34296.988
659.570, 34295.691
660.052, 34345.801
660.534, 34364.641
661.016, 34316.988
661.499, 34259.488
661.981, 34239.328
662.463, 34244.059
662.945, 34233.262
663.427, 34186.980
663.909, 34119.359
664.391, 34031.770
664.873, 33935.922
665.356, 33894.539
665.838, 33922.961
666.320, 33939.379
666.802, 33881.141
667.284, 33775.238
667.766, 33713.602
668.248, 33722.629
668.730, 33737.430
669.213, 33770.520
669.695, 33797.160
670.177, 33789.629
670.659, 33767.590
671.141, 33781.820
671.623, 33861.730
672.105, 33925.898
672.587, 33863.070
673.070, 33732.012
673.552, 33689.762
674.034, 33746.660
674.516, 33785.559
674.998, 33731.762
675.480, 33633.141
675.962, 33610.160
676.444, 33712.539
676.926, 33772.070
677.409, 33755.609
677.891, 33731.359
678.373, 33726.070
678.855, 33729.250
679.337, 33723.359
679.819, 33704.090
680.301, 33677.441
680.783, 33639.422
681.265, 33601.059
681.748, 33572.820
682.230, 33557.672
682.712, 33574.910
683.194, 33637.148
683.676, 33691.129
684.158, 33633.559
684.640, 33437.180
685.122, 33322.590
685.604, 33327.988
686.087, 33352.461
686.569, 33357.531
687.051, 33359.680
687.533, 33383.430
688.015, 33433.781
688.497, 33466.879
688.979, 33457.570
689.461, 33434.828
689.943, 33419.730
690.426, 33408.969
690.908, 33384.398
691.390, 33343.570
691.872, 33317.328
692.354, 33303.980
692.836, 33231.703
693.318, 33332.387
693.800, 33391.090
694.283, 33410.059
694.765, 33270.305
695.247, 33335.512
695.729, 33318.578
696.211, 33298.277
696.693, 33347.102
697.175, 33409.148
697.657, 33458.711
698.140, 33492.000
698.622, 33504.551
699.104, 33481.480
699.586, 33428.641
700.068, 33380.520
700.550, 33367.750
701.032, 33367.141
701.514, 33327.500
701.997, 33256.422
702.479, 33215.969
702.961, 33224.109
703.443, 33237.621
703.925, 33217.422
704.407, 33169.398
704.889, 33137.180
705.371, 33145.828
705.853, 33132.359
706.336, 33065.430
706.818, 33001.539
707.300, 32975.852
707.782, 32982.570
708.264, 33003.801
708.746, 33041.020
709.228, 33070.078
709.710, 33068.410
710.192, 33047.961
710.675, 33020.750
711.157, 32992.160
711.639, 32982.031
712.121, 33003.590
712.603, 33038.371
713.085, 33042.578
713.567, 33005.121
714.049, 33000.680
714.531, 33051.922
715.014, 33100.059
715.496, 33119.379
715.978, 33116.391
716.460, 33096.879
716.942, 33055.570
717.424, 33024.109
717.906, 33016.871
718.388, 33014.980
718.870, 33006.539
719.353, 32994.250
719.835, 32986.059
720.317, 32983.520
720.799, 32976.859
721.281, 32948.250
721.763, 32909.488
722.245, 32902.191
722.727, 32926.301
723.210, 32950.969
723.692, 32967.840
724.174, 32977.699
724.656, 32982.750
725.138, 32983.230
725.620, 32967.469
726.102, 32926.621
726.584, 32880.801
727.067, 32819.641
727.549, 32764.961
728.031, 32735.910
728.513, 32729.539
728.995, 32728.070
729.477, 32721.160
729.959, 32722.490
730.441, 32758.320
730.924, 32804.320
731.406, 32815.762
731.888, 32789.980
732.370, 32750.850
732.852, 32711.869
733.334, 32677.170
733.816, 32656.199
734.298, 32648.551
734.780, 32660.770
735.263, 32716.600
735.745, 32739.420
736.227, 32653.590
736.709, 32520.920
737.191, 32477.770
737.673, 32551.301
738.155, 32611.430
738.637, 32643.619
739.119, 32653.580
739.602, 32620.199
740.084, 32576.869
740.566, 32588.770
741.048, 32665.350
741.530, 32715.270
742.012, 32619.910
742.494, 32469.320
742.976, 32438.820
743.458, 32509.141
743.941, 32578.859
744.423, 32620.410
744.905, 32618.020
745.387, 32541.270
745.869, 32404.641
746.351, 32365.699
746.833, 32471.609
747.315, 32572.000
747.797, 32657.881
748.280, 32715.750
748.762, 32723.801
749.244, 32696.539
749.726, 32678.650
750.208, 32681.180
750.690, 32687.609
751.172, 32698.471
751.654, 32704.939
752.137, 32698.689
752.619, 32680.689
753.101, 32655.029
753.583, 32623.391
754.065, 32588.311
754.547, 32549.180
755.029, 32509.199
755.511, 32478.240
755.994, 32456.850
756.476, 32457.400
756.958, 32493.260
757.440, 32526.990
757.922, 32499.500
758.404, 32401.850
758.886, 32325.131
759.368, 32260.891
759.851, 32231.320
760.333, 32268.141
760.815, 32318.689
761.297, 32340.920
761.779, 32334.650
762.261, 32317.891
762.743, 32274.381
763.225, 32247.961
763.707, 32269.289
764.190, 32317.449
764.672, 32385.070
765.154, 32456.420
765.636, 32484.119
766.118, 32436.631
766.600, 32357.641
767.082, 32307.189
767.564, 32285.539
768.046, 32308.760
768.529, 32384.410
769.011, 32425.600
769.493, 32377.650
769.975, 32290.961
770.457, 32260.100
770.939, 32304.770
771.421, 32321.820
771.903, 32285.820
772.385, 32255.500
772.868, 32252.961
773.350, 32258.770
773.832, 32247.990
774.314, 32221.939
774.796, 32214.881
775.278, 32272.939
775.760, 32315.301
776.242, 32272.590
776.724, 32197.221
777.207, 32161.250
777.689, 32167.449
778.171, 32173.080
778.653, 32151.750
779.135, 32115.180
779.617, 32075.020
780.099, 32034.779
780.581, 32018.551
781.064, 32030.029
781.546, 32042.350
782.028, 32039.750
782.510, 32032.471
782.992, 32042.439
783.474, 32076.590
783.956, 32095.920
784.438, 32088.670
784.920, 32083.029
785.403, 32085.311
785.885, 32094.350
786.367, 32111.061
786.849, 32134.600
787.331, 32156.211
787.813, 32183.660
788.295, 32195.949
788.778, 32168.270
789.260, 32128.971
789.742, 32117.381
790.224, 32127.779
790.706, 32115.381
791.188, 32046.920
791.670, 31977.961
792.152, 32004.061
792.634, 32085.131
793.117, 32088.070
793.599, 32007.850
794.081, 31942.539
794.563, 31943.711
795.045, 31973.539
795.527, 31969.850
796.009, 31930.670
796.491, 31883.580
796.973, 31819.320
797.456, 31770.039
797.938, 31752.500
798.420, 31747.891
798.902, 31726.199
799.384, 31691.240
799.866, 31698.000
800.348, 31811.869
800.830, 31884.789
801.312, 31854.471
801.795, 31791.070
802.277, 31739.180
802.759, 31705.160
803.241, 31687.760
803.723, 31687.391
804.205, 31698.699
804.687, 31717.330
805.169, 31745.270
805.652, 31798.660
806.134, 31865.131
806.616, 31896.900
807.098, 31877.240
807.580, 31847.891
808.062, 31861.961
808.544, 31908.990
809.026, 31934.279
809.508, 31937.211
809.991, 31918.561
810.473, 31865.170
810.955, 31834.400
811.437, 31891.100
811.919, 32013.230
812.401, 32069.711
812.883, 32005.869
813.365, 31972.211
813.847, 31993.939
814.330, 32025.990
814.812, 32063.061
815.294, 32091.410
815.776, 32084.260
816.258, 32031.570
816.740, 31987.760
817.222, 31962.230
817.705, 31960.811
818.187, 32003.619
818.669, 32065.350
819.151, 32110.109
819.633, 32132.801
820.115, 32154.461
820.597, 32193.990
821.079, 32233.109
821.561, 32242.141
822.044, 32230.010
822.526, 32217.961
823.008, 32210.250
823.490, 32213.650
823.972, 32232.721
824.454, 32261.631
824.936, 32289.881
825.418, 32317.430
825.901, 32343.430
826.383, 32368.131
826.865, 32388.090
827.347, 32395.900
827.829, 32406.420
828.311, 32435.439
828.793, 32482.461
829.275, 32555.301
829.757, 32709.600
830.240, 32812.070
830.722, 32820.641
831.204, 32795.059
831.686, 32752.730
832.168, 32711.430
832.650, 32712.801
833.132, 32781.891
833.614, 32844.172
834.096, 32835.730
834.578, 32836.211
835.061, 32952.379
835.543, 33114.520
836.025, 33178.379
836.507, 33113.109
836.989, 33032.309
837.471, 33025.289
837.953, 33063.172
838.435, 33108.512
838.917, 33158.930
839.400, 33211.059
839.882, 33262.719
840.364, 33294.551
840.846, 33289.469
841.328, 33272.738
841.810, 33305.891
842.292, 33392.449
842.774, 33459.809
843.257, 33500.230
843.739, 33544.102
844.221, 33606.070
844.703, 33675.250
845.185, 33731.789
845.667, 33772.531
846.149, 33849.012
846.631, 33997.891
847.114, 34128.172
847.596, 34207.250
848.078, 34280.590
848.560, 34377.750
849.042, 34493.801
849.524, 34614.320
850.006, 34747.930
850.488, 34855.441
850.971, 34899.219
851.453, 34938.051
851.935, 35010.230
852.417, 35105.270
852.899, 35191.578
853.381, 35267.539
853.863, 35384.680
854.345, 35622.250
854.827, 35875.500
855.310, 36014.941
855.792, 36093.930
856.274, 36224.551
856.756, 36409.840
857.238, 36557.629
857.720, 36608.270
858.202, 36637.379
858.684, 36772.180
859.166, 36993.551
859.649, 37203.660
860.131, 37397.941
860.613, 37569.121
861.095, 37711.820
861.577, 37852.641
862.059, 38028.000
862.541, 38230.750
863.023, 38394.879
863.505, 38504.199
863.988, 38635.039
864.470, 38816.309
864.952, 38989.148
865.434, 39104.961
865.916, 39188.090
866.398, 39302.289
866.880, 39471.328
867.362, 39609.051
867.844, 39704.039
868.327, 39782.320
868.809, 39830.051
869.291, 39880.512
869.773, 39989.000
870.255, 40143.051
870.737, 40238.762
871.219, 40209.559
871.701, 40167.879
872.184, 40148.398
872.666, 40147.359
873.148, 40179.801
873.630, 40224.000
874.112, 40231.000
874.594, 40184.129
875.076, 40127.371
875.558, 40094.922
876.041, 40069.699
876.523, 40040.422
877.005, 39998.238
877.487, 39918.539
877.969, 39801.422
878.451, 39679.879
878.933, 39578.379
879.415, 39482.020
879.898, 39358.711
880.380, 39216.719
880.862, 39102.320
881.344, 39016.961
881.826, 38918.719
882.308, 38791.578
882.790, 38626.090
883.272, 38396.590
883.754, 38115.602
884.237, 37901.309
884.719, 37772.172
885.201, 37613.891
885.683, 37399.730
886.165, 37168.730
886.647, 36952.570
887.129, 36737.609
887.611, 36483.441
888.093, 36167.039
888.576, 35876.789
889.058, 35599.410
889.540, 35367.770
890.022, 35257.629
890.504, 35150.672
890.986, 34913.609
891.468, 34560.609
891.950, 34246.629
892.432, 34009.941
892.915, 33780.398
893.397, 33536.789
893.879, 33304.219
894.361, 33115.160
894.843, 32942.371
895.325, 32728.830
895.807, 32462.490
896.289, 32205.939
896.771, 31990.590
897.254, 31792.260
897.736, 31609.189
898.218, 31424.051
898.700, 31204.301
899.182, 30960.730
899.664, 30745.961
900.146, 30589.510
900.628, 30441.449
901.111, 30250.010
901.593, 30041.680
902.075, 29841.670
902.557, 29657.939
903.039, 29507.350
903.521, 29393.000
904.003, 29293.480
904.485, 29193.039
904.968, 29093.211
905.450, 28999.650
905.932, 28910.760
906.414, 28817.971
906.896, 28722.051
907.378, 28639.029
907.860, 28577.730
908.342, 28531.461
908.825, 28495.449
909.307, 28466.461
909.789, 28413.801
910.271, 28335.631
910.753, 28259.240
911.235, 28188.801
911.717, 28131.930
912.199, 28098.510
912.681, 28076.141
913.164, 28024.980
913.646, 27930.330
914.128, 27874.420
914.610, 27883.289
915.092, 27862.420
915.574, 27753.221
916.056, 27635.881
916.538, 27608.590
917.020, 27661.420
917.503, 27662.230
917.985, 27553.551
918.467, 27493.070
918.949, 27556.770
919.431, 27595.250
919.913, 27503.250
920.395, 27362.051
920.877, 27304.820
921.359, 27348.020
921.842, 27339.119
922.324, 27199.381
922.806, 27087.320
923.288, 27057.529
923.770, 27060.439
924.252, 27071.650
924.734, 27081.131
925.216, 27068.750
925.698, 27021.801
926.181, 26993.990
926.663, 27027.400
927.145, 27060.400
927.627, 27053.449
928.109, 27025.900
928.591, 26996.631
929.073, 26971.520
929.555, 26959.010
930.038, 26967.320
930.520, 26975.881
931.002, 26977.980
931.484, 26966.961
931.966, 26920.840
932.448, 26860.850
932.930, 26835.070
933.412, 26849.820
933.894, 26855.410
934.377, 26803.850
934.859, 26748.230
935.341, 26765.900
935.823, 26812.980
936.305, 26815.840
936.787, 26774.561
937.269, 26715.100
937.752, 26649.410
938.234, 26594.721
938.716, 26577.150
939.198, 26576.920
939.680, 26551.930
940.162, 26511.070
940.644, 26485.910
941.126, 26478.811
941.608, 26461.619
942.091, 26416.830
942.573, 26370.920
943.055, 26368.811
943.537, 26399.801
944.019, 26421.619
944.501, 26433.100
944.983, 26424.730
945.465, 26394.221
945.947, 26361.480
946.430, 26341.150
946.912, 26332.641
947.394, 26336.961
947.876, 26353.641
948.358, 26373.029
948.840, 26395.939
949.322, 26400.090
949.804, 26376.100
950.286, 26338.180
950.769, 26296.180
951.251, 26256.510
951.733, 26256.340
952.215, 26306.740
952.697, 26302.189
953.179, 26212.520
953.661, 26164.320
954.143, 26231.721
954.625, 26324.109
955.108, 26314.699
955.590, 26212.369
956.072, 26175.930
956.554, 26235.480
957.036, 26262.119
957.518, 26229.830
958.000, 26185.350
958.482, 26152.500
958.965, 26125.270
959.447, 26090.131
959.929, 26043.760
960.411, 26030.721
960.893, 26074.480
961.375, 26104.631
961.857, 26105.830
962.339, 26095.109
962.821, 26083.029
963.304, 26067.070
963.786, 26039.881
964.268, 25996.740
964.750, 25960.189
965.232, 25925.061
965.714, 25903.109
966.196, 25893.830
966.679, 25900.910
967.161, 25939.660
967.643, 25996.631
968.125, 26029.221
968.607, 26031.939
969.089, 26022.330
969.571, 25996.090
970.053, 25964.061
970.535, 25917.529
971.018, 25876.680
971.500, 25870.189
971.982, 25887.779
972.464, 25878.789
972.946, 25809.660
973.428, 25773.211
973.910, 25805.721
974.392, 25844.180
974.875, 25878.520
975.357, 25893.150
975.839, 25857.990
976.321, 25782.010
976.803, 25733.400
977.285, 25745.061
977.767, 25748.330
978.249, 25710.891
978.731, 25680.461
979.214, 25696.939
979.696, 25727.859
980.178, 25718.779
980.660, 25671.670
981.142, 25661.820
981.624, 25761.920
982.106, 25824.811
982.588, 25779.170
983.070, 25711.801
983.553, 25674.000
984.035, 25655.590
984.517, 25637.260
984.999, 25616.029
985.481, 25595.230
985.963, 25566.141
986.445, 25550.971
986.927, 25580.789
987.409, 25605.820
987.892, 25581.340
988.374, 25527.180
988.856, 25474.000
989.338, 25428.490
989.820, 25410.090
990.302, 25465.160
990.784, 25497.930
991.266, 25437.721
991.748, 25363.141
992.231, 25345.551
992.713, 25364.330
993.195, 25366.711
993.677, 25341.211
994.159, 25324.590
994.641, 25339.000
995.123, 25357.490
995.606, 25369.660
996.088, 25377.039
996.570, 25368.369
997.052, 25359.650
997.534, 25396.930
998.016, 25493.811
998.498, 25547.711
998.980, 25466.160
999.462, 25386.520
999.945, 25388.430
1000.427, 25424.000
1000.909, 25455.561
1001.391, 25477.580
1001.873, 25492.000
1002.355, 25499.449
1002.837, 25494.850
1003.319, 25472.561
1003.801, 25441.510
1004.284, 25403.830
1004.766, 25362.381
1005.248, 25311.340
1005.730, 25260.410
1006.212, 25236.391
1006.694, 25249.221
1007.176, 25255.689
1007.658, 25227.221
1008.141, 25198.820
1008.623, 25188.820
1009.105, 25190.500
1009.587, 25211.061
1010.069, 25234.279
1010.551, 25218.131
1011.033, 25146.760
1011.515, 25084.779
1011.997, 25076.070
1012.480, 25064.160
1012.962, 24992.369
1013.444, 24923.061
1013.926, 24934.580
1014.408, 24999.900
1014.890, 25036.760
1015.372, 25021.619
1015.854, 25004.869
1016.336, 25012.520
1016.819, 25015.670
1017.301, 25001.211
1017.783, 24973.900
1018.265, 24924.109
1018.747, 24868.461
1019.229, 24851.039
1019.711, 24888.529
1020.193, 24907.760
1020.676, 24855.039
1021.158, 24814.900
1021.640, 24836.020
1022.122, 24877.619
1022.604, 24924.869
1023.086, 24957.471
1023.568, 24924.529
1024.050, 24803.650
1024.532, 24722.689
1025.015, 24753.740
1025.497, 24785.391
1025.979, 24772.400
1026.461, 24744.949
1026.943, 24713.359
1027.425, 24691.369
1027.907, 24714.570
1028.389, 24799.211
1028.872, 24842.320
1029.354, 24784.211
1029.836, 24734.119
1030.318, 24734.891
1030.800, 24746.980
1031.282, 24738.301
1031.764, 24719.600
1032.246, 24722.311
1032.729, 24756.289
1033.211, 24754.840
1033.693, 24683.990
1034.175, 24612.859
1034.657, 24524.400
1035.139, 24473.881
1035.621, 24528.100
1036.103, 24632.850
1036.585, 24689.760
1037.068, 24691.061
1037.550, 24682.350
1038.032, 24654.080
1038.514, 24633.100
1038.996, 24640.350
1039.478, 24636.359
1039.960, 24579.730
1040.442, 24510.400
1040.924, 24500.850
1041.407, 24556.881
1041.889, 24565.670
1042.371, 24482.520
1042.853, 24436.490
1043.335, 24462.369
1043.817, 24492.881
1044.299, 24499.141
1044.781, 24487.289
1045.264, 24461.260
1045.746, 24422.279
1046.228, 24400.750
1046.710, 24400.109
1047.192, 24413.580
1047.674, 24464.660
1048.156, 24467.619
1048.638, 24356.699
1049.120, 24232.811
1049.603, 24228.359
1050.085, 24320.801
1050.567, 24345.400
1051.049, 24282.990
1051.531, 24248.760
1052.013, 24254.820
1052.495, 24270.189
1052.977, 24284.930
1053.459, 24297.660
1053.942, 24305.320
1054.424, 24311.539
1054.906, 24337.010
1055.388, 24383.680
1055.870, 24386.600
1056.352, 24338.631
1056.834, 24305.680
1057.316, 24310.330
1057.799, 24315.400
1058.281, 24286.900
1058.763, 24244.330
1059.245, 24242.311
1059.727, 24272.430
1060.209, 24257.461
1060.691, 24200.211
1061.173, 24159.320
1061.656, 24149.670
1062.138, 24161.930
1062.620, 24193.100
1063.102, 24219.270
1063.584, 24187.330
1064.066, 24123.359
1064.548, 24111.109
1065.030, 24138.039
1065.512, 24150.930
1065.995, 24141.699
1066.477, 24130.221
1066.959, 24126.850
1067.441, 24127.760
1067.923, 24135.869
1068.405, 24139.980
1068.887, 24115.961
1069.369, 24076.010
1069.851, 24037.381
1070.334, 24008.051
1070.816, 24007.699
1071.298, 24042.670
1071.780, 24073.920
1072.262, 24068.529
1072.744, 24045.730
1073.226, 24012.869
1073.708, 23982.221
1074.191, 23973.750
1074.673, 23979.551
1075.155, 23978.260
1075.637, 23964.949
1076.119, 23951.150
1076.601, 23940.711
1077.083, 23934.750
1077.565, 23942.859
1078.047, 23947.010
1078.530, 23912.311
1079.012, 23874.199
1079.494, 23901.600
1079.976, 23990.029
1080.458, 24043.881
1080.940, 24019.369
1081.422, 23991.240
1081.904, 23988.600
1082.386, 23976.461
1082.869, 23924.279
1083.351, 23863.891
1083.833, 23824.840
1084.315, 23807.939
1084.797, 23808.520
1085.279, 23833.561
1085.761, 23858.650
1086.243, 23902.180
1086.725, 23917.670
1087.208, 23869.430
1087.690, 23820.449
1088.172, 23821.551
1088.654, 23850.990
1089.136, 23858.010
1089.618, 23839.230
1090.100, 23822.980
1090.582, 23806.230
1091.065, 23801.131
1091.547, 23811.590
1092.029, 23827.400
1092.511, 23843.279
1092.993, 23860.250
1093.475, 23881.230
1093.957, 23904.359
1094.439, 23917.641
1094.922, 23921.010
1095.404, 23908.270
1095.886, 23878.211
1096.368, 23860.721
1096.850, 23867.830
1097.332, 23887.961
1097.814, 23916.609
1098.296, 23933.230
1098.778, 23867.230
1099.260, 23752.619
1099.743, 23721.740
1100.225, 23761.830
1100.707, 23784.039
1101.189, 23768.369
1101.671, 23754.660
1102.153, 23769.920
1102.635, 23786.900
1103.117, 23774.000
1103.600, 23743.711
1104.082, 23713.170
1104.564, 23679.230
1105.046, 23616.250
1105.528, 23543.320
1106.010, 23540.090
1106.492, 23638.869
1106.974, 23721.270
1107.457, 23684.619
1107.939, 23638.609
1108.421, 23665.650
1108.903, 23709.711
1109.385, 23722.770
1109.867, 23708.119
1110.349, 23668.070
1110.831, 23606.619
1111.313, 23586.971
1111.796, 23677.840
1112.278, 23732.820
1112.760, 23679.480
1113.242, 23630.721
1113.724, 23656.670
1114.206, 23705.939
1114.688, 23717.961
1115.170, 23699.840
1115.652, 23689.949
1116.135, 23698.600
1116.617, 23684.721
1117.099, 23629.330
1117.581, 23598.369
1118.063, 23620.721
1118.545, 23642.670
1119.027, 23623.211
1119.509, 23585.109
1119.992, 23574.529
1120.474, 23589.980
1120.956, 23589.279
1121.438, 23571.539
1121.920, 23569.910
1122.402, 23589.260
1122.884, 23609.301
1123.366, 23621.141
1123.849, 23618.211
1124.331, 23589.939
1124.813, 23548.000
1125.295, 23512.711
1125.777, 23486.830
1126.259, 23484.551
1126.741, 23498.619
1127.223, 23496.160
1127.705, 23474.600
1128.188, 23474.449
1128.670, 23524.340
1129.152, 23580.650
1129.634, 23611.650
1130.116, 23620.641
1130.598, 23599.430
1131.080, 23566.311
1131.562, 23538.801
1132.044, 23523.529
1132.527, 23536.000
1133.009, 23583.150
1133.491, 23606.881
1133.973, 23553.850
1134.455, 23517.670
1134.937, 23560.010
1135.419, 23600.689
1135.901, 23580.770
1136.384, 23530.029
1136.866, 23484.551
1137.348, 23447.990
1137.830, 23445.920
1138.312, 23514.109
1138.794, 23534.320
1139.276, 23469.250
1139.758, 23441.131
1140.240, 23507.461
1140.723, 23568.520
1141.205, 23537.529
1141.687, 23461.789
1142.169, 23446.369
1142.651, 23488.490
1143.133, 23530.109
1143.615, 23570.539
1144.097, 23577.961
1144.579, 23549.131
1145.062, 23520.590
1145.544, 23509.141
1146.026, 23507.420
1146.508, 23510.500
1146.990, 23513.551
1147.472, 23514.689
1147.954, 23505.949
1148.436, 23449.750
1148.919, 23375.801
1149.401, 23372.830
1149.883, 23441.369
1150.365, 23483.539
1150.847, 23446.039
1151.329, 23407.080
1151.811, 23413.830
1152.293, 23440.961
1152.776, 23499.740
1153.258, 23545.859
1153.740, 23519.090
1154.222, 23450.660
1154.704, 23415.529
1155.186, 23425.641
1155.668, 23429.199
1156.150, 23408.949
1156.632, 23399.141
1157.115, 23407.539
1157.597, 23420.029
1158.079, 23438.480
1158.561, 23447.090
1159.043, 23426.689
1159.525, 23385.801
1160.007, 23351.520
1160.489, 23323.189
1160.971, 23303.311
1161.454, 23291.051
1161.936, 23311.250
1162.418, 23369.189
1162.900, 23412.949
1163.382, 23414.590
1163.864, 23387.939
1164.346, 23344.900
1164.828, 23291.600
1165.311, 23218.131
1165.793, 23154.090
1166.275, 23182.320
1166.757, 23275.330
1167.239, 23354.090
1167.721, 23397.000
1168.203, 23407.359
1168.685, 23379.150
1169.167, 23348.189
1169.650, 23353.641
1170.132, 23343.680
1170.614, 23253.160
1171.096, 23156.711
1171.578, 23131.400
1172.060, 23158.510
1172.542, 23193.801
1173.024, 23236.359
1173.506, 23236.590
1173.989, 23143.260
1174.471, 23100.270
1174.953, 23143.279
1175.435, 23186.449
1175.917, 23201.461
1176.399, 23195.051
1176.881, 23169.211
1177.363, 23133.510
1177.846, 23113.770
1178.328, 23109.500
1178.810, 23113.619
1179.292, 23123.650
1179.774, 23098.520
1180.256, 23039.619
1180.738, 23035.279
1181.220, 23122.789
1181.703, 23199.920
1182.185, 23158.119
1182.667, 23079.080
1183.149, 23065.250
1183.631, 23079.000
1184.113, 23070.189
1184.595, 23051.670
1185.077, 23062.359
1185.559, 23094.619
1186.042, 23086.869
1186.524, 23002.090
1187.006, 22967.619
1187.488, 23094.891
1187.970, 23179.650
1188.452, 23106.971
1188.934, 23022.750
1189.416, 23026.189
1189.898, 23066.961
1190.381, 23078.211
1190.863, 23064.830
1191.345, 23066.131
1191.827, 23085.461
1192.309, 23098.600
1192.791, 23103.779
1193.273, 23113.350
1193.755, 23130.930
1194.238, 23147.730
1194.720, 23159.150
1195.202, 23157.600
1195.684, 23117.760
1196.166, 23071.609
1196.648, 23094.230
1197.130, 23155.900
1197.612, 23213.199
1198.094, 23251.490
1198.577, 23243.090
1199.059, 23190.699
1199.541, 23143.721
1200.023, 23121.930
1200.505, 23115.449
1200.987, 23133.119
1201.469, 23147.090
1201.951, 23141.211
1202.433, 23127.100
1202.916, 23113.891
1203.398, 23099.721
1203.880, 23078.080
1204.362, 23049.680
1204.844, 23033.260
1205.326, 23025.529
1205.808, 23049.869
1206.290, 23117.369
1206.773, 23162.930
1207.255, 23166.730
1207.737, 23149.961
1208.219, 23125.070
1208.701, 23107.070
1209.183, 23128.461
1209.665, 23168.289
1210.147, 23114.863
1210.630, 23200.543
1211.112, 23252.441
1211.594, 23272.393
1212.076, 23164.711
1212.558, 23221.840
1213.040, 23212.922
1213.522, 23201.293
1214.004, 23281.621
1214.486, 23253.801
1214.969, 23336.381
1215.451, 23320.150
1215.933, 23282.859
1216.415, 23285.510
1216.897, 23317.570
1217.379, 23362.430
1217.861, 23418.301
1218.343, 23439.301
1218.825, 23417.881
1219.308, 23395.330
1219.790, 23372.000
1220.272, 23369.580
1220.754, 23395.391
1221.236, 23413.711
1221.718, 23398.990
1222.200, 23383.100
1222.682, 23424.211
1223.165, 23480.641
1223.647, 23452.439
1224.129, 23395.820
1224.611, 23430.830
1225.093, 23515.230
1225.575, 23519.000
1226.057, 23436.850
1226.539, 23399.789
1227.021, 23470.609
1227.504, 23533.400
1227.986, 23554.561
1228.468, 23555.240
1228.950, 23529.949
1229.432, 23500.641
1229.914, 23471.590
1230.396, 23456.109
1230.878, 23477.801
1231.360, 23526.721
1231.843, 23546.980
1232.325, 23537.570
1232.807, 23541.461
1233.289, 23559.449
1233.771, 23579.039
1234.253, 23597.029
1234.735, 23610.539
1235.217, 23618.051
1235.700, 23627.490
1236.182, 23647.949
1236.664, 23671.189
1237.146, 23688.240
1237.628, 23703.211
1238.110, 23712.180
1238.592, 23727.369
1239.074, 23789.510
1239.557, 23873.449
1240.039, 23867.971
1240.521, 23719.520
1241.003, 23669.420
1241.485, 23780.520
1241.967, 23886.961
1242.449, 23983.439
1242.931, 24039.150
1243.413, 24036.490
1243.896, 24006.289
1244.378, 23970.939
1244.860, 23945.721
1245.342, 23970.971
1245.824, 24030.131
1246.306, 24067.920
1246.788, 24090.779
1247.270, 24118.699
1247.752, 24149.990
1248.235, 24170.990
1248.717, 24178.580
1249.199, 24182.381
1249.681, 24187.010
1250.163, 24188.641
1250.645, 24184.811
1251.127, 24178.439
1251.609, 24144.080
1252.092, 24137.000
1252.574, 24231.199
1253.056, 24348.869
1253.538, 24365.289
1254.020, 24299.439
1254.502, 24285.770
1254.984, 24327.551
1255.466, 24348.840
1255.948, 24348.170
1256.431, 24358.699
##END=



