##NAMES=Florkeite
##RRUFFID=R141068
##IDEAL CHEMISTRY=(K_3_Ca_2_Na)[Al_8_Si_8_O_32_]&#183;12H_2_O
##LOCALITY=Seekante, Mayener Feld, Southern lava flow, Bellerberg volcano, Ettringen, Mayen, Eifel, Rhineland-Palatinate, Germany
##OWNER=RRUFF
##SOURCE=Ch. and H. Sch√§fer
##DESCRIPTION=Colorless bladed to prismatic crystals, associated with gismondine and white tobermorite
##STATUS=The identification of this mineral has been confirmed by single-crystal X-ray diffraction.
##URL=rruff.info/R141068
98.26117, 0.0000000E+00
98.74329, 0.2213440
99.22540, 1.662735
99.70752, 2.831436
100.1896, 2.926437
100.6718, 3.675003
101.1539, 3.604034
101.6360, 2.100189
102.1181, 0.8548580
102.6002, 0.1598820
103.0823, 0.9168400
103.5645, 1.138062
104.0466, 0.9111020
104.5287, 6.2164001E-02
105.0108, 1.606995
105.4929, 4.159210
105.9750, 7.382751
106.4572, 11.67947
106.9393, 17.35928
107.4214, 21.41351
107.9035, 23.39496
108.3856, 24.09427
108.8677, 24.32751
109.3499, 23.32404
109.8320, 22.66052
110.3141, 22.65936
110.7962, 23.43295
111.2783, 24.59006
111.7604, 26.14053
112.2426, 28.07355
112.7247, 30.32809
113.2068, 32.92984
113.6889, 35.82416
114.1710, 38.99286
114.6531, 42.57590
115.1353, 46.14404
115.6174, 49.91391
116.0995, 53.65631
116.5816, 56.85361
117.0637, 59.15030
117.5458, 60.90146
118.0280, 62.37497
118.5101, 63.64783
118.9922, 64.58783
119.4743, 64.60431
119.9564, 63.99350
120.4385, 64.08466
120.9207, 65.88641
121.4028, 68.72562
121.8849, 71.84644
122.3670, 75.37308
122.8491, 78.85730
123.3312, 82.09009
123.8134, 85.04633
124.2955, 87.18137
124.7776, 87.57376
125.2597, 86.79309
125.7418, 86.00522
126.2239, 85.45233
126.7061, 85.24146
127.1882, 85.46820
127.6703, 86.11392
128.1524, 87.35437
128.6345, 89.88846
129.1166, 93.39673
129.5988, 96.45337
130.0809, 97.95151
130.5630, 98.39398
131.0451, 99.66492
131.5272, 102.0375
132.0093, 104.5709
132.4915, 105.5712
132.9736, 105.0424
133.4557, 104.8623
133.9378, 106.3377
134.4199, 109.3537
134.9020, 111.8652
135.3842, 113.6308
135.8663, 114.9075
136.3484, 116.3208
136.8305, 117.8605
137.3126, 119.4916
137.7947, 121.0554
138.2769, 122.4626
138.7590, 124.6003
139.2411, 128.1480
139.7232, 132.3308
140.2053, 133.6764
140.6874, 131.2731
141.1696, 127.9649
141.6517, 125.7200
142.1338, 124.8298
142.6159, 124.3277
143.0980, 124.4448
143.5801, 125.0593
144.0623, 124.5431
144.5444, 122.2442
145.0265, 119.5798
145.5086, 117.7185
145.9907, 117.1192
146.4728, 116.6139
146.9550, 116.1957
147.4371, 115.9073
147.9192, 115.0073
148.4013, 112.9418
148.8834, 110.5932
149.3655, 108.7462
149.8477, 107.4189
150.3298, 106.5766
150.8119, 106.4639
151.2940, 107.3131
151.7761, 107.5361
152.2583, 106.6435
152.7404, 105.2612
153.2225, 104.0380
153.7046, 102.6739
154.1867, 101.8156
154.6688, 101.8860
155.1510, 103.2927
155.6331, 104.0965
156.1152, 103.1342
156.5973, 101.5354
157.0794, 100.4244
157.5615, 100.0840
158.0437, 100.2267
158.5258, 100.8969
159.0079, 102.3975
159.4900, 103.5246
159.9721, 103.4962
160.4542, 102.8747
160.9364, 102.6708
161.4185, 103.3686
161.9006, 104.5193
162.3827, 106.0539
162.8648, 108.3883
163.3469, 109.9911
163.8291, 109.5981
164.3112, 107.9066
164.7933, 106.5517
165.2754, 106.5264
165.7575, 106.9774
166.2396, 107.3097
166.7218, 107.4855
167.2039, 107.3805
167.6860, 106.8397
168.1681, 105.9430
168.6502, 104.9209
169.1323, 103.8452
169.6145, 102.7455
170.0966, 101.6885
170.5787, 100.8349
171.0608, 99.80765
171.5429, 98.16052
172.0250, 95.98438
172.5072, 93.81378
172.9893, 91.85229
173.4714, 90.09045
173.9535, 88.54541
174.4356, 87.34857
174.9177, 86.20322
175.3999, 84.75821
175.8820, 83.02408
176.3641, 81.23230
176.8462, 79.46494
177.3283, 77.74091
177.8104, 76.09012
178.2926, 74.55365
178.7747, 73.09625
179.2568, 71.72153
179.7389, 70.43832
180.2210, 69.10211
180.7031, 67.62521
181.1853, 66.02454
181.6674, 64.35437
182.1495, 62.61111
182.6316, 60.82959
183.1137, 59.07013
183.5958, 57.31314
184.0780, 55.69400
184.5601, 54.36176
185.0422, 53.29376
185.5243, 52.29581
186.0064, 51.36584
186.4885, 50.45068
186.9707, 49.52988
187.4528, 48.61542
187.9349, 47.44116
188.4170, 45.46902
188.8991, 42.83618
189.3812, 40.60416
189.8634, 39.22198
190.3455, 38.49304
190.8276, 37.64697
191.3097, 36.65604
191.7918, 35.66357
192.2739, 34.80447
192.7561, 34.06537
193.2382, 33.46021
193.7203, 33.07541
194.2024, 32.83600
194.6845, 32.19025
195.1666, 30.99399
195.6488, 29.86472
196.1309, 29.73422
196.6130, 30.66913
197.0951, 31.36890
197.5772, 31.37299
198.0593, 30.73428
198.5415, 29.94662
199.0236, 28.93655
199.5057, 28.00443
199.9878, 27.64944
200.4699, 27.96771
200.9520, 28.23193
201.4342, 28.10742
201.9163, 27.62494
202.3984, 27.69592
202.8805, 28.53806
203.3626, 29.52975
203.8447, 29.72598
204.3269, 28.93930
204.8090, 28.27655
205.2911, 28.10010
205.7732, 28.42188
206.2553, 28.92184
206.7374, 29.57275
207.2196, 30.34317
207.7017, 31.35730
208.1838, 32.79947
208.6659, 33.83240
209.1480, 34.02756
209.6301, 33.29776
210.1123, 32.94403
210.5944, 33.08972
211.0765, 33.46414
211.5586, 33.63199
212.0407, 33.46030
212.5228, 33.30206
213.0050, 33.37335
213.4871, 33.75641
213.9692, 33.74237
214.4513, 33.19720
214.9334, 32.40396
215.4155, 31.70544
215.8977, 31.05490
216.3798, 30.60400
216.8619, 30.59241
217.3440, 31.19165
217.8261, 30.88327
218.3082, 29.25159
218.7904, 27.08304
219.2725, 25.57324
219.7546, 25.13339
220.2367, 24.50467
220.7188, 23.25848
221.2009, 21.25824
221.6831, 19.72833
222.1652, 18.87350
222.6473, 18.25009
223.1294, 17.28033
223.6115, 15.73370
224.0936, 14.34900
224.5758, 13.37000
225.0579, 12.88779
225.5400, 12.17032
226.0221, 11.01144
226.5042, 9.710266
226.9863, 8.746765
227.4685, 8.290649
227.9506, 7.873505
228.4327, 7.363220
228.9148, 6.727386
229.3969, 6.152283
229.8790, 5.555756
230.3612, 5.077393
230.8433, 4.945465
231.3254, 5.459839
231.8075, 5.752563
232.2896, 5.518921
232.7717, 4.675537
233.2539, 4.110016
233.7360, 4.020874
234.2181, 4.051971
234.7002, 3.774963
235.1823, 2.981018
235.6644, 2.278168
236.1466, 1.843231
236.6287, 1.715424
237.1108, 1.465363
237.5929, 1.000000
238.0750, 0.5331120
238.5571, 0.3333440
239.0393, 0.6698000
239.5214, 0.7895200
240.0035, 0.4048460
240.4856, 0.5485530
240.9677, 0.9435730
241.4498, 0.3831480
241.9320, 0.3424380
242.4141, 0.4270630
242.8962, 0.5879820
243.3783, 1.402496
243.8604, 1.775970
244.3425, 1.693787
244.8247, 1.397552
245.3068, 0.8053590
245.7889, 0.2324520
246.2710, 8.3587997E-02
246.7531, 3.0823000E-02
247.2352, 6.1005000E-02
247.7174, 0.2057800
248.1995, 0.4313050
248.6816, 0.6278990
249.1637, 0.8048400
249.6458, 0.9479060
250.1279, 1.030182
250.6101, 0.9388730
251.0922, 1.129395
251.5743, 1.874664
252.0564, 3.060699
252.5385, 3.593658
253.0206, 3.088104
253.5028, 2.403961
253.9849, 2.180695
254.4670, 2.626007
254.9491, 2.990570
255.4312, 3.115570
255.9133, 3.077545
256.3955, 3.388214
256.8776, 4.383667
257.3597, 5.185394
257.8418, 5.133728
258.3239, 3.744141
258.8061, 2.787598
259.2882, 2.503815
259.7703, 2.719849
260.2524, 2.823944
260.7345, 2.851440
261.2166, 2.704773
261.6988, 2.313812
262.1809, 1.661407
262.6630, 0.8581240
263.1451, 0.2243350
263.6272, 1.371338
264.1093, 1.911835
264.5915, 1.621246
265.0736, 1.224426
265.5557, 1.046844
266.0378, 1.114136
266.5199, 1.271515
267.0020, 1.518402
267.4842, 1.848694
267.9663, 2.315826
268.4484, 3.049438
268.9305, 3.550903
269.4126, 3.507263
269.8947, 2.787476
270.3769, 2.350769
270.8590, 2.261139
271.3411, 2.381592
271.8232, 2.514130
272.3053, 2.685272
272.7874, 2.782623
273.2696, 2.756958
273.7517, 2.595001
274.2338, 2.546234
274.7159, 2.682037
275.1980, 2.787506
275.6801, 2.528229
276.1623, 1.846893
276.6444, 1.135681
277.1265, 0.4560240
277.6086, 0.1889340
278.0907, 0.5191960
278.5728, 0.4554140
279.0550, 0.3328250
279.5371, 0.6464840
280.0192, 1.458527
280.5013, 1.936890
280.9834, 1.767426
281.4655, 1.088898
281.9477, 0.5276790
282.4298, 5.8837999E-02
282.9119, 0.1443790
283.3940, 0.2171020
283.8761, 1.130737
284.3582, 1.912720
284.8404, 2.396301
285.3225, 2.654114
285.8046, 2.913330
286.2867, 3.176849
286.7688, 3.374054
287.2509, 3.414185
287.7331, 3.313995
288.2152, 3.211670
288.6973, 3.085907
289.1794, 3.022766
289.6615, 3.294128
290.1436, 3.897339
290.6258, 4.454590
291.1079, 4.614410
291.5900, 4.490906
292.0721, 4.651093
292.5542, 5.270691
293.0363, 5.933167
293.5185, 5.911011
294.0006, 5.262085
294.4827, 4.559082
294.9648, 4.120300
295.4469, 3.858856
295.9290, 3.529083
296.4112, 3.089417
296.8933, 2.684326
297.3754, 2.501984
297.8575, 2.511780
298.3396, 2.594635
298.8217, 2.739197
299.3039, 2.917664
299.7860, 3.120544
300.2681, 3.358002
300.7502, 3.412842
301.2323, 2.785400
301.7144, 1.793365
302.1966, 1.234131
302.6787, 1.939758
303.1608, 2.952881
303.6429, 2.894165
304.1250, 1.815491
304.6071, 0.7951660
305.0893, 0.6436460
305.5714, 1.089996
306.0535, 1.719910
306.5356, 2.635742
307.0177, 3.497803
307.4998, 3.972717
307.9820, 4.098358
308.4641, 4.038330
308.9462, 3.642242
309.4283, 3.223755
309.9104, 3.174103
310.3925, 3.660492
310.8747, 4.297577
311.3568, 4.893402
311.8389, 5.457611
312.3210, 5.989960
312.8031, 6.499268
313.2852, 6.996918
313.7674, 7.509003
314.2495, 8.010559
314.7316, 8.462891
315.2137, 8.975403
315.6958, 9.429871
316.1779, 9.620270
316.6601, 9.123199
317.1422, 8.570190
317.6243, 8.279358
318.1064, 8.315338
318.5885, 8.471191
319.0706, 8.838135
319.5528, 9.253418
320.0349, 9.539673
320.5170, 9.479645
320.9991, 9.375885
321.4812, 9.289764
321.9633, 9.250305
322.4455, 9.216492
322.9276, 9.023438
323.4097, 8.910828
323.8918, 9.054474
324.3739, 9.897980
324.8560, 10.52234
325.3382, 10.71149
325.8203, 10.51019
326.3024, 10.27158
326.7845, 10.13708
327.2666, 9.932648
327.7487, 9.594269
328.2309, 9.021240
328.7130, 8.388702
329.1951, 7.433289
329.6772, 6.413116
330.1593, 6.014465
330.6414, 6.959747
331.1236, 7.712372
331.6057, 7.661255
332.0878, 6.352844
332.5699, 5.603912
333.0520, 5.686768
333.5341, 6.185913
334.0163, 6.500519
334.4984, 6.537994
334.9805, 6.569061
335.4626, 6.630585
335.9447, 6.701355
336.4268, 6.950165
336.9090, 7.467957
337.3911, 8.046631
337.8732, 8.498505
338.3553, 8.813995
338.8374, 8.904205
339.3195, 8.670837
339.8017, 8.180084
340.2838, 7.709656
340.7659, 7.228027
341.2480, 6.946594
341.7301, 7.103455
342.2122, 7.696777
342.6944, 8.121857
343.1765, 8.242218
343.6586, 8.251831
344.1407, 8.666595
344.6228, 9.499634
345.1049, 10.12534
345.5871, 10.05185
346.0692, 9.422974
346.5513, 9.063416
347.0334, 9.049561
347.5155, 9.128174
347.9977, 8.930145
348.4798, 8.512207
348.9619, 8.179169
349.4440, 8.076233
349.9261, 8.133606
350.4082, 8.247742
350.8904, 8.415619
351.3725, 8.548767
351.8546, 8.602325
352.3367, 8.555847
352.8188, 8.370270
353.3009, 8.020264
353.7831, 7.534454
354.2652, 6.853180
354.7473, 6.022369
355.2294, 5.273499
355.7115, 4.776703
356.1936, 4.439148
356.6758, 4.166138
357.1579, 3.944824
357.6400, 3.795624
358.1221, 3.911804
358.6042, 4.109955
359.0863, 4.013489
359.5685, 3.198761
360.0506, 2.222351
360.5327, 1.467407
361.0148, 0.9799500
361.4969, 0.5751650
361.9790, 9.3379999E-03
362.4612, 0.5021970
362.9433, 0.6863400
363.4254, 0.1219180
363.9075, 0.4832460
364.3896, 0.9933170
364.8717, 1.378265
365.3539, 1.507782
365.8360, 1.152405
366.3181, 0.6311950
366.8002, 0.1206970
367.2823, 0.6061100
367.7644, 1.015503
368.2466, 0.8226620
368.7287, 0.2502750
369.2108, 6.4423002E-02
369.6929, 3.9337002E-02
370.1750, 0.1585080
370.6571, 0.5448610
371.1393, 1.287811
371.6214, 1.630585
372.1035, 1.326019
372.5856, 0.7935490
373.0677, 0.6056520
373.5498, 0.9635620
374.0320, 1.201599
374.5141, 1.120178
374.9962, 0.7457580
375.4783, 0.4838260
375.9604, 0.3188780
376.4425, 0.2836300
376.9247, 0.4943850
377.4068, 1.016205
377.8889, 1.256470
378.3710, 1.100525
378.8531, 0.6615600
379.3352, 0.1872860
379.8174, 0.3133240
380.2995, 0.8745120
380.7816, 1.643188
381.2637, 2.540649
381.7458, 2.921448
382.2279, 2.673981
382.7101, 2.254761
383.1922, 2.167206
383.6743, 2.386902
384.1564, 2.819000
384.6385, 3.598663
385.1206, 4.485168
385.6028, 5.053741
386.0849, 5.311737
386.5670, 5.412811
387.0491, 5.469452
387.5312, 5.451752
388.0133, 5.303497
388.4955, 4.952240
388.9776, 4.618225
389.4597, 4.472229
389.9418, 4.496887
390.4239, 4.655304
390.9060, 5.103546
391.3882, 5.586609
391.8703, 5.908295
392.3524, 6.041687
392.8345, 6.047638
393.3166, 5.656250
393.7987, 5.242157
394.2809, 5.280182
394.7630, 6.443726
395.2451, 7.549561
395.7272, 8.214630
396.2093, 8.436157
396.6914, 8.501587
397.1736, 8.247009
397.6557, 7.996826
398.1378, 7.950317
398.6199, 8.421906
399.1020, 8.719238
399.5841, 8.655090
400.0663, 8.410217
400.5484, 8.429504
401.0305, 8.949371
401.5126, 9.438354
401.9947, 9.734070
402.4768, 9.819366
402.9590, 9.737976
403.4411, 9.288910
403.9232, 8.904602
404.4053, 9.163757
404.8874, 10.31641
405.3695, 11.25189
405.8517, 11.69327
406.3338, 11.77139
406.8159, 12.12482
407.2980, 12.82638
407.7801, 13.46515
408.2622, 13.59695
408.7444, 13.28323
409.2265, 13.44620
409.7086, 14.26737
410.1907, 15.33383
410.6728, 15.98853
411.1549, 16.29175
411.6371, 16.63266
412.1192, 17.24075
412.6013, 17.98328
413.0834, 18.69818
413.5655, 19.37445
414.0476, 19.73065
414.5298, 19.39618
415.0119, 18.61639
415.4940, 17.75696
415.9761, 16.79303
416.4582, 15.98984
416.9403, 15.83563
417.4225, 16.07455
417.9046, 15.97058
418.3867, 14.56818
418.8688, 13.08902
419.3509, 12.46991
419.8330, 12.94287
420.3152, 13.50839
420.7973, 13.95346
421.2794, 14.30359
421.7615, 14.53226
422.2436, 14.36188
422.7257, 14.30466
423.2079, 14.55359
423.6900, 15.07584
424.1721, 15.49078
424.6542, 15.65894
425.1363, 15.75443
425.6184, 15.86642
426.1006, 15.76578
426.5827, 16.25467
427.0648, 17.74664
427.5469, 19.57520
428.0290, 20.46738
428.5111, 19.95004
428.9933, 19.49438
429.4754, 19.60355
429.9575, 20.29959
430.4396, 20.91440
430.9217, 21.42279
431.4038, 21.82193
431.8860, 22.06094
432.3681, 22.15695
432.8502, 22.50366
433.3323, 23.18854
433.8144, 24.08691
434.2965, 25.06979
434.7787, 26.10498
435.2608, 26.89603
435.7429, 27.10022
436.2250, 27.02026
436.7071, 27.28323
437.1892, 27.90686
437.6714, 28.78967
438.1535, 29.99969
438.6356, 31.38016
439.1177, 32.66965
439.5998, 33.95264
440.0819, 34.92450
440.5641, 35.07843
441.0462, 34.64392
441.5283, 34.43875
442.0104, 34.99692
442.4925, 35.85410
442.9746, 36.77307
443.4568, 37.81726
443.9389, 38.56107
444.4210, 38.26807
444.9031, 37.79901
445.3852, 38.18408
445.8673, 40.65604
446.3495, 42.86566
446.8316, 44.27960
447.3137, 44.92725
447.7958, 45.47305
448.2779, 45.67096
448.7600, 46.00482
449.2422, 46.77872
449.7243, 48.39215
450.2064, 49.48364
450.6885, 49.87326
451.1706, 49.94870
451.6527, 50.23236
452.1349, 50.64716
452.6170, 51.69302
453.0991, 53.77557
453.5812, 56.66589
454.0633, 58.73285
454.5454, 59.95468
455.0276, 60.96393
455.5097, 62.08957
455.9918, 63.41235
456.4739, 65.26013
456.9560, 67.78314
457.4381, 70.50293
457.9203, 72.85159
458.4024, 74.91690
458.8845, 76.99423
459.3666, 79.02686
459.8488, 81.19287
460.3309, 83.63690
460.8130, 86.32980
461.2951, 89.27576
461.7772, 92.73920
462.2593, 96.32892
462.7415, 99.63635
463.2236, 102.6244
463.7057, 105.2058
464.1878, 107.0797
464.6699, 108.4854
465.1520, 109.9480
465.6342, 112.0168
466.1163, 113.8496
466.5984, 115.0775
467.0805, 115.5860
467.5626, 116.3309
468.0447, 117.7874
468.5269, 119.1121
469.0090, 119.7306
469.4911, 119.4121
469.9732, 118.7981
470.4553, 117.7899
470.9374, 116.5836
471.4196, 115.6087
471.9017, 114.9064
472.3838, 114.3226
472.8659, 114.0225
473.3480, 113.8987
473.8301, 112.6066
474.3123, 109.9937
474.7944, 107.2137
475.2765, 105.5374
475.7586, 104.6801
476.2407, 103.3549
476.7228, 101.1939
477.2050, 98.74469
477.6871, 96.64163
478.1692, 94.85712
478.6513, 93.34064
479.1334, 92.37723
479.6155, 91.46967
480.0977, 89.94861
480.5798, 87.80893
481.0619, 85.97815
481.5440, 85.63907
482.0261, 85.54214
482.5082, 84.50983
482.9904, 81.53931
483.4725, 78.71741
483.9546, 76.88324
484.4367, 75.58319
484.9188, 73.88339
485.4009, 71.23538
485.8831, 68.58029
486.3652, 66.13065
486.8473, 63.91971
487.3294, 61.78818
487.8115, 59.63052
488.2936, 57.67700
488.7758, 56.17743
489.2579, 55.38470
489.7400, 54.05161
490.2221, 51.89224
490.7042, 49.38190
491.1863, 47.56973
491.6685, 46.48843
492.1506, 45.35901
492.6327, 43.89856
493.1148, 42.13916
493.5969, 40.13937
494.0790, 37.87427
494.5612, 35.85315
495.0433, 34.70364
495.5254, 34.03302
496.0075, 33.04529
496.4896, 31.54617
496.9717, 29.89359
497.4539, 28.28595
497.9360, 26.78113
498.4181, 25.53885
498.9002, 24.95969
499.3823, 24.34415
499.8644, 23.20209
500.3466, 21.58173
500.8287, 20.15527
501.3108, 19.56433
501.7929, 18.91199
502.2750, 17.61411
502.7571, 14.94778
503.2393, 12.92847
503.7214, 11.75922
504.2035, 11.18564
504.6856, 10.96896
505.1677, 11.57217
505.6498, 11.57053
506.1320, 10.51157
506.6141, 8.613220
507.0962, 7.096954
507.5783, 6.003479
508.0604, 5.108582
508.5425, 4.279999
509.0247, 3.522064
509.5068, 2.968506
509.9889, 2.665131
510.4710, 2.335297
510.9531, 1.488434
511.4352, 0.3398440
511.9174, 0.4411010
512.3995, 0.4559330
512.8816, 0.2759400
513.3637, 0.5904850
513.8458, 1.242859
514.3279, 1.733032
514.8101, 1.471985
515.2922, 1.180359
515.7743, 1.441223
516.2564, 2.354645
516.7385, 3.186493
517.2206, 3.807312
517.7028, 4.161407
518.1849, 4.200317
518.6670, 3.545990
519.1491, 3.042236
519.6312, 2.833740
520.1133, 2.795532
520.5955, 2.681458
521.0776, 2.599274
521.5597, 2.235077
522.0418, 1.352753
522.5239, 4.2420002E-03
523.0060, 0.7831730
523.4882, 0.8800350
523.9703, 0.7653500
524.4524, 0.7189330
524.9345, 0.7527160
525.4166, 1.052216
525.8987, 1.691895
526.3809, 2.399384
526.8630, 2.948547
527.3451, 3.299835
527.8272, 3.301086
528.3093, 2.373718
528.7914, 1.518250
529.2736, 2.035339
529.7557, 3.645355
530.2378, 5.063019
530.7199, 5.397125
531.2020, 5.473328
531.6841, 5.940399
532.1663, 7.033295
532.6484, 7.801483
533.1305, 7.615234
533.6126, 7.192230
534.0947, 7.212555
534.5768, 8.209686
535.0590, 9.003204
535.5411, 9.359894
536.0232, 9.478424
536.5053, 9.947845
536.9874, 10.95078
537.4695, 11.80057
537.9517, 12.14313
538.4338, 12.03192
538.9159, 12.25974
539.3980, 12.85742
539.8801, 13.58105
540.3622, 14.28241
540.8444, 14.94086
541.3265, 15.47778
541.8086, 15.87445
542.2907, 16.21182
542.7728, 16.54749
543.2549, 16.90042
543.7371, 17.30368
544.2192, 17.89774
544.7013, 18.44620
545.1834, 18.71255
545.6655, 18.77850
546.1476, 18.95593
546.6298, 19.47375
547.1119, 20.05743
547.5940, 20.57449
548.0761, 21.01224
548.5582, 21.38174
549.0403, 21.55234
549.5225, 21.74564
550.0046, 22.15912
550.4867, 22.94409
550.9688, 23.60895
551.4509, 24.11676
551.9330, 24.47076
552.4152, 24.63733
552.8973, 24.58673
553.3794, 24.54489
553.8615, 24.53708
554.3436, 24.61349
554.8257, 25.15002
555.3079, 26.12579
555.7900, 26.78763
556.2721, 26.15265
556.7542, 24.95584
557.2363, 24.47647
557.7184, 24.95667
558.2006, 25.57913
558.6827, 25.83267
559.1648, 25.83942
559.6469, 25.75439
560.1290, 25.61432
560.6111, 25.40973
561.0933, 24.98563
561.5754, 24.48343
562.0575, 24.29922
562.5396, 24.82544
563.0217, 25.32541
563.5038, 25.57816
563.9860, 25.57077
564.4681, 25.68024
564.9502, 26.03513
565.4323, 26.26849
565.9144, 26.04266
566.3965, 25.31628
566.8787, 24.76926
567.3608, 24.47931
567.8429, 24.28070
568.3250, 23.93466
568.8071, 23.48395
569.2892, 23.12277
569.7714, 22.88187
570.2535, 22.78061
570.7356, 22.98865
571.2177, 23.36197
571.6998, 23.47369
572.1819, 22.89761
572.6641, 22.19135
573.1462, 21.71017
573.6283, 21.44800
574.1104, 21.16690
574.5925, 20.86420
575.0746, 20.49182
575.5568, 20.01999
576.0389, 19.48807
576.5210, 18.85114
577.0031, 17.79477
577.4852, 16.82858
577.9673, 16.83237
578.4495, 18.29318
578.9316, 18.96609
579.4137, 18.17264
579.8958, 16.54324
580.3779, 15.64661
580.8600, 15.43445
581.3422, 15.44824
581.8243, 15.52084
582.3064, 15.62668
582.7885, 15.66653
583.2706, 15.64255
583.7527, 15.74411
584.2349, 16.46814
584.7170, 17.20200
585.1991, 17.17001
585.6812, 15.93399
586.1633, 14.89059
586.6454, 14.90405
587.1276, 15.34299
587.6097, 15.44235
588.0918, 14.57422
588.5739, 13.99466
589.0560, 14.09601
589.5381, 14.54785
590.0203, 14.38464
590.5024, 13.25244
590.9845, 12.44168
591.4666, 12.59143
591.9487, 13.55188
592.4308, 13.88272
592.9130, 13.53015
593.3951, 13.01715
593.8772, 12.76086
594.3593, 12.65335
594.8414, 12.42667
595.3235, 12.05615
595.8057, 11.61929
596.2878, 11.09753
596.7699, 10.57431
597.2520, 10.25778
597.7341, 10.12634
598.2162, 10.16666
598.6984, 10.72455
599.1805, 11.45654
599.6626, 11.63086
600.1447, 10.37585
600.6268, 9.287384
601.1089, 8.852448
601.5911, 8.994507
602.0732, 9.044067
602.5553, 9.055511
603.0374, 8.937012
603.5195, 8.559204
604.0016, 7.906647
604.4838, 7.571259
604.9659, 7.575195
605.4480, 7.742035
605.9301, 8.002869
606.4122, 8.332489
606.8943, 8.612030
607.3765, 8.811859
607.8586, 8.893982
608.3407, 8.714722
608.8228, 8.434174
609.3049, 8.300446
609.7870, 8.430298
610.2692, 8.658356
610.7513, 9.094788
611.2334, 9.613800
611.7155, 9.771698
612.1976, 9.195679
612.6797, 8.515045
613.1619, 7.889587
613.6440, 7.305817
614.1261, 6.907684
614.6082, 6.733185
615.0903, 6.659973
615.5724, 6.558868
616.0546, 6.424774
616.5367, 6.650482
617.0188, 7.352142
617.5009, 7.995270
617.9830, 7.608978
618.4651, 6.631317
618.9473, 6.494995
619.4294, 8.026947
619.9115, 9.571686
620.3936, 9.527313
620.8757, 8.336121
621.3578, 6.981903
621.8400, 5.399048
622.3221, 4.209015
622.8042, 3.798615
623.2863, 4.069275
623.7684, 4.416779
624.2505, 5.114410
624.7327, 5.506165
625.2148, 5.263397
625.6969, 4.312805
626.1790, 3.571564
626.6611, 3.004425
627.1432, 2.728424
627.6254, 2.992188
628.1075, 3.732697
628.5896, 4.154541
629.0717, 4.120148
629.5538, 4.133514
630.0359, 5.204803
630.5181, 6.703156
631.0002, 7.237762
631.4823, 5.882202
631.9644, 4.338593
632.4465, 3.845734
632.9286, 4.019623
633.4108, 4.101746
633.8929, 3.548615
634.3750, 3.180511
634.8571, 3.435913
635.3392, 4.184326
635.8214, 4.460480
636.3035, 3.968781
636.7856, 3.455597
637.2677, 3.237183
637.7498, 3.308167
638.2319, 3.255341
638.7141, 3.049164
639.1962, 2.837708
639.6783, 2.809082
640.1604, 2.881012
640.6425, 2.702728
641.1246, 2.193939
641.6068, 1.790894
642.0889, 2.106049
642.5710, 2.722595
643.0531, 3.060120
643.5352, 2.916016
644.0173, 2.561005
644.4995, 1.990021
644.9816, 1.305878
645.4637, 0.6654970
645.9458, 0.1870730
646.4279, 0.6239930
646.9100, 0.3829960
647.3922, 0.3365480
647.8743, 0.7488710
648.3564, 0.7771000
648.8385, 0.7341610
649.3206, 0.7665100
649.8027, 0.8359380
650.2849, 0.6937870
650.7670, 0.3457640
651.2491, 0.1139830
651.7312, 0.3523860
652.2133, 0.8288570
652.6954, 1.357697
653.1776, 1.959778
653.6597, 2.053192
654.1418, 0.7261050
654.6239, 0.9458010
655.1060, 1.980103
655.5881, 1.863586
656.0703, 1.705566
656.5524, 1.673218
657.0345, 1.660126
657.5166, 1.539063
657.9987, 1.324890
658.4808, 0.9639590
658.9630, 0.4564820
659.4451, 0.1396790
659.9272, 0.8771970
660.4093, 1.741577
660.8914, 2.122955
661.3735, 1.480560
661.8557, 0.4751280
662.3378, 0.2814640
662.8199, 0.7255250
663.3020, 1.021698
663.7841, 0.5309750
664.2662, 0.1035460
664.7484, 0.4312740
665.2305, 0.3703310
665.7126, 0.2223510
666.1947, 0.4064640
666.6768, 0.2968440
667.1589, 0.5756840
667.6411, 2.592072
668.1232, 3.768372
668.6053, 3.851013
669.0874, 3.494720
669.5695, 3.241211
670.0516, 3.078979
670.5338, 2.962891
671.0159, 2.873260
671.4980, 2.846924
671.9801, 3.022278
672.4622, 3.302765
672.9443, 3.469208
673.4265, 3.447021
673.9086, 3.304749
674.3907, 2.947510
674.8728, 2.516357
675.3549, 2.281097
675.8370, 2.848267
676.3192, 3.071442
676.8013, 2.369446
677.2834, 1.086548
677.7655, 0.5059200
678.2476, 0.9228820
678.7297, 1.375610
679.2119, 1.477783
679.6940, 1.307190
680.1761, 1.333038
680.6582, 1.555328
681.1403, 1.835571
681.6224, 2.144501
682.1046, 2.408783
682.5867, 2.411743
683.0688, 2.138672
683.5509, 1.992645
684.0330, 2.295471
684.5151, 2.787384
684.9973, 3.293549
685.4794, 3.881592
685.9615, 4.221802
686.4436, 4.063110
686.9257, 3.777069
687.4078, 3.651489
687.8900, 3.720154
688.3721, 3.846924
688.8542, 4.003906
689.3363, 4.267944
689.8184, 4.899506
690.3005, 5.829102
690.7827, 6.377472
691.2648, 6.265869
691.7469, 5.897980
692.2290, 5.752228
692.7111, 5.754639
693.1932, 5.745117
693.6754, 5.508026
694.1575, 5.378601
694.6396, 5.639252
695.1217, 6.162903
695.6038, 6.481781
696.0859, 6.292450
696.5681, 6.167786
697.0502, 6.355194
697.5323, 6.787079
698.0144, 6.719940
698.4965, 6.052277
698.9786, 5.356079
699.4608, 4.985870
699.9429, 4.865723
700.4250, 4.690643
700.9071, 4.464417
701.3892, 4.249390
701.8713, 4.094299
702.3535, 3.976532
702.8356, 3.819427
703.3177, 3.579834
703.7998, 3.548889
704.2819, 4.085083
704.7640, 4.755829
705.2462, 5.220459
705.7283, 5.418640
706.2104, 5.351044
706.6925, 4.833954
707.1746, 4.264221
707.6567, 4.182831
708.1389, 4.615326
708.6210, 4.694458
709.1031, 4.227814
709.5852, 3.586151
710.0673, 3.223511
710.5494, 3.064087
711.0316, 2.933563
711.5137, 2.810791
711.9958, 2.653503
712.4779, 2.361145
712.9600, 1.955627
713.4421, 1.521118
713.9243, 1.045746
714.4064, 0.5605470
714.8885, 2.3437999E-02
715.3706, 0.5923460
715.8527, 0.7498780
716.3348, 0.3676760
716.8170, 3.6010999E-02
717.2991, 0.2862850
717.7812, 0.4140630
718.2633, 0.5238650
718.7454, 0.6077880
719.2275, 0.6656490
719.7097, 0.6303710
720.1918, 0.5860900
720.6739, 0.7549130
721.1560, 1.073395
721.6381, 1.076019
722.1202, 1.6693000E-02
722.6024, 0.9830020
723.0845, 1.196625
723.5666, 0.4625550
724.0487, 6.2987998E-02
724.5308, 0.4079280
725.0129, 0.6087950
725.4951, 0.6024170
725.9772, 0.3592220
726.4593, 0.1225280
726.9414, 0.1124570
727.4235, 0.2825010
727.9056, 0.2437130
728.3878, 0.1195370
728.8699, 0.1522520
729.3520, 0.3896480
729.8341, 0.6992800
730.3162, 1.097168
730.7983, 1.471741
731.2805, 1.731598
731.7626, 1.942535
732.2447, 1.873169
732.7268, 1.323792
733.2089, 0.6550290
733.6910, 0.2807010
734.1732, 0.2786870
734.6553, 0.2221680
735.1374, 8.9111000E-02
735.6195, 0.1172490
736.1016, 0.5269780
736.5837, 1.052399
737.0659, 1.403412
737.5480, 1.482513
738.0301, 1.363190
738.5122, 0.8827210
738.9943, 0.2924800
739.4764, 2.7984999E-02
739.9586, 0.5993650
740.4407, 1.080811
740.9228, 1.081879
741.4049, 0.8719180
741.8870, 1.137573
742.3691, 2.175629
742.8513, 2.786774
743.3334, 2.571167
743.8155, 1.808685
744.2976, 1.062347
744.7797, 0.3724370
745.2618, 9.5367000E-02
745.7440, 0.9356380
746.2261, 1.891296
746.7082, 1.593536
747.1903, 0.4021300
747.6724, 0.3555910
748.1545, 0.1133730
748.6367, 0.8888550
749.1188, 1.739716
749.6009, 2.622620
750.0830, 3.109344
750.5651, 3.020996
751.0472, 2.926727
751.5294, 3.152710
752.0115, 3.605682
752.4936, 3.529785
752.9757, 2.930237
753.4578, 2.378632
753.9399, 2.313965
754.4221, 2.525360
754.9042, 2.738617
755.3863, 2.946594
755.8684, 3.249084
756.3505, 3.883148
756.8326, 4.477814
757.3148, 4.769714
757.7969, 4.672058
758.2790, 4.635071
758.7611, 4.553833
759.2432, 4.687836
759.7253, 5.368652
760.2075, 6.601898
760.6896, 7.224487
761.1717, 7.203064
761.6538, 6.859436
762.1359, 6.297913
762.6180, 5.677002
763.1002, 5.268799
763.5823, 5.124512
764.0644, 5.050476
764.5465, 4.979889
765.0286, 4.917053
765.5107, 4.856964
765.9929, 4.739319
766.4750, 4.819214
766.9571, 5.278625
767.4392, 5.692749
767.9213, 5.482117
768.4034, 4.625549
768.8856, 4.620697
769.3677, 5.690247
769.8498, 6.983612
770.3319, 7.724365
770.8140, 8.029358
771.2961, 8.066956
771.7783, 7.793854
772.2604, 7.524597
772.7425, 7.628632
773.2246, 7.683929
773.7067, 7.269287
774.1888, 5.609497
774.6710, 4.775299
775.1531, 4.985229
775.6352, 5.726563
776.1173, 6.534576
776.5994, 7.406403
777.0815, 7.846375
777.5637, 7.718567
778.0458, 7.410461
778.5279, 7.384918
779.0100, 7.516144
779.4921, 7.544891
779.9742, 7.248535
780.4564, 7.057587
780.9385, 7.427948
781.4206, 8.054749
781.9027, 8.401886
782.3848, 8.078583
782.8669, 8.095215
783.3491, 8.702667
783.8312, 9.457214
784.3133, 9.571899
784.7954, 9.077789
785.2775, 8.649689
785.7596, 8.417389
786.2418, 8.408264
786.7239, 8.850342
787.2060, 9.487579
787.6881, 9.869568
788.1702, 9.676086
788.6523, 9.409454
789.1345, 9.168823
789.6166, 9.007263
790.0987, 9.017761
790.5808, 9.271515
791.0629, 9.680481
791.5450, 10.29089
792.0272, 10.90836
792.5093, 11.12540
792.9914, 10.99683
793.4735, 10.90256
793.9556, 10.97815
794.4377, 11.06772
794.9199, 10.95627
795.4020, 10.73550
795.8841, 10.57956
796.3662, 10.30008
796.8483, 10.36136
797.3304, 11.40375
797.8126, 12.69861
798.2947, 12.77866
798.7768, 10.89774
799.2589, 10.26224
799.7410, 11.90503
800.2231, 14.34451
800.7053, 14.73618
801.1874, 13.46994
801.6695, 12.11832
802.1516, 11.17044
802.6337, 10.44400
803.1158, 9.823883
803.5980, 9.330292
804.0801, 8.964142
804.5622, 8.553345
805.0443, 8.525757
805.5264, 9.276794
806.0085, 10.27551
806.4907, 10.36859
806.9728, 9.336548
807.4549, 8.795441
807.9370, 9.226990
808.4191, 10.01102
808.9012, 10.09308
809.3834, 9.690643
809.8655, 9.398071
810.3476, 9.438171
810.8297, 9.627167
811.3118, 9.928711
811.7939, 10.28784
812.2761, 10.61331
812.7582, 10.92102
813.2403, 11.15631
813.7224, 11.30563
814.2045, 11.39340
814.6866, 11.48123
815.1688, 11.57120
815.6509, 11.56580
816.1330, 11.42172
816.6151, 11.23199
817.0972, 10.99133
817.5793, 10.80963
818.0615, 10.89651
818.5436, 11.59665
819.0257, 12.20920
819.5078, 12.42276
819.9899, 12.42453
820.4720, 12.50476
820.9542, 12.68588
821.4363, 12.90027
821.9184, 13.18143
822.4005, 13.40436
822.8826, 13.34830
823.3647, 13.06100
823.8469, 12.75970
824.3290, 12.51978
824.8111, 12.22284
825.2932, 11.74750
825.7753, 11.15796
826.2574, 10.54633
826.7396, 9.483429
827.2217, 9.099457
827.7038, 10.06631
828.1859, 11.26935
828.6681, 11.18207
829.1502, 9.575562
829.6323, 8.767426
830.1144, 9.210602
830.5966, 9.940948
831.0787, 9.569763
831.5608, 8.666046
832.0429, 8.396423
832.5250, 9.216370
833.0071, 10.06671
833.4893, 10.56149
833.9714, 10.74063
834.4535, 10.63574
834.9356, 10.20609
835.4177, 9.573944
835.8998, 8.549225
836.3820, 7.696808
836.8641, 7.832123
837.3462, 8.774780
837.8283, 9.278381
838.3104, 9.194275
838.7925, 8.771973
839.2747, 7.785461
839.7568, 6.822906
840.2389, 6.569580
840.7210, 7.294525
841.2031, 8.167084
841.6852, 9.507080
842.1674, 10.47046
842.6495, 10.34665
843.1316, 8.876740
843.6137, 7.942139
844.0958, 7.578949
844.5779, 7.532013
845.0601, 7.485199
845.5422, 7.602203
846.0243, 8.591919
846.5064, 10.54089
846.9885, 11.55740
847.4706, 9.555176
847.9528, 7.079376
848.4349, 5.763062
848.9170, 5.780243
849.3991, 6.322418
849.8812, 7.707092
850.3633, 8.976563
850.8455, 9.458252
851.3276, 9.270935
851.8097, 9.083374
852.2918, 8.860046
852.7739, 8.699738
853.2560, 8.914673
853.7382, 9.119476
854.2203, 8.786743
854.7024, 7.898529
855.1845, 7.386749
855.6666, 7.636749
856.1487, 8.098999
856.6309, 8.789063
857.1130, 9.591919
857.5951, 9.598083
858.0772, 8.753876
858.5593, 7.980865
859.0414, 7.830017
859.5236, 8.034821
860.0057, 8.104553
860.4878, 8.117462
860.9699, 8.388550
861.4520, 9.600067
861.9341, 10.52225
862.4163, 10.46985
862.8984, 9.822662
863.3805, 9.600433
863.8626, 9.972687
864.3447, 10.16095
864.8268, 9.908997
865.3090, 9.420135
865.7911, 9.036835
866.2732, 8.769073
866.7553, 8.618744
867.2374, 8.594879
867.7195, 8.574982
868.2017, 8.549438
868.6838, 8.485352
869.1659, 8.327026
869.6480, 8.067780
870.1301, 7.735260
870.6122, 7.230865
871.0944, 6.815430
871.5765, 7.023773
872.0586, 7.712067
872.5407, 8.017883
873.0228, 7.743347
873.5049, 7.280396
873.9871, 6.730011
874.4692, 6.301361
874.9513, 6.277252
875.4334, 6.989716
875.9155, 7.413422
876.3976, 7.334351
876.8798, 7.112549
877.3619, 7.069000
877.8440, 7.216827
878.3261, 6.934570
878.8082, 6.147919
879.2903, 5.577240
879.7725, 6.137543
880.2546, 7.104614
880.7367, 7.562744
881.2188, 7.416840
881.7009, 7.198975
882.1830, 7.021057
882.6652, 6.882813
883.1473, 6.787445
883.6294, 6.733673
884.1115, 6.716064
884.5936, 6.748230
885.0757, 6.708435
885.5579, 6.389130
886.0400, 6.012115
886.5221, 6.057922
887.0042, 6.433472
887.4863, 6.759735
887.9684, 7.114899
888.4506, 7.110352
888.9327, 6.144867
889.4148, 4.669037
889.8969, 4.244324
890.3790, 5.206360
890.8611, 6.060425
891.3433, 6.427429
891.8254, 6.464478
892.3075, 6.404541
892.7896, 6.269379
893.2717, 6.113647
893.7538, 5.916748
894.2360, 5.777069
894.7181, 5.691803
895.2002, 5.723663
895.6823, 6.043488
896.1644, 7.216125
896.6465, 7.306458
897.1287, 5.882965
897.6108, 3.997070
898.0929, 2.937469
898.5750, 2.547577
899.0571, 2.233032
899.5392, 1.891113
900.0214, 1.717041
900.5035, 2.170654
900.9856, 2.644867
901.4677, 2.543549
901.9498, 1.543945
902.4319, 0.8467710
902.9141, 0.5909730
903.3962, 0.3903500
903.8783, 0.1017150
904.3604, 0.8011470
904.8425, 0.9849240
905.3246, 0.6791080
905.8068, 0.3193660
906.2889, 6.3354000E-02
906.7710, 2.2614000E-02
907.2531, 0.2452090
907.7352, 0.7962340
908.2173, 1.074890
908.6995, 1.024628
909.1816, 0.6170350
909.6637, 0.4433590
910.1458, 1.702637
910.6279, 1.441040
911.1100, 0.1540220
911.5922, 1.379364
912.0743, 1.447052
912.5564, 1.092255
913.0385, 0.8394780
913.5206, 0.6990050
914.0027, 0.6806950
914.4849, 1.061218
914.9670, 1.158966
915.4491, 0.7532350
915.9312, 0.2476200
916.4133, 0.2586360
916.8954, 0.7457580
917.3776, 0.9084470
917.8597, 0.6245420
918.3418, 0.1933590
918.8239, 0.1326290
919.3060, 0.4346620
919.7881, 0.8716740
920.2703, 1.568695
920.7524, 1.859741
921.2345, 1.409912
921.7166, 0.8627320
922.1987, 0.5811460
922.6808, 0.5469360
923.1630, 0.3085020
923.6451, 0.1275020
924.1272, 0.3784180
924.6093, 9.3627997E-02
925.0914, 0.4333800
925.5735, 1.031189
926.0557, 1.637207
926.5378, 2.037598
927.0199, 1.883118
927.5020, 1.891602
927.9841, 2.317108
928.4662, 2.943298
928.9484, 3.199341
929.4305, 3.104797
929.9126, 2.950226
930.3947, 2.751221
930.8768, 2.665100
931.3589, 3.000885
931.8411, 3.504425
932.3232, 3.804321
932.8053, 3.726166
933.2874, 3.563568
933.7695, 3.262848
934.2516, 2.987976
934.7338, 2.975464
935.2159, 3.213287
935.6980, 3.100220
936.1801, 2.581757
936.6622, 2.110779
937.1443, 2.113586
937.6265, 2.330658
938.1086, 2.490723
938.5907, 2.565369
939.0728, 2.776398
939.5549, 3.348389
940.0370, 3.757355
940.5192, 3.746277
941.0013, 3.414063
941.4834, 3.152191
941.9655, 2.974182
942.4476, 3.049927
942.9297, 3.841492
943.4119, 4.514740
943.8940, 4.088776
944.3761, 3.054871
944.8582, 2.417969
945.3403, 2.692993
945.8224, 2.935913
946.3046, 3.054169
946.7867, 3.132874
947.2688, 3.272949
947.7509, 3.476990
948.2330, 3.984924
948.7151, 4.913788
949.1973, 5.520111
949.6794, 4.635315
950.1615, 3.514893
950.6436, 3.406189
951.1257, 4.774963
951.6078, 5.616974
952.0900, 5.748749
952.5721, 5.674591
953.0542, 5.581787
953.5363, 5.517731
954.0184, 5.770660
954.5005, 6.275421
954.9827, 6.671265
955.4648, 6.758972
955.9469, 6.670502
956.4290, 6.349518
956.9111, 5.939453
957.3932, 5.873383
957.8754, 6.410858
958.3575, 6.592590
958.8396, 6.147949
959.3217, 5.453491
959.8038, 5.021088
960.2859, 4.829742
960.7681, 4.859741
961.2502, 5.149658
961.7323, 5.458405
962.2144, 5.568695
962.6965, 5.722290
963.1786, 6.196411
963.6608, 7.109100
964.1429, 7.441101
964.6250, 7.071808
965.1071, 6.675873
965.5892, 6.773163
966.0714, 7.136902
966.5535, 7.455750
967.0356, 7.682098
967.5177, 7.670929
967.9998, 6.844635
968.4819, 6.235413
968.9641, 6.318268
969.4462, 6.789032
969.9283, 7.034485
970.4104, 7.023560
970.8925, 7.230255
971.3746, 7.813690
971.8568, 8.503357
972.3389, 9.022400
972.8210, 9.412842
973.3031, 9.768372
973.7852, 10.17496
974.2673, 10.31500
974.7495, 9.786438
975.2316, 9.325134
975.7137, 9.484772
976.1958, 10.27618
976.6779, 10.94504
977.1600, 11.48825
977.6422, 12.05576
978.1243, 12.99109
978.6064, 13.81699
979.0885, 14.07208
979.5706, 13.81250
980.0527, 13.36850
980.5349, 12.42050
981.0170, 11.99942
981.4991, 12.51184
981.9812, 13.38034
982.4633, 13.44843
982.9454, 12.88718
983.4276, 12.33914
983.9097, 11.96857
984.3918, 11.60358
984.8739, 11.18256
985.3560, 10.66605
985.8381, 9.885773
986.3203, 8.549683
986.8024, 8.331573
987.2845, 9.573090
987.7666, 10.76733
988.2487, 10.65958
988.7308, 9.798126
989.2130, 9.489868
989.6951, 9.621185
990.1772, 9.542267
990.6593, 8.590302
991.1414, 7.765472
991.6235, 7.534973
992.1057, 7.657715
992.5878, 7.627106
993.0699, 7.414612
993.5520, 7.414124
994.0341, 7.788116
994.5162, 8.073364
994.9984, 7.491119
995.4805, 6.586914
995.9626, 6.136841
996.4447, 6.407318
996.9268, 6.620270
997.4089, 6.816406
997.8911, 6.711426
998.3732, 6.086365
998.8553, 5.004272
999.3374, 3.763245
999.8195, 2.410553
1000.302, 1.356995
1000.784, 0.9605710
1001.266, 0.8272400
1001.748, 0.7375790
1002.230, 0.6997680
1002.712, 0.7789920
1003.194, 1.203186
1003.676, 1.103638
1004.159, 0.1964110
1004.641, 0.8410640
1005.123, 1.086334
1005.605, 0.7728270
1006.087, 0.4445500
1006.569, 0.1904300
1007.051, 0.1578670
1007.533, 1.076202
1008.016, 1.734924
1008.498, 1.576904
1008.980, 0.6632080
1009.462, 6.8420000E-02
1009.944, 0.1987610
1010.426, 0.3345950
1010.908, 0.4096980
1011.390, 0.4287410
1011.872, 0.3713070
1012.355, 0.2605900
1012.837, 0.1463320
1013.319, 0.1150510
1013.801, 0.1398930
1014.283, 0.2135620
1014.765, 0.6331180
1015.247, 0.7821040
1015.729, 0.6898190
1016.211, 0.4836730
1016.694, 0.1745300
1017.176, 7.3302999E-02
1017.658, 0.1474610
1018.140, 0.1198430
1018.622, 4.4829998E-02
1019.104, 8.3740003E-02
1019.586, 0.3690190
1020.068, 0.8974300
1020.551, 1.201263
1021.033, 1.044891
1021.515, 0.7524720
1021.997, 0.9274600
1022.479, 1.345886
1022.961, 1.594269
1023.443, 1.599274
1023.925, 1.319611
1024.407, 0.4761350
1024.890, 0.3892820
1025.372, 0.9454040
1025.854, 1.185822
1026.336, 0.8703000
1026.818, 1.6052000E-02
1027.300, 0.5924070
1027.782, 0.2425840
1028.264, 0.4029850
1028.746, 0.8427730
1029.229, 1.130676
1029.711, 1.519897
1030.193, 1.906525
1030.675, 2.803009
1031.157, 4.567200
1031.639, 6.264526
1032.121, 6.487793
1032.603, 5.636993
1033.086, 4.433563
1033.568, 2.878143
1034.050, 1.890442
1034.532, 2.266266
1035.014, 2.980408
1035.496, 3.549622
1035.978, 3.958344
1036.460, 4.053894
1036.943, 3.837006
1037.425, 3.622131
1037.907, 3.592621
1038.389, 3.591888
1038.871, 3.495026
1039.353, 3.316681
1039.835, 3.074249
1040.317, 2.714661
1040.799, 2.361328
1041.281, 1.915070
1041.764, 1.711151
1042.246, 2.374207
1042.728, 3.479584
1043.210, 3.716400
1043.692, 3.100250
1044.174, 2.751099
1044.656, 3.617798
1045.138, 4.446289
1045.621, 4.659546
1046.103, 4.456970
1046.585, 4.401459
1047.067, 4.499817
1047.549, 4.438080
1048.031, 4.088379
1048.513, 3.753326
1048.995, 3.956238
1049.478, 4.231995
1049.960, 3.900604
1050.442, 2.457764
1050.924, 2.167480
1051.406, 3.470215
1051.888, 4.945007
1052.370, 6.001648
1052.852, 6.560638
1053.334, 5.990631
1053.817, 4.684204
1054.299, 3.959442
1054.781, 5.017365
1055.263, 5.970520
1055.745, 6.095825
1056.227, 5.947296
1056.709, 6.136871
1057.191, 6.667145
1057.673, 7.269318
1058.156, 7.937469
1058.638, 8.456757
1059.120, 8.598083
1059.602, 8.576996
1060.084, 8.488556
1060.566, 8.381287
1061.048, 8.513641
1061.530, 8.923370
1062.013, 9.541656
1062.495, 10.44568
1062.977, 11.30194
1063.459, 11.31107
1063.941, 10.93665
1064.423, 11.19223
1064.905, 12.58228
1065.387, 13.54037
1065.870, 13.07693
1066.352, 12.55780
1066.834, 12.61148
1067.316, 13.20322
1067.798, 14.26459
1068.280, 15.73758
1068.762, 17.05994
1069.244, 17.84610
1069.726, 18.50815
1070.208, 19.33551
1070.691, 20.18246
1071.173, 20.76379
1071.655, 20.92245
1072.137, 21.42993
1072.619, 22.38437
1073.101, 23.37363
1073.583, 23.99237
1074.065, 24.44519
1074.548, 24.98813
1075.030, 25.62097
1075.512, 26.26559
1075.994, 26.66141
1076.476, 27.50635
1076.958, 29.22485
1077.440, 31.07248
1077.922, 31.41165
1078.405, 30.71326
1078.887, 30.53043
1079.369, 31.24487
1079.851, 32.02536
1080.333, 32.35513
1080.815, 32.68735
1081.297, 33.38141
1081.779, 34.38171
1082.261, 34.88684
1082.744, 34.88950
1083.226, 35.01114
1083.708, 35.69028
1084.190, 36.34995
1084.672, 36.19470
1085.154, 35.75665
1085.636, 35.92188
1086.118, 37.26578
1086.601, 37.97220
1087.083, 37.95175
1087.565, 37.62027
1088.047, 36.99350
1088.529, 36.44080
1089.011, 36.86029
1089.493, 38.00052
1089.975, 38.77368
1090.458, 38.39529
1090.940, 38.13379
1091.422, 38.23822
1091.904, 38.54742
1092.386, 38.91592
1092.868, 39.28998
1093.350, 39.32785
1093.832, 38.97150
1094.314, 38.79376
1094.797, 39.40393
1095.279, 40.04669
1095.761, 40.27594
1096.243, 40.16119
1096.725, 39.86536
1097.207, 39.37173
1097.689, 39.46677
1098.171, 40.62518
1098.653, 41.75610
1099.136, 41.57635
1099.618, 40.87964
1100.100, 40.61880
1100.582, 41.08496
1101.064, 41.08395
1101.546, 40.51614
1102.028, 39.80490
1102.510, 39.02762
1102.993, 38.36945
1103.475, 38.42044
1103.957, 38.81918
1104.439, 38.74655
1104.921, 37.44922
1105.403, 36.34518
1105.885, 35.53674
1106.367, 35.00662
1106.849, 34.86008
1107.332, 34.99335
1107.814, 35.11075
1108.296, 35.15640
1108.778, 34.78082
1109.260, 33.43362
1109.742, 32.05127
1110.224, 30.98602
1110.706, 30.13879
1111.188, 29.35284
1111.671, 28.62183
1112.153, 27.78464
1112.635, 26.78146
1113.117, 26.06369
1113.599, 26.22784
1114.081, 26.63901
1114.563, 26.85724
1115.045, 26.85742
1115.528, 26.62906
1116.010, 26.10547
1116.492, 25.73114
1116.974, 25.69315
1117.456, 25.66669
1117.938, 25.18097
1118.420, 24.47589
1118.902, 23.83350
1119.385, 23.26392
1119.867, 22.90848
1120.349, 22.78656
1120.831, 22.81827
1121.313, 23.18295
1121.795, 23.47891
1122.277, 22.66937
1122.759, 21.12051
1123.241, 19.69144
1123.724, 18.58575
1124.206, 17.84604
1124.688, 17.56714
1125.170, 17.51035
1125.652, 17.76434
1126.134, 18.12451
1126.616, 17.50888
1127.098, 16.10858
1127.580, 14.93854
1128.063, 14.75711
1128.545, 14.62192
1129.027, 14.17032
1129.509, 13.54208
1129.991, 12.77319
1130.473, 11.87625
1130.955, 11.72089
1131.437, 12.39148
1131.920, 12.94659
1132.402, 12.27563
1132.884, 11.60675
1133.366, 12.11966
1133.848, 13.35010
1134.330, 13.48721
1134.812, 12.38092
1135.294, 11.41599
1135.776, 10.85013
1136.259, 10.61539
1136.741, 10.66718
1137.223, 10.99075
1137.705, 11.79938
1138.187, 13.13888
1138.669, 13.44809
1139.151, 12.35178
1139.633, 11.55658
1140.115, 11.74417
1140.598, 12.36899
1141.080, 12.92203
1141.562, 13.18613
1142.044, 12.66016
1142.526, 10.81091
1143.008, 10.10938
1143.490, 11.23285
1143.972, 12.36008
1144.455, 12.54761
1144.937, 12.14554
1145.419, 11.93048
1145.901, 11.86401
1146.383, 11.63928
1146.865, 10.87237
1147.347, 10.48892
1147.829, 10.83240
1148.312, 11.30869
1148.794, 11.35211
1149.276, 11.05460
1149.758, 11.16458
1150.240, 11.60904
1150.722, 11.94635
1151.204, 12.04218
1151.686, 11.94385
1152.168, 11.46075
1152.651, 10.84674
1153.133, 10.54513
1153.615, 10.54880
1154.097, 9.886810
1154.579, 8.544586
1155.061, 7.491852
1155.543, 7.596375
1156.025, 7.940552
1156.507, 8.248566
1156.990, 8.329193
1157.472, 7.602325
1157.954, 6.026367
1158.436, 5.497467
1158.918, 6.343994
1159.400, 7.179565
1159.882, 6.855225
1160.364, 6.135803
1160.847, 5.507843
1161.329, 5.001007
1161.811, 4.640900
1162.293, 4.441040
1162.775, 4.149231
1163.257, 3.685822
1163.739, 3.234070
1164.221, 2.938934
1164.703, 2.765442
1165.186, 2.754395
1165.668, 2.918610
1166.150, 2.774353
1166.632, 2.299377
1167.114, 1.657654
1167.596, 0.7655030
1168.078, 4.0741000E-02
1168.560, 0.2024840
1169.042, 0.8045650
1169.525, 1.247498
1170.007, 1.366425
1170.489, 1.446228
1170.971, 1.449677
1171.453, 1.555420
1171.935, 1.802002
1172.417, 2.274231
1172.899, 3.550873
1173.382, 4.976593
1173.864, 5.287903
1174.346, 2.834442
1174.828, 2.232483
1175.310, 4.245483
1175.792, 6.095306
1176.274, 5.441986
1176.756, 3.532074
1177.239, 2.641479
1177.721, 2.448120
1178.203, 2.137939
1178.685, 1.208160
1179.167, 0.6180110
1179.649, 0.5460210
1180.131, 0.5745850
1180.613, 0.2826540
1181.095, 0.1554870
1181.578, 0.2564090
1182.060, 0.1582640
1182.542, 0.4253540
1183.024, 2.353668
1183.506, 2.894623
1183.988, 1.145050
1184.470, 1.147522
1184.952, 1.853149
1185.434, 1.553070
1185.917, 1.813416
1186.399, 2.615936
1186.881, 2.948517
1187.363, 1.670319
1187.845, 0.8467100
1188.327, 1.088654
1188.809, 1.754517
1189.291, 1.897888
1189.774, 1.616180
1190.256, 1.094971
1190.738, 0.3740840
1191.220, 0.1936340
1191.702, 1.663849
1192.184, 2.698029
1192.666, 2.471588
1193.148, 3.104340
1193.630, 3.071259
1194.113, 2.619507
1194.595, 2.585327
1195.077, 1.424194
1195.559, 0.5194700
1196.041, 0.8821720
1196.523, 1.215759
1197.005, 1.014160
1197.487, 0.4580380
1197.969, 0.1606750
1198.452, 0.7211910
1198.934, 0.6641850
1199.416, 0.3162230
1199.898, 0.9445800
1200.380, 0.1168820
1200.862, 0.6451110
1201.344, 0.4829410
1201.826, 0.9953610
1202.309, 1.244110
1202.791, 0.9897160
1203.273, 1.474884
1203.755, 0.9857180
1204.237, 0.4907840
1204.719, 0.3051450
1205.201, 0.3962710
1205.683, 0.9128110
1206.166, 1.644684
1206.648, 1.534698
1207.130, 0.7748110
1207.612, 0.1664430
1208.094, 4.4952001E-02
1208.576, 1.8494001E-02
1209.058, 0.8995670
1209.540, 1.499725
1210.022, 0.9035030
1210.505, 0.6058650
1210.987, 1.209686
1211.469, 1.070404
1211.951, 0.9175420
1212.433, 1.149841
1212.915, 1.317169
1213.397, 1.023163
1213.879, 0.7828980
1214.361, 1.114075
1214.844, 0.9857480
1215.326, 1.913788
1215.808, 1.372467
1216.290, 1.111511
1216.772, 1.753754
1217.254, 2.568298
1217.736, 3.617706
1218.218, 4.330414
1218.701, 3.927582
1219.183, 2.674530
1219.665, 2.489777
1220.147, 3.227417
1220.629, 3.869568
1221.111, 3.883453
1221.593, 3.791534
1222.075, 3.673889
1222.557, 3.604553
1223.040, 3.720642
1223.522, 3.964203
1224.004, 4.029785
1224.486, 3.928986
1224.968, 3.767273
1225.450, 3.722382
1225.932, 3.410858
1226.414, 2.525299
1226.896, 1.662354
1227.379, 1.605408
1227.861, 2.140686
1228.343, 2.598022
1228.825, 2.914795
1229.307, 2.966064
1229.789, 2.249634
1230.271, 1.895447
1230.753, 2.276398
1231.236, 2.889984
1231.718, 3.024475
1232.200, 2.884033
1232.682, 3.175415
1233.164, 3.845123
1233.646, 4.072815
1234.128, 2.779114
1234.610, 2.089630
1235.093, 2.556366
1235.575, 3.499084
1236.057, 4.129456
1236.539, 4.494934
1237.021, 4.727661
1237.503, 4.815338
1237.985, 4.559662
1238.467, 3.290436
1238.949, 2.657898
1239.432, 3.143585
1239.914, 3.912750
1240.396, 3.582184
1240.878, 2.687195
1241.360, 2.605682
1241.842, 3.488373
1242.324, 3.920532
1242.806, 3.225037
1243.288, 2.741180
1243.771, 2.920929
1244.253, 3.461182
1244.735, 4.783966
1245.217, 6.129547
1245.699, 5.999878
1246.181, 4.388245
1246.663, 3.883942
1247.145, 5.128540
1247.628, 6.179657
1248.110, 6.621002
1248.592, 6.779633
1249.074, 7.045715
1249.556, 7.242188
1250.038, 7.170898
1250.520, 7.076263
1251.002, 6.767700
1251.484, 6.208038
1251.967, 5.772949
1252.449, 5.595947
1252.931, 5.699402
1253.413, 5.851257
1253.895, 5.903992
1254.377, 6.210419
1254.859, 6.627899
1255.341, 6.465332
1255.823, 6.025757
1256.306, 5.659668
1256.788, 5.240662
1257.270, 4.996429
1257.752, 5.226807
1258.234, 5.632965
1258.716, 5.883148
1259.198, 6.054169
1259.680, 6.300476
1260.163, 6.561157
1260.645, 6.341766
1261.127, 5.478607
1261.609, 4.759491
1262.091, 5.080048
1262.573, 5.529419
1263.055, 5.424103
1263.537, 4.933960
1264.020, 4.750946
1264.502, 4.835266
1264.984, 4.280914
1265.466, 2.635742
1265.948, 1.448792
1266.430, 2.362213
1266.912, 3.340485
1267.394, 3.354065
1267.876, 3.677521
1268.359, 3.586700
1268.841, 3.113739
1269.323, 2.863708
1269.805, 1.537109
1270.287, 0.3944090
1270.769, 0.2299500
1271.251, 0.1730960
1271.733, 8.2549997E-02
1272.215, 3.7597999E-02
1272.698, 0.2933040
1273.180, 0.8452150
1273.662, 0.6843870
1274.144, 0.4653020
1274.626, 1.111755
1275.108, 0.8720700
1275.590, 0.5528870
1276.072, 0.4740910
1276.555, 0.3559880
1277.037, 0.4571230
1277.519, 1.555145
1278.001, 2.280548
1278.483, 2.463623
1278.965, 2.706085
1279.447, 3.033295
1279.929, 3.493011
1280.411, 4.139862
1280.894, 4.710480
1281.376, 4.608154
1281.858, 4.413635
1282.340, 4.930389
1282.822, 6.164154
1283.304, 6.415283
1283.786, 5.492523
1284.268, 5.439240
1284.750, 6.883514
1285.233, 8.333771
1285.715, 8.279846
1286.197, 7.575012
1286.679, 6.749664
1287.161, 6.100922
1287.643, 5.789398
1288.125, 5.421326
1288.607, 5.010193
1289.090, 4.338287
1289.572, 3.945984
1290.054, 3.673065
1290.536, 3.616547
1291.018, 3.951904
1291.500, 4.365845
1291.982, 3.886017
1292.464, 2.900543
1292.947, 3.212952
1293.429, 5.447784
1293.911, 6.910858
1294.393, 5.720337
1294.875, 4.706482
1295.357, 4.655457
1295.839, 4.966278
1296.321, 4.597931
1296.803, 3.905884
1297.286, 3.640320
1297.768, 3.947968
1298.250, 3.703339
1298.732, 2.591156
1299.214, 1.509430
1299.696, 0.7326970
1300.178, 0.1760250
1300.660, 0.0000000E+00
##END=



