##NAMES=Fluorcalciomicrolite
##RRUFFID=R070365
##IDEAL CHEMISTRY=(Ca,Na)_2_Ta^5+^_2_O_6_F
##LOCALITY=Ponte da Raiz mine, Minas Gerais, Southeast Brazil
##OWNER=RRUFF
##SOURCE=Michael Scott
##DESCRIPTION=Brown octahedron associated with albite
##STATUS=The identification of this mineral is confirmed by single-crystal X-ray diffraction and chemical analysis.
##URL=rruff.info/R070365
##MEASURED CHEMISTRY=(Ca_0.80_Sr_0.07_Pb_0.02_Na_0.84_U_0.22_)(Ta_1.62_Nb_0.19_Ti_0.18_Sn_0.01_)_2_O_6_(F_0.46_O_0.42_) ; bright area, (Ca_0.84_Na_0.23_U_0.23_Sr_0.08_Pb_0.02_)(Ta_1.60_Ti_0.21_Nb_0.19_)_2_O_6_(F_0.32_O_0.25_) = dark area
124.5917, 2398.319
125.0739, 2539.074
125.5560, 2694.114
126.0381, 2861.830
126.5202, 3042.200
127.0023, 3234.708
127.4844, 3440.222
127.9666, 3666.011
128.4487, 3911.842
128.9308, 4160.077
129.4129, 4385.241
129.8950, 4595.104
130.3772, 4818.208
130.8593, 5071.543
131.3414, 5345.659
131.8235, 5606.713
132.3056, 5850.096
132.7877, 6089.613
133.2699, 6340.255
133.7520, 6603.419
134.2341, 6871.628
134.7162, 7140.478
135.1983, 7411.090
135.6804, 7690.029
136.1626, 7974.608
136.6447, 8266.680
137.1268, 8576.134
137.6089, 8909.460
138.0910, 9229.091
138.5731, 9504.876
139.0553, 9731.472
139.5374, 9955.552
140.0195, 10180.44
140.5016, 10404.17
140.9837, 10608.31
141.4658, 10786.78
141.9480, 10958.34
142.4301, 11135.93
142.9122, 11328.91
143.3943, 11507.00
143.8764, 11665.20
144.3585, 11802.57
144.8407, 11940.54
145.3228, 12081.58
145.8049, 12220.40
146.2870, 12350.94
146.7691, 12469.86
147.2512, 12582.76
147.7334, 12688.48
148.2155, 12786.77
148.6976, 12883.23
149.1797, 12959.23
149.6618, 13039.10
150.1439, 13153.94
150.6261, 13345.39
151.1082, 13533.12
151.5903, 13693.83
152.0724, 13812.79
152.5545, 13935.76
153.0366, 14062.12
153.5188, 14194.15
154.0009, 14335.73
154.4830, 14504.71
154.9651, 14671.96
155.4472, 14826.85
155.9293, 14969.06
156.4115, 15096.49
156.8936, 15201.73
157.3757, 15290.37
157.8578, 15383.49
158.3399, 15507.62
158.8221, 15626.20
159.3042, 15716.57
159.7863, 15750.75
160.2684, 15777.87
160.7505, 15806.85
161.2326, 15839.26
161.7148, 15885.53
162.1969, 15972.12
162.6790, 16066.58
163.1611, 16136.56
163.6432, 16159.22
164.1253, 16165.35
164.6075, 16158.21
165.0896, 16137.49
165.5717, 16141.76
166.0538, 16213.58
166.5359, 16320.47
167.0180, 16415.97
167.5002, 16467.26
167.9823, 16509.20
168.4644, 16574.91
168.9465, 16671.78
169.4286, 16757.66
169.9107, 16788.86
170.3929, 16785.54
170.8750, 16790.96
171.3571, 16841.08
171.8392, 16905.02
172.3213, 16946.68
172.8034, 16955.72
173.2856, 16960.32
173.7677, 16988.07
174.2498, 17033.92
174.7319, 17079.90
175.2140, 17116.67
175.6961, 17146.46
176.1783, 17171.89
176.6604, 17192.07
177.1425, 17209.98
177.6246, 17224.31
178.1067, 17236.71
178.5888, 17259.12
179.0710, 17315.27
179.5531, 17387.46
180.0352, 17434.05
180.5173, 17437.80
180.9994, 17418.35
181.4815, 17401.42
181.9637, 17387.07
182.4458, 17381.86
182.9279, 17395.84
183.4100, 17424.83
183.8921, 17453.37
184.3742, 17477.26
184.8564, 17497.82
185.3385, 17514.84
185.8206, 17527.82
186.3027, 17544.94
186.7848, 17582.41
187.2669, 17636.24
187.7491, 17676.79
188.2312, 17682.39
188.7133, 17666.14
189.1954, 17684.20
189.6775, 17743.34
190.1596, 17805.98
190.6418, 17819.95
191.1239, 17786.40
191.6060, 17756.53
192.0881, 17754.52
192.5702, 17776.78
193.0524, 17791.73
193.5345, 17798.35
194.0166, 17800.31
194.4987, 17801.81
194.9808, 17802.71
195.4629, 17805.45
195.9451, 17807.50
196.4272, 17809.15
196.9093, 17829.21
197.3914, 17873.65
197.8735, 17927.99
198.3556, 17966.59
198.8378, 17988.75
199.3199, 17999.17
199.8020, 17996.78
200.2841, 17980.61
200.7662, 17966.48
201.2483, 17955.33
201.7305, 17946.68
202.2126, 17936.72
202.6947, 17922.37
203.1768, 17918.27
203.6589, 17939.38
204.1410, 17990.97
204.6232, 18028.30
205.1053, 18044.66
205.5874, 18045.44
206.0695, 18047.64
206.5516, 18051.22
207.0337, 18056.31
207.5159, 18065.84
207.9980, 18083.08
208.4801, 18086.48
208.9622, 18065.67
209.4443, 18029.13
209.9264, 18022.39
210.4086, 18057.14
210.8907, 18098.37
211.3728, 18118.59
211.8549, 18113.16
212.3370, 18101.85
212.8191, 18081.61
213.3013, 18055.85
213.7834, 18054.71
214.2655, 18086.82
214.7476, 18129.80
215.2297, 18165.90
215.7118, 18196.65
216.1940, 18217.06
216.6761, 18225.65
217.1582, 18222.69
217.6403, 18210.52
218.1224, 18182.29
218.6045, 18154.16
219.0867, 18141.54
219.5688, 18146.93
220.0509, 18163.12
220.5330, 18193.90
221.0151, 18240.38
221.4972, 18266.54
221.9794, 18264.62
222.4615, 18251.33
222.9436, 18243.81
223.4257, 18243.04
223.9078, 18246.42
224.3899, 18255.33
224.8721, 18270.87
225.3542, 18278.36
225.8363, 18273.19
226.3184, 18264.42
226.8005, 18263.51
227.2827, 18275.85
227.7648, 18285.59
228.2469, 18286.62
228.7290, 18276.49
229.2111, 18276.32
229.6932, 18287.01
230.1754, 18306.88
230.6575, 18336.28
231.1396, 18385.13
231.6217, 18425.42
232.1038, 18447.85
232.5859, 18448.87
233.0681, 18451.40
233.5502, 18457.96
234.0323, 18464.25
234.5144, 18462.90
234.9965, 18446.84
235.4786, 18435.34
235.9608, 18437.50
236.4429, 18459.76
236.9250, 18464.54
237.4071, 18442.34
237.8892, 18408.49
238.3713, 18386.29
238.8535, 18375.36
239.3356, 18377.04
239.8177, 18396.76
240.2998, 18444.93
240.7819, 18469.31
241.2640, 18457.15
241.7462, 18428.99
242.2283, 18421.63
242.7104, 18449.20
243.1925, 18474.17
243.6746, 18480.84
244.1567, 18458.03
244.6389, 18456.81
245.1210, 18487.66
245.6031, 18533.76
246.0852, 18565.55
246.5673, 18579.15
247.0494, 18584.90
247.5316, 18583.63
248.0137, 18569.39
248.4958, 18570.14
248.9779, 18596.48
249.4600, 18631.87
249.9421, 18643.12
250.4243, 18616.79
250.9064, 18590.66
251.3885, 18580.36
251.8706, 18593.85
252.3527, 18595.29
252.8348, 18577.61
253.3170, 18552.28
253.7991, 18541.03
254.2812, 18546.43
254.7633, 18561.20
255.2454, 18585.18
255.7275, 18622.68
256.2097, 18652.94
256.6918, 18676.37
257.1739, 18691.96
257.6560, 18696.28
258.1381, 18683.79
258.6202, 18671.49
259.1024, 18666.95
259.5845, 18673.64
260.0666, 18672.55
260.5487, 18657.84
261.0308, 18639.79
261.5129, 18638.32
261.9951, 18659.59
262.4772, 18682.99
262.9593, 18704.41
263.4414, 18728.76
263.9235, 18722.14
264.4056, 18662.74
264.8878, 18592.71
265.3699, 18595.98
265.8520, 18702.97
266.3341, 18796.34
266.8162, 18822.96
267.2983, 18768.21
267.7805, 18741.10
268.2626, 18750.89
268.7447, 18778.37
269.2268, 18792.02
269.7089, 18790.63
270.1910, 18779.63
270.6732, 18757.20
271.1553, 18721.28
271.6374, 18694.81
272.1195, 18677.78
272.6016, 18670.19
273.0837, 18677.57
273.5659, 18704.73
274.0480, 18722.10
274.5301, 18709.68
275.0122, 18665.53
275.4943, 18653.93
275.9764, 18682.68
276.4586, 18729.32
276.9407, 18767.40
277.4228, 18798.33
277.9049, 18805.24
278.3870, 18768.29
278.8691, 18690.59
279.3513, 18646.06
279.8334, 18639.27
280.3155, 18653.92
280.7976, 18671.71
281.2798, 18692.63
281.7619, 18713.85
282.2440, 18739.35
282.7261, 18766.35
283.2082, 18768.89
283.6903, 18742.14
284.1725, 18708.76
284.6546, 18699.35
285.1367, 18713.02
285.6188, 18723.47
286.1009, 18715.81
286.5830, 18696.87
287.0652, 18702.09
287.5473, 18735.52
288.0294, 18768.60
288.5115, 18765.38
288.9936, 18729.78
289.4757, 18694.33
289.9579, 18665.27
290.4400, 18645.10
290.9221, 18643.08
291.4042, 18660.16
291.8863, 18683.43
292.3684, 18704.19
292.8506, 18721.32
293.3327, 18730.93
293.8148, 18734.27
294.2969, 18728.02
294.7790, 18699.35
295.2611, 18648.09
295.7433, 18597.99
296.2254, 18571.41
296.7075, 18562.08
297.1896, 18553.47
297.6717, 18541.50
298.1538, 18526.88
298.6360, 18509.02
299.1181, 18488.21
299.6002, 18469.67
300.0823, 18463.06
300.5644, 18460.74
301.0465, 18447.48
301.5287, 18414.88
302.0108, 18375.29
302.4929, 18337.30
302.9750, 18302.19
303.4571, 18279.43
303.9392, 18285.55
304.4214, 18304.58
304.9035, 18314.71
305.3856, 18307.77
305.8677, 18295.13
306.3498, 18283.81
306.8319, 18274.36
307.3141, 18268.56
307.7962, 18287.49
308.2783, 18301.36
308.7604, 18273.37
309.2425, 18174.63
309.7246, 18081.75
310.2068, 18051.98
310.6889, 18067.24
311.1710, 18080.01
311.6531, 18073.41
312.1352, 18051.86
312.6173, 18012.97
313.0995, 17946.48
313.5816, 17893.20
314.0637, 17878.31
314.5458, 17889.41
315.0279, 17902.87
315.5100, 17919.46
315.9922, 17928.62
316.4743, 17921.93
316.9564, 17894.14
317.4385, 17868.28
317.9206, 17855.41
318.4027, 17848.21
318.8849, 17836.47
319.3670, 17822.40
319.8491, 17798.99
320.3312, 17756.35
320.8133, 17687.30
321.2954, 17638.57
321.7776, 17639.98
322.2597, 17657.79
322.7418, 17656.02
323.2239, 17594.79
323.7060, 17548.18
324.1881, 17545.47
324.6703, 17593.08
325.1524, 17611.23
325.6345, 17568.93
326.1166, 17508.41
326.5987, 17463.22
327.0808, 17444.27
327.5630, 17428.08
328.0451, 17410.84
328.5272, 17392.90
329.0093, 17383.00
329.4914, 17391.17
329.9735, 17398.50
330.4557, 17392.08
330.9378, 17362.11
331.4199, 17334.55
331.9020, 17305.81
332.3841, 17279.98
332.8662, 17280.68
333.3484, 17326.56
333.8305, 17370.71
334.3126, 17385.89
334.7947, 17361.79
335.2768, 17339.57
335.7589, 17319.98
336.2411, 17304.10
336.7232, 17297.71
337.2053, 17307.31
337.6874, 17307.42
338.1695, 17278.71
338.6516, 17215.63
339.1338, 17176.89
339.6159, 17169.80
340.0980, 17177.79
340.5801, 17174.68
341.0622, 17159.79
341.5443, 17139.08
342.0265, 17110.62
342.5086, 17076.32
342.9907, 17051.66
343.4728, 17037.22
343.9549, 17031.03
344.4370, 17034.04
344.9192, 17045.24
345.4013, 17055.81
345.8834, 17068.44
346.3655, 17076.54
346.8476, 17054.76
347.3297, 17002.18
347.8119, 16949.18
348.2940, 16928.97
348.7761, 16932.15
349.2582, 16930.98
349.7403, 16916.86
350.2225, 16895.46
350.7046, 16868.15
351.1867, 16836.83
351.6688, 16817.99
352.1509, 16838.59
352.6331, 16875.32
353.1152, 16890.94
353.5973, 16868.46
354.0794, 16839.38
354.5615, 16830.56
355.0436, 16837.98
355.5258, 16849.41
356.0079, 16869.82
356.4900, 16884.82
356.9721, 16880.19
357.4542, 16850.13
357.9363, 16812.77
358.4185, 16768.61
358.9006, 16725.02
359.3827, 16694.78
359.8648, 16691.22
360.3469, 16695.64
360.8290, 16698.50
361.3112, 16698.34
361.7933, 16701.28
362.2754, 16719.32
362.7575, 16737.74
363.2396, 16740.56
363.7217, 16709.70
364.2039, 16677.30
364.6860, 16649.82
365.1681, 16627.46
365.6502, 16611.05
366.1323, 16599.36
366.6144, 16594.26
367.0966, 16597.24
367.5787, 16627.87
368.0608, 16642.23
368.5429, 16627.20
369.0250, 16590.36
369.5071, 16571.68
369.9893, 16583.84
370.4714, 16599.38
370.9535, 16606.05
371.4356, 16604.45
371.9177, 16592.00
372.3998, 16565.59
372.8820, 16529.71
373.3641, 16493.27
373.8462, 16454.07
374.3283, 16420.05
374.8104, 16393.15
375.2925, 16372.60
375.7747, 16368.37
376.2568, 16384.68
376.7389, 16408.82
377.2210, 16425.32
377.7031, 16434.15
378.1852, 16435.75
378.6674, 16429.31
379.1495, 16415.85
379.6316, 16395.89
380.1137, 16368.39
380.5958, 16345.56
381.0779, 16345.80
381.5601, 16363.31
382.0422, 16368.50
382.5243, 16350.51
383.0064, 16322.63
383.4885, 16304.65
383.9706, 16296.06
384.4528, 16294.31
384.9349, 16306.79
385.4170, 16322.64
385.8991, 16322.92
386.3812, 16302.41
386.8633, 16273.99
387.3455, 16238.04
387.8276, 16202.82
388.3097, 16186.87
388.7918, 16218.02
389.2739, 16260.67
389.7560, 16287.54
390.2382, 16296.00
390.7203, 16295.11
391.2024, 16288.89
391.6845, 16276.36
392.1666, 16256.17
392.6487, 16212.40
393.1309, 16175.47
393.6130, 16160.39
394.0951, 16165.60
394.5772, 16172.31
395.0593, 16179.83
395.5414, 16184.76
396.0236, 16184.85
396.5057, 16174.96
396.9878, 16165.96
397.4699, 16163.18
397.9520, 16162.58
398.4341, 16151.57
398.9163, 16122.21
399.3984, 16090.44
399.8805, 16057.90
400.3626, 16013.45
400.8447, 16004.88
401.3268, 16057.63
401.8090, 16127.46
402.2911, 16148.69
402.7732, 16101.86
403.2553, 16056.19
403.7374, 16027.13
404.2195, 16014.61
404.7017, 16022.35
405.1838, 16058.73
405.6659, 16092.87
406.1480, 16090.63
406.6301, 16051.35
407.1122, 16023.33
407.5944, 16018.55
408.0765, 16026.55
408.5586, 16021.76
409.0407, 16004.40
409.5228, 15986.75
410.0049, 15979.60
410.4871, 15978.62
410.9692, 15965.81
411.4513, 15933.75
411.9334, 15912.63
412.4155, 15964.70
412.8976, 16060.32
413.3798, 16112.68
413.8619, 16037.21
414.3440, 15925.87
414.8261, 15881.13
415.3082, 15904.87
415.7903, 15928.37
416.2725, 15886.33
416.7546, 15826.70
417.2367, 15804.20
417.7188, 15876.82
418.2009, 15945.60
418.6830, 15963.42
419.1652, 15939.53
419.6473, 15907.12
420.1294, 15858.93
420.6115, 15818.58
421.0937, 15801.36
421.5758, 15825.75
422.0579, 15838.52
422.5400, 15825.37
423.0221, 15798.08
423.5042, 15775.65
423.9864, 15762.61
424.4685, 15750.23
424.9506, 15734.56
425.4327, 15714.81
425.9148, 15705.57
426.3969, 15712.42
426.8791, 15723.40
427.3612, 15727.02
427.8433, 15718.83
428.3254, 15718.10
428.8075, 15731.16
429.2896, 15752.09
429.7718, 15761.30
430.2539, 15758.35
430.7360, 15746.54
431.2181, 15721.03
431.7002, 15683.75
432.1823, 15667.06
432.6645, 15677.17
433.1466, 15692.44
433.6287, 15676.03
434.1108, 15635.35
434.5929, 15607.75
435.0750, 15620.72
435.5572, 15651.42
436.0393, 15658.47
436.5214, 15642.75
437.0035, 15623.08
437.4856, 15614.04
437.9677, 15610.35
438.4499, 15604.41
438.9320, 15592.10
439.4141, 15580.78
439.8962, 15575.01
440.3783, 15574.27
440.8604, 15577.12
441.3426, 15593.89
441.8247, 15605.72
442.3068, 15595.80
442.7889, 15554.29
443.2710, 15530.10
443.7531, 15554.14
444.2353, 15595.20
444.7174, 15619.13
445.1995, 15605.14
445.6816, 15590.97
446.1637, 15586.78
446.6458, 15590.68
447.1280, 15579.07
447.6101, 15532.47
448.0922, 15491.81
448.5743, 15483.53
449.0564, 15527.21
449.5385, 15549.72
450.0207, 15542.81
450.5028, 15519.74
450.9849, 15502.87
451.4670, 15491.60
451.9491, 15490.67
452.4312, 15506.89
452.9134, 15536.92
453.3955, 15554.96
453.8776, 15560.26
454.3597, 15558.77
454.8418, 15555.38
455.3239, 15549.85
455.8061, 15540.79
456.2882, 15525.96
456.7703, 15510.23
457.2524, 15497.70
457.7345, 15489.36
458.2166, 15489.17
458.6988, 15502.01
459.1809, 15523.08
459.6630, 15554.45
460.1451, 15600.73
460.6272, 15626.14
461.1093, 15583.91
461.5915, 15515.03
462.0736, 15471.36
462.5557, 15488.89
463.0378, 15515.92
463.5199, 15539.60
464.0020, 15558.60
464.4842, 15566.96
464.9663, 15554.50
465.4484, 15537.49
465.9305, 15523.40
466.4126, 15504.14
466.8947, 15503.01
467.3769, 15532.35
467.8590, 15574.34
468.3411, 15599.54
468.8232, 15599.85
469.3053, 15599.48
469.7874, 15607.54
470.2696, 15622.80
470.7517, 15617.55
471.2338, 15583.78
471.7159, 15554.16
472.1980, 15566.88
472.6801, 15620.53
473.1623, 15647.74
473.6444, 15632.97
474.1265, 15600.13
474.6086, 15589.00
475.0907, 15597.11
475.5728, 15608.55
476.0550, 15618.67
476.5371, 15625.48
477.0192, 15620.67
477.5013, 15603.66
477.9834, 15594.88
478.4655, 15623.40
478.9477, 15665.54
479.4298, 15689.09
479.9119, 15669.30
480.3940, 15648.32
480.8761, 15648.03
481.3582, 15663.86
481.8404, 15682.85
482.3225, 15701.99
482.8046, 15722.32
483.2867, 15744.48
483.7688, 15768.65
484.2509, 15794.18
484.7331, 15834.72
485.2152, 15869.32
485.6973, 15876.00
486.1794, 15824.00
486.6615, 15798.35
487.1436, 15823.16
487.6258, 15883.88
488.1079, 15908.74
488.5900, 15887.05
489.0721, 15858.44
489.5542, 15841.46
490.0363, 15835.98
490.5185, 15844.02
491.0006, 15867.46
491.4827, 15898.20
491.9648, 15927.81
492.4470, 15956.08
492.9291, 15981.20
493.4112, 16002.31
493.8933, 16019.60
494.3754, 16030.64
494.8575, 16036.55
495.3397, 16043.72
495.8218, 16058.96
496.3039, 16076.55
496.7860, 16089.41
497.2681, 16095.32
497.7502, 16101.92
498.2324, 16115.71
498.7145, 16132.03
499.1966, 16144.84
499.6787, 16146.85
500.1608, 16150.46
500.6429, 16159.59
501.1251, 16174.08
501.6072, 16190.15
502.0893, 16218.56
502.5714, 16238.94
503.0535, 16239.50
503.5356, 16205.83
504.0178, 16187.27
504.4999, 16188.15
504.9820, 16200.46
505.4641, 16213.08
505.9462, 16226.11
506.4283, 16237.95
506.9105, 16244.63
507.3926, 16250.49
507.8747, 16278.88
508.3568, 16331.46
508.8389, 16378.13
509.3210, 16399.27
509.8032, 16397.80
510.2853, 16373.63
510.7674, 16318.77
511.2495, 16275.64
511.7316, 16301.58
512.2137, 16370.86
512.6959, 16430.62
513.1780, 16458.25
513.6601, 16469.98
514.1422, 16469.52
514.6243, 16459.34
515.1064, 16454.99
515.5886, 16471.97
516.0707, 16490.08
516.5528, 16496.28
517.0349, 16482.77
517.5170, 16470.34
517.9991, 16457.23
518.4813, 16447.75
518.9634, 16447.52
519.4455, 16457.31
519.9276, 16475.94
520.4097, 16509.23
520.8918, 16552.33
521.3740, 16575.25
521.8561, 16574.21
522.3382, 16565.54
522.8203, 16558.28
523.3024, 16552.43
523.7845, 16544.01
524.2667, 16530.02
524.7488, 16524.22
525.2309, 16552.48
525.7130, 16604.99
526.1951, 16646.34
526.6772, 16656.38
527.1594, 16657.39
527.6415, 16679.08
528.1236, 16716.07
528.6057, 16745.09
529.0878, 16748.24
529.5699, 16741.07
530.0521, 16735.38
530.5342, 16733.94
531.0163, 16728.12
531.4984, 16701.71
531.9805, 16675.21
532.4626, 16670.25
532.9448, 16719.11
533.4269, 16753.91
533.9090, 16754.47
534.3911, 16734.09
534.8732, 16748.78
535.3553, 16823.48
535.8375, 16886.72
536.3196, 16900.57
536.8017, 16861.97
537.2838, 16844.31
537.7659, 16850.34
538.2480, 16867.84
538.7302, 16887.79
539.2123, 16909.26
539.6944, 16924.91
540.1765, 16933.29
540.6586, 16934.90
541.1407, 16921.61
541.6229, 16899.97
542.1050, 16893.18
542.5871, 16934.84
543.0692, 16983.06
543.5513, 16991.57
544.0334, 16958.41
544.5156, 16938.01
544.9977, 16970.29
545.4798, 17017.49
545.9619, 17049.37
546.4440, 17049.21
546.9261, 17050.01
547.4083, 17061.02
547.8904, 17074.75
548.3725, 17075.93
548.8546, 17046.89
549.3367, 17035.25
549.8188, 17060.37
550.3010, 17117.48
550.7831, 17146.93
551.2652, 17141.27
551.7473, 17132.78
552.2294, 17144.97
552.7115, 17176.04
553.1937, 17212.44
553.6758, 17256.97
554.1579, 17290.71
554.6400, 17273.01
555.1221, 17223.60
555.6042, 17200.14
556.0864, 17239.92
556.5685, 17297.22
557.0506, 17325.85
557.5327, 17333.75
558.0148, 17350.00
558.4969, 17409.14
558.9791, 17465.77
559.4612, 17488.97
559.9433, 17469.48
560.4254, 17448.40
560.9075, 17421.31
561.3896, 17402.74
561.8718, 17405.48
562.3539, 17446.56
562.8360, 17480.08
563.3181, 17500.65
563.8002, 17512.32
564.2823, 17523.19
564.7645, 17531.60
565.2466, 17546.83
565.7287, 17577.48
566.2108, 17618.26
566.6929, 17639.56
567.1750, 17640.46
567.6572, 17638.87
568.1393, 17648.23
568.6214, 17666.04
569.1035, 17687.39
569.5856, 17711.92
570.0677, 17739.02
570.5499, 17771.61
571.0320, 17806.04
571.5141, 17836.77
571.9962, 17866.02
572.4783, 17886.96
572.9604, 17887.07
573.4426, 17872.64
573.9247, 17876.07
574.4068, 17929.69
574.8889, 17977.10
575.3710, 17993.76
575.8531, 17971.72
576.3353, 17958.58
576.8174, 17951.66
577.2995, 17957.78
577.7816, 17992.08
578.2637, 18059.09
578.7458, 18100.66
579.2280, 18102.09
579.7101, 18086.07
580.1922, 18090.73
580.6743, 18113.90
581.1564, 18143.30
581.6385, 18176.24
582.1207, 18210.66
582.6028, 18244.80
583.0849, 18278.04
583.5670, 18307.92
584.0491, 18340.37
584.5313, 18364.07
585.0134, 18364.46
585.4955, 18326.33
585.9776, 18307.83
586.4597, 18341.41
586.9418, 18394.96
587.4240, 18430.90
587.9061, 18423.05
588.3882, 18438.65
588.8703, 18501.83
589.3524, 18588.46
589.8345, 18620.26
590.3167, 18581.71
590.7988, 18548.17
591.2809, 18557.02
591.7630, 18598.73
592.2451, 18620.42
592.7272, 18621.02
593.2094, 18627.35
593.6915, 18673.34
594.1736, 18738.58
594.6557, 18781.60
595.1378, 18790.48
595.6199, 18795.96
596.1021, 18824.55
596.5842, 18863.13
597.0663, 18893.07
597.5485, 18895.39
598.0306, 18901.18
598.5127, 18923.54
598.9948, 18958.41
599.4769, 18987.74
599.9590, 19001.50
600.4412, 19021.12
600.9233, 19059.32
601.4054, 19119.33
601.8875, 19145.98
602.3696, 19128.68
602.8517, 19103.46
603.3339, 19100.12
603.8160, 19117.32
604.2981, 19140.38
604.7802, 19168.32
605.2623, 19198.89
605.7444, 19229.79
606.2266, 19260.97
606.7087, 19290.63
607.1908, 19315.60
607.6729, 19342.15
608.1550, 19383.28
608.6371, 19431.64
609.1193, 19464.74
609.6014, 19461.73
610.0835, 19451.13
610.5656, 19439.96
611.0477, 19425.49
611.5298, 19439.49
612.0120, 19509.52
612.4941, 19581.21
612.9762, 19615.82
613.4583, 19601.18
613.9404, 19591.94
614.4225, 19588.37
614.9047, 19594.06
615.3868, 19617.96
615.8689, 19658.88
616.3510, 19700.41
616.8331, 19745.40
617.3152, 19778.59
617.7974, 19760.11
618.2795, 19704.70
618.7616, 19668.57
619.2437, 19697.70
619.7258, 19746.71
620.2079, 19787.06
620.6901, 19816.66
621.1722, 19834.50
621.6543, 19830.24
622.1364, 19821.10
622.6185, 19816.67
623.1006, 19810.50
623.5828, 19825.72
624.0649, 19873.39
624.5470, 19932.31
625.0291, 19978.54
625.5112, 20011.42
625.9933, 20035.42
626.4755, 20051.75
626.9576, 20058.73
627.4397, 20045.28
627.9218, 20014.79
628.4039, 19993.31
628.8860, 19996.67
629.3682, 20014.89
629.8503, 20038.94
630.3324, 20067.58
630.8145, 20091.86
631.2966, 20109.53
631.7787, 20118.61
632.2609, 20114.66
632.7430, 20092.17
633.2251, 20076.43
633.7072, 20083.08
634.1893, 20091.92
634.6714, 20082.62
635.1536, 20029.54
635.6357, 20018.30
636.1178, 20069.01
636.5999, 20149.62
637.0820, 20205.54
637.5641, 20236.15
638.0463, 20247.46
638.5284, 20234.73
639.0105, 20209.91
639.4926, 20196.34
639.9747, 20192.47
640.4568, 20189.64
640.9390, 20175.18
641.4211, 20164.08
641.9032, 20176.29
642.3853, 20213.02
642.8674, 20240.34
643.3495, 20234.81
643.8317, 20221.65
644.3138, 20219.14
644.7959, 20241.24
645.2780, 20250.89
645.7601, 20246.66
646.2422, 20231.31
646.7244, 20202.85
647.2065, 20155.61
647.6886, 20128.16
648.1707, 20133.54
648.6528, 20153.51
649.1349, 20143.60
649.6171, 20109.91
650.0992, 20095.15
650.5813, 20142.27
651.0634, 20204.90
651.5455, 20227.75
652.0276, 20214.97
652.5098, 20187.60
652.9919, 20127.86
653.4740, 20079.57
653.9561, 20081.78
654.4382, 20152.02
654.9203, 20186.82
655.4025, 20141.75
655.8846, 20083.40
656.3667, 20058.11
656.8488, 20082.00
657.3309, 20088.64
657.8130, 20070.51
658.2952, 20044.25
658.7773, 20037.48
659.2594, 20047.68
659.7415, 20043.47
660.2236, 20009.65
660.7057, 19969.30
661.1879, 19964.96
661.6700, 19982.47
662.1521, 19982.38
662.6342, 19920.79
663.1163, 19856.85
663.5984, 19835.15
664.0806, 19850.02
664.5627, 19848.43
665.0448, 19789.71
665.5269, 19737.57
666.0090, 19724.22
666.4911, 19757.97
666.9733, 19766.62
667.4554, 19739.00
667.9375, 19708.42
668.4196, 19711.51
668.9017, 19746.17
669.3839, 19745.88
669.8660, 19701.67
670.3481, 19637.14
670.8302, 19562.04
671.3123, 19488.84
671.7944, 19447.09
672.2766, 19463.62
672.7587, 19485.92
673.2408, 19477.25
673.7229, 19450.04
674.2050, 19428.48
674.6871, 19423.52
675.1693, 19420.50
675.6514, 19420.67
676.1335, 19420.93
676.6156, 19403.37
677.0977, 19361.74
677.5798, 19316.39
678.0620, 19273.54
678.5441, 19233.79
679.0262, 19208.76
679.5083, 19198.89
679.9904, 19193.14
680.4725, 19180.73
680.9547, 19166.95
681.4368, 19164.31
681.9189, 19176.02
682.4010, 19181.94
682.8831, 19170.22
683.3652, 19144.93
683.8474, 19109.28
684.3295, 19051.98
684.8116, 19003.39
685.2937, 18973.79
685.7758, 18952.50
686.2579, 18925.24
686.7401, 18886.40
687.2222, 18858.74
687.7043, 18851.89
688.1864, 18853.57
688.6685, 18828.91
689.1506, 18779.95
689.6328, 18739.49
690.1149, 18724.36
690.5970, 18724.53
691.0791, 18734.20
691.5612, 18749.07
692.0433, 18747.33
692.5255, 18692.17
693.0076, 18636.79
693.4897, 18618.42
693.9718, 18643.11
694.4539, 18664.31
694.9360, 18680.03
695.4182, 18686.63
695.9003, 18682.59
696.3824, 18668.82
696.8645, 18635.77
697.3466, 18575.06
697.8287, 18517.11
698.3109, 18496.81
698.7930, 18509.12
699.2751, 18533.04
699.7572, 18571.44
700.2393, 18596.10
700.7214, 18557.11
701.2036, 18488.26
701.6857, 18446.64
702.1678, 18496.58
702.6499, 18525.79
703.1320, 18465.78
703.6141, 18354.79
704.0963, 18290.15
704.5784, 18304.15
705.0605, 18322.76
705.5426, 18338.39
706.0247, 18345.98
706.5068, 18311.00
706.9890, 18225.50
707.4711, 18162.37
707.9532, 18178.31
708.4353, 18240.34
708.9174, 18257.27
709.3995, 18233.88
709.8817, 18216.32
710.3638, 18247.30
710.8459, 18291.06
711.3280, 18319.37
711.8101, 18329.73
712.2922, 18320.92
712.7744, 18268.86
713.2565, 18214.97
713.7386, 18185.47
714.2207, 18183.25
714.7028, 18202.61
715.1849, 18256.12
715.6671, 18309.66
716.1492, 18320.64
716.6313, 18292.71
717.1134, 18270.01
717.5955, 18259.92
718.0776, 18257.96
718.5598, 18262.17
719.0419, 18270.23
719.5240, 18277.71
720.0061, 18284.74
720.4882, 18288.81
720.9703, 18287.47
721.4525, 18282.45
721.9346, 18277.49
722.4167, 18264.83
722.8988, 18263.74
723.3809, 18283.62
723.8630, 18317.19
724.3452, 18330.24
724.8273, 18318.12
725.3094, 18318.92
725.7915, 18362.86
726.2736, 18428.04
726.7557, 18458.41
727.2379, 18456.22
727.7200, 18439.42
728.2021, 18389.36
728.6842, 18351.09
729.1663, 18379.36
729.6484, 18481.08
730.1306, 18546.38
730.6127, 18503.39
731.0948, 18448.77
731.5769, 18437.70
732.0590, 18483.70
732.5411, 18516.32
733.0233, 18532.77
733.5054, 18542.10
733.9875, 18548.68
734.4696, 18554.05
734.9517, 18569.40
735.4338, 18596.19
735.9160, 18631.86
736.3981, 18688.80
736.8802, 18748.19
737.3623, 18781.73
737.8444, 18776.42
738.3266, 18754.86
738.8087, 18697.92
739.2908, 18639.07
739.7729, 18629.98
740.2551, 18705.39
740.7372, 18768.88
741.2193, 18808.30
741.7014, 18831.07
742.1835, 18854.64
742.6656, 18879.04
743.1478, 18886.67
743.6299, 18861.38
744.1120, 18829.63
744.5941, 18836.07
745.0762, 18871.81
745.5583, 18909.51
746.0405, 18939.23
746.5226, 18963.54
747.0047, 18975.26
747.4868, 18979.32
747.9689, 19004.48
748.4510, 19089.19
748.9332, 19148.81
749.4153, 19145.17
749.8974, 19086.26
750.3795, 19069.09
750.8616, 19097.33
751.3438, 19138.37
751.8259, 19177.24
752.3080, 19212.61
752.7901, 19245.18
753.2722, 19274.21
753.7543, 19289.82
754.2365, 19263.79
754.7186, 19236.51
755.2007, 19246.41
755.6828, 19306.41
756.1649, 19351.12
756.6470, 19353.62
757.1292, 19352.49
757.6113, 19372.86
758.0934, 19422.52
758.5755, 19457.39
759.0576, 19475.11
759.5397, 19486.89
760.0219, 19500.48
760.5040, 19517.73
760.9861, 19546.89
761.4682, 19591.39
761.9503, 19634.27
762.4324, 19662.81
762.9146, 19682.07
763.3967, 19697.15
763.8788, 19697.20
764.3609, 19712.87
764.8430, 19758.87
765.3251, 19817.42
765.8073, 19873.84
766.2894, 19934.46
766.7715, 19963.28
767.2536, 19945.34
767.7357, 19911.88
768.2178, 19920.05
768.7000, 19960.00
769.1821, 19988.82
769.6642, 19982.91
770.1463, 19977.09
770.6284, 20007.05
771.1105, 20057.98
771.5927, 20101.25
772.0748, 20121.50
772.5569, 20140.74
773.0390, 20163.77
773.5211, 20189.36
774.0032, 20214.67
774.4854, 20240.13
774.9675, 20263.67
775.4496, 20284.52
775.9317, 20303.17
776.4138, 20320.13
776.8959, 20335.61
777.3781, 20351.48
777.8602, 20365.90
778.3423, 20383.33
778.8244, 20418.29
779.3065, 20462.62
779.7886, 20482.17
780.2708, 20425.11
780.7529, 20386.17
781.2350, 20407.70
781.7171, 20480.15
782.1992, 20508.47
782.6813, 20481.18
783.1635, 20454.64
783.6456, 20463.98
784.1277, 20495.17
784.6098, 20497.82
785.0919, 20474.91
785.5740, 20456.27
786.0562, 20463.41
786.5383, 20481.27
787.0204, 20502.06
787.5025, 20525.02
787.9846, 20535.58
788.4667, 20518.79
788.9489, 20499.65
789.4310, 20487.67
789.9131, 20483.18
790.3952, 20479.86
790.8773, 20475.66
791.3594, 20482.36
791.8416, 20524.42
792.3237, 20582.13
792.8058, 20596.56
793.2879, 20565.62
793.7700, 20531.79
794.2521, 20508.12
794.7343, 20505.09
795.2164, 20547.46
795.6985, 20662.30
796.1806, 20705.76
796.6627, 20619.62
797.1448, 20509.62
797.6270, 20442.12
798.1091, 20422.17
798.5912, 20409.13
799.0733, 20405.83
799.5554, 20391.72
800.0375, 20323.16
800.5197, 20236.08
801.0018, 20209.06
801.4839, 20260.00
801.9660, 20309.79
802.4481, 20308.44
802.9302, 20286.19
803.4124, 20267.83
803.8945, 20257.66
804.3766, 20250.27
804.8587, 20249.90
805.3408, 20246.70
805.8229, 20229.72
806.3051, 20199.07
806.7872, 20171.55
807.2693, 20149.00
807.7514, 20126.53
808.2335, 20095.19
808.7156, 20061.63
809.1978, 20036.89
809.6799, 20025.81
810.1620, 20014.98
810.6441, 20001.93
811.1262, 19984.61
811.6083, 19961.14
812.0905, 19929.80
812.5726, 19894.53
813.0547, 19851.39
813.5368, 19812.74
814.0189, 19797.15
814.5010, 19800.69
814.9832, 19801.70
815.4653, 19797.74
815.9474, 19785.94
816.4295, 19757.18
816.9116, 19721.67
817.3937, 19693.12
817.8759, 19684.02
818.3580, 19664.36
818.8401, 19622.59
819.3222, 19571.34
819.8043, 19518.72
820.2864, 19460.90
820.7686, 19420.99
821.2507, 19404.21
821.7328, 19396.99
822.2149, 19392.40
822.6970, 19383.16
823.1791, 19345.50
823.6613, 19265.04
824.1434, 19187.05
824.6255, 19138.19
825.1076, 19110.30
825.5897, 19095.17
826.0718, 19120.24
826.5540, 19112.65
827.0361, 19050.86
827.5182, 18980.86
828.0003, 18967.80
828.4824, 19010.78
828.9645, 19018.13
829.4467, 18971.14
829.9288, 18908.02
830.4109, 18871.47
830.8930, 18848.02
831.3751, 18815.23
831.8572, 18761.20
832.3394, 18712.32
832.8215, 18687.52
833.3036, 18666.67
833.7857, 18626.46
834.2678, 18559.34
834.7499, 18493.36
835.2321, 18424.87
835.7142, 18371.15
836.1963, 18371.29
836.6784, 18406.76
837.1605, 18404.07
837.6426, 18341.54
838.1248, 18275.32
838.6069, 18258.53
839.0890, 18257.36
839.5711, 18233.55
840.0532, 18158.87
840.5353, 18098.91
841.0175, 18061.89
841.4996, 18036.16
841.9817, 18011.90
842.4638, 17989.12
842.9459, 17967.62
843.4280, 17949.60
843.9102, 17921.35
844.3923, 17854.53
844.8744, 17771.47
845.3565, 17711.90
845.8386, 17690.58
846.3207, 17665.25
846.8029, 17610.59
847.2850, 17549.80
847.7671, 17502.43
848.2492, 17469.39
848.7313, 17452.66
849.2134, 17461.89
849.6956, 17463.03
850.1777, 17414.30
850.6598, 17328.51
851.1419, 17246.04
851.6240, 17170.13
852.1061, 17111.48
852.5883, 17087.62
853.0704, 17078.22
853.5525, 17066.46
854.0346, 17053.55
854.5167, 17023.68
854.9988, 16955.54
855.4810, 16897.21
855.9631, 16894.85
856.4452, 16949.90
856.9273, 16958.25
857.4094, 16915.87
857.8915, 16849.99
858.3737, 16763.72
858.8558, 16679.20
859.3379, 16633.08
859.8200, 16633.28
860.3021, 16620.17
860.7842, 16548.74
861.2664, 16478.26
861.7485, 16446.71
862.2306, 16459.77
862.7127, 16448.52
863.1948, 16407.63
863.6769, 16365.52
864.1591, 16347.71
864.6412, 16342.27
865.1233, 16321.18
865.6054, 16283.74
866.0875, 16236.26
866.5696, 16169.10
867.0518, 16103.73
867.5339, 16054.93
868.0160, 16024.12
868.4981, 15994.26
868.9802, 15967.23
869.4623, 15936.75
869.9445, 15898.85
870.4266, 15855.36
870.9087, 15815.56
871.3908, 15778.49
871.8729, 15739.58
872.3550, 15692.04
872.8372, 15644.08
873.3193, 15609.11
873.8014, 15582.32
874.2835, 15538.10
874.7656, 15441.72
875.2477, 15362.15
875.7299, 15319.91
876.2120, 15307.02
876.6941, 15295.00
877.1762, 15283.89
877.6583, 15264.45
878.1404, 15229.31
878.6226, 15187.37
879.1047, 15147.85
879.5869, 15111.14
880.0690, 15077.21
880.5511, 15053.86
881.0332, 15024.32
881.5153, 14981.03
881.9974, 14929.37
882.4796, 14879.12
882.9617, 14831.08
883.4438, 14777.89
883.9259, 14714.31
884.4080, 14653.19
884.8901, 14619.12
885.3723, 14603.55
885.8544, 14586.67
886.3365, 14561.84
886.8186, 14534.36
887.3007, 14516.02
887.7828, 14492.31
888.2650, 14439.18
888.7471, 14332.82
889.2292, 14264.31
889.7113, 14247.23
890.1934, 14255.75
890.6755, 14273.47
891.1577, 14289.15
891.6398, 14262.32
892.1219, 14179.31
892.6040, 14086.70
893.0861, 14006.28
893.5682, 13938.77
894.0504, 13886.07
894.5325, 13853.53
895.0146, 13826.05
895.4967, 13809.28
895.9788, 13787.23
896.4609, 13726.87
896.9431, 13642.84
897.4252, 13658.90
897.9073, 13783.06
898.3894, 13861.52
898.8715, 13732.12
899.3536, 13540.52
899.8358, 13400.21
900.3179, 13325.30
900.8000, 13288.95
901.2821, 13319.18
901.7642, 13339.02
902.2463, 13308.45
902.7285, 13235.73
903.2106, 13181.50
903.6927, 13145.09
904.1748, 13103.81
904.6569, 13027.93
905.1390, 12951.62
905.6212, 12917.21
906.1033, 12915.33
906.5854, 12900.58
907.0675, 12848.33
907.5496, 12796.23
908.0317, 12753.17
908.5139, 12716.61
908.9960, 12676.80
909.4781, 12633.89
909.9602, 12596.60
910.4423, 12568.30
910.9244, 12547.22
911.4066, 12539.98
911.8887, 12537.04
912.3708, 12520.61
912.8529, 12462.27
913.3350, 12419.49
913.8171, 12417.22
914.2993, 12424.77
914.7814, 12400.03
915.2635, 12340.77
915.7456, 12274.19
916.2277, 12199.68
916.7098, 12137.78
917.1920, 12128.00
917.6741, 12140.77
918.1562, 12132.77
918.6383, 12092.27
919.1204, 12041.63
919.6025, 11965.14
920.0847, 11899.40
920.5668, 11874.36
921.0489, 11898.82
921.5310, 11899.40
922.0131, 11874.41
922.4952, 11840.37
922.9774, 11811.08
923.4595, 11781.07
923.9416, 11735.78
924.4237, 11676.69
924.9058, 11632.79
925.3879, 11643.37
925.8701, 11641.86
926.3522, 11590.85
926.8343, 11499.66
927.3164, 11450.65
927.7985, 11448.36
928.2806, 11443.17
928.7628, 11402.90
929.2449, 11355.75
929.7270, 11356.82
930.2091, 11387.79
930.6912, 11399.03
931.1733, 11351.95
931.6555, 11303.41
932.1376, 11271.13
932.6197, 11247.68
933.1018, 11224.11
933.5839, 11202.24
934.0660, 11159.96
934.5482, 11084.90
935.0303, 11013.33
935.5124, 11000.82
935.9945, 11021.48
936.4766, 11029.95
936.9587, 11012.41
937.4409, 10991.23
937.9230, 10973.19
938.4051, 10954.22
938.8872, 10929.67
939.3693, 10896.69
939.8514, 10877.65
940.3336, 10875.42
940.8157, 10867.25
941.2978, 10823.35
941.7799, 10766.83
942.2620, 10730.64
942.7441, 10716.44
943.2263, 10710.05
943.7084, 10711.36
944.1905, 10715.02
944.6726, 10724.97
945.1547, 10736.49
945.6368, 10710.77
946.1190, 10644.45
946.6011, 10595.74
947.0832, 10601.76
947.5653, 10627.08
948.0474, 10635.25
948.5295, 10624.59
949.0117, 10591.23
949.4938, 10487.60
949.9759, 10421.98
950.4580, 10431.03
950.9401, 10474.01
951.4222, 10495.84
951.9044, 10496.78
952.3865, 10464.13
952.8686, 10387.21
953.3507, 10318.04
953.8328, 10334.63
954.3149, 10381.19
954.7971, 10380.39
955.2792, 10297.90
955.7613, 10245.50
956.2434, 10258.57
956.7255, 10283.45
957.2076, 10292.42
957.6898, 10285.41
958.1719, 10254.43
958.6540, 10199.69
959.1361, 10151.45
959.6182, 10129.07
960.1003, 10123.30
960.5825, 10132.86
961.0646, 10153.67
961.5467, 10164.09
962.0288, 10151.95
962.5109, 10142.70
962.9930, 10147.17
963.4752, 10154.19
963.9573, 10126.94
964.4394, 10072.77
964.9215, 10036.69
965.4036, 10039.72
965.8857, 10053.03
966.3679, 10059.19
966.8500, 10059.20
967.3321, 10053.99
967.8142, 10039.71
968.2963, 10028.58
968.7784, 10023.70
969.2606, 10015.93
969.7427, 9988.611
970.2248, 9950.508
970.7069, 9938.616
971.1890, 9955.385
971.6711, 9967.939
972.1533, 9943.854
972.6354, 9917.294
973.1175, 9916.548
973.5996, 9941.399
974.0817, 9947.832
974.5638, 9933.719
975.0460, 9907.102
975.5281, 9861.138
976.0102, 9813.921
976.4923, 9806.821
976.9744, 9831.002
977.4565, 9860.515
977.9387, 9904.003
978.4208, 9927.525
978.9029, 9907.203
979.3850, 9865.456
979.8671, 9827.692
980.3492, 9791.147
980.8314, 9782.519
981.3135, 9811.341
981.7956, 9838.268
982.2777, 9809.085
982.7598, 9755.542
983.2419, 9723.567
983.7241, 9721.979
984.2062, 9724.517
984.6883, 9726.862
985.1704, 9728.183
985.6525, 9727.647
986.1346, 9725.545
986.6168, 9723.410
987.0989, 9721.422
987.5810, 9725.152
988.0631, 9753.578
988.5452, 9775.957
989.0273, 9749.234
989.5095, 9693.771
989.9916, 9662.784
990.4737, 9697.821
990.9558, 9705.867
991.4379, 9664.049
991.9200, 9608.182
992.4022, 9592.788
992.8843, 9612.323
993.3664, 9649.943
993.8485, 9708.048
994.3306, 9746.707
994.8127, 9720.184
995.2949, 9674.242
995.7770, 9650.603
996.2591, 9656.139
996.7412, 9647.714
997.2233, 9621.115
997.7054, 9596.203
998.1876, 9586.232
998.6697, 9585.988
999.1518, 9587.919
999.6339, 9589.916
1000.116, 9583.753
1000.598, 9546.565
1001.080, 9523.045
1001.562, 9541.313
1002.044, 9576.797
1002.527, 9581.618
1003.009, 9552.561
1003.491, 9541.437
1003.973, 9561.305
1004.455, 9586.041
1004.937, 9589.840
1005.419, 9579.690
1005.901, 9561.838
1006.384, 9533.832
1006.866, 9514.058
1007.348, 9507.126
1007.830, 9504.563
1008.312, 9502.194
1008.794, 9500.167
1009.276, 9501.884
1009.758, 9506.176
1010.240, 9503.590
1010.723, 9473.130
1011.205, 9449.317
1011.687, 9469.792
1012.169, 9512.123
1012.651, 9512.954
1013.133, 9450.593
1013.615, 9406.448
1014.097, 9392.225
1014.580, 9400.913
1015.062, 9436.690
1015.544, 9484.295
1016.026, 9514.776
1016.508, 9521.498
1016.990, 9517.299
1017.472, 9501.886
1017.954, 9481.454
1018.436, 9457.091
1018.919, 9429.607
1019.401, 9413.993
1019.883, 9410.271
1020.365, 9410.550
1020.847, 9409.446
1021.329, 9410.868
1021.811, 9425.843
1022.293, 9445.919
1022.776, 9449.866
1023.258, 9413.566
1023.740, 9396.287
1024.222, 9411.622
1024.704, 9434.682
1025.186, 9429.499
1025.668, 9403.123
1026.150, 9378.046
1026.632, 9356.988
1027.115, 9341.791
1027.597, 9336.826
1028.079, 9335.460
1028.561, 9334.103
1029.043, 9332.541
1029.525, 9325.945
1030.007, 9312.851
1030.489, 9308.233
1030.972, 9324.808
1031.454, 9347.133
1031.936, 9354.130
1032.418, 9350.351
1032.900, 9345.514
1033.382, 9334.508
1033.864, 9335.424
1034.346, 9355.937
1034.828, 9380.317
1035.311, 9394.205
1035.793, 9396.958
1036.275, 9377.846
1036.757, 9335.748
1037.239, 9298.729
1037.721, 9290.245
1038.203, 9290.760
1038.685, 9289.406
1039.167, 9285.267
1039.650, 9275.051
1040.132, 9255.811
1040.614, 9244.559
1041.096, 9250.354
1041.578, 9261.739
1042.060, 9260.288
1042.542, 9251.040
1043.024, 9243.863
1043.507, 9246.472
1043.989, 9241.189
1044.471, 9217.007
1044.953, 9193.059
1045.435, 9183.262
1045.917, 9187.110
1046.399, 9204.132
1046.881, 9233.106
1047.364, 9251.413
1047.846, 9234.322
1048.328, 9210.044
1048.810, 9195.174
1049.292, 9189.766
1049.774, 9189.349
1050.256, 9195.748
1050.738, 9200.715
1051.220, 9202.976
1051.703, 9202.188
1052.185, 9195.867
1052.667, 9186.825
1053.149, 9179.932
1053.631, 9176.563
1054.113, 9173.373
1054.595, 9169.865
1055.077, 9165.796
1055.559, 9160.142
1056.042, 9153.675
1056.524, 9147.773
1057.006, 9143.901
1057.488, 9154.039
1057.970, 9206.119
1058.452, 9252.146
1058.934, 9254.158
1059.416, 9231.871
1059.899, 9225.326
1060.381, 9244.646
1060.863, 9245.275
1061.345, 9220.822
1061.827, 9189.174
1062.309, 9162.061
1062.791, 9142.642
1063.273, 9139.207
1063.755, 9151.851
1064.238, 9162.199
1064.720, 9159.142
1065.202, 9162.136
1065.684, 9181.950
1066.166, 9207.947
1066.648, 9206.006
1067.130, 9181.807
1067.612, 9162.700
1068.094, 9162.466
1068.577, 9156.890
1069.059, 9110.177
1069.541, 9065.884
1070.023, 9071.989
1070.505, 9144.346
1070.987, 9171.253
1071.469, 9149.201
1071.951, 9119.781
1072.434, 9113.573
1072.916, 9114.427
1073.398, 9102.339
1073.880, 9080.505
1074.362, 9060.966
1074.844, 9034.655
1075.326, 9031.919
1075.808, 9064.194
1076.291, 9107.805
1076.773, 9130.911
1077.255, 9138.307
1077.737, 9145.199
1078.219, 9154.353
1078.701, 9149.289
1079.183, 9107.469
1079.665, 9063.043
1080.147, 9029.996
1080.630, 9008.832
1081.112, 9007.155
1081.594, 9024.057
1082.076, 9030.082
1082.558, 9006.052
1083.040, 8982.569
1083.522, 8989.181
1084.004, 9012.001
1084.486, 9033.045
1084.969, 9051.018
1085.451, 9067.241
1085.933, 9083.563
1086.415, 9090.724
1086.897, 9073.006
1087.379, 9045.659
1087.861, 9039.123
1088.343, 9048.314
1088.826, 9049.373
1089.308, 9020.355
1089.790, 9000.573
1090.272, 8998.051
1090.754, 9006.428
1091.236, 9022.518
1091.718, 9041.920
1092.200, 9039.404
1092.682, 9009.364
1093.165, 8985.122
1093.647, 8995.284
1094.129, 9010.996
1094.611, 9013.307
1095.093, 9004.301
1095.575, 9001.091
1096.057, 9004.046
1096.539, 9003.149
1097.022, 8992.624
1097.504, 8981.015
1097.986, 8979.760
1098.468, 8981.801
1098.950, 8976.411
1099.432, 8954.977
1099.914, 8946.374
1100.396, 8954.106
1100.879, 8963.757
1101.361, 8961.936
1101.843, 8956.280
1102.325, 8971.452
1102.807, 8997.846
1103.289, 8999.314
1103.771, 8923.678
1104.253, 8875.311
1104.735, 8877.323
1105.218, 8904.986
1105.700, 8932.253
1106.182, 8956.189
1106.664, 8954.206
1107.146, 8923.324
1107.628, 8904.778
1108.110, 8940.641
1108.592, 8979.178
1109.074, 8992.982
1109.557, 8985.356
1110.039, 8962.094
1110.521, 8922.620
1111.003, 8899.727
1111.485, 8904.442
1111.967, 8924.588
1112.449, 8974.089
1112.931, 9017.846
1113.414, 9007.108
1113.896, 8918.700
1114.378, 8882.318
1114.860, 8908.237
1115.342, 8941.849
1115.824, 8959.368
1116.306, 8960.100
1116.788, 8925.779
1117.271, 8875.913
1117.753, 8853.670
1118.235, 8908.554
1118.717, 8937.372
1119.199, 8925.954
1119.681, 8902.445
1120.163, 8894.507
1120.645, 8896.902
1121.127, 8891.775
1121.609, 8879.843
1122.092, 8875.850
1122.574, 8895.393
1123.056, 8914.814
1123.538, 8931.074
1124.020, 8939.073
1124.502, 8920.423
1124.984, 8879.981
1125.466, 8861.548
1125.949, 8875.233
1126.431, 8893.751
1126.913, 8903.817
1127.395, 8906.729
1127.877, 8902.074
1128.359, 8890.860
1128.841, 8876.511
1129.323, 8858.570
1129.806, 8845.166
1130.288, 8840.233
1130.770, 8838.892
1131.252, 8830.140
1131.734, 8824.954
1132.216, 8842.041
1132.698, 8896.805
1133.180, 8921.669
1133.662, 8911.830
1134.145, 8891.504
1134.627, 8868.287
1135.109, 8849.155
1135.591, 8851.270
1136.073, 8866.272
1136.555, 8872.948
1137.037, 8855.640
1137.519, 8843.064
1138.001, 8834.771
1138.484, 8836.041
1138.966, 8864.707
1139.448, 8904.043
1139.930, 8905.514
1140.412, 8871.383
1140.894, 8845.980
1141.376, 8854.883
1141.858, 8866.067
1142.341, 8873.361
1142.823, 8875.632
1143.305, 8870.078
1143.787, 8857.579
1144.269, 8838.712
1144.751, 8812.044
1145.233, 8796.500
1145.715, 8814.348
1146.198, 8834.749
1146.680, 8839.256
1147.162, 8832.215
1147.644, 8834.742
1148.126, 8846.127
1148.608, 8857.374
1149.090, 8868.227
1149.572, 8871.563
1150.054, 8853.396
1150.536, 8831.276
1151.019, 8823.104
1151.501, 8830.468
1151.983, 8831.622
1152.465, 8826.204
1152.947, 8823.882
1153.429, 8837.341
1153.911, 8847.822
1154.393, 8824.688
1154.876, 8790.068
1155.358, 8785.824
1155.840, 8828.095
1156.322, 8858.658
1156.804, 8877.381
1157.286, 8879.324
1157.768, 8845.084
1158.250, 8802.574
1158.733, 8789.408
1159.215, 8799.413
1159.697, 8805.943
1160.179, 8810.521
1160.661, 8793.875
1161.143, 8742.489
1161.625, 8701.611
1162.107, 8741.804
1162.589, 8819.398
1163.072, 8864.236
1163.554, 8871.384
1164.036, 8859.889
1164.518, 8819.020
1165.000, 8786.448
1165.482, 8773.307
1165.964, 8769.190
1166.446, 8753.410
1166.928, 8732.626
1167.411, 8724.344
1167.893, 8734.529
1168.375, 8736.226
1168.857, 8700.924
1169.339, 8681.894
1169.821, 8707.866
1170.303, 8758.395
1170.785, 8777.205
1171.268, 8769.335
1171.750, 8748.346
1172.232, 8706.609
1172.714, 8683.765
1173.196, 8712.612
1173.678, 8750.334
1174.160, 8776.736
1174.642, 8790.385
1175.125, 8765.556
1175.607, 8711.647
1176.089, 8682.027
1176.571, 8729.650
1177.053, 8769.805
1177.535, 8747.468
1178.017, 8713.881
1178.499, 8724.179
1178.981, 8777.466
1179.464, 8780.990
1179.946, 8736.796
1180.428, 8695.025
1180.910, 8681.453
1181.392, 8685.040
1181.874, 8715.623
1182.356, 8751.779
1182.838, 8759.082
1183.320, 8736.485
1183.803, 8715.584
1184.285, 8698.639
1184.767, 8690.002
1185.249, 8705.256
1185.731, 8717.988
1186.213, 8703.690
1186.695, 8673.075
1187.177, 8655.300
1187.660, 8650.476
1188.142, 8660.384
1188.624, 8687.438
1189.106, 8711.423
1189.588, 8708.066
1190.070, 8699.466
1190.552, 8709.143
1191.034, 8732.659
1191.516, 8729.215
1191.999, 8694.422
1192.481, 8676.627
1192.963, 8691.854
1193.445, 8712.396
1193.927, 8711.415
1194.409, 8701.173
1194.891, 8692.547
1195.373, 8686.433
1195.855, 8685.281
1196.338, 8689.992
1196.820, 8691.986
1197.302, 8688.276
1197.784, 8679.779
1198.266, 8659.757
1198.748, 8639.609
1199.230, 8635.928
1199.712, 8653.436
1200.195, 8666.105
1200.677, 8673.802
1201.159, 8677.317
1201.641, 8673.729
1202.123, 8670.270
1202.605, 8675.097
1203.087, 8685.807
1203.569, 8700.069
1204.052, 8724.515
1204.534, 8729.255
1205.016, 8711.469
1205.498, 8691.077
1205.980, 8683.779
1206.462, 8679.543
1206.944, 8664.465
1207.426, 8643.731
1207.908, 8628.966
1208.391, 8615.788
1208.873, 8627.042
1209.355, 8669.015
1209.837, 8707.260
1210.319, 8709.122
1210.801, 8693.820
1211.283, 8678.316
1211.765, 8664.169
1212.247, 8655.186
1212.730, 8654.518
1213.212, 8647.343
1213.694, 8629.943
1214.176, 8616.730
1214.658, 8625.026
1215.140, 8642.547
1215.622, 8658.125
1216.104, 8670.359
1216.587, 8675.083
1217.069, 8668.646
1217.551, 8668.053
1218.033, 8676.956
1218.515, 8688.426
1218.997, 8702.780
1219.479, 8709.999
1219.961, 8691.325
1220.443, 8648.720
1220.926, 8627.043
1221.408, 8633.263
1221.890, 8640.114
1222.372, 8642.235
1222.854, 8639.615
1223.336, 8625.203
1223.818, 8610.516
1224.300, 8612.429
1224.782, 8633.463
1225.265, 8639.546
1225.747, 8627.050
1226.229, 8615.295
1226.711, 8607.651
1227.193, 8610.142
1227.675, 8643.650
1228.157, 8683.528
1228.639, 8700.658
1229.122, 8690.522
1229.604, 8663.344
1230.086, 8615.002
1230.568, 8575.692
1231.050, 8555.927
1231.532, 8552.507
1232.014, 8575.074
1232.496, 8604.406
1232.979, 8613.742
1233.461, 8597.815
1233.943, 8600.035
1234.425, 8623.313
1234.907, 8633.752
1235.389, 8603.003
1235.871, 8572.715
1236.353, 8597.143
1236.835, 8639.608
1237.318, 8646.823
1237.800, 8609.633
1238.282, 8601.999
1238.764, 8625.628
1239.246, 8644.626
1239.728, 8632.568
1240.210, 8615.821
1240.692, 8615.839
1241.175, 8625.158
1241.657, 8634.450
1242.139, 8644.568
1242.621, 8647.535
1243.103, 8643.336
1243.585, 8632.358
1244.067, 8604.395
1244.549, 8580.857
1245.031, 8574.748
1245.514, 8583.419
1245.996, 8606.026
1246.478, 8646.012
1246.960, 8654.225
1247.442, 8631.457
1247.924, 8609.498
1248.406, 8616.041
1248.888, 8621.310
1249.370, 8597.333
1249.853, 8569.368
1250.335, 8573.411
1250.817, 8608.141
1251.299, 8639.077
1251.781, 8663.985
1252.263, 8675.646
1252.745, 8666.624
1253.227, 8646.313
1253.710, 8608.086
1254.192, 8569.571
1254.674, 8554.795
1255.156, 8560.770
1255.638, 8568.943
1256.120, 8577.492
1256.602, 8580.379
1257.084, 8565.180
1257.567, 8555.553
1258.049, 8559.666
1258.531, 8571.488
1259.013, 8589.657
1259.495, 8608.289
1259.977, 8599.074
1260.459, 8563.146
1260.941, 8536.484
1261.423, 8540.382
1261.906, 8549.759
1262.388, 8558.286
1262.870, 8570.359
1263.352, 8603.868
1263.834, 8642.220
1264.316, 8637.501
1264.798, 8589.981
1265.280, 8557.882
1265.762, 8571.596
1266.245, 8580.847
1266.727, 8575.172
1267.209, 8565.701
1267.691, 8574.248
1268.173, 8586.190
1268.655, 8570.989
1269.137, 8528.465
1269.619, 8505.049
1270.102, 8512.289
1270.584, 8518.844
1271.066, 8517.767
1271.548, 8515.649
1272.030, 8519.850
1272.512, 8528.282
1272.994, 8542.174
1273.476, 8559.843
1273.958, 8562.375
1274.441, 8544.134
1274.923, 8538.174
1275.405, 8554.050
1275.887, 8573.483
1276.369, 8578.707
1276.851, 8577.308
1277.333, 8576.518
1277.815, 8575.812
1278.297, 8566.637
1278.780, 8548.198
1279.262, 8543.229
1279.744, 8560.397
1280.226, 8570.639
1280.708, 8535.003
1281.190, 8497.920
1281.672, 8493.345
1282.154, 8513.273
1282.637, 8533.095
1283.119, 8552.288
1283.601, 8565.191
1284.083, 8570.631
1284.565, 8571.066
1285.047, 8564.555
1285.529, 8557.008
1286.011, 8550.915
1286.494, 8546.292
1286.976, 8542.375
1287.458, 8540.153
1287.940, 8544.964
1288.422, 8559.336
1288.904, 8568.372
1289.386, 8565.918
1289.868, 8556.863
1290.350, 8540.139
1290.833, 8521.309
1291.315, 8512.076
1291.797, 8509.028
1292.279, 8503.139
1292.761, 8490.826
1293.243, 8497.296
1293.725, 8538.606
1294.207, 8558.140
1294.689, 8527.886
1295.172, 8490.011
1295.654, 8515.412
1296.136, 8565.874
1296.618, 8594.017
1297.100, 8591.017
1297.582, 8563.357
1298.064, 8504.205
1298.546, 8464.708
1299.029, 8463.612
1299.511, 8478.493
1299.993, 8495.172
1300.475, 8509.358
1300.957, 8514.818
1301.439, 8513.125
1301.921, 8515.130
1302.403, 8520.594
1302.885, 8521.408
1303.368, 8513.648
1303.850, 8508.312
1304.332, 8520.160
1304.814, 8529.394
1305.296, 8522.631
1305.778, 8504.862
1306.260, 8494.674
1306.742, 8489.363
1307.224, 8473.263
1307.707, 8437.134
1308.189, 8422.281
1308.671, 8467.581
1309.153, 8508.981
1309.635, 8524.811
1310.117, 8521.314
1310.599, 8501.180
1311.081, 8474.620
1311.564, 8468.365
1312.046, 8493.212
1312.528, 8482.118
1313.010, 8405.633
1313.492, 8370.101
1313.974, 8425.740
1314.456, 8503.023
1314.938, 8498.981
##END=



