##NAMES=Fluorapophyllite-(K)
##RRUFFID=R050084
##IDEAL CHEMISTRY=KCa_4_Si_8_O_20_F&#183;8H_2_O
##LOCALITY=near Ahmednagar, Maharashtra, India
##OWNER=RRUFF
##SOURCE=Rock Currier
##DESCRIPTION=Greenish-white prismatic single crystal associated with scolecite
##STATUS=The identification of this mineral has been confirmed by X-ray diffraction and chemical analysis
##URL=rruff.info/R050084
##MEASURED CHEMISTRY=(K_0.98_Na_0.02_)Ca_4.00_Si_8.00_O_20_F_1.00_·8H_2_O
129.6975, 923.9855
130.1796, 1034.226
130.6617, 1160.754
131.1439, 1289.042
131.6260, 1412.246
132.1081, 1527.822
132.5902, 1615.344
133.0723, 1668.623
133.5544, 1697.286
134.0366, 1697.890
134.5187, 1674.650
135.0008, 1632.314
135.4829, 1573.011
135.9650, 1497.614
136.4471, 1423.470
136.9293, 1343.869
137.4114, 1272.235
137.8935, 1213.227
138.3756, 1165.552
138.8577, 1125.358
139.3398, 1090.491
139.8220, 1060.980
140.3041, 1032.322
140.7862, 1000.169
141.2683, 972.5942
141.7504, 950.3623
142.2325, 935.1925
142.7147, 931.7889
143.1968, 944.6250
143.6789, 974.5439
144.1610, 1008.937
144.6431, 1040.817
145.1252, 1082.074
145.6074, 1141.766
146.0895, 1218.736
146.5716, 1303.854
147.0537, 1391.706
147.5358, 1482.165
148.0179, 1569.430
148.5001, 1653.960
148.9822, 1734.988
149.4643, 1811.525
149.9464, 1884.106
150.4285, 1955.677
150.9106, 2035.612
151.3928, 2119.090
151.8749, 2172.055
152.3570, 2176.831
152.8391, 2159.660
153.3212, 2138.431
153.8033, 2113.982
154.2855, 2096.156
154.7676, 2092.044
155.2497, 2101.528
155.7318, 2123.881
156.2139, 2160.827
156.6960, 2209.839
157.1782, 2267.209
157.6603, 2332.042
158.1424, 2409.367
158.6245, 2510.308
159.1066, 2627.356
159.5887, 2743.598
160.0709, 2872.309
160.5530, 2991.125
161.0351, 3068.623
161.5172, 3103.512
161.9993, 3097.527
162.4814, 3038.386
162.9636, 2940.226
163.4457, 2819.302
163.9278, 2667.049
164.4099, 2499.700
164.8920, 2347.153
165.3741, 2211.287
165.8563, 2086.303
166.3384, 1966.936
166.8205, 1855.334
167.3026, 1756.945
167.7847, 1675.283
168.2668, 1607.446
168.7490, 1545.929
169.2311, 1487.735
169.7132, 1443.154
170.1953, 1420.261
170.6774, 1412.549
171.1595, 1411.385
171.6417, 1414.649
172.1238, 1421.191
172.6059, 1427.219
173.0880, 1429.591
173.5701, 1438.339
174.0522, 1457.257
174.5344, 1484.593
175.0165, 1518.383
175.4986, 1558.860
175.9807, 1604.586
176.4628, 1650.953
176.9449, 1693.006
177.4271, 1746.031
177.9092, 1812.021
178.3913, 1891.193
178.8734, 1983.523
179.3555, 2089.123
179.8376, 2209.115
180.3197, 2348.396
180.8019, 2510.764
181.2840, 2687.987
181.7661, 2880.051
182.2482, 3081.975
182.7303, 3291.510
183.2124, 3513.994
183.6946, 3733.534
184.1767, 3907.299
184.6588, 4038.229
185.1409, 4108.139
185.6230, 4117.955
186.1051, 4074.644
186.5873, 3981.330
187.0694, 3835.428
187.5515, 3651.410
188.0336, 3459.393
188.5157, 3242.236
188.9978, 3051.518
189.4800, 2897.225
189.9621, 2771.468
190.4442, 2665.130
190.9263, 2575.384
191.4084, 2502.952
191.8905, 2449.493
192.3727, 2414.611
192.8548, 2402.487
193.3369, 2421.543
193.8190, 2455.505
194.3011, 2487.407
194.7832, 2510.374
195.2654, 2533.374
195.7475, 2577.075
196.2296, 2655.990
196.7117, 2729.775
197.1938, 2786.708
197.6759, 2840.646
198.1581, 2903.700
198.6402, 2980.070
199.1223, 3064.060
199.6044, 3143.881
200.0865, 3211.036
200.5686, 3292.381
201.0508, 3387.462
201.5329, 3496.310
202.0150, 3619.224
202.4971, 3756.515
202.9792, 3904.907
203.4613, 4057.226
203.9435, 4202.419
204.4256, 4378.228
204.9077, 4599.212
205.3898, 4837.248
205.8719, 5078.140
206.3540, 5317.218
206.8362, 5552.700
207.3183, 5789.700
207.8004, 6045.500
208.2825, 6250.492
208.7646, 6418.124
209.2467, 6533.024
209.7289, 6584.385
210.2110, 6570.829
210.6931, 6497.308
211.1752, 6362.044
211.6573, 6150.386
212.1395, 5931.727
212.6216, 5706.089
213.1037, 5475.313
213.5858, 5235.941
214.0679, 4991.679
214.5500, 4751.128
215.0322, 4519.193
215.5143, 4292.469
215.9964, 4103.062
216.4785, 3967.490
216.9606, 3852.322
217.4427, 3747.296
217.9249, 3652.100
218.4070, 3570.197
218.8891, 3505.526
219.3712, 3458.450
219.8533, 3415.667
220.3354, 3375.308
220.8176, 3341.509
221.2997, 3318.643
221.7818, 3303.348
222.2639, 3288.343
222.7460, 3267.534
223.2281, 3242.398
223.7103, 3230.562
224.1924, 3238.495
224.6745, 3254.400
225.1566, 3287.487
225.6387, 3324.752
226.1208, 3347.668
226.6030, 3344.978
227.0851, 3321.071
227.5672, 3295.230
228.0493, 3280.998
228.5314, 3243.994
229.0135, 3170.763
229.4957, 3076.430
229.9778, 2977.315
230.4599, 2880.681
230.9420, 2784.230
231.4241, 2681.222
231.9062, 2569.166
232.3884, 2454.749
232.8705, 2339.447
233.3526, 2222.694
233.8347, 2099.726
234.3168, 1969.967
234.7989, 1841.492
235.2811, 1728.033
235.7632, 1628.669
236.2453, 1547.450
236.7274, 1497.491
237.2095, 1453.724
237.6916, 1397.380
238.1738, 1325.851
238.6559, 1251.699
239.1380, 1189.840
239.6201, 1142.095
240.1022, 1099.959
240.5843, 1065.317
241.0665, 1034.469
241.5486, 1006.163
242.0307, 980.0638
242.5128, 956.1913
242.9949, 935.0736
243.4770, 916.9581
243.9592, 898.2302
244.4413, 878.0398
244.9234, 857.8215
245.4055, 837.4743
245.8876, 817.4315
246.3697, 798.6866
246.8519, 781.6565
247.3340, 766.3381
247.8161, 753.5257
248.2982, 742.7780
248.7803, 735.5513
249.2624, 732.3918
249.7446, 732.6100
250.2267, 735.6331
250.7088, 742.1896
251.1909, 750.2329
251.6730, 753.4033
252.1551, 749.0626
252.6373, 745.1368
253.1194, 740.6874
253.6015, 739.2422
254.0836, 746.4073
254.5657, 765.6240
255.0478, 788.6524
255.5300, 800.8820
256.0121, 798.4017
256.4942, 799.8893
256.9763, 814.6353
257.4584, 833.1581
257.9406, 848.1503
258.4227, 857.9308
258.9048, 868.4154
259.3869, 886.3394
259.8690, 912.0276
260.3511, 938.7713
260.8333, 967.6839
261.3154, 995.3834
261.7975, 1018.119
262.2796, 1036.236
262.7617, 1056.196
263.2438, 1083.426
263.7260, 1116.938
264.2081, 1151.615
264.6902, 1190.692
265.1723, 1224.674
265.6544, 1248.096
266.1365, 1261.920
266.6187, 1267.954
267.1008, 1264.739
267.5829, 1254.740
268.0650, 1243.852
268.5471, 1233.514
269.0292, 1218.115
269.5114, 1190.830
269.9935, 1156.095
270.4756, 1120.226
270.9577, 1084.104
271.4398, 1048.127
271.9219, 1010.222
272.4041, 970.0549
272.8862, 938.3715
273.3683, 925.5791
273.8504, 922.6605
274.3325, 911.1721
274.8146, 885.2879
275.2968, 859.8556
275.7789, 844.3315
276.2610, 837.5068
276.7431, 834.4521
277.2252, 833.6797
277.7073, 835.8114
278.1895, 842.3364
278.6716, 853.8459
279.1537, 865.6335
279.6358, 873.6967
280.1179, 881.4539
280.6000, 895.2842
281.0822, 917.0331
281.5643, 942.2720
282.0464, 965.0292
282.5285, 984.4260
283.0106, 1011.092
283.4927, 1053.300
283.9749, 1098.797
284.4570, 1134.385
284.9391, 1159.906
285.4212, 1188.187
285.9033, 1230.718
286.3854, 1287.198
286.8676, 1337.182
287.3497, 1374.924
287.8318, 1412.434
288.3139, 1454.819
288.7960, 1501.754
289.2781, 1550.259
289.7603, 1597.922
290.2424, 1647.184
290.7245, 1707.959
291.2066, 1786.820
291.6887, 1868.193
292.1708, 1954.068
292.6530, 2039.710
293.1351, 2120.166
293.6172, 2193.618
294.0993, 2259.858
294.5814, 2317.650
295.0635, 2361.911
295.5457, 2406.965
296.0278, 2463.146
296.5099, 2512.493
296.9920, 2543.142
297.4741, 2553.436
297.9562, 2547.561
298.4384, 2530.516
298.9205, 2503.600
299.4026, 2454.610
299.8847, 2369.097
300.3668, 2276.790
300.8489, 2183.919
301.3311, 2091.825
301.8131, 2001.036
302.2953, 1911.577
302.7774, 1823.825
303.2595, 1739.542
303.7416, 1657.636
304.2237, 1581.563
304.7058, 1511.692
305.1880, 1447.427
305.6701, 1388.297
306.1522, 1334.147
306.6343, 1284.638
307.1164, 1239.496
307.5985, 1199.423
308.0807, 1161.792
308.5628, 1125.538
309.0449, 1092.274
309.5270, 1063.906
310.0091, 1040.332
310.4912, 1019.824
310.9734, 1001.276
311.4555, 984.6036
311.9376, 969.6967
312.4197, 958.6019
312.9018, 946.3145
313.3839, 927.0081
313.8661, 903.8904
314.3482, 885.7275
314.8303, 878.7462
315.3124, 878.1103
315.7945, 874.8916
316.2766, 868.3009
316.7588, 863.8189
317.2409, 865.7054
317.7230, 871.2840
318.2051, 876.1159
318.6872, 879.3376
319.1693, 882.3284
319.6515, 885.5425
320.1336, 889.1950
320.6157, 894.3248
321.0978, 901.2852
321.5799, 909.8367
322.0620, 919.0530
322.5442, 927.9395
323.0263, 941.5468
323.5084, 967.2510
323.9905, 996.0153
324.4726, 1014.751
324.9547, 1021.382
325.4369, 1025.220
325.9190, 1034.438
326.4011, 1049.619
326.8832, 1068.373
327.3653, 1095.018
327.8474, 1121.229
328.3296, 1140.518
328.8117, 1155.206
329.2938, 1172.749
329.7759, 1197.881
330.2580, 1228.811
330.7401, 1256.610
331.2223, 1280.458
331.7044, 1302.306
332.1865, 1318.623
332.6686, 1334.797
333.1507, 1358.643
333.6328, 1391.837
334.1150, 1426.714
334.5971, 1452.387
335.0792, 1467.867
335.5613, 1475.773
336.0434, 1473.178
336.5255, 1466.613
337.0077, 1458.666
337.4898, 1449.656
337.9719, 1439.392
338.4540, 1428.842
338.9361, 1417.106
339.4182, 1395.528
339.9004, 1358.951
340.3825, 1319.747
340.8646, 1282.103
341.3467, 1243.990
341.8288, 1202.353
342.3109, 1155.423
342.7931, 1106.849
343.2752, 1062.052
343.7573, 1021.345
344.2394, 981.6301
344.7215, 940.6497
345.2036, 901.6882
345.6858, 866.9710
346.1679, 836.5568
346.6500, 809.3868
347.1321, 786.1570
347.6142, 765.6589
348.0963, 744.1461
348.5785, 720.7432
349.0606, 697.7778
349.5427, 675.9139
350.0248, 655.7891
350.5069, 640.0669
350.9890, 632.1054
351.4712, 626.3648
351.9533, 618.5723
352.4354, 608.9985
352.9175, 598.3999
353.3996, 585.6564
353.8817, 573.8068
354.3639, 572.3829
354.8460, 586.8066
355.3281, 597.8273
355.8102, 600.2004
356.2923, 597.3798
356.7744, 591.2807
357.2566, 582.8401
357.7387, 576.9920
358.2208, 580.1124
358.7029, 594.8966
359.1850, 603.5595
359.6671, 596.4468
360.1493, 593.6174
360.6314, 607.6431
361.1135, 632.8814
361.5956, 656.4271
362.0777, 670.7690
362.5598, 677.8846
363.0420, 684.4770
363.5241, 685.4681
364.0062, 694.7363
364.4883, 720.5952
364.9704, 750.2063
365.4525, 770.7893
365.9347, 780.4461
366.4168, 790.4221
366.8989, 815.8815
367.3810, 858.4368
367.8631, 892.2269
368.3452, 909.0844
368.8274, 925.6208
369.3095, 950.6105
369.7916, 981.9072
370.2737, 1014.113
370.7558, 1046.017
371.2379, 1076.358
371.7201, 1104.323
372.2022, 1130.532
372.6843, 1148.244
373.1664, 1154.731
373.6485, 1149.898
374.1306, 1135.010
374.6128, 1109.086
375.0949, 1076.747
375.5770, 1040.249
376.0591, 999.2325
376.5412, 950.9373
377.0233, 893.8257
377.5055, 836.9951
377.9876, 789.9810
378.4697, 754.1760
378.9518, 718.2180
379.4339, 678.5147
379.9160, 641.8832
380.3982, 613.6981
380.8803, 592.2889
381.3624, 572.8974
381.8445, 552.8762
382.3266, 533.3046
382.8087, 517.1749
383.2909, 507.5852
383.7730, 497.7963
384.2551, 486.8000
384.7372, 476.1266
385.2193, 467.0402
385.7014, 459.7167
386.1836, 453.2179
386.6657, 445.6207
387.1478, 436.5220
387.6299, 434.8699
388.1120, 448.1497
388.5941, 460.5161
389.0763, 467.5186
389.5584, 470.0964
390.0405, 469.1640
390.5226, 464.1382
391.0047, 458.6990
391.4868, 459.4869
391.9690, 467.2522
392.4511, 474.0323
392.9332, 477.1000
393.4153, 478.9233
393.8974, 481.2415
394.3795, 484.1387
394.8617, 488.9085
395.3438, 497.7371
395.8259, 508.3023
396.3080, 516.6655
396.7901, 522.3912
397.2722, 527.3871
397.7544, 532.8921
398.2365, 538.7413
398.7186, 544.1652
399.2007, 550.3543
399.6828, 554.7694
400.1649, 554.1660
400.6471, 551.6527
401.1292, 552.6668
401.6113, 559.0259
402.0934, 568.3008
402.5755, 577.6152
403.0576, 589.1263
403.5398, 593.2776
404.0219, 579.6479
404.5040, 569.3781
404.9861, 576.3846
405.4682, 596.0184
405.9503, 615.1736
406.4325, 625.5912
406.9146, 629.3428
407.3967, 633.3876
407.8788, 637.7244
408.3609, 642.3683
408.8430, 646.8115
409.3252, 651.8856
409.8073, 658.3796
410.2894, 666.3773
410.7715, 675.1817
411.2536, 683.0671
411.7357, 690.9031
412.2179, 703.9122
412.7000, 724.5963
413.1821, 745.1083
413.6642, 756.3886
414.1463, 763.8548
414.6284, 778.6237
415.1106, 806.6118
415.5927, 837.8430
416.0748, 862.2719
416.5569, 883.6508
417.0390, 914.8234
417.5211, 961.2509
418.0033, 1014.586
418.4854, 1061.858
418.9675, 1099.123
419.4496, 1144.032
419.9317, 1198.463
420.4138, 1259.374
420.8960, 1327.920
421.3781, 1401.743
421.8602, 1474.162
422.3423, 1540.685
422.8244, 1603.953
423.3065, 1674.297
423.7887, 1745.278
424.2708, 1835.417
424.7529, 1951.845
425.2350, 2082.675
425.7171, 2215.074
426.1992, 2349.171
426.6814, 2497.210
427.1635, 2675.657
427.6456, 2883.100
428.1277, 3085.641
428.6098, 3280.737
429.0919, 3475.340
429.5741, 3680.956
430.0562, 3887.526
430.5383, 4084.872
431.0204, 4288.029
431.5025, 4443.959
431.9846, 4515.424
432.4668, 4504.311
432.9489, 4410.277
433.4310, 4225.635
433.9131, 3982.700
434.3952, 3705.206
434.8773, 3389.255
435.3595, 3096.785
435.8416, 2838.598
436.3237, 2599.206
436.8058, 2363.906
437.2879, 2138.900
437.7701, 1938.863
438.2522, 1771.867
438.7343, 1632.145
439.2164, 1506.292
439.6985, 1393.924
440.1806, 1298.227
440.6628, 1224.797
441.1449, 1160.182
441.6270, 1094.942
442.1091, 1029.885
442.5912, 971.7249
443.0733, 926.5926
443.5555, 892.2427
444.0376, 860.2806
444.5197, 830.6509
445.0018, 803.5349
445.4839, 779.9482
445.9660, 758.2875
446.4482, 736.4117
446.9303, 713.7256
447.4124, 694.2654
447.8945, 680.7378
448.3766, 672.1514
448.8587, 667.2389
449.3409, 665.9916
449.8230, 665.9357
450.3051, 665.0237
450.7872, 663.5385
451.2693, 663.9519
451.7514, 667.2725
452.2336, 671.1484
452.7157, 675.2175
453.1978, 679.2296
453.6799, 682.2782
454.1620, 684.2771
454.6441, 687.0560
455.1263, 693.1201
455.6084, 702.9788
456.0905, 713.1808
456.5726, 722.2469
457.0547, 733.1798
457.5368, 748.3769
458.0190, 765.7158
458.5011, 781.2790
458.9832, 792.9714
459.4653, 804.6188
459.9474, 824.8270
460.4295, 853.7853
460.9117, 872.8799
461.3938, 875.8792
461.8759, 871.4023
462.3580, 865.4747
462.8401, 858.4971
463.3222, 852.6519
463.8044, 853.7427
464.2865, 852.0935
464.7686, 837.1669
465.2507, 811.4537
465.7328, 784.2827
466.2149, 759.0404
466.6971, 736.8832
467.1792, 720.8631
467.6613, 715.9417
468.1434, 706.6772
468.6255, 689.2534
469.1076, 670.8722
469.5898, 657.6651
470.0719, 647.6539
470.5540, 633.0654
471.0361, 607.4050
471.5182, 577.9216
472.0003, 568.0195
472.4825, 587.5943
472.9646, 599.9122
473.4467, 590.8544
473.9288, 576.4261
474.4109, 565.2835
474.8930, 558.2269
475.3752, 553.7842
475.8573, 551.4508
476.3394, 551.0626
476.8215, 552.2986
477.3036, 555.1533
477.7857, 559.9903
478.2679, 567.2637
478.7500, 576.4094
479.2321, 586.2914
479.7142, 596.9194
480.1963, 607.9062
480.6784, 619.7031
481.1606, 631.4724
481.6427, 642.0853
482.1248, 651.7661
482.6069, 662.2087
483.0890, 675.1754
483.5711, 689.5231
484.0533, 699.1743
484.5354, 703.2175
485.0175, 703.6607
485.4996, 698.1813
485.9817, 691.5584
486.4638, 688.7715
486.9460, 689.6848
487.4281, 688.6334
487.9102, 679.5237
488.3923, 665.1208
488.8744, 654.7580
489.3565, 649.6271
489.8387, 641.8433
490.3208, 625.1548
490.8029, 604.5052
491.2850, 590.1336
491.7671, 583.2018
492.2492, 578.8934
492.7314, 577.4078
493.2135, 576.7584
493.6956, 574.7996
494.1777, 571.3142
494.6598, 566.6963
495.1419, 560.7750
495.6241, 554.3047
496.1062, 552.0770
496.5883, 555.9219
497.0704, 561.8085
497.5525, 572.4349
498.0346, 582.7369
498.5168, 587.2433
498.9989, 586.1941
499.4810, 585.5790
499.9631, 590.1239
500.4452, 599.0650
500.9273, 610.1377
501.4095, 624.1111
501.8916, 637.1061
502.3737, 648.1297
502.8558, 656.7039
503.3379, 662.1659
503.8200, 664.0065
504.3022, 664.7335
504.7843, 662.4560
505.2664, 661.1653
505.7485, 666.5743
506.2306, 678.3672
506.7127, 691.1394
507.1949, 701.4321
507.6770, 709.7272
508.1591, 717.9268
508.6412, 724.0416
509.1233, 733.2189
509.6054, 749.0622
510.0876, 765.3428
510.5697, 779.0685
511.0518, 789.0585
511.5339, 793.3434
512.0161, 788.1492
512.4982, 777.7430
512.9803, 774.1084
513.4624, 778.1596
513.9445, 783.6827
514.4266, 788.8779
514.9088, 794.2892
515.3909, 802.1246
515.8730, 813.0721
516.3551, 818.1442
516.8372, 810.2414
517.3193, 798.5481
517.8015, 790.7808
518.2836, 787.0052
518.7657, 785.2780
519.2478, 784.9211
519.7299, 784.4800
520.2120, 779.6417
520.6942, 761.7213
521.1763, 756.4008
521.6584, 773.1332
522.1405, 792.0319
522.6226, 805.5894
523.1047, 812.4161
523.5869, 810.2188
524.0690, 794.4357
524.5511, 776.5995
525.0332, 778.2584
525.5153, 799.2690
525.9974, 816.3354
526.4796, 822.6274
526.9617, 825.5007
527.4438, 832.4233
527.9259, 842.9319
528.4080, 853.5823
528.8901, 865.4307
529.3723, 875.7994
529.8544, 879.6306
530.3365, 881.5152
530.8186, 892.3240
531.3007, 915.4914
531.7828, 940.4214
532.2650, 951.3008
532.7471, 944.7055
533.2292, 945.7413
533.7113, 962.4656
534.1934, 977.8034
534.6755, 983.8280
535.1577, 986.4581
535.6398, 995.5262
536.1219, 1014.743
536.6040, 1032.259
537.0861, 1034.667
537.5682, 1026.415
538.0504, 1023.097
538.5325, 1027.515
539.0146, 1028.864
539.4967, 1017.114
539.9788, 996.1302
540.4609, 985.4751
540.9431, 996.9391
541.4252, 1001.283
541.9073, 987.9353
542.3894, 967.8959
542.8715, 950.1412
543.3536, 936.3635
543.8358, 925.3019
544.3179, 916.0635
544.8000, 908.5746
545.2821, 902.5040
545.7642, 897.8043
546.2463, 894.7539
546.7285, 898.2800
547.2106, 899.7521
547.6927, 888.1472
548.1748, 865.1005
548.6569, 850.5951
549.1390, 860.7664
549.6211, 878.6839
550.1032, 886.8417
550.5853, 886.2899
551.0674, 882.9717
551.5496, 879.0375
552.0317, 874.2775
552.5138, 867.6035
552.9959, 855.9193
553.4780, 853.1113
553.9601, 865.7182
554.4423, 878.8532
554.9244, 885.9850
555.4065, 889.8773
555.8886, 895.6638
556.3707, 905.3066
556.8528, 915.6966
557.3350, 921.4200
557.8171, 923.6316
558.2992, 932.7281
558.7813, 951.5462
559.2634, 971.2230
559.7455, 985.2489
560.2277, 995.8195
560.7098, 1010.196
561.1919, 1032.569
561.6740, 1051.577
562.1561, 1058.962
562.6382, 1064.085
563.1204, 1076.357
563.6025, 1096.811
564.0846, 1122.809
564.5667, 1153.433
565.0488, 1186.893
565.5309, 1215.623
566.0131, 1235.398
566.4952, 1261.070
566.9773, 1298.992
567.4594, 1340.902
567.9415, 1381.557
568.4236, 1421.528
568.9058, 1464.534
569.3879, 1513.059
569.8700, 1564.742
570.3521, 1618.434
570.8342, 1673.674
571.3163, 1727.826
571.7985, 1779.690
572.2806, 1834.515
572.7627, 1898.930
573.2448, 1974.424
573.7269, 2047.598
574.2090, 2115.156
574.6912, 2185.430
575.1733, 2263.335
575.6554, 2343.493
576.1375, 2420.368
576.6196, 2492.804
577.1017, 2562.859
577.5839, 2630.056
578.0660, 2696.488
578.5481, 2770.541
579.0302, 2853.122
579.5123, 2935.582
579.9944, 3015.132
580.4766, 3090.961
580.9587, 3161.564
581.4408, 3229.115
581.9229, 3285.693
582.4050, 3336.648
582.8871, 3369.896
583.3693, 3371.462
583.8514, 3349.546
584.3335, 3323.633
584.8156, 3302.767
585.2977, 3275.572
585.7798, 3221.353
586.2620, 3138.062
586.7441, 3053.427
587.2262, 2971.847
587.7083, 2882.459
588.1904, 2770.877
588.6725, 2649.385
589.1547, 2537.785
589.6368, 2439.003
590.1189, 2348.063
590.6010, 2269.231
591.0831, 2193.031
591.5652, 2105.882
592.0474, 2008.405
592.5295, 1910.836
593.0116, 1819.308
593.4937, 1735.549
593.9758, 1665.063
594.4579, 1615.597
594.9401, 1561.782
595.4222, 1495.193
595.9043, 1430.029
596.3864, 1372.406
596.8685, 1322.138
597.3506, 1278.277
597.8328, 1242.125
598.3149, 1209.451
598.7970, 1177.362
599.2791, 1145.571
599.7612, 1112.913
600.2433, 1079.029
600.7255, 1045.386
601.2076, 1012.595
601.6897, 981.1400
602.1718, 954.9106
602.6539, 931.1769
603.1360, 917.1207
603.6182, 924.4979
604.1003, 932.7518
604.5824, 925.0603
605.0645, 903.1118
605.5466, 880.4215
606.0287, 864.6999
606.5109, 852.3456
606.9930, 835.9389
607.4751, 816.7210
607.9572, 806.0729
608.4393, 808.3637
608.9214, 813.6787
609.4036, 812.2559
609.8857, 804.0407
610.3678, 796.1573
610.8499, 787.9872
611.3320, 780.9221
611.8141, 773.3486
612.2963, 768.2341
612.7784, 770.6172
613.2605, 779.5472
613.7426, 787.4315
614.2247, 788.2504
614.7068, 784.2032
615.1890, 779.7959
615.6711, 774.9105
616.1532, 772.2465
616.6353, 772.3593
617.1174, 775.4061
617.5995, 782.5502
618.0817, 793.9136
618.5638, 803.7424
619.0459, 811.9869
619.5280, 818.4580
620.0101, 822.7043
620.4922, 825.3123
620.9744, 826.5846
621.4565, 826.8350
621.9386, 826.9130
622.4207, 826.9467
622.9028, 827.6883
623.3849, 833.0686
623.8671, 844.2251
624.3492, 853.1371
624.8313, 855.8647
