##NAMES=Fluorapophyllite-(K)
##RRUFFID=R060554
##IDEAL CHEMISTRY=KCa_4_Si_8_O_20_F&#183;8H_2_O
##LOCALITY=unknown
##OWNER=RRUFF
##SOURCE=Gemological Institute of America
##DESCRIPTION=Colorless polished fragment
##STATUS=The identification of this mineral has been confirmed by X-ray diffraction and chemical analysis
##URL=rruff.info/R060554
##MEASURED CHEMISTRY=(K_0.88_Na_0.12_)Ca_4.00_Si_8.00_O_20_F_1.00_·8H2O
9.059570e+001, 1.517225e+003
9.107782e+001, 1.516529e+003
9.155994e+001, 1.516355e+003
9.204205e+001, 1.519046e+003
9.252417e+001, 1.520570e+003
9.300629e+001, 1.520094e+003
9.348840e+001, 1.509212e+003
9.397052e+001, 1.477795e+003
9.445264e+001, 1.421601e+003
9.493475e+001, 1.354220e+003
9.541687e+001, 1.294965e+003
9.589898e+001, 1.244977e+003
9.638110e+001, 1.202081e+003
9.686321e+001, 1.165030e+003
9.734533e+001, 1.132405e+003
9.782745e+001, 1.100954e+003
9.830956e+001, 1.070787e+003
9.879168e+001, 1.040916e+003
9.927380e+001, 1.013072e+003
9.975591e+001, 9.863302e+002
1.002380e+002, 9.611854e+002
1.007201e+002, 9.399295e+002
1.012023e+002, 9.241315e+002
1.016844e+002, 9.134796e+002
1.021665e+002, 9.042159e+002
1.026486e+002, 8.963255e+002
1.031307e+002, 8.895636e+002
1.036128e+002, 8.833682e+002
1.040950e+002, 8.773417e+002
1.045771e+002, 8.733668e+002
1.050592e+002, 8.730361e+002
1.055413e+002, 8.751615e+002
1.060234e+002, 8.786229e+002
1.065055e+002, 8.853806e+002
1.069877e+002, 8.934839e+002
1.074698e+002, 8.950850e+002
1.079519e+002, 8.896120e+002
1.084340e+002, 8.769672e+002
1.089161e+002, 8.563101e+002
1.093982e+002, 8.289949e+002
1.098804e+002, 7.981088e+002
1.103625e+002, 7.651947e+002
1.108446e+002, 7.291978e+002
1.113267e+002, 6.974971e+002
1.118088e+002, 6.704836e+002
1.122909e+002, 6.468163e+002
1.127731e+002, 6.264870e+002
1.132552e+002, 6.092957e+002
1.137373e+002, 5.943558e+002
1.142194e+002, 5.805732e+002
1.147015e+002, 5.674651e+002
1.151836e+002, 5.566750e+002
1.156658e+002, 5.484746e+002
1.161479e+002, 5.422559e+002
1.166300e+002, 5.378245e+002
1.171121e+002, 5.351756e+002
1.175942e+002, 5.334955e+002
1.180763e+002, 5.307916e+002
1.185584e+002, 5.262787e+002
1.190406e+002, 5.225333e+002
1.195227e+002, 5.200341e+002
1.200048e+002, 5.188232e+002
1.204869e+002, 5.191418e+002
1.209690e+002, 5.215048e+002
1.214511e+002, 5.253100e+002
1.219333e+002, 5.288617e+002
1.224154e+002, 5.317140e+002
1.228975e+002, 5.350543e+002
1.233796e+002, 5.407560e+002
1.238617e+002, 5.493113e+002
1.243438e+002, 5.561323e+002
1.248260e+002, 5.584486e+002
1.253081e+002, 5.580045e+002
1.257902e+002, 5.556318e+002
1.262723e+002, 5.510566e+002
1.267544e+002, 5.453994e+002
1.272365e+002, 5.410450e+002
1.277187e+002, 5.376274e+002
1.282008e+002, 5.364696e+002
1.286829e+002, 5.382487e+002
1.291650e+002, 5.420121e+002
1.296471e+002, 5.467507e+002
1.301292e+002, 5.521217e+002
1.306114e+002, 5.579608e+002
1.310935e+002, 5.617569e+002
1.315756e+002, 5.636351e+002
1.320577e+002, 5.631917e+002
1.325398e+002, 5.604609e+002
1.330219e+002, 5.552645e+002
1.335041e+002, 5.472034e+002
1.339862e+002, 5.357464e+002
1.344683e+002, 5.203253e+002
1.349504e+002, 5.043397e+002
1.354325e+002, 4.863927e+002
1.359146e+002, 4.690436e+002
1.363968e+002, 4.535581e+002
1.368789e+002, 4.401399e+002
1.373610e+002, 4.286007e+002
1.378431e+002, 4.190822e+002
1.383252e+002, 4.118975e+002
1.388073e+002, 4.056240e+002
1.392895e+002, 4.002359e+002
1.397716e+002, 3.956815e+002
1.402537e+002, 3.922086e+002
1.407358e+002, 3.901190e+002
1.412179e+002, 3.882108e+002
1.417000e+002, 3.848961e+002
1.421821e+002, 3.803458e+002
1.426643e+002, 3.753898e+002
1.431464e+002, 3.700026e+002
1.436285e+002, 3.643972e+002
1.441106e+002, 3.592831e+002
1.445927e+002, 3.547719e+002
1.450748e+002, 3.509574e+002
1.455570e+002, 3.477596e+002
1.460391e+002, 3.451846e+002
1.465212e+002, 3.431226e+002
1.470033e+002, 3.416125e+002
1.474854e+002, 3.407069e+002
1.479675e+002, 3.398175e+002
1.484497e+002, 3.387662e+002
1.489318e+002, 3.377357e+002
1.494139e+002, 3.365948e+002
1.498960e+002, 3.353734e+002
1.503781e+002, 3.345935e+002
1.508602e+002, 3.351633e+002
1.513424e+002, 3.377953e+002
1.518245e+002, 3.403068e+002
1.523066e+002, 3.422221e+002
1.527887e+002, 3.441005e+002
1.532708e+002, 3.462993e+002
1.537529e+002, 3.489564e+002
1.542351e+002, 3.521270e+002
1.547172e+002, 3.559435e+002
1.551993e+002, 3.603047e+002
1.556814e+002, 3.655909e+002
1.561635e+002, 3.720294e+002
1.566456e+002, 3.793215e+002
1.571278e+002, 3.871032e+002
1.576099e+002, 3.952046e+002
1.580920e+002, 4.036444e+002
1.585741e+002, 4.125537e+002
1.590562e+002, 4.215289e+002
1.595383e+002, 4.313202e+002
1.600205e+002, 4.431798e+002
1.605026e+002, 4.560723e+002
1.609847e+002, 4.681508e+002
1.614668e+002, 4.790585e+002
1.619489e+002, 4.875464e+002
1.624310e+002, 4.896676e+002
1.629131e+002, 4.838203e+002
1.633953e+002, 4.739421e+002
1.638774e+002, 4.613778e+002
1.643595e+002, 4.462573e+002
1.648416e+002, 4.299385e+002
1.653237e+002, 4.123705e+002
1.658058e+002, 3.943638e+002
1.662880e+002, 3.776595e+002
1.667701e+002, 3.622489e+002
1.672522e+002, 3.482758e+002
1.677343e+002, 3.360818e+002
1.682164e+002, 3.258043e+002
1.686985e+002, 3.167586e+002
1.691807e+002, 3.086347e+002
1.696628e+002, 3.015139e+002
1.701449e+002, 2.957213e+002
1.706270e+002, 2.916495e+002
1.711091e+002, 2.888573e+002
1.715912e+002, 2.863524e+002
1.720734e+002, 2.840559e+002
1.725555e+002, 2.822606e+002
1.730376e+002, 2.807174e+002
1.735197e+002, 2.796828e+002
1.740018e+002, 2.795479e+002
1.744839e+002, 2.805957e+002
1.749661e+002, 2.827235e+002
1.754482e+002, 2.853300e+002
1.759303e+002, 2.887341e+002
1.764124e+002, 2.923299e+002
1.768945e+002, 2.955306e+002
1.773766e+002, 2.988101e+002
1.778588e+002, 3.029508e+002
1.783409e+002, 3.085782e+002
1.788230e+002, 3.157152e+002
1.793051e+002, 3.233031e+002
1.797872e+002, 3.307438e+002
1.802693e+002, 3.392108e+002
1.807515e+002, 3.491473e+002
1.812336e+002, 3.604515e+002
1.817157e+002, 3.727376e+002
1.821978e+002, 3.857745e+002
1.826799e+002, 3.996486e+002
1.831620e+002, 4.134105e+002
1.836441e+002, 4.282217e+002
1.841263e+002, 4.419665e+002
1.846084e+002, 4.544293e+002
1.850905e+002, 4.651395e+002
1.855726e+002, 4.727992e+002
1.860547e+002, 4.762450e+002
1.865368e+002, 4.749093e+002
1.870190e+002, 4.697312e+002
1.875011e+002, 4.596172e+002
1.879832e+002, 4.467339e+002
1.884653e+002, 4.316127e+002
1.889474e+002, 4.145501e+002
1.894296e+002, 3.976393e+002
1.899117e+002, 3.827526e+002
1.903938e+002, 3.700072e+002
1.908759e+002, 3.587352e+002
1.913580e+002, 3.490930e+002
1.918401e+002, 3.408656e+002
1.923223e+002, 3.339066e+002
1.928044e+002, 3.282635e+002
1.932865e+002, 3.235117e+002
1.937686e+002, 3.192757e+002
1.942507e+002, 3.155564e+002
1.947328e+002, 3.128222e+002
1.952150e+002, 3.113427e+002
1.956971e+002, 3.109152e+002
1.961792e+002, 3.112648e+002
1.966613e+002, 3.126214e+002
1.971434e+002, 3.142310e+002
1.976255e+002, 3.151810e+002
1.981077e+002, 3.158514e+002
1.985898e+002, 3.172956e+002
1.990719e+002, 3.204052e+002
1.995540e+002, 3.248331e+002
2.000361e+002, 3.289816e+002
2.005182e+002, 3.323374e+002
2.010004e+002, 3.361532e+002
2.014825e+002, 3.409113e+002
2.019646e+002, 3.465440e+002
2.024467e+002, 3.528116e+002
2.029288e+002, 3.595386e+002
2.034109e+002, 3.667455e+002
2.038930e+002, 3.745834e+002
2.043752e+002, 3.827851e+002
2.048573e+002, 3.920201e+002
2.053394e+002, 4.027611e+002
2.058215e+002, 4.146831e+002
2.063036e+002, 4.271331e+002
2.067857e+002, 4.395666e+002
2.072679e+002, 4.519763e+002
2.077500e+002, 4.645314e+002
2.082321e+002, 4.785822e+002
2.087142e+002, 4.915391e+002
2.091963e+002, 5.032778e+002
2.096784e+002, 5.132557e+002
2.101606e+002, 5.205389e+002
2.106427e+002, 5.242722e+002
2.111248e+002, 5.243307e+002
2.116069e+002, 5.215763e+002
2.120890e+002, 5.155453e+002
2.125711e+002, 5.075014e+002
2.130533e+002, 4.971044e+002
2.135354e+002, 4.849212e+002
2.140175e+002, 4.720819e+002
2.144996e+002, 4.595387e+002
2.149817e+002, 4.472170e+002
2.154638e+002, 4.357547e+002
2.159460e+002, 4.249790e+002
2.164281e+002, 4.149538e+002
2.169102e+002, 4.054481e+002
2.173923e+002, 3.966199e+002
2.178744e+002, 3.889603e+002
2.183565e+002, 3.831360e+002
2.188387e+002, 3.794442e+002
2.193208e+002, 3.751571e+002
2.198029e+002, 3.695771e+002
2.202850e+002, 3.640207e+002
2.207671e+002, 3.591540e+002
2.212492e+002, 3.550441e+002
2.217314e+002, 3.515524e+002
2.222135e+002, 3.485630e+002
2.226956e+002, 3.461578e+002
2.231777e+002, 3.443624e+002
2.236598e+002, 3.435768e+002
2.241419e+002, 3.430932e+002
2.246240e+002, 3.424227e+002
2.251062e+002, 3.415351e+002
2.255883e+002, 3.406349e+002
2.260704e+002, 3.399906e+002
2.265525e+002, 3.395094e+002
2.270346e+002, 3.385587e+002
2.275167e+002, 3.370082e+002
2.279989e+002, 3.350306e+002
2.284810e+002, 3.330166e+002
2.289631e+002, 3.310168e+002
2.294452e+002, 3.281434e+002
2.299273e+002, 3.235479e+002
2.304094e+002, 3.175319e+002
2.308916e+002, 3.109230e+002
2.313737e+002, 3.034301e+002
2.318558e+002, 2.956470e+002
2.323379e+002, 2.882693e+002
2.328200e+002, 2.813497e+002
2.333021e+002, 2.744746e+002
2.337843e+002, 2.672567e+002
2.342664e+002, 2.599078e+002
2.347485e+002, 2.527343e+002
2.352306e+002, 2.457369e+002
2.357127e+002, 2.390141e+002
2.361948e+002, 2.325830e+002
2.366770e+002, 2.263337e+002
2.371591e+002, 2.206992e+002
2.376412e+002, 2.163242e+002
2.381233e+002, 2.125370e+002
2.386054e+002, 2.085507e+002
2.390875e+002, 2.039424e+002
2.395697e+002, 1.992943e+002
2.400518e+002, 1.956762e+002
2.405339e+002, 1.933839e+002
2.410160e+002, 1.911348e+002
2.414981e+002, 1.881867e+002
2.419802e+002, 1.851343e+002
2.424624e+002, 1.825968e+002
2.429445e+002, 1.808501e+002
2.434266e+002, 1.795194e+002
2.439087e+002, 1.779454e+002
2.443908e+002, 1.759911e+002
2.448729e+002, 1.741756e+002
2.453550e+002, 1.726145e+002
2.458372e+002, 1.712546e+002
2.463193e+002, 1.700921e+002
2.468014e+002, 1.691298e+002
2.472835e+002, 1.682930e+002
2.477656e+002, 1.674063e+002
2.482477e+002, 1.663492e+002
2.487299e+002, 1.655560e+002
2.492120e+002, 1.653510e+002
2.496941e+002, 1.652604e+002
2.501762e+002, 1.649327e+002
2.506583e+002, 1.642589e+002
2.511404e+002, 1.633614e+002
2.516226e+002, 1.623317e+002
2.521047e+002, 1.608111e+002
2.525868e+002, 1.600411e+002
2.530689e+002, 1.605887e+002
2.535510e+002, 1.614944e+002
2.540331e+002, 1.621171e+002
2.545153e+002, 1.622848e+002
2.549974e+002, 1.622144e+002
2.554795e+002, 1.622114e+002
2.559616e+002, 1.622406e+002
2.564437e+002, 1.624335e+002
2.569258e+002, 1.627952e+002
2.574080e+002, 1.632811e+002
2.578901e+002, 1.638813e+002
2.583722e+002, 1.645851e+002
2.588543e+002, 1.653694e+002
2.593364e+002, 1.661945e+002
2.598185e+002, 1.670156e+002
2.603007e+002, 1.680113e+002
2.607828e+002, 1.692976e+002
2.612649e+002, 1.706385e+002
2.617470e+002, 1.718960e+002
2.622291e+002, 1.730556e+002
2.627112e+002, 1.741540e+002
2.631934e+002, 1.752111e+002
2.636755e+002, 1.761265e+002
2.641576e+002, 1.774046e+002
2.646397e+002, 1.793882e+002
2.651218e+002, 1.813693e+002
2.656039e+002, 1.828971e+002
2.660861e+002, 1.839963e+002
2.665682e+002, 1.850617e+002
2.670503e+002, 1.865709e+002
2.675324e+002, 1.887536e+002
2.680145e+002, 1.897347e+002
2.684966e+002, 1.893583e+002
2.689788e+002, 1.882113e+002
2.694609e+002, 1.863587e+002
2.699430e+002, 1.839404e+002
2.704251e+002, 1.812495e+002
2.709072e+002, 1.785093e+002
2.713893e+002, 1.757398e+002
2.718715e+002, 1.727991e+002
2.723536e+002, 1.693643e+002
2.728357e+002, 1.661149e+002
2.733178e+002, 1.631615e+002
2.737999e+002, 1.606125e+002
2.742820e+002, 1.587838e+002
2.747642e+002, 1.579998e+002
2.752463e+002, 1.581354e+002
2.757284e+002, 1.576438e+002
2.762105e+002, 1.560911e+002
2.766926e+002, 1.545422e+002
2.771747e+002, 1.530850e+002
2.776568e+002, 1.518890e+002
2.781389e+002, 1.514094e+002
2.786211e+002, 1.520105e+002
2.791032e+002, 1.533432e+002
2.795853e+002, 1.538754e+002
2.800674e+002, 1.528716e+002
2.805495e+002, 1.521045e+002
2.810316e+002, 1.518801e+002
2.815138e+002, 1.522037e+002
2.819959e+002, 1.532693e+002
2.824780e+002, 1.552776e+002
2.829601e+002, 1.576966e+002
2.834422e+002, 1.590180e+002
2.839243e+002, 1.585357e+002
2.844065e+002, 1.584807e+002
2.848886e+002, 1.595352e+002
2.853707e+002, 1.612269e+002
2.858528e+002, 1.628793e+002
2.863349e+002, 1.642729e+002
2.868170e+002, 1.655711e+002
2.872992e+002, 1.670305e+002
2.877813e+002, 1.685795e+002
2.882634e+002, 1.704711e+002
2.887455e+002, 1.729618e+002
2.892276e+002, 1.757234e+002
2.897097e+002, 1.783306e+002
2.901919e+002, 1.806836e+002
2.906740e+002, 1.829651e+002
2.911561e+002, 1.853762e+002
2.916382e+002, 1.878908e+002
2.921203e+002, 1.907373e+002
2.926024e+002, 1.941067e+002
2.930846e+002, 1.977249e+002
2.935667e+002, 2.014294e+002
2.940488e+002, 2.052039e+002
2.945309e+002, 2.088053e+002
2.950130e+002, 2.119944e+002
2.954951e+002, 2.147470e+002
2.959773e+002, 2.173943e+002
2.964594e+002, 2.202079e+002
2.969415e+002, 2.227293e+002
2.974236e+002, 2.247075e+002
2.979057e+002, 2.260996e+002
2.983878e+002, 2.267911e+002
2.988700e+002, 2.266754e+002
2.993521e+002, 2.256914e+002
2.998342e+002, 2.241188e+002
3.003163e+002, 2.219418e+002
3.007984e+002, 2.192269e+002
3.012805e+002, 2.159267e+002
3.017627e+002, 2.120829e+002
3.022448e+002, 2.077973e+002
3.027269e+002, 2.029819e+002
3.032090e+002, 1.978251e+002
3.036911e+002, 1.928399e+002
3.041732e+002, 1.877414e+002
3.046554e+002, 1.831865e+002
3.051375e+002, 1.797705e+002
3.056196e+002, 1.771410e+002
3.061017e+002, 1.743675e+002
3.065838e+002, 1.710669e+002
3.070659e+002, 1.675340e+002
3.075481e+002, 1.643284e+002
3.080302e+002, 1.614071e+002
3.085123e+002, 1.587935e+002
3.089944e+002, 1.565401e+002
3.094765e+002, 1.545946e+002
3.099586e+002, 1.529400e+002
3.104408e+002, 1.516092e+002
3.109229e+002, 1.504331e+002
3.114050e+002, 1.491937e+002
3.118871e+002, 1.478748e+002
3.123692e+002, 1.466891e+002
3.128513e+002, 1.456405e+002
3.133335e+002, 1.447648e+002
3.138156e+002, 1.441404e+002
3.142977e+002, 1.437867e+002
3.147798e+002, 1.435255e+002
3.152619e+002, 1.431568e+002
3.157440e+002, 1.427058e+002
3.162262e+002, 1.424921e+002
3.167083e+002, 1.428330e+002
3.171904e+002, 1.432142e+002
3.176725e+002, 1.431936e+002
3.181546e+002, 1.427733e+002
3.186367e+002, 1.421998e+002
3.191188e+002, 1.415010e+002
3.196010e+002, 1.408113e+002
3.200831e+002, 1.406175e+002
3.205652e+002, 1.413255e+002
3.210473e+002, 1.421078e+002
3.215294e+002, 1.423406e+002
3.220115e+002, 1.422249e+002
3.224937e+002, 1.425972e+002
3.229758e+002, 1.440697e+002
3.234579e+002, 1.459932e+002
3.239400e+002, 1.465748e+002
3.244221e+002, 1.451186e+002
3.249042e+002, 1.440792e+002
3.253864e+002, 1.446709e+002
3.258685e+002, 1.462183e+002
3.263506e+002, 1.474414e+002
3.268327e+002, 1.479149e+002
3.273148e+002, 1.480549e+002
3.277969e+002, 1.485046e+002
3.282791e+002, 1.493073e+002
3.287612e+002, 1.500836e+002
3.292433e+002, 1.508084e+002
3.297254e+002, 1.514494e+002
3.302075e+002, 1.518527e+002
3.306896e+002, 1.519915e+002
3.311718e+002, 1.522837e+002
3.316539e+002, 1.532383e+002
3.321360e+002, 1.549195e+002
3.326181e+002, 1.563196e+002
3.331002e+002, 1.571821e+002
3.335823e+002, 1.579162e+002
3.340645e+002, 1.588491e+002
3.345466e+002, 1.599614e+002
3.350287e+002, 1.610311e+002
3.355108e+002, 1.619142e+002
3.359929e+002, 1.626102e+002
3.364750e+002, 1.631675e+002
3.369572e+002, 1.638978e+002
3.374393e+002, 1.641973e+002
3.379214e+002, 1.636330e+002
3.384035e+002, 1.624375e+002
3.388856e+002, 1.611487e+002
3.393677e+002, 1.600029e+002
3.398499e+002, 1.589470e+002
3.403320e+002, 1.578732e+002
3.408141e+002, 1.570313e+002
3.412962e+002, 1.557489e+002
3.417783e+002, 1.537054e+002
3.422604e+002, 1.512180e+002
3.427426e+002, 1.486718e+002
3.432247e+002, 1.461868e+002
3.437068e+002, 1.436993e+002
3.441889e+002, 1.411012e+002
3.446710e+002, 1.382743e+002
3.451531e+002, 1.357327e+002
3.456353e+002, 1.337045e+002
3.461174e+002, 1.318278e+002
3.465995e+002, 1.297687e+002
3.470816e+002, 1.275461e+002
3.475637e+002, 1.254411e+002
3.480458e+002, 1.237453e+002
3.485280e+002, 1.224772e+002
3.490101e+002, 1.212011e+002
3.494922e+002, 1.198308e+002
3.499743e+002, 1.185400e+002
3.504564e+002, 1.174421e+002
3.509385e+002, 1.164941e+002
3.514207e+002, 1.155777e+002
3.519028e+002, 1.146259e+002
3.523849e+002, 1.136648e+002
3.528670e+002, 1.128004e+002
3.533491e+002, 1.120479e+002
3.538312e+002, 1.113746e+002
3.543134e+002, 1.107896e+002
3.547955e+002, 1.102783e+002
3.552776e+002, 1.098209e+002
3.557597e+002, 1.094116e+002
3.562418e+002, 1.090574e+002
3.567239e+002, 1.087634e+002
3.572061e+002, 1.085105e+002
3.576882e+002, 1.083759e+002
3.581703e+002, 1.085095e+002
3.586524e+002, 1.086378e+002
3.591345e+002, 1.085832e+002
3.596166e+002, 1.083279e+002
3.600987e+002, 1.079343e+002
3.605808e+002, 1.074272e+002
3.610630e+002, 1.067663e+002
3.615451e+002, 1.063896e+002
3.620272e+002, 1.064350e+002
3.625093e+002, 1.065993e+002
3.629914e+002, 1.068924e+002
3.634735e+002, 1.072236e+002
3.639557e+002, 1.074095e+002
3.644378e+002, 1.073173e+002
3.649199e+002, 1.070625e+002
3.654020e+002, 1.071456e+002
3.658841e+002, 1.078278e+002
3.663662e+002, 1.085148e+002
3.668484e+002, 1.090750e+002
3.673305e+002, 1.096348e+002
3.678126e+002, 1.103707e+002
3.682947e+002, 1.113218e+002
3.687768e+002, 1.123070e+002
3.692589e+002, 1.130569e+002
3.697411e+002, 1.135445e+002
3.702232e+002, 1.138496e+002
3.707053e+002, 1.136808e+002
3.711874e+002, 1.135877e+002
3.716695e+002, 1.139557e+002
3.721516e+002, 1.147175e+002
3.726338e+002, 1.155002e+002
3.731159e+002, 1.160435e+002
3.735980e+002, 1.163419e+002
3.740801e+002, 1.161929e+002
3.745622e+002, 1.153144e+002
3.750443e+002, 1.142947e+002
3.755265e+002, 1.133070e+002
3.760086e+002, 1.123211e+002
3.764907e+002, 1.112920e+002
3.769728e+002, 1.101942e+002
3.774549e+002, 1.090317e+002
3.779370e+002, 1.077769e+002
3.784192e+002, 1.063580e+002
3.789013e+002, 1.050550e+002
3.793834e+002, 1.040414e+002
3.798655e+002, 1.031126e+002
3.803476e+002, 1.020898e+002
3.808297e+002, 1.009393e+002
3.813119e+002, 9.982188e+001
3.817940e+002, 9.891767e+001
3.822761e+002, 9.822139e+001
3.827582e+002, 9.754790e+001
3.832403e+002, 9.679404e+001
3.837224e+002, 9.616885e+001
3.842046e+002, 9.580554e+001
3.846867e+002, 9.567198e+001
3.851688e+002, 9.563946e+001
3.856509e+002, 9.589045e+001
3.861330e+002, 9.615331e+001
3.866151e+002, 9.561301e+001
3.870973e+002, 9.397276e+001
3.875794e+002, 9.260586e+001
3.880615e+002, 9.254774e+001
3.885436e+002, 9.319477e+001
3.890257e+002, 9.375553e+001
3.895078e+002, 9.410127e+001
3.899900e+002, 9.429626e+001
3.904721e+002, 9.439429e+001
3.909542e+002, 9.439213e+001
3.914363e+002, 9.422684e+001
3.919184e+002, 9.375471e+001
3.924005e+002, 9.326587e+001
3.928827e+002, 9.320626e+001
3.933648e+002, 9.360362e+001
3.938469e+002, 9.395879e+001
3.943290e+002, 9.392006e+001
3.948111e+002, 9.376923e+001
3.952932e+002, 9.405876e+001
3.957754e+002, 9.491467e+001
3.962575e+002, 9.571909e+001
3.967396e+002, 9.583321e+001
3.972217e+002, 9.532994e+001
3.977038e+002, 9.517043e+001
3.981859e+002, 9.569596e+001
3.986681e+002, 9.631272e+001
3.991501e+002, 9.664880e+001
3.996323e+002, 9.674590e+001
4.001144e+002, 9.676160e+001
4.005965e+002, 9.673817e+001
4.010786e+002, 9.674207e+001
4.015607e+002, 9.700431e+001
4.020428e+002, 9.780692e+001
4.025250e+002, 9.833604e+001
4.030071e+002, 9.817628e+001
4.034892e+002, 9.779498e+001
4.039713e+002, 9.776048e+001
4.044534e+002, 9.819123e+001
4.049355e+002, 9.877671e+001
4.054177e+002, 9.916430e+001
4.058998e+002, 9.931755e+001
4.063819e+002, 9.941532e+001
4.068640e+002, 9.948830e+001
4.073461e+002, 9.948576e+001
4.078282e+002, 9.928568e+001
4.083104e+002, 9.898543e+001
4.087925e+002, 9.880821e+001
4.092746e+002, 9.889420e+001
4.097567e+002, 9.920885e+001
4.102388e+002, 9.958929e+001
4.107209e+002, 9.996778e+001
4.112031e+002, 1.005167e+002
4.116852e+002, 1.013282e+002
4.121673e+002, 1.022691e+002
4.126494e+002, 1.032810e+002
4.131315e+002, 1.043213e+002
4.136136e+002, 1.052586e+002
4.140958e+002, 1.057539e+002
4.145779e+002, 1.054569e+002
4.150600e+002, 1.061503e+002
4.155421e+002, 1.091197e+002
