##NAMES=Fluorapophyllite-(K)
##RRUFFID=R040095
##IDEAL CHEMISTRY=KCa_4_Si_8_O_20_F&#183;8H_2_O
##LOCALITY=unknown
##OWNER=RRUFF
##SOURCE=University of Arizona Mineral Museum
##DESCRIPTION=Colorless crystals
##STATUS=The identification of this mineral has been confirmed by X-ray diffraction and chemical analysis
##URL=rruff.info/R040095
##MEASURED CHEMISTRY=(K_0.90_Na_0.04_)Ca_3.96_Si_8.00_O_20_(F_0.82_(OH)_0.18_)·8H_2_O
123.4933, 2840.314
123.9754, 2963.877
124.4575, 3086.019
124.9396, 3224.730
125.4217, 3377.752
125.9038, 3530.456
126.3860, 3645.206
126.8681, 3699.496
127.3502, 3729.016
127.8323, 3766.150
128.3144, 3810.647
128.7965, 3862.960
129.2787, 3922.903
129.7608, 3988.067
130.2429, 4054.385
130.7250, 4122.311
131.2071, 4198.161
131.6892, 4299.499
132.1714, 4417.640
132.6535, 4494.316
133.1356, 4517.525
133.6177, 4510.231
134.0998, 4516.328
134.5819, 4534.882
135.0640, 4564.531
135.5462, 4601.751
136.0283, 4645.391
136.5104, 4709.917
136.9925, 4810.715
137.4746, 4936.612
137.9567, 5015.439
138.4389, 5052.224
138.9210, 5040.284
139.4031, 4968.311
139.8852, 4827.797
140.3673, 4661.959
140.8494, 4469.202
141.3316, 4238.625
141.8137, 4061.324
142.2958, 3943.893
142.7779, 3868.619
143.2600, 3807.019
143.7421, 3769.252
144.2243, 3729.364
144.7064, 3677.319
145.1885, 3602.573
145.6706, 3535.739
146.1527, 3475.322
146.6348, 3422.374
147.1170, 3380.956
147.5991, 3359.218
148.0812, 3341.468
148.5633, 3319.048
149.0454, 3273.927
149.5275, 3245.595
150.0097, 3248.062
150.4918, 3280.968
150.9739, 3292.150
151.4560, 3263.579
151.9381, 3222.011
152.4202, 3188.185
152.9024, 3152.490
153.3845, 3135.094
153.8666, 3147.851
154.3487, 3200.420
154.8308, 3236.907
155.3129, 3235.425
155.7950, 3217.290
156.2772, 3210.872
156.7593, 3221.124
157.2414, 3244.546
157.7235, 3283.136
158.2056, 3347.399
158.6877, 3403.034
159.1699, 3434.015
159.6520, 3449.245
160.1341, 3469.526
160.6162, 3505.618
161.0983, 3546.788
161.5804, 3586.491
162.0626, 3621.800
162.5447, 3656.811
163.0268, 3694.451
163.5089, 3733.894
163.9910, 3770.494
164.4731, 3816.043
164.9553, 3852.447
165.4374, 3862.205
165.9195, 3828.082
166.4016, 3774.319
166.8837, 3708.911
167.3658, 3631.942
167.8480, 3557.194
168.3301, 3494.176
168.8122, 3438.530
169.2943, 3383.744
169.7764, 3315.322
170.2585, 3252.716
170.7407, 3219.031
171.2228, 3220.286
171.7049, 3222.468
172.1870, 3192.828
172.6691, 3141.947
173.1512, 3096.916
173.6334, 3075.141
174.1155, 3065.969
174.5976, 3056.425
175.0797, 3044.940
175.5618, 3032.168
176.0439, 3017.895
176.5260, 3002.530
177.0082, 2988.313
177.4903, 2978.851
177.9724, 2971.284
178.4545, 2959.384
178.9366, 2938.092
179.4187, 2915.983
179.9009, 2906.714
180.3830, 2909.744
180.8651, 2916.823
181.3472, 2919.455
181.8293, 2920.360
182.3114, 2928.219
182.7936, 2950.043
183.2757, 2978.758
183.7578, 3001.221
184.2399, 3017.108
184.7220, 3027.721
185.2041, 3027.615
185.6863, 3019.844
186.1684, 3022.699
186.6505, 3047.612
187.1326, 3089.406
187.6147, 3131.272
188.0968, 3173.962
188.5790, 3214.650
189.0611, 3247.749
189.5432, 3273.504
190.0253, 3302.350
190.5074, 3341.614
190.9895, 3389.412
191.4717, 3436.089
191.9538, 3482.078
192.4359, 3526.356
192.9180, 3562.729
193.4001, 3590.510
193.8822, 3627.834
194.3644, 3694.639
194.8465, 3789.538
195.3286, 3864.320
195.8107, 3908.171
196.2928, 3934.343
196.7749, 3976.101
197.2570, 4034.167
197.7392, 4102.294
198.2213, 4175.879
198.7034, 4255.219
199.1855, 4340.766
199.6676, 4436.993
200.1497, 4539.069
200.6319, 4624.004
201.1140, 4687.785
201.5961, 4746.098
202.0782, 4811.988
202.5603, 4886.262
203.0424, 4964.187
203.5246, 5049.443
204.0067, 5139.955
204.4888, 5203.579
204.9709, 5234.285
205.4530, 5250.128
205.9352, 5271.090
206.4173, 5298.728
206.8994, 5326.118
207.3815, 5354.977
207.8636, 5386.471
208.3457, 5397.367
208.8279, 5390.209
209.3100, 5359.365
209.7921, 5292.286
210.2742, 5179.832
210.7563, 5056.792
211.2384, 4937.813
211.7206, 4823.601
212.2027, 4700.031
212.6848, 4560.212
213.1669, 4416.049
213.6490, 4294.390
214.1311, 4201.370
214.6133, 4114.635
215.0954, 4020.603
215.5775, 3911.380
216.0596, 3828.800
216.5417, 3779.920
217.0238, 3755.112
217.5059, 3728.745
217.9881, 3699.850
218.4702, 3671.132
218.9523, 3642.419
219.4344, 3610.648
219.9165, 3588.165
220.3986, 3575.939
220.8808, 3573.393
221.3629, 3578.751
221.8450, 3595.591
222.3271, 3615.108
222.8092, 3632.591
223.2913, 3648.005
223.7735, 3660.883
224.2556, 3669.817
224.7377, 3675.703
225.2198, 3684.534
225.7019, 3697.532
226.1840, 3711.710
226.6662, 3724.918
227.1483, 3735.938
227.6304, 3748.794
228.1125, 3769.429
228.5946, 3796.022
229.0767, 3798.302
229.5589, 3763.292
230.0410, 3718.135
230.5231, 3687.513
231.0052, 3686.064
231.4873, 3671.354
231.9694, 3631.759
232.4516, 3566.646
232.9337, 3511.424
233.4158, 3472.457
233.8979, 3437.420
234.3800, 3392.755
234.8621, 3327.417
235.3443, 3272.826
235.8264, 3237.948
236.3085, 3224.957
236.7906, 3208.649
237.2727, 3185.721
237.7548, 3162.266
238.2369, 3146.377
238.7191, 3146.298
239.2012, 3139.528
239.6833, 3116.012
240.1654, 3069.408
240.6475, 3045.002
241.1296, 3054.687
241.6118, 3078.079
242.0939, 3086.462
242.5760, 3072.236
243.0581, 3055.702
243.5402, 3042.539
244.0223, 3034.015
244.5045, 3023.344
244.9866, 3007.668
245.4687, 2991.656
245.9508, 2982.677
246.4329, 2981.428
246.9150, 2986.260
247.3972, 2998.438
247.8793, 3021.668
248.3614, 3038.794
248.8435, 3049.222
249.3256, 3053.872
249.8077, 3053.627
250.2899, 3045.087
250.7720, 3037.303
251.2541, 3033.551
251.7362, 3034.735
252.2183, 3036.856
252.7004, 3038.303
253.1826, 3041.329
253.6647, 3050.809
254.1468, 3067.913
254.6289, 3089.459
255.1110, 3115.923
255.5931, 3152.607
256.0753, 3179.299
256.5574, 3192.662
257.0395, 3197.916
257.5216, 3209.151
258.0037, 3234.363
258.4858, 3251.007
258.9680, 3243.767
259.4501, 3195.152
259.9322, 3175.518
260.4143, 3196.318
260.8964, 3242.192
261.3785, 3272.151
261.8607, 3280.628
262.3428, 3285.180
262.8249, 3294.121
263.3070, 3308.361
263.7891, 3324.644
264.2712, 3344.807
264.7534, 3365.988
265.2355, 3378.828
265.7176, 3380.987
266.1997, 3380.515
266.6818, 3381.103
267.1639, 3382.545
267.6461, 3385.702
268.1282, 3390.191
268.6103, 3396.520
269.0924, 3408.592
269.5745, 3430.549
270.0566, 3446.815
270.5387, 3447.296
271.0208, 3429.083
271.5030, 3408.170
271.9851, 3382.470
272.4672, 3356.555
272.9493, 3344.841
273.4314, 3350.566
273.9135, 3359.486
274.3957, 3363.075
274.8778, 3360.622
275.3599, 3359.216
275.8420, 3360.401
276.3241, 3362.320
276.8062, 3358.692
277.2884, 3348.049
277.7705, 3338.694
278.2526, 3336.664
278.7347, 3342.411
279.2168, 3346.578
279.6989, 3346.386
280.1811, 3346.009
280.6632, 3359.190
281.1453, 3388.364
281.6274, 3414.365
282.1095, 3418.538
282.5916, 3401.388
283.0738, 3402.611
283.5559, 3430.033
284.0380, 3473.054
284.5201, 3507.150
285.0022, 3531.796
285.4843, 3557.066
285.9665, 3588.640
286.4486, 3626.365
286.9307, 3670.554
287.4128, 3723.908
287.8949, 3778.970
288.3770, 3818.479
288.8592, 3842.848
289.3413, 3864.654
289.8234, 3894.171
290.3055, 3929.110
290.7876, 3953.527
291.2697, 3960.736
291.7519, 3967.108
292.2340, 4006.104
292.7161, 4075.388
293.1982, 4143.767
293.6803, 4188.687
294.1624, 4217.469
294.6446, 4255.115
295.1267, 4309.087
295.6088, 4361.854
296.0909, 4384.616
296.5730, 4380.661
297.0551, 4372.793
297.5373, 4381.171
298.0194, 4394.542
298.5015, 4385.409
298.9836, 4345.184
299.4657, 4298.490
299.9478, 4278.143
300.4300, 4278.307
300.9121, 4278.558
301.3942, 4266.115
301.8763, 4246.687
302.3584, 4228.533
302.8405, 4212.063
303.3227, 4198.577
303.8048, 4188.552
304.2869, 4182.424
304.7690, 4180.725
305.2511, 4181.659
305.7332, 4188.205
306.2154, 4206.531
306.6975, 4239.663
307.1796, 4272.518
307.6617, 4291.745
308.1438, 4301.184
308.6259, 4309.452
309.1081, 4317.684
309.5901, 4328.041
310.0723, 4343.953
310.5544, 4366.814
311.0365, 4388.051
311.5186, 4402.451
312.0007, 4411.781
312.4828, 4418.996
312.9650, 4423.307
313.4471, 4427.550
313.9292, 4433.208
314.4113, 4440.399
314.8934, 4449.419
315.3755, 4460.800
315.8577, 4474.121
316.3398, 4488.467
316.8219, 4498.690
317.3040, 4514.071
317.7861, 4545.206
318.2682, 4594.955
318.7504, 4629.426
319.2325, 4621.638
319.7146, 4598.921
320.1967, 4590.848
320.6788, 4625.622
321.1609, 4655.916
321.6431, 4665.309
322.1252, 4652.355
322.6073, 4637.958
323.0894, 4625.254
323.5715, 4613.162
324.0536, 4600.701
324.5358, 4587.197
325.0179, 4573.970
325.5000, 4562.532
325.9821, 4552.960
326.4642, 4539.122
326.9464, 4516.564
327.4285, 4492.056
327.9106, 4470.068
328.3927, 4446.813
328.8748, 4431.248
329.3569, 4428.596
329.8391, 4436.965
330.3212, 4437.961
330.8033, 4426.278
331.2854, 4412.439
331.7675, 4402.435
332.2496, 4394.297
332.7318, 4394.334
333.2139, 4408.235
333.6960, 4431.120
334.1781, 4441.532
334.6602, 4433.687
335.1423, 4422.515
335.6245, 4415.739
336.1066, 4414.217
336.5887, 4414.725
337.0708, 4418.329
337.5529, 4423.047
338.0350, 4425.162
338.5172, 4426.615
338.9993, 4419.330
339.4814, 4395.659
339.9635, 4353.117
340.4456, 4318.021
340.9277, 4294.287
341.4099, 4273.123
341.8920, 4234.942
342.3741, 4178.028
342.8562, 4123.286
343.3383, 4081.126
343.8204, 4050.882
344.3026, 4024.974
344.7847, 4005.334
345.2668, 3984.950
345.7489, 3951.528
346.2310, 3906.274
346.7131, 3865.730
347.1953, 3838.092
347.6774, 3820.316
348.1595, 3805.973
348.6416, 3795.840
349.1237, 3783.891
349.6058, 3758.546
350.0880, 3725.636
350.5700, 3702.764
351.0522, 3705.103
351.5343, 3716.921
352.0164, 3712.652
352.4985, 3692.931
352.9806, 3672.743
353.4627, 3668.068
353.9449, 3670.125
354.4270, 3663.801
354.9091, 3635.343
355.3912, 3606.317
355.8733, 3599.872
356.3554, 3612.325
356.8376, 3623.369
357.3197, 3616.799
357.8018, 3604.615
358.2839, 3599.150
358.7660, 3608.219
359.2481, 3616.485
359.7303, 3610.838
360.2124, 3597.193
360.6945, 3592.097
361.1766, 3617.756
361.6587, 3644.127
362.1408, 3650.760
362.6230, 3625.664
363.1051, 3602.138
363.5872, 3584.507
364.0693, 3575.388
364.5514, 3579.652
365.0335, 3609.344
365.5157, 3642.973
365.9978, 3675.112
366.4799, 3708.593
366.9620, 3729.422
367.4441, 3724.603
367.9262, 3709.763
368.4084, 3704.268
368.8905, 3707.498
369.3726, 3720.940
369.8547, 3751.761
370.3368, 3804.004
370.8189, 3830.646
371.3011, 3815.672
371.7832, 3788.635
372.2653, 3777.112
372.7474, 3793.614
373.2295, 3799.235
373.7116, 3784.727
374.1938, 3753.354
374.6759, 3729.428
375.1580, 3715.934
375.6401, 3704.650
376.1222, 3688.989
376.6043, 3668.128
377.0865, 3650.666
377.5686, 3637.716
378.0507, 3628.856
378.5328, 3625.925
379.0149, 3604.866
379.4970, 3638.437
379.9792, 3659.178
380.4613, 3667.779
380.9434, 3627.880
381.4255, 3650.609
381.9076, 3648.239
382.3897, 3644.840
382.8719, 3676.384
383.3540, 3643.540
383.8361, 3674.529
384.3182, 3680.037
384.8003, 3697.207
385.2824, 3689.123
385.7646, 3688.841
386.2467, 3696.025
386.7288, 3692.414
387.2109, 3690.521
387.6930, 3693.423
388.1751, 3701.031
388.6573, 3714.181
389.1394, 3732.702
389.6215, 3753.487
390.1036, 3779.062
390.5857, 3804.002
391.0678, 3822.302
391.5499, 3826.354
392.0320, 3830.881
392.5142, 3844.850
392.9963, 3865.800
393.4784, 3885.799
393.9605, 3901.691
394.4426, 3915.592
394.9247, 3928.586
395.4069, 3940.386
395.8890, 3952.293
396.3711, 3966.686
396.8532, 3981.052
397.3353, 3990.736
397.8174, 3985.489
398.2996, 3984.417
398.7817, 3998.491
399.2638, 4038.108
399.7459, 4051.752
400.2280, 4012.507
400.7101, 3963.175
401.1923, 3950.466
401.6744, 4001.951
402.1565, 4041.921
402.6386, 4054.604
403.1207, 4041.771
403.6028, 4029.037
404.0850, 4014.698
404.5671, 4003.542
405.0492, 4000.210
405.5313, 4006.329
406.0134, 4010.768
406.4955, 4010.893
406.9777, 4009.632
407.4598, 4017.049
407.9419, 4034.585
408.4240, 4048.036
408.9061, 4045.455
409.3882, 4029.963
409.8704, 4019.906
410.3525, 4015.927
410.8346, 4019.118
411.3167, 4032.917
411.7988, 4056.088
412.2809, 4081.661
412.7631, 4105.773
413.2452, 4131.083
413.7273, 4163.193
414.2094, 4202.273
414.6915, 4240.993
415.1736, 4268.690
415.6558, 4293.050
416.1379, 4324.886
416.6200, 4371.436
417.1021, 4423.114
417.5842, 4468.193
418.0663, 4511.171
418.5485, 4570.463
419.0306, 4670.560
419.5127, 4780.982
419.9948, 4880.969
420.4769, 4959.031
420.9590, 5037.882
421.4412, 5123.439
421.9233, 5214.223
422.4054, 5309.516
422.8875, 5408.095
423.3696, 5511.271
423.8517, 5620.865
424.3339, 5738.060
424.8160, 5850.888
425.2981, 5952.778
425.7802, 6053.029
426.2623, 6162.786
426.7444, 6291.532
427.2266, 6411.907
427.7087, 6519.815
428.1908, 6615.475
428.6729, 6712.370
429.1550, 6814.956
429.6371, 6909.186
430.1193, 6994.459
430.6014, 7077.021
431.0835, 7098.630
431.5656, 7048.394
432.0477, 6943.809
432.5298, 6815.079
433.0119, 6662.029
433.4940, 6485.327
433.9762, 6267.250
434.4583, 6023.295
434.9404, 5812.228
435.4225, 5636.607
435.9046, 5479.168
436.3867, 5325.841
436.8689, 5177.865
437.3510, 5039.720
437.8331, 4909.028
438.3152, 4792.396
438.7973, 4701.460
439.2794, 4633.576
439.7616, 4572.241
440.2437, 4505.661
440.7258, 4442.258
441.2079, 4391.763
441.6900, 4362.149
442.1721, 4332.573
442.6543, 4287.074
443.1364, 4235.247
443.6185, 4195.692
444.1006, 4188.061
444.5827, 4182.212
445.0648, 4164.991
445.5470, 4132.866
446.0291, 4104.051
446.5112, 4080.282
446.9933, 4060.923
447.4754, 4044.839
447.9576, 4030.052
448.4397, 4021.858
448.9218, 4023.521
449.4039, 4033.016
449.8860, 4038.668
450.3681, 4039.993
450.8503, 4038.107
451.3324, 4006.091
451.8145, 4036.886
452.2966, 4054.851
452.7787, 4060.676
453.2608, 4018.002
453.7430, 4037.955
454.2251, 4032.810
454.7072, 4026.635
455.1893, 4055.403
455.6714, 4019.782
456.1535, 4047.996
456.6357, 4050.728
457.1178, 4065.123
457.5999, 4054.263
458.0820, 4051.204
458.5641, 4073.406
459.0462, 4081.622
459.5284, 4067.856
460.0105, 4082.991
460.4926, 4046.489
460.9747, 4056.515
461.4568, 4061.153
461.9389, 4070.089
462.4211, 4079.705
462.9032, 4089.586
463.3853, 4099.664
463.8674, 4114.263
464.3495, 4127.470
464.8316, 4132.081
465.3138, 4110.047
465.7959, 4096.204
466.2780, 4104.690
466.7601, 4134.751
467.2422, 4154.575
467.7243, 4156.030
468.2065, 4154.162
468.6886, 4156.648
469.1707, 4163.023
469.6528, 4174.425
470.1349, 4187.948
470.6170, 4208.599
471.0992, 4251.215
471.5813, 4324.138
472.0634, 4388.070
472.5455, 4423.377
473.0276, 4434.325
473.5097, 4463.472
473.9918, 4512.336
474.4739, 4572.395
474.9561, 4642.243
475.4382, 4718.600
475.9203, 4782.047
476.4024, 4823.484
476.8845, 4858.398
477.3666, 4911.050
477.8488, 4977.643
478.3309, 5041.990
478.8130, 5085.563
479.2951, 5126.689
479.7772, 5187.524
480.2593, 5272.914
480.7415, 5359.398
481.2236, 5437.827
481.7057, 5508.008
482.1878, 5569.709
482.6699, 5623.726
483.1520, 5668.379
483.6342, 5710.031
484.1163, 5745.551
484.5984, 5751.412
485.0805, 5705.599
485.5626, 5643.652
486.0447, 5582.600
486.5269, 5528.293
487.0090, 5462.115
487.4911, 5379.174
487.9732, 5288.448
488.4553, 5200.707
488.9374, 5114.456
489.4196, 5038.436
489.9017, 4976.646
490.3838, 4928.068
490.8659, 4882.335
491.3480, 4840.605
491.8301, 4797.106
492.3123, 4742.262
492.7944, 4679.786
493.2765, 4627.306
493.7586, 4587.835
494.2407, 4558.989
494.7228, 4542.312
495.2050, 4534.991
495.6871, 4527.801
496.1692, 4510.313
496.6513, 4494.248
497.1334, 4494.676
497.6155, 4511.673
498.0977, 4527.248
498.5798, 4526.834
499.0619, 4521.786
499.5440, 4523.600
500.0261, 4549.176
500.5082, 4562.606
500.9904, 4540.068
501.4725, 4497.680
501.9546, 4474.694
502.4367, 4498.519
502.9188, 4521.583
503.4009, 4528.253
503.8831, 4514.962
504.3652, 4507.299
504.8473, 4509.932
505.3294, 4512.452
505.8115, 4504.024
506.2936, 4481.261
506.7758, 4460.934
507.2579, 4445.188
507.7400, 4433.391
508.2221, 4424.209
508.7042, 4417.713
509.1863, 4413.566
509.6685, 4413.891
510.1506, 4416.674
510.6327, 4415.675
511.1148, 4410.847
511.5969, 4402.677
512.0790, 4382.386
512.5612, 4360.540
513.0433, 4357.704
513.5254, 4393.869
514.0075, 4433.565
514.4896, 4449.272
514.9717, 4446.590
515.4539, 4443.090
515.9360, 4441.098
516.4181, 4444.015
516.9002, 4455.589
517.3823, 4478.735
517.8644, 4497.645
518.3466, 4506.165
518.8287, 4510.875
519.3108, 4517.915
519.7929, 4526.598
520.2750, 4538.869
520.7571, 4556.739
521.2393, 4578.154
521.7214, 4595.554
522.2035, 4606.892
522.6856, 4620.292
523.1677, 4640.718
523.6498, 4667.991
524.1320, 4693.162
524.6141, 4715.938
525.0962, 4738.437
525.5783, 4763.521
526.0604, 4790.672
526.5425, 4818.619
527.0247, 4848.795
527.5068, 4876.057
527.9889, 4886.522
528.4710, 4886.261
528.9531, 4897.361
529.4352, 4946.426
529.9174, 5002.262
530.3995, 5037.750
530.8816, 5047.255
531.3637, 5059.063
531.8458, 5084.733
532.3279, 5117.699
532.8101, 5151.512
533.2922, 5192.872
533.7743, 5226.154
534.2564, 5247.435
534.7385, 5259.191
535.2206, 5269.187
535.7027, 5276.728
536.1848, 5283.190
536.6669, 5287.844
537.1490, 5290.130
537.6312, 5301.016
538.1133, 5324.461
538.5954, 5345.445
539.0775, 5343.713
539.5596, 5321.764
540.0417, 5312.807
540.5239, 5328.630
541.0060, 5349.139
541.4881, 5337.001
541.9702, 5299.908
542.4523, 5268.745
542.9344, 5268.094
543.4166, 5276.696
543.8987, 5271.798
544.3808, 5252.751
544.8629, 5233.592
545.3450, 5226.492
545.8271, 5220.410
546.3093, 5205.141
546.7914, 5169.017
547.2735, 5138.776
547.7556, 5120.598
548.2377, 5111.974
548.7198, 5108.010
549.2020, 5114.009
549.6841, 5116.885
550.1662, 5110.944
550.6483, 5096.850
551.1304, 5092.879
551.6125, 5101.163
552.0947, 5113.996
552.5768, 5127.418
553.0589, 5141.286
553.5410, 5150.958
554.0231, 5155.410
554.5052, 5157.148
554.9874, 5156.378
555.4695, 5155.007
555.9516, 5160.836
556.4337, 5184.087
556.9158, 5210.217
557.3979, 5219.630
557.8801, 5215.829
558.3622, 5216.379
558.8443, 5232.938
559.3264, 5256.437
559.8085, 5281.562
560.2906, 5309.471
560.7728, 5332.762
561.2549, 5339.955
561.7370, 5345.924
562.2191, 5367.401
562.7012, 5417.774
563.1833, 5465.690
563.6655, 5506.392
564.1476, 5542.358
564.6297, 5581.691
565.1118, 5624.949
565.5939, 5668.633
566.0760, 5708.953
566.5582, 5746.226
567.0403, 5796.111
567.5224, 5858.924
568.0045, 5929.011
568.4866, 6000.386
568.9688, 6074.044
569.4509, 6152.426
569.9330, 6234.193
570.4151, 6321.651
570.8972, 6420.890
571.3793, 6526.828
571.8615, 6625.823
572.3436, 6702.332
572.8257, 6779.910
573.3078, 6871.461
573.7899, 6977.938
574.2720, 7087.371
574.7542, 7199.242
575.2363, 7313.536
575.7184, 7432.363
576.2005, 7569.877
576.6826, 7680.431
577.1647, 7751.032
577.6469, 7807.027
578.1290, 7882.034
578.6111, 7981.538
579.0932, 8071.908
579.5753, 8145.849
580.0574, 8205.118
580.5396, 8253.688
581.0217, 8292.016
581.5038, 8319.538
581.9859, 8337.860
582.4680, 8344.398
582.9501, 8334.501
583.4323, 8307.793
583.9144, 8265.939
584.3965, 8213.789
584.8786, 8145.405
585.3607, 8052.574
585.8428, 7923.501
586.3250, 7788.289
586.8071, 7660.602
587.2892, 7532.960
587.7713, 7391.548
588.2534, 7216.817
588.7355, 7048.651
589.2177, 6893.824
589.6998, 6753.056
590.1819, 6620.610
590.6640, 6498.676
591.1461, 6379.944
591.6282, 6255.833
592.1104, 6126.462
592.5925, 6020.853
593.0746, 5943.176
593.5567, 5872.815
594.0388, 5784.427
594.5209, 5684.223
595.0031, 5590.593
595.4852, 5507.790
595.9673, 5436.486
596.4494, 5384.724
596.9315, 5345.672
597.4136, 5302.369
597.8958, 5236.891
598.3779, 5174.557
598.8600, 5131.000
599.3421, 5107.456
599.8242, 5081.117
600.3063, 5051.267
600.7885, 5014.932
601.2706, 4969.667
601.7527, 4906.011
602.2348, 4856.550
602.7169, 4825.180
603.1990, 4803.522
603.6812, 4780.714
604.1633, 4756.647
604.6454, 4734.642
605.1275, 4716.008
605.6096, 4699.292
606.0917, 4681.443
606.5739, 4662.715
607.0560, 4644.070
607.5381, 4623.544
608.0202, 4604.944
608.5023, 4596.612
608.9844, 4598.434
609.4666, 4593.246
609.9487, 4562.972
610.4308, 4528.049
610.9129, 4504.923
611.3950, 4504.155
611.8771, 4500.363
612.3593, 4484.920
612.8414, 4467.616
613.3235, 4462.149
613.8056, 4477.831
614.2877, 4483.508
614.7698, 4470.294
615.2520, 4444.726
615.7341, 4428.474
616.2162, 4421.820
616.6983, 4419.260
617.1804, 4419.091
617.6625, 4420.534
618.1446, 4422.574
618.6267, 4425.054
619.1088, 4425.082
619.5909, 4414.883
