##NAMES=Fluorapophyllite-(K)
##RRUFFID=R040095
##IDEAL CHEMISTRY=KCa_4_Si_8_O_20_F&#183;8H_2_O
##LOCALITY=unknown
##OWNER=RRUFF
##SOURCE=University of Arizona Mineral Museum
##DESCRIPTION=Colorless crystals
##STATUS=The identification of this mineral has been confirmed by X-ray diffraction and chemical analysis
##URL=rruff.info/R040095
##MEASURED CHEMISTRY=(K_0.90_Na_0.04_)Ca_3.96_Si_8.00_O_20_(F_0.82_(OH)_0.18_)·8H_2_O
125.0042, 547.3543
125.4863, 546.2025
125.9684, 556.0610
126.4506, 581.9113
126.9327, 614.8935
127.4148, 656.6993
127.8969, 704.5703
128.3790, 754.0918
128.8611, 801.2257
129.3432, 845.7473
129.8254, 900.9787
130.3075, 976.5922
130.7896, 1052.449
131.2717, 1122.556
131.7538, 1186.853
132.2359, 1248.750
132.7181, 1311.693
133.2002, 1377.510
133.6823, 1426.567
134.1644, 1449.226
134.6465, 1466.964
135.1286, 1486.621
135.6108, 1510.468
136.0929, 1542.598
136.5750, 1588.718
137.0571, 1653.061
137.5392, 1707.134
138.0213, 1762.138
138.5035, 1800.348
138.9856, 1809.210
139.4677, 1787.262
139.9498, 1739.523
140.4319, 1665.768
140.9140, 1554.549
141.3962, 1467.743
141.8783, 1406.690
142.3604, 1370.836
142.8425, 1364.999
143.3246, 1390.436
143.8067, 1430.745
144.2889, 1467.155
144.7710, 1497.993
145.2531, 1536.575
145.7352, 1586.741
146.2173, 1622.982
146.6994, 1632.762
147.1816, 1631.444
147.6637, 1626.477
148.1458, 1625.863
148.6279, 1628.957
149.1100, 1635.529
149.5921, 1652.125
150.0743, 1670.765
150.5564, 1676.543
151.0385, 1664.272
151.5206, 1643.754
152.0027, 1624.720
152.4848, 1606.087
152.9670, 1592.309
153.4491, 1586.459
153.9312, 1586.236
154.4133, 1584.531
154.8954, 1574.976
155.3775, 1571.234
155.8597, 1589.085
156.3418, 1627.563
156.8239, 1676.442
157.3060, 1731.383
157.7881, 1792.313
158.2702, 1860.335
158.7524, 1933.148
159.2345, 2015.870
159.7166, 2110.812
160.1987, 2217.648
160.6808, 2335.226
161.1629, 2468.676
161.6451, 2614.385
162.1272, 2755.470
162.6093, 2891.143
163.0914, 3017.120
163.5735, 3136.226
164.0556, 3249.452
164.5378, 3343.171
165.0199, 3420.761
165.5020, 3480.418
165.9841, 3478.434
166.4662, 3386.528
166.9483, 3243.069
167.4305, 3077.117
167.9126, 2890.338
168.3947, 2696.969
168.8768, 2501.757
169.3589, 2304.381
169.8410, 2129.220
170.3232, 1988.175
170.8053, 1867.487
171.2874, 1755.610
171.7695, 1651.503
172.2516, 1558.395
172.7337, 1480.334
173.2159, 1417.423
173.6980, 1362.524
174.1801, 1312.682
174.6622, 1271.623
175.1443, 1248.600
175.6264, 1244.651
176.1086, 1237.027
176.5907, 1195.315
177.0728, 1114.082
177.5549, 1049.332
178.0370, 1024.235
178.5191, 1012.710
179.0013, 1000.699
179.4834, 985.9428
179.9655, 971.4227
180.4476, 960.5822
180.9297, 953.8940
181.4118, 947.4915
181.8940, 937.3215
182.3761, 929.5898
182.8582, 930.0317
183.3403, 939.2048
183.8224, 949.4850
184.3046, 950.4597
184.7867, 939.5275
185.2688, 935.3422
185.7509, 945.8264
186.2330, 960.9577
186.7151, 975.6374
187.1973, 989.1188
187.6794, 1003.895
188.1615, 1024.748
188.6436, 1053.634
189.1257, 1077.015
189.6078, 1080.595
190.0900, 1086.799
190.5721, 1108.308
191.0542, 1146.635
191.5363, 1193.997
192.0184, 1244.988
192.5005, 1301.333
192.9827, 1350.992
193.4648, 1388.497
193.9469, 1422.008
194.4290, 1452.637
194.9111, 1481.656
195.3932, 1514.278
195.8754, 1558.034
196.3575, 1615.668
196.8396, 1669.377
197.3217, 1713.552
197.8038, 1756.438
198.2859, 1801.417
198.7681, 1849.279
199.2502, 1899.021
199.7323, 1949.612
200.2144, 2000.415
200.6965, 2055.169
201.1786, 2124.134
201.6608, 2189.188
202.1429, 2239.952
202.6250, 2277.101
203.1071, 2308.824
203.5892, 2340.895
204.0713, 2372.722
204.5535, 2410.665
205.0356, 2465.219
205.5177, 2517.323
205.9998, 2559.399
206.4819, 2591.374
206.9640, 2616.198
207.4462, 2640.127
207.9283, 2664.568
208.4104, 2667.621
208.8925, 2641.855
209.3746, 2598.709
209.8567, 2541.248
210.3388, 2470.493
210.8210, 2387.952
211.3031, 2292.572
211.7852, 2184.510
212.2673, 2076.355
212.7494, 1964.694
213.2315, 1858.010
213.7137, 1757.822
214.1958, 1665.687
214.6779, 1583.270
215.1600, 1514.289
215.6421, 1457.979
216.1242, 1404.283
216.6064, 1352.511
217.0885, 1305.180
217.5706, 1258.349
218.0527, 1216.093
218.5348, 1187.071
219.0169, 1181.546
219.4991, 1193.999
219.9812, 1193.987
220.4633, 1168.984
220.9454, 1149.861
221.4275, 1148.731
221.9096, 1160.503
222.3918, 1176.797
222.8739, 1194.211
223.3560, 1212.476
223.8381, 1230.517
224.3202, 1247.862
224.8023, 1265.992
225.2845, 1287.593
225.7666, 1309.719
226.2487, 1328.086
226.7308, 1339.729
227.2129, 1347.595
227.6950, 1360.444
228.1772, 1384.567
228.6593, 1397.727
229.1414, 1390.681
229.6235, 1369.969
230.1056, 1340.324
230.5877, 1301.743
231.0699, 1259.027
231.5520, 1221.197
232.0341, 1191.494
232.5162, 1155.154
232.9983, 1099.030
233.4804, 1037.700
233.9626, 982.8314
234.4447, 937.7250
234.9268, 898.9772
235.4089, 861.5372
235.8910, 824.6619
236.3731, 794.7219
236.8553, 782.4061
237.3374, 772.3411
237.8195, 750.0514
238.3016, 712.3250
238.7837, 672.7460
239.2658, 644.0778
239.7480, 626.1088
240.2301, 610.6953
240.7122, 596.3131
241.1943, 583.6985
241.6764, 574.4069
242.1585, 568.5826
242.6407, 561.4902
243.1228, 548.4152
243.6049, 530.5064
244.0870, 514.2529
244.5691, 499.4606
245.0512, 488.8066
245.5334, 484.6532
246.0155, 486.6411
246.4976, 490.9782
246.9797, 499.5234
247.4618, 509.0069
247.9439, 509.3170
248.4261, 495.9250
248.9082, 480.1137
249.3903, 469.5762
249.8724, 464.0930
250.3545, 465.2056
250.8366, 480.0086
251.3188, 499.6895
251.8009, 508.5853
252.2830, 503.5806
252.7651, 497.6165
253.2472, 502.3601
253.7293, 514.6942
254.2115, 524.4133
254.6936, 528.9158
255.1757, 530.4526
255.6578, 529.3073
256.1399, 525.5222
256.6220, 525.5279
257.1042, 535.0005
257.5863, 551.8282
258.0684, 566.1949
258.5505, 577.0480
259.0326, 585.9793
259.5147, 593.6985
259.9969, 600.3211
260.4790, 605.9257
260.9611, 609.6826
261.4432, 613.1733
261.9253, 621.2398
262.4074, 635.7750
262.8896, 651.4758
263.3717, 668.0522
263.8538, 684.3453
264.3359, 698.1678
264.8180, 708.8423
265.3001, 716.1439
265.7823, 718.3563
266.2644, 711.5368
266.7465, 708.6190
267.2286, 715.1136
267.7107, 725.7559
268.1928, 734.3304
268.6750, 739.0844
269.1571, 740.8900
269.6392, 741.0825
270.1213, 740.3221
270.6034, 735.3809
271.0855, 724.9196
271.5677, 711.1013
272.0498, 693.0554
272.5319, 671.8837
273.0140, 653.7576
273.4961, 646.4650
273.9782, 653.7877
274.4604, 651.5715
274.9425, 630.7362
275.4246, 610.1132
275.9067, 599.1604
276.3888, 597.0925
276.8709, 598.5070
277.3531, 599.2540
277.8352, 599.4138
278.3173, 602.7566
278.7994, 617.2690
279.2815, 626.2689
279.7636, 621.0284
280.2458, 608.2479
280.7279, 599.1105
281.2100, 599.9966
281.6921, 608.3139
282.1742, 614.1342
282.6563, 613.0563
283.1385, 615.9404
283.6206, 626.4963
284.1027, 640.2363
284.5848, 652.3177
285.0669, 660.9817
285.5490, 669.0510
286.0312, 682.1182
286.5133, 703.4421
286.9954, 721.0865
287.4775, 726.3053
287.9596, 733.0255
288.4417, 749.2462
288.9239, 776.4566
289.4060, 812.3959
289.8881, 859.0506
290.3702, 917.9884
290.8523, 966.1202
291.3344, 992.7848
291.8166, 1016.826
292.2987, 1048.723
292.7808, 1086.591
293.2629, 1122.800
293.7450, 1152.225
294.2271, 1175.569
294.7093, 1195.526
295.1914, 1209.294
295.6735, 1225.122
296.1556, 1253.119
296.6377, 1285.690
297.1198, 1309.081
297.6020, 1317.604
298.0841, 1315.200
298.5662, 1304.884
299.0483, 1285.480
299.5304, 1267.813
300.0125, 1258.175
300.4947, 1252.921
300.9768, 1246.222
301.4589, 1236.809
301.9410, 1227.512
302.4231, 1218.785
302.9052, 1211.402
303.3874, 1209.160
303.8695, 1214.157
304.3516, 1223.764
304.8337, 1234.268
305.3158, 1245.938
305.7979, 1257.106
306.2801, 1267.184
306.7622, 1276.552
307.2443, 1284.853
307.7264, 1291.772
308.2085, 1300.798
308.6906, 1316.877
309.1728, 1342.046
309.6549, 1361.592
310.1370, 1371.016
310.6191, 1377.917
311.1012, 1388.338
311.5833, 1401.855
312.0655, 1413.797
312.5476, 1420.327
313.0297, 1421.743
313.5118, 1424.789
313.9939, 1428.287
314.4760, 1434.352
314.9582, 1443.340
315.4403, 1455.380
315.9224, 1471.699
316.4045, 1493.171
316.8866, 1516.738
317.3687, 1534.128
317.8509, 1540.043
318.3330, 1546.864
318.8151, 1558.138
319.2972, 1568.697
319.7793, 1573.404
320.2614, 1571.449
320.7436, 1566.804
321.2257, 1565.469
321.7078, 1569.823
322.1899, 1568.458
322.6720, 1559.782
323.1541, 1546.589
323.6363, 1529.233
324.1184, 1508.176
324.6005, 1483.947
325.0826, 1454.778
325.5647, 1422.306
326.0468, 1399.019
326.5290, 1390.761
327.0111, 1381.895
327.4932, 1362.670
327.9753, 1339.764
328.4574, 1323.061
328.9395, 1317.460
329.4217, 1317.232
329.9038, 1314.360
330.3859, 1308.534
330.8680, 1303.998
331.3501, 1302.441
331.8322, 1302.947
332.3144, 1304.047
332.7965, 1305.442
333.2786, 1308.552
333.7607, 1312.422
334.2428, 1318.581
334.7249, 1334.306
335.2070, 1364.919
335.6891, 1394.077
336.1713, 1399.898
336.6534, 1383.437
337.1355, 1367.825
337.6176, 1358.800
338.0997, 1351.168
338.5818, 1342.091
339.0640, 1330.712
339.5461, 1313.198
340.0282, 1286.175
340.5103, 1250.206
340.9924, 1212.864
341.4745, 1172.002
341.9567, 1132.407
342.4388, 1095.690
342.9209, 1061.346
343.4030, 1028.135
343.8851, 995.5564
344.3672, 963.9457
344.8494, 934.1990
345.3315, 910.1198
345.8136, 882.1580
346.2957, 843.1603
346.7778, 805.3286
347.2599, 778.2210
347.7421, 762.4869
348.2242, 752.1721
348.7063, 741.1492
349.1884, 729.0454
349.6705, 719.9301
350.1526, 717.1758
350.6348, 714.0847
351.1169, 708.5748
351.5990, 701.1382
352.0811, 692.8588
352.5632, 684.0575
353.0453, 675.1142
353.5275, 667.8845
354.0096, 664.0517
354.4917, 656.4754
354.9738, 638.3149
355.4559, 617.2479
355.9380, 599.4047
356.4202, 585.6522
356.9023, 575.8751
357.3844, 572.6663
357.8665, 574.2876
358.3486, 571.1122
358.8307, 559.0671
359.3129, 545.7040
359.7950, 538.8009
360.2771, 537.6852
360.7592, 539.3759
361.2413, 545.2464
361.7234, 552.2801
362.2056, 557.4864
362.6877, 560.7255
363.1698, 563.1181
363.6519, 565.9819
364.1340, 568.5838
364.6161, 566.0745
365.0983, 546.2760
365.5804, 536.0186
366.0625, 549.9612
366.5446, 576.9811
367.0267, 600.8917
367.5089, 615.8301
367.9910, 624.4444
368.4731, 630.8532
368.9552, 632.1904
369.4373, 637.4992
369.9194, 651.0779
370.4016, 664.5394
370.8837, 672.5486
371.3658, 675.3440
371.8479, 676.6149
372.3300, 679.6271
372.8121, 684.0180
373.2943, 685.4802
373.7764, 683.4622
374.2585, 678.9644
374.7406, 670.4988
375.2227, 660.7095
375.7048, 652.9451
376.1870, 648.6210
376.6691, 645.9761
377.1512, 642.7264
377.6333, 638.8192
378.1154, 635.3514
378.5975, 633.5159
379.0797, 631.2323
379.5618, 625.4108
380.0439, 616.1133
380.5260, 609.5707
381.0081, 607.6347
381.4902, 610.5723
381.9724, 621.0598
382.4545, 639.9631
382.9366, 657.1656
383.4187, 663.4055
383.9008, 660.7031
384.3829, 665.8369
384.8651, 681.7366
385.3472, 702.1672
385.8293, 726.2631
386.3114, 752.7148
386.7935, 779.1454
387.2756, 804.6669
387.7578, 829.2040
388.2399, 852.5717
388.7220, 873.5341
389.2041, 895.3997
389.6862, 916.2511
390.1683, 939.3428
390.6505, 969.0975
391.1326, 1003.917
391.6147, 1037.055
392.0968, 1061.479
392.5789, 1078.614
393.0610, 1106.840
393.5432, 1160.167
394.0253, 1203.977
394.5074, 1224.864
394.9895, 1233.360
395.4716, 1241.368
395.9537, 1252.650
396.4359, 1265.485
396.9180, 1278.655
397.4001, 1292.162
397.8822, 1302.589
398.3643, 1308.311
398.8464, 1311.697
399.3286, 1316.957
399.8107, 1323.401
400.2928, 1323.259
400.7749, 1308.691
401.2570, 1288.500
401.7391, 1275.200
402.2213, 1268.947
402.7034, 1259.967
403.1855, 1241.111
403.6676, 1214.998
404.1497, 1194.172
404.6318, 1185.166
405.1140, 1172.504
405.5961, 1149.475
406.0782, 1121.619
406.5603, 1094.012
407.0424, 1068.662
407.5245, 1049.200
408.0067, 1042.841
408.4888, 1056.653
408.9709, 1054.593
409.4530, 1017.545
409.9351, 984.9547
410.4172, 977.6691
410.8994, 987.0023
411.3815, 992.6420
411.8636, 982.0424
412.3457, 962.7297
412.8278, 952.4612
413.3099, 951.5580
413.7921, 958.9326
414.2742, 982.2681
414.7563, 1009.007
415.2384, 1030.158
415.7205, 1044.570
416.2026, 1057.626
416.6848, 1068.385
417.1669, 1080.774
417.6490, 1105.349
418.1311, 1144.260
418.6132, 1190.889
419.0953, 1241.622
419.5775, 1296.612
420.0596, 1354.636
420.5417, 1414.598
421.0238, 1479.039
421.5059, 1543.050
421.9880, 1613.227
422.4702, 1706.216
422.9523, 1828.003
423.4344, 1964.301
423.9165, 2090.475
424.3986, 2199.654
424.8807, 2314.260
425.3629, 2432.889
425.8450, 2557.379
426.3271, 2693.655
426.8092, 2837.075
427.2913, 2976.831
427.7734, 3106.883
428.2556, 3227.349
428.7377, 3342.791
429.2198, 3461.126
429.7019, 3556.075
430.1840, 3633.856
430.6661, 3678.116
431.1483, 3673.454
431.6304, 3617.155
432.1125, 3517.937
432.5946, 3371.927
433.0767, 3187.795
433.5588, 2986.428
434.0410, 2763.022
434.5231, 2546.699
435.0052, 2362.985
435.4873, 2206.674
435.9694, 2051.162
436.4515, 1883.000
436.9337, 1727.432
437.4158, 1598.917
437.8979, 1492.248
438.3800, 1399.429
438.8621, 1316.853
439.3442, 1244.991
439.8264, 1185.033
440.3085, 1141.847
440.7906, 1096.814
441.2727, 1043.183
441.7548, 994.0739
442.2369, 958.2140
442.7191, 932.2740
443.2012, 907.3070
443.6833, 877.7538
444.1654, 846.1779
444.6475, 819.5415
445.1296, 797.8864
445.6118, 781.0951
446.0939, 775.2700
446.5760, 770.2859
447.0581, 756.7908
447.5402, 734.3810
448.0223, 714.5343
448.5045, 706.0886
448.9866, 704.2494
449.4687, 699.4283
449.9508, 690.7681
450.4329, 681.8992
450.9150, 674.0868
451.3972, 668.2653
451.8793, 667.6547
452.3614, 677.0548
452.8435, 685.1620
453.3256, 685.6799
453.8077, 684.2725
454.2899, 690.1907
454.7720, 704.8660
455.2541, 719.0344
455.7362, 720.8669
456.2183, 707.9576
456.7004, 703.1736
457.1826, 711.0111
457.6647, 722.7279
458.1468, 742.7872
458.6289, 763.3015
459.1110, 771.3583
459.5931, 760.7026
460.0753, 744.3609
460.5574, 741.5925
461.0395, 752.6296
461.5216, 761.4729
462.0037, 765.8119
462.4858, 766.6304
462.9680, 761.7095
463.4501, 752.9165
463.9322, 750.4662
464.4143, 761.5388
464.8964, 776.7639
465.3785, 788.7913
465.8607, 797.8391
466.3428, 804.9474
466.8249, 810.0255
467.3070, 815.1694
467.7891, 824.5338
468.2712, 837.0732
468.7534, 856.8146
469.2355, 888.5172
469.7176, 923.2318
470.1997, 952.2871
470.6818, 978.6100
471.1639, 1013.493
471.6461, 1065.172
472.1282, 1130.071
472.6103, 1194.416
473.0924, 1256.295
473.5745, 1324.069
474.0566, 1398.012
474.5388, 1480.543
475.0209, 1574.457
475.5030, 1680.245
475.9851, 1793.271
476.4672, 1906.993
476.9493, 2027.596
477.4315, 2169.348
477.9136, 2333.117
478.3957, 2499.068
478.8778, 2653.347
479.3599, 2799.439
479.8420, 2950.557
480.3242, 3108.645
480.8063, 3267.973
481.2884, 3440.526
481.7705, 3605.010
482.2526, 3742.343
482.7347, 3847.902
483.2169, 3926.755
483.6990, 3986.950
484.1811, 4026.741
484.6632, 4006.297
485.1453, 3904.496
485.6274, 3771.563
486.1096, 3614.507
486.5917, 3441.607
487.0738, 3259.141
487.5559, 3069.021
488.0380, 2876.035
488.5201, 2676.265
489.0023, 2477.813
489.4844, 2311.368
489.9665, 2183.461
490.4486, 2070.939
490.9307, 1956.152
491.4128, 1842.312
491.8950, 1742.539
492.3771, 1661.160
492.8592, 1588.702
493.3413, 1520.515
493.8234, 1459.345
494.3055, 1410.050
494.7877, 1373.053
495.2698, 1341.551
495.7519, 1307.403
496.2340, 1269.610
496.7161, 1240.123
497.1982, 1221.916
497.6804, 1209.071
498.1625, 1201.238
498.6446, 1197.155
499.1267, 1197.550
499.6088, 1203.372
500.0909, 1205.301
500.5730, 1190.666
501.0551, 1163.238
501.5373, 1139.480
502.0194, 1120.556
502.5015, 1109.712
502.9836, 1115.762
503.4657, 1133.974
503.9478, 1135.438
504.4300, 1103.177
504.9121, 1072.352
505.3942, 1057.447
505.8763, 1052.352
506.3584, 1048.544
506.8405, 1043.638
507.3227, 1039.091
507.8048, 1036.192
508.2869, 1034.675
508.7690, 1038.432
509.2511, 1057.208
509.7332, 1069.220
510.2154, 1063.439
510.6975, 1049.683
511.1796, 1040.062
511.6617, 1038.027
512.1439, 1040.368
512.6260, 1045.504
513.1081, 1052.665
513.5902, 1057.858
514.0723, 1059.564
514.5544, 1064.117
515.0366, 1078.396
515.5187, 1100.433
516.0008, 1115.831
516.4829, 1117.171
516.9650, 1120.716
517.4471, 1132.480
517.9293, 1149.011
518.4114, 1166.428
518.8935, 1183.697
519.3756, 1200.537
519.8577, 1215.630
520.3398, 1228.969
520.8220, 1251.919
521.3041, 1290.413
521.7862, 1329.579
522.2683, 1363.061
522.7504, 1395.891
523.2325, 1434.897
523.7147, 1481.957
524.1968, 1528.405
524.6789, 1565.058
525.1610, 1597.109
525.6431, 1637.800
526.1252, 1688.885
526.6074, 1740.162
527.0895, 1782.997
527.5716, 1820.631
528.0537, 1868.462
528.5358, 1940.319
529.0179, 2002.259
529.5001, 2037.490
529.9822, 2068.624
530.4643, 2115.749
530.9464, 2180.977
531.4285, 2257.300
531.9106, 2344.082
532.3928, 2435.158
532.8749, 2495.249
533.3570, 2509.806
533.8391, 2534.297
534.3212, 2601.411
534.8033, 2675.518
535.2855, 2720.769
535.7676, 2734.579
536.2497, 2747.690
536.7318, 2778.241
537.2139, 2812.449
537.6960, 2835.136
538.1782, 2845.929
538.6603, 2848.360
539.1424, 2843.937
539.6245, 2833.321
540.1066, 2817.677
540.5887, 2794.554
541.0709, 2770.768
541.5530, 2745.631
542.0351, 2720.682
542.5172, 2697.782
542.9993, 2675.622
543.4814, 2650.341
543.9636, 2618.997
544.4457, 2585.653
544.9278, 2560.969
545.4099, 2544.736
545.8920, 2512.085
546.3741, 2449.158
546.8563, 2382.672
547.3384, 2339.661
547.8205, 2318.058
548.3026, 2303.717
548.7847, 2302.479
549.2668, 2300.578
549.7490, 2291.738
550.2311, 2277.025
550.7132, 2256.388
551.1953, 2230.517
551.6774, 2205.771
552.1595, 2190.476
552.6417, 2185.132
553.1238, 2183.427
553.6059, 2186.390
554.0880, 2191.839
554.5701, 2202.895
555.0522, 2214.046
555.5344, 2216.310
556.0165, 2205.992
556.4986, 2198.590
556.9807, 2207.547
557.4628, 2226.172
557.9449, 2241.185
558.4271, 2251.340
558.9092, 2263.226
559.3913, 2282.055
559.8734, 2305.573
560.3555, 2324.296
560.8376, 2327.692
561.3198, 2340.531
561.8019, 2368.569
562.2840, 2402.358
562.7661, 2433.390
563.2482, 2463.254
563.7303, 2499.775
564.2125, 2549.022
564.6946, 2606.848
565.1767, 2663.809
565.6588, 2719.549
566.1409, 2778.534
566.6230, 2840.815
567.1052, 2908.471
567.5873, 2981.531
568.0694, 3059.594
568.5515, 3155.770
569.0336, 3288.079
569.5157, 3421.708
569.9979, 3529.738
570.4800, 3626.923
570.9621, 3742.332
571.4442, 3884.526
571.9263, 4039.197
572.4084, 4186.307
572.8906, 4323.466
573.3727, 4477.401
573.8548, 4654.560
574.3369, 4836.913
574.8190, 5018.402
575.3011, 5198.927
575.7833, 5380.122
576.2654, 5560.990
576.7475, 5744.276
577.2296, 5944.062
577.7117, 6141.312
578.1938, 6302.642
578.6760, 6429.677
579.1581, 6555.261
579.6402, 6702.353
580.1223, 6857.004
580.6044, 6976.665
581.0865, 7058.841
581.5686, 7108.919
582.0507, 7121.979
582.5328, 7111.968
583.0150, 7090.125
583.4971, 7051.889
583.9792, 6984.599
584.4613, 6882.189
584.9434, 6747.598
585.4255, 6578.898
585.9077, 6379.376
586.3898, 6165.101
586.8719, 5938.548
587.3540, 5706.768
587.8361, 5477.931
588.3182, 5252.393
588.8004, 5020.083
589.2825, 4775.040
589.7646, 4532.530
590.2467, 4286.041
590.7288, 4050.257
591.2109, 3841.041
591.6931, 3659.627
592.1752, 3491.678
592.6573, 3326.955
593.1394, 3165.780
593.6215, 3004.918
594.1036, 2841.705
594.5858, 2691.621
595.0679, 2559.453
595.5500, 2442.608
596.0321, 2340.867
596.5142, 2255.213
596.9963, 2165.032
597.4785, 2054.278
597.9606, 1951.432
598.4427, 1877.123
598.9248, 1821.904
599.4069, 1769.519
599.8890, 1713.583
600.3712, 1653.278
600.8533, 1583.326
601.3354, 1503.087
601.8175, 1440.926
602.2996, 1403.909
602.7817, 1371.097
603.2639, 1331.959
603.7460, 1291.581
604.2281, 1257.628
604.7102, 1232.159
605.1923, 1206.719
605.6744, 1178.931
606.1566, 1149.097
606.6387, 1114.110
607.1208, 1076.703
607.6029, 1048.069
608.0850, 1034.783
608.5671, 1028.067
609.0493, 1007.412
609.5314, 966.4167
610.0135, 935.5760
610.4956, 925.7947
610.9777, 915.3561
611.4598, 890.5347
611.9420, 858.1523
612.4241, 830.9387
612.9062, 810.6857
613.3883, 799.1612
613.8704, 806.7559
614.3525, 820.1160
614.8347, 814.1897
615.3168, 788.1498
615.7989, 763.3921
616.2810, 755.5455
616.7631, 759.6726
617.2452, 757.6302
617.7274, 746.8218
618.2095, 735.2501
618.6916, 720.8685
619.1737, 708.4383
619.6558, 700.3502
620.1379, 696.4489
620.6201, 696.1864
621.1022, 701.9032
