##NAMES=Fluor-uvite
##RRUFFID=R050172
##IDEAL CHEMISTRY=CaMg_3_(Al_5_Mg)(Si_6_O_18_)(BO_3_)_3_(OH)_3_F
##LOCALITY=Pierrepont, New York, USA
##OWNER=RRUFF
##SOURCE=Marcus Origlieri
##DESCRIPTION=Black prismatic crystal
##STATUS=The identification of this mineral has been confirmed by X-ray diffraction and chemical analysis
##URL=rruff.info/R050172
##MEASURED CHEMISTRY=(Ca_0.64_Na_0.36_)(Mg_0.56_Fe^2+^_0.34_Al_0.08_Ti_0.02_)_3_(Mg_1.00_Al_5.00_)(BO_3_)_3_Si_6.00_O_18_((OH)_3.45_F_0.55_)
93.46680, 207.6663
93.94891, 207.3597
94.43103, 207.6694
94.91315, 206.8048
95.39526, 205.0947
95.87738, 203.2665
96.35950, 201.6133
96.84161, 199.6563
97.32373, 197.3155
97.80585, 194.6774
98.28796, 191.8851
98.77008, 188.8792
99.25220, 186.0435
99.73431, 183.9935
100.2164, 183.0602
100.6985, 181.5704
101.1807, 179.5695
101.6628, 177.3589
102.1449, 175.0976
102.6270, 172.7755
103.1091, 170.4413
103.5912, 168.6328
104.0734, 167.7111
104.5555, 166.9423
105.0376, 166.2140
105.5197, 165.5140
106.0018, 164.8777
106.4839, 164.3393
106.9661, 163.9019
107.4482, 163.4600
107.9303, 162.9129
108.4124, 162.3859
108.8945, 161.9637
109.3766, 161.6527
109.8588, 161.3794
110.3409, 161.0336
110.8230, 160.5820
111.3051, 160.2853
111.7872, 160.2590
112.2693, 160.3862
112.7515, 160.5200
113.2336, 160.6637
113.7157, 160.7147
114.1978, 160.5001
114.6799, 160.0232
115.1620, 159.5937
115.6442, 159.3714
116.1263, 159.3535
116.6084, 159.5297
117.0905, 160.1238
117.5726, 160.7616
118.0547, 161.1914
118.5369, 161.3641
119.0190, 161.4106
119.5011, 161.4914
119.9832, 161.5852
120.4653, 161.7703
120.9474, 162.0515
121.4296, 162.4099
121.9117, 162.8996
122.3938, 163.5451
122.8759, 164.2197
123.3580, 164.5128
123.8401, 163.8572
124.3223, 163.3853
124.8044, 163.1881
125.2865, 163.2402
125.7686, 163.5383
126.2507, 164.1195
126.7328, 164.9408
127.2150, 165.3816
127.6971, 165.2828
128.1792, 165.0666
128.6613, 164.8633
129.1434, 164.6873
129.6255, 164.5356
130.1077, 164.3503
130.5898, 164.1847
131.0719, 164.3204
131.5540, 165.1685
132.0361, 166.1228
132.5182, 166.5088
133.0004, 166.2110
133.4825, 165.6768
133.9646, 165.0952
134.4467, 164.5321
134.9288, 164.2054
135.4109, 164.3735
135.8931, 164.8791
136.3752, 165.1494
136.8573, 164.9830
137.3394, 164.8051
137.8215, 164.9961
138.3036, 165.4144
138.7858, 165.6292
139.2679, 165.0755
139.7500, 163.5782
140.2321, 162.7373
140.7142, 163.1863
141.1963, 163.8109
141.6785, 164.2548
142.1606, 164.4464
142.6427, 164.4575
143.1248, 164.3694
143.6069, 164.1642
144.0890, 163.8802
144.5712, 163.3247
145.0533, 162.8273
145.5354, 162.6585
146.0175, 162.8806
146.4996, 163.2988
146.9817, 163.5711
147.4639, 163.6279
147.9460, 163.6307
148.4281, 163.6457
148.9102, 163.5920
149.3923, 163.3115
149.8744, 162.7068
150.3566, 161.9715
150.8387, 161.6104
151.3208, 161.7993
151.8029, 161.8366
152.2850, 161.2823
152.7671, 160.3256
153.2493, 159.6037
153.7314, 159.4444
154.2135, 159.6207
154.6956, 159.6612
155.1777, 159.5122
155.6598, 159.3496
156.1420, 159.4160
156.6241, 159.7357
157.1062, 159.7953
157.5883, 159.0745
158.0704, 158.1180
158.5525, 157.3764
159.0347, 156.9617
159.5168, 156.7855
159.9989, 156.7600
160.4810, 156.9839
160.9631, 157.1116
161.4452, 157.0634
161.9274, 156.8828
162.4095, 156.5879
162.8916, 156.1798
163.3737, 155.6890
163.8558, 155.2013
164.3379, 154.5350
164.8201, 154.1420
165.3022, 154.3807
165.7843, 154.8553
166.2664, 155.0539
166.7485, 154.6610
167.2306, 153.7437
167.7128, 152.8452
168.1949, 151.8358
168.6770, 150.9805
169.1591, 150.3206
169.6412, 149.8595
170.1233, 149.6245
170.6055, 149.6712
171.0876, 149.9856
171.5697, 150.0167
172.0518, 149.6704
172.5339, 149.1970
173.0160, 148.5916
173.4982, 147.9151
173.9803, 147.4039
174.4624, 147.3096
174.9445, 147.6080
175.4266, 147.6505
175.9087, 147.3684
176.3909, 146.8813
176.8730, 146.1963
177.3551, 145.3051
177.8372, 144.4809
178.3193, 144.0067
178.8014, 143.7825
179.2836, 143.5405
179.7657, 143.1483
180.2478, 142.7319
180.7299, 142.4896
181.2120, 142.4645
181.6941, 142.5113
182.1763, 142.6444
182.6584, 142.7769
183.1405, 142.7190
183.6226, 142.2457
184.1047, 141.5108
184.5868, 141.0456
185.0690, 141.0354
185.5511, 141.0290
186.0332, 140.7701
186.5153, 140.3596
186.9974, 139.9950
187.4795, 139.8376
187.9617, 139.8670
188.4438, 139.7902
188.9259, 139.4985
189.4080, 139.2034
189.8901, 138.9224
190.3722, 138.6880
190.8544, 138.5649
191.3365, 138.6424
191.8186, 138.9489
192.3007, 139.0485
192.7828, 138.8204
193.2649, 138.5058
193.7471, 138.0864
194.2292, 137.6328
194.7113, 137.2979
195.1934, 137.2539
195.6755, 137.5859
196.1576, 137.6579
196.6398, 137.2139
197.1219, 136.7960
197.6040, 136.7761
198.0861, 137.0923
198.5682, 137.3434
199.0503, 137.1027
199.5325, 136.2399
200.0146, 135.6348
200.4967, 135.3039
200.9788, 135.1850
201.4609, 135.3436
201.9430, 135.7518
202.4252, 136.1485
202.9073, 136.2895
203.3894, 136.1393
203.8715, 135.8786
204.3536, 135.2896
204.8357, 134.7170
205.3179, 134.5688
205.8000, 134.9144
206.2821, 135.3198
206.7642, 135.3254
207.2463, 134.9984
207.7284, 134.7457
208.2106, 134.7536
208.6927, 134.8417
209.1748, 134.7352
209.6569, 134.3681
210.1390, 133.9603
210.6211, 133.7349
211.1033, 133.6217
211.5854, 133.4450
212.0675, 133.0404
212.5496, 132.5376
213.0317, 132.2391
213.5138, 132.2146
213.9960, 132.2832
214.4781, 132.3645
214.9602, 132.4449
215.4423, 132.4930
215.9244, 132.4804
216.4065, 132.4208
216.8886, 132.3647
217.3708, 132.2934
217.8529, 132.2569
218.3350, 132.3545
218.8171, 132.4959
219.2992, 132.5097
219.7813, 132.2668
220.2635, 131.8010
220.7456, 131.3264
221.2277, 130.6805
221.7098, 130.2486
222.1919, 130.3188
222.6740, 130.6644
223.1562, 130.8910
223.6383, 130.7058
224.1204, 130.1484
224.6025, 129.7068
225.0846, 129.4129
225.5667, 129.2251
226.0489, 129.2057
226.5310, 129.2814
227.0131, 129.3356
227.4952, 129.2899
227.9773, 129.1481
228.4594, 128.9602
228.9416, 128.4427
229.4237, 128.1755
229.9058, 128.5704
230.3879, 129.3061
230.8700, 129.7618
231.3521, 129.4849
231.8343, 128.5400
232.3164, 127.9917
232.7985, 128.2411
233.2806, 128.4206
233.7627, 128.2016
234.2448, 127.7410
234.7270, 127.3954
235.2091, 127.4094
235.6912, 127.7302
236.1733, 127.8489
236.6554, 127.6735
237.1375, 127.4424
237.6197, 127.2175
238.1018, 126.9931
238.5839, 126.7266
239.0660, 126.3731
239.5481, 125.9749
240.0302, 125.7710
240.5124, 125.8833
240.9945, 126.0142
241.4766, 126.1110
241.9587, 126.1524
242.4408, 126.0699
242.9229, 125.7997
243.4051, 125.4051
243.8872, 125.1057
244.3693, 124.9674
244.8514, 124.8142
245.3335, 124.5145
245.8156, 124.1297
246.2978, 123.8571
246.7799, 123.8056
247.2620, 123.8963
247.7441, 123.9611
248.2262, 124.0374
248.7083, 124.0160
249.1905, 123.7733
249.6726, 123.3704
250.1547, 123.0177
250.6368, 122.7710
251.1189, 122.6409
251.6010, 122.6583
252.0832, 122.8664
252.5653, 123.0137
253.0474, 122.8998
253.5295, 122.5868
254.0116, 122.3650
254.4937, 122.3869
254.9759, 122.4397
255.4580, 122.2524
255.9401, 121.8169
256.4222, 121.3988
256.9043, 121.1276
257.3864, 121.0024
257.8686, 121.0378
258.3507, 121.3278
258.8328, 121.6706
259.3149, 121.9529
259.7970, 122.1618
260.2791, 122.1867
260.7613, 121.7694
261.2434, 121.0313
261.7255, 120.7127
262.2076, 121.2229
262.6897, 121.7360
263.1718, 121.6936
263.6540, 121.1954
264.1361, 120.6027
264.6182, 120.0145
265.1003, 119.4795
265.5824, 119.3192
266.0645, 119.7881
266.5467, 120.2996
267.0288, 120.6706
267.5109, 120.8606
267.9930, 120.7659
268.4751, 120.1727
268.9572, 119.2417
269.4394, 118.7091
269.9215, 118.7127
270.4036, 118.9549
270.8857, 119.5397
271.3678, 120.2110
271.8499, 120.5458
272.3321, 120.2403
272.8142, 119.5010
273.2963, 119.0582
273.7784, 119.1019
274.2605, 119.1416
274.7426, 119.0341
275.2248, 118.8425
275.7069, 118.6311
276.1890, 118.4211
276.6711, 118.2323
277.1532, 118.1273
277.6353, 118.1682
278.1175, 118.1773
278.5996, 118.1444
279.0817, 118.0587
279.5638, 117.9068
280.0459, 117.6834
280.5280, 117.4038
281.0102, 117.0647
281.4923, 116.5423
281.9744, 116.2426
282.4565, 116.3220
282.9386, 116.5317
283.4207, 116.7067
283.9029, 116.7973
284.3850, 116.8312
284.8671, 116.8689
285.3492, 116.9861
285.8313, 116.9053
286.3134, 116.4252
286.7956, 115.9163
287.2777, 115.5938
287.7598, 115.4883
288.2419, 115.4993
288.7240, 115.5133
289.2061, 115.5185
289.6883, 115.5721
290.1704, 115.7582
290.6525, 115.9144
291.1346, 115.9057
291.6167, 115.7752
292.0988, 115.7040
292.5810, 115.8937
293.0631, 116.3897
293.5452, 116.6492
294.0273, 116.4741
294.5094, 116.2626
294.9915, 116.1340
295.4737, 116.0746
295.9558, 116.0208
296.4379, 115.9258
296.9200, 115.7932
297.4021, 115.6857
297.8842, 115.6279
298.3664, 115.5709
298.8485, 115.4784
299.3306, 115.3858
299.8127, 115.3418
300.2948, 115.3727
300.7769, 115.4784
301.2591, 115.6652
301.7412, 116.2046
302.2233, 116.4839
302.7054, 116.2518
303.1875, 115.8108
303.6696, 115.4855
304.1518, 115.4092
304.6339, 115.4949
305.1160, 115.5631
305.5981, 115.6761
306.0802, 115.6622
306.5623, 115.3486
307.0445, 115.0189
307.5266, 114.9346
308.0087, 115.1455
308.4908, 115.4757
308.9729, 115.6717
309.4550, 115.6629
309.9372, 115.6919
310.4193, 115.8270
310.9014, 115.9405
311.3835, 115.8803
311.8656, 115.6854
312.3477, 115.5798
312.8299, 115.8244
313.3120, 116.5172
313.7941, 116.9116
314.2762, 116.7739
314.7583, 116.6139
315.2404, 116.6679
315.7226, 116.8759
316.2047, 117.0443
316.6868, 117.0275
317.1689, 116.8359
317.6510, 116.6383
318.1331, 116.3349
318.6153, 116.1334
319.0974, 116.0584
319.5795, 116.1190
320.0616, 116.3826
320.5437, 116.8979
321.0258, 117.5267
321.5080, 117.8083
321.9901, 117.3654
322.4722, 117.0203
322.9543, 116.8132
323.4364, 116.7258
323.9185, 116.7737
324.4007, 116.9524
324.8828, 117.1769
325.3649, 117.2964
325.8470, 117.2540
326.3291, 117.2088
326.8112, 117.1404
327.2934, 117.0851
327.7755, 117.1031
328.2576, 117.1812
328.7397, 117.2174
329.2218, 117.0798
329.7039, 116.7027
330.1861, 116.4753
330.6682, 116.4513
331.1503, 116.5023
331.6324, 116.5831
332.1145, 116.6934
332.5966, 116.8667
333.0788, 117.1480
333.5609, 117.5207
334.0430, 117.7014
334.5251, 117.4369
335.0072, 117.2462
335.4893, 117.2733
335.9715, 117.4257
336.4536, 117.5494
336.9357, 117.5624
337.4178, 117.5333
337.8999, 117.6833
338.3820, 118.2647
338.8642, 118.6463
339.3463, 118.7497
339.8284, 118.6691
340.3105, 118.4325
340.7926, 118.0675
341.2747, 117.6816
341.7568, 117.4265
342.2390, 117.2982
342.7211, 117.3248
343.2032, 117.6071
343.6853, 117.9382
344.1674, 118.2019
344.6495, 118.3991
345.1317, 118.6091
345.6138, 118.9301
346.0959, 119.3788
346.5780, 119.6603
347.0601, 119.5504
347.5422, 119.4840
348.0244, 119.6262
348.5065, 119.8912
348.9886, 120.1325
349.4707, 120.2758
349.9528, 120.3017
350.4349, 120.0878
350.9171, 119.2550
351.3992, 118.7887
351.8813, 119.1670
352.3634, 119.8147
352.8455, 120.1161
353.3276, 119.8612
353.8098, 119.3819
354.2919, 119.2659
354.7740, 119.6840
355.2561, 119.9418
355.7382, 119.8413
356.2203, 119.6578
356.7025, 119.5617
357.1846, 119.5560
357.6667, 119.5156
358.1488, 119.2465
358.6309, 118.7317
359.1130, 118.4937
359.5952, 118.7789
360.0773, 119.0842
360.5594, 119.2402
361.0415, 119.2576
361.5236, 119.1780
362.0057, 119.0260
362.4879, 118.7939
362.9700, 118.4055
363.4521, 117.7027
363.9342, 117.2057
364.4163, 117.2690
364.8984, 117.5341
365.3806, 117.6598
365.8627, 117.5495
366.3448, 117.2518
366.8269, 116.7451
367.3090, 115.9857
367.7911, 115.4098
368.2733, 115.2671
368.7554, 115.2255
369.2375, 114.9977
369.7196, 114.5899
370.2017, 114.2793
370.6838, 114.3902
371.1660, 114.8048
371.6481, 114.9443
372.1302, 114.6830
372.6123, 114.2849
373.0944, 113.8691
373.5765, 113.4597
374.0587, 113.1107
374.5408, 112.8588
375.0229, 112.6696
375.5050, 112.5057
375.9871, 112.3719
376.4692, 112.2228
376.9514, 111.9906
377.4335, 111.7549
377.9156, 111.6397
378.3977, 111.6894
378.8798, 111.7690
379.3619, 111.8754
379.8441, 111.9565
380.3262, 111.7334
380.8083, 110.9942
381.2904, 110.1504
381.7725, 109.7330
382.2546, 109.7201
382.7368, 109.7633
383.2189, 109.8448
383.7010, 109.8801
384.1831, 109.6790
384.6652, 109.2059
385.1473, 108.8015
385.6295, 108.7854
386.1116, 109.0966
386.5937, 109.2439
387.0758, 109.1485
387.5579, 108.9449
388.0400, 108.6593
388.5222, 108.3224
389.0043, 108.0313
389.4864, 107.8395
389.9685, 107.7089
390.4506, 107.5283
390.9327, 107.1933
391.4149, 107.0358
391.8970, 107.2898
392.3791, 107.6837
392.8612, 107.9223
393.3433, 107.9364
393.8254, 107.7503
394.3076, 107.3255
394.7897, 106.5487
395.2718, 106.2390
395.7539, 106.8238
396.2360, 107.4423
396.7181, 107.5984
397.2003, 107.3744
397.6824, 107.1052
398.1645, 107.0007
398.6466, 107.0235
399.1287, 106.9802
399.6108, 106.8864
400.0930, 106.7031
400.5751, 106.3894
401.0572, 106.0008
401.5393, 105.5095
402.0214, 104.9365
402.5035, 104.4912
402.9857, 104.5524
403.4678, 105.4699
403.9499, 105.8718
404.4320, 105.3641
404.9141, 104.7758
405.3962, 104.5236
405.8784, 104.5563
406.3605, 104.5821
406.8426, 104.3545
407.3247, 103.9400
407.8068, 103.8575
408.2889, 104.4753
408.7711, 104.8926
409.2532, 104.7995
409.7353, 104.4736
410.2174, 104.2003
410.6995, 104.0792
411.1816, 104.0449
411.6638, 103.9911
412.1459, 103.8954
412.6280, 103.9043
413.1101, 104.1820
413.5922, 104.4472
414.0743, 104.5587
414.5565, 104.5183
415.0386, 104.3835
415.5207, 104.1510
416.0028, 103.8533
416.4849, 103.6046
416.9670, 103.4059
417.4492, 103.2558
417.9313, 103.1607
418.4134, 103.1114
418.8955, 103.1207
419.3776, 102.6129
419.8597, 103.3117
420.3419, 103.6733
420.8240, 103.7159
421.3061, 102.4783
421.7882, 102.8980
422.2703, 102.6560
422.7524, 102.3887
423.2346, 103.0468
423.7167, 102.0048
424.1988, 102.6519
424.6809, 102.6274
425.1630, 102.9129
425.6451, 102.5327
426.1273, 102.3605
426.6094, 102.8579
427.0915, 102.9874
427.5736, 102.5377
428.0557, 102.8537
428.5378, 101.8067
429.0200, 101.9592
429.5021, 102.6304
429.9842, 102.2234
430.4663, 102.5608
430.9484, 102.6172
431.4305, 101.3902
431.9127, 102.4002
432.3948, 102.4454
432.8769, 101.4998
433.3590, 102.4388
433.8411, 101.6337
434.3232, 101.4536
434.8054, 101.7443
435.2875, 101.5480
435.7696, 102.1243
436.2517, 101.9598
436.7338, 101.7309
437.2159, 101.7932
437.6981, 101.0371
438.1802, 101.8047
438.6623, 101.5345
439.1444, 101.7829
439.6265, 102.1503
440.1086, 101.6227
440.5908, 102.0463
441.0729, 100.9993
441.5550, 101.1863
442.0371, 101.2423
442.5192, 102.0878
443.0013, 101.0553
443.4835, 101.2153
443.9656, 101.8841
444.4477, 101.8454
444.9298, 102.1050
445.4119, 101.4885
445.8940, 101.6987
446.3762, 101.6833
446.8583, 101.8396
447.3404, 101.9077
447.8225, 102.0134
448.3046, 102.0711
448.7867, 101.9606
449.2689, 101.7207
449.7510, 101.5494
450.2331, 101.4468
450.7152, 101.4692
451.1973, 101.8445
451.6794, 102.3969
452.1616, 102.6327
452.6437, 102.1009
453.1258, 101.4517
453.6079, 101.3655
454.0900, 101.7619
454.5721, 102.1127
455.0543, 102.1702
455.5364, 102.0889
456.0185, 102.2144
456.5006, 102.6244
456.9827, 102.8989
457.4648, 102.8816
457.9470, 102.7171
458.4291, 102.5128
458.9112, 102.2998
459.3933, 102.1456
459.8754, 102.1047
460.3575, 102.1765
460.8397, 102.3249
461.3218, 102.6887
461.8039, 102.9560
462.2860, 103.0610
462.7681, 103.0169
463.2502, 102.7889
463.7324, 102.3780
464.2145, 101.9393
464.6966, 101.7319
465.1787, 101.8566
465.6608, 101.9129
466.1429, 101.8560
466.6251, 101.7779
467.1072, 101.6419
467.5893, 101.5180
468.0714, 101.5576
468.5535, 101.8766
469.0356, 102.3809
469.5178, 102.8413
469.9999, 103.3469
470.4820, 103.5689
470.9641, 103.0405
471.4462, 102.4465
471.9283, 102.3488
472.4105, 102.7983
472.8926, 103.3435
473.3747, 103.6633
473.8568, 103.8029
474.3389, 103.9508
474.8210, 104.1712
475.3032, 104.2407
475.7853, 103.8000
476.2674, 103.1343
476.7495, 102.8262
477.2316, 103.1377
477.7137, 103.5611
478.1959, 103.7748
478.6780, 103.8228
479.1601, 103.8333
479.6422, 103.8434
480.1243, 103.8269
480.6064, 103.7474
481.0886, 103.5974
481.5707, 103.4185
482.0528, 103.0333
482.5349, 102.7744
483.0170, 102.9951
483.4991, 103.5476
483.9813, 103.9679
484.4634, 103.9906
484.9455, 103.7445
485.4276, 103.6113
485.9097, 103.6547
486.3918, 103.7291
486.8740, 103.9563
487.3561, 104.1215
487.8382, 104.0064
488.3203, 103.6436
488.8024, 103.2734
489.2845, 103.0960
489.7667, 103.0957
490.2488, 103.0989
490.7309, 103.0232
491.2130, 103.0964
491.6951, 103.5390
492.1772, 104.0572
492.6594, 104.3540
493.1415, 104.3544
493.6236, 104.1689
494.1057, 103.8100
494.5878, 103.3135
495.0699, 103.0254
495.5521, 103.0703
496.0342, 103.1546
496.5163, 102.9814
496.9984, 102.6834
497.4805, 102.5783
497.9626, 102.8548
498.4448, 103.2151
498.9269, 103.4431
499.4090, 103.5532
499.8911, 103.5897
500.3732, 103.5594
500.8553, 103.4821
501.3375, 103.3704
501.8196, 103.2049
502.3017, 103.1102
502.7838, 103.1080
503.2659, 103.1672
503.7480, 103.2889
504.2302, 103.4558
504.7123, 103.6737
505.1944, 103.9672
505.6765, 104.2169
506.1586, 104.0350
506.6407, 102.7766
507.1228, 102.1474
507.6049, 102.6980
508.0871, 103.4286
508.5692, 103.6706
509.0513, 103.4145
509.5334, 103.0079
510.0155, 102.6795
510.4977, 102.4382
510.9798, 102.3550
511.4619, 102.4996
511.9440, 102.6450
512.4261, 102.6923
512.9083, 102.7232
513.3904, 102.8502
513.8725, 103.0915
514.3546, 103.2428
514.8367, 103.0608
515.3188, 102.6766
515.8010, 102.4774
516.2831, 102.5245
516.7652, 102.6270
517.2473, 102.6995
517.7294, 102.7193
518.2115, 102.6195
518.6937, 102.2237
519.1758, 101.9665
519.6579, 102.2284
520.1400, 102.7006
520.6221, 102.8393
521.1042, 102.5207
521.5864, 102.0747
522.0685, 101.8639
522.5506, 101.9219
523.0327, 101.8556
523.5148, 101.4398
523.9969, 101.1726
524.4791, 101.3498
524.9612, 101.7232
525.4433, 101.9371
525.9254, 101.8664
526.4075, 101.6682
526.8896, 101.5859
527.3718, 101.6585
527.8539, 101.6435
528.3360, 101.5327
528.8181, 101.3303
529.3002, 100.9708
529.7823, 100.5359
530.2645, 100.1525
530.7466, 99.84093
531.2287, 99.67525
531.7108, 99.89177
532.1929, 100.4487
532.6750, 100.6800
533.1572, 100.3411
533.6393, 99.77694
534.1214, 99.23924
534.6035, 98.74649
535.0856, 98.49947
535.5677, 98.79867
536.0499, 99.13321
536.5320, 99.08491
537.0141, 98.74720
537.4962, 98.43480
537.9783, 98.28270
538.4604, 98.20204
538.9426, 98.03293
539.4247, 97.70089
539.9068, 97.47203
540.3889, 97.34615
540.8710, 97.31448
541.3531, 97.43314
541.8353, 97.63763
542.3174, 97.82492
542.7995, 97.94855
543.2816, 97.95332
543.7637, 97.65392
544.2458, 96.89324
544.7280, 96.34826
545.2101, 96.28757
545.6922, 96.31828
546.1743, 96.27007
546.6564, 96.13481
547.1385, 95.92993
547.6207, 95.60770
548.1028, 95.27040
548.5849, 95.12463
549.0670, 95.16002
549.5491, 95.04176
550.0313, 94.52238
550.5134, 93.97941
550.9955, 94.16344
551.4776, 95.12842
551.9597, 95.60860
552.4418, 94.95375
552.9240, 94.06410
553.4061, 93.62241
553.8882, 93.56577
554.3703, 93.55640
554.8524, 93.42612
555.3345, 93.21774
555.8167, 93.02776
556.2988, 92.86205
556.7809, 92.70285
557.2630, 92.51633
557.7451, 92.36380
558.2272, 92.33529
558.7094, 92.36661
559.1915, 92.28294
559.6736, 91.95560
560.1557, 91.54305
560.6378, 91.39871
561.1199, 91.56643
561.6021, 91.73695
562.0842, 91.94756
562.5663, 92.02396
563.0484, 91.75509
563.5305, 91.21023
564.0126, 90.75883
564.4948, 90.57874
564.9769, 90.52319
565.4590, 90.47763
565.9411, 90.43490
566.4232, 90.36567
566.9053, 90.25751
567.3875, 90.12402
567.8696, 89.98575
568.3517, 89.84812
568.8338, 89.68408
569.3159, 89.43723
569.7980, 89.22062
570.2802, 89.08717
570.7623, 89.02981
571.2444, 89.01904
571.7265, 89.04123
572.2086, 89.11584
572.6907, 89.33186
573.1729, 89.79806
573.6550, 89.96687
574.1371, 89.63227
574.6192, 89.17307
575.1013, 88.67410
575.5834, 88.18936
576.0656, 87.81731
576.5477, 87.60905
577.0298, 87.49129
577.5119, 87.38251
577.9940, 87.29243
578.4761, 87.29788
578.9583, 87.45248
579.4404, 87.58611
579.9225, 87.50591
580.4046, 87.22399
580.8867, 87.02782
581.3688, 87.05515
581.8510, 87.02686
582.3331, 86.75051
582.8152, 86.36773
583.2973, 86.08022
583.7794, 85.94811
584.2615, 85.91814
584.7437, 85.94667
585.2258, 86.04169
585.7079, 86.04919
586.1900, 85.87454
586.6721, 85.72915
587.1542, 85.71583
587.6363, 85.73040
588.1184, 85.63285
588.6005, 85.39499
589.0826, 85.16675
589.5648, 85.11732
590.0469, 85.19102
590.5290, 85.17693
591.0111, 85.05159
591.4932, 84.89238
591.9753, 84.70217
592.4575, 84.52635
592.9396, 84.47800
593.4217, 84.62019
593.9038, 84.72032
594.3859, 84.72263
594.8680, 84.63699
595.3502, 84.43005
595.8323, 84.13108
596.3144, 83.86240
596.7965, 83.71603
597.2786, 83.65038
597.7607, 83.49259
598.2429, 83.01975
598.7250, 82.87212
599.2071, 83.41348
599.6892, 83.97163
600.1713, 84.12812
600.6534, 83.92235
601.1356, 83.59814
601.6177, 83.24743
602.0998, 82.92700
602.5819, 82.73482
603.0640, 82.67076
603.5461, 82.69730
604.0283, 82.86746
604.5104, 83.02500
604.9925, 82.96721
605.4746, 82.72006
605.9567, 82.47889
606.4388, 82.24752
606.9210, 82.05041
607.4031, 81.89873
607.8852, 81.79102
608.3673, 81.73045
608.8494, 81.71636
609.3315, 81.72861
609.8137, 81.75207
610.2958, 81.79572
610.7779, 81.75465
611.2600, 81.54075
611.7421, 81.34698
612.2242, 81.17490
612.7064, 81.06923
613.1885, 81.13562
613.6706, 81.38394
614.1527, 81.57204
614.6348, 81.41158
615.1169, 81.02821
615.5991, 80.85368
616.0812, 80.94406
616.5633, 80.91935
617.0454, 80.48783
617.5275, 79.87740
618.0096, 79.64149
618.4918, 79.94054
618.9739, 80.04240
619.4560, 79.62276
619.9381, 79.09070
620.4202, 78.68571
620.9023, 78.46803
621.3845, 78.56712
621.8666, 79.07514
622.3487, 79.71899
622.8308, 79.84206
623.3129, 79.22571
623.7950, 78.77959
624.2772, 78.63586
624.7593, 78.58850
625.2414, 78.56579
625.7235, 78.57068
626.2056, 78.62772
626.6877, 78.76341
627.1699, 78.89841
627.6520, 79.00397
628.1341, 79.04771
628.6162, 78.85683
629.0983, 78.36924
629.5804, 77.95678
630.0626, 77.95676
630.5447, 78.30105
631.0268, 78.45214
631.5089, 78.33928
631.9910, 78.16050
632.4731, 77.90321
632.9553, 77.62199
633.4374, 77.28593
633.9195, 76.95495
634.4016, 76.85274
634.8837, 77.20342
635.3658, 77.79011
635.8480, 77.88634
636.3301, 77.33892
636.8122, 76.96635
637.2943, 77.09011
637.7764, 77.29126
638.2585, 77.20190
638.7407, 76.88721
639.2228, 76.64899
639.7049, 76.66393
640.1870, 76.70358
640.6691, 76.56320
641.1512, 76.31766
641.6334, 76.10944
642.1155, 75.97893
642.5976, 75.97988
643.0797, 76.20887
643.5618, 76.66547
644.0439, 76.87683
644.5261, 76.66203
645.0082, 76.41409
645.4903, 76.14999
645.9724, 75.90030
646.4545, 75.68592
646.9366, 75.51148
647.4188, 75.37202
647.9009, 75.23921
648.3830, 75.15451
648.8651, 75.28220
649.3472, 75.63039
649.8293, 75.79290
650.3115, 75.55737
650.7936, 75.20437
651.2757, 75.13813
651.7578, 75.37430
652.2399, 75.44111
652.7220, 75.14165
653.2042, 74.83515
653.6863, 74.69225
654.1684, 74.66231
654.6505, 74.66177
655.1326, 74.66502
655.6147, 74.69153
656.0969, 74.77843
656.5790, 74.91797
657.0611, 74.98314
657.5432, 75.00575
658.0253, 74.88676
658.5074, 74.37406
658.9896, 73.84061
659.4717, 73.63607
659.9538, 73.77673
660.4359, 73.97462
660.9180, 74.15977
661.4001, 74.29983
661.8823, 74.38387
662.3644, 74.39659
662.8465, 74.22705
663.3286, 73.81468
663.8107, 73.44572
664.2928, 73.57164
664.7750, 74.32957
665.2571, 74.65482
665.7392, 74.12893
666.2213, 73.65746
666.7034, 73.44054
667.1855, 73.38913
667.6677, 73.41897
668.1498, 73.50540
668.6319, 73.61857
669.1140, 73.82876
669.5961, 74.02369
670.0782, 73.87350
670.5604, 73.37655
671.0425, 72.94909
671.5246, 72.75111
672.0067, 72.71920
672.4888, 72.78159
672.9709, 72.96207
673.4531, 73.12022
673.9352, 73.29023
674.4173, 73.39664
674.8994, 73.38789
675.3815, 73.30118
675.8636, 73.16969
676.3458, 73.01130
676.8279, 72.86374
677.3100, 72.74702
677.7921, 72.67234
678.2742, 72.75453
678.7563, 73.06590
679.2385, 73.25829
679.7206, 73.13761
680.2027, 72.88881
680.6848, 72.74177
681.1669, 72.69590
681.6490, 72.67067
682.1312, 72.64806
682.6133, 72.63911
683.0954, 72.68478
683.5775, 72.74245
684.0596, 72.70822
684.5417, 72.55766
685.0239, 72.40625
685.5060, 72.40928
685.9881, 72.55704
686.4702, 72.50977
686.9523, 72.10577
687.4344, 71.81950
687.9166, 71.87692
688.3987, 72.04755
688.8808, 72.18308
689.3629, 72.26484
689.8450, 72.25761
690.3271, 72.04053
690.8093, 71.81438
691.2914, 71.84132
691.7735, 72.01890
692.2556, 72.03481
692.7377, 71.79506
693.2198, 71.49413
693.7020, 71.33904
694.1841, 71.32995
694.6662, 71.36143
695.1483, 71.46624
695.6304, 71.56485
696.1125, 71.70170
696.5947, 71.78555
697.0768, 71.70715
697.5589, 71.48987
698.0410, 71.29247
698.5231, 71.23060
699.0052, 71.19762
699.4874, 71.03661
699.9695, 70.78289
700.4516, 70.58133
700.9337, 70.47050
701.4158, 70.40833
701.8979, 70.36514
702.3801, 70.33776
702.8622, 70.27382
703.3443, 70.06100
703.8264, 69.96235
704.3085, 70.12881
704.7906, 70.31833
705.2728, 70.35409
705.7549, 70.23872
706.2370, 70.05859
706.7191, 69.85484
707.2012, 69.62337
707.6833, 69.31070
708.1655, 68.95063
708.6476, 68.75524
709.1297, 68.78629
709.6118, 68.84974
710.0939, 68.78852
710.5760, 68.63049
711.0582, 68.52859
711.5403, 68.50192
712.0224, 68.50007
712.5045, 68.59312
712.9866, 68.64660
713.4688, 68.50500
713.9509, 68.24769
714.4330, 68.09459
714.9151, 68.16329
715.3972, 68.29637
715.8793, 68.20643
716.3615, 67.96337
716.8436, 68.08963
717.3257, 68.73030
717.8078, 69.21939
718.2899, 69.08138
718.7720, 68.55039
719.2542, 68.24754
719.7363, 68.24968
720.2184, 68.27068
720.7005, 68.35938
721.1826, 68.38963
721.6647, 68.22134
722.1469, 67.95654
722.6290, 67.78705
723.1111, 67.78127
723.5932, 67.84198
724.0753, 67.88675
724.5574, 67.90720
725.0396, 67.84774
725.5217, 67.69681
726.0038, 67.53768
726.4859, 67.40528
726.9680, 67.28629
727.4501, 67.16284
727.9323, 67.03406
728.4144, 66.90450
728.8965, 66.76801
729.3786, 66.63793
729.8607, 66.46906
730.3428, 66.33545
730.8250, 66.40376
731.3071, 66.66557
731.7892, 66.83376
732.2713, 66.56454
732.7534, 66.06485
733.2355, 66.00413
733.7177, 66.40878
734.1998, 66.68706
734.6819, 66.63946
735.1640, 66.48885
735.6461, 66.45055
736.1282, 66.52400
736.6104, 66.61015
737.0925, 66.83533
737.5746, 66.90945
738.0567, 66.61401
738.5388, 66.24070
739.0209, 66.03972
739.5031, 66.02584
739.9852, 66.12317
740.4673, 66.32796
740.9494, 66.48610
741.4315, 66.24973
741.9136, 65.66560
742.3958, 65.27028
742.8779, 65.13790
743.3600, 65.23080
743.8421, 65.63528
744.3242, 66.20667
744.8063, 66.43491
745.2885, 66.17714
745.7706, 65.90691
746.2527, 65.54222
746.7348, 65.29039
747.2169, 65.38239
747.6990, 65.65287
748.1812, 65.77641
748.6633, 65.63993
749.1454, 65.46173
749.6275, 65.48890
750.1096, 65.66184
750.5917, 65.78967
751.0739, 65.86683
751.5560, 65.90298
752.0381, 65.90581
752.5202, 65.85895
753.0023, 65.71027
753.4844, 65.41766
753.9666, 65.30422
754.4487, 65.51517
754.9308, 65.70929
755.4129, 65.78194
755.8950, 65.79826
756.3771, 65.85984
756.8593, 65.95215
757.3414, 65.93143
757.8235, 65.65547
758.3056, 65.28034
758.7877, 64.99493
759.2698, 64.80791
759.7520, 64.82354
760.2341, 65.08498
760.7162, 65.26984
761.1983, 65.08168
761.6804, 64.61880
762.1625, 64.36816
762.6447, 64.57423
763.1268, 64.59196
763.6089, 64.21945
764.0910, 63.85293
764.5731, 63.68330
765.0552, 63.67719
765.5374, 63.76910
766.0195, 63.95622
766.5016, 64.11214
766.9837, 64.10498
767.4658, 64.02074
767.9479, 64.01511
768.4301, 64.07971
768.9122, 64.12064
769.3943, 64.10158
769.8764, 63.98594
770.3585, 63.67872
770.8406, 63.13246
771.3228, 62.89492
771.8049, 63.15759
772.2870, 63.42864
772.7691, 63.58354
773.2512, 63.68730
773.7333, 63.81921
774.2155, 63.96648
774.6976, 64.00853
775.1797, 63.83279
775.6618, 63.60884
776.1439, 63.41810
776.6260, 63.27423
777.1082, 63.20228
777.5903, 63.20350
778.0724, 63.28139
778.5545, 63.46180
779.0366, 63.63899
779.5187, 63.46626
780.0009, 62.84762
780.4830, 62.49308
780.9651, 62.60442
781.4472, 62.74559
781.9293, 62.67680
782.4114, 62.45713
782.8936, 62.13942
783.3757, 61.60503
783.8578, 61.42750
784.3399, 62.16393
784.8220, 62.89291
785.3041, 62.87472
785.7863, 62.44231
786.2684, 62.26524
786.7505, 62.51533
787.2326, 62.80117
787.7147, 62.70089
788.1968, 62.35486
788.6790, 62.23872
789.1611, 62.35818
789.6432, 62.40232
790.1253, 62.25124
790.6074, 62.11021
791.0895, 62.21868
791.5717, 62.54133
792.0538, 62.65560
792.5359, 62.39827
793.0180, 62.17543
793.5001, 61.99092
793.9822, 61.88071
794.4644, 61.93617
794.9465, 62.07320
795.4286, 62.09167
795.9107, 61.90107
796.3928, 61.69474
796.8749, 61.69691
797.3571, 61.77910
797.8392, 61.63293
798.3213, 61.28868
798.8034, 61.10015
799.2855, 61.22725
799.7676, 61.47538
800.2498, 61.57484
800.7319, 61.52102
801.2140, 61.38655
801.6961, 61.04622
802.1782, 60.84988
802.6603, 61.06577
803.1425, 61.32241
803.6246, 61.30272
804.1067, 61.05622
804.5888, 60.87629
805.0709, 60.87149
805.5530, 60.90761
806.0352, 60.96458
806.5173, 60.99419
806.9994, 60.89848
807.4815, 60.71344
807.9636, 60.57807
808.4457, 60.56672
808.9279, 60.65860
809.4100, 60.87969
809.8921, 61.21132
810.3742, 61.32399
810.8563, 61.15217
811.3384, 61.04342
811.8206, 61.19249
812.3027, 61.42474
812.7848, 61.49860
813.2669, 61.40606
813.7490, 61.17350
814.2311, 60.53316
814.7133, 60.09742
815.1954, 60.15004
815.6775, 60.39538
816.1596, 60.61727
816.6417, 60.76802
817.1238, 60.83117
817.6060, 60.78747
818.0881, 60.67786
818.5702, 60.52779
819.0523, 60.34831
819.5344, 60.12307
820.0165, 59.86996
820.4987, 59.74337
820.9808, 59.83499
821.4629, 60.05639
821.9450, 60.25701
822.4271, 60.44082
822.9092, 60.58402
823.3914, 60.71632
823.8735, 60.74963
824.3556, 60.61677
824.8377, 60.39439
825.3198, 60.11438
825.8019, 59.79131
826.2841, 59.59856
826.7662, 59.67826
827.2483, 59.76480
827.7304, 59.77208
828.2125, 59.71296
828.6946, 59.56980
829.1768, 59.37388
829.6589, 59.20245
830.1410, 59.09376
830.6231, 59.05318
831.1052, 59.09170
831.5873, 59.20483
832.0695, 59.40723
832.5516, 59.70055
833.0337, 59.91641
833.5158, 59.96362
833.9979, 59.94664
834.4800, 60.03803
834.9622, 60.26290
835.4443, 60.31206
835.9264, 60.04282
836.4085, 59.80628
836.8906, 59.73594
837.3727, 59.66320
837.8549, 59.37488
838.3370, 58.96028
838.8191, 58.77064
839.3012, 58.99519
839.7833, 59.27710
840.2654, 59.45753
840.7476, 59.56829
841.2297, 59.65221
841.7118, 59.69940
842.1939, 59.65183
842.6760, 59.48760
843.1581, 59.29725
843.6403, 59.20335
844.1224, 59.18430
844.6045, 59.12165
845.0866, 59.01223
845.5687, 58.91821
846.0508, 58.86028
846.5330, 58.81705
847.0151, 58.75719
847.4972, 58.68822
847.9793, 58.69801
848.4614, 58.93328
848.9435, 59.02122
849.4257, 58.84444
849.9078, 58.62177
850.3899, 58.43646
850.8720, 58.30437
851.3541, 58.25630
851.8362, 58.31022
852.3184, 58.34398
852.8005, 58.30699
853.2826, 58.20665
853.7647, 57.98796
854.2468, 57.72651
854.7289, 57.60655
855.2111, 57.65579
855.6932, 57.68850
856.1753, 57.51602
856.6574, 57.26167
857.1395, 57.29790
857.6216, 57.62273
858.1038, 57.83435
858.5859, 57.85634
859.0680, 57.85188
859.5501, 57.96309
860.0322, 58.07369
860.5143, 57.87329
860.9965, 57.14830
861.4786, 56.77192
861.9607, 56.96726
862.4428, 57.22247
862.9249, 57.48759
863.4070, 57.67791
863.8892, 57.67263
864.3713, 57.49421
864.8534, 57.34213
865.3355, 57.29588
865.8176, 57.29293
866.2997, 57.35246
866.7819, 57.39573
867.2640, 57.26259
867.7461, 57.00594
868.2282, 56.87215
868.7103, 56.98280
869.1924, 57.14426
869.6746, 57.08006
870.1567, 56.83471
870.6388, 56.61385
871.1209, 56.41923
871.6030, 56.32196
872.0851, 56.35129
872.5673, 56.47078
873.0494, 56.67640
873.5315, 56.94157
874.0136, 57.00183
874.4957, 56.80663
874.9778, 56.49876
875.4600, 55.72908
875.9421, 55.22481
876.4242, 55.58088
876.9063, 56.35080
877.3884, 56.76957
877.8705, 56.70097
878.3527, 56.50624
878.8348, 56.13710
879.3169, 55.86025
879.7990, 55.98147
880.2811, 56.24745
880.7632, 56.23933
881.2454, 55.94808
881.7275, 55.74782
882.2096, 55.93595
882.6917, 56.19997
883.1738, 55.99105
883.6559, 55.48125
884.1381, 55.25978
884.6202, 55.37426
885.1023, 55.57973
885.5844, 55.77073
886.0665, 55.89286
886.5486, 55.84467
887.0308, 55.62122
887.5129, 55.46507
887.9950, 55.39225
888.4771, 55.33931
888.9592, 55.27224
889.4413, 55.24260
889.9235, 55.35686
890.4056, 55.55106
890.8877, 55.56272
891.3698, 55.23112
891.8519, 55.02076
892.3340, 55.09323
892.8162, 55.20581
893.2983, 55.28242
893.7804, 55.28311
894.2625, 55.13258
894.7446, 54.83356
895.2267, 54.54712
895.7089, 54.34930
896.1910, 54.22717
896.6731, 54.22440
897.1552, 54.26855
897.6373, 54.18110
898.1194, 53.98271
898.6016, 53.91083
899.0837, 54.10797
899.5658, 54.40181
900.0479, 54.52373
900.5300, 54.48824
901.0121, 54.39970
901.4943, 54.25426
901.9764, 54.13766
902.4585, 54.08583
902.9406, 54.04237
903.4227, 53.92821
903.9048, 53.76607
904.3870, 53.77198
904.8691, 54.08490
905.3512, 54.28626
905.8333, 54.36311
906.3154, 54.30021
906.7975, 53.94481
907.2797, 53.51225
907.7618, 53.38164
908.2439, 53.62470
908.7260, 53.72201
909.2081, 53.32150
909.6902, 53.01327
910.1724, 53.20911
910.6545, 53.55699
911.1366, 53.68922
911.6187, 53.59262
912.1008, 53.40694
912.5829, 53.16240
913.0651, 53.01227
913.5472, 53.17280
914.0293, 53.48153
914.5114, 53.70803
914.9935, 53.83200
915.4756, 53.82429
915.9578, 53.68567
916.4398, 53.54693
916.9219, 53.54863
917.4041, 53.63694
917.8862, 53.64053
918.3683, 53.55908
918.8504, 53.41841
919.3325, 53.19677
919.8146, 53.06691
920.2968, 53.17038
920.7789, 53.34956
921.2610, 53.28748
921.7431, 52.92035
922.2252, 52.71132
922.7073, 52.69000
923.1895, 52.77843
923.6716, 53.10725
924.1537, 53.41163
924.6358, 53.47561
925.1179, 53.35542
925.6000, 53.23846
926.0822, 53.12720
926.5643, 53.06530
927.0464, 53.09425
927.5285, 53.14352
928.0106, 53.20498
928.4927, 53.24164
928.9749, 53.19068
929.4570, 53.05449
929.9391, 52.91554
930.4212, 52.79201
930.9033, 52.72727
931.3854, 52.82873
931.8676, 52.98031
932.3497, 52.98620
932.8318, 52.85784
933.3139, 52.70264
933.7960, 52.57002
934.2781, 52.49561
934.7603, 52.54778
935.2424, 52.68302
935.7245, 52.76078
936.2066, 52.78359
936.6887, 52.77600
937.1708, 52.74046
937.6530, 52.73013
938.1351, 52.79633
938.6172, 52.88181
939.0993, 52.82778
939.5814, 52.59424
940.0635, 52.44164
940.5457, 52.38489
941.0278, 52.36980
941.5099, 52.38190
941.9920, 52.42646
942.4741, 52.56018
942.9562, 52.75672
943.4384, 52.74308
943.9205, 52.24640
944.4026, 51.96642
944.8847, 52.03564
945.3668, 52.21761
945.8489, 52.51094
946.3311, 52.78764
946.8132, 52.85438
947.2953, 52.69803
947.7774, 52.55745
948.2595, 52.53426
948.7416, 52.52335
949.2238, 52.46334
949.7059, 52.39596
950.1880, 52.34404
950.6701, 52.32598
951.1522, 52.40109
951.6343, 52.59163
952.1165, 52.72243
952.5986, 52.57119
953.0807, 52.33446
953.5628, 52.32610
954.0449, 52.43935
954.5270, 52.37096
955.0092, 52.10257
955.4913, 51.88773
955.9734, 51.88799
956.4555, 52.02938
956.9376, 52.24715
957.4197, 52.50714
957.9019, 52.60618
958.3840, 52.54211
958.8661, 52.50548
959.3482, 52.56219
959.8303, 52.60215
960.3124, 52.51565
960.7946, 52.33494
961.2767, 52.18764
961.7588, 52.08025
962.2409, 51.96730
962.7230, 51.83085
963.2051, 51.73101
963.6873, 51.70954
964.1694, 51.71619
964.6515, 51.66260
965.1336, 51.54887
965.6157, 51.59153
966.0978, 51.99704
966.5800, 52.23351
967.0621, 52.13816
967.5442, 52.00155
968.0263, 51.94904
968.5084, 51.95850
968.9905, 52.05120
969.4727, 52.24976
969.9548, 52.18031
970.4369, 51.33504
970.9190, 50.75623
971.4011, 51.08559
971.8832, 51.64263
972.3654, 51.83363
972.8475, 51.74155
973.3296, 51.72881
973.8117, 51.91376
974.2938, 52.04175
974.7759, 51.95793
975.2581, 51.76388
975.7402, 51.47891
976.2223, 51.17752
976.7044, 50.98143
977.1865, 50.88250
977.6686, 50.74633
978.1508, 50.48275
978.6329, 50.31795
979.1150, 50.65672
979.5971, 51.17569
980.0792, 51.20102
980.5613, 50.87610
981.0435, 50.77584
981.5256, 51.02405
982.0077, 51.33715
982.4898, 51.51521
982.9719, 51.56050
983.4540, 51.44100
983.9362, 51.18396
984.4183, 50.90308
984.9004, 50.61144
985.3825, 50.48463
985.8646, 50.59294
986.3467, 50.80508
986.8289, 51.01478
987.3110, 51.18646
987.7931, 51.15604
988.2752, 50.89485
988.7573, 50.63392
989.2394, 50.35498
989.7216, 50.21404
990.2037, 50.31390
990.6858, 50.52151
991.1679, 50.69570
991.6500, 50.82994
992.1321, 50.77959
992.6143, 50.35811
993.0964, 50.19791
993.5785, 50.64069
994.0606, 50.93019
994.5427, 50.51534
995.0248, 49.82539
995.5070, 49.50747
995.9891, 49.58186
996.4712, 49.72857
996.9533, 50.06758
997.4354, 50.30085
997.9175, 50.28910
998.3997, 50.25521
998.8818, 50.38565
999.3639, 50.56404
999.8460, 50.54207
1000.328, 50.27214
1000.810, 50.13468
1001.292, 50.44866
1001.774, 50.62016
1002.257, 50.23634
1002.739, 49.76948
1003.221, 49.66887
1003.703, 49.80757
1004.185, 49.81721
1004.667, 49.59485
1005.149, 49.42849
1005.631, 49.44607
1006.114, 49.58715
1006.596, 49.90630
1007.078, 50.26062
1007.560, 50.51326
1008.042, 50.63903
1008.524, 50.61513
1009.006, 50.42641
1009.488, 50.23320
1009.970, 50.19170
1010.453, 50.18700
1010.935, 50.03957
1011.417, 49.85573
1011.899, 49.86202
1012.381, 50.04691
1012.863, 50.23207
1013.345, 50.33199
1013.827, 50.32270
1014.310, 50.12986
1014.792, 49.83593
1015.274, 49.52502
1015.756, 49.25564
1016.238, 49.23127
1016.720, 49.45873
1017.202, 49.71138
1017.684, 49.85261
1018.166, 49.94281
1018.649, 50.10801
1019.131, 50.29331
1019.613, 50.25606
1020.095, 50.03081
1020.577, 49.89068
1021.059, 49.89502
1021.541, 49.88457
1022.023, 49.74633
1022.505, 49.53935
1022.988, 49.34538
1023.470, 49.17250
1023.952, 49.14503
1024.434, 49.26654
1024.916, 49.39029
1025.398, 49.48664
1025.880, 49.49268
1026.362, 49.34039
1026.845, 49.12185
1027.327, 49.04903
1027.809, 49.12531
1028.291, 49.35491
1028.773, 49.81189
1029.255, 49.94913
1029.737, 49.51994
1030.219, 49.08473
1030.702, 49.13824
1031.184, 49.47391
1031.666, 49.49134
1032.148, 49.09363
1032.630, 48.91899
1033.112, 49.03593
1033.594, 49.19320
1034.076, 49.37685
1034.558, 49.47242
1035.041, 49.35656
1035.523, 49.09642
1036.005, 48.88533
1036.487, 48.68578
1036.969, 48.68553
1037.451, 49.04909
1037.933, 49.29688
1038.415, 49.25045
1038.897, 49.10953
1039.380, 48.99314
1039.862, 48.91946
1040.344, 48.97491
1040.826, 49.29575
1041.308, 49.33688
1041.790, 48.84019
1042.272, 48.43596
1042.754, 48.30408
1043.237, 48.30008
1043.719, 48.34481
1044.201, 48.42572
1044.683, 48.51737
1045.165, 48.65790
1045.647, 48.69064
1046.129, 48.51501
1046.611, 48.35719
1047.094, 48.27806
1047.576, 48.23700
1048.058, 48.21014
1048.540, 48.19384
1049.022, 48.19450
1049.504, 48.24075
1049.986, 48.19068
1050.468, 47.87180
1050.950, 47.65570
1051.432, 47.70912
1051.915, 47.86430
1052.397, 48.07501
1052.879, 48.25902
1053.361, 48.20174
1053.843, 47.80196
1054.325, 47.57817
1054.807, 47.78908
1055.289, 48.00321
1055.772, 48.10741
1056.254, 48.11369
1056.736, 47.99909
1057.218, 47.80812
1057.700, 47.61811
1058.182, 47.43666
1058.664, 47.31162
1059.146, 47.32458
1059.629, 47.30701
1060.111, 47.14684
1060.593, 46.96979
1061.075, 46.81445
1061.557, 46.74371
1062.039, 46.91457
1062.521, 47.36626
1063.003, 47.70954
1063.485, 47.83355
1063.968, 47.79700
1064.450, 47.44121
1064.932, 47.10382
1065.414, 47.19193
1065.896, 47.45880
1066.378, 47.35636
1066.860, 46.79938
1067.342, 46.40177
1067.824, 46.57815
1068.307, 46.72403
1068.789, 46.46696
1069.271, 46.17597
1069.753, 46.15591
1070.235, 46.31793
1070.717, 46.54009
1071.199, 46.77380
1071.681, 46.80929
1072.164, 46.38664
1072.646, 46.01903
1073.128, 45.96981
1073.610, 46.03390
1074.092, 46.12856
1074.574, 46.18367
1075.056, 46.09822
1075.538, 45.87595
1076.021, 45.63022
1076.503, 45.32171
1076.985, 45.16788
1077.467, 45.40322
1077.949, 45.69676
1078.431, 45.90714
1078.913, 45.95505
1079.395, 45.63313
1079.877, 45.03952
1080.359, 44.67394
1080.842, 44.76352
1081.324, 44.95684
1081.806, 45.26434
1082.288, 45.42680
1082.770, 45.07821
1083.252, 44.61318
1083.734, 44.54096
1084.216, 44.82337
1084.698, 45.10976
1085.181, 45.31932
1085.663, 45.41287
1086.145, 45.34494
1086.627, 45.18834
1087.109, 44.86791
1087.591, 44.57396
1088.073, 44.56998
1088.555, 44.75939
1089.038, 44.84082
1089.520, 44.73233
1090.002, 44.56644
1090.484, 44.33985
1090.966, 44.14159
1091.448, 43.97184
1091.930, 43.89211
1092.412, 44.02835
1092.895, 44.27535
1093.377, 44.42835
1093.859, 44.44654
1094.341, 44.38001
1094.823, 44.20644
1095.305, 44.00619
1095.787, 43.65894
1096.269, 43.44923
1096.751, 43.81409
1097.234, 44.35720
1097.716, 44.33048
1098.198, 43.70317
1098.680, 43.35944
1099.162, 43.84230
1099.644, 44.19371
1100.126, 44.01204
1100.608, 43.72626
1101.090, 43.55951
1101.573, 43.46540
1102.055, 43.31642
1102.537, 43.14836
1103.019, 43.21569
1103.501, 43.74463
1103.983, 44.09987
1104.465, 44.07293
1104.947, 43.91791
1105.430, 43.63702
1105.912, 43.37626
1106.394, 43.32330
1106.876, 43.40362
1107.358, 43.35387
1107.840, 43.09416
1108.322, 42.88242
1108.804, 42.76281
1109.286, 42.69027
1109.769, 42.59422
1110.251, 42.59705
1110.733, 42.95065
1111.215, 43.41595
1111.697, 43.46530
1112.179, 43.00398
1112.661, 42.66360
1113.143, 42.50273
1113.625, 42.44536
1114.108, 42.57798
1114.590, 42.70181
1115.072, 42.68007
1115.554, 42.60548
1116.036, 42.61662
1116.518, 42.70952
1117.000, 42.75594
1117.482, 42.76886
1117.965, 42.70819
1118.447, 42.52024
1118.929, 42.33434
1119.411, 42.18051
1119.893, 42.06573
1120.375, 41.98249
1120.857, 41.94683
1121.339, 42.04900
1121.822, 42.41524
1122.304, 42.50513
1122.786, 42.15530
1123.268, 41.91842
1123.750, 42.01217
1124.232, 42.10540
1124.714, 41.91981
1125.196, 41.60563
1125.678, 41.49359
1126.161, 41.59928
1126.643, 41.67741
1127.125, 41.71620
1127.607, 41.79094
1128.089, 41.94879
1128.571, 42.00180
1129.053, 41.81947
1129.535, 41.56533
1130.017, 41.45868
1130.500, 41.48475
1130.982, 41.56847
1131.464, 41.71704
1131.946, 41.80117
1132.428, 41.80378
1132.910, 41.82718
1133.392, 41.91786
1133.874, 41.94832
1134.357, 41.77899
1134.839, 41.52505
1135.321, 41.50853
1135.803, 41.69328
1136.285, 41.68388
1136.767, 41.49026
1137.249, 41.40783
1137.731, 41.49901
1138.214, 41.56870
1138.696, 41.49569
1139.178, 41.34633
1139.660, 41.19010
1140.142, 41.04474
1140.624, 40.96309
1141.106, 40.94121
1141.588, 40.97850
1142.070, 41.06491
1142.552, 41.16121
1143.035, 41.25082
1143.517, 41.33683
1143.999, 41.44561
1144.481, 41.50603
1144.963, 41.34084
1145.445, 41.09068
1145.927, 41.05312
1146.409, 41.15040
1146.892, 41.09576
1147.374, 40.86748
1147.856, 40.74651
1148.338, 40.90844
1148.820, 41.11815
1149.302, 41.22290
1149.784, 41.21905
1150.266, 41.00954
1150.749, 40.74902
1151.231, 40.65126
1151.713, 40.71344
1152.195, 40.88219
1152.677, 41.14197
1153.159, 41.26681
1153.641, 40.94489
1154.123, 40.69903
1154.605, 40.96205
1155.088, 41.29609
1155.570, 41.30371
1156.052, 41.13128
1156.534, 41.06874
1157.016, 41.12877
1157.498, 41.07361
1157.980, 40.76598
1158.462, 40.49934
1158.944, 40.26871
1159.427, 40.18609
1159.909, 40.44259
1160.391, 40.39586
1160.873, 40.81351
1161.355, 41.04277
1161.837, 41.09375
1162.319, 40.43254
1162.801, 40.69099
1163.284, 40.58085
1163.766, 40.45563
1164.248, 40.84352
1164.730, 40.28590
1165.212, 40.66565
1165.694, 40.67122
1166.176, 40.84803
1166.658, 40.65402
1167.141, 40.57452
1167.623, 40.86600
1168.105, 40.95208
1168.587, 40.71537
1169.069, 40.90308
1169.551, 40.33250
1170.033, 40.42733
1170.515, 40.80925
1170.997, 40.59120
1171.479, 40.78569
1171.962, 40.82302
1172.444, 40.14635
1172.926, 40.71147
1173.408, 40.73956
1173.890, 40.21622
1174.372, 40.73879
1174.854, 40.29147
1175.336, 40.19035
1175.819, 40.34972
1176.301, 40.23753
1176.783, 40.55354
1177.265, 40.45704
1177.747, 40.32368
1178.229, 40.35115
1178.711, 39.92286
1179.193, 40.34012
1179.676, 40.17977
1180.158, 40.30655
1180.640, 40.49841
1181.122, 40.19197
1181.604, 40.41307
1182.086, 39.81609
1182.568, 39.90363
1183.050, 39.91746
1183.532, 40.36881
1184.015, 39.77579
1184.497, 39.84431
1184.979, 40.19448
1185.461, 40.15055
1185.943, 40.27140
1186.425, 39.90444
1186.907, 39.99574
1187.389, 39.96072
1187.871, 39.98510
1188.354, 39.79346
1188.836, 39.54095
1189.318, 39.50566
1189.800, 39.84262
1190.282, 39.93450
1190.764, 39.39159
1191.246, 39.08489
1191.728, 39.30391
1192.211, 39.62647
1192.693, 39.87378
1193.175, 40.05080
1193.657, 40.17411
1194.139, 40.23613
1194.621, 40.14978
1195.103, 39.85923
1195.585, 39.64402
1196.068, 39.49481
1196.550, 39.55434
1197.032, 39.91646
1197.514, 40.21042
1197.996, 40.15171
1198.478, 39.91385
1198.960, 39.77346
1199.442, 39.73155
1199.924, 39.87218
1200.406, 40.13166
1200.889, 40.04286
1201.371, 39.61265
1201.853, 39.27260
1202.335, 39.18324
1202.817, 39.26429
1203.299, 39.49176
1203.781, 39.72155
1204.263, 39.75793
1204.746, 39.67864
1205.228, 39.58002
1205.710, 39.46648
1206.192, 39.29530
1206.674, 39.10759
1207.156, 39.05536
1207.638, 39.18998
1208.120, 39.31372
1208.603, 39.25522
1209.085, 39.23469
1209.567, 39.42425
1210.049, 39.64001
1210.531, 39.81653
1211.013, 39.87982
1211.495, 39.65877
1211.977, 39.22916
1212.459, 38.99477
1212.942, 39.08091
1213.424, 39.14253
1213.906, 39.01984
1214.388, 39.09023
1214.870, 39.71667
1215.352, 40.09384
1215.834, 39.56445
1216.316, 38.79208
1216.798, 38.76210
1217.281, 39.34525
1217.763, 39.56166
1218.245, 39.35542
1218.727, 39.28995
1219.209, 39.40919
1219.691, 39.40126
1220.173, 39.17279
1220.655, 39.01366
1221.138, 39.13019
1221.620, 39.28678
1222.102, 39.05958
1222.584, 38.67807
1223.066, 38.83961
1223.548, 39.32174
1224.030, 39.53260
1224.512, 39.47621
1224.995, 39.38213
1225.477, 39.32110
1225.959, 39.26884
1226.441, 39.21296
1226.923, 39.15337
1227.405, 39.03619
1227.887, 38.97454
1228.369, 39.15710
1228.851, 39.36985
1229.333, 39.34549
1229.816, 39.16476
1230.298, 39.02258
1230.780, 38.95362
1231.262, 38.95740
1231.744, 39.13630
1232.226, 39.22573
1232.708, 39.09299
1233.190, 38.99888
1233.673, 39.09610
1234.155, 39.18099
1234.637, 39.06016
1235.119, 38.85083
1235.601, 38.82232
1236.083, 38.97451
1236.565, 38.89025
1237.047, 38.50090
1237.530, 38.47774
1238.012, 38.91941
1238.494, 39.30177
1238.976, 39.44275
1239.458, 39.36953
1239.940, 39.08488
1240.422, 38.70737
1240.904, 38.37463
1241.386, 38.12412
1241.869, 38.10165
1242.351, 38.21291
1242.833, 38.19338
1243.315, 38.08612
1243.797, 38.19017
1244.279, 38.55255
1244.761, 38.77672
1245.243, 38.58977
1245.725, 38.34363
1246.208, 38.22024
1246.690, 38.17093
1247.172, 38.17776
1247.654, 38.22774
1248.136, 38.35470
1248.618, 38.50172
1249.100, 38.55581
1249.582, 38.50592
1250.065, 38.36423
1250.547, 37.94624
1251.029, 37.79850
1251.511, 38.08443
1251.993, 38.34800
1252.475, 38.43349
1252.957, 38.49059
1253.439, 38.65767
1253.922, 38.81701
1254.404, 38.72475
1254.886, 38.42363
1255.368, 38.18600
1255.850, 38.01624
1256.332, 37.97871
1256.814, 38.06058
1257.296, 38.14071
1257.778, 38.18050
1258.260, 38.20744
1258.743, 38.24520
1259.225, 38.22827
1259.707, 38.01846
1260.189, 37.78747
1260.671, 37.73476
1261.153, 37.76691
1261.635, 37.78039
1262.117, 37.77209
1262.600, 37.74385
1263.082, 37.70911
1263.564, 37.75311
1264.046, 37.97326
1264.528, 38.07951
1265.010, 37.92109
1265.492, 37.77440
1265.974, 37.73906
1266.457, 37.70356
1266.939, 37.55500
1267.421, 37.43601
1267.903, 37.57841
1268.385, 37.91408
1268.867, 38.04668
1269.349, 37.96494
1269.831, 37.91926
1270.313, 37.91659
1270.796, 37.88647
1271.278, 37.81632
1271.760, 37.75637
1272.242, 37.73243
1272.724, 37.75459
1273.206, 37.86338
1273.688, 37.96691
1274.170, 37.87624
1274.652, 37.75091
1275.135, 37.86297
1275.617, 38.07244
1276.099, 38.11121
1276.581, 37.99580
1277.063, 37.92669
1277.545, 37.96288
1278.027, 37.88400
1278.509, 37.46292
1278.992, 37.16207
1279.474, 37.11920
1279.956, 37.18200
1280.438, 37.37069
1280.920, 37.52962
1281.402, 37.50930
1281.884, 37.38461
1282.366, 37.32420
1282.849, 37.32364
1283.331, 37.25856
1283.813, 37.12751
1284.295, 37.05260
1284.777, 37.04953
1285.259, 37.22804
1285.741, 37.59831
1286.223, 37.89091
1286.705, 37.94181
1287.188, 37.75158
##END=



