##NAMES=Footemineite
##RRUFFID=R090005
##IDEAL CHEMISTRY=Ca_2_Mn^2+^_5_Be_4_(PO_4_)_6_(OH)_4_&#183;6H_2_O
##LOCALITY=Foote mine, North Carolina, USA
##OWNER=RRUFF
##SOURCE=Luiz Menezes
##DESCRIPTION=Pale yellow to light green prismatic or barrel-shaped crystals associated with colorless albite.
##STATUS=The identification of this mineral has been confirmed by single-crystal X-ray diffraction.
##URL=rruff.info/R090005
90.52570, 0.0000000E+00
91.00781, 10.38348
91.48993, 10.80669
91.97205, 10.97624
92.45416, 10.63181
92.93628, 10.04493
93.41840, 9.846842
93.90051, 10.22422
94.38263, 10.87427
94.86475, 11.44175
95.34686, 11.92439
95.82898, 12.10805
96.31110, 11.62124
96.79321, 10.53932
97.27533, 9.669203
97.75745, 9.181640
98.23956, 9.048951
98.72168, 9.292818
99.20380, 10.01311
99.68591, 10.78939
100.1680, 11.11988
100.6501, 10.90955
101.1323, 10.70560
101.6144, 10.68781
102.0965, 10.87941
102.5786, 10.94226
103.0607, 10.75963
103.5428, 10.55096
104.0250, 10.72563
104.5071, 11.53979
104.9892, 12.30347
105.4713, 12.71561
105.9534, 12.48166
106.4355, 12.53948
106.9177, 12.95917
107.3998, 13.67188
107.8819, 14.48305
108.3640, 15.44289
108.8461, 16.45139
109.3282, 17.47682
109.8104, 18.50257
110.2925, 19.54071
110.7746, 20.48170
111.2567, 21.36503
111.7388, 22.54581
112.2209, 24.31983
112.7031, 26.25042
113.1852, 28.05660
113.6673, 29.27862
114.1494, 30.74232
114.6315, 32.89643
115.1136, 35.80196
115.5958, 38.30770
116.0779, 39.71093
116.5600, 40.62797
117.0421, 41.74495
117.5242, 43.51208
118.0063, 45.39100
118.4885, 47.07230
118.9706, 48.47549
119.4527, 49.97315
119.9348, 51.62639
120.4169, 53.50988
120.8990, 55.79385
121.3812, 58.54594
121.8633, 61.74147
122.3454, 65.46164
122.8275, 69.98412
123.3096, 74.41494
123.7917, 77.61547
124.2739, 79.93234
124.7560, 82.63767
125.2381, 86.85188
125.7202, 91.96917
126.2023, 96.94022
126.6844, 101.6780
127.1666, 106.0561
127.6487, 109.7279
128.1308, 112.7441
128.6129, 115.6568
129.0950, 119.2839
129.5771, 123.3019
130.0593, 126.5058
130.5414, 128.1466
131.0235, 128.8755
131.5056, 130.0853
131.9877, 131.2927
132.4698, 132.4407
132.9520, 134.3902
133.4341, 137.0918
133.9162, 139.5970
134.3983, 141.1438
134.8804, 142.0054
135.3625, 144.5839
135.8447, 149.1629
136.3268, 154.6855
136.8089, 160.0351
137.2910, 165.3437
137.7731, 169.9206
138.2552, 173.3746
138.7374, 175.5436
139.2195, 177.8688
139.7016, 180.3935
140.1837, 183.0538
140.6658, 185.5943
141.1479, 187.8248
141.6301, 190.3989
142.1122, 193.6671
142.5943, 197.8399
143.0764, 202.1953
143.5585, 206.9653
144.0406, 211.9006
144.5228, 216.3897
145.0049, 220.8554
145.4870, 224.3316
145.9691, 226.3634
146.4512, 227.7498
146.9333, 226.4268
147.4155, 221.4705
147.8976, 213.2404
148.3797, 205.4683
148.8618, 197.4871
149.3439, 190.3391
149.8260, 184.6806
150.3082, 179.6540
150.7903, 176.9783
151.2724, 177.3211
151.7545, 180.7469
152.2366, 184.3093
152.7188, 187.6731
153.2009, 191.2383
153.6830, 195.2890
154.1651, 199.6353
154.6472, 204.6819
155.1293, 210.6053
155.6115, 217.5222
156.0936, 224.4895
156.5757, 231.5765
157.0578, 238.5813
157.5399, 245.1846
158.0220, 250.2405
158.5042, 255.8448
158.9863, 262.9083
159.4684, 271.7897
159.9505, 280.7446
160.4326, 288.9883
160.9147, 296.9711
161.3969, 305.3599
161.8790, 314.1896
162.3611, 323.6290
162.8432, 333.8033
163.3253, 344.6328
163.8074, 356.1606
164.2896, 368.0864
164.7717, 380.6983
165.2538, 394.5777
165.7359, 410.2921
166.2180, 427.1777
166.7001, 445.0373
167.1823, 464.1716
167.6644, 483.0283
168.1465, 501.3510
168.6286, 518.7332
169.1107, 534.0264
169.5928, 547.5977
170.0750, 558.3283
170.5571, 565.2147
171.0392, 567.6600
171.5213, 566.7252
172.0034, 562.2510
172.4855, 554.7067
172.9677, 546.2980
173.4498, 538.8304
173.9319, 531.2282
174.4140, 521.9545
174.8961, 510.3836
175.3782, 497.2292
175.8604, 482.9279
176.3425, 467.3979
176.8246, 450.6427
177.3067, 431.3468
177.7888, 410.6494
178.2709, 391.1651
178.7531, 373.3465
179.2352, 357.0925
179.7173, 341.7049
180.1994, 327.1582
180.6815, 314.9877
181.1636, 307.3015
181.6458, 303.2401
182.1279, 300.5532
182.6100, 298.8216
183.0921, 297.8271
183.5742, 296.8984
184.0563, 296.0130
184.5385, 295.9062
185.0206, 297.7338
185.5027, 301.1684
185.9848, 304.5631
186.4669, 307.4552
186.9490, 309.8795
187.4312, 312.1451
187.9133, 314.2661
188.3954, 315.8701
188.8775, 316.6080
189.3596, 316.4724
189.8417, 315.3445
190.3239, 313.3498
190.8060, 310.3659
191.2881, 305.7179
191.7702, 299.3452
192.2523, 291.7961
192.7344, 283.4977
193.2166, 274.4873
193.6987, 265.1434
194.1808, 255.1430
194.6629, 244.6584
195.1450, 235.1893
195.6271, 226.7586
196.1093, 219.2693
196.5914, 212.5455
197.0735, 206.5663
197.5556, 201.5564
198.0377, 197.6992
198.5198, 194.9626
199.0020, 192.8816
199.4841, 191.4209
199.9662, 190.6673
200.4483, 190.9443
200.9304, 192.4039
201.4125, 193.9554
201.8947, 195.0279
202.3768, 195.5519
202.8589, 196.4638
203.3410, 197.7649
203.8231, 199.4664
204.3052, 201.7256
204.7874, 204.7361
205.2695, 207.5458
205.7516, 209.6337
206.2337, 210.8692
206.7158, 212.3569
207.1979, 214.3259
207.6801, 216.3456
208.1622, 217.6171
208.6443, 218.2479
209.1264, 217.8548
209.6085, 216.1844
210.0906, 213.0963
210.5728, 209.3169
211.0549, 204.7569
211.5370, 199.6053
212.0191, 194.2827
212.5012, 188.5246
212.9833, 183.1439
213.4655, 178.6333
213.9476, 175.1604
214.4297, 171.8331
214.9118, 168.6011
215.3939, 165.5296
215.8760, 162.6234
216.3581, 159.7367
216.8403, 157.3629
217.3224, 155.9061
217.8045, 155.7737
218.2866, 155.2123
218.7687, 153.9317
219.2508, 152.2961
219.7330, 151.3940
220.2151, 151.5946
220.6972, 151.8391
221.1793, 151.4905
221.6614, 149.9985
222.1435, 149.4259
222.6257, 150.0848
223.1078, 151.5942
223.5899, 152.8688
224.0720, 153.5780
224.5541, 154.5934
225.0362, 156.3586
225.5184, 159.0478
226.0005, 162.0503
226.4826, 165.4927
226.9647, 169.2142
227.4468, 172.8367
227.9289, 176.1224
228.4111, 179.6453
228.8932, 183.7630
229.3753, 188.9279
229.8574, 193.6217
230.3395, 197.8680
230.8216, 201.5840
231.3038, 204.5810
231.7859, 206.7134
232.2680, 208.3039
232.7501, 209.4913
233.2322, 210.2943
233.7143, 210.6106
234.1965, 210.1976
234.6786, 209.3458
235.1607, 208.7992
235.6428, 208.3312
236.1249, 208.4907
236.6070, 209.5634
237.0892, 211.8515
237.5713, 214.3511
238.0534, 216.8548
238.5355, 219.6201
239.0176, 223.3666
239.4997, 228.6597
239.9819, 234.2047
240.4640, 239.3550
240.9461, 243.7410
241.4282, 248.7049
241.9103, 254.4798
242.3924, 260.7591
242.8746, 266.8840
243.3567, 273.1456
243.8388, 278.8217
244.3209, 283.7574
244.8030, 288.2404
245.2851, 291.0666
245.7673, 291.8669
246.2494, 291.1703
246.7315, 290.0952
247.2136, 288.7308
247.6957, 286.8552
248.1778, 284.4393
248.6600, 281.6673
249.1421, 277.7204
249.6242, 271.8516
250.1063, 265.1787
250.5884, 259.9035
251.0705, 256.5312
251.5527, 253.6780
252.0348, 250.8745
252.5169, 247.9929
252.9990, 245.5464
253.4811, 243.6159
253.9632, 242.0384
254.4454, 240.5338
254.9275, 238.9738
255.4096, 237.7085
255.8917, 236.8914
256.3738, 236.6133
256.8560, 236.3675
257.3381, 236.0266
257.8202, 235.8224
258.3023, 236.1538
258.7844, 237.2209
259.2665, 238.3895
259.7487, 239.5554
260.2308, 240.7737
260.7129, 241.5196
261.1950, 241.6224
261.6771, 241.4383
262.1592, 241.5942
262.6414, 242.5370
263.1235, 242.6806
263.6056, 241.5238
264.0877, 239.0004
264.5698, 235.9822
265.0519, 232.4602
265.5341, 228.4761
266.0162, 223.8790
266.4983, 218.4074
266.9804, 213.2205
267.4625, 208.5177
267.9446, 204.3372
268.4268, 200.6590
268.9089, 197.6768
269.3910, 194.9817
269.8731, 191.9811
270.3552, 188.4256
270.8373, 185.6777
271.3195, 184.1665
271.8016, 183.7880
272.2837, 183.4072
272.7658, 183.0367
273.2479, 182.6210
273.7300, 182.0447
274.2122, 181.2553
274.6943, 180.6440
275.1764, 180.2887
275.6585, 180.1784
276.1406, 180.2588
276.6227, 180.5380
277.1049, 180.9858
277.5870, 181.5904
278.0691, 182.3569
278.5512, 183.2600
279.0333, 184.3766
279.5154, 185.5867
279.9976, 186.4141
280.4797, 186.7849
280.9618, 187.1618
281.4439, 188.0369
281.9260, 189.4141
282.4081, 190.2791
282.8903, 190.3681
283.3724, 190.0196
283.8545, 190.0654
284.3366, 190.5393
284.8187, 191.0455
285.3008, 191.2173
285.7830, 191.1090
286.2651, 191.3753
286.7472, 192.1472
287.2293, 193.1785
287.7114, 194.0892
288.1935, 194.8781
288.6757, 195.5027
289.1578, 195.7027
289.6399, 195.6371
290.1220, 196.1596
290.6041, 197.3899
291.0862, 198.9763
291.5684, 200.4417
292.0505, 201.8113
292.5326, 203.2539
293.0147, 205.0980
293.4968, 207.0919
293.9789, 208.5701
294.4611, 209.5065
294.9432, 209.9103
295.4253, 209.6432
295.9074, 208.7935
296.3895, 207.7532
296.8716, 206.6275
297.3538, 205.4303
297.8359, 204.2021
298.3180, 202.9359
298.8001, 201.5771
299.2822, 199.9662
299.7643, 198.1934
300.2465, 196.5227
300.7286, 195.1224
301.2107, 193.8279
301.6928, 192.3386
302.1749, 190.6845
302.6570, 189.1170
303.1392, 187.9392
303.6213, 186.9798
304.1034, 185.9351
304.5855, 184.4654
305.0676, 183.1601
305.5497, 182.6628
306.0319, 182.8806
306.5140, 183.3070
306.9961, 183.5280
307.4782, 183.7973
307.9603, 184.4070
308.4424, 185.3959
308.9246, 186.7845
309.4067, 188.8384
309.8888, 191.3396
310.3709, 193.7114
310.8530, 195.4421
311.3351, 196.9913
311.8173, 198.7220
312.2994, 200.7050
312.7815, 202.8954
313.2636, 205.6972
313.7457, 208.6385
314.2278, 210.8831
314.7100, 211.7876
315.1921, 212.0695
315.6742, 212.2045
316.1563, 212.3062
316.6384, 211.8665
317.1205, 210.4315
317.6027, 208.3994
318.0848, 206.2783
318.5669, 203.8544
319.0490, 201.7020
319.5311, 200.0226
320.0132, 198.8280
320.4954, 198.0573
320.9775, 197.9210
321.4596, 198.0951
321.9417, 198.3096
322.4238, 198.7198
322.9059, 198.9452
323.3881, 198.5612
323.8702, 197.6817
324.3523, 197.6087
324.8344, 198.9856
325.3165, 200.9233
325.7986, 202.9057
326.2808, 205.0014
326.7629, 207.0165
327.2450, 208.8542
327.7271, 210.5806
328.2092, 212.4648
328.6913, 214.9353
329.1735, 217.1850
329.6556, 218.9178
330.1377, 219.9072
330.6198, 220.8011
331.1019, 221.5664
331.5840, 222.2404
332.0662, 222.9564
332.5483, 224.0948
333.0304, 224.7242
333.5125, 224.5538
333.9946, 223.5491
334.4767, 221.8534
334.9589, 219.1033
335.4410, 216.0390
335.9231, 213.6739
336.4052, 212.3804
336.8873, 210.8622
337.3694, 208.7946
337.8515, 206.2163
338.3336, 203.5090
338.8158, 200.5333
339.2979, 197.7210
339.7800, 195.5020
340.2621, 193.9901
340.7442, 192.4278
341.2263, 190.7379
341.7085, 188.9101
342.1906, 186.7345
342.6727, 184.0304
343.1548, 181.9913
343.6369, 181.8416
344.1190, 183.4361
344.6012, 184.3289
345.0833, 184.1223
345.5654, 183.3623
346.0475, 182.7126
346.5296, 182.2067
347.0117, 182.4211
347.4939, 183.9478
347.9760, 186.4514
348.4581, 188.8709
348.9402, 191.1107
349.4223, 193.5191
349.9044, 196.6118
350.3866, 200.2672
350.8687, 204.0825
351.3508, 207.4697
351.8329, 211.1440
352.3150, 216.5805
352.7971, 223.7580
353.2793, 231.0285
353.7614, 237.0805
354.2435, 242.4975
354.7256, 248.2001
355.2077, 254.1002
355.6898, 260.7954
356.1720, 269.2464
356.6541, 279.1719
357.1362, 289.2635
357.6183, 298.5572
358.1004, 307.8919
358.5826, 318.1496
359.0647, 329.8632
359.5468, 341.5525
360.0289, 352.0568
360.5110, 361.9963
360.9931, 372.5980
361.4753, 384.6930
361.9574, 397.1528
362.4395, 409.2227
362.9216, 420.6614
363.4037, 432.8358
363.8858, 446.9955
364.3680, 461.7690
364.8501, 475.7716
365.3322, 488.0225
365.8143, 500.0051
366.2964, 511.9630
366.7785, 523.9655
367.2607, 536.0335
367.7428, 548.8511
368.2249, 561.3932
368.7070, 573.0934
369.1891, 584.5892
369.6712, 594.2820
370.1534, 602.1237
370.6355, 608.4532
371.1176, 612.6464
371.5997, 615.7923
372.0818, 617.0150
372.5639, 616.3350
373.0461, 614.2979
373.5282, 608.2082
374.0103, 597.2255
374.4924, 582.8495
374.9745, 567.4527
375.4566, 551.0322
375.9388, 533.2491
376.4209, 513.8826
376.9030, 492.8088
377.3851, 472.1499
377.8672, 451.6698
378.3493, 431.5717
378.8315, 411.9446
379.3136, 392.6036
379.7957, 375.3369
380.2778, 360.7076
380.7599, 347.9178
381.2420, 334.2790
381.7242, 320.0150
382.2063, 306.7897
382.6884, 295.8543
383.1705, 286.9308
383.6526, 279.6585
384.1347, 274.1948
384.6169, 269.6046
385.0990, 265.0304
385.5811, 260.4743
386.0632, 256.1632
386.5453, 251.8818
387.0274, 248.0311
387.5096, 245.2063
387.9917, 243.4220
388.4738, 242.4599
388.9559, 242.4508
389.4380, 243.1089
389.9201, 244.0845
390.4023, 245.4240
390.8844, 246.8684
391.3665, 248.1015
391.8486, 249.2609
392.3307, 250.8078
392.8128, 253.2619
393.2950, 255.9798
393.7771, 258.4869
394.2592, 260.4833
394.7413, 262.8379
395.2234, 266.4701
395.7055, 270.4859
396.1877, 273.5049
396.6698, 274.4282
397.1519, 275.0651
397.6340, 276.1468
398.1161, 277.8412
398.5982, 278.6726
399.0804, 278.0588
399.5625, 276.8468
400.0446, 275.6789
400.5267, 275.3645
401.0088, 273.8701
401.4909, 270.4388
401.9731, 265.6610
402.4552, 262.1007
402.9373, 260.6608
403.4194, 258.9662
403.9015, 255.6562
404.3836, 250.0634
404.8658, 245.5066
405.3479, 242.1734
405.8300, 239.6761
406.3121, 237.4923
406.7942, 235.6408
407.2763, 233.8905
407.7585, 231.8113
408.2406, 229.7225
408.7227, 229.6172
409.2048, 231.6057
409.6869, 234.5704
410.1690, 237.7741
410.6512, 241.1536
411.1333, 244.4423
411.6154, 247.3769
412.0975, 250.6053
412.5796, 255.4721
413.0617, 261.6992
413.5439, 267.9642
414.0260, 273.8897
414.5081, 279.3271
414.9902, 283.9728
415.4723, 287.8217
415.9544, 291.0557
416.4366, 293.8879
416.9187, 296.1597
417.4008, 297.6264
417.8829, 297.1903
418.3650, 296.8046
418.8471, 297.2989
419.3293, 298.7211
419.8114, 301.3462
420.2935, 305.7486
420.7756, 311.1103
421.2577, 316.6996
421.7398, 322.0025
422.2220, 328.4598
422.7041, 336.8621
423.1862, 346.5921
423.6683, 356.5480
424.1504, 366.5738
424.6325, 377.0110
425.1147, 387.9136
425.5968, 399.4792
426.0789, 411.0190
426.5610, 422.7799
427.0431, 434.2999
427.5252, 445.2340
428.0074, 456.1021
428.4895, 465.2064
428.9716, 472.4005
429.4537, 477.5684
429.9358, 480.2159
430.4179, 480.3106
430.9001, 478.0194
431.3822, 473.5548
431.8643, 466.9301
432.3464, 457.1294
432.8285, 443.8665
433.3106, 428.3697
433.7928, 411.4438
434.2749, 393.2942
434.7570, 375.6380
435.2391, 359.0149
435.7212, 343.2020
436.2033, 327.5381
436.6855, 312.2213
437.1676, 297.8584
437.6497, 285.2732
438.1318, 273.8500
438.6139, 262.5464
439.0960, 251.0345
439.5782, 240.2267
440.0603, 230.8453
440.5424, 222.6674
441.0245, 215.4127
441.5066, 209.3259
441.9887, 203.7245
442.4709, 198.1843
442.9530, 192.7026
443.4351, 187.6089
443.9172, 183.3724
444.3993, 179.3995
444.8814, 175.2909
445.3636, 170.0850
445.8457, 165.8902
446.3278, 163.4644
446.8099, 162.2690
447.2920, 160.8972
447.7741, 159.0508
448.2563, 157.3033
448.7384, 155.7948
449.2205, 154.4827
449.7026, 153.6841
450.1847, 153.7476
450.6668, 153.9017
451.1490, 153.2066
451.6311, 151.1639
452.1132, 150.3213
452.5953, 151.4402
453.0774, 153.6928
453.5595, 154.7704
454.0417, 154.5476
454.5238, 154.3445
455.0059, 154.9602
455.4880, 156.2384
455.9701, 157.4267
456.4522, 158.4983
456.9344, 159.4686
457.4165, 160.2043
457.8986, 160.8411
458.3807, 161.7253
458.8628, 162.9377
459.3449, 164.4906
459.8271, 166.7736
460.3092, 169.5523
460.7913, 171.8650
461.2734, 172.9701
461.7555, 173.4703
462.2376, 173.8549
462.7198, 174.1897
463.2019, 174.3970
463.6840, 174.3333
464.1661, 174.1529
464.6482, 174.0430
465.1303, 174.3696
465.6125, 174.4366
466.0946, 173.9125
466.5767, 172.8665
467.0588, 172.0042
467.5409, 171.5049
468.0230, 171.0869
468.5052, 170.6408
468.9873, 170.1875
469.4694, 169.6534
469.9515, 169.0061
470.4336, 168.3118
470.9157, 167.6117
471.3979, 166.8410
471.8800, 166.3035
472.3621, 166.0555
472.8442, 166.1054
473.3263, 166.5823
473.8084, 167.5383
474.2906, 168.5134
474.7727, 169.1786
475.2548, 169.5744
475.7369, 169.8313
476.2190, 169.9000
476.7011, 170.0782
477.1833, 170.8061
477.6654, 171.9453
478.1475, 173.1172
478.6296, 174.1139
479.1117, 175.1027
479.5938, 176.1630
480.0760, 177.3304
480.5581, 178.7930
481.0402, 181.0554
481.5223, 183.4353
482.0044, 185.2681
482.4865, 186.0495
482.9687, 187.2864
483.4508, 189.7760
483.9329, 192.9598
484.4150, 196.0035
484.8971, 198.2492
485.3792, 200.9048
485.8614, 204.4991
486.3435, 208.9476
486.8256, 212.9819
487.3077, 216.0774
487.7898, 219.3198
488.2719, 223.3813
488.7541, 228.4981
489.2362, 233.5302
489.7183, 238.7611
490.2004, 243.5266
490.6825, 246.8889
491.1646, 248.8006
491.6468, 249.8468
492.1289, 250.2176
492.6110, 249.8484
493.0931, 248.6825
493.5752, 246.7036
494.0573, 243.5734
494.5395, 238.6387
495.0216, 232.4381
495.5037, 225.8195
495.9858, 218.9429
496.4679, 212.0036
496.9500, 205.3083
497.4322, 198.7247
497.9143, 192.1530
498.3964, 185.0726
498.8785, 178.4099
499.3606, 172.9875
499.8427, 168.5289
500.3249, 164.1183
500.8070, 158.6925
501.2891, 153.7478
501.7712, 150.2599
502.2533, 148.9245
502.7354, 147.3434
503.2176, 144.8946
503.6997, 142.3587
504.1818, 140.5434
504.6639, 139.7784
505.1460, 139.1179
505.6281, 138.4112
506.1103, 137.7068
506.5924, 137.1876
507.0745, 136.8152
507.5566, 136.7564
508.0387, 137.3194
508.5208, 138.4466
509.0030, 138.9314
509.4851, 138.7153
509.9672, 138.1853
510.4493, 137.6165
510.9314, 137.0556
511.4135, 136.6515
511.8957, 136.4343
512.3778, 136.4151
512.8599, 136.4698
513.3420, 136.7137
513.8242, 137.4783
514.3063, 139.5583
514.7884, 141.8031
515.2705, 143.1787
515.7526, 143.6066
516.2347, 144.2105
516.7169, 145.4284
517.1990, 146.9994
517.6811, 148.7216
518.1632, 150.3939
518.6453, 152.4403
519.1274, 155.1407
519.6096, 158.2085
520.0917, 161.1006
520.5738, 163.7928
521.0559, 166.3301
521.5380, 168.7284
522.0201, 170.9848
522.5023, 173.0715
522.9844, 175.0388
523.4665, 176.7140
523.9486, 178.0077
524.4307, 178.9254
524.9128, 179.4357
525.3950, 179.5695
525.8771, 179.1651
526.3592, 178.0208
526.8413, 176.1594
527.3234, 173.5846
527.8055, 169.9939
528.2877, 166.0187
528.7698, 162.2871
529.2519, 158.7836
529.7340, 155.2968
530.2161, 151.4202
530.6982, 147.7249
531.1804, 144.6033
531.6625, 142.2146
532.1446, 140.0862
532.6267, 138.1626
533.1088, 136.4051
533.5909, 134.8087
534.0731, 133.0686
534.5552, 131.8619
535.0373, 131.3595
535.5194, 131.3948
536.0015, 131.5527
536.4836, 131.8810
536.9658, 132.2209
537.4479, 132.4328
537.9300, 132.5376
538.4121, 133.1441
538.8942, 134.3157
539.3763, 135.7085
539.8585, 137.0308
540.3406, 138.3149
540.8227, 139.7074
541.3048, 141.2012
541.7869, 142.9499
542.2690, 145.2948
542.7512, 148.0565
543.2333, 150.7879
543.7154, 153.4025
544.1975, 155.8290
544.6796, 157.8898
545.1617, 159.6819
545.6439, 161.5476
546.1260, 163.4956
546.6081, 165.6815
547.0902, 168.2402
547.5723, 171.2255
548.0544, 174.3017
548.5366, 177.2921
549.0187, 180.4612
549.5008, 184.0493
549.9829, 188.2194
550.4650, 192.5155
550.9471, 196.9202
551.4293, 201.4114
551.9114, 206.1101
552.3935, 211.0986
552.8756, 215.9244
553.3577, 220.5709
553.8398, 224.9169
554.3220, 228.2387
554.8041, 230.5237
555.2862, 232.5028
555.7683, 235.1714
556.2504, 237.8854
556.7325, 239.4269
557.2147, 239.6199
557.6968, 238.7154
558.1789, 236.5286
558.6610, 233.4643
559.1431, 230.1445
559.6252, 226.5975
560.1074, 223.0460
560.5895, 219.6408
561.0716, 216.3002
561.5537, 212.8303
562.0358, 208.5874
562.5179, 204.7501
563.0001, 201.8052
563.4822, 199.8316
563.9643, 197.9440
564.4464, 195.9000
564.9285, 194.2841
565.4106, 193.5453
565.8928, 193.7566
566.3749, 194.4944
566.8570, 195.9257
567.3391, 197.4552
567.8212, 197.8966
568.3033, 197.4505
568.7855, 197.5841
569.2676, 198.9929
569.7497, 201.0517
570.2318, 202.9583
570.7139, 204.7163
571.1960, 206.5021
571.6782, 209.0417
572.1603, 211.2056
572.6424, 211.7023
573.1245, 210.3121
573.6066, 209.2889
574.0887, 210.0421
574.5709, 211.1770
575.0530, 211.6198
575.5351, 211.2339
576.0172, 210.1225
576.4993, 208.0252
576.9814, 205.3465
577.4636, 202.8681
577.9457, 200.9848
578.4278, 198.1964
578.9099, 193.8811
579.3920, 188.5406
579.8741, 183.9772
580.3563, 180.2322
580.8384, 177.0091
581.3205, 174.1740
581.8026, 171.6997
582.2847, 169.6258
582.7668, 167.9405
583.2490, 166.6723
583.7311, 166.2619
584.2131, 166.1284
584.6953, 165.3566
585.1774, 163.2267
585.6595, 161.6666
586.1416, 162.1346
586.6237, 163.6979
587.1058, 164.9472
587.5880, 164.9016
588.0701, 165.2263
588.5522, 166.6171
589.0343, 168.7780
589.5164, 170.2821
589.9985, 170.6053
590.4807, 171.1654
590.9628, 172.6934
591.4449, 175.2173
591.9270, 177.0502
592.4091, 177.9935
592.8912, 179.0881
593.3734, 181.3206
593.8555, 184.5436
594.3376, 188.0852
594.8197, 191.9053
595.3018, 195.7439
595.7839, 199.0557
596.2661, 202.1952
596.7482, 205.8512
597.2303, 210.7077
597.7124, 215.7499
598.1945, 220.4533
598.6766, 224.8901
599.1588, 229.2220
599.6409, 234.3136
600.1230, 238.4922
600.6051, 241.0299
601.0872, 241.8632
601.5693, 242.0129
602.0515, 241.9681
602.5336, 240.5702
603.0157, 236.7962
603.4978, 230.1954
603.9799, 223.9109
604.4620, 218.1363
604.9442, 212.2395
605.4263, 205.1160
605.9084, 196.9861
606.3905, 189.7364
606.8726, 183.7228
607.3547, 178.6801
607.8369, 174.2548
608.3190, 170.4859
608.8011, 167.3466
609.2832, 164.9341
609.7653, 163.1013
610.2474, 161.7493
610.7296, 160.8757
611.2117, 160.5900
611.6938, 161.1754
612.1759, 162.1352
612.6580, 163.1547
613.1401, 164.0641
613.6223, 165.8017
614.1044, 168.6500
614.5865, 171.9083
615.0686, 174.8490
615.5507, 177.3586
616.0328, 180.4637
616.5150, 184.2954
616.9971, 188.6332
617.4792, 193.1384
617.9613, 197.8555
618.4434, 202.9850
618.9255, 208.6184
619.4077, 214.6467
619.8898, 221.1305
620.3719, 227.9739
620.8540, 234.9776
621.3361, 241.9083
621.8182, 248.9972
622.3004, 256.1506
622.7825, 263.3540
623.2646, 271.5016
623.7467, 281.0989
624.2288, 291.3640
624.7109, 301.9471
625.1931, 312.9844
625.6752, 324.0313
626.1573, 335.2943
626.6394, 346.3364
627.1215, 356.8185
627.6036, 366.7420
628.0858, 375.7824
628.5679, 383.8881
629.0500, 391.1180
629.5321, 397.9267
630.0142, 403.9684
630.4963, 407.9306
630.9785, 409.3458
631.4606, 408.4981
631.9427, 405.5182
632.4248, 400.4654
632.9069, 393.4908
633.3890, 383.7110
633.8712, 372.9732
634.3533, 361.8759
634.8354, 350.4450
635.3175, 338.8741
635.7996, 326.4774
636.2817, 314.7252
636.7639, 304.3627
637.2460, 295.6955
637.7281, 287.1825
638.2102, 278.7772
638.6923, 270.5064
639.1744, 262.3218
639.6566, 254.3134
640.1387, 246.5407
640.6208, 239.1745
641.1029, 232.0666
641.5850, 224.8232
642.0671, 217.8212
642.5493, 211.6418
643.0314, 207.0272
643.5135, 202.9124
643.9956, 198.9369
644.4777, 195.0634
644.9598, 191.1186
645.4420, 186.4478
645.9241, 182.3690
646.4062, 179.4425
646.8883, 177.6255
647.3704, 175.6368
647.8525, 173.4092
648.3347, 171.1844
648.8168, 169.0242
649.2989, 166.9165
649.7810, 165.6009
650.2631, 165.1705
650.7452, 164.7875
651.2274, 163.5312
651.7095, 161.7591
652.1916, 160.1491
652.6737, 158.8351
653.1558, 157.7686
653.6379, 156.9941
654.1201, 156.4126
654.6022, 155.8886
655.0843, 155.4085
655.5664, 154.9512
656.0485, 154.4500
656.5306, 153.9823
657.0128, 153.7208
657.4949, 153.7990
657.9770, 153.8284
658.4591, 153.6872
658.9412, 153.4291
659.4233, 153.2712
659.9055, 153.2126
660.3876, 153.2734
660.8697, 153.4680
661.3518, 153.7903
661.8339, 154.3343
662.3160, 155.0752
662.7982, 155.6344
663.2803, 155.4060
663.7624, 155.0647
664.2445, 155.4046
664.7266, 156.6892
665.2087, 157.6304
665.6909, 157.2747
666.1730, 156.7055
666.6551, 156.8667
667.1372, 158.5299
667.6193, 159.5900
668.1014, 159.7954
668.5836, 159.6344
669.0657, 159.7810
669.5478, 160.2649
670.0299, 160.6765
670.5120, 160.9114
670.9941, 161.0719
671.4763, 161.3975
671.9584, 161.8220
672.4405, 162.0940
672.9226, 162.1175
673.4047, 161.9312
673.8868, 161.4455
674.3690, 160.7539
674.8511, 160.1724
675.3332, 159.9490
675.8153, 159.7452
676.2974, 159.3946
676.7795, 158.8828
677.2617, 158.4270
677.7438, 158.0429
678.2259, 157.6852
678.7080, 157.3916
679.1901, 157.1810
679.6722, 156.5761
680.1544, 155.5224
680.6365, 154.3533
681.1186, 153.3058
681.6007, 152.3820
682.0828, 151.6058
682.5649, 151.0233
683.0471, 150.3710
683.5292, 149.3470
684.0113, 148.1747
684.4934, 147.1455
684.9755, 146.3864
685.4576, 145.6801
685.9398, 144.8843
686.4219, 144.1334
686.9040, 143.6670
687.3861, 143.8047
687.8682, 143.5713
688.3503, 142.7254
688.8325, 141.4815
689.3146, 140.3262
689.7967, 139.2621
690.2788, 138.4349
690.7609, 137.9521
691.2430, 137.7209
691.7252, 137.6568
692.2073, 137.7146
692.6894, 137.6921
693.1715, 137.5051
693.6536, 137.1679
694.1357, 136.5849
694.6179, 135.7727
695.1000, 135.1608
695.5821, 134.9659
696.0642, 134.8977
696.5463, 134.8537
697.0284, 134.8591
697.5106, 134.7036
697.9927, 134.3460
698.4748, 133.9256
698.9569, 133.4680
699.4390, 133.0108
699.9211, 132.9479
700.4033, 133.3483
700.8854, 133.8308
701.3675, 134.1293
701.8496, 134.2231
702.3317, 134.0299
702.8138, 133.4063
703.2960, 132.8345
703.7781, 132.3726
704.2602, 132.1685
704.7423, 132.4032
705.2244, 133.9862
705.7065, 134.8145
706.1887, 134.2879
706.6708, 133.1876
707.1529, 133.0783
707.6350, 134.1858
708.1171, 134.8961
708.5992, 134.7019
709.0814, 133.9766
709.5635, 133.2920
710.0456, 132.7080
710.5277, 132.5179
711.0098, 133.1987
711.4919, 134.0723
711.9741, 134.5380
712.4562, 134.6796
712.9383, 134.8582
713.4204, 135.2234
713.9025, 135.6370
714.3846, 136.0843
714.8668, 136.5616
715.3489, 136.8940
715.8310, 137.0350
716.3131, 137.1311
716.7952, 137.2818
717.2773, 137.4728
717.7595, 137.4285
718.2416, 137.1265
718.7237, 136.9843
719.2058, 137.6039
719.6879, 138.5035
720.1700, 138.8075
720.6522, 138.3968
721.1343, 138.0601
721.6164, 138.3127
722.0985, 138.7969
722.5806, 139.2556
723.0627, 139.7417
723.5449, 139.9668
724.0270, 139.8276
724.5091, 139.5215
724.9912, 139.2469
725.4733, 139.0351
725.9554, 138.6183
726.4376, 137.9313
726.9197, 137.1593
727.4018, 136.4860
727.8839, 135.9379
728.3660, 135.6514
728.8481, 135.7926
729.3303, 135.8784
729.8124, 135.4121
730.2945, 134.6421
730.7766, 133.9519
731.2587, 133.6552
731.7408, 133.2057
732.2230, 132.1899
732.7051, 131.0112
733.1872, 130.4892
733.6693, 130.9010
734.1514, 131.1789
734.6335, 131.0459
735.1157, 130.6516
735.5978, 130.3953
736.0799, 130.2522
736.5620, 130.0072
737.0441, 129.5045
737.5262, 128.8953
738.0084, 128.1788
738.4905, 127.4662
738.9726, 127.1353
739.4547, 127.6301
739.9368, 128.2717
740.4189, 128.8503
740.9011, 129.3406
741.3832, 129.5956
741.8653, 129.4875
742.3474, 129.3765
742.8295, 129.4346
743.3116, 129.6272
743.7938, 129.5748
744.2759, 129.2612
744.7580, 129.2063
745.2401, 130.1754
745.7222, 131.4524
746.2043, 131.7574
746.6865, 131.0975
747.1686, 130.6382
747.6507, 131.1925
748.1328, 132.0418
748.6149, 132.7329
749.0970, 133.1727
749.5792, 133.6081
750.0613, 133.9002
750.5434, 134.3777
751.0255, 135.3446
751.5076, 136.8557
751.9897, 138.1572
752.4719, 139.2650
752.9540, 140.0601
753.4361, 140.2055
753.9182, 140.0291
754.4003, 140.2557
754.8824, 141.0254
755.3646, 141.8069
755.8467, 142.2274
756.3288, 142.5017
756.8109, 142.8245
757.2930, 143.3086
757.7751, 143.6800
758.2573, 143.8652
758.7394, 143.9961
759.2215, 144.2489
759.7036, 144.6842
760.1857, 144.7633
760.6678, 144.3559
761.1500, 143.8713
761.6321, 143.8366
762.1142, 144.1359
762.5963, 144.5301
763.0784, 145.0412
763.5605, 145.3977
764.0427, 145.2355
764.5248, 144.8716
765.0069, 144.7041
765.4890, 145.1300
765.9711, 145.3277
766.4532, 144.9588
766.9354, 144.5310
767.4175, 144.9021
767.8996, 146.2562
768.3817, 147.2722
768.8638, 147.7255
769.3459, 147.7614
769.8281, 147.4187
770.3102, 146.8287
770.7923, 146.4011
771.2744, 146.4619
771.7565, 146.4337
772.2386, 145.5619
772.7208, 144.3999
773.2029, 143.9115
773.6850, 145.1191
774.1671, 146.0032
774.6492, 146.1344
775.1313, 145.8504
775.6135, 145.8574
776.0956, 146.1811
776.5777, 146.6522
777.0598, 147.3731
777.5419, 147.9905
778.0240, 147.7276
778.5062, 146.8123
778.9883, 145.9522
779.4704, 145.4824
779.9525, 145.1599
780.4346, 144.7870
780.9167, 144.4525
781.3989, 144.3667
781.8810, 145.1213
782.3631, 145.4227
782.8452, 144.7811
783.3273, 143.6235
783.8094, 143.3260
784.2916, 143.9931
784.7737, 144.4685
785.2558, 144.3456
785.7379, 143.7968
786.2200, 142.9292
786.7021, 141.8692
787.1843, 141.0871
787.6664, 141.1132
788.1485, 141.1632
788.6306, 140.7131
789.1127, 139.9091
789.5948, 139.3494
790.0770, 139.3477
790.5591, 139.2101
791.0412, 138.7701
791.5233, 138.0789
792.0054, 137.2930
792.4875, 136.4173
792.9697, 135.4329
793.4518, 134.1317
793.9339, 132.9004
794.4160, 132.6513
794.8981, 133.0661
795.3802, 133.0868
795.8624, 131.9187
796.3445, 130.5301
796.8266, 129.3997
797.3087, 128.4603
797.7908, 127.2508
798.2729, 125.5553
798.7551, 123.9948
799.2372, 122.6732
799.7193, 121.6299
800.2014, 121.1807
800.6835, 121.2711
801.1656, 121.0851
801.6478, 119.9681
802.1299, 118.5436
802.6120, 117.5172
803.0941, 116.7936
803.5762, 116.0494
804.0583, 115.1178
804.5405, 114.1876
805.0226, 113.2428
805.5047, 112.3420
805.9868, 111.7650
806.4689, 111.6053
806.9510, 111.5065
807.4332, 111.4129
807.9153, 111.2510
808.3974, 110.7087
808.8795, 109.8615
809.3616, 109.1351
809.8438, 108.9465
810.3259, 108.8175
810.8080, 108.2274
811.2901, 107.3611
811.7722, 106.8099
812.2543, 107.0234
812.7365, 107.2463
813.2186, 107.3761
813.7007, 107.3648
814.1828, 106.9841
814.6649, 106.1841
815.1470, 105.3762
815.6292, 104.6601
816.1113, 104.0921
816.5934, 103.8628
817.0755, 103.8908
817.5576, 103.9104
818.0397, 103.7104
818.5219, 103.5508
819.0040, 103.6719
819.4861, 103.9505
819.9682, 103.9626
820.4503, 103.4736
820.9324, 103.1050
821.4146, 103.0359
821.8967, 103.1382
822.3788, 103.0653
822.8609, 102.8319
823.3430, 102.6594
823.8251, 102.7006
824.3073, 102.7437
824.7894, 102.4956
825.2715, 102.0585
825.7536, 101.6427
826.2357, 101.1943
826.7178, 100.9331
827.2000, 101.0481
827.6821, 101.3631
828.1642, 101.5650
828.6463, 101.6327
829.1284, 101.6588
829.6105, 101.6417
830.0927, 101.6308
830.5748, 101.7695
831.0569, 101.9994
831.5390, 102.1172
832.0211, 102.0223
832.5032, 101.8485
832.9854, 101.5563
833.4675, 101.2852
833.9496, 101.2547
834.4317, 101.9809
834.9138, 102.2679
835.3959, 101.8080
835.8781, 101.0963
836.3602, 100.9323
836.8423, 101.3161
837.3244, 101.5836
837.8065, 101.5747
838.2886, 101.5257
838.7708, 101.6598
839.2529, 101.9606
839.7350, 102.4313
840.2171, 103.2354
840.6992, 103.8754
841.1813, 104.1274
841.6635, 104.1692
842.1456, 104.2172
842.6277, 104.3666
843.1098, 104.1723
843.5919, 103.5113
844.0740, 102.7718
844.5562, 102.4152
845.0383, 102.3624
845.5204, 102.3863
846.0025, 102.4493
846.4846, 102.6116
846.9667, 103.1398
847.4489, 103.6576
847.9310, 103.7706
848.4131, 103.2152
848.8952, 102.8122
849.3773, 102.5872
849.8594, 102.5105
850.3416, 102.5701
850.8237, 102.7646
851.3058, 103.1068
851.7879, 103.6141
852.2700, 104.0434
852.7521, 104.0135
853.2343, 103.9016
853.7164, 104.2826
854.1985, 105.2345
854.6806, 105.8761
855.1627, 105.6088
855.6448, 105.2340
856.1270, 105.1609
856.6091, 105.3955
857.0912, 105.5665
857.5733, 105.6608
858.0554, 105.7519
858.5375, 105.8602
859.0197, 106.0059
859.5018, 106.2954
859.9839, 106.6916
860.4660, 106.9792
860.9481, 106.8500
861.4302, 106.7552
861.9124, 106.9952
862.3945, 107.5439
862.8766, 107.9672
863.3587, 108.2161
863.8408, 108.4372
864.3229, 108.6715
864.8051, 108.9176
865.2872, 109.2012
865.7693, 109.5036
866.2514, 109.6965
866.7335, 109.5627
867.2156, 109.4448
867.6978, 109.7642
868.1799, 110.2900
868.6620, 110.4982
869.1441, 109.6638
869.6262, 109.3306
870.1083, 109.9524
870.5905, 110.9902
871.0726, 111.2885
871.5547, 110.8742
872.0368, 110.6442
872.5189, 110.8952
873.0010, 111.2003
873.4832, 110.8158
873.9653, 110.2199
874.4474, 110.2282
874.9295, 111.5418
875.4116, 112.6472
875.8937, 113.0275
876.3759, 113.1541
876.8580, 113.5134
877.3401, 114.2334
877.8222, 114.3401
878.3043, 113.6341
878.7864, 112.8942
879.2686, 113.1182
879.7507, 113.8394
880.2328, 114.1684
880.7149, 113.9386
881.1970, 113.7327
881.6791, 113.8314
882.1613, 114.0661
882.6434, 114.3451
883.1255, 114.6807
883.6076, 114.9325
884.0897, 115.0830
884.5718, 115.2121
885.0540, 115.4222
885.5361, 115.6503
886.0182, 115.6850
886.5003, 115.5361
886.9824, 115.2885
887.4645, 114.4675
887.9467, 114.0304
888.4288, 114.9570
888.9109, 117.0656
889.3930, 118.2251
889.8751, 117.9402
890.3572, 117.6401
890.8394, 117.7958
891.3215, 118.2232
891.8036, 118.4625
892.2857, 118.5148
892.7678, 118.3804
893.2499, 117.8227
893.7321, 117.3700
894.2142, 117.6673
894.6963, 118.3046
895.1784, 118.4859
895.6605, 117.5428
896.1426, 116.8862
896.6248, 116.5723
897.1069, 116.6641
897.5890, 117.4622
898.0711, 118.8736
898.5532, 119.9032
899.0353, 120.3489
899.5175, 120.5337
899.9996, 120.6267
900.4817, 120.7082
900.9638, 120.8861
901.4459, 121.2429
901.9280, 121.5037
902.4102, 121.5045
902.8923, 121.5652
903.3744, 121.9868
903.8565, 122.7844
904.3386, 123.1565
904.8207, 123.0776
905.3029, 123.1320
905.7850, 124.0322
906.2671, 125.1397
906.7492, 125.7563
907.2313, 125.8643
907.7134, 125.8801
908.1956, 125.5634
908.6777, 125.6087
909.1598, 126.4117
909.6419, 127.7540
910.1240, 128.4871
910.6061, 128.5995
911.0883, 128.7342
911.5704, 129.1330
912.0525, 129.7343
912.5346, 130.5341
913.0167, 131.4716
913.4988, 132.4151
913.9810, 133.2647
914.4631, 134.1841
914.9452, 135.1873
915.4273, 136.2883
915.9094, 137.5598
916.3915, 139.0126
916.8737, 140.3679
917.3558, 141.5971
917.8379, 142.6680
918.3200, 143.1675
918.8021, 143.6359
919.2842, 145.0717
919.7664, 147.9686
920.2485, 150.3150
920.7306, 150.5957
921.2127, 150.9249
921.6948, 152.7139
922.1769, 156.1129
922.6591, 158.5943
923.1412, 160.0692
923.6233, 161.5839
924.1054, 163.9377
924.5875, 166.7589
925.0696, 169.5853
925.5518, 172.4263
926.0339, 175.4290
926.5160, 178.7587
926.9981, 182.0932
927.4802, 185.0393
927.9623, 187.9363
928.4445, 192.0102
928.9266, 197.3597
929.4087, 202.9075
929.8908, 208.4228
930.3729, 213.9455
930.8550, 219.4109
931.3372, 224.9948
931.8193, 230.8945
932.3014, 237.3160
932.7835, 243.9117
933.2656, 250.5187
933.7477, 257.3970
934.2299, 264.9657
934.7120, 273.2607
935.1941, 281.5262
935.6762, 289.6359
936.1583, 298.2450
936.6404, 308.5204
937.1226, 319.2649
937.6047, 328.4704
938.0868, 335.9669
938.5689, 343.9985
939.0510, 354.1960
939.5331, 364.0463
940.0153, 372.5902
940.4974, 379.9660
940.9795, 387.4206
941.4616, 395.0156
941.9437, 402.2921
942.4258, 409.2324
942.9080, 415.4385
943.3901, 420.7080
943.8722, 424.7298
944.3543, 426.8354
944.8364, 425.7276
945.3185, 424.0588
945.8007, 422.1733
946.2828, 420.0356
946.7649, 417.6300
947.2470, 414.9524
947.7291, 411.7162
948.2112, 407.8835
948.6934, 403.5158
949.1755, 397.9466
949.6576, 392.2399
950.1397, 387.4435
950.6218, 383.7508
951.1039, 380.7089
951.5861, 378.2061
952.0682, 376.3309
952.5503, 375.1597
953.0324, 374.6632
953.5145, 374.6884
953.9966, 375.2271
954.4788, 376.1389
954.9609, 377.3218
955.4430, 378.8741
955.9251, 380.5922
956.4072, 382.7488
956.8893, 386.1054
957.3715, 390.7560
957.8536, 396.5845
958.3357, 403.6227
958.8178, 411.6656
959.2999, 420.3447
959.7820, 429.7427
960.2642, 439.8860
960.7463, 450.7806
961.2284, 462.9448
961.7105, 476.7635
962.1926, 492.1339
962.6747, 509.2457
963.1569, 528.3676
963.6390, 548.0791
964.1211, 567.8917
964.6032, 590.0616
965.0853, 615.7973
965.5674, 644.5901
966.0496, 674.3525
966.5317, 705.1449
967.0138, 738.6138
967.4959, 776.6953
967.9780, 816.2741
968.4601, 854.0717
968.9423, 892.3030
969.4244, 934.4611
969.9065, 981.2960
970.3886, 1030.503
970.8707, 1082.386
971.3528, 1135.816
971.8350, 1189.556
972.3171, 1244.415
972.7992, 1303.422
973.2813, 1368.376
973.7634, 1434.077
974.2455, 1499.836
974.7277, 1564.756
975.2098, 1628.198
975.6919, 1690.192
976.1740, 1749.450
976.6561, 1806.272
977.1382, 1853.445
977.6204, 1888.629
978.1025, 1910.704
978.5846, 1918.801
979.0667, 1912.909
979.5488, 1892.843
980.0309, 1855.223
980.5131, 1806.533
980.9952, 1745.656
981.4773, 1676.914
981.9594, 1605.754
982.4415, 1532.902
982.9236, 1461.104
983.4058, 1391.747
983.8879, 1324.677
984.3700, 1259.435
984.8521, 1196.916
985.3342, 1137.735
985.8163, 1082.035
986.2985, 1031.276
986.7806, 986.6116
987.2627, 944.0314
987.7448, 900.4858
988.2269, 857.3711
988.7090, 819.1137
989.1912, 785.2220
989.6733, 753.6162
990.1554, 723.2795
990.6375, 694.7428
991.1196, 668.6351
991.6017, 644.9598
992.0839, 624.0930
992.5660, 606.3760
993.0481, 589.8953
993.5302, 574.3254
994.0123, 560.1434
994.4944, 547.8636
994.9766, 537.2558
995.4587, 528.3689
995.9408, 521.3601
996.4229, 514.4119
996.9050, 506.4356
997.3871, 498.8875
997.8693, 492.2616
998.3514, 486.5822
998.8335, 482.5612
999.3156, 480.1478
999.7977, 478.1891
1000.280, 476.2230
1000.762, 474.4971
1001.244, 473.2240
1001.726, 472.3755
1002.208, 471.9004
1002.690, 472.0186
1003.173, 472.0644
1003.655, 471.7657
1004.137, 471.9164
1004.619, 473.6568
1005.101, 476.5303
1005.583, 479.1031
1006.065, 481.2716
1006.547, 482.4688
1007.029, 481.0171
1007.512, 479.7555
1007.994, 480.7924
1008.476, 483.5132
1008.958, 485.1915
1009.440, 485.6999
1009.922, 485.9512
1010.404, 486.3287
1010.886, 486.3362
1011.369, 485.2101
1011.851, 483.2508
1012.333, 480.9579
1012.815, 478.4131
1013.297, 475.5848
1013.779, 472.1806
1014.261, 468.8484
1014.743, 466.2206
1015.225, 464.2130
1015.708, 461.4153
1016.190, 457.8634
1016.672, 454.0919
1017.154, 449.9655
1017.636, 446.2455
1018.118, 444.0768
1018.600, 442.7949
1019.082, 440.0465
1019.565, 434.8601
1020.047, 430.6310
1020.529, 428.0921
1021.011, 426.1547
1021.493, 423.3854
1021.975, 420.0237
1022.457, 416.4721
1022.939, 412.7456
1023.421, 409.2977
1023.904, 406.1548
1024.386, 403.5455
1024.868, 401.5029
1025.350, 400.0234
1025.832, 399.1364
1026.314, 398.8412
1026.796, 398.8327
1027.278, 399.2385
1027.760, 399.5245
1028.243, 399.4387
1028.725, 398.7938
1029.207, 397.2528
1029.689, 394.5927
1030.171, 391.2327
1030.653, 387.0917
1031.135, 382.4091
1031.617, 377.0127
1032.100, 371.3490
1032.582, 366.2704
1033.064, 361.8477
1033.546, 358.4332
1034.028, 356.2423
1034.510, 355.0261
1034.992, 354.7105
1035.474, 355.2649
1035.957, 356.7186
1036.439, 359.0841
1036.921, 362.6075
1037.403, 367.7050
1037.885, 372.8088
1038.367, 376.4377
1038.849, 378.8563
1039.331, 380.3282
1039.813, 380.9793
1040.296, 380.3368
1040.778, 378.6847
1041.260, 375.2712
1041.742, 369.4547
1042.224, 361.6420
1042.706, 352.8912
1043.188, 343.5244
1043.670, 334.3011
1044.152, 326.3133
1044.635, 317.8452
1045.117, 307.4416
1045.599, 296.6608
1046.081, 287.6169
1046.563, 280.4313
1047.045, 273.1354
1047.527, 265.5446
1048.009, 258.3752
1048.492, 252.4643
1048.974, 247.2827
1049.456, 242.3622
1049.938, 237.6459
1050.420, 233.1292
1050.902, 228.3151
1051.384, 224.5397
1051.866, 222.3990
1052.349, 221.0488
1052.831, 218.9625
1053.313, 216.3297
1053.795, 213.6300
1054.277, 210.9654
1054.759, 208.3901
1055.241, 206.4222
1055.723, 204.0658
1056.205, 200.3098
1056.688, 195.2350
1057.170, 192.5015
1057.652, 192.1045
1058.134, 191.7748
1058.616, 190.3673
1059.098, 188.4324
1059.580, 185.8819
1060.062, 183.3157
1060.544, 181.9408
1061.027, 182.7199
1061.509, 182.9154
1061.991, 182.1709
1062.473, 181.5568
1062.955, 182.4837
1063.437, 184.1893
1063.919, 185.0549
1064.401, 185.0349
1064.884, 184.6774
1065.366, 184.1381
1065.848, 183.3584
1066.330, 182.2023
1066.812, 180.9129
1067.294, 180.0890
1067.776, 179.6889
1068.258, 179.2288
1068.740, 178.6386
1069.223, 177.8304
1069.705, 176.0821
1070.187, 174.5544
1070.669, 174.6192
1071.151, 176.4308
1071.633, 176.8978
1072.115, 175.8195
1072.597, 174.3209
1073.079, 172.5315
1073.562, 171.0861
1074.044, 171.2941
1074.526, 172.4664
1075.008, 173.3130
1075.490, 173.0501
1075.972, 173.1851
1076.454, 173.9139
1076.936, 174.9176
1077.419, 176.0196
1077.901, 177.1928
1078.383, 178.3130
1078.865, 179.3979
1079.347, 180.5175
1079.829, 181.3763
1080.311, 182.6472
1080.793, 185.0520
1081.275, 187.8782
1081.758, 190.0110
1082.240, 191.4355
1082.722, 192.7206
1083.204, 193.9479
1083.686, 194.9409
1084.168, 195.8592
1084.650, 196.2663
1085.132, 195.5465
1085.615, 193.7103
1086.097, 192.2263
1086.579, 191.4350
1087.061, 190.0828
1087.543, 187.7949
1088.025, 184.8766
1088.507, 181.6703
1088.989, 178.2775
1089.471, 174.7803
1089.953, 171.0027
1090.436, 167.9096
1090.918, 166.2714
1091.400, 164.5481
1091.882, 161.6475
1092.364, 158.0423
1092.846, 156.0364
1093.328, 155.3862
1093.810, 154.8637
1094.293, 153.9406
1094.775, 152.9754
1095.257, 151.7273
1095.739, 150.7978
1096.221, 150.9496
1096.703, 152.3651
1097.185, 153.1703
1097.667, 153.3146
1098.150, 153.5903
1098.632, 154.6719
1099.114, 156.0558
1099.596, 157.2131
1100.078, 158.3221
1100.560, 160.0768
1101.042, 162.8967
1101.524, 165.0367
1102.006, 166.1358
1102.489, 167.0144
1102.971, 168.3271
1103.453, 170.2227
1103.935, 173.1574
1104.417, 177.1477
1104.899, 180.8303
1105.381, 183.8674
1105.863, 186.6336
1106.345, 189.2118
1106.828, 191.5968
1107.310, 193.9214
1107.792, 196.0052
1108.274, 197.1702
1108.756, 197.1785
1109.238, 196.7199
1109.720, 196.2098
1110.202, 195.2147
1110.685, 193.5451
1111.167, 191.2017
1111.649, 188.1523
1112.131, 184.4693
1112.613, 180.7287
1113.095, 177.3629
1113.577, 173.8334
1114.059, 169.5969
1114.542, 165.1276
1115.024, 160.9419
1115.506, 156.9584
1115.988, 153.6720
1116.470, 151.1533
1116.952, 148.6169
1117.434, 145.2927
1117.916, 141.8726
1118.398, 138.9912
1118.880, 136.6237
1119.363, 134.7652
1119.845, 133.8665
1120.327, 132.3094
1120.809, 129.7916
1121.291, 127.2803
1121.773, 125.9202
1122.255, 125.1564
1122.737, 123.9945
1123.220, 122.4529
1123.702, 121.0417
1124.184, 119.8380
1124.666, 118.9916
1125.148, 118.6978
1125.630, 118.5295
1126.112, 117.7912
1126.594, 116.6120
1127.077, 115.2013
1127.559, 113.5576
1128.041, 112.5347
1128.523, 113.2757
1129.005, 113.9265
1129.487, 113.7458
1129.969, 112.8571
1130.451, 111.2939
1130.933, 109.2188
1131.416, 108.0884
1131.898, 108.5525
1132.380, 108.8582
1132.862, 107.4117
1133.344, 105.6501
1133.826, 104.7284
1134.308, 104.6195
1134.790, 104.5314
1135.272, 104.4649
1135.755, 104.2669
1136.237, 103.7844
1136.719, 103.3014
1137.201, 103.2523
1137.683, 103.2828
1138.165, 102.8815
1138.647, 101.8984
1139.129, 100.9912
1139.612, 100.1056
1140.094, 99.67791
1140.576, 100.5571
1141.058, 101.5745
1141.540, 100.9170
1142.022, 99.31604
1142.504, 98.34023
1142.986, 98.78886
1143.469, 98.91161
1143.951, 98.61600
1144.433, 98.15298
1144.915, 97.55187
1145.397, 97.02103
1145.879, 97.16685
1146.361, 97.77444
1146.843, 97.93486
1147.325, 96.61192
1147.807, 95.97927
1148.290, 96.61118
1148.772, 97.43716
1149.254, 96.95919
1149.736, 95.67825
1150.218, 94.91467
1150.700, 94.72086
1151.182, 94.49712
1151.664, 93.78951
1152.147, 93.27486
1152.629, 93.18758
1153.111, 93.33255
1153.593, 93.38708
1154.075, 93.36229
1154.557, 93.35341
1155.039, 93.38734
1155.521, 93.18664
1156.004, 92.01583
1156.486, 91.25498
1156.968, 91.79722
1157.450, 93.06517
1157.932, 93.19919
1158.414, 92.34120
1158.896, 91.46915
1159.378, 90.80338
1159.860, 90.25845
1160.343, 89.61401
1160.825, 89.24104
1161.307, 89.51944
1161.789, 90.31688
1162.271, 90.54042
1162.753, 90.22161
1163.235, 90.13508
1163.717, 90.69461
1164.199, 91.21938
1164.682, 91.13090
1165.164, 90.73816
1165.646, 90.28407
1166.128, 89.76619
1166.610, 89.50156
1167.092, 89.49584
1167.574, 89.63282
1168.056, 89.92407
1168.539, 90.23210
1169.021, 90.44868
1169.503, 90.59998
1169.985, 90.74520
1170.467, 90.95712
1170.949, 90.81626
1171.431, 90.28242
1171.913, 89.78242
1172.396, 89.59597
1172.878, 89.58208
1173.360, 89.70972
1173.842, 89.87038
1174.324, 89.81636
1174.806, 89.31632
1175.288, 89.31003
1175.770, 89.94719
1176.252, 90.38548
1176.734, 89.59508
1177.217, 88.49906
1177.699, 88.30992
1178.181, 88.76962
1178.663, 89.08057
1179.145, 89.04067
1179.627, 89.05589
1180.109, 89.15182
1180.591, 89.31572
1181.074, 89.58054
1181.556, 89.87634
1182.038, 90.17357
1182.520, 90.43026
1183.002, 90.45181
1183.484, 90.08015
1183.966, 89.76770
1184.448, 89.56783
1184.931, 89.44808
1185.413, 89.36462
1185.895, 89.33872
1186.377, 89.51419
1186.859, 89.83897
1187.341, 89.81273
1187.823, 89.13789
1188.305, 88.51292
1188.787, 88.04455
1189.270, 87.72383
1189.752, 87.53428
1190.234, 87.48603
1190.716, 87.66582
1191.198, 88.06859
1191.680, 88.32140
1192.162, 88.29317
1192.644, 88.20762
1193.126, 88.09270
1193.609, 87.99500
1194.091, 88.00684
1194.573, 88.08547
1195.055, 88.12917
1195.537, 88.11693
1196.019, 88.24240
1196.501, 88.71486
1196.983, 89.01538
1197.466, 88.94273
1197.948, 88.69371
1198.430, 88.66306
1198.912, 88.71651
1199.394, 88.49776
1199.876, 87.86002
1200.358, 87.64928
1200.840, 88.46819
1201.323, 88.90312
1201.805, 88.25743
1202.287, 87.18621
1202.769, 87.17738
1203.251, 87.75670
1203.733, 87.81597
1204.215, 86.88332
1204.697, 86.56442
1205.179, 87.54860
1205.661, 88.32890
1206.144, 88.07010
1206.626, 87.38469
1207.108, 87.90258
1207.590, 89.02807
1208.072, 89.38692
1208.554, 88.27947
1209.036, 87.50744
1209.518, 87.30960
1210.001, 87.52320
1210.483, 88.22521
1210.965, 89.14075
1211.447, 89.65629
1211.929, 89.83664
1212.411, 89.81008
1212.893, 89.47118
1213.375, 89.34170
1213.858, 89.74326
1214.340, 89.78182
1214.822, 88.60101
1215.304, 86.97746
1215.786, 86.99154
1216.268, 88.01241
1216.750, 88.61638
1217.232, 88.05196
1217.714, 87.78258
1218.197, 88.00194
1218.679, 88.35847
1219.161, 88.80208
1219.643, 89.10548
1220.125, 88.65335
1220.607, 87.69131
1221.089, 86.76034
1221.571, 85.60782
1222.053, 85.46183
1222.536, 86.80542
1223.018, 87.99649
1223.500, 87.59275
1223.982, 86.52094
1224.464, 86.80782
1224.946, 87.85668
1225.428, 88.30698
1225.910, 87.05033
1226.393, 86.42544
1226.875, 86.63644
1227.357, 86.95914
1227.839, 86.88707
1228.321, 86.57331
1228.803, 86.02967
1229.285, 85.48251
1229.767, 85.48397
1230.250, 86.79574
1230.732, 87.34799
1231.214, 86.98708
1231.696, 86.37912
1232.178, 86.01821
1232.660, 85.73337
1233.142, 85.08325
1233.624, 84.35690
1234.106, 84.30968
1234.589, 85.52302
1235.071, 86.05408
1235.553, 85.74448
1236.035, 85.36996
1236.517, 85.49828
1236.999, 85.91105
1237.481, 86.74767
1237.963, 87.59181
1238.445, 87.37451
1238.928, 85.49968
1239.410, 84.58744
1239.892, 84.79208
1240.374, 85.28654
1240.856, 85.51196
1241.338, 85.66959
1241.820, 86.08667
1242.302, 86.52469
1242.785, 86.44442
1243.267, 85.67223
1243.749, 85.25130
1244.231, 85.22762
1244.713, 85.40170
1245.195, 85.81490
1245.677, 86.18415
1246.159, 86.28059
1246.641, 86.18114
1247.124, 86.01004
1247.606, 85.74380
1248.088, 85.74056
1248.570, 86.00962
1249.052, 86.20639
1249.534, 85.97655
1250.016, 85.73898
1250.498, 85.63586
1250.980, 85.75064
1251.463, 86.35022
1251.945, 87.41724
1252.427, 87.66147
1252.909, 87.12142
1253.391, 86.81728
1253.873, 87.98134
1254.355, 88.77678
1254.837, 87.95801
1255.320, 86.75337
1255.802, 86.58579
1256.284, 87.27854
1256.766, 87.77147
1257.248, 88.03860
1257.730, 88.24194
1258.212, 88.53031
1258.694, 88.66086
1259.177, 88.50671
1259.659, 88.28161
1260.141, 88.19442
1260.623, 88.22115
1261.105, 88.30132
1261.587, 88.42324
1262.069, 88.54838
1262.551, 88.93237
1263.033, 88.85538
1263.516, 88.10757
1263.998, 87.17762
1264.480, 86.32786
1264.962, 85.74039
1265.444, 85.96445
1265.926, 86.81257
1266.408, 87.57827
1266.890, 88.15556
1267.372, 88.49961
1267.855, 88.60310
1268.337, 88.49094
1268.819, 87.97118
1269.301, 87.40157
1269.783, 87.28480
1270.265, 87.53340
1270.747, 87.93938
1271.229, 88.68626
1271.712, 88.84802
1272.194, 88.33269
1272.676, 87.61535
1273.158, 86.85399
1273.640, 86.24706
1274.122, 86.01309
1274.604, 86.06202
1275.086, 86.23335
1275.568, 86.56734
1276.051, 86.62085
1276.533, 86.38011
1277.015, 86.32030
1277.497, 87.28399
1277.979, 87.93951
1278.461, 86.96877
1278.943, 85.54434
1279.425, 85.14660
1279.907, 85.75391
1280.390, 86.36015
1280.872, 86.90080
1281.354, 87.00195
1281.836, 85.75794
1282.318, 84.97252
1282.800, 85.72006
1283.282, 86.69463
1283.764, 86.59346
1284.247, 85.74577
1284.729, 85.89476
1285.211, 86.80910
1285.693, 87.59214
1286.175, 88.27018
1286.657, 88.05287
1287.139, 86.43246
1287.621, 84.91167
1288.104, 84.80735
1288.586, 85.51787
1289.068, 85.86263
1289.550, 85.96741
1290.032, 86.13539
1290.514, 86.68137
1290.996, 86.78574
1291.478, 86.38152
1291.960, 85.80131
1292.443, 84.98792
1292.925, 84.39092
1293.407, 84.83144
1293.889, 85.76083
1294.371, 86.24818
1294.853, 86.15376
1295.335, 86.20295
1295.817, 86.40279
1296.299, 86.46896
1296.782, 86.18320
1297.264, 85.82516
1297.746, 85.47454
1298.228, 85.26626
1298.710, 85.34963
1299.192, 85.70706
1299.674, 85.99350
1300.156, 86.21629
1300.639, 86.43973
1301.121, 86.74491
1301.603, 86.93448
1302.085, 86.85319
1302.567, 86.71545
1303.049, 86.61750
1303.531, 86.54516
##END=



