##NAMES=Furutobeite
##RRUFFID=R060937
##IDEAL CHEMISTRY=(Cu^1+^,Ag^1+^)_6_Pb^2+^S^2-^_4_
##LOCALITY=Tsumeb mine, Tsumeb, Otavi District, Oshikoto, Namibia
##OWNER=RRUFF
##SOURCE=William W. Pinch
##DESCRIPTION=Steel gray metallic elongated prisms, associated with quartz, tennantite, and djurleite.
##STATUS=The identification of this mineral is confirmed by single-crystal X-ray diffraction and chemical analysis.
##URL=rruff.info/R060937
##MEASURED CHEMISTRY=(Cu_4.97_Ag_1.07_)Pb_1.03_S_4_ ; (Dark areas are djurleite, Cu_1.89_Ag_0.02_S)
91.00781, 13.52905
91.48993, 13.10179
91.97205, 12.93136
92.45416, 13.15619
92.93628, 13.63073
93.41840, 14.03433
93.90051, 14.29847
94.38263, 14.50196
94.86475, 14.79322
95.34686, 15.17112
95.82898, 15.52854
96.31110, 15.66990
96.79321, 15.63585
97.27533, 15.88178
97.75745, 16.58098
98.23956, 17.62333
98.72168, 18.49797
99.20380, 19.13753
99.68591, 19.79267
100.1680, 20.68495
100.6501, 21.78485
101.1323, 23.23222
101.6144, 25.09456
102.0965, 27.39286
102.5786, 29.86291
103.0607, 32.59010
103.5428, 35.43233
104.0250, 38.18791
104.5071, 40.67902
104.9892, 43.34239
105.4713, 46.31591
105.9534, 49.63677
106.4355, 53.17252
106.9177, 56.97203
107.3998, 60.98543
107.8819, 65.20897
108.3640, 70.00261
108.8461, 74.66920
109.3282, 78.94408
109.8104, 81.76585
110.2925, 85.31110
110.7746, 90.11256
111.2567, 95.94601
111.7388, 101.2553
112.2209, 105.6588
112.7031, 109.5461
113.1852, 113.2345
113.6673, 115.7632
114.1494, 119.0244
114.6315, 123.7236
115.1136, 129.9564
115.5958, 136.4205
116.0779, 142.9771
116.5600, 149.4739
117.0421, 155.7138
117.5242, 161.4019
118.0063, 167.0531
118.4885, 172.9980
118.9706, 179.2824
119.4527, 185.7605
119.9348, 192.7871
120.4169, 199.9155
120.8990, 206.4361
121.3812, 211.7312
121.8633, 216.3275
122.3454, 220.6967
122.8275, 225.0348
123.3096, 228.9330
123.7917, 231.7741
124.2739, 233.7793
124.7560, 235.7603
125.2381, 238.1362
125.7202, 240.8593
126.2023, 243.8159
126.6844, 247.0247
127.1666, 250.4347
127.6487, 254.1017
128.1308, 258.0200
128.6129, 261.8139
129.0950, 265.0146
129.5771, 267.8208
130.0593, 270.9645
130.5414, 274.6770
131.0235, 278.8283
131.5056, 282.8716
131.9877, 285.7537
132.4698, 287.3000
132.9520, 288.7164
133.4341, 290.0234
133.9162, 291.5347
134.3983, 293.3415
134.8804, 295.4272
135.3625, 297.8601
135.8447, 300.8035
136.3268, 303.7331
136.8089, 305.9066
137.2910, 307.2480
137.7731, 308.4200
138.2552, 309.9888
138.7374, 312.1837
139.2195, 312.6865
139.7016, 310.9645
140.1837, 308.0857
140.6658, 306.2655
141.1479, 305.6766
141.6301, 305.6294
142.1122, 305.9262
142.5943, 306.8875
143.0764, 307.2290
143.5585, 306.5297
144.0406, 305.2241
144.5228, 304.9088
145.0049, 306.1764
145.4870, 307.6816
145.9691, 308.7026
146.4512, 309.1973
146.9333, 309.3015
147.4155, 308.8249
147.8976, 307.8576
148.3797, 307.2649
148.8618, 307.0735
149.3439, 307.2275
149.8260, 307.6867
150.3082, 309.0214
150.7903, 310.0274
151.2724, 310.4866
151.7545, 310.3775
152.2366, 310.3878
152.7188, 310.4986
153.2009, 310.7455
153.6830, 311.1559
154.1651, 312.6653
154.6472, 313.4210
155.1293, 312.5775
155.6115, 309.8467
156.0936, 307.8423
156.5757, 307.5381
157.0578, 307.9913
157.5399, 308.1789
158.0220, 307.4062
158.5042, 306.7377
158.9863, 306.7565
159.4684, 307.7426
159.9505, 308.2764
160.4326, 307.3675
160.9147, 305.8370
161.3969, 304.9034
161.8790, 305.7296
162.3611, 306.7276
162.8432, 306.9281
163.3253, 305.8939
163.8074, 305.0189
164.2896, 304.9793
164.7717, 305.5402
165.2538, 306.2375
165.7359, 307.1169
166.2180, 307.8974
166.7001, 308.3740
167.1823, 308.4938
167.6644, 308.3184
168.1465, 307.5292
168.6286, 306.3998
169.1107, 305.7053
169.5928, 306.4639
170.0750, 307.6274
170.5571, 308.0325
171.0392, 307.0130
171.5213, 305.8515
172.0034, 305.8089
172.4855, 306.6485
172.9677, 307.3153
173.4498, 306.9133
173.9319, 305.9828
174.4140, 305.2835
174.8961, 305.0319
175.3782, 305.0705
175.8604, 305.3540
176.3425, 305.8464
176.8246, 306.2354
177.3067, 306.2013
177.7888, 305.9014
178.2709, 305.6739
178.7531, 305.7489
179.2352, 305.8412
179.7173, 305.3820
180.1994, 304.3934
180.6815, 303.4863
181.1636, 303.0241
181.6458, 303.0474
182.1279, 303.7440
182.6100, 305.7240
183.0921, 308.1787
183.5742, 309.4145
184.0563, 309.3759
184.5385, 308.8338
185.0206, 308.3603
185.5027, 307.9672
185.9848, 307.7517
186.4669, 307.8965
186.9490, 308.2228
187.4312, 308.2104
187.9133, 307.8479
188.3954, 307.2185
188.8775, 306.0906
189.3596, 304.5726
189.8417, 303.6946
190.3239, 304.1570
190.8060, 305.6739
191.2881, 306.8124
191.7702, 307.5441
192.2523, 307.9834
192.7344, 308.2403
193.2166, 308.3162
193.6987, 308.2698
194.1808, 308.0854
194.6629, 307.7784
195.1450, 307.5034
195.6271, 307.2654
196.1093, 307.0478
196.5914, 306.7603
197.0735, 306.3788
197.5556, 306.2003
198.0377, 306.4102
198.5198, 307.0108
199.0020, 307.6049
199.4841, 308.2308
199.9662, 308.7765
200.4483, 308.9356
200.9304, 308.5980
201.4125, 308.5295
201.8947, 309.2912
202.3768, 310.9995
202.8589, 311.9869
203.3410, 312.0713
203.8231, 311.6662
204.3052, 311.5732
204.7874, 311.8935
205.2695, 312.1096
205.7516, 311.8945
206.2337, 311.1388
206.7158, 310.7380
207.1979, 310.8115
207.6801, 311.1364
208.1622, 311.2080
208.6443, 310.9127
209.1264, 310.7180
209.6085, 311.0023
210.0906, 312.0368
210.5728, 312.1788
211.0549, 310.9557
211.5370, 309.1529
212.0191, 308.7273
212.5012, 310.2064
212.9833, 311.7579
213.4655, 312.4633
213.9476, 312.0668
214.4297, 311.7820
214.9118, 311.5727
215.3939, 311.5209
215.8760, 311.8779
216.3581, 312.8007
216.8403, 313.7999
217.3224, 314.6847
217.8045, 315.5442
218.2866, 315.9821
218.7687, 315.7930
219.2508, 315.2408
219.7330, 315.0484
220.2151, 315.3116
220.6972, 315.7379
221.1793, 316.1711
221.6614, 316.5434
222.1435, 317.1234
222.6257, 318.0692
223.1078, 319.1765
223.5899, 319.9308
224.0720, 320.3695
224.5541, 320.3992
225.0362, 319.8410
225.5184, 318.1582
226.0005, 317.2837
226.4826, 317.5484
226.9647, 318.5683
227.4468, 319.2837
227.9289, 319.5995
228.4111, 319.7643
228.8932, 319.8861
229.3753, 319.9705
229.8574, 320.0337
230.3395, 320.1945
230.8216, 320.3104
231.3038, 319.8631
231.7859, 318.1934
232.2680, 316.9317
232.7501, 316.9332
233.2322, 319.0146
233.7143, 318.7941
234.1965, 321.1189
234.6786, 322.5109
235.1607, 323.0202
235.6428, 320.0033
236.1249, 321.5398
236.6070, 321.2515
237.0892, 320.8884
237.5713, 323.0658
238.0534, 320.5618
238.5355, 322.6988
239.0176, 322.9833
239.4997, 324.1156
239.9819, 323.4119
240.4640, 323.2753
240.9461, 324.9753
241.4282, 325.6584
241.9103, 324.7433
242.3924, 325.9296
242.8746, 323.3615
243.3567, 324.0878
243.8388, 326.2357
244.3209, 325.4129
244.8030, 326.6327
245.2851, 327.0746
245.7673, 323.9811
246.2494, 327.0360
246.7315, 327.4319
247.2136, 325.0977
247.6957, 327.9418
248.1778, 325.9840
248.6600, 325.7402
249.1421, 326.7863
249.6242, 326.4877
250.1063, 328.3091
250.5884, 328.0882
251.0705, 327.6848
251.5527, 328.0777
252.0348, 326.2140
252.5169, 328.5368
252.9990, 327.9999
253.4811, 328.9551
253.9632, 329.6894
254.4454, 330.1263
254.9275, 330.1245
255.4096, 330.0986
255.8917, 330.2120
256.3738, 330.5307
256.8560, 330.6588
257.3381, 330.4810
257.8202, 330.2116
258.3023, 330.1544
258.7844, 330.2936
259.2665, 330.6982
259.7487, 331.5670
260.2308, 333.0734
260.7129, 333.7174
261.1950, 333.1325
261.6771, 332.0851
262.1592, 331.5788
262.6414, 331.6823
263.1235, 332.1841
263.6056, 333.1923
264.0877, 334.7874
264.5698, 335.7737
265.0519, 336.0154
265.5341, 335.8363
266.0162, 335.5264
266.4983, 334.9646
266.9804, 334.6689
267.4625, 334.8596
267.9446, 335.5250
268.4268, 335.9738
268.9089, 336.1975
269.3910, 336.2064
269.8731, 335.9291
270.3552, 335.2560
270.8373, 334.7482
271.3195, 334.5603
271.8016, 334.6601
272.2837, 334.6840
272.7658, 334.5663
273.2479, 334.5175
273.7300, 334.8082
274.2122, 335.5216
274.6943, 336.0207
275.1764, 336.0261
275.6585, 335.7186
276.1406, 336.2190
276.6227, 337.7899
277.1049, 339.3127
277.5870, 339.7927
278.0691, 339.1447
278.5512, 338.3990
279.0333, 337.5388
279.5154, 336.7852
279.9976, 337.0783
280.4797, 338.6095
280.9618, 340.2049
281.4439, 341.0318
281.9260, 341.0765
282.4081, 341.0092
282.8903, 340.8218
283.3724, 340.6658
283.8545, 340.9927
284.3366, 341.8453
284.8187, 342.7235
285.3008, 343.3137
285.7830, 343.6354
286.2651, 343.8413
286.7472, 343.9280
287.2293, 343.9412
287.7114, 343.9472
288.1935, 343.9450
288.6757, 343.9550
289.1578, 343.0880
289.6399, 344.3596
290.1220, 345.1131
290.6041, 345.3762
291.0862, 343.6802
291.5684, 344.5140
292.0505, 344.3339
292.5326, 344.1123
293.0147, 345.3021
293.4968, 343.8911
293.9789, 345.0585
294.4611, 345.1966
294.9432, 346.1591
295.4253, 346.9508
295.9074, 347.2431
296.3895, 345.5671
296.8716, 346.4116
297.3538, 346.2332
297.8359, 346.0040
298.3180, 347.1771
298.8001, 345.7402
299.2822, 346.8725
299.7643, 346.9664
300.2465, 347.5222
300.7286, 347.0488
301.2107, 346.8812
301.6928, 347.7249
302.1749, 347.9944
302.6570, 347.3668
303.1392, 347.8975
303.6213, 346.3333
304.1034, 346.5901
304.5855, 347.6275
305.0676, 347.0054
305.5497, 347.5089
306.0319, 347.5710
306.5140, 345.6599
306.9961, 347.1553
307.4782, 347.1644
307.9603, 345.6476
308.4424, 346.0809
308.9246, 346.1755
309.4067, 346.3083
309.8888, 346.4753
310.3709, 346.6751
310.8530, 346.9380
311.3351, 347.2111
311.8173, 347.4450
312.2994, 347.6243
312.7815, 347.7965
313.2636, 347.9712
313.7457, 348.1608
314.2278, 348.3894
314.7100, 349.0594
315.1921, 349.4901
315.6742, 349.0783
316.1563, 347.5970
316.6384, 346.3758
317.1205, 346.2563
317.6027, 346.6697
318.0848, 346.8968
318.5669, 346.5040
319.0490, 346.0677
319.5311, 345.7238
320.0132, 345.4729
320.4954, 345.5499
320.9775, 346.2509
321.4596, 347.1926
321.9417, 348.0410
322.4238, 348.8621
322.9059, 349.4423
323.3881, 349.7847
323.8702, 349.8726
324.3523, 349.5683
324.8344, 348.3669
325.3165, 347.0898
325.7986, 346.2130
326.2808, 345.8107
326.7629, 345.7716
327.2450, 346.4309
327.7271, 347.5410
328.2092, 348.1193
328.6913, 347.6440
329.1735, 347.0894
329.6556, 346.8162
330.1377, 346.8549
330.6198, 347.1358
331.1019, 347.9903
331.5840, 348.9809
332.0662, 349.2581
332.5483, 348.3566
333.0304, 347.3841
333.5125, 346.6127
333.9946, 345.9611
334.4767, 345.9370
334.9589, 346.9167
335.4410, 348.1523
335.9231, 348.6256
336.4052, 347.9901
336.8873, 347.5180
337.3694, 347.6527
337.8516, 348.3349
338.3336, 348.3651
338.8158, 347.4885
339.2979, 346.5146
339.7800, 346.2330
340.2621, 346.7603
340.7442, 347.2448
341.2263, 347.6018
341.7085, 347.7866
342.1906, 347.4969
342.6727, 346.6415
343.1548, 345.8708
343.6369, 345.7197
344.1190, 346.1428
344.6012, 346.3659
345.0833, 346.2207
345.5654, 345.9973
346.0475, 346.3821
346.5296, 347.3191
347.0117, 347.9854
347.4939, 347.6526
347.9760, 346.6730
348.4581, 346.1697
348.9402, 346.2241
349.4223, 346.5867
349.9044, 347.2604
350.3866, 348.0744
350.8687, 348.4506
351.3508, 347.8069
351.8329, 346.7416
352.3150, 346.2234
352.7971, 346.2375
353.2793, 346.3172
353.7614, 345.9343
354.2435, 345.4027
354.7256, 345.2584
355.2077, 345.8924
355.6898, 346.6670
356.1720, 347.0721
356.6541, 347.1481
357.1362, 347.0780
357.6183, 346.5995
358.1004, 346.2166
358.5826, 346.4944
359.0647, 347.8399
359.5468, 349.0695
360.0289, 349.5400
360.5110, 349.4473
360.9931, 349.1630
361.4753, 348.6888
361.9574, 348.1771
362.4395, 347.6432
362.9216, 347.0487
363.4037, 346.7036
363.8858, 346.8982
364.3680, 347.3147
364.8501, 347.6202
365.3322, 347.5125
365.8143, 347.5301
366.2964, 347.9064
366.7785, 348.6360
367.2607, 349.1748
367.7428, 349.5591
368.2249, 349.6928
368.7070, 349.5083
369.1891, 348.7287
369.6712, 347.9951
370.1534, 347.0882
370.6355, 346.2231
371.1176, 346.1389
371.5997, 347.4993
372.0818, 348.7710
372.5639, 349.3148
373.0461, 348.8835
373.5282, 348.4768
374.0103, 348.0300
374.4924, 347.6472
374.9745, 347.5127
375.4566, 347.6841
375.9388, 347.9122
376.4209, 348.0822
376.9030, 348.2212
377.3851, 348.7383
377.8672, 349.7586
378.3493, 350.8109
378.8315, 351.4614
379.3136, 351.7186
379.7957, 351.7096
380.2778, 351.3199
380.7599, 350.8272
381.2420, 351.0420
381.7242, 351.9598
382.2063, 352.8039
382.6884, 352.9681
383.1705, 352.6206
383.6526, 352.3467
384.1347, 352.2110
384.6169, 352.0813
385.0990, 351.8468
385.5811, 351.4894
386.0632, 350.9705
386.5453, 350.0212
387.0274, 349.0096
387.5096, 348.4947
387.9917, 348.4815
388.4738, 348.5909
388.9559, 348.4888
389.4380, 348.3513
389.9201, 348.4306
390.4023, 349.0567
390.8844, 349.6426
391.3665, 349.6691
391.8486, 349.2925
392.3307, 349.0793
392.8128, 349.7282
393.2950, 350.3488
393.7771, 350.2187
394.2592, 348.8246
394.7413, 347.7397
395.2234, 347.7115
395.7055, 348.2579
396.1877, 348.6356
396.6698, 348.6353
397.1519, 348.4825
397.6340, 348.1676
398.1161, 347.6559
398.5982, 347.3414
399.0804, 347.3752
399.5625, 347.5491
400.0446, 347.7272
400.5267, 348.0809
401.0088, 348.2042
401.4909, 348.0115
401.9731, 347.5679
402.4552, 347.0650
402.9373, 346.2661
403.4194, 345.7997
403.9015, 346.0944
404.3836, 347.4601
404.8658, 348.3089
405.3479, 348.4820
405.8300, 348.3325
406.3121, 348.3770
406.7942, 348.6364
407.2763, 348.9082
407.7585, 349.1371
408.2406, 349.3190
408.7227, 349.3907
409.2048, 349.3225
409.6869, 349.3493
410.1690, 349.8029
410.6512, 350.5729
411.1333, 351.1554
411.6154, 351.4633
412.0975, 351.5332
412.5796, 351.3321
413.0617, 350.9090
413.5439, 350.5005
414.0260, 350.3923
414.5081, 350.3228
414.9902, 349.7718
415.4723, 348.6386
415.9544, 347.7189
416.4366, 347.8504
416.9187, 348.5797
417.4008, 349.2238
417.8829, 349.4626
418.3650, 349.5998
418.8471, 349.8338
419.3293, 350.1354
419.8114, 350.3455
420.2935, 350.3893
420.7756, 350.3188
421.2577, 350.1536
421.7398, 349.8192
422.2220, 349.5434
422.7041, 349.3207
423.1862, 349.1958
423.6683, 349.2440
424.1504, 349.5778
424.6325, 349.9887
425.1147, 350.5521
425.5968, 351.3565
426.0789, 351.5320
426.5610, 350.3971
427.0431, 349.2512
427.5252, 349.2925
428.0074, 351.3456
428.4895, 352.6205
428.9716, 352.5686
429.4537, 351.6053
429.9358, 351.0307
430.4179, 350.9189
430.9001, 350.9263
431.3822, 350.9169
431.8643, 350.8914
432.3464, 350.7590
432.8285, 350.4754
433.3106, 350.2315
433.7928, 350.2377
434.2749, 350.4901
434.7570, 351.0037
435.2391, 352.0349
435.7212, 353.1327
436.2033, 353.2675
436.6855, 352.5202
437.1676, 351.6974
437.6497, 351.3434
438.1318, 351.2950
438.6139, 351.2850
439.0960, 351.2408
439.5782, 351.3459
440.0603, 352.0038
440.5424, 352.8995
441.0245, 353.4353
441.5066, 352.9244
441.9887, 352.3402
442.4709, 352.3959
442.9530, 353.0750
443.4351, 353.4585
443.9172, 352.6567
444.3993, 351.7391
444.8814, 351.5083
445.3636, 352.8019
445.8457, 353.8278
446.3278, 354.3286
446.8099, 354.3879
447.2920, 354.2171
447.7741, 353.3604
448.2563, 352.8064
448.7384, 353.0270
449.2205, 354.2147
449.7026, 354.6353
450.1847, 353.9313
450.6668, 352.9157
451.1490, 352.2630
451.6311, 351.9442
452.1132, 352.1997
452.5953, 353.3408
453.0774, 354.8775
453.5595, 355.3987
454.0417, 354.7996
454.5238, 354.1597
455.0059, 354.1764
455.4880, 354.6893
455.9701, 354.7759
456.4522, 354.3420
456.9344, 353.9160
457.4165, 354.1660
457.8986, 354.8916
458.3807, 355.5137
458.8628, 355.7493
459.3449, 355.9167
459.8271, 356.5455
460.3092, 357.4904
460.7913, 358.1397
461.2734, 357.9420
461.7555, 357.4128
462.2376, 356.1331
462.7198, 357.4150
463.2019, 358.1786
463.6840, 358.4518
464.1661, 356.7660
464.6482, 357.6099
465.1303, 357.4400
465.6125, 357.2286
466.0946, 358.4285
466.5767, 357.0277
467.0588, 358.2052
467.5409, 358.3535
468.0230, 358.9729
468.5052, 358.5722
468.9873, 358.4866
469.4694, 359.4214
469.9515, 359.7911
470.4336, 359.2730
470.9157, 359.9223
471.3979, 358.4858
471.8800, 358.8797
472.3621, 360.0632
472.8442, 359.5964
473.3263, 360.2643
473.8084, 360.5001
474.2906, 359.2148
474.7727, 359.8632
475.2548, 361.0378
475.7369, 361.8161
476.2190, 362.0677
476.7011, 362.0563
477.1833, 362.0630
477.6654, 362.0646
478.1475, 361.9968
478.6296, 361.6376
479.1117, 361.3328
479.5938, 361.5839
480.0760, 362.2986
480.5581, 362.8473
481.0402, 362.7665
481.5223, 362.4388
482.0044, 361.5120
482.4865, 362.7702
482.9687, 363.5102
483.4508, 363.7598
483.9329, 362.0504
484.4150, 362.8707
484.8971, 362.6772
485.3792, 362.4421
485.8614, 363.6184
486.3435, 362.1940
486.8256, 363.3479
487.3077, 363.4726
487.7898, 364.0684
488.2719, 363.6441
488.7541, 364.2886
489.2362, 364.9257
489.7183, 364.8789
490.2004, 364.4712
490.6825, 364.1066
491.1646, 363.7670
491.6468, 363.6358
492.1289, 363.7544
492.6110, 364.1216
493.0931, 364.9124
493.5752, 366.1212
494.0573, 367.1246
494.5395, 367.3698
495.0216, 367.1115
495.5037, 366.7993
495.9858, 366.4430
496.4679, 366.3117
496.9500, 366.8843
497.4322, 367.8176
497.9143, 368.5320
498.3964, 368.8004
498.8785, 368.7918
499.3606, 368.4726
499.8427, 367.9099
500.3249, 367.4279
500.8070, 367.0430
501.2891, 366.8395
501.7712, 366.9309
502.2533, 367.5221
502.7354, 367.8501
503.2176, 367.5916
503.6997, 367.1772
504.1818, 367.0255
504.6639, 367.1402
505.1460, 367.5248
505.6281, 368.3128
506.1103, 369.3477
506.5924, 369.9781
507.0745, 370.1214
507.5566, 370.1335
508.0387, 370.2660
508.5208, 370.4935
509.0030, 370.1355
509.4851, 369.0582
509.9672, 368.1512
510.4493, 368.7689
510.9314, 370.4166
511.4135, 371.3412
511.8957, 370.8385
512.3778, 369.9001
512.8599, 369.6409
513.3420, 369.8988
513.8242, 370.1888
514.3063, 370.1370
514.7884, 370.1168
515.2705, 370.5590
515.7526, 371.4944
516.2347, 372.1332
516.7169, 371.7846
517.1990, 371.2311
517.6811, 371.0760
518.1632, 371.9080
518.6453, 372.4619
519.1274, 372.2717
519.6096, 371.7803
520.0917, 371.8418
520.5738, 372.9223
521.0559, 373.7653
521.5380, 373.9600
522.0201, 373.5565
522.5023, 373.4407
522.9844, 373.6718
523.4665, 374.0338
523.9486, 374.5046
524.4307, 375.0648
524.9128, 375.1008
525.3950, 374.4561
525.8771, 373.6702
526.3592, 373.4334
526.8413, 373.6595
527.3234, 374.0285
527.8055, 374.3802
528.2877, 374.8498
528.7698, 375.8907
529.2519, 377.2866
529.7340, 378.1657
530.2161, 377.5240
530.6982, 376.5224
531.1804, 376.0385
531.6625, 376.2613
532.1446, 376.5595
532.6267, 376.9537
533.1088, 377.2255
533.5909, 377.1684
534.0731, 376.2212
534.5552, 375.6277
535.0373, 375.7314
535.5194, 376.2115
536.0015, 376.1669
536.4836, 375.1297
536.9658, 374.5226
537.4479, 374.9128
537.9300, 376.2522
538.4121, 377.8230
538.8942, 379.7896
539.3763, 381.2292
539.8585, 380.9431
540.3406, 379.2793
540.8227, 378.2428
541.3048, 378.1027
541.7869, 378.5418
542.2690, 379.4748
542.7512, 380.6873
543.2333, 381.6437
543.7154, 382.0712
544.1975, 382.1964
544.6796, 382.1355
545.1617, 381.9119
545.6439, 381.6264
546.1260, 381.2834
546.6081, 380.9269
547.0902, 380.4868
547.5723, 379.8249
548.0544, 379.6682
548.5366, 380.6430
549.0187, 381.8712
549.5008, 382.5693
549.9829, 382.3743
550.4650, 382.3387
550.9471, 382.7152
551.4293, 383.2149
551.9114, 382.9653
552.3935, 381.7016
552.8756, 381.0160
553.3577, 381.9056
553.8398, 383.8648
554.3220, 384.2622
554.8041, 383.0440
555.2862, 381.9020
555.7683, 382.3312
556.2504, 383.7462
556.7325, 385.1927
557.2147, 386.6830
557.6968, 387.4266
558.1789, 385.8572
558.6610, 383.3268
559.1431, 381.8462
559.6252, 383.3312
560.1074, 384.7659
560.5895, 384.7269
561.0716, 383.6417
561.5537, 382.9520
562.0358, 383.3460
562.5179, 383.7794
563.0001, 383.7338
563.4822, 383.0910
563.9643, 383.3160
564.4464, 385.0455
564.9285, 386.7508
565.4106, 387.1531
565.8928, 385.9966
566.3749, 385.2609
566.8570, 385.1557
567.3391, 385.3716
567.8212, 385.3940
568.3033, 385.2749
568.7855, 385.4145
569.2676, 386.1097
569.7497, 386.9729
570.2318, 387.3219
570.7139, 387.2840
571.1960, 387.4483
571.6782, 388.6492
572.1603, 389.8605
572.6424, 390.0608
573.1245, 389.0955
573.6066, 388.3286
574.0887, 388.5207
574.5709, 388.9750
575.0530, 389.1397
575.5351, 388.5093
576.0172, 388.2298
576.4993, 388.4876
576.9814, 389.0372
577.4636, 389.4958
577.9457, 389.8639
578.4278, 390.1319
578.9099, 390.2458
579.3920, 390.2687
579.8741, 390.4135
580.3563, 390.6750
580.8384, 391.1148
581.3205, 392.0406
581.8026, 393.1633
582.2847, 393.4854
582.7668, 392.9669
583.2490, 392.3506
583.7311, 392.2061
584.2132, 392.3550
