##NAMES=Galaxite
##RRUFFID=R140320
##IDEAL CHEMISTRY=Mn^2+^Al_2_O_4_
##LOCALITY=Bald Knob deposit, Bald Knob, Sparta, Alleghany County, North Carolina, USA
##OWNER=RRUFF
##SOURCE=Lyle Gordon
##DESCRIPTION=Dark red-brown granular crystals, associated with alleghanyite, psilomelane, and jacobsite
##STATUS=The identification of this mineral is confirmed by single-crystal X-ray diffraction and chemical analysis.
##URL=rruff.info/R140320
##MEASURED CHEMISTRY=(Mn_0.94_Mg_0.06_Co_0.02_)(Al_1.61_Fe^3+^_0.38_)O_4_
142.6159, 0.0000000E+00
143.0980, 3.1738002E-02
143.5801, 1.470459
144.0623, 2.231079
144.5444, 1.834717
145.0265, 1.177856
145.5086, 0.9273680
145.9907, 0.9779050
146.4728, 1.688599
146.9550, 3.356445
147.4371, 6.062378
147.9192, 8.323242
148.4013, 10.55383
148.8834, 12.13330
149.3655, 12.46521
149.8477, 9.104248
150.3298, 6.880127
150.8119, 7.109253
151.2940, 10.43909
151.7761, 12.95215
152.2583, 14.54224
152.7404, 15.24524
153.2225, 15.13013
153.7046, 12.70813
154.1867, 11.17798
154.6688, 11.88306
155.1510, 15.68726
155.6331, 18.41882
156.1152, 18.58118
156.5973, 16.68945
157.0794, 14.41479
157.5615, 12.60608
158.0437, 10.98145
158.5258, 9.181641
159.0079, 6.702637
159.4900, 5.130005
159.9721, 5.720093
160.4542, 7.353149
160.9364, 8.214355
161.4185, 8.100098
161.9006, 7.868408
162.3827, 8.031128
162.8648, 8.939209
163.3469, 9.363892
163.8291, 8.510620
164.3112, 6.774902
164.7933, 5.056152
165.2754, 3.580322
165.7575, 2.379028
166.2396, 1.515747
166.7218, 1.141602
167.2039, 0.8846440
167.6860, 0.4796140
168.1681, 5.9810001E-03
168.6502, 0.3872070
169.1323, 0.7165530
169.6145, 0.8055420
170.0966, 0.4027100
170.5787, 0.8272710
171.0608, 2.142212
171.5429, 3.038574
172.0250, 3.524170
172.5072, 3.608887
172.9893, 2.828613
173.4714, 1.760864
173.9535, 1.263672
174.4356, 1.924316
174.9177, 2.773193
175.3999, 2.711304
175.8820, 1.812988
176.3641, 0.7633060
176.8462, 0.2331540
177.3283, 1.003052
177.8104, 1.187134
178.2926, 0.4555660
178.7747, 0.7319340
179.2568, 1.927490
179.7389, 3.114868
180.2210, 3.987183
180.7031, 3.933838
181.1853, 3.316162
181.6674, 3.076172
182.1495, 3.609985
182.6316, 4.628540
183.1137, 5.618408
183.5958, 6.605103
184.0780, 7.552856
184.5601, 8.470459
185.0422, 9.312866
185.5243, 10.04773
186.0064, 10.53333
186.4885, 10.98108
186.9707, 12.14636
187.4528, 14.11438
187.9349, 15.79639
188.4170, 15.66357
188.8991, 13.97803
189.3812, 12.79504
189.8634, 13.02344
190.3455, 14.26147
190.8276, 14.86194
191.3097, 15.30151
191.7918, 15.48425
192.2739, 16.53760
192.7561, 18.73438
193.2382, 20.37329
193.7203, 20.66638
194.2024, 19.80847
194.6845, 19.29578
195.1666, 19.14185
195.6488, 19.18518
196.1309, 19.30444
196.6130, 19.48267
197.0951, 19.48560
197.5772, 19.18396
198.0593, 18.55786
198.5415, 18.25378
199.0236, 18.42175
199.5057, 18.66333
199.9878, 18.41687
200.4699, 17.77698
200.9520, 17.15808
201.4342, 16.77979
201.9163, 16.66455
202.3984, 16.78125
202.8805, 17.35852
203.3626, 17.80115
203.8447, 16.96704
204.3269, 14.45667
204.8090, 12.69080
205.2911, 12.83008
205.7732, 14.92932
206.2553, 15.69775
206.7374, 14.51514
207.2196, 12.90063
207.7017, 13.21826
208.1838, 15.95288
208.6659, 18.43896
209.1480, 19.70569
209.6301, 19.62952
210.1123, 20.02832
210.5944, 21.15747
211.0765, 22.39673
211.5586, 22.79089
212.0407, 21.91504
212.5228, 21.33850
213.0050, 21.79492
213.4871, 23.48230
213.9692, 24.23401
214.4513, 23.74500
214.9334, 22.52307
215.4155, 21.16870
215.8977, 19.44250
216.3798, 18.21143
216.8619, 18.00525
217.3440, 19.06335
217.8261, 19.07300
218.3082, 17.57043
218.7904, 15.52087
219.2725, 14.37708
219.7546, 14.74683
220.2367, 14.74939
220.7188, 13.71448
221.2009, 11.42505
221.6831, 9.671997
222.1652, 8.710449
222.6473, 8.063721
223.1294, 7.016357
223.6115, 5.204590
224.0936, 3.726563
224.5758, 2.918579
225.0579, 2.869751
225.5400, 2.892822
226.0221, 2.896118
226.5042, 3.033936
226.9863, 3.642578
227.4685, 5.110352
227.9506, 6.085693
228.4327, 6.104248
228.9148, 4.966187
229.3969, 3.894897
229.8790, 2.606323
230.3612, 1.573730
230.8433, 1.458984
231.3254, 2.809937
231.8075, 4.045898
232.2896, 4.846802
232.7717, 5.198853
233.2539, 5.102417
233.7360, 4.284668
234.2181, 3.233154
234.7002, 2.468628
235.1823, 2.041626
235.6644, 1.893799
236.1466, 2.060669
236.6287, 2.555786
237.1108, 3.746094
237.5929, 6.866821
238.0750, 9.546753
238.5571, 8.901123
239.0393, 2.337036
239.5214, 2.691162
240.0035, 4.393799
240.4856, 2.593750
240.9677, 0.9366460
241.4498, 0.7166750
241.9320, 2.070679
242.4141, 2.815552
242.8962, 2.656860
243.3783, 2.322021
243.8604, 1.571899
244.3425, 0.3823240
244.8247, 0.7591550
245.3068, 3.731812
245.7889, 7.115356
246.2710, 9.109497
246.7531, 9.423218
247.2352, 8.827759
247.7174, 7.034912
248.1995, 4.164063
248.6816, 2.251953
249.1637, 1.636230
249.6458, 1.637573
250.1279, 1.843872
250.6101, 2.667847
251.0922, 2.891724
251.5743, 2.068359
252.0564, 0.4219970
252.5385, 0.3135990
253.0206, 0.1604000
253.5028, 1.179443
253.9849, 2.372192
254.4670, 4.108765
254.9491, 5.082397
255.4312, 4.835571
255.9133, 3.622681
256.3955, 2.833862
256.8776, 2.275757
257.3597, 2.334717
257.8418, 3.431519
258.3239, 6.225830
258.8061, 8.215576
259.2882, 9.252686
259.7703, 9.356445
260.2524, 8.416504
260.7345, 5.788086
261.2166, 3.332031
261.6988, 2.198730
262.1809, 2.951660
262.6630, 3.376343
263.1451, 3.444458
263.6272, 3.151123
264.1093, 2.251221
264.5915, 0.2689210
265.0736, 1.181519
265.5557, 0.9593510
266.0378, 1.706177
266.5199, 2.806274
267.0020, 1.720215
267.4842, 0.5095210
267.9663, 1.722656
268.4484, 1.749756
268.9305, 1.278076
269.4126, 0.3972170
269.8947, 1.092285
270.3769, 1.565430
270.8590, 0.4902340
271.3411, 0.9741210
271.8232, 0.4952390
272.3053, 2.590454
272.7874, 4.901123
273.2696, 4.667236
273.7517, 1.639526
274.2338, 0.5125730
274.7159, 1.736572
275.1980, 3.938477
275.6801, 5.381348
276.1623, 6.048218
276.6444, 6.088989
277.1265, 5.363892
277.6086, 3.949463
278.0907, 3.031372
278.5728, 2.737915
279.0550, 2.644531
279.5371, 2.201172
280.0192, 1.378662
280.5013, 0.8503420
280.9834, 0.8411870
281.4655, 1.283081
281.9477, 2.049438
282.4298, 3.298706
282.9119, 4.105225
283.3940, 2.892822
283.8761, 0.2919920
284.3582, 1.740479
284.8404, 1.6113000E-02
285.3225, 3.646973
285.8046, 4.755615
286.2867, 3.094604
286.7688, 1.258911
287.2509, 1.625854
287.7331, 3.902710
288.2152, 5.527588
288.6973, 6.019287
289.1794, 5.722046
289.6615, 5.074585
290.1436, 4.077637
290.6258, 3.451660
291.1079, 3.987549
291.5900, 5.388428
292.0721, 6.294556
292.5542, 6.436523
293.0363, 6.312012
293.5185, 6.925171
294.0006, 8.163818
294.4827, 8.889404
294.9648, 7.938477
295.4469, 6.010864
295.9290, 5.163208
296.4112, 5.694702
296.8933, 6.500977
297.3754, 5.940674
297.8575, 4.371460
298.3396, 3.008423
298.8217, 2.061401
299.3039, 1.662598
299.7860, 2.291626
300.2681, 4.029297
300.7502, 5.807617
301.2323, 6.520752
301.7144, 6.463013
302.1966, 6.309326
302.6787, 6.390259
303.1608, 6.518799
303.6429, 6.321899
304.1250, 5.826172
304.6071, 5.528564
305.0893, 6.229248
305.5714, 7.313232
306.0535, 7.719360
306.5356, 6.634888
307.0177, 5.262817
307.4998, 4.672485
307.9820, 4.770386
308.4641, 5.088135
308.9462, 5.649536
309.4283, 6.133057
309.9104, 6.088135
310.3925, 5.029663
310.8747, 4.101318
311.3568, 4.504395
311.8389, 5.701294
312.3210, 6.184448
312.8031, 4.069824
313.2852, 1.650513
313.7674, 0.8703610
314.2495, 2.549805
314.7316, 4.320801
315.2137, 5.112427
315.6958, 5.198853
316.1779, 5.039551
316.6601, 4.376587
317.1422, 3.854858
317.6243, 3.956299
318.1064, 4.847046
318.5885, 5.499146
319.0706, 5.527588
319.5528, 5.144775
320.0349, 4.597656
320.5170, 3.128906
320.9991, 2.284546
321.4812, 2.894409
321.9633, 4.989746
322.4455, 6.721313
322.9276, 7.130249
323.4097, 7.347656
323.8918, 8.204590
324.3739, 11.47168
324.8560, 13.43481
325.3382, 12.60718
325.8203, 9.470093
326.3024, 7.577637
326.7845, 8.251709
327.2666, 9.468994
327.7487, 10.24182
328.2309, 10.28662
328.7130, 10.16797
329.1951, 9.854980
329.6772, 9.401855
330.1593, 8.762207
330.6414, 7.619751
331.1236, 6.618530
331.6057, 6.017578
332.0878, 5.998413
332.5699, 5.841919
333.0520, 5.439697
333.5341, 4.984741
334.0163, 4.731812
334.4984, 4.664307
334.9805, 4.890991
335.4626, 5.597046
335.9447, 6.831299
336.4268, 7.557861
336.9090, 7.645996
337.3911, 7.459595
337.8732, 7.292114
338.3553, 7.093262
338.8374, 7.077881
339.3195, 7.230835
339.8017, 7.577515
340.2838, 8.403442
340.7659, 9.853271
341.2480, 11.19446
341.7301, 12.01331
342.2122, 12.24158
342.6944, 11.65076
343.1765, 9.745117
343.6586, 7.505005
344.1407, 7.351074
344.6228, 9.333496
345.1049, 11.18335
345.5871, 11.48083
346.0692, 10.52747
346.5513, 9.896484
347.0334, 9.694702
347.5155, 9.706177
347.9977, 9.578735
348.4798, 9.398682
348.9619, 9.572021
349.4440, 10.77930
349.9261, 12.25391
350.4082, 12.11670
350.8904, 10.35974
351.3725, 8.654053
351.8546, 8.561646
352.3367, 9.536743
352.8188, 10.51721
353.3009, 11.42896
353.7831, 11.86633
354.2652, 10.90088
354.7473, 8.858765
355.2294, 7.274536
355.7115, 7.715698
356.1936, 8.865967
356.6758, 9.307739
357.1579, 8.727905
357.6400, 7.710449
358.1221, 6.435181
358.6042, 5.070923
359.0863, 3.900757
359.5685, 3.107422
360.0506, 2.546875
360.5327, 2.117798
361.0148, 1.798828
361.4969, 1.720093
361.9790, 1.913574
362.4612, 2.383301
362.9433, 3.126831
363.4254, 4.182495
363.9075, 5.480835
364.3896, 7.170898
364.8717, 9.068359
365.3539, 10.42615
365.8360, 10.84851
366.3181, 10.83423
366.8002, 10.67737
367.2823, 9.878174
367.7644, 9.570313
368.2466, 10.21680
368.7287, 11.47852
369.2108, 12.23352
369.6929, 12.17590
370.1750, 11.81702
370.6571, 11.34021
371.1393, 10.79578
371.6214, 10.07629
372.1035, 9.009277
372.5856, 7.837769
373.0677, 7.029297
373.5498, 6.884155
374.0320, 6.477539
374.5141, 5.361206
374.9962, 3.666504
375.4783, 3.279053
375.9604, 4.707886
376.4425, 6.353027
376.9247, 6.899414
377.4068, 6.227661
377.8889, 5.346191
378.3710, 4.260376
378.8531, 3.182373
379.3352, 2.579956
379.8174, 2.446045
380.2995, 2.670898
380.7816, 3.253906
381.2637, 4.154541
381.7458, 5.221191
382.2279, 6.510864
382.7101, 7.685791
383.1922, 8.306763
383.6743, 8.439453
384.1564, 8.414673
384.6385, 8.358398
385.1206, 8.213989
385.6028, 7.834961
386.0849, 7.233887
386.5670, 6.630127
387.0491, 6.316162
387.5312, 6.101074
388.0133, 5.622437
388.4955, 4.646484
388.9776, 3.721680
389.4597, 3.330811
389.9418, 3.393311
390.4239, 3.672119
390.9060, 4.441162
391.3882, 5.141602
391.8703, 5.269653
392.3524, 4.690063
392.8345, 4.047974
393.3166, 3.424194
393.7987, 2.963989
394.2809, 2.862671
394.7630, 3.652588
395.2451, 4.404663
395.7272, 4.691162
396.2093, 4.464966
396.6914, 4.181030
397.1736, 3.701172
397.6557, 3.351074
398.1378, 3.306152
398.6199, 3.403687
399.1020, 4.020752
399.5841, 5.913208
400.0663, 8.315796
400.5484, 9.249878
401.0305, 7.424438
401.5126, 5.785889
401.9947, 5.508423
402.4768, 7.027954
402.9590, 7.493042
403.4411, 6.358276
403.9232, 4.781494
404.4053, 4.211670
404.8874, 5.121094
405.3695, 5.348145
405.8517, 4.013062
406.3338, 1.769165
406.8159, 1.838867
407.2980, 4.725830
407.7801, 7.599609
408.2622, 8.334595
408.7444, 7.096313
409.2265, 5.713989
409.7086, 4.104370
410.1907, 2.937622
410.6728, 3.728271
411.1549, 6.147339
411.6371, 8.100952
412.1192, 8.338379
412.6013, 7.480591
413.0834, 6.561646
413.5655, 5.576294
414.0476, 4.843506
414.5298, 4.940063
415.0119, 5.377441
415.4940, 5.339111
415.9761, 4.424072
416.4582, 3.246704
416.9403, 2.026733
417.4225, 0.9349370
417.9046, 0.4630130
418.3867, 1.764038
418.8688, 3.194946
419.3509, 3.539795
419.8330, 2.525024
420.3152, 1.285156
420.7973, 0.1867680
421.2794, 1.468384
421.7615, 2.081055
422.2436, 1.137817
422.7257, 0.3100590
423.2079, 5.2124001E-02
423.6900, 0.3347170
424.1721, 0.6136470
424.6542, 0.8656010
425.1363, 1.113403
425.6184, 1.431274
426.1006, 2.385132
426.5827, 2.334839
427.0648, 0.5152590
427.5469, 1.909668
428.0290, 2.657837
428.5111, 0.8176270
428.9933, 0.6689450
429.4754, 0.8498540
429.9575, 0.2413330
430.4396, 1.321655
430.9217, 2.517456
431.4038, 3.382935
431.8860, 3.282593
432.3681, 2.204834
432.8502, 1.512207
433.3323, 1.487549
433.8144, 1.847046
434.2965, 2.180420
434.7787, 2.466187
435.2608, 2.446167
435.7429, 1.656860
436.2250, 0.4993900
436.7071, 0.1477050
437.1892, 0.2469480
437.6714, 9.1063999E-02
438.1535, 1.182007
438.6356, 2.580078
439.1177, 3.484497
439.5998, 3.508179
440.0819, 3.125244
440.5641, 2.558594
441.0462, 1.874146
441.5283, 1.298950
442.0104, 0.8846440
442.4925, 0.6735840
442.9746, 0.6514890
443.4568, 0.7493900
443.9389, 1.279419
444.4210, 2.982422
444.9031, 4.921631
445.3852, 5.979126
445.8673, 4.436035
446.3495, 3.510010
446.8316, 4.259155
447.3137, 6.515747
447.7958, 7.950562
448.2779, 8.491089
448.7600, 8.251831
449.2422, 7.145020
449.7243, 4.496094
450.2064, 2.696777
450.6885, 2.091187
451.1706, 2.041870
451.6527, 1.394287
452.1349, 6.5917999E-02
452.6170, 1.003784
453.0991, 0.7635500
453.5812, 0.4071040
454.0633, 0.8505860
454.5454, 0.5318600
455.0276, 8.4839001E-02
455.5097, 7.5195000E-02
455.9918, 0.4229740
456.4739, 0.5649410
456.9560, 0.2500000
457.4381, 5.9810001E-03
457.9203, 0.9716800
458.4024, 2.847900
458.8845, 4.448975
459.3666, 4.165527
459.8488, 3.463135
460.3309, 4.541870
460.8130, 7.332886
461.2951, 9.861084
461.7772, 10.30261
462.2593, 9.854980
462.7415, 9.649536
463.2236, 9.961548
463.7057, 10.65698
464.1878, 12.61865
464.6699, 14.90869
465.1520, 15.69421
465.6342, 12.14966
466.1163, 9.036865
466.5984, 8.363403
467.0805, 10.64612
467.5626, 11.90356
468.0447, 11.09595
468.5269, 9.993896
469.0090, 9.892334
469.4911, 11.77612
469.9732, 12.53308
470.4553, 11.55566
470.9374, 9.590820
471.4196, 8.196655
471.9017, 7.324585
472.3838, 7.253662
472.8659, 8.544678
473.3480, 10.97644
473.8301, 11.93335
474.3123, 11.28674
474.7944, 10.14673
475.2765, 9.338257
475.7586, 8.850708
476.2407, 8.823120
476.7228, 9.456421
477.2050, 10.25647
477.6871, 10.35620
478.1692, 9.997314
478.6513, 9.945068
479.1334, 10.88733
479.6155, 12.08240
480.0977, 12.92737
480.5798, 13.36536
481.0619, 13.59753
481.5440, 13.33240
482.0261, 13.09961
482.5082, 13.43481
482.9904, 15.04431
483.4725, 16.34753
483.9546, 17.14075
484.4367, 17.34741
484.9188, 16.76001
485.4009, 13.89856
485.8831, 11.55029
486.3652, 10.72839
486.8473, 11.57483
487.3294, 11.64954
487.8115, 10.56580
488.2936, 9.250854
488.7758, 8.316528
489.2579, 7.724609
489.7400, 7.654175
490.2221, 8.229858
490.7042, 9.169189
491.1863, 9.851318
491.6685, 10.24719
492.1506, 10.92529
492.6327, 12.36487
493.1148, 14.21802
493.5969, 15.19934
494.0790, 15.32471
494.5612, 14.99243
495.0433, 14.24780
495.5254, 13.35999
496.0075, 12.74451
496.4896, 12.39856
496.9717, 12.58228
497.4539, 14.00208
497.9360, 16.05530
498.4181, 17.57996
498.9002, 18.18652
499.3823, 18.05835
499.8644, 16.91992
500.3466, 14.90515
500.8287, 13.28137
501.3108, 12.57117
501.7929, 12.28174
502.2750, 12.18762
502.7571, 12.53943
503.2393, 12.56299
503.7214, 12.23340
504.2035, 11.57788
504.6856, 10.53601
505.1677, 8.617920
505.6498, 7.381226
506.1320, 7.352417
506.6141, 8.249878
507.0962, 8.415649
507.5783, 7.655762
508.0604, 6.898315
508.5425, 6.831421
509.0247, 7.353027
509.5068, 7.451294
509.9889, 6.998169
510.4710, 6.354858
510.9531, 6.229858
511.4352, 6.426636
511.9174, 6.137939
512.3995, 5.021973
512.8816, 3.462891
513.3637, 1.545532
513.8458, 0.4910890
514.3279, 1.954224
514.8101, 1.621704
515.2922, 1.199341
515.7743, 2.245728
516.2564, 5.105957
516.7385, 6.844238
517.2206, 5.316040
517.7028, 2.883301
518.1849, 1.426636
518.6670, 2.480103
519.1491, 2.946777
519.6312, 2.327271
520.1133, 1.106201
520.5955, 0.2438960
521.0776, 0.1907960
521.5597, 0.2905270
522.0418, 0.1828610
522.5239, 1.184082
523.0060, 0.9802250
523.4882, 0.6893310
523.9703, 2.514893
524.4524, 3.426270
524.9345, 3.511353
525.4166, 3.643677
525.8987, 3.910156
526.3809, 4.218262
526.8630, 4.371216
527.3451, 4.485474
527.8272, 4.891846
528.3093, 6.146118
528.7914, 7.418335
529.2736, 7.855469
529.7557, 7.589111
530.2378, 7.075684
530.7199, 6.718018
531.2020, 6.166382
531.6841, 4.915283
532.1663, 2.580322
532.6484, 1.143555
533.1305, 1.539429
533.6126, 2.845459
534.0947, 4.219849
534.5768, 5.785889
535.0590, 7.119751
535.5411, 7.999023
536.0232, 8.614746
536.5053, 9.624634
536.9874, 11.42261
537.4695, 12.47791
537.9517, 11.93848
538.4338, 9.933472
538.9159, 8.280884
539.3980, 6.908813
539.8801, 6.255249
540.3622, 7.375488
540.8444, 9.675293
541.3265, 10.63892
541.8086, 9.739746
542.2907, 8.310547
542.7728, 7.685913
543.2549, 7.706909
543.7371, 8.024414
544.2192, 9.074219
544.7013, 9.897949
545.1834, 9.756592
545.6655, 8.826904
546.1476, 7.746948
546.6298, 6.019165
547.1119, 4.830200
547.5940, 5.065063
548.0761, 7.329590
548.5582, 8.906128
549.0403, 8.636719
549.5225, 8.239258
550.0046, 9.236694
550.4867, 12.76758
550.9688, 15.05750
551.4509, 15.30298
551.9330, 14.47144
552.4152, 14.76782
552.8973, 16.34436
553.3794, 17.75256
553.8615, 18.34680
554.3436, 18.37891
554.8257, 18.74280
555.3079, 19.42468
555.7900, 20.14636
556.2721, 20.64294
556.7542, 21.05457
557.2363, 21.61914
557.7184, 22.39185
558.2006, 23.20544
558.6827, 24.19434
559.1648, 25.07825
559.6469, 25.53137
560.1290, 24.97424
560.6111, 24.48328
561.0933, 24.32239
561.5754, 24.47046
562.0575, 24.87964
562.5396, 25.37488
563.0217, 26.31616
563.5038, 28.06934
563.9860, 30.70752
564.4681, 32.31677
564.9502, 32.35437
565.4323, 32.34973
565.9144, 33.66980
566.3965, 36.48792
566.8787, 37.91272
567.3608, 37.39319
567.8429, 36.51477
568.3250, 37.80774
568.8071, 40.75244
569.2892, 42.96069
569.7714, 43.12024
570.2535, 42.87439
570.7356, 44.32837
571.2177, 47.11108
571.6998, 49.87988
572.1819, 52.15918
572.6641, 54.22839
573.1462, 56.14233
573.6283, 57.83105
574.1104, 59.34326
574.5925, 60.97571
575.0746, 62.62634
575.5568, 64.16541
576.0389, 65.11572
576.5210, 66.42249
577.0031, 68.45886
577.4852, 70.75586
577.9673, 72.51624
578.4495, 73.42004
578.9316, 75.04504
579.4137, 77.99475
579.8958, 81.60254
580.3779, 84.03577
580.8600, 85.37415
581.3422, 87.17664
581.8243, 90.26648
582.3064, 94.33044
582.7885, 98.77930
583.2706, 103.5735
583.7527, 108.1509
584.2349, 112.5670
584.7170, 116.4131
585.1991, 118.8918
585.6812, 119.2007
586.1633, 120.3710
586.6454, 124.4750
587.1276, 129.8445
587.6097, 134.3860
588.0918, 136.9952
588.5739, 139.5337
589.0560, 142.1647
589.5381, 144.9941
590.0203, 148.3763
590.5024, 152.9301
590.9845, 156.7175
591.4666, 158.8331
591.9487, 159.5603
592.4308, 160.9054
592.9130, 162.8420
593.3951, 164.8196
593.8772, 166.3010
594.3593, 167.6124
594.8414, 169.8309
595.3235, 173.1477
595.8057, 176.3785
596.2878, 178.9675
596.7699, 180.5826
597.2520, 180.5348
597.7341, 176.9982
598.2162, 174.1367
598.6984, 174.9344
599.1805, 177.7535
599.6626, 179.1727
600.1447, 177.4210
600.6268, 175.2926
601.1089, 173.2964
601.5911, 171.4805
602.0732, 170.4850
602.5553, 171.0876
603.0374, 171.1189
603.5195, 169.2081
604.0016, 165.2859
604.4838, 161.8470
604.9659, 158.9446
605.4480, 156.4095
605.9301, 154.0551
606.4122, 151.9249
606.8943, 150.3512
607.3765, 149.6820
607.8586, 148.6272
608.3407, 145.4288
608.8228, 140.9469
609.3049, 136.8193
609.7870, 133.3625
610.2692, 130.6791
610.7513, 129.2592
611.2334, 128.7299
611.7155, 127.7781
612.1976, 125.9978
612.6797, 123.8621
613.1619, 121.6381
613.6440, 119.3375
614.1261, 116.0186
614.6082, 110.9531
615.0903, 106.1396
615.5724, 103.1355
616.0546, 101.9851
616.5367, 100.3104
617.0188, 97.96851
617.5009, 95.27808
617.9830, 92.68054
618.4651, 90.05066
618.9473, 86.95459
619.4294, 83.10120
619.9115, 79.18860
620.3936, 76.00769
620.8757, 73.22363
621.3578, 70.11243
621.8400, 65.70398
622.3221, 61.58350
622.8042, 58.70691
623.2863, 56.86096
623.7684, 54.61914
624.2505, 51.27014
624.7327, 48.11292
625.2148, 45.68201
625.6969, 44.03967
626.1790, 42.26245
626.6611, 40.43420
627.1432, 38.24292
627.6254, 35.13159
628.1075, 31.22742
628.5896, 28.21326
629.0717, 26.39758
629.5538, 24.79272
630.0359, 22.02612
630.5181, 18.70776
631.0002, 16.13342
631.4823, 15.22729
631.9644, 14.32629
632.4465, 11.88696
632.9286, 8.661621
633.4108, 6.163940
633.8929, 4.922119
634.3750, 4.381104
634.8571, 4.651611
635.3392, 5.568359
635.8214, 6.075195
636.3035, 5.938965
636.7856, 5.656616
637.2677, 5.514771
637.7498, 5.473999
638.2319, 4.398193
638.7141, 2.068726
639.1962, 0.2871090
639.6783, 1.679810
640.1604, 2.261963
640.6425, 2.357666
641.1246, 1.864868
641.6068, 1.582642
642.0889, 2.252808
642.5710, 3.524536
643.0531, 4.964355
643.5352, 6.684814
644.0173, 8.088501
644.4995, 9.155273
644.9816, 9.693359
645.4637, 9.384766
645.9458, 7.345825
646.4279, 5.527344
646.9100, 4.363647
647.3922, 3.707031
647.8743, 2.869507
648.3564, 1.697388
648.8385, 1.075439
649.3206, 1.910400
649.8027, 3.664551
650.2849, 3.233765
650.7670, 0.6695560
651.2491, 1.953857
651.7312, 2.996704
652.2133, 3.168213
652.6954, 3.425049
653.1776, 3.885376
653.6597, 4.503296
654.1418, 5.218994
654.6239, 6.145996
655.1060, 7.445679
655.5881, 9.593872
656.0703, 11.27441
656.5524, 11.93286
657.0345, 12.17773
657.5166, 12.65234
657.9987, 13.31946
658.4808, 14.25940
658.9630, 15.65967
659.4451, 17.11475
659.9272, 17.50635
660.4093, 16.88965
660.8914, 16.75647
661.3735, 18.02820
661.8557, 19.91248
662.3378, 21.28552
662.8199, 22.21313
663.3020, 22.87244
663.7841, 23.16040
664.2662, 23.44324
664.7484, 23.98450
665.2305, 24.81360
665.7126, 25.79553
666.1947, 26.62000
666.6768, 27.82825
667.1589, 29.88440
667.6411, 33.28711
668.1232, 35.12146
668.6053, 34.62170
669.0874, 33.67078
669.5695, 34.06445
670.0516, 35.71008
670.5338, 37.23022
671.0159, 38.45325
671.4980, 39.40515
671.9801, 40.12476
672.4622, 40.59521
672.9443, 40.78333
673.4265, 40.75537
673.9086, 40.42310
674.3907, 39.81592
674.8728, 38.94177
675.3549, 37.78369
675.8370, 35.59326
676.3192, 34.11194
676.8013, 34.13635
677.2834, 35.34253
677.7655, 36.67688
678.2476, 38.58643
678.7297, 39.55859
679.2119, 38.47974
679.6940, 35.90320
680.1761, 35.29700
680.6582, 36.67542
681.1403, 38.66199
681.6224, 40.31116
682.1046, 41.85730
682.5867, 43.92920
683.0688, 46.52588
683.5509, 48.46460
684.0330, 48.53918
684.5151, 47.88257
684.9973, 47.43079
685.4794, 47.36499
685.9615, 47.39111
686.4436, 47.55908
686.9257, 47.78406
687.4078, 47.95203
687.8900, 47.89136
688.3721, 48.52271
688.8542, 50.21863
689.3363, 52.14514
689.8184, 52.78699
690.3005, 52.33386
690.7827, 52.33838
691.2648, 53.40503
691.7469, 54.72058
692.2290, 54.97046
692.7111, 54.63782
693.1932, 54.80701
693.6754, 56.47266
694.1575, 58.20044
694.6396, 59.29028
695.1217, 59.84631
695.6038, 60.33606
696.0859, 60.21289
696.5681, 60.74988
697.0502, 62.44958
697.5323, 65.15027
698.0144, 67.68066
698.4965, 70.17651
698.9786, 72.15198
699.4608, 73.08337
699.9429, 73.22498
700.4250, 73.56592
700.9071, 74.11792
701.3892, 74.83997
701.8713, 75.54541
702.3535, 76.54468
702.8356, 78.27783
703.3177, 80.92456
703.7998, 83.79285
704.2819, 86.79321
704.7640, 89.70032
705.2462, 92.25891
705.7283, 93.84924
706.2104, 96.37952
706.6925, 100.2922
707.1746, 104.3787
707.6567, 107.2715
708.1389, 108.9797
708.6210, 110.5431
709.1031, 111.9437
709.5852, 113.3512
710.0673, 114.9116
710.5494, 116.6919
711.0316, 119.0203
711.5137, 122.6895
711.9958, 125.8628
712.4779, 127.2961
712.9600, 127.4684
713.4421, 127.2466
713.9243, 125.7537
714.4064, 125.3148
714.8885, 127.3837
715.3706, 130.7953
715.8527, 131.4807
716.3348, 128.4883
716.8170, 126.0756
717.2991, 125.7015
717.7812, 126.9606
718.2633, 128.8463
718.7454, 131.3097
719.2275, 133.7542
719.7097, 136.2283
720.1918, 138.2582
720.6739, 139.0280
721.1560, 138.6683
721.6381, 138.5795
722.1202, 140.3125
722.6024, 141.7104
723.0845, 141.0968
723.5666, 137.9690
724.0487, 136.8480
724.5308, 138.5507
725.0129, 141.0460
725.4951, 143.3921
725.9772, 145.6519
726.4593, 146.6993
726.9414, 146.3815
727.4235, 146.0652
727.9056, 147.1538
728.3878, 149.1108
728.8699, 150.8774
729.3520, 152.2648
729.8341, 153.8339
730.3162, 156.4374
730.7983, 159.1305
731.2805, 160.9583
731.7626, 160.7354
732.2447, 161.5457
732.7268, 164.1699
733.2089, 167.2740
733.6910, 169.3475
734.1732, 170.1447
734.6553, 171.0275
735.1374, 172.1664
735.6195, 173.5350
736.1016, 175.4200
736.5837, 177.5817
737.0659, 179.2246
737.5480, 180.1462
738.0301, 180.2477
738.5122, 179.2106
738.9943, 177.4020
739.4764, 175.4578
739.9586, 173.8629
740.4407, 171.8583
740.9228, 168.9822
741.4049, 165.6583
741.8870, 162.8429
742.3691, 160.9296
742.8513, 158.6588
743.3334, 155.7449
743.8155, 152.3087
744.2976, 148.4950
744.7797, 144.3550
745.2618, 140.3007
745.7440, 136.5291
746.2261, 132.8938
746.7082, 128.9120
747.1903, 124.9884
747.6724, 121.8949
748.1545, 120.0814
748.6367, 118.6257
749.1188, 117.8617
749.6009, 117.6578
750.0830, 115.3984
750.5651, 109.9877
751.0472, 104.4901
751.5294, 100.1433
752.0115, 96.80005
752.4936, 94.15161
752.9757, 92.24158
753.4578, 90.27991
753.9399, 87.95276
754.4221, 85.14368
754.9042, 81.36389
755.3863, 76.66858
755.8684, 72.61157
756.3505, 70.26868
756.8326, 68.47583
757.3148, 66.58459
757.7969, 64.53430
758.2790, 62.34668
758.7611, 59.78479
759.2432, 57.37256
759.7253, 55.54883
760.2075, 54.30847
760.6896, 52.25208
761.1717, 49.24707
761.6538, 46.37878
762.1359, 45.04028
762.6180, 44.27795
763.1002, 42.45435
763.5823, 39.28186
764.0644, 36.24146
764.5465, 33.97852
765.0286, 32.25134
765.5107, 31.00513
765.9929, 30.76855
766.4750, 29.60876
766.9571, 27.01379
767.4392, 24.15332
767.9213, 22.03906
768.4034, 20.67163
768.8856, 19.45264
769.3677, 18.26062
769.8498, 17.70544
770.3319, 19.41113
770.8140, 21.91345
771.2961, 22.43311
771.7783, 19.84302
772.2604, 17.12988
772.7425, 15.95300
773.2246, 15.41125
773.7067, 14.55273
774.1888, 13.01331
774.6710, 11.58569
775.1531, 10.27051
775.6352, 9.103149
776.1173, 8.166992
776.5994, 7.478760
777.0815, 6.884644
777.5637, 6.434448
778.0458, 5.829346
778.5279, 4.189209
779.0100, 2.246948
779.4921, 1.367676
779.9742, 2.260254
780.4564, 3.626831
780.9385, 5.863281
781.4206, 7.848511
781.9027, 7.873901
782.3848, 3.880981
782.8669, 1.653931
783.3491, 2.115601
783.8312, 3.869141
784.3133, 4.800293
784.7954, 4.928467
785.2775, 4.775513
785.7596, 4.407349
786.2418, 3.937012
786.7239, 3.577271
787.2060, 3.213257
787.6881, 2.605957
788.1702, 1.471313
788.6523, 0.4304200
789.1345, 0.7390140
789.6166, 1.488037
790.0987, 0.7561040
790.5808, 3.029053
791.0629, 4.781738
791.5450, 3.264160
792.0272, 0.1608890
792.5093, 1.426758
792.9914, 1.655640
793.4735, 1.623779
793.9556, 1.711426
794.4377, 1.571289
794.9199, 0.7752690
795.4020, 0.4842530
795.8841, 1.850342
796.3662, 3.504028
796.8483, 4.810059
797.3304, 5.376343
797.8126, 5.475342
798.2947, 5.651123
798.7768, 6.116821
799.2589, 5.813965
799.7410, 4.322021
800.2231, 2.350342
800.7053, 1.257202
801.1874, 0.8953860
801.6695, 0.5767820
802.1516, 0.1804200
802.6337, 0.2957760
803.1158, 0.5433350
803.5980, 0.8685300
804.0801, 1.861328
804.5622, 5.293335
805.0443, 7.236328
805.5264, 6.235962
806.0085, 3.878296
806.4907, 3.230103
806.9728, 4.654907
807.4549, 5.697388
807.9370, 5.908569
808.4191, 5.448364
808.9012, 4.247559
809.3834, 2.601318
809.8655, 1.270874
810.3476, 0.8850100
810.8297, 0.4357910
811.3118, 0.9433590
811.7939, 2.700562
812.2761, 3.897095
812.7582, 4.122681
813.2403, 4.258423
813.7224, 4.515137
814.2045, 4.652954
814.6866, 4.070435
815.1688, 2.816040
815.6509, 1.676270
816.1330, 0.6671140
816.6151, 0.3240970
817.0972, 1.840942
817.5793, 4.419189
818.0615, 6.630249
818.5436, 8.358154
819.0257, 9.074829
819.5078, 7.820068
819.9899, 5.676147
820.4720, 4.290039
820.9542, 3.784546
821.4363, 3.743896
821.9184, 4.238647
822.4005, 4.933838
822.8826, 5.283813
823.3647, 5.371338
823.8469, 5.623413
824.3290, 6.300293
824.8111, 6.798828
825.2932, 6.576904
825.7753, 5.896484
826.2574, 5.107544
826.7396, 3.649048
827.2217, 3.120117
827.7038, 3.995361
828.1859, 5.576904
828.6681, 7.144897
829.1502, 8.716431
829.6323, 10.06445
830.1144, 11.17310
830.5966, 11.87097
831.0787, 11.44043
831.5608, 10.52319
832.0429, 10.42480
832.5250, 11.54565
833.0071, 13.04639
833.4893, 14.99353
833.9714, 16.80615
834.4535, 17.91040
834.9356, 18.37573
835.4177, 17.87085
835.8998, 15.85144
836.3820, 13.96448
836.8641, 14.40198
837.3462, 16.77173
837.8283, 18.19299
838.3104, 18.32056
838.7925, 17.94946
839.2747, 17.19373
839.7568, 16.62573
840.2389, 16.91272
840.7210, 18.32092
841.2031, 19.93457
841.6852, 22.16443
842.1674, 23.88562
842.6495, 24.18677
843.1316, 22.68958
843.6137, 21.61475
844.0958, 20.94995
844.5779, 20.65454
845.0601, 21.16125
845.5422, 21.87122
846.0243, 21.50940
846.5064, 19.98596
846.9885, 18.58765
847.4706, 18.16602
847.9528, 18.09106
848.4349, 17.91235
848.9170, 17.58167
849.3991, 17.52637
849.8812, 17.81665
850.3633, 18.21277
850.8455, 18.78491
851.3276, 19.45972
851.8097, 19.68701
852.2918, 19.50720
852.7739, 19.34045
853.2560, 19.21484
853.7382, 19.14453
854.2203, 18.97815
854.7024, 18.77588
855.1845, 19.34204
855.6666, 22.16211
856.1487, 24.21594
856.6309, 24.19897
857.1130, 22.38428
857.5951, 21.07446
858.0772, 20.35889
858.5593, 19.74329
859.0414, 18.88965
859.5236, 18.13770
860.0057, 18.03149
860.4878, 18.38647
860.9699, 18.72266
861.4520, 18.91626
861.9341, 18.99707
862.4163, 18.71423
862.8984, 18.24194
863.3805, 18.12024
863.8626, 18.55359
864.3447, 18.74561
864.8268, 18.27063
865.3090, 17.49268
865.7911, 17.26599
866.2732, 17.38416
866.7553, 17.11157
867.2374, 15.41431
867.7195, 14.52551
868.2017, 16.56348
868.6838, 19.76135
869.1659, 21.28223
869.6480, 19.99341
870.1301, 18.86353
870.6122, 18.27795
871.0944, 17.83142
871.5765, 16.88086
872.0586, 15.52917
872.5407, 14.34729
873.0228, 13.47156
873.5049, 12.66907
873.9871, 11.84045
874.4692, 10.91919
874.9513, 9.812012
875.4334, 8.141479
875.9155, 7.088623
876.3976, 6.879150
876.8798, 7.082031
877.3619, 7.380737
877.8440, 7.781738
878.3261, 8.649658
878.8082, 10.04919
879.2903, 10.91467
879.7725, 9.495605
880.2546, 7.496582
880.7367, 7.286865
881.2188, 9.109131
881.7009, 10.62451
882.1830, 10.80481
882.6652, 10.69824
883.1473, 10.82690
883.6294, 11.17737
884.1115, 11.19446
884.5936, 10.80469
885.0757, 10.37952
885.5579, 9.880737
886.0400, 9.611450
886.5221, 10.59180
887.0042, 12.40991
887.4863, 13.42395
887.9684, 12.07764
888.4506, 10.52124
888.9327, 9.409302
889.4148, 8.825684
889.8969, 9.206177
890.3790, 11.07910
890.8611, 11.80786
891.3433, 10.17505
891.8254, 7.857788
892.3075, 8.689941
892.7896, 11.55371
893.2717, 12.97986
893.7538, 10.84753
894.2360, 8.408691
894.7181, 7.461792
895.2002, 7.355103
895.6823, 7.171265
896.1644, 6.889526
896.6465, 6.426025
897.1287, 5.613525
897.6108, 5.004028
898.0929, 5.901489
898.5750, 7.675659
899.0571, 7.441528
899.5392, 4.452881
900.0214, 1.987915
900.5035, 3.057495
900.9856, 5.310669
901.4677, 6.660156
901.9498, 6.425171
902.4319, 6.592651
902.9141, 7.409546
903.3962, 8.170654
903.8783, 8.372192
904.3604, 8.087036
904.8425, 7.784912
905.3246, 7.476440
905.8068, 7.484985
906.2889, 8.638794
906.7710, 9.713257
907.2531, 9.872925
907.7352, 9.094360
908.2173, 7.475952
908.6995, 4.182739
909.1816, 1.453979
909.6637, 0.1524660
910.1458, 0.6750490
910.6279, 0.3775630
911.1100, 2.762939
911.5922, 4.187134
912.0743, 3.475586
912.5564, 1.906006
913.0385, 4.8096001E-02
913.5206, 1.825439
914.0027, 2.504395
914.4849, 0.7839360
914.9670, 0.6214600
915.4491, 1.595825
915.9312, 2.072021
916.4133, 1.620850
916.8954, 0.3327640
917.3776, 0.1895750
917.8597, 1.589111
918.3418, 2.902954
918.8239, 2.155884
919.3060, 0.7329100
919.7881, 0.1895750
920.2703, 0.9458010
920.7524, 1.628540
921.2345, 1.862915
921.7166, 2.202515
922.1987, 3.250977
922.6808, 4.909668
923.1630, 4.970459
923.6451, 3.461670
924.1272, 1.568726
924.6093, 0.3981930
925.0914, 1.957153
925.5735, 2.458984
926.0557, 2.043457
926.5378, 1.427246
927.0199, 0.4060060
927.5020, 0.4110110
927.9841, 0.7260740
928.4662, 0.8469240
928.9484, 1.807617
929.4305, 3.555664
929.9126, 4.578247
930.3947, 4.127686
930.8768, 3.420166
931.3589, 3.903198
931.8411, 4.886353
932.3232, 5.348755
932.8053, 4.421143
933.2874, 4.073975
933.7695, 5.085449
934.2516, 5.968750
934.7338, 4.944458
935.2159, 2.148682
935.6980, 1.314819
936.1801, 2.763062
936.6622, 4.378418
937.1443, 4.198975
937.6265, 3.419922
938.1086, 3.054077
938.5907, 3.186157
939.0728, 3.953613
939.5549, 6.367310
940.0370, 7.825195
940.5192, 6.916382
941.0013, 4.298706
941.4834, 3.040405
941.9655, 3.048340
942.4476, 3.500610
942.9297, 4.416138
943.4119, 5.183594
943.8940, 5.050049
944.3761, 4.439697
944.8582, 4.208618
945.3403, 5.597900
945.8224, 5.737427
946.3046, 3.850342
946.7867, 1.367432
947.2688, 0.3126220
947.7509, 0.5140380
948.2330, 1.193481
948.7151, 2.329956
949.1973, 3.051636
949.6794, 1.955566
950.1615, 0.5317380
950.6436, 0.2548830
951.1257, 1.644287
951.6078, 2.413696
952.0900, 2.189331
952.5721, 2.030396
953.0542, 2.639526
953.5363, 3.806152
954.0184, 4.956909
954.5005, 5.968018
954.9827, 6.062256
955.4648, 3.323242
955.9469, 1.011475
956.4290, 1.784058
956.9111, 4.572754
957.3932, 5.885742
957.8754, 4.902710
958.3575, 4.299683
958.8396, 4.651733
959.3217, 5.266479
959.8038, 4.700684
960.2859, 3.517822
960.7681, 3.433105
961.2502, 5.081909
961.7323, 6.784912
962.2144, 8.201904
962.6965, 8.830811
963.1786, 8.026123
963.6608, 5.443970
964.1429, 3.653564
964.6250, 2.676514
965.1071, 2.638672
965.5892, 4.242920
966.0714, 6.436890
966.5535, 7.054688
967.0356, 6.329468
967.5177, 5.718018
967.9998, 6.436035
968.4819, 6.916992
968.9641, 6.269165
969.4462, 4.965820
969.9283, 4.141357
970.4104, 3.795898
970.8925, 3.844971
971.3746, 4.417969
971.8568, 4.804443
972.3389, 3.579468
972.8210, 1.878052
973.3031, 1.533203
973.7852, 3.561890
974.2673, 5.273682
974.7495, 6.574219
975.2316, 6.954712
975.7137, 5.581787
976.1958, 2.429688
976.6779, 1.158691
977.1600, 1.734741
977.6422, 2.852173
978.1243, 4.473022
978.6064, 5.573730
979.0885, 4.566406
979.5706, 2.039551
980.0527, 0.8811040
980.5349, 2.800049
981.0170, 3.925659
981.4991, 3.357666
981.9812, 1.806030
982.4633, 0.2224120
982.9454, 1.248047
983.4276, 1.708374
983.9097, 0.6639400
984.3918, 0.7302250
984.8739, 2.533691
985.3560, 3.809448
985.8381, 3.250610
986.3203, 5.6274001E-02
986.8024, 1.413208
987.2845, 0.8183590
987.7666, 0.3450930
988.2487, 1.316162
988.7308, 1.987549
989.2130, 2.081787
989.6951, 1.656616
990.1772, 1.005737
990.6593, 0.6389160
991.1414, 1.478027
991.6235, 0.3828130
992.1057, 1.815552
992.5878, 3.698242
993.0699, 5.306030
993.5520, 5.598877
994.0341, 4.057251
994.5162, 2.395020
994.9984, 2.935913
995.4805, 4.432495
995.9626, 5.143677
996.4447, 4.492065
996.9268, 4.160400
997.4089, 4.770386
997.8911, 5.248169
998.3732, 4.902954
998.8553, 3.877808
999.3374, 3.161865
999.8195, 2.761353
1000.302, 2.537720
1000.784, 2.170654
1001.266, 2.200195
1001.748, 3.440308
1002.230, 5.341919
1002.712, 6.415161
1003.194, 6.292725
1003.676, 6.125854
1004.159, 6.033691
1004.641, 5.944702
1005.123, 5.628662
1005.605, 5.284180
1006.087, 5.513428
1006.569, 6.493896
1007.051, 7.096924
1007.533, 6.575317
1008.016, 5.642700
1008.498, 4.388916
1008.980, 2.941162
1009.462, 3.533813
1009.944, 6.321533
1010.426, 8.600586
1010.908, 9.101929
1011.390, 8.393921
1011.872, 6.289673
1012.355, 3.630127
1012.837, 2.090332
1013.319, 3.438354
1013.801, 4.039673
1014.283, 3.363770
1014.765, 2.332397
1015.247, 2.068970
1015.729, 2.372314
1016.211, 1.924561
1016.694, 0.6390380
1017.176, 0.3549800
1017.658, 3.0762000E-02
1018.140, 0.6422120
1018.622, 1.022461
1019.104, 1.133301
1019.586, 1.467896
1020.068, 2.159058
1020.551, 2.461914
1021.033, 2.075806
1021.515, 1.285156
1021.997, 0.3530270
1022.479, 1.850708
1022.961, 0.9978030
1023.443, 4.675171
1023.925, 8.681396
1024.407, 8.552124
1024.890, 7.092041
1025.372, 6.039063
1025.854, 5.398193
1026.336, 5.247437
1026.818, 5.568481
1027.300, 5.679321
1027.782, 4.088867
1028.264, 3.016968
1028.746, 5.136719
1029.229, 9.428955
1029.711, 11.70007
1030.193, 10.92529
1030.675, 10.19568
1031.157, 9.946655
1031.639, 10.16187
1032.121, 11.33032
1032.603, 12.82788
1033.086, 12.98584
1033.568, 11.33960
1034.050, 9.879517
1034.532, 9.290039
1035.014, 9.369141
1035.496, 10.02832
1035.978, 11.22473
1036.460, 13.05664
1036.943, 15.46179
1037.425, 16.61890
1037.907, 14.61523
1038.389, 12.30835
1038.871, 13.39758
1039.353, 15.84583
1039.835, 15.95544
1040.317, 10.42651
1040.799, 7.736450
1041.281, 8.869751
1041.764, 11.20483
1042.246, 12.29639
1042.728, 12.41406
1043.210, 12.29431
1043.692, 11.94763
1044.174, 10.99573
1044.656, 8.025513
1045.138, 5.762695
1045.621, 5.694946
1046.103, 6.994019
1046.585, 7.630005
1047.067, 7.605957
1047.549, 6.832153
1048.031, 5.107300
1048.513, 3.380249
1048.995, 2.555298
1049.478, 2.419556
1049.960, 2.646484
1050.442, 3.249146
1050.924, 4.088867
1051.406, 5.315063
1051.888, 6.584351
1052.370, 8.109375
1052.852, 9.646118
1053.334, 10.51636
1053.817, 10.79724
1054.299, 10.89856
1054.781, 10.68066
1055.263, 10.42004
1055.745, 10.16589
1056.227, 10.00195
1056.709, 9.893311
1057.191, 9.789307
1057.673, 10.14563
1058.156, 11.07605
1058.638, 12.13159
1059.120, 13.15857
1059.602, 13.67798
1060.084, 13.46069
1060.566, 12.52026
1061.048, 11.09363
1061.530, 8.855103
1062.013, 7.247314
1062.495, 6.741089
1062.977, 6.894653
1063.459, 6.766968
1063.941, 6.810181
1064.423, 8.249878
1064.905, 12.13428
1065.387, 14.44238
1065.870, 12.41516
1066.352, 9.963623
1066.834, 8.836792
1067.316, 8.965576
1067.798, 10.39893
1068.280, 12.90442
1068.762, 14.50061
1069.244, 13.29028
1069.726, 11.74707
1070.208, 11.68909
1070.691, 12.39001
1071.173, 12.44360
1071.655, 11.32715
1072.137, 10.65845
1072.619, 10.57080
1073.101, 10.79138
1073.583, 11.31177
1074.065, 11.75708
1074.548, 11.59216
1075.030, 10.85815
1075.512, 10.02478
1075.994, 8.573486
1076.476, 8.075562
1076.958, 9.262695
1077.440, 11.03564
1077.922, 11.09058
1078.405, 10.00012
1078.887, 9.849121
1079.369, 11.31238
1079.851, 12.04712
1080.333, 9.402588
1080.815, 6.972656
1081.297, 7.236450
1081.779, 9.815430
1082.261, 11.04688
1082.744, 10.94604
1083.226, 10.63062
1083.708, 10.63367
1084.190, 10.53027
1084.672, 9.330200
1085.154, 7.976807
1085.636, 8.036743
1086.118, 10.84106
1086.601, 12.01807
1087.083, 11.26038
1087.565, 9.998413
1088.047, 9.466675
1088.529, 9.169556
1089.011, 7.821777
1089.493, 5.829712
1089.975, 4.846802
1090.458, 7.158569
1090.940, 8.275757
1091.422, 7.005249
1091.904, 4.740356
1092.386, 3.358887
1092.868, 2.770630
1093.350, 2.642822
1093.832, 2.926270
1094.314, 3.612183
1094.797, 5.094360
1095.279, 6.564087
1095.761, 7.459229
1096.243, 7.917847
1096.725, 8.772827
1097.207, 10.03625
1097.689, 10.48621
1098.171, 9.394653
1098.653, 8.371826
1099.136, 9.149780
1099.618, 10.80737
1100.100, 12.47156
1100.582, 14.18018
1101.064, 14.88208
1101.546, 14.41333
1102.028, 13.41907
1102.510, 11.79163
1102.993, 10.23364
1103.475, 10.34143
1103.957, 11.46045
1104.439, 12.11487
1104.921, 11.32275
1105.403, 10.80127
1105.885, 11.03003
1106.367, 11.09753
1106.849, 10.23462
1107.332, 8.505249
1107.814, 5.472290
1108.296, 1.431885
1108.778, 1.221558
1109.260, 0.5273440
1109.742, 1.933105
1110.224, 0.6611330
1110.706, 1.862671
1111.188, 3.522827
1111.671, 4.315918
1112.153, 3.926514
1112.635, 2.186523
1113.117, 0.5341800
1113.599, 0.3430180
1114.081, 0.5223390
1114.563, 6.5186001E-02
1115.045, 0.9097900
1115.528, 0.8078610
1116.010, 0.7899170
1116.492, 0.8602290
1116.974, 1.898682
1117.456, 5.285034
1117.938, 6.189819
1118.420, 6.153931
1118.902, 7.318481
1119.385, 10.47083
1119.867, 12.84131
1120.349, 14.38940
1120.831, 14.82092
1121.313, 13.51196
1121.795, 11.34656
1122.277, 10.26147
1122.759, 9.873047
1123.241, 9.243042
1123.724, 7.784546
1124.206, 6.683472
1124.688, 6.541016
1125.170, 6.345825
1125.652, 5.090332
1126.134, 3.107178
1126.616, 2.222656
1127.098, 2.237427
1127.580, 1.636475
1128.063, 1.593140
1128.545, 4.157471
1129.027, 4.364990
1129.509, 3.360840
1129.991, 2.604614
1130.473, 2.093384
1130.955, 0.5223390
1131.437, 2.226318
1131.920, 4.448608
1132.402, 3.771362
1132.884, 3.106689
1133.366, 5.266479
1133.848, 9.119751
1134.330, 10.36865
1134.812, 8.635132
1135.294, 7.264282
1135.776, 6.888916
1136.259, 7.234009
1136.741, 8.629761
1137.223, 10.18921
1137.705, 11.00012
1138.187, 10.90198
1138.669, 10.66467
1139.151, 10.21875
1139.633, 9.894531
1140.115, 9.745850
1140.598, 9.893799
1141.080, 11.10742
1141.562, 12.51245
1142.044, 12.60535
1142.526, 10.49548
1143.008, 9.095581
1143.490, 8.852173
1143.972, 8.857422
1144.455, 8.710205
1144.937, 8.432495
1145.419, 7.632568
1145.901, 6.758301
1146.383, 7.004517
1146.865, 10.23450
1147.347, 12.17371
1147.829, 11.71338
1148.312, 10.64709
1148.794, 10.50061
1149.276, 10.97180
1149.758, 10.14258
1150.240, 8.366333
1150.722, 7.571167
1151.204, 10.00806
1151.686, 11.98474
1152.168, 11.97827
1152.651, 11.21960
1153.133, 11.14014
1153.615, 11.64172
1154.097, 11.64270
1154.579, 11.09460
1155.061, 10.71924
1155.543, 11.05750
1156.025, 11.59534
1156.507, 12.57202
1156.990, 13.33765
1157.472, 11.99280
1157.954, 8.505615
1158.436, 7.678467
1158.918, 10.36694
1159.400, 13.17224
1159.882, 13.29834
1160.364, 12.50818
1160.847, 11.89490
1161.329, 11.53833
1161.811, 11.61047
1162.293, 12.17676
1162.775, 12.40161
1163.257, 12.00720
1163.739, 11.54163
1164.221, 11.67212
1164.703, 11.94934
1165.186, 12.00024
1165.668, 11.79175
1166.150, 11.05981
1166.632, 9.649170
1167.114, 8.153076
1167.596, 6.321899
1168.078, 5.008545
1168.560, 5.583618
1169.042, 7.164307
1169.525, 8.612671
1170.007, 9.847534
1170.489, 10.90405
1170.971, 11.77271
1171.453, 12.30469
1171.935, 12.15393
1172.417, 11.96362
1172.899, 12.49036
1173.382, 13.66992
1173.864, 15.47766
1174.346, 19.17090
1174.828, 21.05334
1175.310, 20.48425
1175.792, 19.33875
1176.274, 18.87390
1176.756, 18.76599
1177.239, 18.67542
1177.721, 18.40491
1178.203, 17.44458
1178.685, 14.14209
1179.167, 12.75415
1179.649, 14.34619
1180.131, 16.21741
1180.613, 15.53967
1181.095, 13.48608
1181.578, 12.79578
1182.060, 13.22729
1182.542, 13.34204
1183.024, 11.72571
1183.506, 11.13916
1183.988, 12.29138
1184.470, 13.95886
1184.952, 14.93750
1185.434, 15.23694
1185.917, 14.39868
1186.399, 12.53735
1186.881, 11.20801
1187.363, 11.07458
1187.845, 11.62390
1188.327, 12.90955
1188.809, 14.48206
1189.291, 15.72791
1189.774, 16.50623
1190.256, 16.10217
1190.738, 14.47668
1191.220, 14.20752
1191.702, 18.88611
1192.184, 21.82776
1192.666, 20.35168
1193.148, 16.77380
1193.630, 15.89539
1194.113, 16.90405
1194.595, 16.69507
1195.077, 14.58643
1195.559, 13.61682
1196.041, 17.03760
1196.523, 19.71960
1197.005, 19.45386
1197.487, 17.34058
1197.969, 16.15356
1198.452, 15.68274
1198.934, 15.17444
1199.416, 14.44507
1199.898, 13.57141
1200.380, 11.44495
1200.862, 10.51489
1201.344, 12.51709
1201.826, 16.26562
1202.309, 17.55652
1202.791, 16.75793
1203.273, 15.11060
1203.755, 12.59375
1204.237, 10.58020
1204.719, 10.22107
1205.201, 10.10925
1205.683, 9.387939
1206.166, 8.332031
1206.648, 8.304810
1207.130, 9.056641
1207.612, 9.435303
1208.094, 8.702148
1208.576, 8.232544
1209.058, 8.786743
1209.540, 9.627197
1210.022, 10.40833
1210.505, 11.07178
1210.987, 11.18372
1211.469, 10.83020
1211.951, 10.40405
1212.433, 9.657349
1212.915, 9.526123
1213.397, 11.05542
1213.879, 12.63220
1214.361, 12.84827
1214.844, 11.97107
1215.326, 12.11035
1215.808, 13.09570
1216.290, 14.09277
1216.772, 14.57251
1217.254, 15.09094
1217.736, 15.95349
1218.218, 16.75806
1218.701, 17.37524
1219.183, 17.67078
1219.665, 16.36682
1220.147, 13.81091
1220.629, 11.85913
1221.111, 12.18530
1221.593, 12.25037
1222.075, 11.12695
1222.557, 9.771240
1223.040, 9.235107
1223.522, 9.331665
1224.004, 9.058228
1224.486, 8.459961
1224.968, 7.937744
1225.450, 7.973389
1225.932, 7.698853
1226.414, 6.764038
1226.896, 5.662109
1227.379, 4.901489
1227.861, 4.443115
1228.343, 4.222534
1228.825, 4.195068
1229.307, 4.156128
1229.789, 3.650269
1230.271, 3.681396
1230.753, 4.750488
1231.236, 5.970215
1231.718, 6.374390
1232.200, 5.996338
1232.682, 4.387207
1233.164, 1.849121
1233.646, 0.2935790
1234.128, 1.586548
1234.610, 2.250732
1235.093, 1.468506
1235.575, 0.3240970
1236.057, 0.1322020
1236.539, 0.2543950
1237.021, 2.653687
1237.503, 6.753296
1237.985, 9.014893
1238.467, 6.273926
1238.949, 4.556152
1239.432, 5.062012
1239.914, 6.471191
1240.396, 7.301758
1240.878, 7.582031
1241.360, 6.886353
1241.842, 5.340454
1242.324, 5.214844
1242.806, 8.194702
1243.288, 9.766724
1243.771, 8.657837
1244.253, 7.121948
1244.735, 8.567627
1245.217, 11.31384
1245.699, 12.87708
1246.181, 13.06421
1246.663, 13.14026
1247.145, 13.26221
1247.628, 13.22107
1248.110, 12.85974
1248.592, 12.75452
1249.074, 14.75037
1249.556, 16.69800
1250.038, 15.07458
1250.520, 9.993286
1251.002, 8.565918
1251.484, 12.16968
1251.967, 14.10229
1252.449, 12.55298
1252.931, 10.19885
1253.413, 9.987915
1253.895, 10.45276
1254.377, 9.868774
1254.859, 8.312988
1255.341, 8.075317
1255.823, 9.301758
1256.306, 10.46436
1256.788, 11.18701
1257.270, 11.76392
1257.752, 12.17493
1258.234, 12.78333
1258.716, 14.67163
1259.198, 17.16907
1259.680, 16.18274
1260.163, 11.66357
1260.645, 8.926392
1261.127, 9.381592
1261.609, 10.25195
1262.091, 9.427612
1262.573, 8.278320
1263.055, 7.815430
1263.537, 7.791870
1264.020, 7.108521
1264.502, 5.904419
1264.984, 5.244385
1265.466, 5.409302
1265.948, 5.875366
1266.430, 6.670288
1266.912, 7.293335
1267.394, 7.424072
1267.876, 7.248535
1268.359, 7.477173
1268.841, 7.883545
1269.323, 7.613525
1269.805, 6.421021
1270.287, 5.032837
1270.769, 2.894165
1271.251, 1.855347
1271.733, 3.123901
1272.215, 5.122925
1272.698, 3.812744
1273.180, 0.6870120
1273.662, 0.6916500
1274.144, 0.5494380
1274.626, 1.316528
1275.108, 0.7716060
1275.590, 0.3145750
1276.072, 0.4294430
1276.555, 0.8004150
1277.037, 0.6314700
1277.519, 0.4685060
1278.001, 1.348511
1278.483, 3.497803
1278.965, 4.993286
1279.447, 5.475220
1279.929, 6.151855
1280.411, 7.501953
1280.894, 8.729248
1281.376, 8.768188
1281.858, 8.188354
1282.340, 7.428955
1282.822, 6.578979
1283.304, 6.723511
1283.786, 8.046753
1284.268, 8.385620
1284.750, 7.001831
1285.233, 5.234497
1285.715, 3.710815
1286.197, 2.923096
1286.679, 3.755371
1287.161, 5.692993
1287.643, 6.602295
1288.125, 6.678345
1288.607, 6.226318
1289.090, 5.395142
1289.572, 4.103516
1290.054, 1.458618
1290.536, 0.6372070
1291.018, 1.307617
1291.500, 0.7148440
1291.982, 1.252319
1292.464, 4.110229
1292.947, 6.087769
1293.429, 6.742798
1293.911, 7.206055
1294.393, 7.688965
1294.875, 8.651367
1295.357, 10.41589
1295.839, 10.69922
1296.321, 7.186890
1296.803, 5.343506
1297.286, 4.824585
1297.768, 5.291138
1298.250, 4.520020
1298.732, 2.291504
1299.214, 0.8493650
1299.696, 0.8110350
1300.178, 0.8048100
1300.660, 0.0000000E+00
##END=



