##NAMES=Georgbokiite
##RRUFFID=R070111
##IDEAL CHEMISTRY=Cu^2+^_5_O_2_(Se^4+^O_3_)_2_Cl_2_
##LOCALITY=Tolbachik Volcano, Kamchatka Peninsula, Russia
##OWNER=RRUFF
##SOURCE=Michael Scott
##DESCRIPTION=Deep reddish brown polished fragments embedded in epoxy, co-type material
##STATUS=The identification of this mineral has been confirmed only by chemical analysis
##URL=rruff.info/R070111
##MEASURED CHEMISTRY=light phase: Cu_5.00_O_2_(Se^4+^_1.00_O_3_)_2_Cl_2.00_
144.9338, 741.1788
145.4159, 771.5771
145.8980, 791.9283
146.3801, 804.5746
146.8622, 818.2377
147.3444, 835.5916
147.8265, 854.7295
148.3086, 872.6979
148.7907, 889.3472
149.2728, 906.8328
149.7549, 929.2428
150.2371, 955.2539
150.7192, 974.6358
151.2013, 983.4930
151.6834, 984.8103
152.1655, 979.4471
152.6476, 966.6226
153.1298, 957.6271
153.6119, 966.0979
154.0940, 991.4237
154.5761, 1008.416
155.0582, 1005.721
155.5403, 996.0387
156.0225, 989.3857
156.5046, 986.7670
156.9867, 983.2711
157.4688, 972.2389
157.9509, 952.6743
158.4330, 938.0208
158.9152, 930.0380
159.3973, 929.2135
159.8794, 939.2438
160.3615, 960.2050
160.8436, 982.3869
161.3257, 996.1517
161.8079, 1000.990
162.2900, 1000.253
162.7721, 985.0986
163.2542, 970.6259
163.7363, 967.3709
164.2184, 976.3423
164.7006, 987.9337
165.1827, 990.0804
165.6648, 980.0191
166.1469, 971.4186
166.6290, 965.3864
167.1111, 961.3978
167.5933, 957.8256
168.0754, 954.9871
168.5575, 956.6229
169.0396, 970.6492
169.5217, 1004.923
170.0038, 1026.152
170.4860, 1022.951
170.9681, 1014.172
171.4502, 1008.519
171.9323, 1008.181
172.4144, 1012.031
172.8965, 1020.534
173.3787, 1039.328
173.8608, 1047.064
174.3429, 1035.883
174.8250, 1020.612
175.3071, 1007.408
175.7892, 998.3078
176.2714, 994.1631
176.7535, 997.2617
177.2356, 1012.074
177.7177, 1022.366
178.1998, 1023.472
178.6819, 1024.355
179.1641, 1030.903
179.6462, 1043.459
180.1283, 1057.756
180.6104, 1068.367
181.0925, 1073.446
181.5746, 1080.020
182.0567, 1091.761
182.5389, 1101.876
183.0210, 1105.097
183.5031, 1101.707
183.9852, 1096.804
184.4673, 1096.592
184.9494, 1103.524
185.4316, 1107.158
185.9137, 1103.821
186.3958, 1100.875
186.8779, 1104.371
187.3600, 1113.525
187.8421, 1121.715
188.3243, 1121.319
188.8064, 1109.564
189.2885, 1100.206
189.7706, 1095.195
190.2527, 1090.384
190.7348, 1082.390
191.2170, 1071.899
191.6991, 1063.173
192.1812, 1061.462
192.6633, 1069.743
193.1454, 1067.306
193.6275, 1041.819
194.1097, 1018.704
194.5918, 1012.891
195.0739, 1022.368
195.5560, 1035.140
196.0381, 1040.882
196.5202, 1039.011
197.0024, 1034.743
197.4845, 1023.306
197.9666, 1014.367
198.4487, 1013.602
198.9308, 1019.674
199.4129, 1027.429
199.8951, 1032.971
200.3772, 1036.273
200.8593, 1038.671
201.3414, 1041.775
201.8235, 1042.683
202.3056, 1036.655
202.7878, 1026.956
203.2699, 1022.608
203.7520, 1030.816
204.2341, 1050.653
204.7162, 1061.995
205.1983, 1060.335
205.6805, 1056.824
206.1626, 1052.557
206.6447, 1049.159
207.1268, 1050.057
207.6089, 1057.923
208.0910, 1071.310
208.5732, 1080.162
209.0553, 1082.784
209.5374, 1083.583
210.0195, 1083.381
210.5016, 1082.123
210.9837, 1079.302
211.4659, 1074.469
211.9480, 1068.369
212.4301, 1063.974
212.9122, 1058.143
213.3943, 1057.532
213.8764, 1067.837
214.3586, 1083.106
214.8407, 1094.596
215.3228, 1098.491
215.8049, 1096.884
216.2870, 1095.027
216.7691, 1093.786
217.2513, 1091.096
217.7334, 1081.221
218.2155, 1071.780
218.6976, 1075.532
219.1797, 1096.959
219.6618, 1123.419
220.1440, 1130.315
220.6261, 1098.437
221.1082, 1078.832
221.5903, 1083.355
222.0724, 1095.782
222.5546, 1099.208
223.0367, 1089.518
223.5188, 1076.276
224.0009, 1073.401
224.4830, 1088.024
224.9651, 1096.505
225.4473, 1097.481
225.9294, 1093.308
226.4115, 1085.722
226.8936, 1075.046
227.3757, 1059.966
227.8578, 1037.137
228.3400, 1001.074
228.8221, 982.4875
229.3042, 993.5564
229.7863, 1010.382
230.2684, 1020.461
230.7505, 1022.320
231.2327, 1018.843
231.7148, 1011.463
232.1969, 999.1525
232.6790, 995.3934
233.1611, 1008.035
233.6432, 1020.084
234.1254, 1024.704
234.6075, 1022.066
235.0896, 1013.769
235.5717, 999.6711
236.0538, 980.4833
236.5359, 972.3786
237.0181, 987.3480
237.5002, 998.8475
237.9823, 995.0895
238.4644, 982.5358
238.9465, 974.1918
239.4286, 977.8957
239.9108, 990.5347
240.3929, 997.5984
240.8750, 994.8716
241.3571, 991.4828
241.8392, 985.8516
242.3213, 981.0458
242.8035, 981.7028
243.2856, 989.8568
243.7677, 1002.377
244.2498, 1011.928
244.7319, 1020.898
245.2140, 1022.799
245.6962, 1011.111
246.1783, 995.9587
246.6604, 985.6178
247.1425, 982.8159
247.6246, 986.2165
248.1067, 994.9951
248.5889, 1017.488
249.0710, 1026.981
249.5531, 1011.679
250.0352, 993.9058
250.5173, 989.6292
250.9994, 1000.000
251.4816, 1014.583
251.9637, 1021.729
252.4458, 1019.281
252.9279, 1018.765
253.4100, 1020.643
253.8921, 1023.748
254.3743, 1029.404
254.8564, 1036.179
255.3385, 1040.235
255.8206, 1037.728
256.3027, 1028.649
256.7849, 1023.793
257.2670, 1031.524
257.7491, 1035.077
258.2312, 1026.093
258.7133, 1010.572
259.1954, 999.0598
259.6776, 998.3020
260.1597, 1005.747
260.6418, 1010.285
261.1239, 1010.453
261.6060, 1009.354
262.0881, 1006.700
262.5703, 1003.532
263.0524, 999.7415
263.5345, 995.1861
264.0166, 992.8445
264.4987, 1000.669
264.9808, 1027.335
265.4630, 1044.488
265.9451, 1041.896
266.4272, 1033.858
266.9093, 1029.691
267.3914, 1031.719
267.8735, 1037.884
268.3557, 1047.377
268.8378, 1061.768
269.3199, 1071.167
269.8020, 1074.029
270.2841, 1071.758
270.7662, 1060.380
271.2484, 1042.473
271.7305, 1028.173
272.2126, 1028.329
272.6947, 1042.145
273.1768, 1051.881
273.6589, 1055.460
274.1411, 1057.391
274.6232, 1058.793
275.1053, 1060.328
275.5874, 1063.139
276.0695, 1067.164
276.5516, 1073.212
277.0338, 1085.340
277.5159, 1108.292
277.9980, 1125.425
278.4801, 1124.650
278.9622, 1115.645
279.4443, 1109.677
279.9265, 1111.103
280.4086, 1114.839
280.8907, 1114.930
281.3728, 1111.279
281.8549, 1104.579
282.3370, 1088.680
282.8192, 1074.273
283.3013, 1075.596
283.7834, 1096.662
284.2655, 1115.516
284.7476, 1111.447
285.2297, 1089.279
285.7119, 1074.486
286.1940, 1074.378
286.6761, 1080.774
287.1582, 1086.309
287.6403, 1090.985
288.1224, 1093.139
288.6046, 1093.217
289.0867, 1090.019
289.5688, 1079.280
290.0509, 1058.941
290.5330, 1039.893
291.0151, 1032.756
291.4973, 1035.484
291.9794, 1037.171
292.4615, 1038.746
292.9436, 1037.092
293.4257, 1025.448
293.9078, 1005.531
294.3900, 992.6924
294.8721, 999.6104
295.3542, 1018.978
295.8363, 1021.992
296.3184, 995.1801
296.8005, 970.4318
297.2827, 960.8790
297.7648, 962.1421
298.2469, 966.7664
298.7290, 972.5372
299.2111, 977.7806
299.6932, 979.2140
300.1754, 976.7048
300.6575, 970.7391
301.1396, 956.9641
301.6217, 942.1079
302.1038, 933.2820
302.5859, 931.5671
303.0680, 932.7712
303.5501, 932.6683
304.0323, 931.4696
304.5144, 927.2308
304.9965, 914.2929
305.4786, 903.9481
305.9607, 903.6651
306.4428, 911.2062
306.9250, 918.9941
307.4071, 921.6382
307.8892, 919.8406
308.3713, 920.0063
308.8534, 928.9340
309.3355, 932.0487
309.8177, 920.2149
310.2998, 903.7598
310.7819, 897.4045
311.2640, 907.2860
311.7461, 923.6358
312.2282, 924.9595
312.7104, 900.0969
313.1925, 883.8237
313.6746, 882.0495
314.1567, 885.7795
314.6388, 891.1882
315.1209, 896.6945
315.6031, 900.0283
316.0852, 897.5177
316.5673, 888.3909
317.0494, 882.6879
317.5315, 879.7966
318.0136, 881.5788
318.4958, 893.7967
318.9779, 911.1560
319.4600, 921.5519
319.9421, 915.4522
320.4242, 899.3783
320.9063, 890.2709
321.3885, 889.0356
321.8706, 892.4544
322.3527, 904.1550
322.8348, 917.7246
323.3169, 926.7070
323.7990, 929.5743
324.2812, 927.5388
324.7633, 918.1955
325.2454, 902.4557
325.7275, 894.1606
326.2096, 900.2128
326.6917, 911.5511
327.1739, 918.3892
327.6560, 920.7612
328.1381, 920.7885
328.6202, 917.9106
329.1023, 913.6840
329.5844, 911.1708
330.0666, 910.9975
330.5487, 910.4771
331.0308, 905.6088
331.5129, 897.5972
331.9950, 896.0788
332.4771, 908.1907
332.9593, 921.4293
333.4414, 929.2411
333.9235, 931.2918
334.4056, 926.7097
334.8877, 914.0870
335.3698, 895.8443
335.8520, 879.5317
336.3341, 860.3780
336.8162, 849.6885
337.2983, 855.6575
337.7804, 868.3395
338.2625, 875.7565
338.7447, 874.9329
339.2268, 871.7241
339.7089, 874.3277
340.1910, 886.2694
340.6731, 891.6887
341.1552, 884.8997
341.6374, 877.7546
342.1195, 875.8679
342.6016, 878.9385
343.0837, 885.4024
343.5658, 895.5871
344.0479, 907.2722
344.5301, 904.2611
345.0122, 868.6222
345.4943, 842.4189
345.9764, 837.7259
346.4585, 843.3586
346.9406, 847.4474
347.4228, 845.9224
347.9049, 842.1422
348.3870, 841.3574
348.8691, 844.4210
349.3512, 846.1042
349.8333, 844.2138
350.3155, 842.0231
350.7976, 840.1454
351.2797, 839.2165
351.7618, 841.4235
352.2439, 851.5397
352.7260, 866.1193
353.2082, 872.9365
353.6903, 869.5074
354.1724, 864.8364
354.6545, 865.0830
355.1366, 867.4988
355.6187, 867.9065
356.1009, 864.8005
356.5830, 860.4063
357.0651, 858.2126
357.5472, 857.1406
358.0293, 849.6172
358.5114, 829.8347
358.9936, 807.0294
359.4757, 797.1778
359.9578, 800.8831
360.4399, 808.1470
360.9220, 821.0490
361.4041, 833.8906
361.8863, 838.8148
362.3684, 835.1873
362.8505, 829.6210
363.3326, 827.4701
363.8147, 828.8200
364.2968, 831.4292
364.7790, 838.8998
365.2611, 843.5974
365.7432, 840.5139
366.2253, 833.0751
366.7074, 827.2195
367.1895, 825.6121
367.6717, 827.0828
368.1538, 829.4549
368.6359, 837.2491
369.1180, 837.5435
369.6001, 820.0729
370.0822, 803.5542
370.5644, 804.0056
371.0465, 820.1458
371.5286, 836.0880
372.0107, 835.3890
372.4928, 818.9119
372.9749, 812.9472
373.4571, 826.7288
373.9392, 838.3593
374.4213, 838.6869
374.9034, 832.8176
375.3855, 828.3270
375.8676, 828.7478
376.3498, 829.6611
376.8319, 823.2682
377.3140, 809.0058
377.7961, 798.9018
378.2782, 797.6640
378.7603, 800.7421
379.2425, 802.9709
379.7246, 804.3499
380.2067, 807.2539
380.6888, 815.4009
381.1709, 824.8745
381.6530, 829.4697
382.1352, 828.5962
382.6173, 823.0486
383.0994, 810.6845
383.5815, 793.6708
384.0636, 784.7763
384.5457, 788.9453
385.0279, 795.6736
385.5100, 802.1060
385.9921, 807.7581
386.4742, 812.1581
386.9563, 815.1862
387.4384, 815.9880
387.9206, 812.7439
388.4027, 801.9924
388.8848, 795.3605
389.3669, 795.9911
389.8490, 797.7649
390.3311, 796.2718
390.8133, 792.3075
391.2954, 789.8931
391.7775, 792.3918
392.2596, 798.7314
392.7417, 801.8477
393.2238, 798.7802
393.7060, 797.0239
394.1881, 800.1360
394.6702, 804.0325
395.1523, 803.4349
395.6344, 797.1296
396.1165, 791.3752
396.5987, 796.0215
397.0808, 810.7852
397.5629, 816.2293
398.0450, 803.5426
398.5271, 790.8819
399.0092, 791.5266
399.4914, 802.1095
399.9735, 812.9072
400.4556, 820.3768
400.9377, 826.4141
401.4198, 834.5144
401.9019, 844.2704
402.3841, 849.2060
402.8662, 845.2271
403.3483, 836.0723
403.8304, 829.4492
404.3125, 826.1705
404.7946, 822.6332
405.2768, 815.6099
405.7589, 809.0912
406.2410, 808.0428
406.7231, 812.8928
407.2052, 820.2236
407.6873, 827.5905
408.1695, 835.0288
408.6516, 838.6700
409.1337, 837.3002
409.6158, 833.9252
410.0979, 825.7584
410.5800, 817.2591
411.0622, 815.2135
411.5443, 822.0224
412.0264, 832.2836
412.5085, 837.7888
412.9906, 838.4406
413.4727, 834.6155
413.9549, 818.6204
414.4370, 804.8973
414.9191, 801.1260
415.4012, 805.3760
415.8833, 810.9256
416.3654, 814.6700
416.8476, 816.8641
417.3297, 817.4440
417.8118, 815.9988
418.2939, 816.0296
418.7760, 821.4243
419.2581, 827.3035
419.7403, 825.7805
420.2224, 814.5204
420.7045, 806.0259
421.1866, 810.7986
421.6687, 820.3940
422.1508, 819.2637
422.6330, 805.1636
423.1151, 790.9315
423.5972, 787.2902
424.0793, 794.0842
424.5614, 802.0015
425.0435, 812.9709
425.5257, 822.7452
426.0078, 830.5778
426.4899, 836.1235
426.9720, 838.2602
427.4541, 836.7494
427.9362, 833.6899
428.4184, 832.4910
428.9005, 834.1578
429.3826, 834.4329
429.8647, 830.6347
430.3468, 828.0472
430.8289, 829.6049
431.3111, 834.0764
431.7932, 838.9943
432.2753, 843.9077
432.7574, 846.9090
433.2395, 841.7111
433.7216, 825.7775
434.2038, 816.7725
434.6859, 826.6024
435.1680, 839.9521
435.6501, 839.8923
436.1322, 825.7952
436.6143, 814.1826
437.0965, 812.1175
437.5786, 817.5084
438.0607, 831.4158
438.5428, 853.5769
439.0249, 868.7154
439.5070, 864.8303
439.9892, 846.5379
440.4713, 835.9495
440.9534, 842.4370
441.4355, 843.4398
441.9176, 825.6543
442.3997, 804.1238
442.8819, 797.5626
443.3640, 808.8724
443.8461, 826.2139
444.3282, 837.6093
444.8103, 843.0842
445.2924, 842.2112
445.7746, 831.3738
446.2567, 817.6497
446.7388, 794.6812
447.2209, 772.6373
447.7030, 767.4056
448.1852, 785.6074
448.6673, 810.9264
449.1494, 821.8775
449.6315, 818.4070
450.1136, 814.5917
450.5957, 811.0211
451.0779, 809.7199
451.5600, 813.2434
452.0421, 820.4397
452.5242, 827.3400
453.0063, 836.4664
453.4884, 841.9399
453.9706, 834.1489
454.4527, 816.9136
454.9348, 806.7798
455.4169, 811.4796
455.8990, 823.0015
456.3811, 827.0478
456.8633, 818.6140
457.3454, 814.6122
457.8275, 817.7166
458.3096, 823.1913
458.7917, 830.6868
459.2738, 838.0505
459.7560, 840.2486
460.2381, 833.5896
460.7202, 820.9169
461.2023, 811.5663
461.6844, 806.0590
462.1665, 802.7899
462.6487, 800.9542
463.1308, 801.5754
463.6129, 807.4089
464.0950, 817.5274
464.5771, 825.5311
465.0592, 825.0020
465.5414, 819.5095
466.0235, 818.9450
466.5056, 824.3719
466.9877, 827.1193
467.4698, 822.3370
467.9519, 812.0850
468.4341, 800.7879
468.9162, 786.6763
469.3983, 776.1749
469.8804, 774.1849
470.3625, 775.6667
470.8446, 773.1490
471.3268, 766.5032
471.8089, 763.2776
472.2910, 770.2679
472.7731, 786.5168
473.2552, 800.0125
473.7373, 815.7589
474.2195, 822.0778
474.7016, 808.8914
475.1837, 790.5493
475.6658, 780.8769
476.1479, 782.6050
476.6300, 789.1711
477.1122, 795.2745
477.5943, 800.8248
478.0764, 804.2340
478.5585, 805.0270
479.0406, 804.6663
479.5227, 804.6606
480.0049, 803.7090
480.4870, 798.8977
480.9691, 787.5464
481.4512, 778.5341
481.9333, 778.0613
482.4154, 783.7916
482.8976, 792.9543
483.3797, 805.1519
483.8618, 814.7083
484.3439, 816.0544
484.8260, 809.2366
485.3081, 803.0649
485.7903, 792.1721
486.2724, 788.1834
486.7545, 802.0717
487.2366, 820.9959
487.7187, 829.1075
488.2008, 822.3826
488.6830, 808.7983
489.1651, 795.3636
489.6472, 781.4935
490.1293, 780.3539
490.6114, 803.6038
491.0935, 822.4688
491.5757, 822.4966
492.0578, 812.2321
492.5399, 802.6877
493.0220, 795.9003
493.5041, 793.1188
493.9862, 797.0242
494.4684, 805.7521
494.9505, 813.9560
495.4326, 820.6506
495.9147, 827.3224
496.3968, 836.9608
496.8789, 848.7851
497.3611, 850.4564
497.8432, 834.4171
498.3253, 817.7696
498.8074, 805.3176
499.2895, 795.8625
499.7716, 786.3813
500.2538, 776.6273
500.7359, 771.1653
501.2180, 777.0341
501.7001, 795.1868
502.1822, 807.1759
502.6643, 811.7507
503.1465, 811.3965
503.6286, 802.5831
504.1107, 791.6865
504.5928, 786.3218
505.0749, 788.2874
505.5570, 796.6472
506.0392, 819.3600
506.5213, 847.9540
507.0034, 851.8218
507.4855, 823.1869
507.9676, 795.0274
508.4497, 794.2027
508.9319, 816.3942
509.4140, 827.9966
509.8961, 819.4633
510.3782, 812.9561
510.8603, 817.4745
511.3424, 825.5382
511.8246, 827.9601
512.3067, 823.4113
512.7888, 817.2087
513.2709, 814.2999
513.7531, 814.5887
514.2352, 816.3762
514.7173, 820.2892
515.1994, 824.6994
515.6815, 831.2990
516.1636, 836.9269
516.6458, 838.0765
517.1279, 834.1127
517.6100, 828.2463
518.0921, 822.0004
518.5742, 815.6721
519.0563, 807.8581
519.5385, 798.2346
520.0206, 796.6662
520.5027, 813.8612
520.9848, 840.8090
521.4669, 845.5428
521.9490, 809.6451
522.4312, 787.0601
522.9133, 794.1062
523.3954, 811.2845
523.8775, 825.8241
524.3596, 834.7425
524.8417, 837.1354
525.3239, 831.8347
525.8060, 820.5000
526.2881, 807.4272
526.7702, 787.8895
527.2523, 779.4582
527.7344, 799.4859
528.2166, 821.8898
528.6987, 826.2408
529.1808, 814.0212
529.6629, 804.5028
530.1450, 811.9008
530.6271, 823.5341
531.1093, 821.5280
531.5914, 808.2948
532.0735, 799.2405
532.5556, 801.3182
533.0377, 808.9634
533.5198, 812.9788
534.0020, 811.7775
534.4841, 811.3909
534.9662, 810.3697
535.4483, 811.5494
535.9304, 819.2211
536.4125, 829.5817
536.8947, 834.9825
537.3768, 831.8297
537.8589, 825.6976
538.3410, 826.4462
538.8231, 834.7141
539.3052, 837.5873
539.7874, 831.1514
540.2695, 823.2534
540.7516, 818.1516
541.2337, 815.6003
541.7158, 815.5355
542.1979, 819.9155
542.6801, 823.7858
543.1622, 823.5543
543.6443, 821.0145
544.1264, 818.6352
544.6085, 817.0806
545.0906, 817.6034
545.5728, 821.8087
546.0549, 829.4755
546.5370, 835.0297
547.0191, 836.8099
547.5012, 838.5521
547.9833, 840.8132
548.4655, 843.2511
548.9476, 847.0968
549.4297, 851.6911
549.9117, 852.3002
550.3939, 842.2194
550.8760, 825.8914
551.3581, 815.1867
551.8402, 810.5040
552.3223, 806.1977
552.8044, 797.9366
553.2866, 790.6062
553.7687, 794.9240
554.2508, 813.2748
554.7329, 829.0270
555.2150, 840.4419
555.6971, 847.8228
556.1793, 850.0104
556.6614, 848.4097
557.1435, 845.9547
557.6256, 844.0468
558.1077, 842.1970
558.5898, 838.6547
559.0720, 832.1763
559.5541, 830.8838
560.0362, 842.0544
560.5183, 849.8823
561.0004, 840.6667
561.4825, 823.4724
561.9647, 817.3150
562.4468, 831.6805
562.9289, 848.0602
563.4110, 852.7833
563.8931, 849.8299
564.3752, 846.9155
564.8574, 845.4426
565.3395, 843.5185
565.8216, 839.2115
566.3037, 833.0472
566.7858, 829.6541
567.2679, 831.6045
567.7501, 833.0648
568.2322, 830.8221
568.7143, 829.8901
569.1964, 836.8430
569.6785, 850.0596
570.1606, 860.0505
570.6428, 859.5138
571.1249, 851.9958
571.6070, 843.2449
572.0891, 833.2211
572.5712, 827.2152
573.0533, 827.5410
573.5355, 831.5718
574.0176, 837.4189
574.4997, 845.5236
574.9818, 848.8931
575.4639, 839.6951
575.9460, 833.2969
576.4282, 841.0131
576.9103, 855.6650
577.3924, 866.4265
577.8745, 869.5257
578.3566, 866.4091
578.8387, 855.6938
579.3209, 837.4092
579.8030, 833.2645
580.2851, 852.6100
580.7672, 867.4468
581.2493, 859.1173
581.7314, 842.6668
582.2136, 836.5569
582.6957, 844.6331
583.1778, 848.2415
583.6599, 831.8930
584.1420, 811.5213
584.6241, 805.8965
585.1063, 813.7761
585.5884, 823.4421
586.0705, 828.6065
586.5526, 832.3451
587.0347, 843.3962
587.5168, 872.6650
587.9990, 881.4288
588.4811, 843.5073
588.9632, 811.1501
589.4453, 811.6938
589.9274, 830.6732
590.4095, 840.1396
590.8917, 828.7094
591.3738, 814.8773
591.8559, 817.4187
592.3380, 830.2519
592.8201, 837.1172
593.3022, 835.7890
593.7844, 832.6268
594.2665, 831.9700
594.7486, 833.1694
595.2307, 833.3754
595.7128, 831.6235
596.1949, 830.1677
596.6771, 828.1978
597.1592, 827.2600
597.6413, 830.7307
598.1234, 836.2832
598.6055, 836.4835
599.0876, 825.1500
599.5698, 811.6357
600.0519, 813.3628
600.5340, 828.8998
601.0161, 839.3835
601.4982, 841.1144
601.9803, 836.9276
602.4625, 826.8020
602.9446, 811.8526
603.4267, 802.9468
603.9088, 806.1718
604.3909, 807.5584
604.8730, 798.6261
605.3552, 789.2441
605.8373, 790.9921
606.3194, 803.5519
606.8015, 817.4002
607.2836, 825.9943
607.7657, 829.7204
608.2479, 828.3288
608.7300, 820.6561
609.2121, 816.3679
609.6942, 821.6461
610.1763, 825.9866
610.6584, 815.1542
611.1406, 792.4670
611.6227, 778.0283
612.1048, 781.1341
612.5869, 786.1676
613.0690, 784.9766
613.5511, 781.2739
614.0333, 780.9203
614.5154, 784.8074
614.9975, 789.4546
615.4796, 791.9794
615.9617, 792.3461
616.4438, 789.5381
616.9260, 781.3160
617.4081, 776.6806
617.8902, 781.5010
618.3723, 787.7808
618.8544, 788.6693
619.3365, 784.4064
619.8187, 778.1890
620.3008, 767.3867
620.7829, 758.4040
621.2650, 756.7230
621.7471, 759.8987
622.2292, 763.6671
622.7114, 766.7380
623.1935, 769.2693
623.6756, 771.6096
624.1577, 773.6322
624.6398, 773.1725
625.1219, 767.7010
625.6041, 764.8397
626.0862, 768.5813
626.5683, 774.3451
627.0504, 780.4716
627.5325, 786.2092
628.0146, 786.7100
628.4968, 772.7130
628.9789, 759.1234
629.4610, 762.2139
629.9431, 775.6135
630.4252, 784.6868
630.9073, 785.0490
631.3895, 778.0826
631.8716, 763.2396
632.3537, 740.9559
632.8358, 732.8548
633.3179, 749.1970
633.8000, 762.0816
634.2822, 760.5858
634.7643, 756.2070
635.2464, 760.0395
635.7285, 771.6155
636.2106, 779.2856
636.6927, 774.8213
637.1749, 766.5490
637.6570, 761.0078
638.1391, 758.1667
638.6212, 758.2076
639.1033, 761.1263
639.5854, 764.7216
640.0676, 766.4167
640.5497, 766.2914
641.0318, 768.1410
641.5139, 776.4980
641.9960, 779.1423
642.4781, 766.6245
642.9603, 752.7930
643.4424, 750.6734
643.9245, 759.3644
644.4066, 765.7151
644.8887, 761.4378
645.3708, 754.3192
645.8530, 750.9597
646.3351, 750.5876
646.8172, 751.2261
647.2993, 752.3536
647.7814, 754.9767
648.2635, 760.9724
648.7457, 769.6967
649.2278, 771.0934
649.7099, 760.7339
650.1920, 750.9564
650.6741, 743.6178
651.1563, 738.0677
651.6384, 732.9421
652.1205, 728.8524
652.6026, 728.9460
653.0847, 737.3643
653.5668, 747.3895
654.0490, 756.1756
654.5311, 761.9278
655.0132, 756.9233
655.4953, 740.9114
655.9774, 731.0935
656.4595, 745.2711
656.9417, 777.2099
657.4238, 785.5507
657.9059, 754.9240
658.3880, 735.4458
658.8701, 745.2400
659.3522, 760.2449
659.8344, 767.2546
660.3165, 766.7120
660.7986, 762.1498
661.2807, 750.4960
661.7628, 740.9607
662.2449, 741.7578
662.7271, 747.7312
663.2092, 750.9431
663.6913, 750.3525
664.1734, 749.1996
664.6555, 749.8597
665.1376, 751.7282
665.6198, 753.4059
666.1019, 756.0247
666.5840, 753.9643
667.0661, 741.8140
667.5482, 730.5865
668.0303, 727.4496
668.5125, 730.3537
668.9946, 735.0616
669.4767, 743.1893
669.9588, 748.2344
670.4409, 745.4499
670.9230, 739.2521
671.4052, 731.8574
671.8873, 725.3854
672.3694, 726.0436
672.8515, 737.9884
673.3336, 753.5140
673.8157, 756.7195
674.2979, 746.2500
674.7800, 739.7886
675.2621, 740.3491
675.7442, 740.9191
676.2263, 736.1055
676.7084, 729.1713
677.1906, 727.1046
677.6727, 731.6516
678.1548, 735.8849
678.6369, 738.0642
679.1190, 739.4719
679.6011, 739.5979
680.0833, 739.9542
680.5654, 744.1017
681.0475, 753.2916
681.5296, 763.1447
682.0117, 770.0992
682.4938, 773.5416
682.9760, 766.8835
683.4581, 747.5916
683.9402, 734.5668
684.4223, 738.2289
684.9044, 749.3371
685.3865, 754.2474
685.8687, 752.1520
686.3508, 747.0747
686.8329, 735.4708
687.3150, 725.0083
687.7971, 715.4763
688.2792, 710.4177
688.7614, 717.3904
689.2435, 735.6107
689.7256, 750.7130
690.2077, 748.7606
690.6898, 738.4839
691.1719, 737.6531
691.6541, 744.7423
692.1362, 746.9991
692.6183, 740.0633
693.1004, 732.1497
693.5825, 732.0578
694.0646, 739.2919
694.5468, 743.0710
695.0289, 736.2423
695.5110, 736.2324
695.9931, 752.0405
696.4752, 768.9871
696.9573, 780.3770
697.4395, 783.8425
697.9216, 773.7186
698.4037, 738.6819
698.8858, 706.7409
699.3679, 707.5070
699.8500, 726.6644
700.3322, 737.2377
700.8143, 736.1849
701.2964, 734.2880
701.7785, 738.7834
702.2606, 746.4191
702.7427, 748.1108
703.2249, 741.4400
703.7070, 737.7263
704.1891, 735.0967
704.6712, 738.9113
705.1533, 760.7449
705.6354, 787.5471
706.1176, 796.9285
706.5997, 782.1425
707.0818, 769.2098
707.5639, 770.2186
708.0460, 773.8861
708.5281, 770.4015
709.0103, 762.3435
709.4924, 756.2952
709.9745, 754.6379
710.4566, 755.6873
710.9387, 759.6159
711.4208, 764.9146
711.9030, 760.1854
712.3851, 743.3661
712.8672, 732.5399
713.3493, 734.3845
713.8314, 744.1189
714.3135, 759.2579
714.7957, 780.8153
715.2778, 788.8665
715.7599, 772.0325
716.2420, 756.7852
716.7241, 748.0611
717.2062, 744.7648
717.6884, 749.6674
718.1705, 759.6227
718.6526, 762.7880
719.1347, 748.9931
719.6168, 732.5958
720.0989, 732.1183
720.5811, 742.8491
721.0632, 752.9054
721.5453, 760.1474
722.0274, 762.1047
722.5095, 756.0399
722.9916, 745.8110
723.4738, 743.1688
723.9559, 751.3625
724.4380, 757.9344
724.9201, 764.3261
725.4022, 766.5966
725.8843, 759.9385
726.3665, 749.6002
726.8486, 742.9805
727.3307, 741.0334
727.8128, 743.0139
728.2949, 752.0102
728.7770, 761.8040
729.2592, 768.7863
729.7413, 772.3364
730.2234, 772.1033
730.7055, 767.9465
731.1876, 759.3340
731.6697, 741.1374
732.1519, 719.1310
732.6340, 722.1965
733.1161, 752.4868
733.5982, 772.9727
734.0803, 770.1620
734.5624, 762.3304
735.0446, 769.5770
735.5267, 790.7259
736.0088, 799.8816
736.4909, 787.0234
736.9730, 776.7115
737.4551, 769.7096
737.9373, 767.7842
738.4194, 777.2140
738.9015, 792.3663
739.3836, 798.0491
739.8657, 785.4418
740.3478, 772.4433
740.8300, 775.9558
741.3121, 787.8518
741.7942, 796.0146
742.2763, 799.3549
742.7584, 798.7128
743.2405, 794.2866
743.7227, 789.0923
744.2048, 788.1422
744.6869, 791.7035
745.1690, 795.4927
745.6511, 800.8201
746.1332, 802.6912
746.6154, 795.8284
747.0975, 787.5378
747.5796, 788.4784
748.0617, 798.5617
748.5438, 804.1442
749.0259, 804.1304
749.5081, 798.9460
749.9902, 782.0573
750.4723, 764.5654
750.9544, 759.2396
751.4365, 765.2559
751.9186, 772.6212
752.4008, 776.2146
752.8829, 777.1654
753.3650, 776.0909
753.8471, 773.6099
754.3292, 772.6236
754.8113, 773.2500
755.2935, 769.4355
755.7756, 756.5901
756.2577, 740.4232
756.7398, 733.6590
757.2219, 738.4041
757.7040, 744.6247
758.1862, 757.5270
758.6683, 763.7369
759.1504, 751.9014
759.6325, 733.9706
760.1146, 722.9446
760.5967, 719.6537
761.0789, 716.9102
761.5610, 707.9198
762.0431, 704.7732
762.5252, 719.9003
763.0073, 741.1611
763.4894, 753.3916
763.9716, 754.9214
764.4537, 752.3405
764.9358, 749.6588
765.4179, 745.9907
765.9000, 737.5419
766.3821, 726.4769
766.8643, 724.7965
767.3464, 734.3655
767.8285, 739.8895
768.3106, 730.4764
768.7927, 714.1439
769.2748, 710.6679
769.7570, 726.6136
770.2391, 732.4376
770.7212, 719.0494
771.2033, 708.4344
771.6854, 709.5767
772.1675, 717.2617
772.6497, 727.7589
773.1318, 740.8773
773.6139, 749.3472
774.0960, 750.1288
774.5781, 747.1440
775.0602, 739.8814
775.5424, 731.5513
776.0245, 725.3488
776.5066, 722.0499
776.9887, 722.5468
777.4708, 728.9050
777.9529, 735.3481
778.4351, 731.0253
778.9172, 719.3380
779.3993, 713.3822
779.8814, 714.7379
780.3635, 718.2582
780.8456, 721.4697
781.3278, 723.4885
781.8099, 721.4744
782.2920, 712.9789
782.7741, 714.2430
783.2562, 734.2556
783.7383, 748.4702
784.2205, 742.9341
784.7026, 731.3110
785.1847, 729.3218
785.6668, 736.6133
786.1489, 737.6840
786.6310, 721.3853
787.1132, 708.8282
787.5953, 709.7744
788.0774, 717.3668
788.5595, 728.1409
789.0416, 739.0303
789.5237, 743.0197
790.0059, 734.7766
790.4880, 726.6663
790.9701, 737.3566
791.4522, 756.8754
791.9343, 761.2180
792.4164, 750.3488
792.8986, 737.0698
793.3807, 726.5967
793.8628, 723.0712
794.3449, 735.2033
794.8270, 762.6473
795.3091, 775.2618
795.7913, 767.6345
796.2734, 762.7079
796.7555, 769.4254
797.2376, 777.3146
797.7197, 775.1677
798.2018, 764.3329
798.6840, 757.9499
799.1661, 756.4705
799.6482, 758.8080
800.1303, 771.4457
800.6124, 781.5372
801.0945, 775.7066
801.5767, 762.3670
802.0588, 759.9316
802.5409, 774.6207
803.0230, 789.6309
803.5051, 792.8568
803.9872, 791.2918
804.4694, 791.2520
804.9515, 793.4901
805.4336, 800.5175
805.9157, 812.1686
806.3978, 821.2319
806.8799, 819.5921
807.3621, 812.4484
807.8442, 816.2399
808.3263, 830.8187
808.8084, 841.9817
809.2905, 846.8091
809.7726, 850.7616
810.2548, 857.2405
810.7369, 865.6010
811.2190, 874.3142
811.7011, 884.1174
812.1832, 892.2280
812.6653, 898.9680
813.1475, 903.5732
813.6296, 902.4246
814.1117, 901.2435
814.5938, 907.8091
815.0759, 922.0436
815.5580, 933.0516
816.0402, 933.7083
816.5223, 935.7126
817.0044, 947.0099
817.4865, 960.6538
817.9686, 970.7338
818.4507, 976.1474
818.9329, 976.1854
819.4150, 969.8608
819.8971, 962.2471
820.3792, 958.2426
820.8613, 957.0203
821.3434, 957.0922
821.8256, 958.3073
822.3077, 961.3307
822.7898, 966.4131
823.2719, 970.0099
823.7540, 967.8356
824.2361, 960.5770
824.7183, 952.0185
825.2004, 941.3402
825.6825, 935.1736
826.1646, 936.9519
826.6467, 938.2312
827.1288, 931.6495
827.6110, 919.9448
828.0931, 912.7548
828.5752, 914.0508
829.0573, 911.8695
829.5394, 903.2656
830.0215, 894.7618
830.5037, 889.0166
830.9858, 884.6011
831.4679, 879.7541
831.9500, 874.2833
832.4321, 868.5380
832.9142, 862.4964
833.3964, 856.3810
833.8785, 849.7271
834.3606, 843.4134
834.8427, 839.6660
835.3248, 837.3434
835.8069, 831.3292
836.2891, 818.2476
836.7712, 806.5178
837.2533, 807.2676
837.7354, 815.6741
838.2175, 823.1533
838.6996, 828.5582
839.1818, 829.1279
839.6639, 823.8857
840.1460, 814.8489
840.6281, 803.6570
841.1102, 790.9026
841.5923, 779.6034
842.0745, 769.6506
842.5566, 761.7686
843.0387, 756.0813
843.5208, 752.3563
844.0029, 750.7173
844.4850, 750.6764
844.9672, 750.8233
845.4493, 750.2606
845.9314, 752.3996
846.4135, 761.4502
846.8956, 767.9932
847.3777, 767.2091
847.8599, 764.0582
848.3420, 764.8676
848.8241, 769.0834
849.3062, 768.4061
849.7883, 759.1765
850.2704, 746.9655
850.7526, 725.7183
851.2347, 709.1863
851.7168, 714.4988
852.1989, 733.8599
852.6810, 748.2283
853.1631, 750.8167
853.6453, 747.2202
854.1274, 739.5823
854.6095, 729.9174
855.0916, 716.8335
855.5737, 704.4971
856.0558, 705.6995
856.5380, 721.6100
857.0201, 737.8882
857.5022, 743.5280
857.9843, 742.2490
858.4664, 742.8915
858.9485, 744.3708
859.4307, 734.5129
859.9128, 711.4904
860.3949, 695.9399
860.8770, 698.8714
861.3591, 710.2921
861.8412, 715.2234
862.3234, 713.5782
862.8055, 713.2028
863.2876, 715.2593
863.7697, 715.0844
864.2518, 709.2893
864.7339, 704.4461
865.2161, 706.1888
865.6982, 713.0916
866.1803, 719.9043
866.6624, 729.8105
867.1445, 733.1323
867.6266, 719.9583
868.1088, 711.2595
868.5909, 722.7300
869.0730, 739.1644
869.5551, 739.5309
870.0372, 723.5199
870.5193, 713.4639
871.0015, 725.0134
871.4836, 734.0938
871.9657, 724.2080
872.4478, 710.1119
872.9299, 707.2361
873.4120, 713.1386
873.8942, 717.6987
874.3763, 717.1587
874.8584, 715.1112
875.3405, 712.4128
875.8226, 711.5115
876.3047, 720.4178
876.7869, 733.0689
877.2690, 731.4940
877.7511, 713.9653
878.2332, 697.1050
878.7153, 693.0959
879.1974, 697.1695
879.6796, 702.7656
880.1617, 709.0233
880.6438, 710.0850
881.1259, 705.6223
881.6080, 702.4447
882.0901, 703.7416
882.5723, 704.7374
883.0544, 698.4769
883.5365, 686.2141
884.0186, 681.4365
884.5007, 685.9658
884.9828, 689.4664
885.4650, 689.6790
885.9471, 690.0469
886.4292, 693.3459
886.9113, 697.9235
887.3934, 699.1429
887.8755, 694.0340
888.3577, 696.5072
888.8398, 720.2594
889.3219, 732.5568
889.8040, 713.5234
890.2861, 689.1613
890.7682, 681.5742
891.2504, 688.6003
891.7325, 697.1727
892.2146, 710.1721
892.6967, 716.6196
893.1788, 708.5486
893.6609, 699.1553
894.1431, 691.1273
894.6252, 689.4195
895.1073, 706.2835
895.5894, 741.2386
896.0715, 764.1093
896.5536, 753.3645
897.0358, 734.7444
897.5179, 721.6996
898.0000, 712.0972
898.4821, 703.0322
898.9642, 694.9927
899.4464, 690.2363
899.9285, 689.6818
900.4106, 692.4691
900.8927, 699.9729
901.3748, 708.8819
901.8569, 714.5401
902.3391, 717.5460
902.8212, 720.1689
903.3033, 722.5369
903.7854, 722.1136
904.2675, 716.9607
904.7496, 709.2693
905.2318, 701.1672
905.7139, 693.6218
906.1960, 692.2057
906.6781, 696.4843
907.1602, 697.0955
907.6423, 690.4498
908.1245, 686.3360
908.6066, 696.1606
909.0887, 715.3173
909.5708, 725.1959
910.0529, 725.4665
910.5350, 720.7529
911.0172, 710.8232
911.4993, 698.7239
911.9814, 683.8659
912.4635, 672.6671
912.9456, 676.7056
913.4277, 696.7585
913.9099, 710.7490
914.3920, 717.1281
914.8741, 721.6175
915.3562, 727.7228
915.8383, 728.0182
916.3204, 713.4350
916.8026, 690.6810
917.2847, 677.2028
917.7668, 674.9358
918.2489, 676.0753
918.7310, 684.4242
919.2131, 691.2443
919.6953, 694.7290
920.1774, 695.5212
920.6595, 692.5687
921.1416, 687.1850
921.6237, 684.7318
922.1058, 687.1260
922.5880, 689.8657
923.0701, 691.6895
923.5522, 694.1091
924.0343, 700.9667
924.5164, 707.0909
924.9985, 702.6843
925.4807, 688.8733
925.9628, 683.0350
926.4449, 700.3384
926.9270, 713.4900
927.4091, 702.1360
927.8912, 687.8564
928.3734, 693.1567
928.8555, 709.1801
929.3376, 714.9510
929.8197, 705.6733
930.3018, 696.9514
930.7839, 699.1345
931.2661, 705.1204
931.7482, 708.7985
932.2303, 712.5942
932.7124, 724.2595
933.1945, 739.2679
933.6766, 740.3896
934.1588, 720.3392
934.6409, 699.8007
935.1230, 699.3498
935.6051, 709.0476
936.0872, 717.8708
936.5693, 724.2144
937.0515, 722.4739
937.5336, 713.7772
938.0157, 709.4818
938.4978, 716.8721
938.9799, 725.1988
939.4620, 715.5990
939.9442, 696.8974
940.4263, 696.4449
940.9084, 709.9895
941.3905, 711.1709
941.8726, 694.2654
942.3547, 679.1013
942.8369, 681.4024
943.3190, 693.3261
943.8011, 698.9900
944.2832, 699.5225
944.7653, 702.7148
945.2474, 708.8746
945.7296, 714.1336
946.2117, 716.9147
946.6938, 723.3173
947.1759, 742.2533
947.6580, 764.9216
948.1401, 753.9724
948.6223, 708.1096
949.1044, 685.6246
949.5865, 693.9064
950.0686, 707.0224
950.5507, 715.2068
951.0328, 717.2225
951.5150, 710.3596
951.9971, 696.1791
952.4792, 686.2022
952.9613, 679.7217
953.4434, 682.7655
953.9255, 699.6013
954.4077, 714.6218
954.8898, 720.1901
955.3719, 718.4174
955.8540, 710.4818
956.3361, 696.1360
956.8182, 696.1485
957.3004, 718.4339
957.7825, 733.1071
958.2646, 731.8650
958.7467, 729.7179
959.2288, 738.1277
959.7109, 749.3238
960.1931, 747.0300
960.6752, 728.3243
961.1573, 716.1633
961.6394, 709.8970
962.1215, 711.7761
962.6036, 732.2816
963.0858, 748.5987
963.5679, 741.2975
964.0500, 719.7670
964.5321, 707.0086
965.0142, 705.1317
965.4963, 704.2962
965.9785, 708.0252
966.4606, 707.9548
966.9427, 696.2299
967.4248, 685.7031
967.9069, 687.8289
968.3890, 698.4455
968.8712, 705.2822
969.3533, 705.6675
969.8354, 708.9587
970.3175, 723.6738
970.7996, 731.2092
971.2817, 718.1614
971.7639, 702.0399
972.2460, 699.8721
972.7281, 707.7101
973.2102, 708.7119
973.6923, 694.4318
974.1744, 690.8257
974.6566, 719.9674
975.1387, 738.4523
975.6208, 715.6230
976.1029, 683.7562
976.5850, 675.6478
977.0671, 688.5659
977.5493, 702.1885
978.0314, 716.6348
978.5135, 722.4122
978.9956, 708.3500
979.4777, 695.4608
979.9598, 693.2959
980.4420, 698.3159
980.9241, 708.4593
981.4062, 721.8730
981.8883, 732.8494
982.3704, 742.1581
982.8525, 744.1134
983.3347, 731.8060
983.8168, 717.4001
984.2989, 703.1309
984.7810, 693.9365
985.2631, 698.4681
985.7452, 714.3989
986.2274, 726.1746
986.7095, 729.4208
987.1916, 727.4830
987.6737, 715.2125
988.1558, 704.9419
988.6379, 707.6071
989.1201, 715.4704
989.6022, 717.2823
990.0843, 712.9252
990.5664, 711.0059
991.0485, 715.7069
991.5306, 720.5672
992.0128, 724.0475
992.4949, 725.5620
992.9770, 725.8914
993.4591, 723.3124
993.9412, 711.1567
994.4233, 692.0754
994.9055, 684.5891
995.3876, 701.9186
995.8697, 719.2317
996.3518, 726.9919
996.8339, 728.8546
997.3160, 724.6094
997.7982, 717.7740
998.2803, 714.1993
998.7624, 713.4667
999.2445, 707.4457
999.7266, 687.5378
1000.209, 672.9253
1000.691, 674.3466
1001.173, 682.7343
1001.655, 696.1813
1002.137, 709.4191
1002.619, 714.7396
1003.101, 712.3224
1003.584, 710.3661
1004.066, 712.2988
1004.548, 714.5507
1005.030, 714.8281
1005.512, 715.4199
1005.994, 718.9356
1006.476, 723.3495
1006.958, 724.8619
1007.440, 723.8079
1007.923, 725.7019
1008.405, 736.6435
1008.887, 742.1495
1009.369, 727.6235
1009.851, 713.7429
1010.333, 715.2279
1010.815, 726.7489
1011.297, 744.9603
1011.780, 765.8384
1012.262, 774.1987
1012.744, 758.7773
1013.226, 744.0499
1013.708, 741.4119
1014.190, 741.5292
1014.672, 738.9265
1015.154, 734.8760
1015.636, 729.9872
1016.119, 725.4823
1016.601, 726.4438
1017.083, 739.6306
1017.565, 745.5434
1018.047, 725.4379
1018.529, 708.9391
1019.011, 720.1375
1019.493, 740.4673
1019.976, 747.0302
1020.458, 740.4717
1020.940, 735.1239
1021.422, 734.7074
1021.904, 735.3069
1022.386, 733.6988
1022.868, 735.1549
1023.350, 748.2025
1023.832, 761.3704
1024.315, 761.1187
1024.797, 749.6403
1025.279, 738.6605
1025.761, 730.2120
1026.243, 723.0090
1026.725, 711.6970
1027.207, 707.8774
1027.689, 727.0792
1028.172, 747.3014
1028.654, 744.4838
1029.136, 692.4617
1029.618, 732.9056
1030.100, 755.8353
1030.582, 762.1920
1031.064, 702.3373
1031.546, 727.9809
1032.028, 719.3605
1032.511, 709.3362
1032.993, 747.0132
1033.475, 696.7889
1033.957, 733.7095
1034.439, 735.8433
1034.921, 753.8981
1035.403, 737.4776
1035.885, 731.7055
1036.368, 760.4207
1036.850, 770.0394
1037.332, 749.6503
1037.814, 768.7171
1038.296, 717.2886
1038.778, 727.7207
1039.260, 764.8430
1039.742, 746.1872
1040.224, 765.8845
1040.707, 770.9756
1041.189, 709.6835
1041.671, 763.8371
1042.153, 768.0641
1042.635, 721.0276
1043.117, 771.2255
1043.599, 731.2563
1044.081, 723.4713
1044.563, 739.9067
1045.046, 731.0941
1045.528, 762.0886
1046.010, 744.2531
1046.492, 750.3735
1046.974, 743.6986
1047.456, 725.9531
1047.938, 718.1754
1048.420, 721.8122
1048.902, 731.6460
1049.385, 751.5092
1049.867, 762.4839
1050.349, 753.3351
1050.831, 742.1395
1051.313, 750.0093
1051.795, 770.6418
1052.277, 775.7007
1052.759, 762.9492
1053.242, 754.9562
1053.724, 753.2983
1054.206, 751.4829
1054.688, 747.2348
1055.170, 743.4333
1055.652, 742.7455
1056.134, 743.8892
1056.616, 742.6203
1057.099, 739.3680
1057.581, 744.2201
1058.063, 757.0089
1058.545, 766.2731
1059.027, 769.1675
1059.509, 764.9644
1059.991, 752.4168
1060.473, 737.5234
1060.955, 729.5966
1061.438, 727.9152
1061.920, 731.0540
1062.402, 737.8943
1062.884, 743.0618
1063.366, 745.6472
1063.848, 746.6030
1064.330, 746.3835
1064.812, 746.7587
1065.294, 750.7575
1065.777, 755.9404
1066.259, 758.2343
1066.741, 757.7139
1067.223, 752.8220
1067.705, 745.2086
1068.187, 741.1890
1068.669, 742.7579
1069.151, 745.0380
1069.634, 743.5897
1070.116, 741.7855
1070.598, 743.2850
1071.080, 746.9251
1071.562, 754.7596
1072.044, 762.1942
1072.526, 754.7441
1073.008, 733.5083
1073.490, 725.5416
1073.973, 752.3922
1074.455, 778.6353
1074.937, 775.6457
1075.419, 765.4748
1075.901, 765.4882
1076.383, 771.8396
1076.865, 780.0991
1077.347, 787.8201
1077.829, 790.0779
1078.312, 784.5779
1078.794, 776.4663
1079.276, 760.6800
1079.758, 751.4529
1080.240, 766.3583
1080.722, 781.8258
1081.204, 767.5920
1081.686, 738.0639
1082.169, 735.2698
1082.651, 770.5549
1083.133, 789.2219
1083.615, 767.5680
1084.097, 752.3392
1084.579, 757.2634
1085.061, 766.4144
1085.543, 771.1302
1086.026, 774.3409
1086.508, 782.1851
1086.990, 794.4314
1087.472, 794.9669
1087.954, 774.1136
1088.436, 765.5363
1088.918, 777.5392
1089.400, 788.5225
1089.882, 791.1823
1090.365, 786.8710
1090.847, 775.1918
1091.329, 759.2503
1091.811, 751.0564
1092.293, 751.4754
1092.775, 751.2256
1093.257, 749.5427
1093.739, 753.6380
1094.221, 765.9932
1094.704, 778.4609
1095.186, 785.2119
1095.668, 789.2258
1096.150, 797.7950
1096.632, 808.2206
1097.114, 804.7260
1097.596, 789.4036
1098.078, 774.1691
1098.561, 761.0375
1099.043, 746.5173
1099.525, 729.2881
1100.007, 724.0189
1100.489, 754.1134
1100.971, 793.0278
1101.453, 794.9620
1101.935, 775.1965
1102.417, 758.9819
1102.900, 748.6613
1103.382, 740.0415
1103.864, 733.4152
1104.346, 739.6924
1104.828, 772.5011
1105.310, 797.9540
1105.792, 779.6710
1106.274, 751.0665
1106.756, 736.4641
1107.239, 735.3967
1107.721, 752.0308
1108.203, 778.7148
1108.685, 793.5867
1109.167, 789.9354
1109.649, 778.1132
1110.131, 744.4196
1110.613, 726.3129
1111.096, 755.8275
1111.578, 789.4323
1112.060, 793.6346
1112.542, 779.3271
1113.024, 766.3998
1113.506, 755.8958
1113.988, 750.7330
1114.470, 757.0073
1114.953, 757.2441
1115.435, 745.7983
1115.917, 736.2273
1116.399, 733.4717
1116.881, 734.8700
1117.363, 737.3870
1117.845, 742.1447
1118.327, 755.6934
1118.809, 781.6681
1119.292, 787.4623
1119.774, 770.1484
1120.256, 756.3043
1120.738, 751.7996
1121.220, 755.7925
1121.702, 768.7020
1122.184, 783.9140
1122.666, 792.9622
1123.148, 795.6542
1123.631, 786.7580
1124.113, 771.1580
1124.595, 772.2289
1125.077, 788.1711
1125.559, 796.2228
1126.041, 789.0149
1126.523, 777.6793
1127.005, 770.3438
1127.488, 763.8371
1127.970, 750.4315
1128.452, 738.9508
1128.934, 746.5958
1129.416, 761.8466
1129.898, 761.0124
1130.380, 745.9363
1130.862, 737.5718
1131.344, 743.4526
1131.827, 755.5405
1132.309, 780.9299
1132.791, 797.5126
1133.273, 785.2814
1133.755, 768.2250
1134.237, 768.9312
1134.719, 777.3932
1135.201, 770.2804
1135.683, 745.9254
1136.166, 737.1426
1136.648, 762.1377
1137.130, 775.1703
1137.612, 765.9890
1138.094, 760.4800
1138.576, 772.2416
1139.058, 782.2303
1139.540, 770.0474
1140.023, 746.9517
1140.505, 745.5840
1140.987, 767.3506
1141.469, 780.1475
1141.951, 783.5427
1142.433, 784.3486
1142.915, 783.8600
1143.397, 774.3705
1143.880, 751.3984
1144.362, 728.7986
1144.844, 721.6497
1145.326, 726.7268
1145.808, 742.3941
1146.290, 762.6228
1146.772, 770.2064
1147.254, 768.2890
1147.736, 771.6563
1148.219, 781.7781
1148.701, 784.8484
1149.183, 771.9293
1149.665, 759.3998
1150.147, 763.3921
1150.629, 769.3629
1151.111, 765.6778
1151.593, 757.3479
1152.075, 743.7433
1152.558, 732.5552
1153.040, 743.3990
1153.522, 779.3389
1154.004, 800.8246
1154.486, 789.8167
1154.968, 778.1584
1155.450, 766.1154
1155.932, 760.6619
1156.415, 770.8975
1156.897, 781.2710
1157.379, 775.0197
1157.861, 759.0731
1158.343, 755.5589
1158.825, 766.6595
1159.307, 770.6974
1159.789, 767.2134
1160.271, 757.5940
1160.754, 740.8338
1161.236, 732.5770
1161.718, 740.8419
1162.200, 757.5057
1162.682, 776.3122
1163.164, 790.7268
1163.646, 779.3652
1164.128, 753.8738
1164.610, 748.4722
1165.093, 757.7438
1165.575, 755.7724
1166.057, 740.8099
1166.539, 735.4312
1167.021, 751.9407
1167.503, 769.2167
1167.985, 772.2816
1168.467, 769.4069
1168.950, 762.2890
1169.432, 756.2043
1169.914, 759.2094
1170.396, 765.5641
1170.878, 762.6067
1171.360, 749.9374
1171.842, 744.0934
1172.324, 753.3608
1172.807, 759.4032
1173.289, 757.6270
1173.771, 758.9948
1174.253, 772.7932
1174.735, 779.1637
1175.217, 758.2829
1175.699, 728.5192
1176.181, 728.0358
1176.663, 753.6273
1177.146, 755.6268
1177.628, 734.3060
1178.110, 730.5939
1178.592, 747.6874
1179.074, 758.1519
1179.556, 752.6573
1180.038, 744.4365
1180.520, 743.5951
1181.002, 746.1301
1181.485, 750.1617
1181.967, 751.3310
1182.449, 735.9462
1182.931, 717.0219
1183.413, 719.6831
1183.895, 739.1189
1184.377, 754.1409
1184.859, 759.0363
1185.342, 761.5387
1185.824, 762.1766
1186.306, 764.9940
1186.788, 778.1596
1187.270, 785.6179
1187.752, 777.1187
1188.234, 759.9644
1188.716, 734.0516
1189.198, 708.4442
1189.681, 711.1242
1190.163, 747.0999
1190.645, 765.6465
1191.127, 763.2957
1191.609, 759.2697
1192.091, 755.2690
1192.573, 759.1385
1193.055, 775.2748
1193.537, 786.2569
1194.020, 774.3616
1194.502, 750.3941
1194.984, 729.8815
1195.466, 716.0749
1195.948, 721.8066
1196.430, 739.0903
1196.912, 749.8250
1197.394, 751.6131
1197.877, 746.7371
1198.359, 736.3190
1198.841, 728.9178
1199.323, 731.7982
1199.805, 735.4963
1200.287, 735.0156
1200.769, 734.2467
1201.251, 734.7936
1201.734, 737.1437
1202.216, 745.3463
1202.698, 755.2947
1203.180, 750.8010
1203.662, 726.8329
1204.144, 723.0125
1204.626, 748.6011
1205.108, 759.6740
1205.590, 746.9659
1206.073, 738.5715
1206.555, 746.8169
1207.037, 759.6957
1207.519, 766.2701
1208.001, 768.8882
1208.483, 774.3063
1208.965, 778.5225
1209.447, 765.6310
1209.929, 744.3450
1210.412, 739.7312
1210.894, 749.1223
1211.376, 749.2707
1211.858, 733.7629
1212.340, 723.8415
1212.822, 738.5426
1213.304, 748.3347
1213.786, 730.1768
1214.269, 712.9227
1214.751, 716.2713
1215.233, 726.9392
1215.715, 731.6958
1216.197, 732.5070
1216.679, 736.5920
1217.161, 744.5896
1217.643, 741.4327
1218.125, 722.6472
1218.608, 713.9241
1219.090, 718.5872
1219.572, 726.5924
1220.054, 734.8135
1220.536, 740.4321
1221.018, 741.1655
1221.500, 739.1713
1221.982, 737.4577
1222.464, 735.5486
1222.947, 730.7987
1223.429, 726.1747
1223.911, 729.0825
1224.393, 736.3779
1224.875, 739.2886
1225.357, 736.2004
1225.839, 731.2379
1226.321, 724.6882
1226.804, 719.8446
1227.286, 717.8866
1227.768, 717.6655
1228.250, 715.4868
1228.732, 719.1021
1229.214, 738.5006
1229.696, 761.2247
1230.178, 770.6169
1230.661, 766.9959
1231.143, 748.4704
1231.625, 714.2856
1232.107, 696.1518
1232.589, 694.7598
1233.071, 700.1980
1233.553, 709.2043
1234.035, 712.7458
1234.517, 706.3696
1235.000, 699.6706
1235.482, 702.0709
##END=



