##NAMES=Georgbokiite
##RRUFFID=R070111
##IDEAL CHEMISTRY=Cu^2+^_5_O_2_(Se^4+^O_3_)_2_Cl_2_
##LOCALITY=Tolbachik Volcano, Kamchatka Peninsula, Russia
##OWNER=RRUFF
##SOURCE=Michael Scott
##DESCRIPTION=Deep reddish brown polished fragments embedded in epoxy, co-type material
##STATUS=The identification of this mineral has been confirmed only by chemical analysis
##URL=rruff.info/R070111
##MEASURED CHEMISTRY=light phase: Cu_5.00_O_2_(Se^4+^_1.00_O_3_)_2_Cl_2.00_
144.9338, 741.1788
145.4159, 771.5771
145.8980, 791.9283
146.3801, 804.5746
146.8622, 818.2377
147.3444, 835.5916
147.8265, 854.7295
148.3086, 872.6979
148.7907, 889.3472
149.2728, 906.8328
149.7549, 929.2428
150.2371, 955.2539
150.7192, 974.6358
151.2013, 983.4930
151.6834, 984.8103
152.1655, 979.4471
152.6476, 966.6226
153.1298, 957.6271
153.6119, 966.0979
154.0940, 991.4237
154.5761, 1008.416
155.0582, 1005.721
155.5403, 996.0387
156.0225, 989.3857
156.5046, 986.7670
156.9867, 983.2711
157.4688, 972.2389
157.9509, 952.6743
158.4330, 938.0208
158.9152, 930.0380
159.3973, 929.2135
159.8794, 939.2438
160.3615, 960.2050
160.8436, 982.3869
161.3257, 996.1517
161.8079, 1000.990
162.2900, 1000.253
162.7721, 985.0986
163.2542, 970.6259
163.7363, 967.3709
164.2184, 976.3423
164.7006, 987.9337
165.1827, 990.0804
165.6648, 980.0191
166.1469, 971.4186
166.6290, 965.3864
167.1111, 961.3978
167.5933, 957.8256
168.0754, 954.9871
168.5575, 956.6229
169.0396, 970.6492
169.5217, 1004.923
170.0038, 1026.152
170.4860, 1022.951
170.9681, 1014.172
171.4502, 1008.519
171.9323, 1008.181
172.4144, 1012.031
172.8965, 1020.534
173.3787, 1039.328
173.8608, 1047.064
174.3429, 1035.883
174.8250, 1020.612
175.3071, 1007.408
175.7892, 998.3078
176.2714, 994.1631
176.7535, 997.2617
177.2356, 1012.074
177.7177, 1022.366
178.1998, 1023.472
178.6819, 1024.355
179.1641, 1030.903
179.6462, 1043.459
180.1283, 1057.756
180.6104, 1068.367
181.0925, 1073.446
181.5746, 1080.020
182.0567, 1091.761
182.5389, 1101.876
183.0210, 1105.097
183.5031, 1101.707
183.9852, 1096.804
184.4673, 1096.592
184.9494, 1103.524
185.4316, 1107.158
185.9137, 1103.821
186.3958, 1100.875
186.8779, 1104.371
187.3600, 1113.525
187.8421, 1121.715
188.3243, 1121.319
188.8064, 1109.564
189.2885, 1100.206
189.7706, 1095.195
190.2527, 1090.384
190.7348, 1082.390
191.2170, 1071.899
191.6991, 1063.173
192.1812, 1061.462
192.6633, 1069.743
193.1454, 1067.306
193.6275, 1041.819
194.1097, 1018.704
194.5918, 1012.891
195.0739, 1022.368
195.5560, 1035.140
196.0381, 1040.882
196.5202, 1039.011
197.0024, 1034.743
197.4845, 1023.306
197.9666, 1014.367
198.4487, 1013.602
198.9308, 1019.674
199.4129, 1027.429
199.8951, 1032.971
200.3772, 1036.273
200.8593, 1038.671
201.3414, 1041.775
201.8235, 1042.683
202.3056, 1036.655
202.7878, 1026.956
203.2699, 1022.608
203.7520, 1030.816
204.2341, 1050.653
204.7162, 1061.995
205.1983, 1060.335
205.6805, 1056.824
206.1626, 1052.557
206.6447, 1049.159
207.1268, 1050.057
207.6089, 1057.923
208.0910, 1071.310
208.5732, 1080.162
209.0553, 1082.784
209.5374, 1083.583
210.0195, 1083.381
210.5016, 1082.123
210.9837, 1079.302
211.4659, 1074.469
211.9480, 1068.369
212.4301, 1063.974
212.9122, 1058.143
213.3943, 1057.532
213.8764, 1067.837
214.3586, 1083.106
214.8407, 1094.596
215.3228, 1098.491
215.8049, 1096.884
216.2870, 1095.027
216.7691, 1093.786
217.2513, 1091.096
217.7334, 1081.221
218.2155, 1071.780
218.6976, 1075.532
219.1797, 1096.959
219.6618, 1123.419
220.1440, 1130.315
220.6261, 1098.437
221.1082, 1078.832
221.5903, 1083.355
222.0724, 1095.782
222.5546, 1099.208
223.0367, 1089.518
223.5188, 1076.276
224.0009, 1073.401
224.4830, 1088.024
224.9651, 1096.505
225.4473, 1097.481
225.9294, 1093.308
226.4115, 1085.722
226.8936, 1075.046
227.3757, 1059.966
227.8578, 1037.137
228.3400, 1001.074
228.8221, 982.4875
229.3042, 993.5564
229.7863, 1010.382
230.2684, 1020.461
230.7505, 1022.320
231.2327, 1018.843
231.7148, 1011.463
232.1969, 999.1525
232.6790, 995.3934
233.1611, 1008.035
233.6432, 1020.084
234.1254, 1024.704
234.6075, 1022.066
235.0896, 1013.769
235.5717, 999.6711
236.0538, 980.4833
236.5359, 972.3786
237.0181, 987.3480
237.5002, 998.8475
237.9823, 995.0895
238.4644, 982.5358
238.9465, 974.1918
239.4286, 977.8957
239.9108, 990.5347
240.3929, 997.5984
240.8750, 994.8716
241.3571, 991.4828
241.8392, 985.8516
242.3213, 981.0458
242.8035, 981.7028
243.2856, 989.8568
243.7677, 1002.377
244.2498, 1011.928
244.7319, 1020.898
245.2140, 1022.799
245.6962, 1011.111
246.1783, 995.9587
246.6604, 985.6178
247.1425, 982.8159
247.6246, 986.2165
248.1067, 994.9951
248.5889, 1017.488
249.0710, 1026.981
249.5531, 1011.679
250.0352, 993.9058
250.5173, 989.6292
250.9994, 1000.000
251.4816, 1014.583
251.9637, 1021.729
252.4458, 1019.281
252.9279, 1018.765
253.4100, 1020.643
253.8921, 1023.748
254.3743, 1029.404
254.8564, 1036.179
255.3385, 1040.235
255.8206, 1037.728
256.3027, 1028.649
256.7849, 1023.793
257.2670, 1031.524
257.7491, 1035.077
258.2312, 1026.093
258.7133, 1010.572
259.1954, 999.0598
259.6776, 998.3020
260.1597, 1005.747
260.6418, 1010.285
261.1239, 1010.453
261.6060, 1009.354
262.0881, 1006.700
262.5703, 1003.532
263.0524, 999.7415
263.5345, 995.1861
264.0166, 992.8445
264.4987, 1000.669
264.9808, 1027.335
265.4630, 1044.488
265.9451, 1041.896
266.4272, 1033.858
266.9093, 1029.691
267.3914, 1031.719
267.8735, 1037.884
268.3557, 1047.377
268.8378, 1061.768
269.3199, 1071.167
269.8020, 1074.029
270.2841, 1071.758
270.7662, 1060.380
271.2484, 1042.473
271.7305, 1028.173
272.2126, 1028.329
272.6947, 1042.145
273.1768, 1051.881
273.6589, 1055.460
274.1411, 1057.391
274.6232, 1058.793
275.1053, 1060.328
275.5874, 1063.139
276.0695, 1067.164
276.5516, 1073.212
277.0338, 1085.340
277.5159, 1108.292
277.9980, 1125.425
278.4801, 1124.650
278.9622, 1115.645
279.4443, 1109.677
279.9265, 1111.103
280.4086, 1114.839
280.8907, 1114.930
281.3728, 1111.279
281.8549, 1104.579
282.3370, 1088.680
282.8192, 1074.273
283.3013, 1075.596
283.7834, 1096.662
284.2655, 1115.516
284.7476, 1111.447
285.2297, 1089.279
285.7119, 1074.486
286.1940, 1074.378
286.6761, 1080.774
287.1582, 1086.309
287.6403, 1090.985
288.1224, 1093.139
288.6046, 1093.217
289.0867, 1090.019
289.5688, 1079.280
290.0509, 1058.941
290.5330, 1039.893
291.0151, 1032.756
291.4973, 1035.484
291.9794, 1037.171
292.4615, 1038.746
292.9436, 1037.092
293.4257, 1025.448
293.9078, 1005.531
294.3900, 992.6924
294.8721, 999.6104
295.3542, 1018.978
295.8363, 1021.992
296.3184, 995.1801
296.8005, 970.4318
297.2827, 960.8790
297.7648, 962.1421
298.2469, 966.7664
298.7290, 972.5372
299.2111, 977.7806
299.6932, 979.2140
300.1754, 976.7048
300.6575, 970.7391
301.1396, 956.9641
301.6217, 942.1079
302.1038, 933.2820
302.5859, 931.5671
303.0680, 932.7712
303.5501, 932.6683
304.0323, 931.4696
304.5144, 927.2308
304.9965, 914.2929
305.4786, 903.9481
305.9607, 903.6651
306.4428, 911.2062
306.9250, 918.9941
307.4071, 921.6382
307.8892, 919.8406
308.3713, 920.0063
308.8534, 928.9340
309.3355, 932.0487
309.8177, 920.2149
310.2998, 903.7598
310.7819, 897.4045
311.2640, 907.2860
311.7461, 923.6358
312.2282, 924.9595
312.7104, 900.0969
313.1925, 883.8237
313.6746, 882.0495
314.1567, 885.7795
314.6388, 891.1882
315.1209, 896.6945
315.6031, 900.0283
316.0852, 897.5177
316.5673, 888.3909
317.0494, 882.6879
317.5315, 879.7966
318.0136, 881.5788
318.4958, 893.7967
318.9779, 911.1560
319.4600, 921.5519
319.9421, 915.4522
320.4242, 899.3783
320.9063, 890.2709
321.3885, 889.0356
321.8706, 892.4544
322.3527, 904.1550
322.8348, 917.7246
323.3169, 926.7070
323.7990, 929.5743
324.2812, 927.5388
324.7633, 918.1955
325.2454, 902.4557
325.7275, 894.1606
326.2096, 900.2128
326.6917, 911.5511
327.1739, 918.3892
327.6560, 920.7612
328.1381, 920.7885
328.6202, 917.9106
329.1023, 913.6840
329.5844, 911.1708
330.0666, 910.9975
330.5487, 910.4771
331.0308, 905.6088
331.5129, 897.5972
331.9950, 896.0788
332.4771, 908.1907
332.9593, 921.4293
333.4414, 929.2411
333.9235, 931.2918
334.4056, 926.7097
334.8877, 914.0870
335.3698, 895.8443
335.8520, 879.5317
336.3341, 860.3780
336.8162, 849.6885
337.2983, 855.6575
337.7804, 868.3395
338.2625, 875.7565
338.7447, 874.9329
339.2268, 871.7241
339.7089, 874.3277
340.1910, 886.2694
340.6731, 891.6887
341.1552, 884.8997
341.6374, 877.7546
342.1195, 875.8679
342.6016, 878.9385
343.0837, 885.4024
343.5658, 895.5871
344.0479, 907.2722
344.5301, 904.2611
345.0122, 868.6222
345.4943, 842.4189
345.9764, 837.7259
346.4585, 843.3586
346.9406, 847.4474
347.4228, 845.9224
347.9049, 842.1422
348.3870, 841.3574
348.8691, 844.4210
349.3512, 846.1042
349.8333, 844.2138
350.3155, 842.0231
350.7976, 840.1454
351.2797, 839.2165
351.7618, 841.4235
352.2439, 851.5397
352.7260, 866.1193
353.2082, 872.9365
353.6903, 869.5074
354.1724, 864.8364
354.6545, 865.0830
355.1366, 867.4988
355.6187, 867.9065
356.1009, 864.8005
356.5830, 860.4063
357.0651, 858.2126
357.5472, 857.1406
358.0293, 849.6172
358.5114, 829.8347
358.9936, 807.0294
359.4757, 797.1778
359.9578, 800.8831
360.4399, 808.1470
360.9220, 821.0490
361.4041, 833.8906
361.8863, 838.8148
362.3684, 835.1873
362.8505, 829.6210
363.3326, 827.4701
363.8147, 828.8200
364.2968, 831.4292
364.7790, 838.8998
365.2611, 843.5974
365.7432, 840.5139
366.2253, 833.0751
366.7074, 827.2195
367.1895, 825.6121
367.6717, 827.0828
368.1538, 829.4549
368.6359, 837.2491
369.1180, 837.5435
369.6001, 820.0729
370.0822, 803.5542
370.5644, 804.0056
371.0465, 820.1458
371.5286, 836.0880
372.0107, 835.3890
372.4928, 818.9119
372.9749, 812.9472
373.4571, 826.7288
373.9392, 838.3593
374.4213, 838.6869
374.9034, 832.8176
375.3855, 828.3270
375.8676, 828.7478
376.3498, 829.6611
376.8319, 823.2682
377.3140, 809.0058
377.7961, 798.9018
378.2782, 797.6640
378.7603, 800.7421
379.2425, 802.9709
379.7246, 804.3499
380.2067, 807.2539
380.6888, 815.4009
381.1709, 824.8745
381.6530, 829.4697
382.1352, 828.5962
382.6173, 823.0486
383.0994, 810.6845
383.5815, 793.6708
384.0636, 784.7763
384.5457, 788.9453
385.0279, 795.6736
385.5100, 802.1060
385.9921, 807.7581
386.4742, 812.1581
386.9563, 815.1862
387.4384, 815.9880
387.9206, 812.7439
388.4027, 801.9924
388.8848, 795.3605
389.3669, 795.9911
389.8490, 797.7649
390.3311, 796.2718
390.8133, 792.3075
391.2954, 789.8931
391.7775, 792.3918
392.2596, 798.7314
392.7417, 801.8477
393.2238, 798.7802
393.7060, 797.0239
394.1881, 800.1360
394.6702, 804.0325
395.1523, 803.4349
395.6344, 797.1296
396.1165, 791.3752
396.5987, 796.0215
397.0808, 810.7852
397.5629, 816.2293
398.0450, 803.5426
398.5271, 790.8819
399.0092, 791.5266
399.4914, 802.1095
399.9735, 812.9072
400.4556, 820.3768
400.9377, 826.4141
401.4198, 834.5144
401.9019, 844.2704
402.3841, 849.2060
402.8662, 845.2271
403.3483, 836.0723
403.8304, 829.4492
404.3125, 826.1705
404.7946, 822.6332
405.2768, 815.6099
405.7589, 809.0912
406.2410, 808.0428
406.7231, 812.8928
407.2052, 820.2236
407.6873, 827.5905
408.1695, 835.0288
408.6516, 838.6700
409.1337, 837.3002
409.6158, 833.9252
410.0979, 825.7584
410.5800, 817.2591
411.0622, 815.2135
411.5443, 822.0224
412.0264, 832.2836
412.5085, 837.7888
412.9906, 838.4406
413.4727, 834.6155
413.9549, 818.6204
414.4370, 804.8973
414.9191, 801.1260
415.4012, 805.3760
415.8833, 810.9256
416.3654, 814.6700
416.8476, 816.8641
417.3297, 817.4440
417.8118, 815.9988
418.2939, 816.0296
418.7760, 821.4243
419.2581, 827.3035
419.7403, 825.7805
420.2224, 814.5204
420.7045, 806.0259
421.1866, 810.7986
421.6687, 820.3940
422.1508, 819.2637
422.6330, 805.1636
423.1151, 790.9315
423.5972, 787.2902
424.0793, 794.0842
424.5614, 802.0015
425.0435, 812.9709
425.5257, 822.7452
426.0078, 830.5778
426.4899, 836.1235
426.9720, 838.2602
427.4541, 836.7494
427.9362, 833.6899
428.4184, 832.4910
428.9005, 834.1578
429.3826, 834.4329
429.8647, 830.6347
430.3468, 828.0472
430.8289, 829.6049
431.3111, 834.0764
431.7932, 838.9943
432.2753, 843.9077
432.7574, 846.9090
433.2395, 841.7111
433.7216, 825.7775
434.2038, 816.7725
434.6859, 826.6024
435.1680, 839.9521
435.6501, 839.8923
436.1322, 825.7952
436.6143, 814.1826
437.0965, 812.1175
437.5786, 817.5084
438.0607, 831.4158
438.5428, 853.5769
439.0249, 868.7154
439.5070, 864.8303
439.9892, 846.5379
440.4713, 835.9495
440.9534, 842.4370
441.4355, 843.4398
441.9176, 825.6543
442.3997, 804.1238
442.8819, 797.5626
443.3640, 808.8724
443.8461, 826.2139
444.3282, 837.6093
444.8103, 843.0842
445.2924, 842.2112
445.7746, 831.3738
446.2567, 817.6497
446.7388, 794.6812
447.2209, 772.6373
447.7030, 767.4056
448.1852, 785.6074
448.6673, 810.9264
449.1494, 821.8775
449.6315, 818.4070
450.1136, 814.5917
450.5957, 811.0211
451.0779, 809.7199
451.5600, 813.2434
452.0421, 820.4397
452.5242, 827.3400
453.0063, 836.4664
453.4884, 841.9399
453.9706, 834.1489
454.4527, 816.9136
454.9348, 806.7798
455.4169, 811.4796
455.8990, 823.0015
456.3811, 827.0478
456.8633, 818.6140
457.3454, 814.6122
457.8275, 817.7166
458.3096, 823.1913
458.7917, 830.6868
459.2738, 838.0505
459.7560, 840.2486
460.2381, 833.5896
460.7202, 820.9169
461.2023, 811.5663
461.6844, 806.0590
462.1665, 802.7899
462.6487, 800.9542
463.1308, 801.5754
463.6129, 807.4089
464.0950, 817.5274
464.5771, 825.5311
465.0592, 825.0020
465.5414, 819.5095
466.0235, 818.9450
466.5056, 824.3719
466.9877, 827.1193
467.4698, 822.3370
467.9519, 812.0850
468.4341, 800.7879
468.9162, 786.6763
469.3983, 776.1749
469.8804, 774.1849
470.3625, 775.6667
470.8446, 773.1490
471.3268, 766.5032
471.8089, 763.2776
472.2910, 770.2679
472.7731, 786.5168
473.2552, 800.0125
473.7373, 815.7589
474.2195, 822.0778
474.7016, 808.8914
475.1837, 790.5493
475.6658, 780.8769
476.1479, 782.6050
476.6300, 789.1711
477.1122, 795.2745
477.5943, 800.8248
478.0764, 804.2340
478.5585, 805.0270
479.0406, 804.6663
479.5227, 804.6606
480.0049, 803.7090
480.4870, 798.8977
480.9691, 787.5464
481.4512, 778.5341
481.9333, 778.0613
482.4154, 783.7916
482.8976, 792.9543
483.3797, 805.1519
483.8618, 814.7083
484.3439, 816.0544
484.8260, 809.2366
485.3081, 803.0649
485.7903, 792.1721
486.2724, 788.1834
486.7545, 802.0717
487.2366, 820.9959
487.7187, 829.1075
488.2008, 822.3826
488.6830, 808.7983
489.1651, 795.3636
489.6472, 781.4935
490.1293, 780.3539
490.6114, 803.6038
491.0935, 822.4688
491.5757, 822.4966
492.0578, 812.2321
492.5399, 802.6877
493.0220, 795.9003
493.5041, 793.1188
493.9862, 797.0242
494.4684, 805.7521
494.9505, 813.9560
495.4326, 820.6506
495.9147, 827.3224
496.3968, 836.9608
496.8789, 848.7851
497.3611, 850.4564
497.8432, 834.4171
498.3253, 817.7696
498.8074, 805.3176
499.2895, 795.8625
499.7716, 786.3813
500.2538, 776.6273
500.7359, 771.1653
501.2180, 777.0341
501.7001, 795.1868
502.1822, 807.1759
502.6643, 811.7507
503.1465, 811.3965
503.6286, 802.5831
504.1107, 791.6865
504.5928, 786.3218
505.0749, 788.2874
505.5570, 796.6472
506.0392, 819.3600
506.5213, 847.9540
507.0034, 851.8218
507.4855, 823.1869
507.9676, 795.0274
508.4497, 794.2027
508.9319, 816.3942
509.4140, 827.9966
509.8961, 819.4633
510.3782, 812.9561
510.8603, 817.4745
511.3424, 825.5382
511.8246, 827.9601
512.3067, 823.4113
512.7888, 817.2087
513.2709, 814.2999
513.7531, 814.5887
514.2352, 816.3762
514.7173, 820.2892
515.1994, 824.6994
515.6815, 831.2990
516.1636, 836.9269
516.6458, 838.0765
517.1279, 834.1127
517.6100, 828.2463
518.0921, 822.0004
518.5742, 815.6721
519.0563, 807.8581
519.5385, 798.2346
520.0206, 796.6662
520.5027, 813.8612
520.9848, 840.8090
521.4669, 845.5428
521.9490, 809.6451
522.4312, 787.0601
522.9133, 794.1062
523.3954, 811.2845
523.8775, 825.8241
524.3596, 834.7425
524.8417, 837.1354
525.3239, 831.8347
525.8060, 820.5000
526.2881, 807.4272
526.7702, 787.8895
527.2523, 779.4582
527.7344, 799.4859
528.2166, 821.8898
528.6987, 826.2408
529.1808, 814.0212
529.6629, 804.5028
530.1450, 811.9008
530.6271, 823.5341
531.1093, 821.5280
531.5914, 808.2948
532.0735, 799.2405
532.5556, 801.3182
533.0377, 808.9634
533.5198, 812.9788
534.0020, 811.7775
534.4841, 811.3909
534.9662, 810.3697
535.4483, 811.5494
535.9304, 819.2211
536.4125, 829.5817
536.8947, 834.9825
537.3768, 831.8297
537.8589, 825.6976
538.3410, 826.4462
538.8231, 834.7141
539.3052, 837.5873
539.7874, 831.1514
540.2695, 823.2534
540.7516, 818.1516
541.2337, 815.6003
541.7158, 815.5355
542.1979, 819.9155
542.6801, 823.7858
543.1622, 823.5543
543.6443, 821.0145
544.1264, 818.6352
544.6085, 817.0806
545.0906, 817.6034
545.5728, 821.8087
546.0549, 829.4755
546.5370, 835.0297
547.0191, 836.8099
547.5012, 838.5521
547.9833, 840.8132
548.4655, 843.2511
548.9476, 847.0968
549.4297, 851.6911
549.9117, 852.3002
550.3939, 842.2194
550.8760, 825.8914
551.3581, 815.1867
551.8402, 810.5040
552.3223, 806.1977
552.8044, 797.9366
553.2866, 790.6062
553.7687, 794.9240
554.2508, 813.2748
554.7329, 829.0270
555.2150, 840.4419
555.6971, 847.8228
556.1793, 850.0104
556.6614, 848.4097
557.1435, 845.9547
557.6256, 844.0468
558.1077, 842.1970
558.5898, 838.6547
559.0720, 832.1763
559.5541, 830.8838
560.0362, 842.0544
560.5183, 849.8823
561.0004, 840.6667
561.4825, 823.4724
561.9647, 817.3150
562.4468, 831.6805
562.9289, 848.0602
563.4110, 852.7833
563.8931, 849.8299
564.3752, 846.9155
564.8574, 845.4426
565.3395, 843.5185
565.8216, 839.2115
566.3037, 833.0472
566.7858, 829.6541
567.2679, 831.6045
567.7501, 833.0648
568.2322, 830.8221
568.7143, 829.8901
569.1964, 836.8430
569.6785, 850.0596
570.1606, 860.0505
570.6428, 859.5138
571.1249, 851.9958
571.6070, 843.2449
572.0891, 833.2211
572.5712, 827.2152
573.0533, 827.5410
573.5355, 831.5718
574.0176, 837.4189
574.4997, 845.5236
574.9818, 848.8931
575.4639, 839.6951
575.9460, 833.2969
576.4282, 841.0131
576.9103, 855.6650
577.3924, 866.4265
577.8745, 869.5257
578.3566, 866.4091
578.8387, 855.6938
579.3209, 837.4092
579.8030, 833.2645
580.2851, 852.6100
580.7672, 867.4468
581.2493, 859.1173
581.7314, 842.6668
582.2136, 836.5569
582.6957, 844.6331
583.1778, 848.2415
583.6599, 831.8930
584.1420, 811.5213
584.6241, 805.8965
585.1063, 813.7761
585.5884, 823.4421
586.0705, 828.6065
586.5526, 832.3451
587.0347, 843.3962
587.5168, 872.6650
587.9990, 881.4288
588.4811, 843.5073
588.9632, 811.1501
589.4453, 811.6938
589.9274, 830.6732
590.4095, 840.1396
590.8917, 828.7094
591.3738, 814.8773
591.8559, 817.4187
592.3380, 830.2519
592.8201, 837.1172
593.3022, 835.7890
593.7844, 832.6268
594.2665, 831.9700
594.7486, 833.1694
595.2307, 833.3754
595.7128, 831.6235
596.1949, 830.1677
596.6771, 828.1978
597.1592, 827.2600
597.6413, 830.7307
598.1234, 836.2832
598.6055, 836.4835
599.0876, 825.1500
599.5698, 811.6357
600.0519, 813.3628
600.5340, 828.8998
601.0161, 839.3835
601.4982, 841.1144
601.9803, 836.9276
602.4625, 826.8020
602.9446, 811.8526
603.4267, 802.9468
603.9088, 806.1718
604.3909, 807.5584
604.8730, 798.6261
605.3552, 789.2441
605.8373, 790.9921
606.3194, 803.5519
606.8015, 817.4002
607.2836, 825.9943
607.7657, 829.7204
608.2479, 828.3288
608.7300, 820.6561
609.2121, 816.3679
609.6942, 821.6461
610.1763, 825.9866
610.6584, 815.1542
611.1406, 792.4670
611.6227, 778.0283
612.1048, 781.1341
612.5869, 786.1676
613.0690, 784.9766
613.5511, 781.2739
614.0333, 780.9203
614.5154, 784.8074
614.9975, 789.4546
615.4796, 791.9794
615.9617, 792.3461
616.4438, 789.5381
616.9260, 781.3160
617.4081, 776.6806
617.8902, 781.5010
618.3723, 787.7808
618.8544, 788.6693
619.3365, 784.4064
619.8187, 778.1890
620.3008, 767.3867
620.7829, 758.4040
621.2650, 756.7230
621.7471, 759.8987
622.2292, 763.6671
622.7114, 766.7380
623.1935, 769.2693
623.6756, 771.6096
624.1577, 773.6322
624.6398, 773.1725
625.1219, 767.7010
625.6041, 764.8397
626.0862, 768.5813
626.5683, 774.3451
627.0504, 780.4716
627.5325, 786.2092
628.0146, 786.7100
628.4968, 772.7130
628.9789, 759.1234
629.4610, 762.2139
629.9431, 775.6135
630.4252, 784.6868
630.9073, 785.0490
631.3895, 778.0826
631.8716, 763.2396
632.3537, 740.9559
632.8358, 732.8548
633.3179, 749.1970
633.8000, 762.0816
634.2822, 760.5858
634.7643, 756.2070
635.2464, 760.0395
635.7285, 771.6155
636.2106, 779.2856
636.6927, 774.8213
637.1749, 766.5490
637.6570, 761.0078
638.1391, 758.1667
638.6212, 758.2076
639.1033, 761.1263
639.5854, 764.7216
640.0676, 766.4167
