##NAMES=Gibbsite
##RRUFFID=R190038
##IDEAL CHEMISTRY=Al(OH)_3_
##LOCALITY=Mokrá, Žlutice, Karlovy Vary District, Karlovy Vary Region, Czech Republic
##OWNER=RRUFF
##SOURCE=Jim McGlasson
##DESCRIPTION=Brownish yellow hemispheres of gibbsite on black matrix.
##STATUS=The identification of this mineral has been confirmed only by single crystal X-ray diffraction.
##URL=rruff.info/R190038
143.0980, 0.0000000E+00
143.5801, 0.3566890
144.0623, 1.727417
144.5444, 3.126099
145.0265, 4.624268
145.5086, 6.276855
145.9907, 7.560913
146.4728, 9.781860
146.9550, 13.94592
147.4371, 20.28809
147.9192, 23.55994
148.4013, 20.76514
148.8834, 16.69116
149.3655, 15.70947
149.8477, 20.75330
150.3298, 25.57166
150.8119, 29.27686
151.2940, 31.86621
151.7761, 33.08679
152.2583, 32.76672
152.7404, 31.55017
153.2225, 29.63586
153.7046, 23.99463
154.1867, 20.54871
154.6688, 21.91516
155.1510, 29.48889
155.6331, 34.66479
156.1152, 35.97449
156.5973, 34.62158
157.0794, 31.63538
157.5615, 24.29639
158.0437, 18.05322
158.5258, 15.34424
159.0079, 17.99329
159.4900, 20.29797
159.9721, 19.97363
160.4542, 18.15894
160.9364, 18.75427
161.4185, 24.02991
161.9006, 29.61096
162.3827, 33.31091
162.8648, 34.59424
163.3469, 33.76538
163.8291, 31.95935
164.3112, 29.82507
164.7933, 26.96082
165.2754, 22.13025
165.7575, 17.84399
166.2396, 14.89941
166.7218, 14.78894
167.2039, 15.54797
167.6860, 16.46301
168.1681, 17.40955
168.6502, 17.68958
169.1323, 16.04102
169.6145, 13.82324
170.0966, 12.59009
170.5787, 13.35034
171.0608, 14.53040
171.5429, 14.40100
172.0250, 12.92114
172.5072, 11.90918
172.9893, 12.96802
173.4714, 14.85388
173.9535, 16.05103
174.4356, 16.24695
174.9177, 15.62634
175.3999, 13.98755
175.8820, 11.43457
176.3641, 9.019287
176.8462, 8.255737
177.3283, 8.145874
177.8104, 6.573486
178.2926, 2.007935
178.7747, 3.420044
179.2568, 6.827515
179.7389, 8.172729
180.2210, 8.356323
180.7031, 7.698242
181.1853, 6.252075
181.6674, 4.526489
182.1495, 2.656128
182.6316, 0.5576170
183.1137, 2.282227
183.5958, 5.734985
184.0780, 8.392212
184.5601, 8.154175
185.0422, 5.774292
185.5243, 4.204224
186.0064, 5.255737
186.4885, 7.692993
186.9707, 7.523926
187.4528, 4.354858
187.9349, 1.422119
188.4170, 2.893188
188.8991, 7.986084
189.3812, 11.97144
189.8634, 12.89624
190.3455, 11.56726
190.8276, 11.35693
191.3097, 12.61658
191.7918, 14.12219
192.2739, 14.33264
192.7561, 13.45410
193.2382, 12.66138
193.7203, 12.20544
194.2024, 12.17944
194.6845, 13.09167
195.1666, 15.11560
195.6488, 17.31836
196.1309, 18.86487
196.6130, 19.80688
197.0951, 19.64221
197.5772, 17.51660
198.0593, 13.71082
198.5415, 10.23230
199.0236, 6.904419
199.5057, 4.527710
199.9878, 5.229858
200.4699, 9.726440
200.9520, 13.21899
201.4342, 12.56018
201.9163, 7.946045
202.3984, 4.967285
202.8805, 3.820557
203.3626, 4.070557
203.8447, 5.293335
204.3269, 7.615845
204.8090, 10.27539
205.2911, 13.36877
205.7732, 16.96484
206.2553, 19.00867
206.7374, 19.17468
207.2196, 18.12354
207.7017, 17.23645
208.1838, 16.19141
208.6659, 16.33899
209.1480, 18.38818
209.6301, 22.50330
210.1123, 26.23120
210.5944, 29.71887
211.0765, 32.58350
211.5586, 34.19348
212.0407, 34.24792
212.5228, 33.81335
213.0050, 33.08191
213.4871, 31.99084
213.9692, 31.19116
214.4513, 30.91138
214.9334, 30.69958
215.4155, 29.69446
215.8977, 27.25806
216.3798, 25.67249
216.8619, 26.21387
217.3440, 29.43738
217.8261, 30.02405
218.3082, 26.92407
218.7904, 22.34045
219.2725, 19.39734
219.7546, 18.89612
220.2367, 18.33826
220.7188, 17.03564
221.2009, 14.91833
221.6831, 12.66260
222.1652, 9.803833
222.6473, 7.272217
223.1294, 6.613525
223.6115, 9.061646
224.0936, 10.91785
224.5758, 11.13159
225.0579, 9.477905
225.5400, 7.647583
226.0221, 4.944458
226.5042, 2.618286
226.9863, 2.501831
227.4685, 5.686890
227.9506, 9.102051
228.4327, 12.24109
228.9148, 15.28552
229.3969, 16.25610
229.8790, 13.71252
230.3612, 10.27185
230.8433, 9.464600
231.3254, 13.62720
231.8075, 16.03845
232.2896, 14.23047
232.7717, 7.448120
233.2539, 3.681763
233.7360, 4.395996
234.2181, 6.893677
234.7002, 8.175659
235.1823, 7.806152
235.6644, 6.935059
236.1466, 5.400757
236.6287, 2.868408
237.1108, 2.154907
237.5929, 4.779541
238.0750, 8.008911
238.5571, 8.803589
239.0393, 5.663818
239.5214, 3.154053
240.0035, 2.505981
240.4856, 3.891846
240.9677, 4.022705
241.4498, 1.731445
241.9320, 0.8872070
242.4141, 1.905273
242.8962, 1.117920
243.3783, 0.7406010
243.8604, 4.035034
244.3425, 8.733032
244.8247, 12.03247
245.3068, 13.36340
245.7889, 13.65930
246.2710, 13.86292
246.7531, 14.02295
247.2352, 14.00195
247.7174, 13.96533
248.1995, 13.84717
248.6816, 12.52930
249.1637, 9.466919
249.6458, 5.963989
250.1279, 2.871338
250.6101, 0.4906010
251.0922, 1.674805
251.5743, 0.8085940
252.0564, 6.296509
252.5385, 8.783936
253.0206, 7.001221
253.5028, 3.969482
253.9849, 1.601196
254.4670, 0.4323730
254.9491, 1.188721
255.4312, 0.6618650
255.9133, 1.103027
256.3955, 4.511353
256.8776, 10.80933
257.3597, 16.68860
257.8418, 19.93542
258.3239, 19.63354
258.8061, 19.21655
259.2882, 19.08142
259.7703, 18.92285
260.2524, 17.34595
260.7345, 13.09375
261.2166, 9.819092
261.6988, 10.59863
262.1809, 18.33203
262.6630, 20.16187
263.1451, 12.77686
263.6272, 0.4957280
264.1093, 4.204590
264.5915, 1.616211
265.0736, 8.430664
265.5557, 11.90234
266.0378, 11.39124
266.5199, 9.827026
267.0020, 6.744995
267.4842, 3.082886
267.9663, 0.8322750
268.4484, 0.2341310
268.9305, 0.3316650
269.4126, 0.6076660
269.8947, 0.9198000
270.3769, 2.476440
270.8590, 5.787109
271.3411, 9.577515
271.8232, 11.49646
272.3053, 11.10315
272.7874, 10.29114
273.2696, 9.416870
273.7517, 8.381714
274.2338, 9.042603
274.7159, 12.25879
275.1980, 15.53601
275.6801, 14.49976
276.1623, 8.154419
276.6444, 3.491821
277.1265, 3.346558
277.6086, 7.434814
278.0907, 10.35413
278.5728, 12.12891
279.0550, 12.88806
279.5371, 12.52673
280.0192, 10.99524
280.5013, 9.473389
280.9834, 8.305420
281.4655, 7.474976
281.9477, 6.413940
282.4298, 4.897339
282.9119, 4.137207
283.3940, 6.407471
283.8761, 11.61133
284.3582, 13.72400
284.8404, 10.06775
285.3225, 3.257080
285.8046, 1.661133
286.2867, 5.640137
286.7688, 10.67786
287.2509, 13.19641
287.7331, 13.43176
288.2152, 13.64282
288.6973, 14.13074
289.1794, 14.90137
289.6615, 16.59912
290.1436, 19.20557
290.6258, 20.18750
291.1079, 15.96094
291.5900, 8.239624
292.0721, 5.061768
292.5542, 8.586548
293.0363, 13.99585
293.5185, 12.20105
294.0006, 4.144653
294.4827, 1.416260
294.9648, 3.618652
295.4469, 15.07263
295.9290, 20.02441
296.4112, 17.09314
296.8933, 11.56238
297.3754, 9.595215
297.8575, 10.47656
298.3396, 11.54358
298.8217, 10.90247
299.3039, 9.718384
299.7860, 10.58557
300.2681, 13.74133
300.7502, 17.03479
301.2323, 17.60303
301.7144, 16.47498
302.1966, 16.16870
302.6787, 18.51941
303.1608, 21.72559
303.6429, 24.35718
304.1250, 26.34912
304.6071, 26.57068
305.0893, 22.58557
305.5714, 16.47827
306.0535, 11.66187
306.5356, 9.417603
307.0177, 8.576904
307.4998, 8.417114
307.9820, 9.136475
308.4641, 9.840088
308.9462, 10.75708
309.4283, 11.86865
309.9104, 13.07300
310.3925, 14.68726
310.8747, 15.66577
311.3568, 14.72217
311.8389, 12.46558
312.3210, 10.58569
312.8031, 10.49805
313.2852, 10.87695
313.7674, 10.26855
314.2495, 7.679199
314.7316, 6.522461
315.2137, 10.72876
315.6958, 17.20166
316.1779, 20.62744
316.6601, 16.65161
317.1422, 11.30518
317.6243, 7.291992
318.1064, 4.504395
318.5885, 3.056885
319.0706, 4.645752
319.5528, 7.637451
320.0349, 9.948242
320.5170, 10.97534
320.9991, 11.20801
321.4812, 10.46313
321.9633, 8.593994
322.4455, 7.674561
322.9276, 7.641602
323.4097, 8.225586
323.8918, 9.173828
324.3739, 10.34668
324.8560, 12.05835
325.3382, 15.87915
325.8203, 21.15308
326.3024, 23.43872
326.7845, 18.50366
327.2666, 13.42114
327.7487, 11.65308
328.2309, 16.95239
328.7130, 20.49463
329.1951, 21.83960
329.6772, 21.43530
330.1593, 20.37158
330.6414, 18.21191
331.1236, 15.89966
331.6057, 13.57983
332.0878, 10.83545
332.5699, 9.540771
333.0520, 10.56836
333.5341, 12.49585
334.0163, 13.18408
334.4984, 11.94092
334.9805, 10.86230
335.4626, 10.40820
335.9447, 10.59253
336.4268, 11.70654
336.9090, 14.16675
337.3911, 16.96729
337.8732, 19.09985
338.3553, 20.45801
338.8374, 21.64600
339.3195, 23.21411
339.8017, 24.60059
340.2838, 22.59106
340.7659, 16.01294
341.2480, 10.03638
341.7301, 8.838623
342.2122, 12.58472
342.6944, 15.81763
343.1765, 18.10596
343.6586, 19.36426
344.1407, 18.83545
344.6228, 16.48120
345.1049, 14.40015
345.5871, 13.80859
346.0692, 14.56201
346.5513, 15.99829
347.0334, 18.39844
347.5155, 20.36743
347.9977, 19.41626
348.4798, 16.14062
348.9619, 13.51880
349.4440, 13.09229
349.9261, 14.00171
350.4082, 15.18604
350.8904, 16.62866
351.3725, 16.52393
351.8546, 10.52710
352.3367, 1.920654
352.8188, 1.846924
353.3009, 3.655029
353.7831, 11.74756
354.2652, 15.79810
354.7473, 16.17456
355.2294, 14.66406
355.7115, 11.43823
356.1936, 7.386963
356.6758, 3.294678
357.1579, 0.9821780
357.6400, 4.378662
358.1221, 6.088379
358.6042, 6.325195
359.0863, 5.553955
359.5685, 3.585449
360.0506, 0.8889160
360.5327, 3.003174
361.0148, 8.450439
361.4969, 11.88818
361.9790, 9.170166
362.4612, 4.654541
362.9433, 2.989746
363.4254, 10.62427
363.9075, 16.04590
364.3896, 12.97827
364.8717, 2.425049
365.3539, 3.087158
365.8360, 5.092285
366.3181, 14.97974
366.8002, 19.46240
367.2823, 11.07227
367.7644, 5.755615
368.2466, 7.052246
368.7287, 12.28784
369.2108, 13.93848
369.6929, 8.799561
370.1750, 3.455078
370.6571, 0.1733400
371.1393, 0.3825680
371.6214, 1.031982
372.1035, 1.909668
372.5856, 2.710205
373.0677, 2.854248
373.5498, 1.515625
374.0320, 1.331299
374.5141, 3.816406
374.9962, 8.571533
375.4783, 8.827881
375.9604, 2.749512
376.4425, 3.854492
376.9247, 5.727051
377.4068, 2.071289
377.8889, 7.1289003E-02
378.3710, 1.495361
378.8531, 4.225342
379.3352, 2.056152
379.8174, 5.541260
380.2995, 11.86572
380.7816, 12.46558
381.2637, 8.141602
381.7458, 3.802979
382.2279, 0.5871580
382.7101, 4.057373
383.1922, 4.940918
383.6743, 3.689941
384.1564, 2.485596
384.6385, 1.667236
385.1206, 1.654541
385.6028, 3.955322
386.0849, 8.457031
386.5670, 12.47485
387.0491, 14.02002
387.5312, 13.74048
388.0133, 12.39331
388.4955, 9.156738
388.9776, 6.795166
389.4597, 9.654785
389.9418, 15.73535
390.4239, 19.29102
390.9060, 13.54907
391.3882, 6.547852
391.8703, 5.471436
392.3524, 12.41504
392.8345, 18.16382
393.3166, 16.11475
393.7987, 10.93140
394.2809, 8.511963
394.7630, 13.34814
395.2451, 18.47778
395.7272, 22.09351
396.2093, 24.07129
396.6914, 24.38745
397.1736, 19.73462
397.6557, 15.55566
398.1378, 15.21313
398.6199, 25.63647
399.1020, 31.45654
399.5841, 28.25708
400.0663, 20.38110
400.5484, 18.36157
401.0305, 26.94263
401.5126, 35.45508
401.9947, 40.55347
402.4768, 41.78125
402.9590, 41.44922
403.4411, 38.39624
403.9232, 35.12671
404.4053, 34.96216
404.8874, 39.29297
405.3695, 41.80811
405.8517, 40.37378
406.3338, 36.38965
406.8159, 36.43481
407.2980, 41.18945
407.7801, 46.77441
408.2622, 50.83154
408.7444, 53.41235
409.2265, 54.15137
409.7086, 52.22559
410.1907, 50.41968
410.6728, 54.30566
411.1549, 63.31323
411.6371, 70.66797
412.1192, 72.34521
412.6013, 70.41968
413.0834, 68.98364
413.5655, 68.00098
414.0476, 66.29932
414.5298, 61.03296
415.0119, 54.60962
415.4940, 51.51025
415.9761, 55.12817
416.4582, 59.58545
416.9403, 59.22363
417.4225, 55.66040
417.9046, 53.29712
418.3867, 55.39600
418.8688, 58.72241
419.3509, 61.57739
419.8330, 64.14014
420.3152, 64.62598
420.7973, 61.80713
421.2794, 56.83203
421.7615, 50.98730
422.2436, 41.26294
422.7257, 34.18262
423.2079, 31.65747
423.6900, 33.99463
424.1721, 37.17261
424.6542, 43.00732
425.1363, 47.92090
425.6184, 50.04492
426.1006, 46.78052
426.5827, 45.34399
427.0648, 46.65967
427.5469, 49.29834
428.0290, 50.64941
428.5111, 50.20630
428.9933, 49.40454
429.4754, 48.36401
429.9575, 47.10986
430.4396, 47.14868
430.9217, 48.81177
431.4038, 51.03540
431.8860, 52.79858
432.3681, 53.94385
432.8502, 54.39722
433.3323, 54.30835
433.8144, 54.47656
434.2965, 55.96338
434.7787, 58.41724
435.2608, 59.90869
435.7429, 57.44702
436.2250, 53.55249
436.7071, 54.66675
437.1892, 61.30127
437.6714, 68.28833
438.1535, 70.11597
438.6356, 69.61548
439.1177, 71.55444
439.5998, 79.57202
440.0819, 87.94946
440.5641, 90.85059
441.0462, 89.73804
441.5283, 89.82544
442.0104, 95.27856
442.4925, 101.8350
442.9746, 106.3950
443.4568, 108.0886
443.9389, 109.7561
444.4210, 110.8669
444.9031, 112.8755
445.3852, 117.5388
445.8673, 128.5354
446.3495, 138.4253
446.8316, 145.4048
447.3137, 149.5791
447.7958, 153.5229
448.2779, 157.3306
448.7600, 160.6968
449.2422, 163.1292
449.7243, 162.9758
450.2064, 166.4890
450.6885, 176.1094
451.1706, 187.3687
451.6527, 192.1208
452.1349, 188.8376
452.6170, 186.0613
453.0991, 186.4692
453.5812, 189.6523
454.0633, 192.1243
454.5454, 193.5986
455.0276, 197.2952
455.5097, 208.2124
455.9918, 224.4028
456.4739, 235.3325
456.9560, 239.1960
457.4381, 239.6077
457.9203, 240.9731
458.4024, 243.1577
458.8845, 245.5366
459.3666, 247.6589
459.8488, 249.7266
460.3309, 252.1619
460.8130, 254.8555
461.2951, 256.8596
461.7772, 256.1396
462.2593, 255.1021
462.7415, 256.2747
463.2236, 261.7231
463.7057, 266.3860
464.1878, 267.9905
464.6699, 267.6006
465.1520, 267.2834
465.6342, 267.6538
466.1163, 268.1321
466.5984, 268.6978
467.0805, 269.4104
467.5626, 269.6973
468.0447, 271.1926
468.5269, 270.9316
469.0090, 266.2283
469.4911, 252.3928
469.9732, 243.9321
470.4553, 243.2566
470.9374, 247.3967
471.4196, 250.1672
471.9017, 251.6367
472.3838, 251.2812
472.8659, 248.3604
473.3480, 243.1570
473.8301, 238.7607
474.3123, 235.3289
474.7944, 232.1797
475.2765, 228.6870
475.7586, 225.1863
476.2407, 223.5798
476.7228, 225.2681
477.2050, 226.7136
477.6871, 220.9475
478.1692, 210.4504
478.6513, 203.1382
479.1334, 206.3062
479.6155, 212.6401
480.0977, 215.1404
480.5798, 213.5471
481.0619, 210.8591
481.5440, 208.0134
482.0261, 205.2688
482.5082, 202.8955
482.9904, 201.4780
483.4725, 199.6812
483.9546, 197.8838
484.4367, 195.4277
484.9188, 191.1240
485.4009, 182.2761
485.8831, 173.5579
486.3652, 166.2234
486.8473, 160.4944
487.3294, 157.3042
487.8115, 158.6931
488.2936, 159.1555
488.7758, 154.5256
489.2579, 143.0537
489.7400, 133.3103
490.2221, 126.0947
490.7042, 120.6074
491.1863, 115.5837
491.6685, 111.0171
492.1506, 107.1179
492.6327, 103.5400
493.1148, 100.1699
493.5969, 98.26489
494.0790, 97.58813
494.5612, 95.59668
495.0433, 88.06665
495.5254, 78.13672
496.0075, 71.77686
496.4896, 70.12280
496.9717, 69.49976
497.4539, 66.83203
497.9360, 63.19141
498.4181, 60.84668
498.9002, 61.74048
499.3823, 62.05933
499.8644, 58.50757
500.3466, 51.56519
500.8287, 46.91260
501.3108, 48.72607
501.7929, 50.87280
502.2750, 50.06958
502.7571, 44.76392
503.2393, 38.84961
503.7214, 30.52271
504.2035, 22.76172
504.6856, 19.68140
505.1677, 23.71362
505.6498, 26.95264
506.1320, 27.97656
506.6141, 26.97852
507.0962, 24.34937
507.5783, 19.55200
508.0604, 15.60913
508.5425, 14.65137
509.0247, 16.43750
509.5068, 18.24414
509.9889, 20.06250
510.4710, 21.32593
510.9531, 20.96924
511.4352, 19.52686
511.9174, 19.02295
512.3995, 21.40576
512.8816, 22.34106
513.3637, 14.88184
513.8458, 1.819092
514.3279, 7.940918
514.8101, 7.335205
515.2922, 3.394775
515.7743, 1.042969
516.2564, 0.9096680
516.7385, 0.2553710
517.2206, 6.350830
517.7028, 12.40527
518.1849, 14.52075
518.6670, 7.139893
519.1491, 1.397705
519.6312, 2.268799
520.1133, 3.881104
520.5955, 3.210693
521.0776, 1.348145
521.5597, 5.049072
522.0418, 6.156006
522.5239, 4.775391
523.0060, 3.908936
523.4882, 3.424072
523.9703, 3.729004
524.4524, 5.799072
524.9345, 9.324707
525.4166, 11.19971
525.8987, 10.86621
526.3809, 9.709473
526.8630, 9.540771
527.3451, 10.06470
527.8272, 10.31274
528.3093, 9.561768
528.7914, 8.719482
529.2736, 9.610840
529.7557, 11.62842
530.2378, 11.83057
530.7199, 5.909912
531.2020, 0.3242190
531.6841, 2.275391
532.1663, 1.639648
532.6484, 4.961914
533.1305, 4.872070
533.6126, 4.024902
534.0947, 4.982666
534.5768, 11.20215
535.0590, 14.76172
535.5411, 13.71997
536.0232, 9.829834
536.5053, 7.986328
536.9874, 8.892578
537.4695, 9.856201
537.9517, 9.466797
538.4338, 7.926514
538.9159, 8.678711
539.3980, 11.99170
539.8801, 15.75439
540.3622, 19.70117
540.8444, 22.83765
541.3265, 20.00635
541.8086, 9.096436
542.2907, 2.230713
542.7728, 3.705078
543.2549, 0.9750980
543.7371, 3.801270
544.2192, 1.707031
544.7013, 7.481934
545.1834, 6.979736
545.6655, 1.621826
546.1476, 2.702637
546.6298, 2.544678
547.1119, 1.849121
547.5940, 2.772461
548.0761, 6.968018
548.5582, 7.966797
549.0403, 2.019287
549.5225, 5.072754
550.0046, 8.674561
550.4867, 8.024170
550.9688, 5.217041
551.4509, 1.303955
551.9330, 8.524658
552.4152, 8.164063
552.8973, 1.180420
553.3794, 7.108887
553.8615, 2.617432
554.3436, 8.219482
554.8257, 9.567627
555.3079, 1.658447
555.7900, 4.939941
556.2721, 1.776367
556.7542, 13.84692
557.2363, 16.73389
557.7184, 7.364014
558.2006, 1.995361
558.6827, 1.200928
559.1648, 4.713623
559.6469, 9.411133
560.1290, 11.16699
560.6111, 11.02075
561.0933, 6.752930
561.5754, 0.6135250
562.0575, 1.186035
562.5396, 8.980713
563.0217, 16.50439
563.5038, 16.38184
563.9860, 8.214111
564.4681, 2.782959
564.9502, 0.2895510
565.4323, 0.1420900
565.9144, 2.786377
566.3965, 8.539063
566.8787, 12.59546
567.3608, 14.76904
567.8429, 14.76294
568.3250, 10.30322
568.8071, 2.718018
569.2892, 2.003174
569.7714, 1.027344
570.2535, 2.504639
570.7356, 4.931641
571.2177, 6.636963
571.6998, 8.705078
572.1819, 11.99805
572.6641, 15.44092
573.1462, 19.19092
573.6283, 23.13965
574.1104, 23.42773
574.5925, 13.89575
575.0746, 3.766113
575.5568, 0.6037600
576.0389, 6.383057
576.5210, 9.752930
577.0031, 6.955566
577.4852, 2.403076
577.9673, 2.717285
578.4495, 10.22095
578.9316, 15.04004
579.4137, 14.36719
579.8958, 10.22729
580.3779, 7.578125
580.8600, 6.443359
581.3422, 6.679199
581.8243, 8.860840
582.3064, 12.17676
582.7885, 14.80957
583.2706, 16.74292
583.7527, 18.61084
584.2349, 21.36230
584.7170, 24.01978
585.1991, 25.27124
585.6812, 24.28076
586.1633, 23.76465
586.6454, 26.39209
587.1276, 29.56348
587.6097, 30.09595
588.0918, 22.57642
588.5739, 18.43530
589.0560, 21.60815
589.5381, 28.91406
590.0203, 31.20874
590.5024, 26.58081
590.9845, 20.94971
591.4666, 16.04956
591.9487, 11.95386
592.4308, 9.162354
592.9130, 7.676514
593.3951, 7.721680
593.8772, 10.67871
594.3593, 15.29614
594.8414, 17.43237
595.3235, 16.33618
595.8057, 15.02563
596.2878, 17.32812
596.7699, 20.88477
597.2520, 22.05347
597.7341, 18.60449
598.2162, 14.21460
598.6984, 9.211914
599.1805, 4.649414
599.6626, 2.593018
600.1447, 7.054688
600.6268, 10.01660
601.1089, 8.289307
601.5911, 2.450439
602.0732, 1.425537
602.5553, 8.543701
603.0374, 14.20630
603.5195, 11.68799
604.0016, 0.3168950
604.4838, 3.106445
604.9659, 2.812256
605.4480, 10.16699
605.9301, 9.098633
606.4122, 2.461670
606.8943, 0.8088380
607.3765, 6.850098
607.8586, 14.44580
608.3407, 17.95752
608.8228, 18.66260
609.3049, 18.76270
609.7870, 16.76733
610.2692, 15.92578
610.7513, 18.86157
611.2334, 24.11182
611.7155, 27.62988
612.1976, 27.25659
612.6797, 25.93872
613.1619, 24.19360
613.6440, 21.56909
614.1261, 21.40088
614.6082, 24.53882
615.0903, 27.56836
615.5724, 27.09033
616.0546, 22.72070
616.5367, 24.15039
617.0188, 33.30054
617.5009, 42.37451
617.9830, 40.93457
618.4651, 32.15332
618.9473, 25.24170
619.4294, 22.93311
619.9115, 22.23364
620.3936, 21.94434
620.8757, 21.28809
621.3578, 19.07349
621.8400, 10.82764
622.3221, 4.846436
622.8042, 6.315430
623.2863, 14.04956
623.7684, 19.40234
624.2505, 20.85107
624.7327, 20.26465
625.2148, 17.42603
625.6969, 11.87061
626.1790, 9.889648
626.6611, 12.84131
627.1432, 15.49292
627.6254, 12.73169
628.1075, 5.408203
628.5896, 2.771484
629.0717, 6.312744
629.5538, 10.96729
630.0359, 10.04614
630.5181, 6.134521
631.0002, 5.008301
631.4823, 10.83862
631.9644, 15.88574
632.4465, 12.76099
632.9286, 5.174805
633.4108, 0.3532710
633.8929, 2.871582
634.3750, 6.506348
634.8571, 9.603516
635.3392, 12.15991
635.8214, 14.80127
636.3035, 17.82129
636.7856, 20.21118
637.2677, 21.37842
637.7498, 21.24219
638.2319, 20.82373
638.7141, 19.95068
639.1962, 19.46777
639.6783, 21.28198
640.1604, 24.21069
640.6425, 23.33936
641.1246, 17.67847
641.6068, 12.33301
642.0889, 13.33447
642.5710, 17.30762
643.0531, 19.53979
643.5352, 18.55811
644.0173, 16.15210
644.4995, 10.32935
644.9816, 4.121826
645.4637, 2.753662
645.9458, 13.95703
646.4279, 21.84766
646.9100, 21.78833
647.3922, 16.03418
647.8743, 12.54639
648.3564, 11.31201
648.8385, 12.07886
649.3206, 15.99902
649.8027, 21.86572
650.2849, 22.71313
650.7670, 18.67358
651.2491, 14.48462
651.7312, 14.82104
652.2133, 16.87891
652.6954, 16.47583
653.1776, 13.09473
653.6597, 9.121826
654.1418, 4.372803
654.6239, 0.5815430
655.1060, 0.5229490
655.5881, 3.178955
656.0703, 6.269043
656.5524, 8.594971
657.0345, 9.572266
657.5166, 8.006836
657.9987, 2.189941
658.4808, 1.840088
658.9630, 3.457031
659.4451, 2.686035
659.9272, 1.663574
660.4093, 9.424805
660.8914, 15.60181
661.3735, 18.18848
661.8557, 18.07837
662.3378, 15.68896
662.8199, 11.98242
663.3020, 9.038818
663.7841, 9.107178
664.2662, 9.804199
664.7484, 8.667480
665.2305, 5.865723
665.7126, 6.003418
666.1947, 13.80762
666.6768, 21.44458
667.1589, 24.42212
667.6411, 21.05322
668.1232, 19.35718
668.6053, 19.78857
669.0874, 20.71777
669.5695, 19.94360
670.0516, 17.48608
670.5338, 17.91650
671.0159, 22.23608
671.4980, 27.28857
671.9801, 29.26221
672.4622, 28.90796
672.9443, 27.90747
673.4265, 26.96167
673.9086, 25.39673
674.3907, 22.50513
674.8728, 18.87524
675.3549, 15.57373
675.8370, 12.60034
676.3192, 10.64551
676.8013, 10.73218
677.2834, 12.23633
677.7655, 12.43066
678.2476, 10.26050
678.7297, 9.498535
679.2119, 12.37085
679.6940, 17.89233
680.1761, 19.98389
680.6582, 18.48926
681.1403, 15.89185
681.6224, 11.94287
682.1046, 8.548096
682.5867, 10.26172
683.0688, 17.21045
683.5509, 23.22559
684.0330, 23.55713
684.5151, 21.69312
684.9973, 20.53564
685.4794, 20.72168
685.9615, 21.03052
686.4436, 22.94360
686.9257, 23.86792
687.4078, 21.32202
687.8900, 13.49731
688.3721, 7.331543
688.8542, 2.917969
689.3363, 1.215332
689.8184, 5.815918
690.3005, 15.71167
690.7827, 22.05273
691.2648, 21.77002
691.7469, 18.21606
692.2290, 14.32544
692.7111, 10.48804
693.1932, 7.720215
693.6754, 5.249023
694.1575, 5.068604
694.6396, 11.37183
695.1217, 21.36279
695.6038, 24.84082
696.0859, 12.13843
696.5681, 2.262939
697.0502, 1.522949
697.5323, 8.676025
698.0144, 10.89673
698.4965, 7.176025
698.9786, 3.205322
699.4608, 2.928223
699.9429, 5.237793
700.4250, 4.900391
700.9071, 2.069336
701.3892, 0.1750490
701.8713, 4.564453
702.3535, 9.789063
702.8356, 8.198730
703.3177, 2.505371
703.7998, 8.989258
704.2819, 2.252930
704.7640, 8.185547
705.2462, 14.90161
705.7283, 15.68774
706.2104, 16.46948
706.6925, 17.53394
707.1746, 18.03711
707.6567, 16.08032
708.1389, 11.50903
708.6210, 11.17017
709.1031, 17.49146
709.5852, 24.64722
710.0673, 23.68701
710.5494, 17.23926
711.0316, 11.68213
711.5137, 8.981201
711.9958, 8.200195
712.4779, 10.90161
712.9600, 14.85742
713.4421, 15.84106
713.9243, 8.876465
714.4064, 3.628418
714.8885, 2.975098
715.3706, 5.473389
715.8527, 6.645752
716.3348, 6.288574
716.8170, 5.097168
717.2991, 2.936523
717.7812, 0.4135740
718.2633, 0.7946780
718.7454, 0.7236330
719.2275, 0.5498050
719.7097, 4.330078
720.1918, 8.370117
720.6739, 10.70679
721.1560, 11.16699
721.6381, 9.423828
722.1202, 1.524170
722.6024, 5.433350
723.0845, 7.143311
723.5666, 2.719482
724.0487, 2.398926
724.5308, 8.856934
725.0129, 14.08716
725.4951, 18.18433
725.9772, 21.31714
726.4593, 20.02759
726.9414, 13.76440
727.4235, 7.292725
727.9056, 5.613037
728.3878, 6.731445
728.8699, 6.758545
729.3520, 4.967773
729.8341, 3.333740
730.3162, 2.516602
730.7983, 2.806641
731.2805, 4.705078
731.7626, 10.69019
732.2447, 13.78784
732.7268, 11.41382
733.2089, 7.668213
733.6910, 6.894775
734.1732, 9.308105
734.6553, 14.18896
735.1374, 22.55176
735.6195, 30.45947
736.1016, 29.94019
736.5837, 23.55273
737.0659, 20.63745
737.5480, 25.71436
738.0301, 31.80054
738.5122, 33.32544
738.9943, 31.53857
739.4764, 28.55566
739.9586, 23.63867
740.4407, 19.26318
740.9228, 15.90845
741.4049, 13.60278
741.8870, 12.51196
742.3691, 12.89038
742.8513, 14.16528
743.3334, 16.90454
743.8155, 19.95264
744.2976, 19.56274
744.7797, 16.14404
745.2618, 12.98413
745.7440, 11.02148
746.2261, 10.64062
746.7082, 13.78809
747.1903, 19.17651
747.6724, 22.21069
748.1545, 17.42749
748.6367, 13.37939
749.1188, 14.45435
749.6009, 19.98291
750.0830, 23.19775
750.5651, 23.32520
751.0472, 22.79712
751.5294, 22.49536
752.0115, 22.41772
752.4936, 22.93750
752.9757, 24.29126
753.4578, 24.70117
753.9399, 20.20117
754.4221, 14.88623
754.9042, 15.35962
755.3863, 21.47046
755.8684, 25.70898
756.3505, 21.39331
756.8326, 16.42798
757.3148, 16.62305
757.7969, 23.95825
758.2790, 25.88452
758.7611, 18.88306
759.2432, 11.94556
759.7253, 11.85449
760.2075, 18.61401
760.6896, 20.95435
761.1717, 18.38794
761.6538, 14.61548
762.1359, 13.57056
762.6180, 14.06665
763.1002, 15.40991
763.5823, 17.88037
764.0644, 17.60156
764.5465, 8.490479
765.0286, 1.582275
765.5107, 5.853760
765.9929, 1.005615
766.4750, 3.358154
766.9571, 7.533447
767.4392, 10.92480
767.9213, 12.77222
768.4034, 13.03564
768.8856, 12.98340
769.3677, 12.44360
769.8498, 12.91064
770.3319, 17.87622
770.8140, 24.44482
771.2961, 27.36841
771.7783, 24.93872
772.2604, 20.82812
772.7425, 14.40332
773.2246, 8.575195
773.7067, 6.409912
774.1888, 11.52026
774.6710, 15.09692
775.1531, 17.04224
775.6352, 17.60352
776.1173, 16.52026
776.5994, 13.84473
777.0815, 12.59717
777.5637, 13.59839
778.0458, 14.67871
778.5279, 11.95630
779.0100, 7.716309
779.4921, 6.686523
779.9742, 13.37061
780.4564, 16.75000
780.9385, 6.937500
781.4206, 6.630127
781.9027, 11.18335
782.3848, 1.8310999E-02
782.8669, 8.575928
783.3491, 12.99951
783.8312, 14.36841
784.3133, 12.52246
784.7954, 7.829590
785.2775, 9.012207
785.7596, 20.33789
786.2418, 32.02271
786.7239, 30.90747
787.2060, 21.72852
787.6881, 12.90576
788.1702, 5.850830
788.6523, 2.002197
789.1345, 4.065674
789.6166, 9.183105
790.0987, 12.54126
790.5808, 13.99683
791.0629, 13.75830
791.5450, 11.27197
792.0272, 7.939941
792.5093, 5.659668
792.9914, 4.625732
793.4735, 6.807129
793.9556, 13.77832
794.4377, 22.14038
794.9199, 30.85840
795.4020, 37.79736
795.8841, 38.86475
796.3662, 24.52905
796.8483, 13.60132
797.3304, 12.06836
797.8126, 16.52783
798.2947, 21.97778
798.7768, 29.43848
799.2589, 34.54761
799.7410, 36.57104
800.2231, 35.78857
800.7053, 31.41992
801.1874, 24.46948
801.6695, 18.97705
802.1516, 17.26025
802.6337, 16.28564
803.1158, 12.94995
803.5980, 8.805176
804.0801, 6.392578
804.5622, 9.970703
805.0443, 10.91187
805.5264, 5.444092
806.0085, 2.074951
806.4907, 3.092041
806.9728, 3.503662
807.4549, 9.739746
807.9370, 14.37061
808.4191, 16.70435
808.9012, 14.49707
809.3834, 8.977783
809.8655, 3.322510
810.3476, 3.681152
810.8297, 7.184814
811.3118, 0.9531250
811.7939, 9.867188
812.2761, 16.51636
812.7582, 15.62598
813.2403, 13.72461
813.7224, 10.94604
814.2045, 8.000977
814.6866, 5.994873
815.1688, 5.062988
815.6509, 5.452148
816.1330, 7.628418
816.6151, 10.36328
817.0972, 11.84692
817.5793, 12.66772
818.0615, 14.19019
818.5436, 18.36255
819.0257, 21.62085
819.5078, 22.77905
819.9899, 22.17114
820.4720, 20.27612
820.9542, 15.55542
821.4363, 12.94849
821.9184, 13.67261
822.4005, 16.33521
822.8826, 20.03784
823.3647, 23.87646
823.8469, 24.08472
824.3290, 18.03394
824.8111, 11.94531
825.2932, 12.06421
825.7753, 15.26685
826.2574, 17.25293
826.7396, 16.61035
827.2217, 15.37061
827.7038, 13.35840
828.1859, 11.30542
828.6681, 9.910156
829.1502, 9.131348
829.6323, 9.402832
830.1144, 10.74170
830.5966, 13.05566
831.0787, 17.43384
831.5608, 22.38403
832.0429, 24.57812
832.5250, 21.73267
833.0071, 20.39136
833.4893, 26.66089
833.9714, 34.50293
834.4535, 37.38696
834.9356, 32.02075
835.4177, 28.50488
835.8998, 27.50024
836.3820, 27.45850
836.8641, 26.67725
837.3462, 25.48975
837.8283, 25.73535
838.3104, 27.79468
838.7925, 30.36646
839.2747, 33.05688
839.7568, 34.87524
840.2389, 34.92017
840.7210, 31.03247
841.2031, 29.17798
841.6852, 31.66919
842.1674, 35.34326
842.6495, 38.99072
843.1316, 43.08838
843.6137, 41.21484
844.0958, 32.13281
844.5779, 23.92236
845.0601, 26.76147
845.5422, 34.56006
846.0243, 35.25122
846.5064, 27.81323
846.9885, 21.19189
847.4706, 20.45239
847.9528, 21.73657
848.4349, 23.52319
848.9170, 25.92505
849.3991, 27.93652
849.8812, 29.53345
850.3633, 31.01782
850.8455, 33.27173
851.3276, 35.83423
851.8097, 33.50879
852.2918, 26.67993
852.7739, 23.00488
853.2560, 32.40796
853.7382, 43.06860
854.2203, 43.44434
854.7024, 34.06592
855.1845, 28.62012
855.6666, 34.13843
856.1487, 38.67285
856.6309, 38.08765
857.1130, 33.04541
857.5951, 30.75952
858.0772, 31.46680
858.5593, 30.72388
859.0414, 24.50415
859.5236, 17.06616
860.0057, 15.81421
860.4878, 18.79224
860.9699, 19.68237
861.4520, 12.01855
861.9341, 6.088135
862.4163, 6.663086
862.8984, 11.52832
863.3805, 15.68262
863.8626, 19.41895
864.3447, 20.30225
864.8268, 16.88037
865.3090, 11.94458
865.7911, 11.13892
866.2732, 13.49756
866.7553, 16.41553
867.2374, 19.89917
867.7195, 22.22754
868.2017, 21.68286
868.6838, 19.31860
869.1659, 17.33618
869.6480, 14.80396
870.1301, 14.25781
870.6122, 17.18286
871.0944, 19.83911
871.5765, 15.46851
872.0586, 5.712646
872.5407, 2.2217000E-02
873.0228, 0.7902830
873.5049, 2.866943
873.9871, 1.012939
874.4692, 1.596680
874.9513, 1.114746
875.4334, 5.116211
875.9155, 9.865234
876.3976, 13.43799
876.8798, 14.40210
877.3619, 9.529053
877.8440, 1.589844
878.3261, 2.809082
878.8082, 7.161377
879.2903, 17.47119
879.7725, 18.13501
880.2546, 14.10229
880.7367, 11.03052
881.2188, 9.488037
881.7009, 8.722900
882.1830, 7.351807
882.6652, 7.973877
883.1473, 13.01953
883.6294, 22.20166
884.1115, 24.99243
884.5936, 20.46338
885.0757, 16.02393
885.5579, 14.78906
886.0400, 16.93188
886.5221, 26.25244
887.0042, 40.15332
887.4863, 48.23511
887.9684, 41.25610
888.4506, 31.70557
888.9327, 23.68042
889.4148, 17.72021
889.8969, 13.88647
890.3790, 11.88159
890.8611, 12.40088
891.3433, 17.39282
891.8254, 22.87207
892.3075, 19.22656
892.7896, 9.472656
893.2717, 2.735352
893.7538, 4.001465
894.2360, 6.375488
894.7181, 6.073975
895.2002, 4.612793
895.6823, 4.248779
896.1644, 6.002197
896.6465, 6.581299
897.1287, 4.997559
897.6108, 3.859375
898.0929, 8.543701
898.5750, 16.68726
899.0571, 17.82080
899.5392, 9.385986
900.0214, 2.456055
900.5035, 7.568604
900.9856, 16.26074
901.4677, 21.06494
901.9498, 19.51685
902.4319, 18.98462
902.9141, 21.16577
903.3962, 21.35742
903.8783, 13.95728
904.3604, 0.8386230
904.8425, 2.770264
905.3246, 2.674316
905.8068, 9.825439
906.2889, 17.11011
906.7710, 21.38477
907.2531, 18.28809
907.7352, 8.879150
908.2173, 2.160400
908.6995, 1.411377
909.1816, 0.6000980
909.6637, 7.262695
910.1458, 18.49634
910.6279, 20.12549
911.1100, 13.27271
911.5922, 8.234863
912.0743, 10.81445
912.5564, 13.99902
913.0385, 9.159424
913.5206, 0.7316890
914.0027, 3.748291
914.4849, 0.7280270
914.9670, 5.111084
915.4491, 9.062256
915.9312, 12.20386
916.4133, 13.32275
916.8954, 12.61597
917.3776, 14.60376
917.8597, 20.23413
918.3418, 25.17676
918.8239, 24.37769
919.3060, 21.36426
919.7881, 20.22363
920.2703, 22.17383
920.7524, 22.87402
921.2345, 21.36670
921.7166, 18.91699
922.1987, 15.81812
922.6808, 12.19189
923.1630, 10.13721
923.6451, 9.688477
924.1272, 9.760742
924.6093, 10.93262
925.0914, 11.37939
925.5735, 8.479248
926.0557, 2.998779
926.5378, 1.550049
927.0199, 4.765381
927.5020, 6.146484
927.9841, 5.127197
928.4662, 2.487793
928.9484, 0.1049800
929.4305, 2.104004
929.9126, 5.046143
930.3947, 9.562500
930.8768, 13.24194
931.3589, 12.22803
931.8411, 8.937012
932.3232, 6.860840
932.8053, 6.948242
933.2874, 9.170898
933.7695, 15.62744
934.2516, 21.33130
934.7338, 20.61670
935.2159, 13.77441
935.6980, 7.836914
936.1801, 3.275879
936.6622, 1.552734
937.1443, 6.496338
937.6265, 12.42188
938.1086, 11.91431
938.5907, 4.200439
939.0728, 2.240967
939.5549, 13.34814
940.0370, 22.50562
940.5192, 23.57300
941.0013, 18.18457
941.4834, 12.43237
941.9655, 6.629395
942.4476, 4.821045
942.9297, 13.47388
943.4119, 22.13525
943.8940, 20.14355
944.3761, 11.74609
944.8582, 5.626709
945.3403, 6.717529
945.8224, 5.336426
946.3046, 0.7924800
946.7867, 7.637939
947.2688, 9.321777
947.7509, 6.447021
948.2330, 1.835938
948.7151, 4.411133
949.1973, 9.510010
949.6794, 9.446533
950.1615, 8.243408
950.6436, 10.17627
951.1257, 17.00146
951.6078, 19.86108
952.0900, 17.10156
952.5721, 13.44946
953.0542, 11.42383
953.5363, 10.71826
954.0184, 10.27856
954.5005, 10.04932
954.9827, 9.535645
955.4648, 8.088379
955.9469, 6.729004
956.4290, 5.924561
956.9111, 5.721680
957.3932, 6.181152
957.8754, 7.738281
958.3575, 8.746338
958.8396, 8.909668
959.3217, 8.142822
959.8038, 5.072510
960.2859, 0.9902340
960.7681, 0.6562500
961.2502, 0.9077150
961.7323, 4.901367
962.2144, 14.97217
962.6965, 24.07104
963.1786, 26.02686
963.6608, 19.01270
964.1429, 14.19019
964.6250, 11.66992
965.1071, 11.18799
965.5892, 14.78442
966.0714, 19.37988
966.5535, 17.01416
967.0356, 9.629395
967.5177, 6.363770
967.9998, 18.54419
968.4819, 27.16821
968.9641, 21.92041
969.4462, 9.075439
969.9283, 4.058838
970.4104, 7.638184
970.8925, 10.31152
971.3746, 9.551758
971.8568, 7.708008
972.3389, 9.478027
972.8210, 12.21973
973.3031, 11.75732
973.7852, 5.523438
974.2673, 0.6953130
974.7495, 1.806641
975.2316, 2.121582
975.7137, 0.4426270
976.1958, 5.880615
976.6779, 8.940918
977.1600, 9.613770
977.6422, 9.652344
978.1243, 9.828125
978.6064, 10.25195
979.0885, 11.56396
979.5706, 13.34961
980.0527, 13.55908
980.5349, 8.645996
981.0170, 8.415527
981.4991, 17.49341
981.9812, 28.89404
982.4633, 26.74243
982.9454, 14.32910
983.4276, 5.411621
983.9097, 4.096436
984.3918, 4.114258
984.8739, 0.6149900
985.3560, 3.118652
985.8381, 3.231934
986.3203, 1.973389
986.8024, 3.869629
987.2845, 1.309326
987.7666, 0.9553220
988.2487, 0.4936520
988.7308, 4.647705
989.2130, 11.49121
989.6951, 19.64429
990.1772, 22.83936
990.6593, 10.32520
991.1414, 0.9702150
991.6235, 5.155273
992.1057, 16.25928
992.5878, 20.50708
993.0699, 17.25757
993.5520, 13.59668
994.0341, 10.52930
994.5162, 8.815430
994.9984, 10.91309
995.4805, 14.22070
995.9626, 14.71851
996.4447, 10.39185
996.9268, 8.551025
997.4089, 9.835938
997.8911, 14.54053
998.3732, 26.17603
998.8553, 42.29199
999.3374, 41.23975
999.8195, 24.82471
1000.302, 11.19214
1000.784, 13.57715
1001.266, 19.77124
1001.748, 21.77173
1002.230, 21.08057
1002.712, 22.15381
1003.194, 27.33838
1003.676, 28.75342
1004.159, 24.49243
1004.641, 17.79541
1005.123, 11.96143
1005.605, 8.180420
1006.087, 9.766846
1006.569, 17.69458
1007.051, 24.38452
1007.533, 27.10474
1008.016, 26.65283
1008.498, 22.45093
1008.980, 14.95825
1009.462, 12.22021
1009.944, 14.44116
1010.426, 17.82910
1010.908, 20.90625
1011.390, 23.77588
1011.872, 27.98560
1012.355, 31.90112
1012.837, 32.25000
1013.319, 24.30029
1013.801, 18.27124
1014.283, 15.45996
1014.765, 14.10571
1015.247, 12.14258
1015.729, 9.846680
1016.211, 8.993164
1016.694, 9.719238
1017.176, 10.60889
1017.658, 11.71362
1018.140, 11.74414
1018.622, 8.787109
1019.104, 3.459473
1019.586, 0.1357420
1020.068, 1.891846
1020.551, 1.935547
1021.033, 15.98901
1021.515, 31.30566
1021.997, 30.69482
1022.479, 20.96997
1022.961, 15.55396
1023.443, 21.86499
1023.925, 24.71802
1024.407, 15.98169
1024.890, 6.920898
1025.372, 6.837158
1025.854, 15.68628
1026.336, 18.52808
1026.818, 15.49023
1027.300, 13.37183
1027.782, 19.45386
1028.264, 25.96753
1028.746, 26.49487
1029.229, 22.07544
1029.711, 17.33765
1030.193, 11.37280
1030.675, 8.228027
1031.157, 8.741943
1031.639, 11.99878
1032.121, 19.28223
1032.603, 27.79004
1033.086, 30.10962
1033.568, 24.20068
1034.050, 19.17017
1034.532, 19.83765
1035.014, 21.78491
1035.496, 22.74023
1035.978, 22.74634
1036.460, 22.57471
1036.943, 22.21240
1037.425, 21.27515
1037.907, 19.30371
1038.389, 17.06567
1038.871, 14.42505
1039.353, 12.31104
1039.835, 12.51196
1040.317, 17.77832
1040.799, 20.58862
1041.281, 19.97241
1041.764, 18.79053
1042.246, 20.08398
1042.728, 22.96387
1043.210, 25.67432
1043.692, 28.02271
1044.174, 28.12378
1044.656, 20.81885
1045.138, 15.58447
1045.621, 17.98901
1046.103, 24.83594
1046.585, 27.37354
1047.067, 25.54761
1047.549, 22.61963
1048.031, 19.14941
1048.513, 16.04370
1048.995, 14.75513
1049.478, 14.16187
1049.960, 12.79932
1050.442, 9.909424
1050.924, 8.589844
1051.406, 8.838379
1051.888, 10.80859
1052.370, 15.77246
1052.852, 21.84521
1053.334, 23.51147
1053.817, 22.51514
1054.299, 23.32471
1054.781, 28.79736
1055.263, 33.50342
1055.745, 34.75366
1056.227, 35.43896
1056.709, 39.76587
1057.191, 47.68213
1057.673, 48.72046
1058.156, 42.15552
1058.638, 35.54468
1059.120, 36.06470
1059.602, 38.32324
1060.084, 37.09570
1060.566, 32.83105
1061.048, 32.29834
1061.530, 37.44385
1062.013, 41.27588
1062.495, 41.59717
1062.977, 40.73389
1063.459, 43.76245
1063.941, 48.09497
1064.423, 47.87817
1064.905, 39.81372
1065.387, 34.73218
1065.870, 38.18872
1066.352, 43.31934
1066.834, 47.84497
1067.316, 51.20508
1067.798, 47.02759
1068.280, 36.49316
1068.762, 30.43140
1069.244, 38.38892
1069.726, 48.30249
1070.208, 54.00854
1070.691, 55.78979
1071.173, 53.66797
1071.655, 45.94116
1072.137, 41.37769
1072.619, 40.75781
1073.101, 41.35449
1073.583, 41.00684
1074.065, 40.12866
1074.548, 38.49243
1075.030, 36.50098
1075.512, 36.89893
1075.994, 43.38525
1076.476, 47.75781
1076.958, 48.20020
1077.440, 45.79150
1077.922, 40.72095
1078.405, 34.49902
1078.887, 33.27979
1079.369, 39.70605
1079.851, 42.05151
1080.333, 26.09814
1080.815, 11.59692
1081.297, 12.49487
1081.779, 26.88794
1082.261, 34.14917
1082.744, 34.39478
1083.226, 34.95581
1083.708, 40.20581
1084.190, 45.28125
1084.672, 44.56909
1085.154, 41.13501
1085.636, 39.56201
1086.118, 40.92651
1086.601, 43.20093
1087.083, 47.15332
1087.565, 49.33521
1088.047, 46.86694
1088.529, 40.92212
1089.011, 30.60522
1089.493, 18.10913
1089.975, 11.73242
1090.458, 21.14355
1090.940, 28.46021
1091.422, 30.09131
1091.904, 28.67188
1092.386, 28.12524
1092.868, 27.92236
1093.350, 24.82520
1093.832, 18.29175
1094.314, 13.58960
1094.797, 14.54419
1095.279, 17.77466
1095.761, 22.40869
1096.243, 27.53955
1096.725, 29.22095
1097.207, 27.31372
1097.689, 27.84692
1098.171, 33.85327
1098.653, 39.28589
1099.136, 36.01929
1099.618, 30.03540
1100.100, 28.55200
1100.582, 33.81934
1101.064, 36.55127
1101.546, 35.98022
1102.028, 35.52368
1102.510, 37.54907
1102.993, 40.37866
1103.475, 41.70117
1103.957, 41.41992
1104.439, 39.26929
1104.921, 32.79126
1105.403, 28.07861
1105.885, 26.46948
1106.367, 25.54272
1106.849, 22.81372
1107.332, 18.89893
1107.814, 16.06616
1108.296, 14.38281
1108.778, 13.54077
1109.260, 16.71143
1109.742, 16.89526
1110.224, 9.889648
1110.706, 0.8903810
1111.188, 11.64526
1111.671, 22.19189
1112.153, 25.30176
1112.635, 19.49146
1113.117, 12.17725
1113.599, 9.571533
1114.081, 7.754395
1114.563, 3.510742
1115.045, 2.988281
1115.528, 8.969482
1116.010, 14.41406
1116.492, 19.21362
1116.974, 22.82617
1117.456, 26.82617
1117.938, 36.08081
1118.420, 45.35620
1118.902, 46.62671
1119.385, 35.16992
1119.867, 29.88574
1120.349, 33.74365
1120.831, 37.19751
1121.313, 35.00757
1121.795, 29.43994
1122.277, 23.97217
1122.759, 19.26294
1123.241, 16.98071
1123.724, 20.70728
1124.206, 22.10059
1124.688, 19.07202
1125.170, 15.23901
1125.652, 14.29761
1126.134, 15.36694
1126.616, 12.68115
1127.098, 6.982178
1127.580, 2.564941
1128.063, 2.241699
1128.545, 3.216553
1129.027, 5.484131
1129.509, 7.614990
1129.991, 6.721436
1130.473, 2.920410
1130.955, 3.496582
1131.437, 9.104004
1131.920, 14.61816
1132.402, 16.30371
1132.884, 16.38696
1133.366, 15.70264
1133.848, 14.66895
1134.330, 14.91675
1134.812, 16.77979
1135.294, 16.69678
1135.776, 13.52368
1136.259, 10.26367
1136.741, 9.082520
1137.223, 10.05347
1137.705, 14.27954
1138.187, 22.03418
1138.669, 26.50024
1139.151, 26.68091
1139.633, 27.27124
1140.115, 30.81079
1140.598, 33.69849
1141.080, 28.57910
1141.562, 19.95996
1142.044, 14.85425
1142.526, 15.52319
1143.008, 17.92163
1143.490, 23.35571
1143.972, 26.72559
1144.455, 24.71704
1144.937, 19.24805
1145.419, 12.57861
1145.901, 6.316162
1146.383, 4.631104
1146.865, 14.29858
1147.347, 19.81592
1147.829, 17.34302
1148.312, 12.76392
1148.794, 9.782959
1149.276, 8.621094
1149.758, 12.45386
1150.240, 19.92725
1150.722, 23.80347
1151.204, 15.17188
1151.686, 8.990479
1152.168, 11.87451
1152.651, 18.02808
1153.133, 20.98462
1153.615, 21.02979
1154.097, 21.02881
1154.579, 21.16846
1155.061, 21.62036
1155.543, 24.37622
1156.025, 25.47656
1156.507, 20.05005
1156.990, 12.37378
1157.472, 11.28711
1157.954, 16.83350
1158.436, 20.60718
1158.918, 21.41016
1159.400, 20.90552
1159.882, 19.50610
1160.364, 18.13550
1160.847, 17.61816
1161.329, 17.80127
1161.811, 17.18628
1162.293, 15.41724
1162.775, 18.18091
1163.257, 28.67163
1163.739, 36.87524
1164.221, 28.87427
1164.703, 16.19556
1165.186, 11.40796
1165.668, 16.05371
1166.150, 15.63281
1166.632, 9.074707
1167.114, 4.163574
1167.596, 4.439697
1168.078, 6.240234
1168.560, 3.336182
1169.042, 1.009033
1169.525, 1.024170
1170.007, 6.999023
1170.489, 10.38989
1170.971, 7.737305
1171.453, 5.805664
1171.935, 9.129883
1172.417, 14.19800
1172.899, 13.80322
1173.382, 11.06543
1173.864, 12.49097
1174.346, 23.70557
1174.828, 30.79517
1175.310, 33.18164
1175.792, 32.45508
1176.274, 27.11450
1176.756, 20.84863
1177.239, 22.04102
1177.721, 28.13599
1178.203, 32.47632
1178.685, 33.94092
1179.167, 31.40405
1179.649, 23.30566
1180.131, 14.97095
1180.613, 11.88794
1181.095, 12.05127
1181.578, 10.48096
1182.060, 7.772461
1182.542, 6.949951
1183.024, 13.41528
1183.506, 14.86279
1183.988, 6.309570
1184.470, 1.747314
1184.952, 7.085938
1185.434, 24.98633
1185.917, 31.40649
1186.399, 26.04517
1186.881, 19.64868
1187.363, 13.64722
1187.845, 11.26318
1188.327, 14.00171
1188.809, 19.00244
1189.291, 22.37695
1189.774, 24.36914
1190.256, 25.83081
1190.738, 26.84497
1191.220, 27.28711
1191.702, 26.72046
1192.184, 26.13745
1192.666, 26.29004
1193.148, 26.20239
1193.630, 22.68872
1194.113, 17.31128
1194.595, 16.01270
1195.077, 20.29761
1195.559, 23.24438
1196.041, 20.82178
1196.523, 17.21606
1197.005, 13.13940
1197.487, 9.712891
1197.969, 11.13330
1198.452, 15.89844
1198.934, 18.32642
1199.416, 16.50830
1199.898, 14.86572
1200.380, 15.26123
1200.862, 16.36646
1201.344, 17.34131
1201.826, 18.56348
1202.309, 22.59717
1202.791, 28.31396
1203.273, 30.84937
1203.755, 28.07080
1204.237, 24.44824
1204.719, 22.25879
1205.201, 19.61987
1205.683, 14.86499
1206.166, 9.037109
1206.648, 7.084229
1207.130, 8.207520
1207.612, 8.819580
1208.094, 7.395020
1208.576, 5.758057
1209.058, 2.856445
1209.540, 1.887939
1210.022, 6.022949
1210.505, 13.97119
1210.987, 17.05396
1211.469, 16.16748
1211.951, 15.37036
1212.433, 16.07788
1212.915, 17.71094
1213.397, 21.73340
1213.879, 24.85767
1214.361, 23.95605
1214.844, 19.72241
1215.326, 16.42188
1215.808, 14.39697
1216.290, 15.30884
1216.772, 24.32593
1217.254, 30.56519
1217.736, 29.45361
1218.218, 25.66479
1218.701, 22.65137
1219.183, 20.29932
1219.665, 16.71143
1220.147, 12.68335
1220.629, 12.28247
1221.111, 24.24097
1221.593, 31.03564
1222.075, 25.40088
1222.557, 15.94141
1223.040, 10.72119
1223.522, 9.142334
1224.004, 9.029297
1224.486, 9.924316
1224.968, 9.547119
1225.450, 2.953369
1225.932, 0.6411130
1226.414, 7.707520
1226.896, 15.95190
1227.379, 14.04395
1227.861, 5.547119
1228.343, 4.535400
1228.825, 10.38501
1229.307, 14.06494
1229.789, 9.084473
1230.271, 4.703613
1230.753, 3.050781
1231.236, 2.716309
1231.718, 2.312744
1232.200, 2.235352
1232.682, 1.542725
1233.164, 0.3647460
1233.646, 0.2075200
1234.128, 0.6389160
1234.610, 1.477295
1235.093, 8.187500
1235.575, 14.64941
1236.057, 12.72119
1236.539, 6.052979
1237.021, 2.189453
1237.503, 1.753174
1237.985, 3.672119
1238.467, 10.66064
1238.949, 15.28711
1239.432, 16.02710
1239.914, 14.56445
1240.396, 11.73389
1240.878, 8.945801
1241.360, 10.33203
1241.842, 15.63599
1242.324, 16.11011
1242.806, 5.539307
1243.288, 0.1145020
1243.771, 2.906494
1244.253, 9.831055
1244.735, 16.86377
1245.217, 22.48999
1245.699, 23.01636
1246.181, 18.61450
1246.663, 18.19653
1247.145, 23.66602
1247.628, 30.20459
1248.110, 37.72510
1248.592, 42.86890
1249.074, 38.82446
1249.556, 31.58008
1250.038, 29.03662
1250.520, 31.46655
1251.002, 29.37695
1251.484, 20.57593
1251.967, 16.26172
1252.449, 19.78491
1252.931, 25.20508
1253.413, 25.62671
1253.895, 24.93335
1254.377, 27.97144
1254.859, 34.36450
1255.341, 36.64111
1255.823, 34.41479
1256.306, 30.50806
1256.788, 24.99756
1257.270, 20.98193
1257.752, 22.00171
1258.234, 25.25562
1258.716, 28.94873
1259.198, 32.76782
1259.680, 36.27563
1260.163, 39.49634
1260.645, 38.97949
1261.127, 33.52124
1261.609, 27.24780
1262.091, 20.50171
1262.573, 17.08252
1263.055, 22.58789
1263.537, 32.63525
1264.020, 28.26465
1264.502, 12.19507
1264.984, 7.133789
1265.466, 20.21069
1265.948, 30.20581
1266.430, 20.60327
1266.912, 8.666016
1267.394, 1.836914
1267.876, 3.8818002E-02
1268.359, 5.085693
1268.841, 14.67578
1269.323, 18.99585
1269.805, 15.37964
1270.287, 11.31299
1270.769, 8.206543
1271.251, 7.655518
1271.733, 11.12305
1272.215, 16.34473
1272.698, 18.98950
1273.180, 19.37158
1273.662, 17.82861
1274.144, 14.29053
1274.626, 10.44482
1275.108, 6.038574
1275.590, 2.586426
1276.072, 0.3747560
1276.555, 0.1130370
1277.037, 3.144043
1277.519, 8.052979
1278.001, 11.45508
1278.483, 12.63794
1278.965, 13.71191
1279.447, 15.17505
1279.929, 14.26392
1280.411, 8.850098
1280.894, 4.296875
1281.376, 8.829590
1281.858, 16.78662
1282.340, 22.23682
1282.822, 24.61255
1283.304, 25.17383
1283.786, 23.87646
1284.268, 21.32471
1284.750, 17.50391
1285.233, 13.32642
1285.715, 7.129639
1286.197, 3.225098
1286.679, 7.465820
1287.161, 17.18018
1287.643, 21.20093
1288.125, 19.74756
1288.607, 13.59912
1289.090, 1.887207
1289.572, 6.096680
1290.054, 1.800537
1290.536, 4.700439
1291.018, 8.212158
1291.500, 9.627686
1291.982, 10.54761
1292.464, 11.27832
1292.947, 13.43506
1293.429, 17.50659
1293.911, 19.74829
1294.393, 16.37085
1294.875, 15.24585
1295.357, 12.57495
1295.839, 14.20435
1296.321, 16.95435
1296.803, 17.65576
1297.286, 15.71265
1297.768, 10.54614
1298.250, 5.896484
1298.732, 3.424072
1299.214, 1.755615
1299.696, 1.938965
1300.178, 1.463379
1300.660, 0.0000000E+00
##END=



