##NAMES=Gillespite
##RRUFFID=R061031
##IDEAL CHEMISTRY=BaFe^2+^Si_4_O_10_
##LOCALITY=La Madrelena mine, Tres Pozos, Municipio de Tecate, Baja California Norte, Mexico
##OWNER=RRUFF
##SOURCE=Michael Scott
##DESCRIPTION=Rose-red cleavage fragment embedded in white sanbornite
##STATUS=The identification of this mineral has been confirmed by X-ray diffraction and chemical analysis
##URL=rruff.info/R061031
##MEASURED CHEMISTRY=Ba_1.00_Fe^2+^_1.00_(Si_3.97_Ti_0.03_)_Σ=4_O_10_ ; = host gray phase : (Ba_0.99_K_0.01_)(Al_0.97_Fe^3+^_0.02_Ti_0.01_)_Σ=2_Si_2.00_O_8_ ; = lighter gray inclusion = celsian ; Ba_1.00_CO_3_ = lightest areas = witherite 
111.3986, 367.9098
111.8807, 409.4539
112.3628, 461.9617
112.8449, 522.0002
113.3271, 596.3954
113.8092, 684.6486
114.2913, 786.5886
114.7734, 911.2291
115.2555, 1063.600
115.7376, 1238.223
116.2198, 1427.293
116.7019, 1638.845
117.1840, 1855.599
117.6661, 2075.628
118.1482, 2299.892
118.6303, 2515.085
119.1124, 2724.133
119.5946, 2918.001
120.0767, 3078.553
120.5588, 3186.826
121.0409, 3263.145
121.5230, 3324.788
122.0051, 3374.530
122.4873, 3409.000
122.9694, 3425.094
123.4515, 3423.368
123.9336, 3405.290
124.4157, 3369.000
124.8979, 3317.537
125.3800, 3254.649
125.8621, 3176.387
126.3442, 3091.821
126.8263, 3012.442
127.3084, 2938.825
127.7905, 2865.928
128.2727, 2790.803
128.7548, 2713.630
129.2369, 2635.722
129.7190, 2551.797
130.2011, 2467.931
130.6832, 2402.836
131.1654, 2358.453
131.6475, 2322.252
132.1296, 2274.732
132.6117, 2216.905
133.0938, 2169.552
133.5759, 2142.328
134.0581, 2134.544
134.5402, 2140.284
135.0223, 2161.811
135.5044, 2192.811
135.9865, 2218.671
136.4686, 2237.426
136.9508, 2262.099
137.4329, 2305.353
137.9150, 2370.405
138.3971, 2423.001
138.8792, 2458.414
139.3613, 2479.431
139.8434, 2500.853
140.3256, 2530.080
140.8077, 2545.112
141.2898, 2525.703
141.7719, 2460.374
142.2540, 2393.896
142.7361, 2334.218
143.2183, 2280.663
143.7004, 2221.593
144.1825, 2151.560
144.6646, 2081.146
145.1467, 2022.509
145.6288, 1980.040
146.1110, 1941.609
146.5931, 1906.533
147.0752, 1876.754
147.5573, 1839.503
148.0394, 1790.822
148.5215, 1736.262
149.0037, 1683.018
149.4858, 1626.346
149.9679, 1576.318
150.4500, 1535.998
150.9321, 1510.500
151.4142, 1485.472
151.8964, 1461.825
152.3785, 1438.719
152.8606, 1414.314
153.3427, 1381.565
153.8248, 1352.671
154.3069, 1333.256
154.7890, 1336.332
155.2712, 1332.016
155.7533, 1313.058
156.2354, 1282.667
156.7175, 1252.919
157.1996, 1222.180
157.6817, 1194.846
158.1639, 1173.512
158.6460, 1165.256
159.1281, 1156.520
159.6102, 1141.034
160.0923, 1119.846
160.5744, 1104.173
161.0566, 1103.449
161.5387, 1107.593
162.0208, 1107.522
162.5029, 1099.972
162.9850, 1087.857
163.4671, 1070.303
163.9493, 1047.251
164.4314, 1026.070
164.9135, 1013.580
165.3956, 1004.348
165.8777, 991.3256
166.3598, 965.7438
166.8420, 939.4835
167.3241, 920.8183
167.8062, 911.1038
168.2883, 904.6354
168.7704, 899.5943
169.2525, 895.1172
169.7346, 889.5142
170.2168, 882.2537
170.6989, 873.4359
171.1810, 862.2413
171.6631, 847.2636
172.1452, 833.9153
172.6273, 829.3176
173.1095, 830.5692
173.5916, 828.9902
174.0737, 815.5655
174.5558, 797.3904
175.0379, 784.6080
175.5201, 780.1560
176.0022, 779.2100
176.4843, 776.8979
176.9664, 773.5079
177.4485, 770.5024
177.9306, 771.1619
178.4128, 772.7556
178.8949, 769.4663
179.3770, 757.4505
179.8591, 742.4810
180.3412, 733.0125
180.8233, 728.7501
181.3055, 726.3553
181.7876, 723.7297
182.2697, 720.8516
182.7518, 717.5558
183.2339, 713.7495
183.7160, 709.5292
184.1982, 704.1341
184.6803, 697.3992
185.1624, 692.7535
185.6445, 697.0797
186.1266, 707.9444
186.6087, 712.8918
187.0908, 704.0922
187.5730, 686.2452
188.0551, 674.6157
188.5372, 669.6018
189.0193, 667.9500
189.5014, 666.3953
189.9835, 664.9271
190.4657, 663.5857
190.9478, 664.1821
191.4299, 665.6251
191.9120, 659.6107
192.3941, 644.3555
192.8762, 627.1750
193.3584, 619.2127
193.8405, 620.6056
194.3226, 622.7901
194.8047, 621.4544
195.2868, 616.8710
195.7689, 614.5869
196.2511, 615.6895
196.7332, 617.3292
197.2153, 612.3755
197.6974, 599.6666
198.1795, 590.5911
198.6616, 594.0491
199.1438, 610.7547
199.6259, 619.6297
200.1080, 617.9245
200.5901, 609.8608
201.0722, 604.5266
201.5543, 602.1216
202.0364, 601.2776
202.5186, 602.4559
203.0007, 606.2988
203.4828, 605.3342
203.9649, 596.7680
204.4470, 584.3438
204.9291, 580.2657
205.4113, 586.6646
205.8934, 594.3873
206.3755, 597.8414
206.8576, 596.5580
207.3397, 592.8362
207.8218, 584.8972
208.3040, 575.1018
208.7861, 574.8751
209.2682, 588.4879
209.7503, 601.8337
210.2324, 602.9194
210.7145, 587.3141
211.1967, 577.2524
211.6788, 577.0198
212.1609, 584.9536
212.6430, 590.3458
213.1251, 591.4801
213.6072, 593.1177
214.0894, 600.8671
214.5715, 619.4610
215.0536, 629.4672
215.5357, 625.3935
216.0178, 608.6613
216.4999, 595.8054
216.9820, 588.2104
217.4642, 582.6033
217.9463, 576.1987
218.4284, 568.8816
218.9105, 561.0886
219.3926, 552.3979
219.8747, 542.9438
220.3569, 535.4803
220.8390, 530.9293
221.3211, 527.2754
221.8032, 522.2310
222.2853, 514.6573
222.7674, 508.3601
223.2496, 503.9671
223.7317, 501.4450
224.2138, 501.5013
224.6959, 505.6877
225.1780, 510.8534
225.6601, 513.8531
226.1423, 514.1884
226.6244, 513.2850
227.1065, 511.1747
227.5886, 507.6947
228.0707, 504.2747
228.5528, 499.5274
229.0350, 496.0042
229.5171, 497.4802
229.9992, 508.3070
230.4813, 515.8862
230.9634, 515.5264
231.4455, 505.2798
231.9276, 502.2235
232.4098, 509.7601
232.8919, 521.8135
233.3740, 530.4326
233.8561, 534.3699
234.3382, 537.1639
234.8203, 539.0850
235.3025, 539.5024
235.7846, 543.1654
236.2667, 552.6862
236.7488, 563.5623
237.2309, 569.0291
237.7130, 564.8607
238.1952, 562.5172
238.6773, 566.0742
239.1594, 577.4138
239.6415, 584.5391
240.1236, 585.5630
240.6057, 583.6881
241.0879, 583.9774
241.5700, 589.4360
242.0521, 591.8994
242.5342, 587.7964
243.0163, 574.7153
243.4984, 566.5829
243.9806, 565.2023
244.4627, 567.5895
244.9448, 569.3900
245.4269, 570.4602
245.9090, 571.1445
246.3911, 571.7707
246.8732, 572.7358
247.3554, 571.7090
247.8375, 568.1968
248.3196, 562.9916
248.8017, 556.8848
249.2838, 548.2035
249.7659, 541.7034
250.2481, 539.4003
250.7302, 542.6084
251.2123, 543.9476
251.6944, 542.7777
252.1765, 540.2490
252.6586, 537.8685
253.1408, 535.0476
253.6229, 533.5490
254.1050, 534.3672
254.5871, 538.2755
255.0692, 540.7184
255.5513, 541.7060
256.0334, 541.2405
256.5156, 538.5405
256.9977, 530.6740
257.4798, 526.4130
257.9619, 529.6638
258.4440, 542.5016
258.9261, 551.8425
259.4083, 557.7242
259.8904, 560.1307
260.3725, 558.1595
260.8546, 549.1056
261.3367, 541.5143
261.8188, 537.8277
262.3010, 538.1265
262.7831, 542.2794
263.2652, 552.5840
263.7473, 564.3936
264.2294, 570.6519
264.7115, 569.2247
265.1937, 567.5579
265.6758, 567.8347
266.1579, 570.1177
266.6400, 573.5495
267.1221, 578.2515
267.6042, 583.9333
268.0864, 590.6662
268.5685, 599.5281
269.0506, 606.2671
269.5327, 609.0648
270.0148, 607.6938
270.4969, 606.6132
270.9791, 605.1998
271.4612, 605.0797
271.9433, 609.1327
272.4254, 618.4494
272.9075, 627.2374
273.3896, 633.0698
273.8718, 635.9446
274.3539, 641.7177
274.8360, 651.2780
275.3181, 662.1104
275.8002, 670.6724
276.2823, 676.3502
276.7645, 683.5114
277.2466, 694.1895
277.7287, 708.0699
278.2108, 720.1738
278.6929, 730.5010
279.1750, 739.2270
279.6572, 745.0036
280.1393, 747.2530
280.6214, 753.4990
281.1035, 766.5436
281.5856, 785.5444
282.0677, 806.5886
282.5499, 830.7865
283.0320, 852.7061
283.5141, 864.5363
283.9962, 866.1893
284.4783, 869.9106
284.9604, 877.9885
285.4425, 890.8708
285.9247, 912.3906
286.4068, 943.6559
286.8889, 975.3211
287.3710, 997.0750
287.8531, 1009.798
288.3352, 1023.418
288.8174, 1039.543
289.2995, 1058.723
289.7816, 1084.161
290.2637, 1115.730
290.7458, 1148.133
291.2279, 1176.424
291.7101, 1201.248
292.1922, 1225.867
292.6743, 1249.844
293.1564, 1274.774
293.6385, 1305.331
294.1206, 1341.283
294.6028, 1376.626
295.0849, 1405.797
295.5670, 1430.682
296.0491, 1457.811
296.5312, 1489.916
297.0133, 1522.687
297.4955, 1550.158
297.9776, 1571.979
298.4597, 1589.033
298.9418, 1599.060
299.4239, 1604.762
299.9060, 1612.240
300.3882, 1624.077
300.8703, 1635.151
301.3524, 1639.680
301.8345, 1637.817
302.3166, 1630.525
302.7987, 1616.622
303.2809, 1598.046
303.7630, 1577.802
304.2451, 1557.240
304.7272, 1532.944
305.2093, 1501.474
305.6914, 1463.289
306.1736, 1421.802
306.6557, 1374.401
307.1378, 1325.893
307.6199, 1281.284
308.1020, 1240.852
308.5841, 1204.223
309.0663, 1171.386
309.5484, 1141.812
310.0305, 1115.603
310.5126, 1093.399
310.9947, 1073.778
311.4768, 1055.626
311.9590, 1038.682
312.4411, 1024.536
312.9232, 1016.271
313.4053, 1011.201
313.8874, 1005.313
314.3695, 993.7053
314.8517, 983.2278
315.3337, 976.6561
315.8159, 973.9889
316.2980, 977.9519
316.7801, 993.1049
317.2622, 1014.464
317.7443, 1036.390
318.2264, 1055.348
318.7086, 1075.874
319.1907, 1098.739
319.6728, 1124.025
320.1549, 1154.355
320.6370, 1188.211
321.1191, 1228.578
321.6013, 1278.191
322.0834, 1346.729
322.5655, 1414.482
323.0476, 1475.055
323.5297, 1529.301
324.0118, 1587.818
324.4940, 1660.527
324.9761, 1732.822
325.4582, 1795.606
325.9403, 1857.160
326.4224, 1898.527
326.9045, 1924.381
327.3867, 1931.385
327.8688, 1901.919
328.3509, 1806.469
328.8330, 1697.579
329.3151, 1596.852
329.7972, 1502.219
330.2794, 1418.748
330.7615, 1346.036
331.2436, 1283.902
331.7257, 1232.967
332.2078, 1193.562
332.6899, 1164.416
333.1721, 1146.485
333.6542, 1144.744
334.1363, 1140.152
334.6184, 1129.424
335.1005, 1117.921
335.5826, 1115.398
336.0648, 1124.870
336.5469, 1136.942
337.0290, 1149.239
337.5111, 1162.013
337.9932, 1172.842
338.4753, 1181.102
338.9575, 1188.265
339.4396, 1196.538
339.9217, 1206.411
340.4038, 1215.142
340.8859, 1222.553
341.3680, 1228.365
341.8502, 1230.515
342.3323, 1228.836
342.8144, 1224.048
343.2965, 1216.217
343.7786, 1205.313
344.2607, 1194.030
344.7429, 1182.837
345.2250, 1171.709
345.7071, 1159.662
346.1892, 1146.405
346.6713, 1135.112
347.1534, 1130.852
347.6355, 1131.337
348.1176, 1125.009
348.5998, 1107.073
349.0819, 1085.898
349.5640, 1074.710
350.0461, 1072.714
350.5282, 1074.844
351.0103, 1077.092
351.4925, 1081.239
351.9746, 1091.928
352.4567, 1111.043
352.9388, 1131.782
353.4209, 1145.198
353.9030, 1154.190
354.3852, 1166.664
354.8673, 1189.863
355.3494, 1216.962
355.8315, 1238.874
356.3136, 1254.063
356.7957, 1274.069
357.2779, 1308.601
357.7600, 1353.122
358.2421, 1400.141
358.7242, 1446.819
359.2063, 1495.485
359.6884, 1546.973
360.1706, 1601.379
360.6527, 1659.993
361.1348, 1726.388
361.6169, 1796.184
362.0990, 1864.540
362.5811, 1915.625
363.0633, 1980.503
363.5454, 2075.390
364.0275, 2194.853
364.5096, 2312.230
364.9917, 2420.288
365.4738, 2524.627
365.9560, 2628.252
366.4381, 2725.159
366.9202, 2829.431
367.4023, 2947.048
367.8844, 3073.720
368.3665, 3198.704
368.8487, 3324.968
369.3308, 3446.930
369.8129, 3561.748
370.2950, 3667.514
370.7771, 3771.133
371.2592, 3880.684
371.7414, 3983.566
372.2235, 4062.747
372.7056, 4107.280
373.1877, 4147.370
373.6698, 4192.620
374.1519, 4243.304
374.6341, 4278.176
375.1162, 4300.585
375.5983, 4301.031
376.0804, 4266.635
376.5625, 4192.178
377.0446, 4108.251
377.5267, 4021.319
378.0089, 3928.995
378.4910, 3822.415
378.9731, 3700.007
379.4552, 3574.578
379.9373, 3459.093
380.4194, 3351.707
380.9016, 3235.597
381.3837, 3103.824
381.8658, 2970.018
382.3479, 2860.705
382.8300, 2774.279
383.3121, 2687.829
383.7943, 2583.696
384.2764, 2471.594
384.7585, 2374.743
385.2406, 2296.215
385.7227, 2225.022
386.2048, 2152.711
386.6870, 2080.330
387.1691, 2009.926
387.6512, 1939.895
388.1333, 1874.602
388.6154, 1818.171
389.0975, 1770.747
389.5797, 1729.650
390.0618, 1698.575
390.5439, 1671.107
391.0260, 1640.074
391.5081, 1597.540
391.9902, 1558.620
392.4724, 1534.531
392.9545, 1521.621
393.4366, 1506.692
393.9187, 1482.078
394.4008, 1455.461
394.8829, 1430.436
395.3651, 1406.685
395.8472, 1387.220
396.3293, 1372.624
396.8114, 1362.806
397.2935, 1357.623
397.7756, 1358.761
398.2578, 1362.877
398.7399, 1369.338
399.2220, 1378.386
399.7041, 1388.337
400.1862, 1399.675
400.6683, 1411.550
401.1505, 1422.630
401.6326, 1427.258
402.1147, 1440.322
402.5968, 1463.883
403.0789, 1497.638
403.5610, 1540.426
404.0432, 1595.624
404.5253, 1653.836
405.0074, 1706.763
405.4895, 1750.358
405.9716, 1810.143
406.4537, 1889.374
406.9359, 1982.916
407.4180, 2078.916
407.9001, 2176.878
408.3822, 2285.572
408.8643, 2414.096
409.3464, 2559.697
409.8285, 2697.843
410.3106, 2824.675
410.7928, 2960.671
411.2749, 3130.647
411.7570, 3331.806
412.2391, 3547.057
412.7212, 3774.721
413.2033, 4013.545
413.6855, 4255.635
414.1676, 4501.259
414.6497, 4763.985
415.1318, 5046.546
415.6139, 5352.422
416.0960, 5680.927
416.5782, 6034.449
417.0603, 6411.326
417.5424, 6815.927
418.0245, 7240.665
418.5066, 7666.807
418.9887, 8115.262
419.4709, 8543.774
419.9530, 8942.685
420.4351, 9312.279
420.9172, 9613.811
421.3993, 9861.485
421.8814, 10020.01
422.3636, 10052.66
422.8457, 9934.002
423.3278, 9709.173
423.8099, 9357.817
424.2920, 8885.978
424.7741, 8410.535
425.2563, 7931.640
425.7384, 7452.160
426.2205, 6980.216
426.7026, 6496.396
427.1847, 6050.078
427.6668, 5643.552
428.1490, 5276.565
428.6311, 4951.157
429.1132, 4668.040
429.5953, 4416.312
430.0774, 4195.124
430.5595, 4004.176
431.0417, 3839.740
431.5238, 3705.152
432.0059, 3591.335
432.4880, 3490.228
432.9701, 3401.826
433.4522, 3324.060
433.9344, 3255.296
434.4165, 3197.018
434.8986, 3148.576
435.3807, 3110.235
435.8628, 3087.259
436.3449, 3089.131
436.8271, 3108.450
437.3092, 3130.512
437.7913, 3154.141
438.2734, 3176.789
438.7555, 3190.750
439.2376, 3201.606
439.7197, 3221.725
440.2018, 3257.940
440.6840, 3304.887
441.1661, 3365.286
441.6482, 3437.916
442.1303, 3500.036
442.6124, 3534.699
443.0945, 3556.185
443.5767, 3577.138
444.0588, 3608.530
444.5409, 3630.537
445.0230, 3642.444
445.5051, 3641.755
445.9872, 3620.503
446.4694, 3561.664
446.9515, 3496.235
447.4336, 3437.979
447.9157, 3395.791
448.3978, 3333.751
448.8799, 3243.947
449.3621, 3139.840
449.8442, 3037.847
450.3263, 2938.521
450.8084, 2841.277
451.2905, 2747.647
451.7726, 2656.843
452.2548, 2556.212
452.7369, 2441.849
453.2190, 2328.791
453.7011, 2225.074
454.1832, 2131.148
454.6653, 2046.419
455.1475, 1971.766
455.6296, 1902.338
456.1117, 1826.396
456.5938, 1746.244
457.0759, 1673.255
457.5580, 1619.188
458.0402, 1574.674
458.5223, 1520.362
459.0044, 1455.881
459.4865, 1395.320
459.9686, 1352.214
460.4507, 1318.906
460.9329, 1283.310
461.4150, 1240.746
461.8971, 1198.447
462.3792, 1159.183
462.8613, 1123.649
463.3434, 1092.526
463.8256, 1067.772
464.3077, 1046.698
464.7898, 1028.926
465.2719, 1015.862
465.7540, 999.5732
466.2361, 973.9302
466.7183, 946.1020
467.2004, 923.7638
467.6825, 911.7589
468.1646, 900.0363
468.6467, 887.1207
469.1288, 873.3322
469.6110, 861.0846
470.0930, 851.7582
470.5752, 841.6292
471.0573, 828.2613
471.5394, 810.7696
472.0215, 794.0051
472.5036, 777.5384
472.9857, 762.6295
473.4679, 751.9804
473.9500, 745.7894
474.4321, 739.0974
474.9142, 729.3524
475.3963, 718.3423
475.8784, 711.3895
476.3606, 708.4587
476.8427, 706.8362
477.3248, 705.5791
477.8069, 703.9576
478.2890, 700.5131
478.7711, 694.8545
479.2533, 687.8242
479.7354, 679.3344
480.2175, 670.0527
480.6996, 661.3359
481.1817, 653.8120
481.6638, 647.1258
482.1460, 640.7438
482.6281, 634.7052
483.1102, 630.3448
483.5923, 628.5880
484.0744, 628.3807
484.5565, 629.0101
485.0387, 634.3550
485.5208, 635.4257
486.0029, 628.8141
486.4850, 617.6330
486.9671, 608.6036
487.4492, 603.4298
487.9314, 598.0790
488.4135, 590.7100
488.8956, 581.0040
489.3777, 574.9648
489.8598, 573.7277
490.3419, 573.8511
490.8241, 571.4223
491.3062, 566.0990
491.7883, 564.4582
492.2704, 569.3895
492.7525, 576.0020
493.2346, 572.5882
493.7168, 560.0909
494.1989, 548.4585
494.6810, 543.1541
495.1631, 542.5064
495.6452, 544.6379
496.1273, 549.6082
496.6095, 552.9958
497.0916, 550.7329
497.5737, 544.6582
498.0558, 536.7976
498.5379, 523.7527
499.0201, 514.3131
499.5022, 517.0659
499.9843, 527.8447
500.4664, 534.8131
500.9485, 531.7718
501.4306, 525.7582
501.9127, 519.4561
502.3948, 512.8804
502.8770, 507.0039
503.3591, 500.2643
503.8412, 495.2822
504.3233, 494.8924
504.8054, 504.1675
505.2875, 508.3321
505.7697, 503.3637
506.2518, 492.6646
506.7339, 489.1523
507.2160, 494.9279
507.6981, 500.3726
508.1802, 499.8339
508.6624, 493.7427
509.1445, 490.9562
509.6266, 492.0946
510.1087, 493.2632
510.5908, 489.3094
511.0729, 481.6778
511.5551, 475.2808
512.0372, 471.0638
512.5193, 469.2389
513.0014, 471.1173
513.4835, 475.8738
513.9656, 480.7322
514.4478, 486.3630
514.9299, 490.0018
515.4120, 488.4483
515.8941, 480.8385
516.3762, 473.7601
516.8583, 469.3801
517.3405, 467.0901
517.8226, 466.3659
518.3047, 466.8156
518.7868, 469.1624
519.2689, 477.4347
519.7510, 488.0269
520.2332, 489.0982
520.7153, 472.2365
521.1974, 458.4385
521.6795, 456.3183
522.1616, 467.2042
522.6437, 474.9949
523.1259, 479.2708
523.6080, 481.2834
524.0901, 481.7826
524.5722, 480.7731
525.0543, 479.4489
525.5364, 477.6730
526.0186, 476.2445
526.5007, 476.9368
526.9828, 479.4208
527.4649, 481.9510
527.9470, 483.2534
528.4291, 484.2152
528.9113, 486.7310
529.3934, 490.7692
529.8755, 493.2166
530.3576, 490.6979
530.8397, 486.2336
531.3218, 482.5175
531.8040, 478.9173
532.2861, 478.3027
532.7682, 485.1588
533.2503, 495.3234
533.7324, 500.5851
534.2145, 493.6412
534.6967, 488.1653
535.1788, 487.4982
535.6609, 491.6905
536.1430, 497.8563
536.6251, 508.2534
537.1072, 517.0197
537.5894, 518.1585
538.0715, 509.4878
538.5536, 508.7674
539.0357, 519.2223
539.5178, 534.0428
539.9999, 541.3263
540.4821, 541.8531
540.9642, 545.7892
541.4463, 558.3072
541.9284, 575.6432
542.4105, 591.8797
542.8926, 606.9622
543.3748, 621.1263
543.8569, 634.2625
544.3390, 646.4686
544.8211, 656.7247
545.3032, 663.5928
545.7853, 674.9899
546.2675, 698.4587
546.7495, 727.3906
547.2316, 753.9383
547.7137, 769.0109
548.1959, 789.4632
548.6780, 822.7002
549.1601, 865.5718
549.6422, 903.3632
550.1243, 936.4567
550.6064, 963.8696
551.0886, 983.6257
551.5707, 994.2432
552.0528, 1010.475
552.5349, 1034.928
553.0170, 1058.405
553.4991, 1073.368
553.9813, 1079.662
554.4634, 1073.216
554.9455, 1051.607
555.4276, 1019.981
555.9097, 985.8012
556.3918, 949.0530
556.8740, 908.9059
557.3561, 861.2673
557.8382, 812.3575
558.3203, 767.2331
558.8024, 726.0277
559.2845, 690.9122
559.7667, 667.7231
560.2488, 647.8406
560.7309, 623.6630
561.2130, 588.9122
561.6951, 559.4767
562.1772, 540.0139
562.6594, 526.9631
563.1415, 514.6816
563.6236, 501.2540
564.1057, 491.8278
564.5878, 489.2906
565.0699, 491.8152
565.5521, 487.9872
566.0342, 475.8578
566.5163, 463.7302
566.9984, 456.7002
567.4805, 454.3291
567.9626, 450.7937
568.4448, 445.7725
568.9269, 440.6917
569.4090, 437.2017
569.8911, 434.7958
570.3732, 432.0663
570.8553, 428.3819
571.3375, 424.7232
571.8196, 421.9181
572.3017, 419.8723
572.7838, 418.4786
573.2659, 417.4161
573.7480, 417.2059
574.2302, 419.5215
574.7123, 424.5103
575.1944, 425.3302
575.6765, 416.8637
576.1586, 406.9133
576.6407, 399.8463
577.1229, 397.0223
577.6050, 393.8227
578.0871, 389.3032
578.5692, 385.4172
579.0513, 386.0702
579.5334, 392.1154
580.0156, 395.8653
580.4977, 394.8443
580.9798, 390.7643
581.4619, 387.2207
581.9440, 384.2586
582.4261, 382.2267
582.9083, 382.0867
583.3904, 382.7225
583.8725, 382.5122
584.3546, 381.3480
584.8367, 379.8997
585.3188, 377.9254
585.8010, 376.1902
586.2831, 375.5005
586.7652, 376.6954
587.2473, 377.8892
587.7294, 379.6265
588.2115, 380.8814
588.6937, 379.5491
589.1758, 371.2708
589.6579, 366.5663
590.1400, 369.1013
590.6221, 377.5801
591.1042, 382.0617
591.5864, 381.8463
592.0685, 379.7662
592.5506, 376.7657
593.0327, 373.0223
593.5148, 371.2558
593.9969, 371.9549
594.4791, 371.7524
594.9612, 364.0313
595.4433, 353.0507
595.9254, 349.1291
596.4075, 358.7620
596.8896, 368.6825
597.3718, 366.0049
597.8539, 355.6427
598.3360, 347.5529
598.8181, 346.3931
599.3002, 347.5086
599.7823, 349.4203
600.2645, 352.0403
600.7466, 355.1001
601.2287, 361.0557
601.7108, 364.8535
