##NAMES=Gmelinite-Ca
##RRUFFID=R070283
##IDEAL CHEMISTRY=Ca_2_(Si_8_Al_4_)O_24_&#183;11H_2_O
##LOCALITY=Montecchio Maggiore, Vicenza Province, Veneto, Italy
##OWNER=RRUFF
##SOURCE=Michael Scott
##DESCRIPTION=Pale orange tabular hexagonal plates with low pyramidal terminations
##STATUS=The identification of this mineral has been confirmed only by single crystal X-ray diffraction.
##URL=rruff.info/R070283
179.3555, 5108.586
179.8376, 5102.345
180.3197, 5105.332
180.8019, 5126.043
181.2840, 5140.725
181.7661, 5138.548
182.2482, 5128.106
182.7303, 5119.814
183.2124, 5118.785
183.6946, 5122.969
184.1767, 5125.930
184.6588, 5123.670
185.1409, 5127.710
185.6230, 5148.076
186.1051, 5172.847
186.5873, 5187.290
187.0694, 5183.351
187.5515, 5168.599
188.0336, 5163.342
188.5157, 5173.158
188.9978, 5183.536
189.4800, 5193.425
189.9621, 5201.260
190.4442, 5204.335
190.9263, 5200.956
191.4084, 5194.981
191.8905, 5195.666
192.3727, 5204.680
192.8548, 5218.248
193.3369, 5240.309
193.8190, 5263.675
194.3011, 5280.084
194.7832, 5286.129
195.2654, 5287.925
195.7475, 5298.954
196.2296, 5324.680
196.7117, 5350.063
197.1938, 5380.787
197.6759, 5406.500
198.1581, 5414.932
198.6402, 5402.486
199.1223, 5380.747
199.6044, 5370.465
200.0865, 5372.994
200.5686, 5385.949
201.0508, 5421.614
201.5329, 5457.992
202.0150, 5477.162
202.4971, 5474.558
202.9792, 5459.235
203.4613, 5445.144
203.9435, 5433.093
204.4256, 5420.534
204.9077, 5400.625
205.3898, 5384.666
205.8719, 5385.250
206.3540, 5402.656
206.8362, 5421.642
207.3183, 5419.981
207.8004, 5388.037
208.2825, 5359.431
208.7646, 5331.962
209.2467, 5309.140
209.7289, 5297.225
210.2110, 5294.688
210.6931, 5291.216
211.1752, 5273.694
211.6573, 5237.474
212.1395, 5204.477
212.6216, 5175.972
213.1037, 5149.490
213.5858, 5121.202
214.0679, 5092.978
214.5500, 5071.889
215.0322, 5067.386
215.5143, 5083.598
215.9964, 5088.838
216.4785, 5070.326
216.9606, 5052.867
217.4427, 5047.810
217.9249, 5052.459
218.4070, 5056.460
218.8891, 5050.233
219.3712, 5033.305
219.8533, 5023.472
220.3354, 5037.462
220.8176, 5042.304
221.2997, 5023.553
221.7818, 4988.615
222.2639, 4951.239
222.7460, 4919.074
223.2281, 4893.225
223.7103, 4888.574
224.1924, 4933.215
224.6745, 4969.496
225.1566, 4986.116
225.6387, 4986.876
226.1208, 4976.410
226.6030, 4955.942
227.0851, 4929.554
227.5672, 4915.117
228.0493, 4926.396
228.5314, 4931.296
229.0135, 4920.882
229.4957, 4902.920
229.9778, 4886.476
230.4599, 4875.677
230.9420, 4867.830
231.4241, 4856.010
231.9062, 4837.557
232.3884, 4819.559
232.8705, 4799.292
233.3526, 4781.741
233.8347, 4773.042
234.3168, 4774.917
234.7989, 4780.431
235.2811, 4776.259
235.7632, 4754.621
236.2453, 4742.014
236.7274, 4746.105
237.2095, 4754.854
237.6916, 4761.101
238.1738, 4763.178
238.6559, 4763.012
239.1380, 4763.031
239.6201, 4763.687
240.1022, 4762.782
240.5843, 4758.814
241.0665, 4754.442
241.5486, 4750.875
242.0307, 4748.147
242.5128, 4745.616
242.9949, 4742.619
243.4770, 4739.091
243.9592, 4735.845
244.4413, 4733.020
244.9234, 4730.341
245.4055, 4728.925
245.8876, 4727.707
246.3697, 4724.281
246.8519, 4716.979
247.3340, 4705.888
247.8161, 4691.763
248.2982, 4669.260
248.7803, 4651.063
249.2624, 4640.579
249.7446, 4636.887
250.2267, 4639.359
250.7088, 4649.621
251.1909, 4663.678
251.6730, 4669.922
252.1551, 4666.249
252.6373, 4658.583
253.1194, 4642.743
253.6015, 4626.827
254.0836, 4621.363
254.5657, 4631.739
255.0478, 4647.732
255.5300, 4652.739
256.0121, 4644.263
256.4942, 4634.137
256.9763, 4623.798
257.4584, 4614.168
257.9406, 4604.592
258.4227, 4594.799
258.9048, 4589.296
259.3869, 4596.966
259.8690, 4618.799
260.3511, 4630.540
260.8333, 4621.231
261.3154, 4605.532
261.7975, 4591.227
262.2796, 4579.291
262.7617, 4573.439
263.2438, 4579.889
263.7260, 4596.164
264.2081, 4607.914
264.6902, 4613.583
265.1723, 4614.302
265.6544, 4611.043
266.1365, 4604.127
266.6187, 4594.268
267.1008, 4575.182
267.5829, 4554.555
268.0650, 4552.613
268.5471, 4576.239
269.0292, 4597.540
269.5114, 4592.662
269.9935, 4572.596
270.4756, 4554.497
270.9577, 4539.803
271.4398, 4531.301
271.9219, 4535.458
272.4041, 4552.713
272.8862, 4567.806
273.3683, 4572.189
273.8504, 4569.883
274.3325, 4569.140
274.8146, 4570.630
275.2968, 4573.153
275.7789, 4576.682
276.2610, 4580.796
276.7431, 4582.630
277.2252, 4578.474
277.7073, 4575.474
278.1895, 4589.008
278.6716, 4624.210
279.1537, 4649.312
279.6358, 4642.708
280.1179, 4620.785
280.6000, 4613.785
281.0822, 4629.915
281.5643, 4651.306
282.0464, 4653.442
282.5285, 4633.604
283.0106, 4629.308
283.4927, 4659.713
283.9749, 4697.966
284.4570, 4719.314
284.9391, 4722.255
285.4212, 4720.602
285.9033, 4725.552
286.3854, 4736.856
286.8676, 4742.719
287.3497, 4736.881
287.8318, 4732.180
288.3139, 4733.728
288.7960, 4741.359
289.2781, 4754.166
289.7603, 4771.973
290.2424, 4794.006
290.7245, 4816.842
291.2066, 4840.806
291.6887, 4865.129
292.1708, 4895.779
292.6530, 4924.566
293.1351, 4938.670
293.6172, 4933.882
294.0993, 4920.776
294.5814, 4917.917
295.0635, 4929.921
295.5457, 4944.619
296.0278, 4969.784
296.5099, 4991.823
296.9920, 4998.334
297.4741, 4989.758
297.9562, 4977.238
298.4384, 4971.579
298.9205, 4972.930
299.4026, 4980.641
299.8847, 5005.529
300.3668, 5025.807
300.8489, 5025.194
301.3310, 5014.188
301.8131, 5017.313
302.2953, 5053.861
302.7774, 5114.144
303.2595, 5147.324
303.7416, 5132.869
304.2237, 5120.176
304.7058, 5122.027
305.1880, 5129.615
305.6701, 5129.898
306.1522, 5117.515
306.6343, 5107.207
307.1164, 5128.538
307.5985, 5193.509
308.0807, 5244.991
308.5628, 5264.276
309.0449, 5272.565
309.5270, 5279.537
310.0091, 5286.783
310.4912, 5293.198
310.9734, 5298.086
311.4555, 5301.433
311.9376, 5302.132
312.4197, 5296.091
312.9018, 5293.447
313.3839, 5301.674
313.8661, 5317.863
314.3482, 5334.515
314.8303, 5348.258
315.3124, 5360.412
315.7945, 5375.334
316.2766, 5394.676
316.7588, 5406.883
317.2409, 5401.764
317.7230, 5386.391
318.2051, 5371.116
318.6872, 5352.577
319.1693, 5342.457
319.6515, 5356.277
320.1336, 5388.302
320.6157, 5414.650
321.0978, 5430.099
321.5799, 5431.585
322.0620, 5408.354
322.5442, 5356.313
323.0263, 5311.956
323.5084, 5283.864
323.9905, 5269.743
324.4726, 5274.802
324.9547, 5299.683
325.4369, 5316.470
325.9190, 5294.728
326.4011, 5229.567
326.8832, 5180.853
327.3653, 5149.674
327.8474, 5132.815
328.3296, 5139.494
328.8117, 5160.499
329.2938, 5170.922
329.7759, 5155.776
330.2580, 5119.596
330.7401, 5083.346
331.2223, 5039.836
331.7044, 5005.044
332.1865, 4985.926
332.6686, 4973.818
333.1507, 4957.550
333.6328, 4934.372
334.1150, 4913.015
334.5971, 4909.188
335.0792, 4937.268
335.5613, 4943.216
336.0434, 4914.257
336.5255, 4877.371
337.0077, 4842.150
337.4898, 4810.952
337.9719, 4784.773
338.4540, 4766.123
338.9361, 4753.583
339.4182, 4733.445
339.9004, 4696.908
340.3825, 4666.153
340.8646, 4652.946
341.3467, 4646.543
341.8288, 4631.985
342.3109, 4602.281
342.7931, 4568.945
343.2752, 4551.537
343.7573, 4553.048
344.2394, 4548.486
344.7215, 4521.968
345.2036, 4495.411
345.6858, 4489.424
346.1679, 4504.350
346.6500, 4517.646
347.1321, 4514.229
347.6142, 4498.380
348.0963, 4480.488
348.5785, 4460.046
349.0606, 4442.105
349.5427, 4429.659
350.0248, 4422.792
350.5069, 4423.110
350.9890, 4440.772
351.4712, 4457.919
351.9533, 4460.361
352.4354, 4449.374
352.9175, 4429.652
353.3996, 4399.010
353.8817, 4366.036
354.3639, 4356.346
354.8460, 4381.733
355.3281, 4400.181
355.8102, 4398.197
356.2923, 4386.295
356.7744, 4376.020
357.2566, 4369.967
357.7387, 4365.683
358.2208, 4360.637
358.7029, 4354.910
359.1850, 4347.669
359.6671, 4336.539
360.1493, 4326.494
360.6314, 4321.037
361.1135, 4318.369
361.5956, 4313.571
362.0777, 4303.196
362.5598, 4290.354
363.0420, 4286.765
363.5241, 4299.195
364.0062, 4310.418
364.4883, 4318.686
364.9704, 4324.860
365.4525, 4331.629
365.9347, 4338.757
366.4168, 4340.365
366.8989, 4325.942
367.3810, 4293.819
367.8631, 4271.640
368.3452, 4261.606
368.8274, 4261.220
369.3095, 4271.667
369.7916, 4289.844
370.2737, 4308.916
370.7558, 4328.138
371.2379, 4344.446
371.7201, 4351.771
372.2022, 4349.542
372.6843, 4343.468
373.1664, 4332.795
373.6485, 4321.502
374.1306, 4314.696
374.6128, 4312.163
375.0949, 4315.445
375.5770, 4328.164
376.0591, 4346.798
376.5412, 4366.100
377.0233, 4385.709
377.5055, 4400.358
377.9876, 4403.325
378.4697, 4393.086
378.9518, 4384.976
379.4339, 4380.920
379.9160, 4377.469
380.3982, 4366.571
380.8803, 4354.061
381.3624, 4359.660
381.8445, 4396.616
382.3266, 4449.790
382.8087, 4473.240
383.2909, 4426.303
383.7730, 4402.024
384.2551, 4417.378
384.7372, 4446.057
385.2193, 4467.346
385.7014, 4477.726
386.1836, 4485.906
386.6657, 4501.318
387.1478, 4524.383
387.6299, 4546.053
388.1120, 4578.133
388.5941, 4593.907
389.0763, 4567.776
389.5584, 4524.262
390.0405, 4504.311
390.5226, 4529.653
391.0047, 4572.662
391.4868, 4584.241
391.9690, 4559.169
392.4511, 4552.779
392.9332, 4589.220
393.4153, 4642.127
393.8974, 4689.626
394.3795, 4731.264
394.8617, 4762.455
395.3438, 4778.293
395.8259, 4783.195
396.3080, 4778.961
396.7901, 4764.610
397.2722, 4761.673
397.7544, 4788.528
398.2365, 4840.279
398.7186, 4886.096
399.2007, 4928.214
399.6828, 4961.722
400.1649, 4976.348
400.6471, 4982.951
401.1292, 4999.008
401.6113, 5030.410
402.0934, 5073.430
402.5755, 5124.050
403.0576, 5186.275
403.5398, 5243.287
404.0219, 5294.097
404.5040, 5341.948
404.9861, 5386.916
405.4682, 5430.481
405.9503, 5474.699
406.4325, 5520.656
406.9146, 5568.742
407.3967, 5619.972
407.8788, 5676.034
408.3609, 5731.705
408.8430, 5784.654
409.3252, 5838.003
409.8073, 5896.324
410.2894, 5959.667
410.7715, 6020.167
411.2536, 6071.104
411.7357, 6113.423
412.2179, 6147.930
412.7000, 6169.352
413.1821, 6195.471
413.6642, 6245.476
414.1463, 6308.582
414.6284, 6363.038
415.1106, 6408.644
415.5927, 6440.273
416.0748, 6449.387
416.5569, 6440.969
417.0390, 6427.930
417.5211, 6412.756
418.0033, 6402.099
418.4854, 6410.469
418.9675, 6452.281
419.4496, 6460.830
419.9317, 6411.232
420.4138, 6346.079
420.8960, 6285.917
421.3781, 6234.958
421.8602, 6198.488
422.3423, 6182.220
422.8244, 6177.449
423.3065, 6144.854
423.7887, 6050.604
424.2708, 5981.500
424.7529, 5970.180
425.2350, 5969.250
425.7171, 5933.656
426.1992, 5860.625
426.6814, 5789.764
427.1635, 5765.846
427.6456, 5783.607
428.1277, 5779.960
428.6098, 5743.188
429.0919, 5707.466
429.5741, 5697.428
430.0562, 5697.698
430.5383, 5683.271
431.0204, 5640.477
431.5025, 5598.778
431.9846, 5587.039
432.4668, 5597.438
432.9489, 5601.535
433.4310, 5591.168
433.9131, 5575.610
434.3952, 5563.748
434.8773, 5555.429
435.3595, 5556.289
435.8416, 5579.160
436.3237, 5600.074
436.8058, 5599.638
437.2879, 5585.044
437.7701, 5575.190
438.2522, 5579.554
438.7343, 5595.886
439.2164, 5619.482
439.6985, 5659.851
440.1806, 5690.145
440.6628, 5702.162
441.1449, 5711.807
441.6270, 5726.899
442.1091, 5748.952
442.5912, 5778.667
443.0733, 5820.138
443.5555, 5868.173
444.0376, 5899.815
444.5197, 5907.000
445.0018, 5920.513
445.4839, 5963.836
445.9660, 6013.417
446.4482, 6042.994
446.9303, 6046.389
447.4124, 6052.677
447.8945, 6077.252
448.3766, 6117.839
448.8587, 6174.837
449.3409, 6250.011
449.8230, 6320.888
450.3051, 6368.337
450.7872, 6394.799
451.2693, 6428.249
451.7514, 6480.333
452.2336, 6525.331
452.7157, 6542.048
453.1978, 6551.100
453.6799, 6584.544
454.1620, 6650.463
454.6441, 6727.433
455.1263, 6789.517
455.6084, 6836.663
456.0905, 6868.843
456.5726, 6858.990
457.0547, 6861.541
457.5368, 6899.724
458.0190, 6959.749
458.5011, 7019.778
458.9832, 7071.351
459.4653, 7116.588
459.9474, 7159.086
460.4295, 7198.724
460.9117, 7231.979
461.3938, 7252.894
461.8759, 7274.457
462.3580, 7309.462
462.8401, 7355.715
463.3222, 7402.923
463.8044, 7453.997
464.2865, 7500.649
464.7686, 7537.554
465.2507, 7563.928
465.7328, 7572.258
466.2149, 7555.022
466.6971, 7533.334
467.1792, 7550.201
467.6613, 7636.074
468.1434, 7697.077
468.6255, 7719.568
469.1076, 7729.709
469.5898, 7734.525
470.0719, 7740.667
470.5540, 7761.821
471.0361, 7809.611
471.5182, 7870.399
472.0003, 7902.044
472.4825, 7890.929
472.9646, 7887.270
473.4467, 7904.059
473.9288, 7930.270
474.4109, 7962.181
474.8930, 7998.441
475.3752, 8033.897
475.8573, 8064.729
476.3394, 8093.168
476.8215, 8123.997
477.3036, 8157.290
477.7857, 8188.084
478.2679, 8213.105
478.7500, 8234.647
479.2321, 8260.471
479.7142, 8299.057
480.1963, 8320.718
480.6784, 8294.165
481.1606, 8265.472
481.6427, 8286.193
482.1248, 8351.871
482.6069, 8414.988
483.0890, 8439.826
483.5711, 8432.942
484.0533, 8431.521
484.5354, 8442.565
485.0175, 8447.376
485.4996, 8437.619
485.9817, 8425.374
486.4638, 8421.601
486.9460, 8426.636
487.4281, 8431.062
487.9102, 8426.331
488.3923, 8415.390
488.8744, 8410.650
489.3565, 8415.485
489.8387, 8407.314
490.3208, 8372.003
490.8029, 8317.021
491.2850, 8258.361
491.7671, 8191.256
492.2492, 8133.848
492.7314, 8111.101
493.2135, 8091.211
493.6956, 8031.307
494.1777, 7931.917
494.6598, 7829.617
495.1419, 7752.026
495.6241, 7695.768
496.1062, 7637.312
496.5883, 7584.597
497.0704, 7517.912
497.5525, 7426.954
498.0346, 7327.492
498.5168, 7231.848
498.9989, 7141.781
499.4810, 7052.752
499.9631, 6959.158
500.4452, 6863.509
500.9273, 6778.292
501.4095, 6705.880
501.8916, 6633.689
502.3737, 6558.779
502.8558, 6478.729
503.3379, 6389.553
503.8200, 6288.727
504.3022, 6190.606
504.7843, 6100.293
505.2664, 6015.928
505.7485, 5939.236
506.2306, 5868.573
506.7127, 5795.719
507.1949, 5713.331
507.6770, 5626.091
508.1591, 5555.923
508.6412, 5525.062
509.1233, 5478.185
509.6054, 5398.669
510.0876, 5313.467
510.5697, 5244.491
511.0518, 5190.564
511.5339, 5133.867
512.0161, 5056.001
512.4982, 4969.863
512.9803, 4916.374
513.4624, 4903.146
513.9445, 4877.604
514.4266, 4813.878
514.9088, 4735.397
515.3909, 4673.400
515.8730, 4628.989
516.3551, 4584.535
516.8372, 4529.521
517.3193, 4475.823
517.8015, 4437.932
518.2836, 4412.286
518.7657, 4380.427
519.2478, 4331.871
519.7299, 4275.167
520.2120, 4230.371
520.6942, 4198.550
521.1763, 4177.191
521.6584, 4181.222
522.1405, 4180.576
522.6226, 4154.722
523.1047, 4110.681
523.5869, 4068.567
524.0690, 4038.059
524.5511, 4016.184
525.0332, 4000.822
525.5153, 3991.909
525.9974, 3978.997
526.4796, 3959.285
526.9617, 3935.300
527.4438, 3905.977
527.9259, 3872.463
528.4080, 3848.698
528.8901, 3844.306
529.3723, 3842.582
529.8544, 3834.776
530.3365, 3822.258
530.8186, 3808.615
531.3007, 3794.977
531.7828, 3779.094
532.2650, 3755.313
532.7471, 3719.076
533.2292, 3703.282
533.7113, 3730.732
534.1934, 3752.862
534.6755, 3750.259
535.1577, 3735.493
535.6398, 3727.790
536.1219, 3733.643
536.6040, 3736.989
537.0861, 3718.691
537.5682, 3685.734
538.0504, 3660.496
538.5325, 3645.926
539.0146, 3637.064
539.4967, 3630.659
539.9788, 3627.315
540.4609, 3629.813
540.9431, 3645.951
541.4252, 3656.643
541.9073, 3658.276
542.3894, 3652.635
542.8715, 3641.207
543.3536, 3624.217
543.8358, 3599.481
544.3179, 3561.763
544.8000, 3518.269
545.2821, 3503.370
545.7642, 3527.789
546.2463, 3551.541
546.7285, 3568.276
547.2106, 3577.609
547.6926, 3576.686
548.1747, 3566.443
548.6569, 3556.444
549.1390, 3554.413
549.6211, 3552.222
550.1032, 3538.656
550.5853, 3516.272
551.0674, 3496.776
551.5496, 3484.652
552.0317, 3477.601
552.5138, 3472.063
552.9959, 3468.404
553.4780, 3465.010
553.9601, 3460.897
554.4423, 3458.034
554.9244, 3455.928
555.4065, 3455.985
555.8886, 3463.636
556.3707, 3481.354
556.8528, 3493.906
557.3350, 3476.783
557.8171, 3434.597
558.2992, 3404.438
558.7813, 3389.665
559.2634, 3387.362
559.7455, 3400.751
560.2277, 3424.988
560.7098, 3444.000
561.1919, 3459.492
561.6740, 3466.671
562.1561, 3459.408
562.6382, 3445.895
563.1204, 3431.973
563.6025, 3420.009
564.0846, 3414.402
564.5667, 3419.287
565.0488, 3431.272
565.5309, 3438.036
566.0131, 3441.752
566.4952, 3434.719
566.9773, 3402.686
567.4594, 3369.693
567.9415, 3350.405
568.4236, 3343.824
568.9058, 3341.733
569.3879, 3344.605
569.8700, 3346.904
570.3521, 3338.907
570.8342, 3325.092
571.3163, 3324.387
571.7985, 3344.038
572.2806, 3363.144
572.7627, 3354.686
573.2448, 3314.513
573.7269, 3285.736
574.2090, 3266.251
574.6912, 3259.670
575.1733, 3276.230
575.6554, 3301.309
576.1375, 3321.090
576.6196, 3331.782
577.1017, 3333.770
577.5839, 3321.222
578.0660, 3300.327
578.5481, 3293.969
579.0302, 3304.139
579.5123, 3314.009
579.9944, 3315.678
580.4766, 3312.821
580.9587, 3312.065
581.4408, 3313.234
581.9229, 3316.437
582.4050, 3323.214
582.8871, 3330.637
583.3693, 3340.523
583.8514, 3349.018
584.3335, 3346.665
584.8156, 3328.996
585.2977, 3306.591
585.7798, 3297.205
586.2620, 3302.221
586.7441, 3303.708
587.2262, 3296.661
587.7083, 3292.941
588.1904, 3303.302
588.6725, 3320.358
589.1547, 3333.208
589.6368, 3342.537
590.1189, 3342.045
590.6010, 3318.737
591.0831, 3289.280
591.5652, 3275.884
592.0474, 3279.026
592.5295, 3286.452
593.0116, 3290.462
593.4937, 3291.917
593.9758, 3293.785
594.4579, 3297.587
594.9401, 3298.151
595.4222, 3295.221
595.9043, 3288.648
596.3864, 3275.405
596.8685, 3258.462
597.3506, 3244.501
597.8328, 3234.577
598.3149, 3231.277
598.7970, 3242.039
599.2791, 3260.826
599.7612, 3273.522
600.2433, 3277.463
600.7255, 3270.312
601.2076, 3246.532
601.6897, 3210.117
602.1718, 3193.965
602.6539, 3223.179
603.1360, 3238.596
603.6182, 3222.828
604.1003, 3202.155
604.5824, 3196.147
605.0645, 3204.238
605.5466, 3214.615
606.0287, 3220.191
606.5109, 3224.838
606.9930, 3236.764
607.4751, 3254.478
607.9572, 3266.023
608.4393, 3268.386
608.9214, 3264.013
609.4036, 3253.728
609.8857, 3237.490
610.3678, 3225.954
610.8499, 3222.454
611.3320, 3218.990
611.8141, 3214.149
612.2963, 3208.181
612.7784, 3198.994
613.2605, 3188.078
613.7426, 3182.704
614.2247, 3189.929
614.7068, 3205.291
615.1890, 3221.036
615.6711, 3237.719
616.1532, 3240.802
616.6353, 3221.857
617.1174, 3195.277
617.5995, 3174.520
618.0817, 3159.698
618.5638, 3154.967
619.0459, 3172.301
619.5280, 3186.104
620.0101, 3183.718
620.4922, 3173.615
620.9744, 3165.117
621.4565, 3160.859
621.9386, 3160.945
622.4207, 3167.583
622.9028, 3177.749
623.3849, 3177.941
623.8671, 3166.019
624.3492, 3156.550
624.8313, 3153.966
625.3134, 3155.620
625.7955, 3160.939
626.2776, 3169.646
626.7598, 3171.822
627.2419, 3157.773
627.7240, 3145.880
628.2061, 3150.354
628.6882, 3160.891
629.1703, 3162.691
629.6525, 3152.242
630.1346, 3134.126
630.6167, 3109.417
631.0988, 3081.445
631.5809, 3070.402
632.0630, 3080.455
632.5452, 3091.277
633.0273, 3098.382
633.5094, 3102.115
633.9915, 3100.854
634.4736, 3095.025
634.9557, 3094.389
635.4379, 3106.735
635.9200, 3118.587
636.4021, 3122.646
636.8842, 3121.153
637.3663, 3116.032
637.8484, 3108.695
638.3306, 3103.888
638.8127, 3107.163
639.2948, 3116.951
639.7769, 3124.040
640.2590, 3128.820
640.7411, 3129.077
641.2233, 3118.890
641.7054, 3109.028
642.1875, 3113.446
642.6696, 3130.623
643.1517, 3141.181
643.6339, 3138.545
644.1160, 3131.080
644.5981, 3120.317
645.0802, 3108.897
645.5623, 3099.962
646.0444, 3094.509
646.5266, 3093.515
647.0087, 3099.590
647.4908, 3109.910
647.9729, 3109.150
648.4550, 3093.245
648.9371, 3082.811
649.4193, 3085.761
649.9014, 3093.125
650.3835, 3098.008
650.8656, 3100.237
651.3477, 3097.979
651.8298, 3086.942
652.3120, 3075.885
652.7941, 3066.432
653.2762, 3060.570
653.7583, 3064.397
654.2404, 3076.464
654.7225, 3084.225
655.2047, 3076.278
655.6868, 3058.029
656.1689, 3047.666
656.6510, 3046.369
657.1331, 3046.051
657.6152, 3046.618
658.0974, 3045.460
658.5795, 3038.577
659.0616, 3027.482
659.5437, 3019.094
660.0258, 3015.420
660.5079, 3012.779
660.9901, 3013.327
661.4722, 3012.128
661.9543, 3001.669
662.4364, 2983.492
662.9185, 2965.750
663.4006, 2952.782
663.8828, 2946.741
664.3649, 2958.073
664.8470, 2987.838
665.3291, 2996.934
665.8112, 2970.569
666.2933, 2943.859
666.7755, 2945.451
667.2576, 2968.446
667.7397, 2981.720
668.2218, 2988.143
668.7039, 2980.439
669.1860, 2941.754
669.6682, 2901.128
670.1503, 2878.446
670.6324, 2874.078
671.1145, 2884.235
671.5966, 2908.695
672.0787, 2934.561
672.5609, 2945.141
673.0430, 2941.116
673.5251, 2923.547
674.0072, 2889.117
674.4893, 2861.112
674.9714, 2854.009
675.4536, 2862.137
675.9357, 2871.596
676.4178, 2885.055
676.8999, 2893.981
677.3820, 2895.716
677.8641, 2895.359
678.3463, 2892.730
678.8284, 2890.764
679.3105, 2896.418
679.7926, 2911.864
680.2747, 2922.971
680.7568, 2912.458
681.2390, 2888.683
681.7211, 2869.846
682.2032, 2856.888
682.6853, 2850.372
683.1674, 2850.992
683.6495, 2857.171
684.1317, 2868.596
684.6138, 2889.573
685.0959, 2892.647
685.5780, 2856.135
686.0601, 2827.643
686.5422, 2828.395
687.0244, 2836.743
687.5065, 2825.539
687.9886, 2793.660
688.4707, 2770.360
688.9528, 2779.821
689.4349, 2800.480
689.9171, 2807.599
690.3992, 2805.423
690.8813, 2811.200
691.3634, 2829.074
691.8455, 2835.406
692.3276, 2800.839
692.8098, 2733.843
693.2919, 2714.008
693.7740, 2768.718
694.2561, 2809.922
694.7382, 2812.084
695.2203, 2804.139
695.7025, 2802.227
696.1846, 2806.646
696.6667, 2817.582
697.1488, 2849.446
697.6309, 2866.256
698.1130, 2833.182
698.5952, 2783.060
699.0773, 2751.400
699.5594, 2744.080
700.0415, 2762.515
700.5236, 2811.131
701.0057, 2867.039
701.4879, 2877.282
701.9700, 2839.093
702.4521, 2814.449
702.9342, 2810.871
703.4163, 2815.957
703.8984, 2826.031
704.3806, 2838.438
704.8627, 2847.965
705.3448, 2857.562
705.8269, 2856.301
706.3090, 2827.157
706.7911, 2802.242
707.2733, 2804.929
707.7554, 2823.735
708.2375, 2838.376
708.7196, 2842.655
709.2017, 2843.885
709.6838, 2854.802
710.1660, 2866.567
710.6481, 2847.809
711.1302, 2800.885
711.6123, 2775.340
712.0944, 2792.301
712.5765, 2821.580
713.0587, 2823.906
713.5408, 2797.170
714.0229, 2788.862
714.5050, 2823.815
714.9871, 2843.181
715.4692, 2823.765
715.9514, 2796.639
716.4335, 2788.242
716.9156, 2796.421
717.3977, 2800.848
717.8798, 2787.713
718.3619, 2776.274
718.8441, 2786.016
719.3262, 2806.251
719.8083, 2820.115
720.2904, 2824.959
720.7725, 2823.541
721.2546, 2817.139
721.7368, 2807.933
722.2189, 2801.384
722.7010, 2798.035
723.1831, 2793.483
723.6652, 2786.777
724.1473, 2780.179
724.6295, 2777.077
725.1116, 2774.065
725.5937, 2761.771
726.0758, 2733.143
726.5579, 2720.323
727.0400, 2741.632
727.5222, 2767.565
728.0043, 2786.775
728.4864, 2796.362
728.9685, 2790.961
729.4506, 2770.500
729.9327, 2747.329
730.4149, 2729.313
730.8970, 2717.946
731.3791, 2720.608
731.8612, 2735.434
732.3433, 2743.941
732.8254, 2740.182
733.3076, 2732.791
733.7897, 2731.115
734.2718, 2734.304
734.7539, 2730.493
735.2360, 2711.048
735.7181, 2699.094
736.2003, 2703.335
736.6824, 2709.820
737.1645, 2711.977
737.6466, 2709.300
738.1287, 2700.285
738.6108, 2678.831
739.0930, 2664.975
739.5751, 2675.963
740.0572, 2696.555
740.5393, 2708.454
741.0214, 2713.105
741.5035, 2723.347
741.9857, 2745.194
742.4678, 2766.641
742.9499, 2768.523
743.4320, 2752.357
743.9141, 2738.322
744.3962, 2725.667
744.8784, 2721.121
745.3605, 2730.075
745.8426, 2744.275
746.3247, 2753.783
746.8068, 2758.780
747.2889, 2756.459
747.7711, 2734.317
748.2532, 2721.411
748.7353, 2735.489
749.2174, 2753.490
749.6995, 2749.402
750.1816, 2728.081
750.6638, 2719.162
751.1459, 2743.791
751.6280, 2771.997
752.1101, 2773.824
752.5922, 2760.408
753.0743, 2751.456
753.5565, 2749.379
754.0386, 2750.737
754.5207, 2754.086
755.0028, 2755.742
755.4849, 2744.159
755.9670, 2715.748
756.4492, 2711.511
756.9313, 2743.874
757.4134, 2770.735
757.8955, 2771.468
758.3776, 2758.635
758.8597, 2749.997
759.3419, 2745.546
759.8240, 2744.134
760.3061, 2746.828
760.7882, 2751.183
761.2703, 2760.376
761.7524, 2768.098
762.2346, 2764.890
762.7167, 2752.488
763.1988, 2744.463
763.6809, 2752.161
764.1630, 2761.013
764.6451, 2746.476
765.1273, 2721.334
765.6094, 2722.575
766.0915, 2752.345
766.5736, 2777.289
767.0557, 2775.776
767.5378, 2761.725
768.0200, 2769.586
768.5021, 2807.161
768.9842, 2816.456
769.4663, 2781.619
769.9484, 2750.511
770.4305, 2743.806
770.9127, 2752.198
771.3948, 2765.377
771.8769, 2784.405
772.3590, 2794.221
772.8411, 2785.865
773.3232, 2776.578
773.8054, 2774.519
774.2875, 2773.862
774.7696, 2765.605
775.2517, 2751.512
775.7338, 2744.496
776.2159, 2756.603
776.6981, 2768.054
777.1802, 2749.262
777.6623, 2714.668
778.1444, 2697.528
778.6265, 2700.909
779.1086, 2713.956
779.5908, 2731.734
780.0729, 2747.538
780.5550, 2747.506
781.0371, 2729.918
781.5192, 2712.238
782.0013, 2690.862
782.4835, 2679.514
782.9656, 2689.800
783.4477, 2706.635
783.9298, 2709.715
784.4119, 2698.706
784.8940, 2691.204
785.3762, 2696.133
785.8583, 2694.027
786.3404, 2668.231
786.8225, 2642.313
787.3046, 2641.558
787.7867, 2659.535
788.2689, 2668.987
788.7510, 2656.567
789.2331, 2639.096
789.7152, 2625.927
790.1973, 2619.336
790.6794, 2629.345
791.1616, 2650.600
791.6437, 2657.580
792.1258, 2639.298
792.6079, 2616.510
793.0900, 2619.168
793.5721, 2644.109
794.0543, 2660.664
794.5364, 2668.853
795.0185, 2668.077
795.5006, 2655.979
795.9827, 2639.113
796.4648, 2621.360
796.9470, 2603.669
797.4291, 2596.857
797.9112, 2614.873
798.3933, 2623.795
798.8754, 2621.314
799.3575, 2610.211
799.8397, 2583.505
800.3218, 2551.814
800.8039, 2535.421
801.2860, 2540.916
801.7681, 2548.038
802.2502, 2548.219
802.7324, 2544.194
803.2145, 2536.216
803.6966, 2526.613
804.1787, 2519.404
804.6608, 2515.488
805.1429, 2513.011
805.6251, 2511.521
806.1072, 2508.926
806.5893, 2500.285
807.0714, 2486.096
807.5535, 2468.142
808.0356, 2446.071
808.5178, 2431.271
808.9999, 2432.282
809.4820, 2443.435
809.9641, 2450.636
810.4462, 2453.077
810.9283, 2454.822
811.4105, 2458.127
811.8926, 2457.004
812.3747, 2445.144
812.8568, 2430.299
813.3389, 2422.018
813.8210, 2420.362
814.3032, 2416.921
814.7853, 2408.198
815.2674, 2400.440
815.7495, 2396.017
816.2316, 2393.298
816.7137, 2391.590
817.1959, 2390.150
817.6780, 2388.338
818.1601, 2386.740
818.6422, 2380.540
819.1243, 2355.729
819.6064, 2329.201
820.0886, 2337.885
820.5707, 2370.099
821.0528, 2374.139
821.5349, 2332.920
822.0170, 2287.075
822.4991, 2283.573
822.9813, 2311.427
823.4634, 2322.865
823.9455, 2317.087
824.4276, 2311.410
824.9097, 2307.262
825.3918, 2314.194
825.8740, 2346.254
826.3561, 2389.754
826.8382, 2395.570
827.3203, 2334.559
827.8024, 2303.389
828.2845, 2325.117
828.7667, 2348.719
829.2488, 2355.004
829.7309, 2353.798
830.2130, 2360.714
830.6951, 2376.372
831.1772, 2374.368
831.6594, 2324.599
832.1415, 2285.051
832.6236, 2291.106
833.1057, 2311.909
833.5878, 2315.177
834.0699, 2303.135
834.5521, 2296.333
835.0342, 2304.641
835.5163, 2316.208
835.9984, 2320.490
836.4805, 2320.671
836.9626, 2324.067
837.4448, 2328.459
837.9269, 2322.069
838.4090, 2301.705
838.8911, 2281.921
839.3732, 2278.149
839.8553, 2287.241
840.3375, 2300.026
840.8196, 2316.704
841.3017, 2327.891
841.7838, 2333.134
842.2659, 2324.196
842.7480, 2288.350
843.2302, 2243.787
843.7123, 2239.625
844.1944, 2295.699
844.6765, 2325.167
845.1586, 2310.175
845.6407, 2295.205
846.1229, 2303.797
846.6050, 2313.100
847.0871, 2292.443
847.5692, 2245.618
848.0513, 2222.695
848.5334, 2249.318
849.0156, 2274.966
849.4977, 2287.962
849.9798, 2293.157
850.4619, 2294.068
850.9440, 2290.445
851.4261, 2278.271
851.9083, 2255.370
852.3904, 2238.071
852.8725, 2240.068
853.3546, 2250.349
853.8367, 2260.152
854.3188, 2268.261
854.8010, 2272.458
855.2831, 2272.949
855.7652, 2274.000
856.2473, 2279.777
856.7294, 2284.787
857.2115, 2275.322
857.6937, 2256.074
858.1758, 2251.388
858.6579, 2262.814
859.1400, 2265.393
859.6221, 2246.082
860.1042, 2222.997
860.5864, 2223.216
861.0685, 2245.718
861.5506, 2263.251
862.0327, 2277.528
862.5148, 2278.646
862.9969, 2258.106
863.4791, 2235.925
863.9612, 2227.011
864.4433, 2229.084
864.9254, 2234.635
865.4075, 2250.547
865.8896, 2255.484
866.3718, 2234.425
866.8539, 2220.804
867.3360, 2233.039
867.8181, 2254.438
868.3002, 2266.658
868.7823, 2268.773
869.2645, 2269.316
869.7466, 2271.805
870.2287, 2271.327
870.7108, 2265.450
871.1929, 2256.250
871.6750, 2242.029
872.1572, 2226.785
872.6393, 2218.722
873.1214, 2220.672
873.6035, 2227.310
874.0856, 2239.389
874.5677, 2250.343
875.0499, 2252.000
875.5320, 2247.056
876.0141, 2239.763
876.4962, 2232.028
876.9783, 2227.029
877.4604, 2226.788
877.9426, 2230.903
878.4247, 2243.262
878.9068, 2259.400
879.3889, 2259.434
879.8710, 2243.604
880.3531, 2230.458
880.8353, 2227.414
881.3174, 2232.256
881.7995, 2245.608
882.2816, 2263.321
882.7637, 2253.513
883.2458, 2210.059
883.7280, 2188.119
884.2101, 2203.781
884.6922, 2217.970
885.1743, 2203.253
885.6564, 2173.361
886.1385, 2158.589
886.6207, 2162.902
887.1028, 2164.798
887.5849, 2164.662
888.0670, 2161.298
888.5491, 2146.084
889.0313, 2134.877
889.5134, 2144.708
889.9955, 2170.897
890.4776, 2192.207
890.9597, 2208.694
891.4418, 2217.470
891.9240, 2212.277
892.4061, 2205.699
892.8882, 2207.630
893.3703, 2210.483
893.8524, 2198.512
894.3345, 2171.979
894.8167, 2159.604
895.2988, 2185.024
895.7809, 2212.714
896.2630, 2230.961
896.7451, 2236.556
897.2272, 2216.168
897.7094, 2181.700
898.1915, 2162.990
898.6736, 2170.788
899.1557, 2184.381
899.6378, 2189.808
900.1199, 2189.870
900.6021, 2186.114
901.0842, 2180.269
901.5663, 2172.197
902.0484, 2164.473
902.5305, 2170.777
903.0126, 2201.991
903.4948, 2236.294
903.9769, 2238.350
904.4590, 2217.817
904.9411, 2204.884
905.4232, 2199.623
905.9053, 2191.463
906.3875, 2176.963
906.8696, 2156.884
907.3517, 2129.088
907.8338, 2101.163
908.3159, 2102.869
908.7980, 2134.496
909.2802, 2150.588
909.7623, 2144.283
910.2444, 2138.643
910.7265, 2144.380
911.2086, 2157.956
911.6907, 2176.278
912.1729, 2199.112
912.6550, 2209.749
913.1371, 2207.172
913.6192, 2193.869
914.1013, 2160.532
914.5834, 2135.498
915.0656, 2143.605
915.5477, 2168.829
916.0298, 2172.462
916.5119, 2144.444
916.9940, 2132.791
917.4761, 2150.452
917.9583, 2166.163
918.4404, 2174.118
918.9225, 2176.292
919.4046, 2167.393
919.8867, 2153.485
920.3688, 2158.480
920.8510, 2201.398
921.3331, 2224.776
921.8152, 2210.623
922.2973, 2186.569
922.7794, 2152.375
923.2615, 2123.545
923.7437, 2122.391
924.2258, 2146.255
924.7079, 2164.908
925.1900, 2167.489
925.6721, 2166.500
926.1542, 2166.675
926.6364, 2165.564
927.1185, 2155.784
927.6006, 2145.507
928.0827, 2154.274
928.5648, 2183.574
929.0469, 2200.320
929.5291, 2173.009
930.0112, 2141.584
930.4933, 2138.920
930.9754, 2147.229
931.4575, 2140.621
931.9396, 2124.778
932.4218, 2125.668
932.9039, 2152.278
933.3860, 2177.008
933.8681, 2171.068
934.3502, 2153.935
934.8323, 2147.616
935.3145, 2150.467
935.7966, 2165.836
936.2787, 2188.159
936.7608, 2191.553
937.2429, 2161.074
937.7250, 2126.431
938.2072, 2128.470
938.6893, 2151.395
939.1714, 2158.981
939.6535, 2154.039
940.1356, 2151.115
940.6177, 2153.159
941.0999, 2152.527
941.5820, 2142.999
942.0641, 2132.144
942.5462, 2136.001
943.0283, 2151.098
943.5104, 2159.389
943.9926, 2160.450
944.4747, 2157.916
944.9568, 2152.731
945.4389, 2151.862
945.9210, 2163.515
946.4031, 2179.535
946.8853, 2173.475
947.3674, 2145.481
947.8495, 2127.689
948.3316, 2122.019
948.8137, 2131.757
949.2958, 2162.016
949.7780, 2187.964
950.2601, 2178.551
950.7422, 2142.907
951.2243, 2130.913
951.7064, 2146.164
952.1885, 2163.324
952.6707, 2182.573
953.1528, 2192.897
953.6349, 2186.176
954.1170, 2174.662
954.5991, 2177.050
955.0812, 2191.940
955.5634, 2186.394
956.0455, 2150.029
956.5276, 2125.501
957.0097, 2120.427
957.4918, 2122.286
957.9739, 2124.676
958.4561, 2129.849
958.9382, 2143.402
959.4203, 2166.800
959.9024, 2177.799
960.3845, 2169.943
960.8666, 2162.251
961.3488, 2153.555
961.8309, 2151.373
962.3130, 2168.244
962.7951, 2190.626
963.2772, 2188.524
963.7593, 2153.765
964.2415, 2138.430
964.7236, 2162.913
965.2057, 2177.160
965.6878, 2161.175
966.1699, 2143.803
966.6520, 2145.368
967.1342, 2158.634
967.6163, 2168.371
968.0984, 2175.849
968.5805, 2173.172
969.0626, 2142.824
969.5447, 2125.245
970.0269, 2143.596
970.5090, 2166.499
970.9911, 2165.954
971.4732, 2151.446
971.9553, 2151.445
972.4374, 2175.147
972.9196, 2189.671
973.4017, 2185.414
973.8838, 2177.939
974.3659, 2162.953
974.8480, 2155.214
975.3301, 2177.496
975.8123, 2217.471
976.2944, 2233.964
976.7765, 2211.283
977.2586, 2196.038
977.7407, 2207.773
978.2228, 2217.850
978.7050, 2211.975
979.1871, 2199.837
979.6692, 2188.387
980.1513, 2179.720
980.6334, 2177.212
981.1155, 2181.732
981.5977, 2192.079
982.0798, 2220.027
982.5619, 2239.510
983.0440, 2229.389
983.5261, 2209.633
984.0082, 2202.906
984.4904, 2207.633
984.9725, 2207.864
985.4546, 2195.619
985.9367, 2190.045
986.4188, 2209.082
986.9009, 2224.257
987.3831, 2213.013
987.8652, 2192.702
988.3473, 2182.444
988.8294, 2183.477
989.3115, 2189.439
989.7936, 2198.933
990.2758, 2211.660
990.7579, 2235.096
991.2400, 2253.370
991.7221, 2251.165
992.2042, 2241.264
992.6863, 2239.695
993.1685, 2246.483
993.6506, 2252.805
994.1327, 2258.111
994.6148, 2255.656
995.0969, 2236.514
995.5790, 2214.919
996.0612, 2193.583
996.5433, 2180.116
997.0254, 2187.035
997.5075, 2211.062
997.9896, 2234.466
998.4717, 2253.652
998.9539, 2264.094
999.4360, 2259.918
999.9181, 2250.378
1000.400, 2239.789
1000.882, 2229.086
1001.364, 2213.438
1001.847, 2197.548
1002.329, 2203.507
1002.811, 2251.739
1003.293, 2282.033
1003.775, 2246.475
1004.257, 2204.699
1004.739, 2199.200
1005.221, 2210.875
1005.703, 2211.827
1006.186, 2203.511
1006.668, 2208.055
1007.150, 2237.869
1007.632, 2263.864
1008.114, 2278.737
1008.596, 2278.861
1009.078, 2244.506
1009.560, 2205.770
1010.043, 2202.655
1010.525, 2230.041
1011.007, 2253.393
1011.489, 2263.417
1011.971, 2264.268
1012.453, 2250.740
1012.935, 2236.624
1013.417, 2227.895
1013.899, 2224.950
1014.382, 2229.312
1014.864, 2239.461
1015.346, 2251.517
1015.828, 2265.484
1016.310, 2276.471
1016.792, 2281.503
1017.274, 2284.364
1017.756, 2288.448
1018.239, 2290.365
1018.721, 2287.528
1019.203, 2279.260
1019.685, 2261.948
1020.167, 2230.320
1020.649, 2212.561
1021.131, 2229.475
1021.613, 2247.756
1022.095, 2252.431
1022.578, 2251.141
1023.060, 2251.502
1023.542, 2252.164
1024.024, 2245.877
1024.506, 2228.654
1024.988, 2222.277
1025.470, 2238.992
1025.952, 2258.878
1026.435, 2283.631
1026.917, 2300.271
1027.399, 2290.558
1027.881, 2267.187
1028.363, 2260.011
1028.845, 2275.902
1029.327, 2281.217
1029.809, 2257.668
1030.292, 2239.773
1030.774, 2241.156
1031.256, 2246.672
1031.738, 2248.170
1032.220, 2245.657
1032.702, 2236.964
1033.184, 2220.656
1033.666, 2217.592
1034.148, 2247.472
1034.630, 2264.957
1035.113, 2251.897
1035.595, 2236.436
1036.077, 2233.638
1036.559, 2238.251
1037.041, 2242.616
1037.523, 2246.568
1038.005, 2251.827
1038.487, 2261.176
1038.970, 2267.363
1039.452, 2270.845
1039.934, 2269.796
1040.416, 2257.999
1040.898, 2245.892
1041.380, 2248.117
1041.862, 2262.907
1042.344, 2270.564
1042.826, 2268.960
1043.309, 2264.313
1043.791, 2252.803
1044.273, 2245.601
1044.755, 2246.051
1045.237, 2254.431
1045.719, 2277.779
1046.201, 2307.678
1046.683, 2301.969
1047.166, 2243.482
1047.648, 2207.743
1048.130, 2198.647
1048.612, 2204.525
1049.094, 2228.428
1049.576, 2249.344
1050.058, 2248.013
1050.540, 2232.478
1051.022, 2224.181
1051.505, 2223.691
1051.987, 2225.689
1052.469, 2231.077
1052.951, 2231.337
1053.433, 2222.279
1053.915, 2221.758
1054.397, 2244.623
1054.879, 2273.939
1055.361, 2277.080
1055.844, 2256.548
1056.326, 2241.354
1056.808, 2231.396
1057.290, 2225.162
1057.772, 2222.361
1058.254, 2226.166
1058.736, 2238.645
1059.218, 2253.940
1059.701, 2265.973
1060.183, 2273.141
1060.665, 2264.771
1061.147, 2245.513
1061.629, 2241.735
1062.111, 2255.281
1062.593, 2278.847
1063.075, 2308.570
1063.557, 2323.860
1064.040, 2298.384
1064.522, 2259.174
1065.004, 2259.329
1065.486, 2283.460
1065.968, 2292.319
1066.450, 2289.313
1066.932, 2302.341
1067.414, 2335.113
1067.896, 2355.655
1068.379, 2338.957
1068.861, 2313.295
1069.343, 2310.575
1069.825, 2318.700
1070.307, 2323.236
1070.789, 2324.293
1071.271, 2324.311
1071.753, 2323.322
1072.236, 2317.389
1072.718, 2302.855
1073.200, 2296.851
1073.682, 2322.357
1074.164, 2350.211
1074.646, 2353.439
1075.128, 2346.703
1075.610, 2349.220
1076.093, 2358.487
1076.575, 2360.157
1077.057, 2350.045
1077.539, 2346.003
1078.021, 2364.604
1078.503, 2379.290
1078.985, 2375.017
1079.467, 2365.202
1079.949, 2352.925
1080.432, 2345.996
1080.914, 2360.999
1081.396, 2397.827
1081.878, 2421.041
1082.360, 2418.233
1082.842, 2410.853
1083.324, 2397.825
1083.806, 2385.974
1084.288, 2371.272
1084.771, 2364.694
1085.253, 2387.496
1085.735, 2430.367
1086.217, 2446.512
1086.699, 2420.436
1087.181, 2408.975
1087.663, 2418.008
1088.145, 2430.049
1088.628, 2441.424
1089.110, 2453.281
1089.592, 2467.067
1090.074, 2481.485
1090.556, 2495.443
1091.038, 2509.524
1091.520, 2503.564
1092.002, 2473.326
1092.484, 2449.908
1092.967, 2438.126
1093.449, 2435.823
1093.931, 2443.279
1094.413, 2451.031
1094.895, 2443.751
1095.377, 2430.779
1095.859, 2457.523
1096.341, 2514.981
1096.823, 2524.276
1097.306, 2485.065
1097.788, 2459.639
1098.270, 2467.628
1098.752, 2484.081
1099.234, 2489.735
1099.716, 2490.989
1100.198, 2500.154
1100.680, 2510.716
1101.163, 2506.244
1101.645, 2492.566
1102.127, 2484.229
1102.609, 2483.983
1103.091, 2491.692
1103.573, 2508.115
1104.055, 2516.868
1104.537, 2495.802
1105.020, 2470.119
1105.502, 2461.699
1105.984, 2463.161
1106.466, 2467.129
1106.948, 2472.310
1107.430, 2481.469
1107.912, 2494.156
1108.394, 2495.514
1108.876, 2468.074
1109.359, 2445.550
1109.841, 2443.441
1110.323, 2446.757
1110.805, 2447.018
1111.287, 2447.132
1111.769, 2451.115
1112.251, 2458.796
1112.733, 2468.549
1113.215, 2484.281
1113.698, 2491.724
1114.180, 2483.508
1114.662, 2478.783
1115.144, 2492.429
1115.626, 2494.108
1116.108, 2451.888
1116.590, 2396.479
1117.072, 2389.004
1117.555, 2429.790
1118.037, 2446.137
1118.519, 2432.702
1119.001, 2425.311
1119.483, 2429.078
1119.965, 2431.926
1120.447, 2428.189
1120.929, 2426.859
1121.411, 2439.451
1121.894, 2455.810
1122.376, 2444.612
1122.858, 2412.690
1123.340, 2393.744
1123.822, 2388.628
1124.304, 2395.506
1124.786, 2411.971
1125.268, 2426.170
1125.750, 2431.427
1126.233, 2430.670
1126.715, 2427.281
1127.197, 2419.623
1127.679, 2399.048
1128.161, 2376.568
1128.643, 2373.232
1129.125, 2383.097
1129.607, 2384.167
1130.090, 2371.946
1130.572, 2365.184
1131.054, 2377.978
1131.536, 2390.053
1132.018, 2390.938
1132.500, 2387.473
1132.982, 2382.975
1133.464, 2377.828
1133.947, 2371.662
1134.429, 2364.907
1134.911, 2359.017
1135.393, 2354.074
1135.875, 2350.349
1136.357, 2355.410
1136.839, 2349.588
1137.321, 2315.419
1137.803, 2291.088
1138.286, 2305.208
1138.768, 2333.068
1139.250, 2337.073
1139.732, 2320.480
1140.214, 2315.437
1140.696, 2324.188
1141.178, 2326.030
1141.660, 2318.819
1142.142, 2313.894
1142.625, 2314.902
1143.107, 2319.549
1143.589, 2327.106
1144.071, 2331.808
1144.553, 2321.978
1145.035, 2301.740
1145.517, 2282.028
1145.999, 2263.130
1146.482, 2240.616
1146.964, 2218.720
1147.446, 2218.476
1147.928, 2246.178
1148.410, 2273.388
1148.892, 2278.072
1149.374, 2275.506
1149.856, 2280.913
1150.339, 2283.929
1150.821, 2272.320
1151.303, 2252.439
1151.785, 2232.580
1152.267, 2214.571
1152.749, 2198.522
1153.231, 2183.939
1153.713, 2173.688
1154.195, 2173.889
1154.677, 2170.749
1155.160, 2152.080
1155.642, 2137.896
1156.124, 2143.922
1156.606, 2158.921
1157.088, 2168.342
1157.570, 2171.922
1158.052, 2165.195
1158.534, 2144.622
1159.017, 2130.296
1159.499, 2124.082
1159.981, 2118.961
1160.463, 2112.686
1160.945, 2108.864
1161.427, 2110.494
1161.909, 2113.928
1162.391, 2114.142
1162.874, 2110.658
1163.356, 2098.410
1163.838, 2081.660
1164.320, 2074.030
1164.802, 2076.213
1165.284, 2086.806
1165.766, 2103.406
1166.248, 2110.841
1166.730, 2095.627
1167.213, 2076.771
1167.695, 2064.155
1168.177, 2060.873
1168.659, 2078.399
1169.141, 2100.640
1169.623, 2107.888
1170.105, 2102.067
1170.587, 2094.093
1171.069, 2085.435
1171.552, 2078.406
1172.034, 2076.103
1172.516, 2071.125
1172.998, 2057.447
1173.480, 2048.118
1173.962, 2051.224
1174.444, 2057.522
1174.926, 2057.020
1175.409, 2052.193
1175.891, 2052.306
1176.373, 2058.028
1176.855, 2058.709
1177.337, 2054.240
1177.819, 2049.207
1178.301, 2044.505
1178.783, 2040.948
1179.266, 2038.922
1179.748, 2037.635
1180.230, 2036.779
1180.712, 2035.209
1181.194, 2030.191
1181.676, 2023.756
1182.158, 2021.473
1182.640, 2019.809
1183.122, 2008.462
1183.604, 1989.341
1184.087, 1974.899
1184.569, 1968.785
1185.051, 1974.854
1185.533, 2016.285
1186.015, 2041.008
1186.497, 2007.953
1186.979, 1971.070
1187.461, 1971.066
1187.944, 1988.176
1188.426, 1993.293
1188.908, 1988.161
1189.390, 1985.228
1189.872, 1986.873
1190.354, 1980.388
1190.836, 1961.333
1191.318, 1955.975
1191.801, 1972.508
1192.283, 1986.132
1192.765, 1982.586
1193.247, 1970.467
1193.729, 1958.445
1194.211, 1949.015
1194.693, 1955.682
1195.175, 1967.085
1195.657, 1942.823
1196.140, 1897.932
1196.622, 1882.293
1197.104, 1900.884
1197.586, 1925.233
1198.068, 1944.190
1198.550, 1952.869
1199.032, 1935.561
1199.514, 1923.526
1199.996, 1941.109
1200.479, 1964.233
1200.961, 1979.778
1201.443, 1984.963
1201.925, 1971.250
1202.407, 1942.890
1202.889, 1932.392
1203.371, 1947.606
1203.853, 1955.839
1204.336, 1955.321
1204.818, 1953.628
1205.300, 1952.492
1205.782, 1948.871
1206.264, 1940.790
1206.746, 1931.193
1207.228, 1921.671
1207.710, 1916.995
1208.193, 1935.999
1208.675, 1967.299
1209.157, 1977.449
1209.639, 1970.138
1210.121, 1957.774
1210.603, 1944.969
1211.085, 1937.117
1211.567, 1936.365
1212.049, 1938.319
1212.531, 1946.031
1213.014, 1947.873
1213.496, 1929.656
1213.978, 1912.329
1214.460, 1911.489
1214.942, 1919.225
1215.424, 1927.885
1215.906, 1935.713
1216.388, 1938.163
1216.871, 1934.585
1217.353, 1929.270
1217.835, 1921.712
1218.317, 1913.241
1218.799, 1902.741
1219.281, 1902.647
1219.763, 1919.112
1220.245, 1933.746
1220.728, 1928.728
1221.210, 1916.347
1221.692, 1920.807
1222.174, 1932.137
1222.656, 1926.627
1223.138, 1913.268
1223.620, 1914.627
1224.102, 1925.946
1224.584, 1924.043
1225.067, 1904.350
1225.549, 1889.322
1226.031, 1888.075
1226.513, 1893.918
1226.995, 1924.676
1227.477, 1936.131
1227.959, 1877.323
1228.441, 1825.835
1228.923, 1849.469
1229.406, 1907.640
1229.888, 1930.497
1230.370, 1921.630
1230.852, 1918.752
1231.334, 1922.188
1231.816, 1926.256
1232.298, 1929.918
1232.780, 1910.822
1233.263, 1866.977
1233.745, 1846.590
1234.227, 1877.857
1234.709, 1916.675
1235.191, 1911.880
1235.673, 1897.147
1236.155, 1916.735
1236.637, 1940.542
1237.120, 1930.604
1237.602, 1903.179
1238.084, 1883.148
1238.566, 1874.033
1239.048, 1875.796
1239.530, 1893.428
1240.012, 1900.045
1240.494, 1884.624
1240.976, 1878.668
1241.458, 1893.054
1241.941, 1896.014
1242.423, 1868.997
1242.905, 1845.066
##END=



