##NAMES=Gordonite
##RRUFFID=R130671
##IDEAL CHEMISTRY=MgAl_2_(PO_4_)_2_(OH)_2_&#183;8H_2_O
##LOCALITY=Near Milgun Station, Meekatharra Shire, Western Australia, Australia
##OWNER=RRUFF
##SOURCE=Rock Currier
##DESCRIPTION=Vitreous clear prismatic lathlike bundles of triclinic crystals. Associated with montgomeryite (R140625), collinsite (R140626), and hydroxylapatite (R140987).
##STATUS=The identification of this mineral has been confirmed by single-crystal X-ray diffraction.
##URL=rruff.info/R130671
9.059570e+001, 6.809276e+002
9.107782e+001, 6.694606e+002
9.155994e+001, 6.654161e+002
9.204205e+001, 6.743796e+002
9.252417e+001, 6.869713e+002
9.300629e+001, 6.997946e+002
9.348840e+001, 7.082040e+002
9.397052e+001, 7.083199e+002
9.445264e+001, 6.996948e+002
9.493475e+001, 6.921066e+002
9.541687e+001, 6.847688e+002
9.589898e+001, 6.788057e+002
9.638110e+001, 6.732489e+002
9.686321e+001, 6.669781e+002
9.734533e+001, 6.590410e+002
9.782745e+001, 6.489376e+002
9.830956e+001, 6.411209e+002
9.879168e+001, 6.365733e+002
9.927380e+001, 6.326146e+002
9.975591e+001, 6.285693e+002
1.002380e+002, 6.244213e+002
1.007201e+002, 6.203275e+002
1.012023e+002, 6.162705e+002
1.016844e+002, 6.123319e+002
1.021665e+002, 6.087422e+002
1.026486e+002, 6.054587e+002
1.031307e+002, 6.024225e+002
1.036128e+002, 5.994792e+002
1.040950e+002, 5.964904e+002
1.045771e+002, 5.940179e+002
1.050592e+002, 5.924594e+002
1.055413e+002, 5.914543e+002
1.060234e+002, 5.905997e+002
1.065055e+002, 5.896078e+002
1.069877e+002, 5.885742e+002
1.074698e+002, 5.880530e+002
1.079519e+002, 5.888834e+002
1.084340e+002, 5.890800e+002
1.089161e+002, 5.876467e+002
1.093982e+002, 5.849164e+002
1.098804e+002, 5.817579e+002
1.103625e+002, 5.788203e+002
1.108446e+002, 5.760621e+002
1.113267e+002, 5.737845e+002
1.118088e+002, 5.720830e+002
1.122909e+002, 5.707119e+002
1.127731e+002, 5.697039e+002
1.132552e+002, 5.689934e+002
1.137373e+002, 5.683516e+002
1.142194e+002, 5.674587e+002
1.147015e+002, 5.661175e+002
1.151836e+002, 5.648268e+002
1.156658e+002, 5.637209e+002
1.161479e+002, 5.625984e+002
1.166300e+002, 5.611937e+002
1.171121e+002, 5.593917e+002
1.175942e+002, 5.574208e+002
1.180763e+002, 5.558894e+002
1.185584e+002, 5.550504e+002
1.190406e+002, 5.540201e+002
1.195227e+002, 5.522732e+002
1.200048e+002, 5.500936e+002
1.204869e+002, 5.482725e+002
1.209690e+002, 5.472530e+002
1.214511e+002, 5.467755e+002
1.219333e+002, 5.461802e+002
1.224154e+002, 5.453990e+002
1.228975e+002, 5.446050e+002
1.233796e+002, 5.439816e+002
1.238617e+002, 5.435472e+002
1.243438e+002, 5.430827e+002
1.248260e+002, 5.427136e+002
1.253081e+002, 5.421731e+002
1.257902e+002, 5.410721e+002
1.262723e+002, 5.390934e+002
1.267544e+002, 5.367166e+002
1.272365e+002, 5.351476e+002
1.277187e+002, 5.351100e+002
1.282008e+002, 5.346570e+002
1.286829e+002, 5.328038e+002
1.291650e+002, 5.303265e+002
1.296471e+002, 5.283095e+002
1.301292e+002, 5.275207e+002
1.306114e+002, 5.278482e+002
1.310935e+002, 5.276162e+002
1.315756e+002, 5.266132e+002
1.320577e+002, 5.252136e+002
1.325398e+002, 5.233263e+002
1.330219e+002, 5.210810e+002
1.335041e+002, 5.187184e+002
1.339862e+002, 5.164128e+002
1.344683e+002, 5.141271e+002
1.349504e+002, 5.121700e+002
1.354325e+002, 5.106215e+002
1.359146e+002, 5.092584e+002
1.363968e+002, 5.079717e+002
1.368789e+002, 5.067449e+002
1.373610e+002, 5.056207e+002
1.378431e+002, 5.047079e+002
1.383252e+002, 5.040741e+002
1.388073e+002, 5.032366e+002
1.392895e+002, 5.020688e+002
1.397716e+002, 5.007188e+002
1.402537e+002, 4.993263e+002
1.407358e+002, 4.979095e+002
1.412179e+002, 4.965185e+002
1.417000e+002, 4.953891e+002
1.421821e+002, 4.945163e+002
1.426643e+002, 4.932417e+002
1.431464e+002, 4.910188e+002
1.436285e+002, 4.881121e+002
1.441106e+002, 4.854374e+002
1.445927e+002, 4.831219e+002
1.450748e+002, 4.812380e+002
1.455570e+002, 4.797641e+002
1.460391e+002, 4.787025e+002
1.465212e+002, 4.779333e+002
1.470033e+002, 4.776140e+002
1.474854e+002, 4.778568e+002
1.479675e+002, 4.774307e+002
1.484497e+002, 4.750913e+002
1.489318e+002, 4.726239e+002
1.494139e+002, 4.711777e+002
1.498960e+002, 4.709552e+002
1.503781e+002, 4.710527e+002
1.508602e+002, 4.700198e+002
1.513424e+002, 4.670339e+002
1.518245e+002, 4.646890e+002
1.523066e+002, 4.633614e+002
1.527887e+002, 4.625501e+002
1.532708e+002, 4.619529e+002
1.537529e+002, 4.614451e+002
1.542351e+002, 4.609559e+002
1.547172e+002, 4.603092e+002
1.551993e+002, 4.594179e+002
1.556814e+002, 4.584506e+002
1.561635e+002, 4.572982e+002
1.566456e+002, 4.561084e+002
1.571278e+002, 4.550827e+002
1.576099e+002, 4.543275e+002
1.580920e+002, 4.537679e+002
1.585741e+002, 4.530887e+002
1.590562e+002, 4.518846e+002
1.595383e+002, 4.510162e+002
1.600205e+002, 4.509128e+002
1.605026e+002, 4.513225e+002
1.609847e+002, 4.517119e+002
1.614668e+002, 4.518430e+002
1.619489e+002, 4.516537e+002
1.624310e+002, 4.510243e+002
1.629131e+002, 4.492460e+002
1.633953e+002, 4.477266e+002
1.638774e+002, 4.475898e+002
1.643595e+002, 4.486916e+002
1.648416e+002, 4.496004e+002
1.653237e+002, 4.492965e+002
1.658058e+002, 4.481909e+002
1.662880e+002, 4.472930e+002
1.667701e+002, 4.466842e+002
1.672522e+002, 4.463384e+002
1.677343e+002, 4.463518e+002
1.682164e+002, 4.468282e+002
1.686985e+002, 4.471700e+002
1.691807e+002, 4.469004e+002
1.696628e+002, 4.463169e+002
1.701449e+002, 4.457575e+002
1.706270e+002, 4.453865e+002
1.711091e+002, 4.450953e+002
1.715912e+002, 4.446166e+002
1.720734e+002, 4.438426e+002
1.725555e+002, 4.430724e+002
1.730376e+002, 4.423861e+002
1.735197e+002, 4.417794e+002
1.740018e+002, 4.412526e+002
1.744839e+002, 4.408287e+002
1.749661e+002, 4.404860e+002
1.754482e+002, 4.400810e+002
1.759303e+002, 4.394099e+002
1.764124e+002, 4.389242e+002
1.768945e+002, 4.389520e+002
1.773766e+002, 4.392381e+002
1.778588e+002, 4.392998e+002
1.783409e+002, 4.387152e+002
1.788230e+002, 4.374738e+002
1.793051e+002, 4.368467e+002
1.797872e+002, 4.376265e+002
1.802693e+002, 4.382359e+002
1.807515e+002, 4.380669e+002
1.812336e+002, 4.372972e+002
1.817157e+002, 4.365008e+002
1.821978e+002, 4.361978e+002
1.826799e+002, 4.364818e+002
1.831620e+002, 4.362884e+002
1.836441e+002, 4.350182e+002
1.841263e+002, 4.339027e+002
1.846084e+002, 4.337920e+002
1.850905e+002, 4.345494e+002
1.855726e+002, 4.352582e+002
1.860547e+002, 4.350528e+002
1.865368e+002, 4.337741e+002
1.870190e+002, 4.326102e+002
1.875011e+002, 4.314034e+002
1.879832e+002, 4.304210e+002
1.884653e+002, 4.300988e+002
1.889474e+002, 4.304428e+002
1.894296e+002, 4.306385e+002
1.899117e+002, 4.296811e+002
1.903938e+002, 4.276202e+002
1.908759e+002, 4.261702e+002
1.913580e+002, 4.258821e+002
1.918401e+002, 4.261306e+002
1.923223e+002, 4.263762e+002
1.928044e+002, 4.266301e+002
1.932865e+002, 4.264990e+002
1.937686e+002, 4.251539e+002
1.942507e+002, 4.229854e+002
1.947328e+002, 4.212130e+002
1.952150e+002, 4.204772e+002
1.956971e+002, 4.203373e+002
1.961792e+002, 4.199752e+002
1.966613e+002, 4.193727e+002
1.971434e+002, 4.184172e+002
1.976255e+002, 4.167620e+002
1.981077e+002, 4.146692e+002
1.985898e+002, 4.128614e+002
1.990719e+002, 4.119478e+002
1.995540e+002, 4.116779e+002
2.000361e+002, 4.109287e+002
2.005182e+002, 4.092511e+002
2.010004e+002, 4.076808e+002
2.014825e+002, 4.067975e+002
2.019646e+002, 4.064482e+002
2.024467e+002, 4.062549e+002
2.029288e+002, 4.059640e+002
2.034109e+002, 4.055871e+002
2.038930e+002, 4.053424e+002
2.043752e+002, 4.055809e+002
2.048573e+002, 4.055753e+002
2.053394e+002, 4.048961e+002
2.058215e+002, 4.037398e+002
2.063036e+002, 4.025772e+002
2.067857e+002, 4.017809e+002
2.072679e+002, 4.013632e+002
2.077500e+002, 4.010853e+002
2.082321e+002, 4.011872e+002
2.087142e+002, 4.012151e+002
2.091963e+002, 4.009074e+002
2.096784e+002, 4.003768e+002
2.101606e+002, 3.999559e+002
2.106427e+002, 3.999893e+002
2.111248e+002, 4.005703e+002
2.116069e+002, 4.007570e+002
2.120890e+002, 4.001461e+002
2.125711e+002, 3.995545e+002
2.130533e+002, 3.994682e+002
2.135354e+002, 3.997430e+002
2.140175e+002, 3.998058e+002
2.144996e+002, 3.990527e+002
2.149817e+002, 3.972570e+002
2.154638e+002, 3.962867e+002
2.159460e+002, 3.968026e+002
2.164281e+002, 3.973615e+002
2.169102e+002, 3.972218e+002
2.173923e+002, 3.964164e+002
2.178744e+002, 3.954084e+002
2.183565e+002, 3.945742e+002
2.188387e+002, 3.939205e+002
2.193208e+002, 3.936130e+002
2.198029e+002, 3.939624e+002
2.202850e+002, 3.943602e+002
2.207671e+002, 3.944289e+002
2.212492e+002, 3.941645e+002
2.217314e+002, 3.937863e+002
2.222135e+002, 3.934406e+002
2.226956e+002, 3.931388e+002
2.231777e+002, 3.930162e+002
2.236598e+002, 3.934004e+002
2.241419e+002, 3.937246e+002
2.246240e+002, 3.934238e+002
2.251062e+002, 3.925038e+002
2.255883e+002, 3.916361e+002
2.260704e+002, 3.914545e+002
2.265525e+002, 3.918631e+002
2.270346e+002, 3.919711e+002
2.275167e+002, 3.912671e+002
2.279989e+002, 3.905276e+002
2.284810e+002, 3.905767e+002
2.289631e+002, 3.914724e+002
2.294452e+002, 3.924700e+002
2.299273e+002, 3.929941e+002
2.304094e+002, 3.932010e+002
2.308916e+002, 3.935348e+002
2.313737e+002, 3.944999e+002
2.318558e+002, 3.953809e+002
2.323379e+002, 3.951542e+002
2.328200e+002, 3.936530e+002
2.333021e+002, 3.922070e+002
2.337843e+002, 3.915628e+002
2.342664e+002, 3.915491e+002
2.347485e+002, 3.920335e+002
2.352306e+002, 3.932794e+002
2.357127e+002, 3.947608e+002
2.361948e+002, 3.958429e+002
2.366770e+002, 3.965424e+002
2.371591e+002, 3.967820e+002
2.376412e+002, 3.959782e+002
2.381233e+002, 3.948590e+002
2.386054e+002, 3.942336e+002
2.390875e+002, 3.944052e+002
2.395697e+002, 3.950980e+002
2.400518e+002, 3.960027e+002
2.405339e+002, 3.972865e+002
2.410160e+002, 3.982457e+002
2.414981e+002, 3.984647e+002
2.419802e+002, 3.983045e+002
2.424624e+002, 3.979984e+002
2.429445e+002, 3.975628e+002
2.434266e+002, 3.972069e+002
2.439087e+002, 3.973453e+002
2.443908e+002, 3.981603e+002
2.448729e+002, 3.989762e+002
2.453550e+002, 3.997745e+002
2.458372e+002, 4.004085e+002
2.463193e+002, 4.007051e+002
2.468014e+002, 4.005963e+002
2.472835e+002, 4.002418e+002
2.477656e+002, 3.999105e+002
2.482477e+002, 3.996407e+002
2.487299e+002, 3.992962e+002
2.492120e+002, 3.988070e+002
2.496941e+002, 3.982735e+002
2.501762e+002, 3.977391e+002
2.506583e+002, 3.972221e+002
2.511404e+002, 3.967804e+002
2.516226e+002, 3.965702e+002
2.521047e+002, 3.968611e+002
2.525868e+002, 3.967564e+002
2.530689e+002, 3.958365e+002
2.535510e+002, 3.947841e+002
2.540331e+002, 3.941768e+002
2.545153e+002, 3.941230e+002
2.549974e+002, 3.941817e+002
2.554795e+002, 3.935881e+002
2.559616e+002, 3.917542e+002
2.564437e+002, 3.905679e+002
2.569258e+002, 3.901455e+002
2.574080e+002, 3.901817e+002
2.578901e+002, 3.907599e+002
2.583722e+002, 3.917560e+002
2.588543e+002, 3.926219e+002
2.593364e+002, 3.925288e+002
2.598185e+002, 3.908542e+002
2.603007e+002, 3.897921e+002
2.607828e+002, 3.895994e+002
2.612649e+002, 3.896702e+002
2.617470e+002, 3.895712e+002
2.622291e+002, 3.892946e+002
2.627112e+002, 3.892095e+002
2.631934e+002, 3.898334e+002
2.636755e+002, 3.915999e+002
2.641576e+002, 3.924367e+002
2.646397e+002, 3.917517e+002
2.651218e+002, 3.908254e+002
2.656039e+002, 3.903893e+002
2.660861e+002, 3.904375e+002
2.665682e+002, 3.904626e+002
2.670503e+002, 3.898887e+002
2.675324e+002, 3.884897e+002
2.680145e+002, 3.880444e+002
2.684966e+002, 3.894156e+002
2.689788e+002, 3.907527e+002
2.694609e+002, 3.910377e+002
2.699430e+002, 3.904115e+002
2.704251e+002, 3.896698e+002
2.709072e+002, 3.894669e+002
2.713893e+002, 3.898286e+002
2.718715e+002, 3.900224e+002
2.723536e+002, 3.897794e+002
2.728357e+002, 3.896660e+002
2.733178e+002, 3.901020e+002
2.737999e+002, 3.908947e+002
2.742820e+002, 3.914720e+002
2.747642e+002, 3.914020e+002
2.752463e+002, 3.907614e+002
2.757284e+002, 3.905136e+002
2.762105e+002, 3.909017e+002
2.766926e+002, 3.913136e+002
2.771747e+002, 3.915247e+002
2.776568e+002, 3.916036e+002
2.781389e+002, 3.917563e+002
2.786211e+002, 3.921300e+002
2.791032e+002, 3.926120e+002
2.795853e+002, 3.926875e+002
2.800674e+002, 3.916555e+002
2.805495e+002, 3.911136e+002
2.810316e+002, 3.918745e+002
2.815138e+002, 3.933470e+002
2.819959e+002, 3.945072e+002
2.824780e+002, 3.949185e+002
2.829601e+002, 3.947669e+002
2.834422e+002, 3.944727e+002
2.839243e+002, 3.940154e+002
2.844065e+002, 3.934894e+002
2.848886e+002, 3.929618e+002
2.853707e+002, 3.923655e+002
2.858528e+002, 3.914834e+002
2.863349e+002, 3.901923e+002
2.868170e+002, 3.889178e+002
2.872992e+002, 3.884941e+002
2.877813e+002, 3.892476e+002
2.882634e+002, 3.896644e+002
2.887455e+002, 3.891152e+002
2.892276e+002, 3.882636e+002
2.897097e+002, 3.880151e+002
2.901919e+002, 3.885939e+002
2.906740e+002, 3.893576e+002
2.911561e+002, 3.895037e+002
2.916382e+002, 3.889436e+002
2.921203e+002, 3.884142e+002
2.926024e+002, 3.880500e+002
2.930846e+002, 3.877105e+002
2.935667e+002, 3.871957e+002
2.940488e+002, 3.864839e+002
2.945309e+002, 3.858607e+002
2.950130e+002, 3.856775e+002
2.954951e+002, 3.859306e+002
2.959773e+002, 3.858222e+002
2.964594e+002, 3.850380e+002
2.969415e+002, 3.840879e+002
2.974236e+002, 3.833846e+002
2.979057e+002, 3.829274e+002
2.983878e+002, 3.824263e+002
2.988700e+002, 3.816146e+002
2.993521e+002, 3.805811e+002
2.998342e+002, 3.798680e+002
3.003163e+002, 3.799223e+002
3.007984e+002, 3.798889e+002
3.012805e+002, 3.790887e+002
3.017627e+002, 3.776935e+002
3.022448e+002, 3.764965e+002
3.027269e+002, 3.759272e+002
3.032090e+002, 3.758365e+002
3.036911e+002, 3.757402e+002
3.041732e+002, 3.757729e+002
3.046554e+002, 3.756013e+002
3.051375e+002, 3.749211e+002
3.056196e+002, 3.739148e+002
3.061017e+002, 3.730892e+002
3.065838e+002, 3.726971e+002
3.070659e+002, 3.724629e+002
3.075481e+002, 3.717575e+002
3.080302e+002, 3.703896e+002
3.085123e+002, 3.693673e+002
3.089944e+002, 3.692761e+002
3.094765e+002, 3.696897e+002
3.099586e+002, 3.699267e+002
3.104408e+002, 3.698316e+002
3.109229e+002, 3.694508e+002
3.114050e+002, 3.686189e+002
3.118871e+002, 3.672762e+002
3.123692e+002, 3.665384e+002
3.128513e+002, 3.672709e+002
3.133335e+002, 3.684230e+002
3.138156e+002, 3.686035e+002
3.142977e+002, 3.675800e+002
3.147798e+002, 3.664059e+002
3.152619e+002, 3.660506e+002
3.157440e+002, 3.664815e+002
3.162262e+002, 3.669087e+002
3.167083e+002, 3.673522e+002
3.171904e+002, 3.677104e+002
3.176725e+002, 3.678953e+002
3.181546e+002, 3.679079e+002
3.186367e+002, 3.677928e+002
3.191188e+002, 3.675399e+002
3.196010e+002, 3.671817e+002
3.200831e+002, 3.668871e+002
3.205652e+002, 3.666607e+002
3.210473e+002, 3.664895e+002
3.215294e+002, 3.664584e+002
3.220115e+002, 3.665013e+002
3.224937e+002, 3.663354e+002
3.229758e+002, 3.657442e+002
3.234579e+002, 3.649694e+002
3.239400e+002, 3.646555e+002
3.244221e+002, 3.649561e+002
3.249042e+002, 3.652841e+002
3.253864e+002, 3.655638e+002
3.258685e+002, 3.657148e+002
3.263506e+002, 3.655240e+002
3.268327e+002, 3.648743e+002
3.273148e+002, 3.640504e+002
3.277969e+002, 3.634495e+002
3.282791e+002, 3.630396e+002
3.287612e+002, 3.629187e+002
3.292433e+002, 3.634791e+002
3.297254e+002, 3.641687e+002
3.302075e+002, 3.642360e+002
3.306896e+002, 3.635513e+002
3.311718e+002, 3.627513e+002
3.316539e+002, 3.624542e+002
3.321360e+002, 3.627128e+002
3.326181e+002, 3.630322e+002
3.331002e+002, 3.635919e+002
3.335823e+002, 3.640588e+002
3.340645e+002, 3.640693e+002
3.345466e+002, 3.636799e+002
3.350287e+002, 3.633762e+002
3.355108e+002, 3.635255e+002
3.359929e+002, 3.640557e+002
3.364750e+002, 3.643901e+002
3.369572e+002, 3.643701e+002
3.374393e+002, 3.643452e+002
3.379214e+002, 3.645194e+002
3.384035e+002, 3.648022e+002
3.388856e+002, 3.649420e+002
3.393677e+002, 3.647903e+002
3.398499e+002, 3.644969e+002
3.403320e+002, 3.644890e+002
3.408141e+002, 3.649077e+002
3.412962e+002, 3.653029e+002
3.417783e+002, 3.655894e+002
3.422604e+002, 3.658062e+002
3.427426e+002, 3.660215e+002
3.432247e+002, 3.662548e+002
3.437068e+002, 3.664190e+002
3.441889e+002, 3.663434e+002
3.446710e+002, 3.658105e+002
3.451531e+002, 3.657462e+002
3.456353e+002, 3.667513e+002
3.461174e+002, 3.678164e+002
3.465995e+002, 3.680043e+002
3.470816e+002, 3.673370e+002
3.475637e+002, 3.666615e+002
3.480458e+002, 3.667826e+002
3.485280e+002, 3.677583e+002
3.490101e+002, 3.682857e+002
3.494922e+002, 3.680971e+002
3.499743e+002, 3.678154e+002
3.504564e+002, 3.675884e+002
3.509385e+002, 3.674756e+002
3.514207e+002, 3.675824e+002
3.519028e+002, 3.679888e+002
3.523849e+002, 3.686223e+002
3.528670e+002, 3.691770e+002
3.533491e+002, 3.695378e+002
3.538312e+002, 3.699635e+002
3.543134e+002, 3.706397e+002
3.547955e+002, 3.713364e+002
3.552776e+002, 3.717862e+002
3.557597e+002, 3.718955e+002
3.562418e+002, 3.717582e+002
3.567239e+002, 3.714980e+002
3.572061e+002, 3.708393e+002
3.576882e+002, 3.706622e+002
3.581703e+002, 3.714588e+002
3.586524e+002, 3.723210e+002
3.591345e+002, 3.726363e+002
3.596166e+002, 3.723585e+002
3.600987e+002, 3.717777e+002
3.605808e+002, 3.711345e+002
3.610630e+002, 3.703973e+002
3.615451e+002, 3.698993e+002
3.620272e+002, 3.698452e+002
3.625093e+002, 3.697992e+002
3.629914e+002, 3.696279e+002
3.634735e+002, 3.693560e+002
3.639557e+002, 3.690544e+002
3.644378e+002, 3.687644e+002
3.649199e+002, 3.684825e+002
3.654020e+002, 3.681884e+002
3.658841e+002, 3.678218e+002
3.663662e+002, 3.675350e+002
3.668484e+002, 3.673424e+002
3.673305e+002, 3.672369e+002
3.678126e+002, 3.671987e+002
3.682947e+002, 3.672256e+002
3.687768e+002, 3.673521e+002
3.692589e+002, 3.677036e+002
3.697411e+002, 3.685096e+002
3.702232e+002, 3.688974e+002
3.707053e+002, 3.688496e+002
3.711874e+002, 3.684029e+002
3.716695e+002, 3.671822e+002
3.721516e+002, 3.654480e+002
3.726338e+002, 3.640790e+002
3.731159e+002, 3.639856e+002
3.735980e+002, 3.651198e+002
3.740801e+002, 3.659019e+002
3.745622e+002, 3.660972e+002
3.750443e+002, 3.661991e+002
3.755265e+002, 3.664211e+002
3.760086e+002, 3.666541e+002
3.764907e+002, 3.666882e+002
3.769728e+002, 3.663775e+002
3.774549e+002, 3.659162e+002
3.779370e+002, 3.658266e+002
3.784192e+002, 3.663756e+002
3.789013e+002, 3.665307e+002
3.793834e+002, 3.655007e+002
3.798655e+002, 3.642796e+002
3.803476e+002, 3.636928e+002
3.808297e+002, 3.638990e+002
3.813119e+002, 3.643185e+002
3.817940e+002, 3.643564e+002
3.822761e+002, 3.640226e+002
3.827582e+002, 3.637972e+002
3.832403e+002, 3.638430e+002
3.837224e+002, 3.638903e+002
3.842046e+002, 3.636613e+002
3.846867e+002, 3.632564e+002
3.851688e+002, 3.630345e+002
3.856509e+002, 3.633315e+002
3.861330e+002, 3.639215e+002
3.866151e+002, 3.643125e+002
3.870973e+002, 3.644930e+002
3.875794e+002, 3.645029e+002
3.880615e+002, 3.642407e+002
3.885436e+002, 3.638467e+002
3.890257e+002, 3.635190e+002
3.895078e+002, 3.633173e+002
3.899900e+002, 3.631421e+002
3.904721e+002, 3.629478e+002
3.909542e+002, 3.627209e+002
3.914363e+002, 3.622983e+002
3.919184e+002, 3.613877e+002
3.924005e+002, 3.605692e+002
3.928827e+002, 3.608463e+002
3.933648e+002, 3.623282e+002
3.938469e+002, 3.633703e+002
3.943290e+002, 3.629911e+002
3.948111e+002, 3.618847e+002
3.952932e+002, 3.611626e+002
3.957754e+002, 3.610015e+002
3.962575e+002, 3.609605e+002
3.967396e+002, 3.606033e+002
3.972217e+002, 3.599837e+002
3.977038e+002, 3.596730e+002
3.981859e+002, 3.601034e+002
3.986681e+002, 3.604912e+002
3.991501e+002, 3.601516e+002
3.996323e+002, 3.592873e+002
4.001144e+002, 3.586382e+002
4.005965e+002, 3.585603e+002
4.010786e+002, 3.589554e+002
4.015607e+002, 3.596174e+002
4.020428e+002, 3.609439e+002
4.025250e+002, 3.618058e+002
4.030071e+002, 3.617481e+002
4.034892e+002, 3.612410e+002
4.039713e+002, 3.607860e+002
4.044534e+002, 3.605064e+002
4.049355e+002, 3.602731e+002
4.054177e+002, 3.599065e+002
4.058998e+002, 3.593211e+002
4.063819e+002, 3.590841e+002
4.068640e+002, 3.593402e+002
4.073461e+002, 3.597582e+002
4.078282e+002, 3.602667e+002
4.083104e+002, 3.608063e+002
4.087925e+002, 3.613012e+002
4.092746e+002, 3.617168e+002
4.097567e+002, 3.620329e+002
4.102388e+002, 3.621553e+002
4.107209e+002, 3.616948e+002
4.112031e+002, 3.615548e+002
4.116852e+002, 3.622622e+002
4.121673e+002, 3.630707e+002
4.126494e+002, 3.630779e+002
4.131315e+002, 3.621343e+002
4.136136e+002, 3.610657e+002
4.140958e+002, 3.610408e+002
4.145779e+002, 3.623704e+002
4.150600e+002, 3.635018e+002
4.155421e+002, 3.643808e+002
4.160242e+002, 3.650999e+002
4.165063e+002, 3.655209e+002
4.169885e+002, 3.658039e+002
4.174706e+002, 3.663297e+002
4.179527e+002, 3.674613e+002
4.184348e+002, 3.689086e+002
4.189169e+002, 3.696147e+002
4.193990e+002, 3.692122e+002
4.198812e+002, 3.688715e+002
4.203633e+002, 3.689263e+002
4.208454e+002, 3.692141e+002
4.213275e+002, 3.695923e+002
4.218096e+002, 3.700239e+002
4.222917e+002, 3.705875e+002
4.227739e+002, 3.715076e+002
4.232560e+002, 3.727484e+002
4.237381e+002, 3.735794e+002
4.242202e+002, 3.735792e+002
4.247023e+002, 3.735728e+002
4.251844e+002, 3.744364e+002
4.256666e+002, 3.758817e+002
4.261487e+002, 3.768513e+002
4.266308e+002, 3.765016e+002
4.271129e+002, 3.756030e+002
4.275950e+002, 3.752874e+002
4.280771e+002, 3.755807e+002
4.285593e+002, 3.761122e+002
4.290414e+002, 3.769165e+002
4.295235e+002, 3.777114e+002
4.300056e+002, 3.779190e+002
4.304877e+002, 3.773445e+002
4.309698e+002, 3.766290e+002
4.314520e+002, 3.761351e+002
4.319341e+002, 3.757213e+002
4.324162e+002, 3.750664e+002
4.328983e+002, 3.740764e+002
4.333804e+002, 3.729702e+002
4.338625e+002, 3.719925e+002
4.343447e+002, 3.711636e+002
4.348268e+002, 3.703299e+002
4.353089e+002, 3.696670e+002
4.357910e+002, 3.688422e+002
4.362731e+002, 3.674124e+002
4.367552e+002, 3.655851e+002
4.372374e+002, 3.641093e+002
4.377195e+002, 3.634786e+002
4.382016e+002, 3.634090e+002
4.386837e+002, 3.628284e+002
4.391658e+002, 3.606988e+002
4.396479e+002, 3.593931e+002
4.401301e+002, 3.597921e+002
4.406122e+002, 3.606783e+002
4.410943e+002, 3.609321e+002
4.415764e+002, 3.603248e+002
4.420585e+002, 3.592970e+002
4.425406e+002, 3.582951e+002
4.430227e+002, 3.572776e+002
4.435049e+002, 3.565848e+002
4.439870e+002, 3.563560e+002
4.444691e+002, 3.563201e+002
4.449512e+002, 3.565716e+002
4.454333e+002, 3.569306e+002
4.459154e+002, 3.571432e+002
4.463976e+002, 3.570804e+002
4.468797e+002, 3.567839e+002
4.473618e+002, 3.562866e+002
4.478439e+002, 3.554550e+002
4.483260e+002, 3.548209e+002
4.488081e+002, 3.545596e+002
4.492903e+002, 3.544678e+002
4.497724e+002, 3.544775e+002
4.502545e+002, 3.545601e+002
4.507366e+002, 3.546342e+002
4.512187e+002, 3.546546e+002
4.517008e+002, 3.546170e+002
4.521830e+002, 3.544696e+002
4.526651e+002, 3.541316e+002
4.531472e+002, 3.538820e+002
4.536293e+002, 3.538905e+002
4.541114e+002, 3.540903e+002
4.545935e+002, 3.544371e+002
4.550757e+002, 3.549954e+002
4.555578e+002, 3.555505e+002
4.560399e+002, 3.558990e+002
4.565220e+002, 3.560838e+002
4.570041e+002, 3.563354e+002
4.574862e+002, 3.567827e+002
4.579684e+002, 3.571805e+002
4.584505e+002, 3.570933e+002
4.589326e+002, 3.565222e+002
4.594147e+002, 3.561771e+002
4.598968e+002, 3.563671e+002
4.603789e+002, 3.567062e+002
4.608611e+002, 3.568067e+002
4.613432e+002, 3.567094e+002
4.618253e+002, 3.567792e+002
4.623074e+002, 3.572916e+002
4.627895e+002, 3.580931e+002
4.632716e+002, 3.585457e+002
4.637538e+002, 3.585518e+002
4.642359e+002, 3.583684e+002
4.647180e+002, 3.577155e+002
4.652001e+002, 3.570510e+002
4.656822e+002, 3.568827e+002
4.661643e+002, 3.572843e+002
4.666465e+002, 3.579519e+002
4.671286e+002, 3.586024e+002
4.676107e+002, 3.592752e+002
4.680928e+002, 3.595692e+002
4.685749e+002, 3.589044e+002
4.690570e+002, 3.584743e+002
4.695392e+002, 3.589460e+002
4.700213e+002, 3.597593e+002
4.705034e+002, 3.599590e+002
4.709855e+002, 3.590977e+002
4.714676e+002, 3.578856e+002
4.719497e+002, 3.577202e+002
4.724319e+002, 3.589500e+002
4.729140e+002, 3.596906e+002
4.733961e+002, 3.591216e+002
4.738782e+002, 3.584596e+002
4.743603e+002, 3.585269e+002
4.748424e+002, 3.591703e+002
4.753246e+002, 3.596111e+002
4.758067e+002, 3.592126e+002
4.762888e+002, 3.583642e+002
4.767709e+002, 3.579813e+002
4.772530e+002, 3.581597e+002
4.777351e+002, 3.582153e+002
4.782173e+002, 3.578201e+002
4.786994e+002, 3.571028e+002
4.791815e+002, 3.561810e+002
4.796636e+002, 3.548867e+002
4.801457e+002, 3.540242e+002
4.806278e+002, 3.543720e+002
4.811100e+002, 3.553292e+002
4.815920e+002, 3.557531e+002
4.820742e+002, 3.554273e+002
4.825563e+002, 3.549633e+002
4.830384e+002, 3.549919e+002
4.835205e+002, 3.554777e+002
4.840026e+002, 3.552867e+002
4.844847e+002, 3.536008e+002
4.849669e+002, 3.521659e+002
4.854490e+002, 3.518183e+002
4.859311e+002, 3.521736e+002
4.864132e+002, 3.526157e+002
4.868953e+002, 3.529102e+002
4.873774e+002, 3.530119e+002
4.878596e+002, 3.528169e+002
4.883417e+002, 3.521411e+002
4.888238e+002, 3.516694e+002
4.893059e+002, 3.515517e+002
4.897880e+002, 3.514615e+002
4.902701e+002, 3.511736e+002
4.907523e+002, 3.507885e+002
4.912344e+002, 3.505731e+002
4.917165e+002, 3.507098e+002
4.921986e+002, 3.510630e+002
4.926807e+002, 3.512722e+002
4.931628e+002, 3.513290e+002
4.936450e+002, 3.512667e+002
4.941271e+002, 3.509881e+002
4.946092e+002, 3.506680e+002
4.950913e+002, 3.504308e+002
4.955734e+002, 3.502773e+002
4.960555e+002, 3.501074e+002
4.965377e+002, 3.497827e+002
4.970198e+002, 3.493960e+002
4.975019e+002, 3.492556e+002
4.979840e+002, 3.494326e+002
4.984661e+002, 3.495452e+002
4.989482e+002, 3.493774e+002
4.994304e+002, 3.490042e+002
4.999125e+002, 3.485518e+002
5.003946e+002, 3.479263e+002
5.008767e+002, 3.474651e+002
5.013588e+002, 3.473732e+002
5.018409e+002, 3.475458e+002
5.023231e+002, 3.479480e+002
5.028052e+002, 3.485804e+002
5.032873e+002, 3.489025e+002
5.037694e+002, 3.482861e+002
5.042515e+002, 3.466830e+002
5.047336e+002, 3.456410e+002
5.052158e+002, 3.456562e+002
5.056979e+002, 3.456117e+002
5.061800e+002, 3.448594e+002
5.066621e+002, 3.438659e+002
5.071442e+002, 3.434813e+002
5.076263e+002, 3.439824e+002
5.081085e+002, 3.447279e+002
5.085906e+002, 3.446734e+002
5.090727e+002, 3.434995e+002
5.095548e+002, 3.426757e+002
5.100369e+002, 3.425060e+002
5.105190e+002, 3.423831e+002
5.110012e+002, 3.422042e+002
5.114833e+002, 3.418831e+002
5.119654e+002, 3.412616e+002
5.124475e+002, 3.402099e+002
5.129296e+002, 3.389846e+002
5.134117e+002, 3.380734e+002
5.138939e+002, 3.375208e+002
5.143760e+002, 3.369059e+002
5.148581e+002, 3.360091e+002
5.153402e+002, 3.351553e+002
5.158223e+002, 3.346094e+002
5.163044e+002, 3.343490e+002
5.167866e+002, 3.342010e+002
5.172687e+002, 3.342375e+002
5.177508e+002, 3.342642e+002
5.182329e+002, 3.339135e+002
5.187150e+002, 3.332246e+002
5.191971e+002, 3.328015e+002
5.196793e+002, 3.330565e+002
5.201614e+002, 3.335956e+002
5.206435e+002, 3.334418e+002
5.211256e+002, 3.323136e+002
5.216077e+002, 3.314653e+002
5.220898e+002, 3.313925e+002
5.225720e+002, 3.314849e+002
5.230541e+002, 3.311181e+002
5.235362e+002, 3.303440e+002
5.240183e+002, 3.296860e+002
5.245004e+002, 3.295278e+002
5.249825e+002, 3.297921e+002
5.254647e+002, 3.301035e+002
5.259468e+002, 3.308013e+002
5.264289e+002, 3.310281e+002
5.269110e+002, 3.300271e+002
5.273931e+002, 3.290245e+002
5.278752e+002, 3.292997e+002
5.283574e+002, 3.308034e+002
5.288395e+002, 3.322225e+002
5.293216e+002, 3.323223e+002
5.298037e+002, 3.313224e+002
5.302858e+002, 3.305476e+002
5.307679e+002, 3.300659e+002
5.312501e+002, 3.296588e+002
5.317322e+002, 3.291790e+002
5.322143e+002, 3.287538e+002
5.326964e+002, 3.285752e+002
5.331785e+002, 3.287152e+002
5.336606e+002, 3.287928e+002
5.341428e+002, 3.284322e+002
5.346249e+002, 3.278549e+002
5.351070e+002, 3.275686e+002
5.355891e+002, 3.276542e+002
5.360712e+002, 3.277814e+002
5.365533e+002, 3.276074e+002
5.370355e+002, 3.272618e+002
5.375176e+002, 3.274952e+002
5.379997e+002, 3.291012e+002
5.384818e+002, 3.302649e+002
5.389639e+002, 3.300831e+002
5.394460e+002, 3.293606e+002
5.399282e+002, 3.292086e+002
5.404103e+002, 3.298006e+002
5.408924e+002, 3.303578e+002
5.413745e+002, 3.299934e+002
5.418566e+002, 3.286663e+002
5.423387e+002, 3.278415e+002
5.428209e+002, 3.277733e+002
5.433029e+002, 3.279496e+002
5.437850e+002, 3.285969e+002
5.442672e+002, 3.292778e+002
5.447493e+002, 3.294079e+002
5.452314e+002, 3.288598e+002
5.457135e+002, 3.282164e+002
5.461956e+002, 3.281737e+002
5.466777e+002, 3.286732e+002
5.471599e+002, 3.290420e+002
5.476420e+002, 3.292762e+002
5.481241e+002, 3.293131e+002
5.486062e+002, 3.288218e+002
5.490883e+002, 3.281684e+002
5.495704e+002, 3.280140e+002
5.500526e+002, 3.287106e+002
5.505347e+002, 3.293997e+002
5.510168e+002, 3.294341e+002
5.514989e+002, 3.290937e+002
5.519810e+002, 3.289836e+002
5.524631e+002, 3.292337e+002
5.529453e+002, 3.295607e+002
5.534274e+002, 3.297023e+002
5.539095e+002, 3.296568e+002
5.543916e+002, 3.296401e+002
5.548737e+002, 3.294724e+002
5.553558e+002, 3.295390e+002
5.558380e+002, 3.303528e+002
5.563201e+002, 3.312752e+002
5.568022e+002, 3.313641e+002
5.572843e+002, 3.304563e+002
5.577664e+002, 3.293720e+002
5.582485e+002, 3.291101e+002
5.587307e+002, 3.297113e+002
5.592128e+002, 3.299869e+002
5.596949e+002, 3.296298e+002
5.601770e+002, 3.293834e+002
5.606591e+002, 3.296286e+002
5.611412e+002, 3.300523e+002
5.616234e+002, 3.302383e+002
5.621055e+002, 3.300612e+002
5.625876e+002, 3.298793e+002
5.630697e+002, 3.300204e+002
5.635518e+002, 3.304099e+002
5.640339e+002, 3.308361e+002
5.645161e+002, 3.313033e+002
5.649982e+002, 3.316689e+002
5.654803e+002, 3.318360e+002
5.659624e+002, 3.318062e+002
5.664445e+002, 3.316480e+002
5.669266e+002, 3.312007e+002
5.674088e+002, 3.308537e+002
5.678909e+002, 3.308053e+002
5.683730e+002, 3.308996e+002
5.688551e+002, 3.309484e+002
5.693372e+002, 3.309160e+002
5.698193e+002, 3.308659e+002
5.703015e+002, 3.308636e+002
5.707836e+002, 3.309020e+002
5.712657e+002, 3.308530e+002
5.717478e+002, 3.306377e+002
5.722299e+002, 3.304352e+002
5.727120e+002, 3.301452e+002
5.731942e+002, 3.299568e+002
5.736763e+002, 3.301718e+002
5.741584e+002, 3.307705e+002
5.746405e+002, 3.312570e+002
5.751226e+002, 3.311104e+002
5.756047e+002, 3.304808e+002
5.760869e+002, 3.300124e+002
5.765690e+002, 3.297533e+002
5.770511e+002, 3.294354e+002
5.775332e+002, 3.287542e+002
5.780153e+002, 3.280555e+002
5.784974e+002, 3.279535e+002
5.789796e+002, 3.286218e+002
5.794617e+002, 3.291447e+002
5.799438e+002, 3.291733e+002
5.804259e+002, 3.288806e+002
5.809080e+002, 3.283523e+002
5.813901e+002, 3.276577e+002
5.818723e+002, 3.270145e+002
5.823544e+002, 3.265341e+002
5.828365e+002, 3.262607e+002
5.833186e+002, 3.263588e+002
5.838007e+002, 3.274317e+002
5.842828e+002, 3.279488e+002
5.847650e+002, 3.275098e+002
5.852471e+002, 3.268631e+002
5.857292e+002, 3.264240e+002
5.862113e+002, 3.262235e+002
5.866934e+002, 3.261550e+002
5.871755e+002, 3.261662e+002
5.876577e+002, 3.262414e+002
5.881398e+002, 3.263763e+002
5.886219e+002, 3.265946e+002
5.891040e+002, 3.266992e+002
5.895861e+002, 3.265859e+002
5.900682e+002, 3.264016e+002
5.905504e+002, 3.263276e+002
5.910325e+002, 3.263314e+002
5.915146e+002, 3.261942e+002
5.919967e+002, 3.258285e+002
5.924788e+002, 3.253131e+002
5.929609e+002, 3.245342e+002
5.934431e+002, 3.236519e+002
5.939252e+002, 3.232027e+002
5.944073e+002, 3.234091e+002
5.948894e+002, 3.238282e+002
5.953715e+002, 3.238171e+002
5.958536e+002, 3.232212e+002
5.963358e+002, 3.228984e+002
5.968179e+002, 3.229765e+002
5.973000e+002, 3.231432e+002
5.977821e+002, 3.233077e+002
5.982642e+002, 3.234852e+002
5.987463e+002, 3.238114e+002
5.992285e+002, 3.243145e+002
5.997106e+002, 3.246182e+002
6.001927e+002, 3.240351e+002
6.006748e+002, 3.226150e+002
6.011569e+002, 3.219149e+002
6.016390e+002, 3.223234e+002
6.021212e+002, 3.227650e+002
6.026033e+002, 3.225031e+002
6.030854e+002, 3.219205e+002
6.035675e+002, 3.216214e+002
6.040496e+002, 3.217818e+002
6.045317e+002, 3.219069e+002
6.050139e+002, 3.217646e+002
6.054960e+002, 3.214255e+002
6.059781e+002, 3.209445e+002
6.064602e+002, 3.203497e+002
6.069423e+002, 3.197332e+002
6.074244e+002, 3.191251e+002
6.079066e+002, 3.185934e+002
6.083887e+002, 3.184552e+002
6.088708e+002, 3.193214e+002
6.093529e+002, 3.197062e+002
6.098350e+002, 3.191830e+002
6.103171e+002, 3.184822e+002
6.107993e+002, 3.180916e+002
6.112814e+002, 3.180050e+002
6.117635e+002, 3.180103e+002
6.122456e+002, 3.180513e+002
6.127277e+002, 3.179723e+002
6.132098e+002, 3.172698e+002
6.136920e+002, 3.158476e+002
6.141741e+002, 3.149078e+002
6.146562e+002, 3.148618e+002
6.151383e+002, 3.152336e+002
6.156204e+002, 3.157028e+002
6.161025e+002, 3.162266e+002
6.165847e+002, 3.164859e+002
6.170668e+002, 3.164973e+002
6.175489e+002, 3.161460e+002
6.180310e+002, 3.149202e+002
6.185131e+002, 3.133565e+002
6.189952e+002, 3.126529e+002
6.194774e+002, 3.131406e+002
6.199595e+002, 3.139653e+002
6.204416e+002, 3.141149e+002
6.209237e+002, 3.135387e+002
6.214058e+002, 3.130757e+002
6.218879e+002, 3.129492e+002
6.223701e+002, 3.126593e+002
6.228522e+002, 3.118997e+002
6.233343e+002, 3.110476e+002
6.238164e+002, 3.105279e+002
6.242985e+002, 3.104084e+002
6.247806e+002, 3.103698e+002
6.252628e+002, 3.100352e+002
6.257448e+002, 3.096017e+002
6.262269e+002, 3.097950e+002
6.267090e+002, 3.107169e+002
6.271912e+002, 3.111277e+002
6.276733e+002, 3.101655e+002
6.281554e+002, 3.086502e+002
6.286375e+002, 3.082660e+002
6.291196e+002, 3.092767e+002
6.296017e+002, 3.099099e+002
6.300839e+002, 3.096180e+002
6.305660e+002, 3.091248e+002
6.310481e+002, 3.088466e+002
6.315302e+002, 3.087846e+002
6.320123e+002, 3.088539e+002
6.324944e+002, 3.090156e+002
6.329766e+002, 3.092245e+002
6.334587e+002, 3.094643e+002
6.339408e+002, 3.098156e+002
6.344229e+002, 3.097560e+002
6.349050e+002, 3.088899e+002
6.353871e+002, 3.081208e+002
6.358693e+002, 3.079177e+002
6.363514e+002, 3.080283e+002
6.368335e+002, 3.080650e+002
6.373156e+002, 3.079199e+002
6.377977e+002, 3.077771e+002
6.382798e+002, 3.078988e+002
6.387620e+002, 3.080752e+002
6.392441e+002, 3.077750e+002
6.397262e+002, 3.069664e+002
6.402083e+002, 3.063544e+002
6.406904e+002, 3.064621e+002
6.411725e+002, 3.070304e+002
6.416547e+002, 3.071858e+002
6.421368e+002, 3.062603e+002
6.426189e+002, 3.059141e+002
6.431010e+002, 3.068446e+002
6.435831e+002, 3.077304e+002
6.440652e+002, 3.076022e+002
6.445474e+002, 3.067226e+002
6.450295e+002, 3.059067e+002
6.455116e+002, 3.055736e+002
6.459937e+002, 3.055471e+002
6.464758e+002, 3.056179e+002
6.469579e+002, 3.057842e+002
6.474401e+002, 3.058589e+002
6.479222e+002, 3.058771e+002
6.484043e+002, 3.056606e+002
6.488864e+002, 3.047635e+002
6.493685e+002, 3.035186e+002
6.498506e+002, 3.030335e+002
6.503328e+002, 3.040755e+002
6.508149e+002, 3.048299e+002
6.512970e+002, 3.042482e+002
6.517791e+002, 3.031825e+002
6.522612e+002, 3.026118e+002
6.527433e+002, 3.026508e+002
6.532255e+002, 3.029655e+002
6.537076e+002, 3.033419e+002
6.541897e+002, 3.037287e+002
6.546718e+002, 3.039523e+002
6.551539e+002, 3.040495e+002
6.556360e+002, 3.038859e+002
6.561182e+002, 3.031475e+002
6.566003e+002, 3.023859e+002
6.570824e+002, 3.017536e+002
6.575645e+002, 3.013377e+002
6.580466e+002, 3.013780e+002
6.585287e+002, 3.021935e+002
6.590109e+002, 3.031238e+002
6.594930e+002, 3.037141e+002
6.599751e+002, 3.039142e+002
6.604572e+002, 3.034165e+002
6.609393e+002, 3.021325e+002
6.614214e+002, 3.008486e+002
6.619036e+002, 3.002441e+002
6.623857e+002, 3.002708e+002
6.628678e+002, 3.004047e+002
6.633499e+002, 3.009634e+002
6.638320e+002, 3.012095e+002
6.643141e+002, 3.009673e+002
6.647963e+002, 3.004805e+002
6.652784e+002, 2.997672e+002
6.657605e+002, 2.989692e+002
6.662426e+002, 2.984560e+002
6.667247e+002, 2.985112e+002
6.672068e+002, 2.988849e+002
6.676890e+002, 2.991901e+002
6.681711e+002, 2.994243e+002
6.686532e+002, 2.994981e+002
6.691353e+002, 2.994215e+002
6.696174e+002, 2.990953e+002
6.700995e+002, 2.982396e+002
6.705817e+002, 2.969527e+002
6.710638e+002, 2.962273e+002
6.715459e+002, 2.965233e+002
6.720280e+002, 2.968306e+002
6.725101e+002, 2.968533e+002
6.729922e+002, 2.967130e+002
6.734744e+002, 2.965471e+002
6.739565e+002, 2.963679e+002
6.744386e+002, 2.960766e+002
6.749207e+002, 2.955518e+002
6.754028e+002, 2.949335e+002
6.758849e+002, 2.947282e+002
6.763671e+002, 2.950509e+002
6.768492e+002, 2.952771e+002
6.773313e+002, 2.952640e+002
6.778134e+002, 2.951416e+002
6.782955e+002, 2.949274e+002
6.787776e+002, 2.946822e+002
6.792598e+002, 2.946496e+002
6.797419e+002, 2.952940e+002
6.802240e+002, 2.956405e+002
6.807061e+002, 2.946343e+002
6.811882e+002, 2.931452e+002
6.816703e+002, 2.926602e+002
6.821525e+002, 2.933575e+002
6.826346e+002, 2.942993e+002
6.831167e+002, 2.947750e+002
6.835988e+002, 2.947912e+002
6.840809e+002, 2.943184e+002
6.845630e+002, 2.929871e+002
6.850452e+002, 2.919789e+002
6.855273e+002, 2.915603e+002
6.860094e+002, 2.914194e+002
6.864915e+002, 2.914946e+002
6.869736e+002, 2.917075e+002
6.874557e+002, 2.918793e+002
6.879379e+002, 2.919524e+002
6.884200e+002, 2.919427e+002
6.889021e+002, 2.918021e+002
6.893842e+002, 2.915973e+002
6.898663e+002, 2.915041e+002
6.903484e+002, 2.915506e+002
6.908306e+002, 2.916306e+002
6.913127e+002, 2.916968e+002
6.917948e+002, 2.917015e+002
6.922769e+002, 2.913868e+002
6.927590e+002, 2.903753e+002
6.932411e+002, 2.896529e+002
6.937233e+002, 2.893155e+002
6.942054e+002, 2.892210e+002
6.946875e+002, 2.895279e+002
6.951696e+002, 2.899946e+002
6.956517e+002, 2.900118e+002
6.961339e+002, 2.891784e+002
6.966160e+002, 2.882360e+002
6.970981e+002, 2.880484e+002
6.975802e+002, 2.884433e+002
6.980623e+002, 2.888810e+002
6.985444e+002, 2.892951e+002
6.990266e+002, 2.894927e+002
6.995087e+002, 2.892742e+002
6.999908e+002, 2.887701e+002
7.004729e+002, 2.884877e+002
7.009550e+002, 2.887301e+002
7.014371e+002, 2.887241e+002
7.019193e+002, 2.881944e+002
7.024014e+002, 2.876571e+002
7.028835e+002, 2.874549e+002
7.033656e+002, 2.874911e+002
7.038477e+002, 2.875031e+002
7.043298e+002, 2.873773e+002
7.048120e+002, 2.872175e+002
7.052941e+002, 2.871354e+002
7.057762e+002, 2.871298e+002
7.062583e+002, 2.872449e+002
7.067404e+002, 2.875248e+002
7.072225e+002, 2.876231e+002
7.077046e+002, 2.872144e+002
7.081867e+002, 2.865819e+002
7.086688e+002, 2.865147e+002
7.091509e+002, 2.874411e+002
7.096331e+002, 2.878063e+002
7.101152e+002, 2.869618e+002
7.105973e+002, 2.860586e+002
7.110794e+002, 2.857410e+002
7.115615e+002, 2.858620e+002
7.120436e+002, 2.861473e+002
7.125258e+002, 2.864874e+002
7.130079e+002, 2.867134e+002
7.134900e+002, 2.865334e+002
7.139721e+002, 2.860428e+002
7.144542e+002, 2.857817e+002
7.149363e+002, 2.857905e+002
7.154185e+002, 2.858839e+002
7.159006e+002, 2.860146e+002
7.163827e+002, 2.861495e+002
7.168648e+002, 2.862533e+002
7.173469e+002, 2.863505e+002
7.178290e+002, 2.862906e+002
7.183112e+002, 2.859405e+002
7.187933e+002, 2.855600e+002
7.192754e+002, 2.852404e+002
7.197575e+002, 2.849880e+002
7.202396e+002, 2.848383e+002
7.207217e+002, 2.847805e+002
7.212039e+002, 2.846725e+002
7.216860e+002, 2.843157e+002
7.221681e+002, 2.838095e+002
7.226502e+002, 2.835506e+002
7.231323e+002, 2.835511e+002
7.236144e+002, 2.837223e+002
7.240966e+002, 2.841715e+002
7.245787e+002, 2.845763e+002
7.250608e+002, 2.844080e+002
7.255429e+002, 2.836867e+002
7.260250e+002, 2.834763e+002
7.265071e+002, 2.843350e+002
7.269893e+002, 2.851139e+002
7.274714e+002, 2.854108e+002
7.279535e+002, 2.854064e+002
7.284356e+002, 2.852757e+002
7.289177e+002, 2.850627e+002
7.293998e+002, 2.847403e+002
7.298820e+002, 2.842423e+002
7.303641e+002, 2.837045e+002
7.308462e+002, 2.834398e+002
7.313283e+002, 2.834535e+002
7.318104e+002, 2.836334e+002
7.322925e+002, 2.840714e+002
7.327747e+002, 2.843954e+002
7.332568e+002, 2.841827e+002
7.337389e+002, 2.835732e+002
7.342210e+002, 2.833292e+002
7.347031e+002, 2.837116e+002
7.351852e+002, 2.840493e+002
7.356674e+002, 2.842810e+002
7.361495e+002, 2.843549e+002
7.366316e+002, 2.841788e+002
7.371137e+002, 2.838086e+002
7.375958e+002, 2.833756e+002
7.380779e+002, 2.829339e+002
7.385601e+002, 2.825295e+002
7.390422e+002, 2.821896e+002
7.395243e+002, 2.819290e+002
7.400064e+002, 2.819727e+002
7.404885e+002, 2.824491e+002
7.409706e+002, 2.826950e+002
7.414528e+002, 2.821627e+002
7.419349e+002, 2.812948e+002
7.424170e+002, 2.811670e+002
7.428991e+002, 2.821158e+002
7.433812e+002, 2.825838e+002
7.438633e+002, 2.819053e+002
7.443455e+002, 2.812837e+002
7.448276e+002, 2.816346e+002
7.453097e+002, 2.823546e+002
7.457918e+002, 2.823301e+002
7.462739e+002, 2.813179e+002
7.467560e+002, 2.803068e+002
7.472382e+002, 2.804067e+002
7.477203e+002, 2.812284e+002
7.482024e+002, 2.814907e+002
7.486845e+002, 2.811759e+002
7.491666e+002, 2.811591e+002
7.496487e+002, 2.818737e+002
7.501309e+002, 2.826360e+002
7.506130e+002, 2.825461e+002
7.510951e+002, 2.815302e+002
7.515772e+002, 2.810506e+002
7.520593e+002, 2.815435e+002
7.525414e+002, 2.819530e+002
7.530236e+002, 2.820112e+002
7.535057e+002, 2.819091e+002
7.539878e+002, 2.817822e+002
7.544699e+002, 2.816646e+002
7.549520e+002, 2.815721e+002
7.554341e+002, 2.815119e+002
7.559163e+002, 2.814780e+002
7.563984e+002, 2.815233e+002
7.568805e+002, 2.815980e+002
7.573626e+002, 2.814763e+002
7.578447e+002, 2.811177e+002
7.583268e+002, 2.806094e+002
7.588090e+002, 2.799383e+002
7.592911e+002, 2.792395e+002
7.597732e+002, 2.789597e+002
7.602553e+002, 2.792585e+002
7.607374e+002, 2.797136e+002
7.612195e+002, 2.807541e+002
7.617017e+002, 2.814981e+002
7.621838e+002, 2.809766e+002
7.626659e+002, 2.800859e+002
7.631480e+002, 2.806197e+002
7.636301e+002, 2.831538e+002
7.641122e+002, 2.850302e+002
7.645944e+002, 2.835407e+002
7.650765e+002, 2.805370e+002
7.655586e+002, 2.787951e+002
7.660407e+002, 2.783056e+002
7.665228e+002, 2.784038e+002
7.670049e+002, 2.788628e+002
7.674871e+002, 2.794045e+002
7.679692e+002, 2.796681e+002
7.684513e+002, 2.796448e+002
7.689334e+002, 2.795088e+002
7.694155e+002, 2.790522e+002
7.698976e+002, 2.788175e+002
7.703798e+002, 2.791931e+002
7.708619e+002, 2.796083e+002
7.713440e+002, 2.794694e+002
7.718261e+002, 2.789072e+002
7.723082e+002, 2.787097e+002
7.727903e+002, 2.795449e+002
7.732725e+002, 2.802951e+002
7.737546e+002, 2.800030e+002
7.742367e+002, 2.792007e+002
7.747188e+002, 2.786720e+002
7.752009e+002, 2.785270e+002
7.756830e+002, 2.785520e+002
7.761652e+002, 2.786129e+002
7.766473e+002, 2.787242e+002
7.771294e+002, 2.789738e+002
7.776115e+002, 2.794261e+002
7.780936e+002, 2.795621e+002
7.785757e+002, 2.791556e+002
7.790579e+002, 2.787924e+002
7.795400e+002, 2.789172e+002
7.800221e+002, 2.792289e+002
7.805042e+002, 2.791717e+002
7.809863e+002, 2.786165e+002
7.814684e+002, 2.782599e+002
7.819506e+002, 2.783900e+002
7.824327e+002, 2.786484e+002
7.829148e+002, 2.788622e+002
7.833969e+002, 2.790236e+002
7.838790e+002, 2.791942e+002
7.843611e+002, 2.793639e+002
7.848433e+002, 2.793401e+002
7.853254e+002, 2.788086e+002
7.858075e+002, 2.780320e+002
7.862896e+002, 2.779660e+002
7.867717e+002, 2.786266e+002
7.872538e+002, 2.788136e+002
7.877360e+002, 2.781171e+002
7.882181e+002, 2.772014e+002
7.887002e+002, 2.766029e+002
7.891823e+002, 2.763168e+002
7.896644e+002, 2.763237e+002
7.901465e+002, 2.769229e+002
7.906286e+002, 2.773717e+002
7.911107e+002, 2.776758e+002
7.915928e+002, 2.777589e+002
7.920750e+002, 2.773885e+002
7.925571e+002, 2.767973e+002
7.930392e+002, 2.764618e+002
7.935213e+002, 2.765693e+002
7.940034e+002, 2.768185e+002
7.944855e+002, 2.771114e+002
7.949677e+002, 2.772977e+002
7.954498e+002, 2.769612e+002
7.959319e+002, 2.761728e+002
7.964140e+002, 2.754922e+002
7.968961e+002, 2.751334e+002
7.973782e+002, 2.751392e+002
7.978604e+002, 2.756518e+002
7.983425e+002, 2.767119e+002
7.988246e+002, 2.772940e+002
7.993067e+002, 2.771589e+002
7.997888e+002, 2.769774e+002
8.002709e+002, 2.768940e+002
8.007531e+002, 2.768356e+002
8.012352e+002, 2.766624e+002
8.017173e+002, 2.764431e+002
8.021994e+002, 2.765193e+002
8.026815e+002, 2.772145e+002
8.031636e+002, 2.778807e+002
8.036458e+002, 2.781359e+002
8.041279e+002, 2.782051e+002
8.046100e+002, 2.784061e+002
8.050921e+002, 2.786927e+002
8.055742e+002, 2.786985e+002
8.060563e+002, 2.782012e+002
8.065385e+002, 2.776732e+002
8.070206e+002, 2.780680e+002
8.075027e+002, 2.792817e+002
8.079848e+002, 2.797426e+002
8.084669e+002, 2.792385e+002
8.089490e+002, 2.787745e+002
8.094312e+002, 2.788683e+002
8.099133e+002, 2.791283e+002
8.103954e+002, 2.789273e+002
8.108775e+002, 2.781564e+002
8.113596e+002, 2.776425e+002
8.118417e+002, 2.774747e+002
8.123239e+002, 2.774477e+002
8.128060e+002, 2.775504e+002
8.132881e+002, 2.777389e+002
8.137702e+002, 2.780874e+002
8.142523e+002, 2.785045e+002
8.147344e+002, 2.786501e+002
8.152166e+002, 2.782505e+002
8.156987e+002, 2.777388e+002
8.161808e+002, 2.775811e+002
8.166629e+002, 2.776497e+002
8.171450e+002, 2.777880e+002
8.176271e+002, 2.779182e+002
8.181093e+002, 2.775797e+002
8.185914e+002, 2.764481e+002
8.190735e+002, 2.750552e+002
8.195556e+002, 2.744974e+002
8.200377e+002, 2.749492e+002
8.205198e+002, 2.750892e+002
8.210020e+002, 2.746626e+002
8.214841e+002, 2.744052e+002
8.219662e+002, 2.747921e+002
8.224483e+002, 2.753402e+002
8.229304e+002, 2.755386e+002
8.234125e+002, 2.753884e+002
8.238947e+002, 2.750974e+002
8.243768e+002, 2.745157e+002
8.248589e+002, 2.740351e+002
8.253410e+002, 2.739308e+002
8.258231e+002, 2.739505e+002
8.263052e+002, 2.738226e+002
8.267874e+002, 2.735360e+002
8.272695e+002, 2.731850e+002
8.277516e+002, 2.727896e+002
8.282337e+002, 2.725058e+002
8.287158e+002, 2.727013e+002
8.291979e+002, 2.732127e+002
8.296801e+002, 2.732452e+002
8.301622e+002, 2.727258e+002
8.306443e+002, 2.724607e+002
8.311264e+002, 2.729531e+002
8.316085e+002, 2.735891e+002
8.320906e+002, 2.732853e+002
8.325728e+002, 2.718463e+002
8.330549e+002, 2.708899e+002
8.335370e+002, 2.705930e+002
8.340191e+002, 2.705448e+002
8.345012e+002, 2.707500e+002
8.349833e+002, 2.710727e+002
8.354655e+002, 2.715228e+002
8.359476e+002, 2.720188e+002
8.364297e+002, 2.722218e+002
8.369118e+002, 2.718266e+002
8.373939e+002, 2.714470e+002
8.378760e+002, 2.713722e+002
8.383582e+002, 2.715245e+002
8.388403e+002, 2.720456e+002
8.393224e+002, 2.727164e+002
8.398045e+002, 2.727941e+002
8.402866e+002, 2.719229e+002
8.407687e+002, 2.709469e+002
8.412509e+002, 2.711148e+002
8.417330e+002, 2.722318e+002
8.422151e+002, 2.733155e+002
8.426972e+002, 2.743778e+002
8.431793e+002, 2.747788e+002
8.436614e+002, 2.741075e+002
8.441436e+002, 2.731757e+002
8.446257e+002, 2.729150e+002
8.451078e+002, 2.733085e+002
8.455899e+002, 2.737204e+002
8.460720e+002, 2.739830e+002
8.465541e+002, 2.745093e+002
8.470363e+002, 2.756917e+002
8.475184e+002, 2.768012e+002
8.480005e+002, 2.773351e+002
8.484826e+002, 2.774538e+002
8.489647e+002, 2.775313e+002
8.494468e+002, 2.776137e+002
8.499290e+002, 2.778772e+002
8.504111e+002, 2.786083e+002
8.508932e+002, 2.794171e+002
8.513753e+002, 2.798214e+002
8.518574e+002, 2.799953e+002
8.523395e+002, 2.804873e+002
8.528217e+002, 2.814133e+002
8.533038e+002, 2.822015e+002
8.537859e+002, 2.821593e+002
8.542680e+002, 2.816556e+002
8.547501e+002, 2.819747e+002
8.552322e+002, 2.831168e+002
8.557144e+002, 2.838996e+002
8.561965e+002, 2.840462e+002
8.566786e+002, 2.839607e+002
8.571607e+002, 2.838712e+002
8.576428e+002, 2.838286e+002
8.581249e+002, 2.840342e+002
8.586071e+002, 2.848686e+002
8.590892e+002, 2.851112e+002
8.595713e+002, 2.840423e+002
8.600534e+002, 2.832346e+002
8.605355e+002, 2.837881e+002
8.610176e+002, 2.845896e+002
8.614998e+002, 2.840637e+002
8.619819e+002, 2.821184e+002
8.624640e+002, 2.805294e+002
8.629461e+002, 2.804266e+002
8.634282e+002, 2.804491e+002
8.639103e+002, 2.795832e+002
8.643925e+002, 2.783104e+002
8.648746e+002, 2.772013e+002
8.653567e+002, 2.763857e+002
8.658388e+002, 2.760128e+002
8.663209e+002, 2.762311e+002
8.668030e+002, 2.764403e+002
8.672852e+002, 2.755314e+002
8.677673e+002, 2.737528e+002
8.682494e+002, 2.723605e+002
8.687315e+002, 2.714300e+002
8.692136e+002, 2.709805e+002
8.696957e+002, 2.711360e+002
8.701779e+002, 2.713671e+002
8.706600e+002, 2.709428e+002
8.711421e+002, 2.698563e+002
8.716242e+002, 2.688701e+002
8.721063e+002, 2.678085e+002
8.725884e+002, 2.671566e+002
8.730705e+002, 2.673981e+002
8.735526e+002, 2.677033e+002
8.740347e+002, 2.675191e+002
8.745168e+002, 2.670236e+002
8.749990e+002, 2.666827e+002
8.754811e+002, 2.666236e+002
8.759632e+002, 2.665625e+002
8.764453e+002, 2.665904e+002
8.769274e+002, 2.663999e+002
8.774095e+002, 2.654716e+002
8.778917e+002, 2.642746e+002
8.783738e+002, 2.636429e+002
8.788559e+002, 2.637294e+002
8.793380e+002, 2.639890e+002
8.798201e+002, 2.640839e+002
8.803022e+002, 2.640071e+002
8.807844e+002, 2.636465e+002
8.812665e+002, 2.630993e+002
8.817486e+002, 2.627351e+002
8.822307e+002, 2.626073e+002
8.827128e+002, 2.625363e+002
8.831949e+002, 2.623991e+002
8.836771e+002, 2.622990e+002
8.841592e+002, 2.625452e+002
8.846413e+002, 2.632600e+002
8.851234e+002, 2.633300e+002
8.856055e+002, 2.624386e+002
8.860876e+002, 2.616889e+002
8.865698e+002, 2.616048e+002
8.870519e+002, 2.616738e+002
8.875340e+002, 2.611779e+002
8.880161e+002, 2.601857e+002
8.884982e+002, 2.597501e+002
8.889803e+002, 2.605378e+002
8.894625e+002, 2.609830e+002
8.899446e+002, 2.605738e+002
8.904267e+002, 2.599706e+002
8.909088e+002, 2.595124e+002
8.913909e+002, 2.592417e+002
8.918730e+002, 2.591591e+002
8.923552e+002, 2.592655e+002
8.928373e+002, 2.595277e+002
8.933194e+002, 2.601550e+002
8.938015e+002, 2.607375e+002
8.942836e+002, 2.608442e+002
8.947657e+002, 2.605642e+002
8.952479e+002, 2.599601e+002
8.957300e+002, 2.591400e+002
8.962121e+002, 2.585603e+002
8.966942e+002, 2.586068e+002
8.971763e+002, 2.589474e+002
8.976584e+002, 2.589234e+002
8.981406e+002, 2.585629e+002
8.986227e+002, 2.579071e+002
8.991048e+002, 2.568558e+002
8.995869e+002, 2.570755e+002
9.000690e+002, 2.597974e+002
9.005511e+002, 2.629182e+002
9.010333e+002, 2.631698e+002
9.015154e+002, 2.603922e+002
9.019975e+002, 2.583103e+002
9.024796e+002, 2.570464e+002
9.029617e+002, 2.562443e+002
9.034438e+002, 2.560965e+002
9.039260e+002, 2.561479e+002
9.044081e+002, 2.560660e+002
9.048902e+002, 2.559461e+002
9.053723e+002, 2.560871e+002
9.058544e+002, 2.567108e+002
9.063365e+002, 2.570495e+002
9.068187e+002, 2.566024e+002
9.073008e+002, 2.561493e+002
9.077829e+002, 2.561924e+002
9.082650e+002, 2.565002e+002
9.087471e+002, 2.567708e+002
9.092292e+002, 2.569283e+002
9.097114e+002, 2.569843e+002
9.101935e+002, 2.569536e+002
9.106756e+002, 2.568073e+002
9.111577e+002, 2.564378e+002
9.116398e+002, 2.559622e+002
9.121219e+002, 2.555785e+002
9.126041e+002, 2.553119e+002
9.130862e+002, 2.551121e+002
9.135683e+002, 2.549561e+002
9.140504e+002, 2.549461e+002
9.145325e+002, 2.553082e+002
9.150146e+002, 2.559455e+002
9.154968e+002, 2.562584e+002
9.159789e+002, 2.562362e+002
9.164610e+002, 2.563027e+002
9.169431e+002, 2.566135e+002
9.174252e+002, 2.568036e+002
9.179073e+002, 2.565312e+002
9.183895e+002, 2.559348e+002
9.188716e+002, 2.554928e+002
9.193537e+002, 2.550959e+002
9.198358e+002, 2.551499e+002
9.203179e+002, 2.561263e+002
9.208000e+002, 2.568704e+002
9.212822e+002, 2.568846e+002
9.217643e+002, 2.564597e+002
9.222464e+002, 2.557213e+002
9.227285e+002, 2.547074e+002
9.232106e+002, 2.541115e+002
9.236927e+002, 2.543319e+002
9.241749e+002, 2.545679e+002
9.246570e+002, 2.547039e+002
9.251391e+002, 2.546774e+002
9.256212e+002, 2.541778e+002
9.261033e+002, 2.535499e+002
9.265854e+002, 2.536194e+002
9.270676e+002, 2.546535e+002
9.275497e+002, 2.554825e+002
9.280318e+002, 2.550918e+002
9.285139e+002, 2.543445e+002
9.289960e+002, 2.539481e+002
9.294781e+002, 2.539138e+002
9.299603e+002, 2.543438e+002
9.304424e+002, 2.551463e+002
9.309245e+002, 2.558889e+002
9.314066e+002, 2.563178e+002
9.318887e+002, 2.564216e+002
9.323708e+002, 2.559576e+002
9.328530e+002, 2.551382e+002
9.333351e+002, 2.549926e+002
9.338172e+002, 2.555213e+002
9.342993e+002, 2.557033e+002
9.347814e+002, 2.551212e+002
9.352635e+002, 2.544787e+002
9.357457e+002, 2.545766e+002
9.362278e+002, 2.552641e+002
9.367099e+002, 2.556646e+002
9.371920e+002, 2.557386e+002
9.376741e+002, 2.556520e+002
9.381563e+002, 2.552744e+002
9.386384e+002, 2.550915e+002
9.391205e+002, 2.555752e+002
9.396026e+002, 2.562464e+002
9.400847e+002, 2.561536e+002
9.405668e+002, 2.550722e+002
9.410490e+002, 2.545607e+002
9.415311e+002, 2.552338e+002
9.420132e+002, 2.556153e+002
9.424953e+002, 2.549802e+002
9.429774e+002, 2.543683e+002
9.434595e+002, 2.547732e+002
9.439417e+002, 2.557892e+002
9.444238e+002, 2.562924e+002
9.449059e+002, 2.559909e+002
9.453880e+002, 2.554682e+002
9.458701e+002, 2.544032e+002
9.463522e+002, 2.537410e+002
9.468344e+002, 2.545439e+002
9.473165e+002, 2.558994e+002
9.477986e+002, 2.565570e+002
9.482807e+002, 2.564074e+002
9.487628e+002, 2.561371e+002
9.492449e+002, 2.561056e+002
9.497271e+002, 2.560935e+002
9.502092e+002, 2.557168e+002
9.506913e+002, 2.553227e+002
9.511734e+002, 2.556273e+002
9.516555e+002, 2.564178e+002
9.521376e+002, 2.568639e+002
9.526198e+002, 2.566964e+002
9.531019e+002, 2.563011e+002
9.535840e+002, 2.559415e+002
9.540661e+002, 2.557493e+002
9.545482e+002, 2.562462e+002
9.550303e+002, 2.572765e+002
9.555124e+002, 2.577674e+002
9.559945e+002, 2.575699e+002
9.564766e+002, 2.571189e+002
9.569587e+002, 2.565837e+002
9.574409e+002, 2.562841e+002
9.579230e+002, 2.568383e+002
9.584051e+002, 2.582259e+002
9.588872e+002, 2.591209e+002
9.593693e+002, 2.595338e+002
9.598514e+002, 2.593169e+002
9.603336e+002, 2.580997e+002
9.608157e+002, 2.570428e+002
9.612978e+002, 2.571586e+002
9.617799e+002, 2.579960e+002
9.622620e+002, 2.582554e+002
9.627441e+002, 2.576302e+002
9.632263e+002, 2.573735e+002
9.637084e+002, 2.575480e+002
9.641905e+002, 2.580164e+002
9.646726e+002, 2.590811e+002
9.651547e+002, 2.601399e+002
9.656368e+002, 2.606942e+002
9.661190e+002, 2.607884e+002
9.666011e+002, 2.606531e+002
9.670832e+002, 2.599750e+002
9.675653e+002, 2.597661e+002
9.680474e+002, 2.606867e+002
9.685295e+002, 2.616524e+002
9.690117e+002, 2.618993e+002
9.694938e+002, 2.618947e+002
9.699759e+002, 2.623371e+002
9.704580e+002, 2.632615e+002
9.709401e+002, 2.641253e+002
9.714222e+002, 2.647106e+002
9.719044e+002, 2.651394e+002
9.723865e+002, 2.653267e+002
9.728686e+002, 2.655235e+002
9.733507e+002, 2.660891e+002
9.738328e+002, 2.668689e+002
9.743149e+002, 2.673779e+002
9.747971e+002, 2.675180e+002
9.752792e+002, 2.678876e+002
9.757613e+002, 2.691826e+002
9.762434e+002, 2.707147e+002
9.767255e+002, 2.714440e+002
9.772076e+002, 2.717442e+002
9.776898e+002, 2.725052e+002
9.781719e+002, 2.737230e+002
9.786540e+002, 2.746498e+002
9.791361e+002, 2.749379e+002
9.796182e+002, 2.753105e+002
9.801003e+002, 2.768055e+002
9.805825e+002, 2.790635e+002
9.810646e+002, 2.808564e+002
9.815467e+002, 2.822291e+002
9.820288e+002, 2.835207e+002
9.825109e+002, 2.847940e+002
9.829930e+002, 2.861844e+002
9.834752e+002, 2.877709e+002
9.839573e+002, 2.895489e+002
9.844394e+002, 2.916611e+002
9.849215e+002, 2.941131e+002
9.854036e+002, 2.955402e+002
9.858857e+002, 2.956977e+002
9.863679e+002, 2.963275e+002
9.868500e+002, 2.980130e+002
9.873321e+002, 2.998701e+002
9.878142e+002, 3.011712e+002
9.882963e+002, 3.021009e+002
9.887784e+002, 3.032191e+002
9.892606e+002, 3.044883e+002
9.897427e+002, 3.061383e+002
9.902248e+002, 3.087832e+002
9.907069e+002, 3.105880e+002
9.911890e+002, 3.105084e+002
9.916711e+002, 3.098800e+002
9.921533e+002, 3.097667e+002
9.926354e+002, 3.101857e+002
9.931175e+002, 3.112911e+002
9.935996e+002, 3.140739e+002
9.940817e+002, 3.157534e+002
9.945638e+002, 3.164086e+002
9.950460e+002, 3.158223e+002
9.955281e+002, 3.129674e+002
9.960102e+002, 3.094852e+002
9.964923e+002, 3.073125e+002
9.969744e+002, 3.062935e+002
9.974565e+002, 3.046150e+002
9.979387e+002, 3.012535e+002
9.984208e+002, 2.983649e+002
9.989029e+002, 2.970924e+002
9.993850e+002, 2.958341e+002
9.998671e+002, 2.935274e+002
1.000349e+003, 2.906465e+002
1.000831e+003, 2.878097e+002
1.001313e+003, 2.851626e+002
1.001796e+003, 2.829106e+002
1.002278e+003, 2.813099e+002
1.002760e+003, 2.798763e+002
1.003242e+003, 2.783033e+002
1.003724e+003, 2.768194e+002
1.004206e+003, 2.758445e+002
1.004688e+003, 2.750460e+002
1.005170e+003, 2.736073e+002
1.005653e+003, 2.714157e+002
1.006135e+003, 2.694366e+002
1.006617e+003, 2.682790e+002
1.007099e+003, 2.675705e+002
1.007581e+003, 2.671146e+002
1.008063e+003, 2.667944e+002
1.008545e+003, 2.665005e+002
1.009027e+003, 2.661843e+002
1.009509e+003, 2.656901e+002
1.009992e+003, 2.649980e+002
1.010474e+003, 2.645259e+002
1.010956e+003, 2.649599e+002
1.011438e+003, 2.654787e+002
1.011920e+003, 2.644926e+002
1.012402e+003, 2.627222e+002
1.012884e+003, 2.618977e+002
1.013366e+003, 2.620671e+002
1.013849e+003, 2.624100e+002
1.014331e+003, 2.625543e+002
1.014813e+003, 2.623697e+002
1.015295e+003, 2.615089e+002
1.015777e+003, 2.603704e+002
1.016259e+003, 2.600672e+002
1.016741e+003, 2.604126e+002
1.017223e+003, 2.605531e+002
1.017705e+003, 2.603678e+002
1.018188e+003, 2.600435e+002
1.018670e+003, 2.596636e+002
1.019152e+003, 2.594165e+002
1.019634e+003, 2.596821e+002
1.020116e+003, 2.602705e+002
1.020598e+003, 2.601565e+002
1.021080e+003, 2.593715e+002
1.021562e+003, 2.587295e+002
1.022044e+003, 2.583673e+002
1.022527e+003, 2.582272e+002
1.023009e+003, 2.582805e+002
1.023491e+003, 2.585278e+002
1.023973e+003, 2.590638e+002
1.024455e+003, 2.598404e+002
1.024937e+003, 2.599889e+002
1.025419e+003, 2.594410e+002
1.025901e+003, 2.587905e+002
1.026384e+003, 2.580708e+002
1.026866e+003, 2.576067e+002
1.027348e+003, 2.576415e+002
1.027830e+003, 2.579692e+002
1.028312e+003, 2.582278e+002
1.028794e+003, 2.584203e+002
1.029276e+003, 2.585231e+002
1.029758e+003, 2.585276e+002
1.030240e+003, 2.584668e+002
1.030723e+003, 2.583101e+002
1.031205e+003, 2.581871e+002
1.031687e+003, 2.582345e+002
1.032169e+003, 2.583054e+002
1.032651e+003, 2.580310e+002
1.033133e+003, 2.572977e+002
1.033615e+003, 2.571965e+002
1.034097e+003, 2.580533e+002
1.034579e+003, 2.588464e+002
1.035062e+003, 2.595260e+002
1.035544e+003, 2.598748e+002
1.036026e+003, 2.596284e+002
1.036508e+003, 2.590144e+002
1.036990e+003, 2.584429e+002
1.037472e+003, 2.578270e+002
1.037954e+003, 2.577482e+002
1.038436e+003, 2.586703e+002
1.038919e+003, 2.593849e+002
1.039401e+003, 2.596352e+002
1.039883e+003, 2.596758e+002
1.040365e+003, 2.596963e+002
1.040847e+003, 2.596140e+002
1.041329e+003, 2.591434e+002
1.041811e+003, 2.580954e+002
1.042293e+003, 2.576666e+002
1.042776e+003, 2.583346e+002
1.043258e+003, 2.589854e+002
1.043740e+003, 2.595418e+002
1.044222e+003, 2.598969e+002
1.044704e+003, 2.599583e+002
1.045186e+003, 2.597779e+002
1.045668e+003, 2.594008e+002
1.046150e+003, 2.587832e+002
1.046632e+003, 2.583171e+002
1.047115e+003, 2.580941e+002
1.047597e+003, 2.579567e+002
1.048079e+003, 2.578411e+002
1.048561e+003, 2.578239e+002
1.049043e+003, 2.580706e+002
1.049525e+003, 2.584109e+002
1.050007e+003, 2.585323e+002
1.050489e+003, 2.583887e+002
1.050971e+003, 2.581525e+002
1.051454e+003, 2.575801e+002
1.051936e+003, 2.572965e+002
1.052418e+003, 2.576161e+002
1.052900e+003, 2.581642e+002
1.053382e+003, 2.589225e+002
1.053864e+003, 2.596123e+002
1.054346e+003, 2.596775e+002
1.054828e+003, 2.590236e+002
1.055311e+003, 2.585445e+002
1.055793e+003, 2.586381e+002
1.056275e+003, 2.587243e+002
1.056757e+003, 2.587636e+002
1.057239e+003, 2.585716e+002
1.057721e+003, 2.576670e+002
1.058203e+003, 2.565828e+002
1.058685e+003, 2.563885e+002
1.059167e+003, 2.572176e+002
1.059650e+003, 2.576474e+002
1.060132e+003, 2.566213e+002
1.060614e+003, 2.559193e+002
1.061096e+003, 2.567310e+002
1.061578e+003, 2.576148e+002
1.062060e+003, 2.573011e+002
1.062542e+003, 2.563647e+002
1.063024e+003, 2.557959e+002
1.063506e+003, 2.557614e+002
1.063989e+003, 2.560223e+002
1.064471e+003, 2.570343e+002
1.064953e+003, 2.575529e+002
1.065435e+003, 2.566608e+002
1.065917e+003, 2.554819e+002
1.066399e+003, 2.546402e+002
1.066881e+003, 2.542125e+002
1.067363e+003, 2.543637e+002
1.067846e+003, 2.550208e+002
1.068328e+003, 2.555224e+002
1.068810e+003, 2.556144e+002
1.069292e+003, 2.555250e+002
1.069774e+003, 2.552544e+002
1.070256e+003, 2.549470e+002
1.070738e+003, 2.547162e+002
1.071220e+003, 2.545166e+002
1.071703e+003, 2.541416e+002
1.072185e+003, 2.536711e+002
1.072667e+003, 2.536925e+002
1.073149e+003, 2.547794e+002
1.073631e+003, 2.555575e+002
1.074113e+003, 2.548903e+002
1.074595e+003, 2.542034e+002
1.075077e+003, 2.549005e+002
1.075559e+003, 2.559778e+002
1.076042e+003, 2.558417e+002
1.076524e+003, 2.546372e+002
1.077006e+003, 2.540093e+002
1.077488e+003, 2.547899e+002
1.077970e+003, 2.553153e+002
1.078452e+003, 2.541991e+002
1.078934e+003, 2.532400e+002
1.079416e+003, 2.539252e+002
1.079898e+003, 2.552719e+002
1.080380e+003, 2.563246e+002
1.080863e+003, 2.568557e+002
1.081345e+003, 2.565784e+002
1.081827e+003, 2.551725e+002
1.082309e+003, 2.541365e+002
1.082791e+003, 2.542464e+002
1.083273e+003, 2.548031e+002
1.083755e+003, 2.559259e+002
1.084237e+003, 2.568495e+002
1.084720e+003, 2.564344e+002
1.085202e+003, 2.551808e+002
1.085684e+003, 2.546167e+002
1.086166e+003, 2.552049e+002
1.086648e+003, 2.558184e+002
1.087130e+003, 2.558013e+002
1.087612e+003, 2.559113e+002
1.088094e+003, 2.568447e+002
1.088577e+003, 2.578271e+002
1.089059e+003, 2.580753e+002
1.089541e+003, 2.578066e+002
1.090023e+003, 2.575327e+002
1.090505e+003, 2.573593e+002
1.090987e+003, 2.573892e+002
1.091469e+003, 2.578641e+002
1.091951e+003, 2.582845e+002
1.092433e+003, 2.585034e+002
1.092916e+003, 2.585265e+002
1.093398e+003, 2.582036e+002
1.093880e+003, 2.577616e+002
1.094362e+003, 2.575505e+002
1.094844e+003, 2.576181e+002
1.095326e+003, 2.578049e+002
1.095808e+003, 2.580438e+002
1.096290e+003, 2.584221e+002
1.096772e+003, 2.591727e+002
1.097255e+003, 2.598515e+002
1.097737e+003, 2.602155e+002
1.098219e+003, 2.603148e+002
1.098701e+003, 2.600006e+002
1.099183e+003, 2.594285e+002
1.099665e+003, 2.595749e+002
1.100147e+003, 2.613670e+002
1.100629e+003, 2.624080e+002
1.101112e+003, 2.612240e+002
1.101594e+003, 2.601609e+002
1.102076e+003, 2.606977e+002
1.102558e+003, 2.616869e+002
1.103040e+003, 2.617253e+002
1.103522e+003, 2.610769e+002
1.104004e+003, 2.610835e+002
1.104486e+003, 2.621539e+002
1.104969e+003, 2.631906e+002
1.105451e+003, 2.643698e+002
1.105933e+003, 2.650015e+002
1.106415e+003, 2.643283e+002
1.106897e+003, 2.634923e+002
1.107379e+003, 2.634370e+002
1.107861e+003, 2.639316e+002
1.108343e+003, 2.643373e+002
1.108825e+003, 2.645875e+002
1.109307e+003, 2.648633e+002
1.109790e+003, 2.652132e+002
1.110272e+003, 2.655431e+002
1.110754e+003, 2.660176e+002
1.111236e+003, 2.662723e+002
1.111718e+003, 2.659692e+002
1.112200e+003, 2.653647e+002
1.112682e+003, 2.647782e+002
1.113164e+003, 2.641964e+002
1.113647e+003, 2.640840e+002
1.114129e+003, 2.649398e+002
1.114611e+003, 2.654392e+002
1.115093e+003, 2.653777e+002
1.115575e+003, 2.651049e+002
1.116057e+003, 2.646699e+002
1.116539e+003, 2.641882e+002
1.117021e+003, 2.638051e+002
1.117504e+003, 2.635005e+002
1.117986e+003, 2.631133e+002
1.118468e+003, 2.625456e+002
1.118950e+003, 2.621338e+002
1.119432e+003, 2.619324e+002
1.119914e+003, 2.618100e+002
1.120396e+003, 2.619097e+002
1.120878e+003, 2.617351e+002
1.121360e+003, 2.606344e+002
1.121843e+003, 2.590922e+002
1.122325e+003, 2.586108e+002
1.122807e+003, 2.594218e+002
1.123289e+003, 2.599100e+002
1.123771e+003, 2.600748e+002
1.124253e+003, 2.598924e+002
1.124735e+003, 2.592675e+002
1.125217e+003, 2.585651e+002
1.125699e+003, 2.580060e+002
1.126182e+003, 2.575225e+002
1.126664e+003, 2.569488e+002
1.127146e+003, 2.563176e+002
1.127628e+003, 2.562261e+002
1.128110e+003, 2.566859e+002
1.128592e+003, 2.577834e+002
1.129074e+003, 2.597073e+002
1.129556e+003, 2.607814e+002
1.130039e+003, 2.601508e+002
1.130521e+003, 2.588826e+002
1.131003e+003, 2.581611e+002
1.131485e+003, 2.578290e+002
1.131967e+003, 2.572647e+002
1.132449e+003, 2.565053e+002
1.132931e+003, 2.563447e+002
1.133413e+003, 2.568036e+002
1.133896e+003, 2.569146e+002
1.134378e+003, 2.563828e+002
1.134860e+003, 2.559487e+002
1.135342e+003, 2.562056e+002
1.135824e+003, 2.568019e+002
1.136306e+003, 2.571714e+002
1.136788e+003, 2.573267e+002
1.137270e+003, 2.571905e+002
1.137752e+003, 2.568685e+002
1.138234e+003, 2.569521e+002
1.138717e+003, 2.574741e+002
1.139199e+003, 2.578019e+002
1.139681e+003, 2.576117e+002
1.140163e+003, 2.573170e+002
1.140645e+003, 2.573321e+002
1.141127e+003, 2.575979e+002
1.141609e+003, 2.581398e+002
1.142091e+003, 2.587912e+002
1.142574e+003, 2.592679e+002
1.143056e+003, 2.594898e+002
1.143538e+003, 2.592047e+002
1.144020e+003, 2.584253e+002
1.144502e+003, 2.578847e+002
1.144984e+003, 2.581733e+002
1.145466e+003, 2.587367e+002
1.145948e+003, 2.590517e+002
1.146431e+003, 2.592577e+002
1.146913e+003, 2.595486e+002
1.147395e+003, 2.598568e+002
1.147877e+003, 2.600332e+002
1.148359e+003, 2.600712e+002
1.148841e+003, 2.600375e+002
1.149323e+003, 2.599279e+002
1.149805e+003, 2.599529e+002
1.150287e+003, 2.604528e+002
1.150770e+003, 2.608984e+002
1.151252e+003, 2.608910e+002
1.151734e+003, 2.606416e+002
1.152216e+003, 2.601449e+002
1.152698e+003, 2.596784e+002
1.153180e+003, 2.598657e+002
1.153662e+003, 2.608329e+002
1.154144e+003, 2.617006e+002
1.154626e+003, 2.622169e+002
1.155109e+003, 2.625344e+002
1.155591e+003, 2.625871e+002
1.156073e+003, 2.625870e+002
1.156555e+003, 2.628327e+002
1.157037e+003, 2.629953e+002
1.157519e+003, 2.623200e+002
1.158001e+003, 2.610260e+002
1.158483e+003, 2.608473e+002
1.158966e+003, 2.629328e+002
1.159448e+003, 2.640107e+002
1.159930e+003, 2.629177e+002
1.160412e+003, 2.621154e+002
1.160894e+003, 2.623526e+002
1.161376e+003, 2.629918e+002
1.161858e+003, 2.637379e+002
1.162340e+003, 2.644633e+002
1.162822e+003, 2.649338e+002
1.163305e+003, 2.651804e+002
1.163787e+003, 2.647404e+002
1.164269e+003, 2.630776e+002
1.164751e+003, 2.623978e+002
1.165233e+003, 2.633539e+002
1.165715e+003, 2.642523e+002
1.166197e+003, 2.643059e+002
1.166679e+003, 2.638950e+002
1.167161e+003, 2.633676e+002
1.167644e+003, 2.628582e+002
1.168126e+003, 2.629880e+002
1.168608e+003, 2.637805e+002
1.169090e+003, 2.645410e+002
1.169572e+003, 2.652461e+002
1.170054e+003, 2.655802e+002
1.170536e+003, 2.654515e+002
1.171018e+003, 2.650797e+002
1.171500e+003, 2.645808e+002
1.171983e+003, 2.641703e+002
1.172465e+003, 2.642247e+002
1.172947e+003, 2.646365e+002
1.173429e+003, 2.652043e+002
1.173911e+003, 2.658041e+002
1.174393e+003, 2.659291e+002
1.174875e+003, 2.655777e+002
1.175357e+003, 2.650322e+002
1.175840e+003, 2.644223e+002
1.176322e+003, 2.639211e+002
1.176804e+003, 2.636162e+002
1.177286e+003, 2.636071e+002
1.177768e+003, 2.642259e+002
1.178250e+003, 2.650660e+002
1.178732e+003, 2.656256e+002
1.179214e+003, 2.658970e+002
1.179697e+003, 2.658377e+002
1.180179e+003, 2.655568e+002
1.180661e+003, 2.654658e+002
1.181143e+003, 2.657668e+002
1.181625e+003, 2.659981e+002
1.182107e+003, 2.657912e+002
1.182589e+003, 2.655262e+002
1.183071e+003, 2.654657e+002
1.183553e+003, 2.654522e+002
1.184036e+003, 2.651752e+002
1.184518e+003, 2.648922e+002
1.185000e+003, 2.652445e+002
1.185482e+003, 2.662643e+002
1.185964e+003, 2.668523e+002
1.186446e+003, 2.664448e+002
1.186928e+003, 2.661070e+002
1.187410e+003, 2.659787e+002
1.187892e+003, 2.660031e+002
1.188375e+003, 2.662038e+002
1.188857e+003, 2.665122e+002
1.189339e+003, 2.668802e+002
1.189821e+003, 2.673048e+002
1.190303e+003, 2.678213e+002
1.190785e+003, 2.685393e+002
1.191267e+003, 2.686427e+002
1.191749e+003, 2.677613e+002
1.192232e+003, 2.673461e+002
1.192714e+003, 2.677870e+002
1.193196e+003, 2.682253e+002
1.193678e+003, 2.682023e+002
1.194160e+003, 2.680621e+002
1.194642e+003, 2.682415e+002
1.195124e+003, 2.686320e+002
1.195606e+003, 2.687826e+002
1.196089e+003, 2.687044e+002
1.196571e+003, 2.686945e+002
1.197053e+003, 2.687741e+002
1.197535e+003, 2.691672e+002
1.198017e+003, 2.699036e+002
1.198499e+003, 2.704799e+002
1.198981e+003, 2.705735e+002
1.199463e+003, 2.705027e+002
1.199945e+003, 2.706134e+002
1.200427e+003, 2.709132e+002
1.200910e+003, 2.716055e+002
1.201392e+003, 2.724237e+002
1.201874e+003, 2.727362e+002
1.202356e+003, 2.726231e+002
1.202838e+003, 2.724590e+002
1.203320e+003, 2.723835e+002
1.203802e+003, 2.724983e+002
1.204284e+003, 2.729163e+002
1.204767e+003, 2.733763e+002
1.205249e+003, 2.737708e+002
1.205731e+003, 2.740271e+002
1.206213e+003, 2.738907e+002
1.206695e+003, 2.737233e+002
1.207177e+003, 2.740756e+002
1.207659e+003, 2.747488e+002
1.208141e+003, 2.751358e+002
1.208624e+003, 2.751101e+002
1.209106e+003, 2.749305e+002
1.209588e+003, 2.742738e+002
1.210070e+003, 2.740470e+002
1.210552e+003, 2.749883e+002
1.211034e+003, 2.757460e+002
1.211516e+003, 2.753776e+002
1.211998e+003, 2.747293e+002
1.212480e+003, 2.746091e+002
1.212963e+003, 2.749188e+002
1.213445e+003, 2.753070e+002
1.213927e+003, 2.757880e+002
1.214409e+003, 2.762824e+002
1.214891e+003, 2.768455e+002
1.215373e+003, 2.771279e+002
1.215855e+003, 2.769615e+002
1.216337e+003, 2.770893e+002
1.216819e+003, 2.779953e+002
1.217302e+003, 2.788643e+002
1.217784e+003, 2.785939e+002
1.218266e+003, 2.776733e+002
1.218748e+003, 2.776444e+002
1.219230e+003, 2.783448e+002
1.219712e+003, 2.790358e+002
1.220194e+003, 2.796524e+002
1.220676e+003, 2.801122e+002
1.221159e+003, 2.804027e+002
1.221641e+003, 2.805206e+002
1.222123e+003, 2.804544e+002
1.222605e+003, 2.804786e+002
1.223087e+003, 2.811261e+002
1.223569e+003, 2.817463e+002
1.224051e+003, 2.811977e+002
1.224533e+003, 2.804663e+002
1.225016e+003, 2.810269e+002
1.225498e+003, 2.823665e+002
1.225980e+003, 2.833721e+002
1.226462e+003, 2.838282e+002
1.226944e+003, 2.839451e+002
1.227426e+003, 2.835187e+002
1.227908e+003, 2.835589e+002
1.228390e+003, 2.848713e+002
1.228872e+003, 2.861089e+002
1.229354e+003, 2.868895e+002
1.229837e+003, 2.871961e+002
1.230319e+003, 2.866826e+002
1.230801e+003, 2.858703e+002
1.231283e+003, 2.857253e+002
1.231765e+003, 2.862234e+002
1.232247e+003, 2.864564e+002
1.232729e+003, 2.862314e+002
1.233211e+003, 2.863660e+002
1.233694e+003, 2.869872e+002
1.234176e+003, 2.876750e+002
1.234658e+003, 2.883419e+002
1.235140e+003, 2.888791e+002
1.235622e+003, 2.892000e+002
1.236104e+003, 2.893934e+002
1.236586e+003, 2.896523e+002
1.237068e+003, 2.898916e+002
1.237551e+003, 2.896751e+002
1.238033e+003, 2.891152e+002
1.238515e+003, 2.885376e+002
1.238997e+003, 2.881022e+002
1.239479e+003, 2.884420e+002
1.239961e+003, 2.896208e+002
1.240443e+003, 2.907344e+002
1.240925e+003, 2.912197e+002
1.241407e+003, 2.914054e+002
1.241890e+003, 2.914889e+002
1.242372e+003, 2.915531e+002
1.242854e+003, 2.916190e+002
1.243336e+003, 2.917649e+002
1.243818e+003, 2.921539e+002
1.244300e+003, 2.926720e+002
1.244782e+003, 2.930739e+002
1.245264e+003, 2.933241e+002
1.245746e+003, 2.935348e+002
1.246229e+003, 2.937674e+002
1.246711e+003, 2.939012e+002
1.247193e+003, 2.937288e+002
1.247675e+003, 2.937066e+002
1.248157e+003, 2.939605e+002
1.248639e+003, 2.944584e+002
1.249121e+003, 2.953359e+002
1.249603e+003, 2.962851e+002
1.250085e+003, 2.967032e+002
1.250568e+003, 2.966320e+002
1.251050e+003, 2.969063e+002
1.251532e+003, 2.975907e+002
1.252014e+003, 2.977902e+002
1.252496e+003, 2.974100e+002
1.252978e+003, 2.974091e+002
1.253460e+003, 2.980724e+002
1.253942e+003, 2.986517e+002
1.254425e+003, 2.986046e+002
1.254907e+003, 2.984868e+002
1.255389e+003, 2.992727e+002
1.255871e+003, 3.003624e+002
1.256353e+003, 3.004394e+002
1.256835e+003, 3.000800e+002
1.257317e+003, 3.005834e+002
1.257799e+003, 3.015404e+002
1.258281e+003, 3.014008e+002
1.258764e+003, 3.001613e+002
1.259246e+003, 2.998477e+002
1.259728e+003, 3.016275e+002
1.260210e+003, 3.032399e+002
1.260692e+003, 3.036920e+002
1.261174e+003, 3.036557e+002
1.261656e+003, 3.029749e+002
1.262138e+003, 3.024114e+002
1.262620e+003, 3.026652e+002
1.263103e+003, 3.033377e+002
1.263585e+003, 3.037969e+002
1.264067e+003, 3.040554e+002
1.264549e+003, 3.042491e+002
1.265031e+003, 3.043643e+002
1.265513e+003, 3.044112e+002
1.265995e+003, 3.043038e+002
1.266477e+003, 3.045827e+002
1.266960e+003, 3.054529e+002
1.267442e+003, 3.060936e+002
1.267924e+003, 3.060269e+002
1.268406e+003, 3.057165e+002
1.268888e+003, 3.057098e+002
1.269370e+003, 3.058706e+002
1.269852e+003, 3.057556e+002
1.270334e+003, 3.056081e+002
1.270817e+003, 3.062545e+002
1.271299e+003, 3.073578e+002
1.271781e+003, 3.078909e+002
1.272263e+003, 3.078137e+002
1.272745e+003, 3.077301e+002
1.273227e+003, 3.078709e+002
1.273709e+003, 3.081478e+002
1.274191e+003, 3.086342e+002
1.274673e+003, 3.090726e+002
1.275156e+003, 3.093938e+002
1.275638e+003, 3.095596e+002
1.276120e+003, 3.093867e+002
1.276602e+003, 3.091686e+002
1.277084e+003, 3.091607e+002
1.277566e+003, 3.094017e+002
1.278048e+003, 3.100289e+002
1.278530e+003, 3.111457e+002
1.279012e+003, 3.116423e+002
1.279495e+003, 3.112383e+002
1.279977e+003, 3.112584e+002
1.280459e+003, 3.120080e+002
1.280941e+003, 3.122333e+002
1.281423e+003, 3.113815e+002
1.281905e+003, 3.108247e+002
1.282387e+003, 3.117041e+002
1.282869e+003, 3.132069e+002
1.283352e+003, 3.140103e+002
1.283834e+003, 3.143307e+002
1.284316e+003, 3.146041e+002
1.284798e+003, 3.148459e+002
##END=



