##NAMES=Grossular
##RRUFFID=R060444
##IDEAL CHEMISTRY=Ca_3_Al_2_(SiO_4_)_3_
##LOCALITY=Pakistan (?)
##OWNER=RRUFF
##SOURCE=Gemological Institute of America
##DESCRIPTION=Tan colored crystals coating a surface
##STATUS=The identification of this mineral has been confirmed by X-ray diffraction and chemical analysis
##URL=rruff.info/R060444
##MEASURED CHEMISTRY=(Ca_2.98_Mn_0.02_)_Σ=3_(Al_1.84_Fe^3+^_0.13_Ti_0.03_)_Σ=2_((Si_0.99_Al_0.01_)_Σ=1_O_4_)_3_
92.37695, 59.32124
92.85907, 59.14094
93.34119, 59.27324
93.82330, 59.25515
94.30542, 58.81902
94.78754, 58.08195
95.26965, 57.13058
95.75177, 55.71980
96.23389, 53.41554
96.71600, 50.94529
97.19812, 48.98137
97.68024, 47.63002
98.16235, 46.67953
98.64447, 45.88175
99.12659, 45.24197
99.60870, 44.62383
100.0908, 44.17265
100.5729, 43.80847
101.0551, 43.43495
101.5372, 42.99067
102.0193, 42.49499
102.5014, 42.08627
102.9835, 41.67727
103.4656, 41.44247
103.9478, 41.57586
104.4299, 41.90608
104.9120, 42.11677
105.3941, 41.94350
105.8762, 41.33588
106.3583, 40.82561
106.8405, 40.38844
107.3226, 40.02770
107.8047, 39.77777
108.2868, 39.63163
108.7689, 39.50847
109.2510, 39.33949
109.7332, 39.12560
110.2153, 38.79965
110.6974, 38.20454
111.1795, 37.52722
111.6616, 37.04667
112.1437, 36.84196
112.6259, 36.81894
113.1080, 36.93273
113.5901, 37.17060
114.0722, 37.33081
114.5543, 37.19926
115.0364, 36.79605
115.5185, 36.56995
116.0007, 36.95036
116.4828, 37.27978
116.9649, 37.04500
117.4470, 36.18774
117.9291, 35.19553
118.4112, 34.73377
118.8934, 35.02731
119.3755, 35.33900
119.8576, 35.60258
120.3397, 35.83017
120.8218, 36.04971
121.3039, 36.27068
121.7861, 36.45452
122.2682, 36.48993
122.7503, 36.21209
123.2324, 35.94468
123.7145, 35.64633
124.1966, 35.38103
124.6788, 35.25637
125.1609, 35.34832
125.6430, 35.62214
126.1251, 35.77233
126.6072, 35.74302
127.0893, 35.68068
127.5715, 35.72306
128.0536, 35.82362
128.5357, 35.72256
129.0178, 35.09221
129.4999, 34.06866
129.9821, 33.48828
130.4642, 33.79187
130.9463, 34.33231
131.4284, 34.35743
131.9105, 33.72793
132.3926, 33.11808
132.8748, 33.21883
133.3569, 33.71098
133.8390, 34.02548
134.3211, 33.64249
134.8032, 32.85125
135.2853, 32.73689
135.7674, 33.91845
136.2496, 34.95247
136.7317, 35.00594
137.2138, 34.33207
137.6959, 33.59090
138.1780, 33.32423
138.6601, 33.58751
139.1423, 33.74001
139.6244, 33.63189
140.1065, 33.53379
140.5886, 33.54973
141.0707, 33.68166
141.5528, 33.87386
142.0350, 34.08099
142.5171, 34.38235
142.9992, 34.46526
143.4813, 34.15483
143.9634, 33.78855
144.4455, 33.61993
144.9277, 33.70115
145.4098, 33.86156
145.8919, 33.82119
146.3740, 33.44820
146.8561, 33.09829
147.3382, 32.67095
147.8204, 32.30744
148.3025, 32.18969
148.7846, 32.39140
149.2667, 32.83009
149.7488, 33.44468
150.2309, 34.39222
150.7131, 35.04124
151.1952, 35.00633
151.6773, 34.45507
152.1594, 33.87469
152.6415, 33.30835
153.1236, 32.96448
153.6058, 33.14985
154.0879, 34.04202
154.5700, 34.91599
155.0521, 35.05934
155.5342, 34.43224
156.0163, 33.97031
156.4985, 34.19316
156.9806, 34.66047
157.4627, 35.05739
157.9448, 35.31605
158.4269, 35.46625
158.9090, 35.54364
159.3912, 35.53181
159.8733, 35.48085
160.3554, 35.28688
160.8375, 35.11595
161.3196, 35.15110
161.8017, 35.48471
162.2839, 35.99616
162.7660, 36.32882
163.2481, 36.43195
163.7302, 36.39198
164.2123, 36.00970
164.6944, 35.55866
165.1766, 35.39890
165.6587, 35.74911
166.1408, 36.51558
166.6229, 37.08935
167.1050, 37.45617
167.5871, 37.65084
168.0693, 37.49120
168.5514, 37.16185
169.0335, 37.00124
169.5156, 37.23429
169.9977, 37.84953
170.4798, 38.54763
170.9620, 39.36176
171.4441, 40.20679
171.9262, 40.92673
172.4083, 41.59127
172.8904, 42.52079
173.3725, 43.98153
173.8547, 45.96566
174.3368, 47.98820
174.8189, 49.88388
175.3010, 51.94129
175.7831, 54.53719
176.2652, 57.70858
176.7474, 60.81878
177.2295, 63.58065
177.7116, 65.90827
178.1937, 67.45213
178.6758, 68.27402
179.1579, 68.22520
179.6401, 66.91430
180.1222, 64.06236
180.6043, 60.74630
181.0864, 57.38671
181.5685, 54.07042
182.0506, 50.99334
182.5328, 48.23075
183.0149, 45.77515
183.4970, 43.58083
183.9791, 41.65715
184.4612, 40.04497
184.9433, 38.75037
185.4255, 37.72191
185.9076, 36.85722
186.3897, 36.06854
186.8718, 35.37629
187.3539, 35.02670
187.8360, 35.37074
188.3182, 35.71584
188.8003, 35.95432
189.2824, 36.04090
189.7645, 35.90784
190.2466, 35.45949
190.7287, 34.67248
191.2109, 34.10078
191.6930, 33.87584
192.1751, 33.73254
192.6572, 33.62901
193.1393, 33.54319
193.6214, 33.43889
194.1036, 33.26546
194.5857, 32.98349
195.0678, 32.97416
195.5499, 33.62795
196.0320, 34.14289
196.5141, 33.96254
196.9963, 33.20562
197.4784, 32.49620
197.9605, 32.44699
198.4426, 33.18243
198.9247, 33.66350
199.4068, 33.80182
199.8890, 33.78227
200.3711, 33.67395
200.8532, 33.49813
201.3353, 33.32970
201.8174, 33.24113
202.2995, 33.23941
202.7817, 33.22879
203.2638, 33.18374
203.7459, 33.14133
204.2280, 33.17603
204.7101, 33.30286
205.1922, 33.35986
205.6744, 33.08080
206.1565, 32.56154
206.6386, 32.28621
207.1207, 32.51733
207.6028, 32.98127
208.0849, 33.28835
208.5671, 33.37211
209.0492, 33.45641
209.5313, 33.82164
210.0134, 34.33248
210.4955, 34.68203
210.9776, 34.65234
211.4598, 34.39819
211.9419, 34.24765
212.4240, 34.19832
212.9061, 34.27900
213.3882, 34.57869
213.8703, 35.00235
214.3525, 35.37178
214.8346, 35.52071
215.3167, 35.54536
215.7988, 35.82508
216.2809, 36.56364
216.7630, 37.24789
217.2451, 37.60226
217.7273, 37.76383
218.2094, 37.97731
218.6915, 38.41134
219.1736, 39.02073
219.6557, 39.52136
220.1378, 39.77293
220.6200, 40.08461
221.1021, 40.60845
221.5842, 41.24459
222.0663, 41.82223
222.5484, 42.20792
223.0305, 42.43276
223.5127, 42.79595
223.9948, 43.28820
224.4769, 43.95249
224.9590, 44.82446
225.4411, 45.87524
225.9232, 47.08463
226.4054, 48.47289
226.8875, 50.00045
227.3696, 51.29197
227.8517, 52.20293
228.3338, 53.00941
228.8159, 53.55014
229.2981, 54.03901
229.7802, 54.82050
230.2623, 56.13057
230.7444, 57.93522
231.2265, 59.82501
231.7086, 61.97324
232.1908, 64.01119
232.6729, 65.81141
233.1550, 67.43879
233.6371, 69.00014
234.1192, 70.53561
234.6013, 72.08118
235.0835, 73.92990
235.5656, 76.46265
236.0477, 78.83589
236.5298, 80.83883
237.0119, 82.49204
237.4940, 83.86885
237.9762, 84.99072
238.4583, 85.87713
238.9404, 86.62254
239.4225, 87.40775
239.9046, 87.89556
240.3867, 87.42411
240.8689, 86.51186
241.3510, 86.44576
241.8331, 87.89616
242.3152, 90.62247
242.7973, 93.86540
243.2794, 97.91633
243.7616, 101.9162
244.2437, 105.8454
244.7258, 109.4770
245.2079, 112.2751
245.6900, 114.3288
246.1721, 114.9160
246.6543, 112.8286
247.1364, 107.7864
247.6185, 101.3692
248.1006, 93.60534
248.5827, 84.94374
249.0648, 76.80397
249.5470, 69.42110
250.0291, 63.10225
250.5112, 58.12946
250.9933, 54.53153
251.4754, 51.69080
251.9576, 49.28846
252.4397, 47.35343
252.9218, 46.00215
253.4039, 45.51097
253.8860, 45.35134
254.3681, 44.89536
254.8503, 44.14326
255.3324, 43.45528
255.8145, 43.03594
256.2966, 42.86517
256.7787, 42.85583
257.2608, 43.05355
257.7430, 43.34473
258.2251, 43.64898
258.7072, 43.96041
259.1893, 44.23931
259.6714, 44.38865
260.1535, 44.45516
260.6357, 44.71883
261.1178, 45.30329
261.5999, 45.96935
262.0820, 46.61910
262.5641, 47.22985
263.0462, 47.73494
263.5284, 47.93468
264.0105, 47.92883
264.4926, 48.34393
264.9747, 49.37125
265.4568, 50.57841
265.9389, 51.81714
266.4211, 53.05317
266.9032, 54.19405
267.3853, 55.06330
267.8674, 55.79919
268.3495, 57.06949
268.8316, 59.25667
269.3138, 61.42595
269.7959, 63.12260
270.2780, 64.59847
270.7601, 66.19726
271.2422, 68.04948
271.7243, 70.20116
272.2065, 72.80231
272.6886, 75.96878
273.1707, 79.41611
273.6528, 83.29381
274.1349, 87.28310
274.6170, 91.07699
275.0992, 94.60390
275.5813, 97.67086
276.0634, 99.83189
276.5455, 101.2728
277.0276, 101.2971
277.5097, 99.97648
277.9919, 97.40493
278.4740, 93.38731
278.9561, 87.85197
279.4382, 81.57162
279.9203, 75.88918
280.4024, 70.92220
280.8846, 66.42199
281.3667, 62.23141
281.8488, 58.48439
282.3309, 55.35754
282.8130, 52.87171
283.2951, 50.84676
283.7773, 49.04631
284.2594, 47.51361
284.7415, 46.11754
285.2236, 44.79091
285.7057, 43.62170
286.1878, 42.76606
286.6700, 42.18556
287.1521, 41.61099
287.6342, 40.66271
288.1163, 39.13572
288.5984, 38.08219
289.0805, 38.02546
289.5627, 37.93946
290.0448, 37.14749
290.5269, 35.82356
291.0090, 34.73358
291.4911, 34.67258
291.9732, 35.77293
292.4554, 36.20408
292.9375, 35.27177
293.4196, 34.37392
293.9017, 34.00514
294.3838, 34.03265
294.8659, 34.08710
295.3481, 33.90643
295.8302, 33.50910
296.3123, 33.15399
296.7944, 32.80525
297.2765, 32.54184
297.7586, 32.36943
298.2408, 32.29570
298.7229, 32.37849
299.2050, 32.66276
299.6871, 33.04866
300.1692, 33.14148
300.6513, 32.47117
301.1335, 32.07056
301.6156, 32.15257
302.0977, 32.49456
302.5798, 32.88514
303.0619, 33.23588
303.5440, 33.54372
304.0262, 33.80835
304.5083, 34.04850
304.9904, 34.20129
305.4725, 34.12315
305.9546, 34.05098
306.4367, 34.26765
306.9189, 34.79899
307.4010, 35.32801
307.8831, 35.34719
308.3652, 34.41010
308.8473, 34.16331
309.3294, 34.99639
309.8116, 36.07903
310.2937, 37.04891
310.7758, 37.80325
311.2579, 38.27588
311.7400, 38.34631
312.2221, 37.91096
312.7043, 37.82970
313.1864, 38.34966
313.6685, 38.92419
314.1506, 39.43468
314.6327, 39.82780
315.1148, 40.02439
315.5970, 39.94233
316.0791, 39.61080
316.5612, 39.43220
317.0433, 39.49622
317.5254, 39.61321
318.0075, 39.80484
318.4897, 40.01331
318.9718, 40.14913
319.4539, 40.16356
319.9360, 40.10044
320.4181, 40.09598
320.9002, 39.98773
321.3824, 40.17309
321.8645, 40.80249
322.3466, 41.66291
322.8287, 42.60466
323.3108, 43.55748
323.7929, 44.46598
324.2751, 45.18883
324.7572, 45.39079
325.2393, 46.09055
325.7214, 47.72393
326.2035, 49.46647
326.6856, 50.85471
327.1678, 51.78374
327.6499, 52.32829
328.1320, 52.53204
328.6141, 52.30738
329.0962, 52.16933
329.5783, 52.40511
330.0605, 52.44695
330.5426, 51.97791
331.0247, 51.09675
331.5068, 50.09686
331.9889, 49.18841
332.4710, 48.36695
332.9532, 47.56320
333.4353, 46.53109
333.9174, 45.78775
334.3995, 45.56066
334.8816, 45.65737
335.3637, 45.81728
335.8459, 45.90896
336.3280, 45.97047
336.8101, 46.11654
337.2922, 46.43930
337.7743, 46.71261
338.2564, 46.76356
338.7386, 46.84849
339.2206, 47.21465
339.7028, 47.92261
340.1849, 48.82012
340.6670, 49.68269
341.1491, 50.47083
341.6312, 51.31974
342.1133, 52.13812
342.5955, 53.07649
343.0776, 54.25285
343.5597, 55.64579
344.0418, 57.11720
344.5239, 58.48730
345.0060, 59.72396
345.4882, 61.42447
345.9703, 64.18200
346.4524, 66.85412
346.9345, 69.30554
347.4166, 71.43391
347.8987, 73.06062
348.3809, 74.00401
348.8630, 74.47176
349.3451, 75.28405
349.8272, 76.53976
350.3093, 78.04530
350.7914, 79.68177
351.2736, 81.54839
351.7557, 83.68899
352.2378, 86.12690
352.7199, 88.95663
353.2020, 92.35207
353.6841, 96.41023
354.1663, 100.7538
354.6484, 105.6215
355.1305, 110.5456
355.6126, 115.1283
356.0947, 119.4035
356.5768, 123.8048
357.0590, 128.8536
357.5411, 134.5526
358.0232, 140.0354
358.5053, 144.6725
358.9874, 149.8207
359.4695, 155.9515
359.9517, 162.9701
360.4338, 170.6051
360.9159, 178.6857
361.3980, 187.2761
361.8801, 196.7755
362.3622, 207.4079
362.8444, 218.3876
363.3265, 229.1227
363.8086, 240.1704
364.2907, 252.1775
364.7728, 265.4283
365.2549, 279.4865
365.7371, 293.9193
366.2192, 308.8171
366.7013, 323.7859
367.1834, 338.6913
367.6655, 353.6952
368.1476, 368.7624
368.6298, 383.9811
369.1119, 399.6349
369.5940, 416.2246
370.0761, 433.5004
370.5582, 450.2369
371.0403, 466.6687
371.5225, 481.8706
372.0046, 497.1279
372.4867, 510.9243
372.9688, 519.4420
373.4509, 521.7933
373.9330, 517.6890
374.4152, 506.1784
374.8973, 487.0581
375.3794, 462.4005
375.8615, 430.3475
376.3436, 394.5247
376.8257, 360.0665
377.3079, 327.0503
377.7900, 296.2281
378.2721, 267.8110
378.7542, 241.9228
379.2363, 219.3239
379.7184, 200.5724
380.2006, 184.5252
380.6827, 169.6931
381.1648, 156.0168
381.6469, 143.8657
382.1290, 133.4523
382.6111, 124.5406
383.0933, 117.0217
383.5754, 110.8829
384.0575, 105.5368
384.5396, 100.6046
385.0217, 96.10314
385.5038, 91.70849
385.9860, 87.12590
386.4681, 82.93201
386.9502, 79.59677
387.4323, 76.98521
387.9144, 74.58681
388.3965, 72.19082
388.8787, 69.83474
389.3608, 67.61672
389.8429, 65.42773
390.3250, 63.52538
390.8071, 62.05477
391.2892, 60.85806
391.7714, 59.76979
392.2535, 58.75038
392.7356, 57.80731
393.2177, 56.98296
393.6998, 56.33369
394.1819, 55.48455
394.6641, 54.07452
395.1462, 52.80064
395.6283, 52.12042
396.1104, 51.93196
396.5925, 51.88427
397.0746, 51.76258
397.5568, 51.57193
398.0389, 51.33151
398.5210, 50.91518
399.0031, 50.60491
399.4852, 50.67482
399.9673, 50.75605
400.4495, 50.29190
400.9316, 49.15740
401.4137, 47.92671
401.8958, 47.52188
402.3779, 48.31862
402.8600, 48.93843
403.3422, 49.36249
403.8243, 49.65758
404.3064, 49.76933
404.7885, 49.76857
405.2706, 49.82717
405.7527, 50.08266
406.2349, 50.51209
406.7170, 50.92601
407.1991, 51.32512
407.6812, 51.70153
408.1633, 51.79557
408.6454, 51.97558
409.1276, 52.75013
409.6097, 54.31351
410.0918, 56.15273
410.5739, 57.43383
411.0560, 57.98611
411.5381, 58.87522
412.0203, 60.64803
412.5024, 62.48147
412.9845, 64.00447
413.4666, 65.17442
413.9487, 66.00462
414.4308, 66.64526
414.9130, 66.96615
415.3951, 66.43684
415.8772, 64.94024
416.3593, 62.86762
416.8414, 60.21731
417.3235, 57.18842
417.8057, 53.93383
418.2878, 50.29612
418.7699, 46.83302
419.2520, 44.10186
419.7341, 42.05596
420.2162, 40.25210
420.6984, 38.58981
421.1805, 37.10085
421.6626, 35.82964
422.1447, 34.75648
422.6268, 33.83871
423.1089, 33.22047
423.5911, 32.67867
424.0732, 31.81127
424.5553, 30.57528
425.0374, 29.44683
425.5195, 28.81868
426.0016, 28.64051
426.4838, 28.40220
426.9659, 28.01090
427.4480, 27.65913
427.9301, 27.50142
428.4122, 27.44228
428.8943, 27.25035
429.3765, 26.82369
429.8586, 26.32840
430.3407, 26.06208
430.8228, 26.17536
431.3049, 26.20112
431.7870, 26.15933
432.2692, 26.01232
432.7513, 25.65706
433.2334, 25.14355
433.7155, 24.65515
434.1976, 24.32569
434.6797, 24.15894
435.1619, 24.21904
435.6440, 24.85252
436.1261, 25.31620
436.6082, 25.39262
437.0903, 25.27602
437.5724, 25.24362
438.0546, 25.38074
438.5367, 25.47097
439.0188, 25.04721
439.5009, 23.74011
439.9830, 23.12108
440.4651, 24.01310
440.9473, 24.89998
441.4294, 25.03069
441.9115, 24.55391
442.3936, 24.03159
442.8757, 23.81851
443.3578, 23.84670
443.8400, 23.91735
444.3221, 24.07457
444.8042, 24.16353
445.2863, 23.94766
445.7684, 23.73399
446.2505, 23.92202
446.7327, 24.62726
447.2148, 25.22569
447.6969, 25.02072
448.1790, 24.17238
448.6611, 23.55813
449.1432, 23.31026
449.6254, 23.32284
450.1075, 23.67468
450.5896, 24.23921
451.0717, 24.61185
451.5538, 24.54866
452.0359, 24.34480
452.5181, 24.23283
453.0002, 24.21767
453.4823, 24.36054
453.9644, 24.77170
454.4465, 25.25880
454.9286, 25.31265
455.4108, 24.73183
455.8929, 24.40250
456.3750, 24.69561
456.8571, 25.24832
457.3392, 25.74085
457.8214, 26.10042
458.3035, 26.26682
458.7856, 26.15139
459.2677, 25.74898
459.7498, 25.51108
460.2319, 25.58017
460.7141, 25.62155
461.1962, 25.47980
461.6783, 25.27236
462.1604, 25.19287
462.6425, 25.31080
463.1246, 25.49932
463.6068, 25.52607
464.0889, 25.28337
464.5710, 25.16548
465.0531, 25.32420
465.5352, 25.45928
466.0173, 25.41144
466.4995, 25.21736
466.9816, 24.98287
467.4637, 24.73709
467.9458, 24.54647
468.4279, 24.62576
468.9100, 25.01463
469.3922, 25.57631
469.8743, 26.49951
470.3564, 27.44306
470.8385, 28.13810
471.3206, 28.54362
471.8027, 28.76315
472.2849, 28.72535
472.7670, 28.54460
473.2491, 28.68432
473.7312, 29.24898
474.2133, 29.95152
474.6954, 30.61433
475.1776, 31.26267
475.6597, 31.96241
476.1418, 32.87628
476.6239, 33.65170
477.1060, 34.15557
477.5881, 34.33241
478.0703, 33.94265
478.5524, 32.83947
479.0345, 31.39570
479.5166, 30.09661
479.9987, 28.91567
480.4808, 28.03688
480.9630, 27.62731
481.4451, 27.39684
481.9272, 27.23365
482.4093, 27.08672
482.8914, 26.85688
483.3735, 26.47339
483.8557, 25.99196
484.3378, 25.60883
484.8199, 25.36350
485.3020, 25.17109
485.7841, 24.97843
486.2662, 24.86754
486.7484, 24.90820
487.2305, 25.10267
487.7126, 25.40519
488.1947, 25.80126
488.6768, 26.28135
489.1589, 26.69617
489.6411, 27.05213
490.1232, 27.32682
490.6053, 27.43121
491.0874, 27.50118
491.5695, 27.72994
492.0516, 28.18443
492.5338, 28.62566
493.0159, 28.72340
493.4980, 28.53228
493.9801, 28.57066
494.4622, 29.01987
494.9443, 29.50574
495.4265, 29.66167
495.9086, 29.60193
496.3907, 29.63924
496.8728, 29.88134
497.3549, 30.21949
497.8370, 30.56145
498.3192, 30.92042
498.8013, 31.33936
499.2834, 31.82485
499.7655, 32.40277
500.2476, 33.12439
500.7297, 34.00432
501.2119, 34.98839
501.6940, 36.18005
502.1761, 37.38750
502.6582, 38.32909
503.1403, 39.14328
503.6224, 40.33849
504.1045, 42.27320
504.5866, 44.69775
505.0688, 46.70600
505.5509, 47.88966
506.0330, 49.30406
506.5151, 51.40587
506.9972, 53.45367
507.4793, 55.14066
507.9615, 56.29234
508.4436, 56.60186
508.9257, 55.75642
509.4078, 53.84058
509.8899, 51.29229
510.3720, 47.69392
510.8542, 44.36206
511.3363, 41.88142
511.8184, 39.85286
512.3005, 37.89473
512.7827, 35.92230
513.2648, 34.17747
513.7469, 32.85769
514.2290, 31.90243
514.7111, 31.14924
515.1932, 30.60107
515.6754, 30.14546
516.1575, 29.72590
516.6396, 29.33167
517.1217, 28.91239
517.6038, 28.27561
518.0859, 27.83711
518.5681, 27.97232
519.0502, 28.38288
519.5323, 28.54665
520.0144, 28.31901
520.4965, 27.92253
520.9786, 27.59378
521.4608, 27.29751
521.9429, 27.30448
522.4250, 27.79218
522.9071, 28.33885
523.3892, 28.79902
523.8713, 29.21819
524.3535, 29.71563
524.8356, 30.33445
525.3177, 30.93919
525.7998, 31.28341
526.2819, 31.32285
526.7640, 31.31894
527.2462, 31.23405
527.7283, 31.16279
528.2104, 31.04461
528.6925, 30.97902
529.1746, 31.19911
529.6567, 31.88416
530.1389, 32.76974
530.6210, 33.41608
531.1031, 33.85384
531.5852, 34.69096
532.0673, 36.30663
532.5494, 38.06678
533.0316, 39.05322
533.5137, 39.31892
533.9958, 39.90900
534.4779, 41.28150
534.9600, 42.84630
535.4421, 44.12228
535.9243, 45.18558
536.4064, 46.34504
536.8885, 47.71895
537.3706, 49.37841
537.8527, 51.46050
538.3348, 54.14644
538.8170, 56.97448
539.2991, 59.77999
539.7812, 62.84763
540.2633, 66.26338
540.7454, 70.09999
541.2275, 74.44022
541.7097, 79.29195
542.1918, 84.81660
542.6739, 91.52718
543.1560, 99.73361
543.6381, 108.2520
544.1202, 117.1377
544.6024, 126.0097
545.0845, 134.9873
545.5666, 143.8880
546.0487, 151.6655
546.5308, 158.6797
547.0129, 163.8350
547.4951, 165.2798
547.9772, 163.0558
548.4593, 158.1817
548.9414, 150.7567
549.4235, 141.3095
549.9056, 130.3232
550.3878, 117.5361
550.8699, 105.3455
551.3520, 93.83204
551.8341, 83.45874
552.3162, 74.70390
552.7983, 67.46407
553.2805, 61.32298
553.7626, 56.02771
554.2447, 51.57807
554.7268, 47.96574
555.2089, 45.47521
555.6910, 43.38156
556.1732, 41.91232
556.6553, 40.55419
557.1374, 38.87622
557.6195, 36.99955
558.1016, 35.40046
558.5837, 34.40849
559.0659, 33.82537
559.5480, 33.20400
560.0301, 32.53765
560.5122, 31.87123
560.9943, 31.07543
561.4764, 30.43595
561.9586, 30.33901
562.4407, 30.73886
562.9228, 30.93500
563.4049, 30.53328
563.8870, 29.89666
564.3691, 29.34461
564.8513, 28.89478
565.3334, 28.56681
565.8155, 28.37544
566.2976, 28.29779
566.7797, 28.31886
567.2618, 28.62023
567.7440, 28.56341
568.2261, 27.78652
568.7082, 26.98832
569.1903, 26.51722
569.6724, 26.36123
570.1545, 26.44230
570.6367, 26.73699
571.1188, 27.08100
571.6009, 27.12615
572.0830, 26.83524
572.5651, 26.37174
573.0472, 25.39044
573.5294, 24.60747
574.0115, 24.55661
574.4936, 25.01609
574.9757, 25.36780
575.4578, 25.38603
575.9399, 25.15053
576.4221, 24.59546
576.9042, 23.80842
577.3863, 23.30688
577.8684, 23.27558
578.3505, 23.47086
578.8326, 23.67000
579.3148, 23.87801
579.7969, 23.90802
580.2790, 23.55997
580.7611, 23.23587
581.2432, 23.20714
581.7253, 23.31243
582.2075, 23.21352
582.6896, 22.80997
583.1717, 22.40097
583.6538, 22.45796
584.1359, 23.09208
584.6180, 23.38708
585.1002, 22.95612
585.5823, 22.64383
586.0643, 22.79539
586.5464, 23.18322
587.0286, 23.51019
587.5107, 23.69207
587.9928, 23.81653
588.4749, 23.94015
588.9570, 24.07274
589.4391, 24.30864
589.9213, 24.71629
590.4034, 24.95416
590.8855, 24.76428
591.3676, 24.21157
591.8497, 23.60473
592.3318, 22.89001
592.8140, 22.20498
593.2961, 21.57005
593.7782, 21.00127
594.2603, 20.48329
594.7424, 20.03910
595.2245, 19.78980
595.7067, 19.87046
596.1888, 20.19740
596.6709, 20.29310
597.1530, 20.10928
597.6351, 19.76381
598.1172, 18.97273
598.5994, 18.27935
599.0815, 18.13897
599.5636, 18.50961
600.0457, 18.99650
600.5278, 19.48318
601.0099, 19.83228
601.4921, 19.63916
601.9742, 18.89337
602.4563, 18.38820
602.9384, 18.42574
603.4205, 18.78741
603.9026, 19.26912
604.3848, 19.88932
604.8669, 20.29571
605.3490, 20.26744
605.8311, 20.17687
606.3132, 20.21134
606.7953, 20.37745
607.2775, 20.70109
607.7596, 21.18621
608.2417, 21.68838
608.7238, 21.97050
609.2059, 21.99164
609.6880, 21.99396
610.1702, 21.89073
610.6523, 21.87195
611.1344, 22.04831
611.6165, 22.32577
612.0986, 22.59275
612.5807, 22.82299
613.0629, 22.97769
613.5450, 22.90029
614.0271, 22.71420
614.5092, 22.91226
614.9913, 23.60839
615.4734, 24.19388
615.9556, 24.21946
616.4377, 23.85838
616.9198, 23.70493
617.4019, 23.66189
617.8840, 23.96984
618.3661, 24.98468
618.8483, 26.15248
619.3304, 26.96072
619.8125, 27.42246
620.2946, 27.85367
620.7767, 28.47090
621.2589, 29.16476
621.7410, 29.54963
622.2231, 29.42309
622.7052, 29.58521
623.1873, 30.10434
623.6694, 30.99674
624.1516, 32.57360
624.6337, 34.54937
625.1158, 36.11227
625.5979, 36.84880
626.0800, 37.18322
626.5621, 37.49877
627.0443, 37.75861
627.5264, 37.83596
628.0085, 37.70154
628.4906, 37.36520
628.9727, 36.80462
629.4548, 36.02087
629.9370, 35.23030
630.4191, 34.59807
630.9012, 33.75829
631.3833, 32.45253
631.8654, 30.99710
632.3475, 29.72723
632.8297, 28.67999
633.3118, 27.64156
633.7939, 26.37579
634.2760, 24.99740
634.7581, 24.07907
635.2402, 23.76211
635.7224, 23.33730
636.2045, 22.41408
636.6866, 21.45014
637.1687, 20.98499
637.6508, 20.99386
638.1329, 20.91364
638.6151, 20.53862
639.0972, 20.03352
639.5793, 19.43920
640.0614, 18.83122
640.5435, 18.39090
641.0256, 18.18461
641.5078, 18.13230
641.9899, 18.15052
642.4720, 18.26144
642.9541, 18.26020
643.4362, 18.06374
643.9183, 17.84599
644.4005, 17.60515
644.8826, 17.38403
645.3647, 17.24477
645.8468, 17.19368
646.3289, 17.14240
646.8110, 16.97624
647.2932, 16.76535
647.7753, 16.71882
648.2574, 16.84919
648.7395, 16.93025
649.2216, 16.83097
649.7037, 16.66762
650.1859, 16.66685
650.6680, 16.88256
651.1501, 17.00642
651.6322, 17.02411
652.1143, 16.93527
652.5964, 16.62705
653.0786, 16.23854
653.5607, 16.06748
654.0428, 16.21321
654.5249, 16.39019
655.0070, 16.12909
655.4891, 15.40299
655.9713, 15.00738
656.4534, 15.10383
656.9355, 15.21736
657.4176, 15.06953
657.8997, 14.84101
658.3818, 14.76277
658.8640, 14.88159
659.3461, 14.96656
659.8282, 14.81816
660.3103, 14.64584
660.7924, 14.80621
661.2745, 15.19836
661.7567, 15.27345
662.2388, 14.72832
662.7209, 13.97770
663.2030, 13.86088
663.6851, 14.71432
664.1672, 15.09687
664.6494, 14.44137
665.1315, 13.92605
665.6136, 14.13236
666.0957, 14.64519
666.5778, 14.83467
667.0599, 14.51747
667.5421, 14.11009
668.0242, 13.95610
668.5063, 13.98369
668.9884, 14.05452
669.4705, 14.16004
669.9526, 14.15867
670.4348, 13.92309
670.9169, 13.60633
671.3990, 13.56400
671.8811, 13.98920
672.3632, 14.21203
672.8453, 13.98315
673.3275, 13.78444
673.8096, 13.98054
674.2917, 14.36546
674.7738, 14.53432
675.2559, 14.33195
675.7380, 14.01680
676.2202, 13.88867
676.7023, 13.93742
677.1844, 14.08584
677.6665, 14.37362
678.1486, 14.61823
678.6307, 14.72339
679.1129, 14.72767
679.5950, 14.71135
680.0771, 14.67858
680.5592, 14.60915
681.0413, 14.45376
681.5234, 14.29869
682.0056, 14.18866
682.4877, 14.13579
682.9698, 14.18756
683.4519, 14.36116
683.9340, 14.52851
684.4161, 14.46544
684.8983, 14.14184
685.3804, 13.95865
685.8625, 14.00719
686.3446, 14.03731
686.8267, 13.89361
687.3088, 13.69867
687.7910, 13.57368
688.2731, 13.52953
688.7552, 13.58246
689.2373, 13.79320
689.7194, 14.06593
690.2015, 14.37613
690.6837, 14.66435
691.1658, 14.72049
691.6479, 14.45088
692.1300, 14.06657
692.6121, 13.86815
693.0942, 13.86786
693.5764, 13.98945
694.0585, 14.50399
694.5406, 14.76684
695.0227, 14.34305
695.5048, 13.74324
695.9869, 13.53226
696.4691, 13.78477
696.9512, 14.10114
697.4333, 14.30997
697.9154, 14.41056
698.3975, 14.33364
698.8796, 14.12727
699.3618, 14.05756
699.8439, 14.23839
700.3260, 14.44430
700.8081, 14.34824
701.2902, 13.89552
701.7723, 13.66077
702.2545, 13.89768
702.7366, 14.04777
703.2187, 13.89531
703.7008, 13.67900
704.1829, 13.62110
704.6650, 13.74857
705.1472, 13.97394
705.6293, 14.35798
706.1114, 14.71897
706.5935, 14.67078
707.0756, 14.28698
707.5577, 14.05475
708.0399, 14.12441
708.5220, 14.35047
709.0041, 14.61152
709.4862, 14.90804
709.9683, 15.06169
710.4504, 15.02780
710.9326, 14.91903
711.4147, 14.57906
711.8968, 14.29780
712.3789, 14.42695
712.8610, 14.88626
713.3431, 15.23569
713.8253, 15.16798
714.3074, 14.91727
714.7895, 14.89348
715.2716, 15.04778
715.7537, 14.94642
716.2358, 14.42480
716.7180, 14.04091
717.2001, 14.38048
717.6822, 15.27700
718.1643, 15.61133
718.6464, 14.66362
719.1285, 14.20884
719.6107, 14.70961
720.0928, 15.50908
720.5749, 16.41133
721.0570, 17.18692
721.5391, 17.38709
722.0212, 16.73111
722.5034, 15.74019
722.9855, 14.96495
723.4676, 14.43510
723.9497, 14.46102
724.4318, 15.16647
724.9139, 15.84763
725.3961, 16.06615
725.8782, 15.95881
726.3603, 15.89984
726.8424, 15.96552
727.3245, 15.90195
727.8066, 15.51587
728.2888, 15.17527
728.7709, 15.06109
729.2530, 15.14923
729.7351, 15.44937
730.2172, 15.95255
730.6993, 16.36523
731.1815, 16.23270
731.6636, 15.74209
732.1457, 15.61655
732.6278, 15.89385
733.1099, 16.32368
733.5920, 16.91279
734.0742, 17.41762
734.5563, 17.39229
735.0384, 16.66158
735.5205, 16.29716
736.0026, 16.70606
736.4847, 16.99907
736.9669, 16.65479
737.4490, 16.13862
737.9311, 16.00380
738.4132, 16.33098
738.8953, 16.82023
739.3774, 17.33549
739.8596, 17.78483
740.3417, 17.95033
740.8238, 17.84535
741.3059, 17.62414
741.7880, 17.26038
742.2701, 17.04660
742.7523, 17.35303
743.2344, 18.12541
743.7165, 18.50866
744.1986, 18.05884
744.6807, 17.86364
745.1628, 18.30112
745.6450, 18.83791
746.1271, 19.02835
746.6092, 18.95134
747.0913, 18.96099
747.5734, 19.24094
748.0555, 19.61848
748.5377, 19.90064
749.0198, 20.10065
749.5019, 20.23263
749.9840, 20.29297
750.4661, 20.43146
750.9482, 20.76747
751.4304, 21.20168
751.9125, 21.48884
752.3946, 21.54400
752.8767, 21.64806
753.3588, 21.78260
753.8409, 21.98244
754.3231, 22.32282
754.8052, 22.71060
755.2873, 22.96576
755.7694, 23.05652
756.2515, 23.27329
756.7336, 24.07086
757.2158, 25.01600
757.6979, 25.20082
758.1800, 24.77310
758.6621, 24.70993
759.1442, 25.36870
759.6263, 26.30575
760.1085, 27.01315
760.5906, 27.48770
761.0727, 28.01140
761.5548, 28.63468
762.0369, 29.23416
762.5190, 29.74889
763.0012, 30.26855
763.4833, 30.93378
763.9654, 31.67691
764.4475, 32.23359
764.9296, 32.41945
765.4117, 32.52883
765.8939, 32.81091
766.3760, 33.18476
766.8581, 33.48920
767.3402, 33.71278
767.8223, 33.94894
768.3044, 34.25271
768.7866, 34.63023
769.2687, 35.13647
769.7508, 35.89203
770.2329, 36.31491
770.7150, 36.08129
771.1971, 35.94595
771.6793, 36.41484
772.1614, 37.10286
772.6435, 37.46611
773.1256, 37.41210
773.6077, 37.37047
774.0898, 37.61483
774.5720, 37.83669
775.0541, 37.81369
775.5362, 37.56656
776.0183, 37.08034
776.5004, 36.38726
776.9825, 35.75796
777.4647, 35.50036
777.9468, 35.52553
778.4289, 35.39365
778.9110, 35.08566
779.3931, 34.70028
779.8752, 34.17662
780.3574, 33.71233
780.8395, 33.53024
781.3216, 33.57529
781.8037, 33.56849
782.2858, 33.49281
782.7679, 33.37217
783.2501, 33.23531
783.7322, 33.03740
784.2143, 32.64635
784.6964, 32.16853
785.1785, 31.89567
785.6606, 31.96883
786.1428, 32.12279
786.6249, 31.91557
787.1070, 31.49633
787.5891, 31.59873
788.0712, 32.28774
788.5533, 32.78458
789.0355, 32.68407
789.5176, 32.33722
789.9997, 32.30236
790.4818, 32.66032
790.9639, 32.82044
791.4460, 32.39439
791.9282, 32.27356
792.4103, 32.95770
792.8924, 33.81673
793.3745, 34.18926
793.8566, 34.12661
794.3387, 34.27449
794.8209, 35.12480
795.3030, 36.04050
795.7851, 36.20840
796.2672, 36.02328
796.7493, 36.39468
797.2314, 37.42199
797.7136, 38.58290
798.1957, 39.54054
798.6778, 40.40590
799.1599, 41.43046
799.6420, 42.62285
800.1241, 43.97567
800.6063, 45.73840
801.0884, 47.27655
801.5705, 47.95265
802.0526, 48.40341
802.5347, 49.44363
803.0168, 51.16553
803.4990, 52.88208
803.9811, 54.34838
804.4632, 55.79988
804.9453, 57.29655
805.4274, 58.90316
805.9095, 60.78474
806.3917, 62.91286
806.8738, 65.01628
807.3559, 66.85388
807.8380, 68.55973
808.3201, 70.34206
808.8022, 72.22063
809.2844, 74.53055
809.7665, 77.43768
810.2486, 80.26885
810.7307, 82.44234
811.2128, 84.25483
811.6949, 86.59953
812.1771, 89.83585
812.6592, 92.86227
813.1413, 95.62205
813.6234, 98.22543
814.1055, 100.4189
814.5876, 102.6071
815.0698, 105.3066
815.5519, 108.6071
816.0340, 112.2204
816.5161, 116.0447
816.9982, 120.0107
817.4803, 124.1068
817.9625, 128.2493
818.4446, 132.1512
818.9267, 135.7853
819.4088, 139.4981
819.8909, 143.5924
820.3730, 147.9450
820.8552, 152.1032
821.3373, 156.0845
821.8194, 159.9344
822.3015, 163.9601
822.7836, 167.3876
823.2657, 169.7902
823.7479, 171.2379
824.2300, 171.8846
824.7121, 171.8040
825.1942, 170.6586
825.6763, 168.0115
826.1584, 164.6819
826.6406, 161.0996
827.1227, 157.1521
827.6048, 152.4967
828.0869, 147.1588
828.5690, 141.6495
829.0511, 136.2415
829.5333, 131.0712
830.0154, 126.3546
830.4975, 122.0844
830.9796, 118.2620
831.4617, 114.8913
831.9438, 111.8437
832.4260, 109.0622
832.9081, 106.4687
833.3902, 103.7463
833.8723, 100.6148
834.3544, 98.09667
834.8365, 96.69112
835.3187, 95.28925
835.8008, 93.14894
836.2829, 90.94199
836.7650, 89.61934
837.2471, 89.28824
837.7292, 88.79527
838.2114, 87.35847
838.6935, 86.07966
839.1756, 85.87149
839.6577, 86.14214
840.1398, 86.03015
840.6219, 85.45857
841.1041, 84.86089
841.5862, 84.47648
842.0683, 84.39265
842.5504, 84.86775
843.0325, 85.82162
843.5146, 86.73788
843.9968, 87.55844
844.4789, 88.31478
844.9610, 89.00161
845.4431, 89.66917
845.9252, 90.40937
846.4073, 91.23981
846.8895, 92.06113
847.3716, 92.95634
847.8537, 93.72422
848.3358, 94.30059
848.8179, 94.75659
849.3000, 95.18916
849.7822, 95.57224
850.2643, 95.76161
850.7464, 95.74293
851.2285, 95.47240
851.7106, 94.68216
852.1927, 93.78999
852.6749, 93.24772
853.1570, 93.06102
853.6391, 93.06068
854.1212, 93.16862
854.6033, 93.44852
855.0854, 94.03004
855.5676, 94.86018
856.0497, 95.69026
856.5318, 96.51889
857.0139, 97.30178
857.4960, 97.94184
857.9781, 98.84158
858.4603, 100.4782
858.9424, 102.7895
859.4245, 105.0561
859.9066, 106.9333
860.3887, 109.3595
860.8708, 112.6355
861.3530, 116.2402
861.8351, 120.0089
862.3172, 123.8900
862.7993, 127.6477
863.2814, 131.1067
863.7635, 135.4528
864.2457, 141.7380
864.7278, 148.6105
865.2099, 154.7185
865.6920, 160.7428
866.1741, 167.9649
866.6563, 176.5616
867.1384, 185.4329
867.6205, 193.6694
868.1026, 201.7884
868.5847, 210.5921
869.0668, 220.1077
869.5490, 230.6394
870.0311, 242.2397
870.5132, 254.5583
870.9953, 267.4930
871.4774, 281.1405
871.9595, 295.7057
872.4417, 311.2901
872.9238, 327.3611
873.4059, 343.8278
873.8880, 361.0755
874.3701, 379.4850
874.8522, 398.4712
875.3344, 417.7890
875.8165, 437.3116
876.2986, 456.4770
876.7807, 475.6967
877.2628, 493.6647
877.7449, 510.6474
878.2271, 525.4992
878.7092, 538.0371
879.1913, 547.2586
879.6734, 551.0995
880.1555, 548.8858
880.6376, 542.7214
881.1198, 534.3697
881.6019, 523.4858
882.0840, 509.1289
882.5661, 491.6034
883.0482, 471.8351
883.5303, 450.1192
884.0125, 427.7101
884.4946, 405.6513
884.9767, 383.7441
885.4588, 361.0611
885.9409, 337.1303
886.4230, 314.8915
886.9052, 294.6316
887.3873, 275.7347
887.8694, 257.7852
888.3515, 240.9072
888.8336, 225.1611
889.3157, 210.6133
889.7979, 196.8661
890.2800, 183.4960
890.7621, 171.3759
891.2442, 161.1680
891.7263, 151.9454
892.2084, 143.0173
892.6906, 134.3819
893.1727, 126.4776
893.6548, 119.4613
894.1369, 113.0548
894.6190, 107.1919
895.1011, 101.7368
895.5833, 96.54264
896.0654, 91.67636
896.5475, 87.42068
897.0296, 83.84068
897.5117, 80.53117
897.9938, 77.10757
898.4760, 73.68832
898.9581, 70.53559
899.4402, 67.67046
899.9223, 65.41496
900.4044, 63.88270
900.8865, 62.27989
901.3687, 60.01634
901.8508, 57.54747
902.3329, 55.90121
902.8150, 55.27037
903.2971, 54.46595
903.7792, 53.33799
904.2614, 52.29755
904.7435, 51.61890
905.2256, 50.94928
905.7077, 49.93146
906.1898, 48.62933
906.6719, 47.41230
907.1541, 46.34136
907.6362, 45.34135
908.1183, 44.32281
908.6004, 43.44750
909.0825, 43.01283
909.5646, 42.74375
910.0468, 42.09149
910.5289, 40.94266
911.0110, 39.86224
911.4931, 39.31590
911.9752, 38.95948
912.4573, 38.42742
912.9395, 37.79197
913.4216, 37.14430
913.9037, 36.53875
914.3858, 36.14147
914.8679, 36.07081
915.3500, 36.10956
915.8321, 35.91080
916.3142, 35.49137
916.7963, 34.95586
917.2784, 34.30331
917.7606, 33.60877
918.2427, 32.87541
918.7248, 32.19950
919.2069, 31.68335
919.6890, 31.31456
920.1711, 30.98604
920.6533, 30.71081
921.1354, 30.45564
921.6175, 30.38910
922.0996, 30.11654
922.5817, 29.14453
923.0638, 27.96613
923.5460, 27.37255
924.0281, 27.46244
924.5102, 27.41314
924.9923, 27.01077
925.4744, 26.57892
925.9565, 26.21626
926.4387, 25.88641
926.9208, 25.54772
927.4029, 25.20841
927.8850, 24.91378
928.3671, 24.68268
928.8492, 24.47681
929.3314, 24.33717
929.8135, 24.15553
930.2956, 23.72420
930.7777, 23.17303
931.2598, 22.82935
931.7419, 22.73993
932.2241, 22.61919
932.7062, 22.19708
933.1883, 21.72346
933.6704, 21.76260
934.1525, 22.16815
934.6346, 22.23241
935.1168, 21.89843
935.5989, 21.61136
936.0810, 21.58020
936.5631, 21.68473
937.0452, 21.78635
937.5273, 21.87626
938.0095, 21.79004
938.4916, 21.46767
938.9737, 21.22695
939.4558, 21.18484
939.9379, 21.10250
940.4200, 20.73499
940.9022, 20.25023
941.3843, 20.09367
941.8664, 20.41011
942.3485, 20.60911
942.8306, 20.58647
943.3127, 20.58438
943.7949, 20.72703
944.2770, 20.86912
944.7591, 20.83355
945.2412, 20.67245
945.7233, 20.63919
946.2054, 20.91111
946.6876, 21.04635
947.1697, 20.73235
947.6518, 20.37316
948.1339, 20.27784
948.6160, 20.34100
949.0981, 20.42077
949.5803, 20.45811
950.0624, 20.34276
950.5445, 19.95446
951.0266, 19.46551
951.5087, 18.90454
951.9908, 18.42697
952.4730, 18.38462
952.9551, 18.69177
953.4372, 18.96339
953.9193, 19.03207
954.4014, 18.90652
954.8835, 18.55314
955.3657, 18.03466
955.8478, 17.46981
956.3299, 16.88659
956.8120, 16.51081
957.2941, 16.38839
957.7762, 16.31875
958.2584, 16.16238
958.7405, 16.01469
959.2226, 16.10919
959.7047, 16.47377
960.1868, 16.62386
960.6689, 16.54674
961.1511, 16.26974
961.6332, 15.66864
962.1153, 15.14814
962.5974, 15.11046
963.0795, 15.44799
963.5616, 15.69661
964.0438, 15.87933
964.5259, 15.92476
965.0080, 15.76469
965.4901, 15.55412
965.9722, 15.16803
966.4543, 14.88294
966.9365, 15.06967
967.4186, 15.67852
967.9007, 16.17640
968.3828, 16.53642
968.8649, 16.71605
969.3470, 16.53963
969.8292, 16.34496
970.3113, 16.38652
970.7934, 16.53852
971.2755, 16.54745
971.7576, 16.38607
972.2397, 16.35035
972.7219, 16.59303
973.2040, 16.99072
973.6861, 17.63462
974.1682, 18.27055
974.6503, 18.61102
975.1324, 18.67839
975.6146, 18.52552
976.0967, 18.18733
976.5788, 18.05817
977.0609, 18.68967
977.5430, 19.57221
978.0251, 19.96070
978.5073, 20.04196
978.9894, 20.34804
979.4715, 20.87732
979.9536, 21.05248
980.4357, 20.53914
980.9178, 19.91803
981.4000, 20.13383
981.8821, 20.92433
982.3642, 21.24769
982.8463, 21.14867
983.3284, 21.05598
983.8105, 21.07242
984.2927, 21.35426
984.7748, 22.06575
985.2569, 22.94876
985.7390, 23.37157
986.2211, 23.30265
986.7032, 23.44958
987.1854, 23.89810
987.6675, 24.08768
988.1496, 23.76076
988.6317, 23.36386
989.1138, 23.31106
989.5959, 23.53878
990.0781, 23.76578
990.5602, 23.92387
991.0423, 24.29211
991.5244, 24.98020
992.0065, 25.69014
992.4886, 26.43034
992.9708, 27.02169
993.4529, 27.11230
993.9350, 26.77790
994.4171, 26.93621
994.8992, 27.90020
995.3813, 28.86634
995.8635, 30.09638
996.3456, 30.99579
996.8277, 30.96085
997.3098, 30.65411
997.7919, 30.82563
998.2740, 31.52139
998.7562, 32.55920
999.2383, 34.37170
999.7204, 35.85802
1000.203, 36.40434
1000.685, 36.86028
1001.167, 38.02295
1001.649, 39.39488
1002.131, 39.94592
1002.613, 39.58310
1003.095, 39.62330
1003.577, 40.87412
1004.059, 42.39276
1004.542, 43.93087
1005.024, 45.26168
1005.506, 46.26272
1005.988, 46.83556
1006.470, 46.70230
1006.952, 45.83419
1007.434, 44.99041
1007.916, 44.95484
1008.398, 44.90460
1008.881, 44.06548
1009.363, 42.69932
1009.845, 41.11057
1010.327, 39.36833
1010.809, 37.38999
1011.291, 35.17167
1011.773, 33.10797
1012.255, 31.67501
1012.738, 30.54471
1013.220, 29.16311
1013.702, 27.66805
1014.184, 26.42823
1014.666, 25.44331
1015.148, 24.40561
1015.630, 23.16913
1016.112, 21.91536
1016.594, 20.82670
1017.077, 19.90928
1017.559, 19.20523
1018.041, 18.68893
1018.523, 18.22370
1019.005, 17.79006
1019.487, 17.45767
1019.969, 17.27101
1020.451, 17.13221
1020.934, 16.92142
1021.416, 16.62569
1021.898, 16.08779
1022.380, 15.31920
1022.862, 14.76953
1023.344, 14.52857
1023.826, 14.47111
1024.308, 14.54466
1024.791, 14.64431
1025.273, 14.58907
1025.755, 14.38000
1026.237, 14.00647
1026.719, 13.41768
1027.201, 13.08277
1027.683, 13.13373
1028.165, 13.31582
1028.647, 13.47931
1029.130, 13.62615
1029.612, 13.79198
1030.094, 14.00518
1030.576, 13.81010
1031.058, 13.02932
1031.540, 12.44415
1032.022, 12.21900
1032.504, 12.24232
1032.986, 12.49155
1033.469, 12.88858
1033.951, 13.32723
1034.433, 13.92623
1034.915, 13.74890
1035.397, 12.16873
1035.879, 11.18906
1036.361, 11.56299
1036.843, 12.14819
1037.326, 12.11676
1037.808, 11.73919
1038.290, 11.67757
1038.772, 12.07068
1039.254, 12.14909
1039.736, 11.65859
1040.218, 11.25408
1040.700, 10.98373
1041.182, 10.92000
1041.665, 11.27783
1042.147, 11.84033
1042.629, 12.10582
1043.111, 12.03970
1043.593, 11.83568
1044.075, 11.32045
1044.557, 10.91283
1045.039, 10.64711
1045.521, 10.56321
1046.004, 10.82078
1046.486, 11.24393
1046.968, 11.47726
1047.450, 11.49281
1047.932, 11.34211
1048.414, 10.81073
1048.896, 10.41319
1049.378, 10.22317
1049.861, 10.27070
1050.343, 10.86971
1050.825, 11.62389
1051.307, 11.61819
1051.789, 10.61311
1052.271, 10.11248
1052.753, 11.03434
1053.235, 11.65356
1053.718, 11.04799
1054.200, 10.30605
1054.682, 10.32832
1055.164, 10.78432
1055.646, 10.95492
1056.128, 10.72053
1056.610, 10.49144
1057.092, 10.39770
1057.574, 10.29745
1058.057, 10.10093
1058.539, 9.916685
1059.021, 9.796914
1059.503, 9.762819
1059.985, 9.911889
1060.467, 10.25391
1060.949, 10.36388
1061.431, 9.791482
1061.913, 9.382979
1062.396, 9.706770
1062.878, 10.08565
1063.360, 9.866256
1063.842, 9.382490
1064.324, 9.312359
1064.806, 9.731403
1065.288, 9.998571
1065.770, 9.715305
1066.253, 9.454981
1066.735, 9.474340
1067.217, 9.585151
1067.699, 9.744870
1068.181, 9.846505
1068.663, 9.650431
1069.145, 9.183558
1069.627, 8.950042
1070.109, 9.270579
1070.592, 9.633398
1071.074, 9.883368
1071.556, 10.01332
1072.038, 9.929609
1072.520, 9.773141
1073.002, 9.818711
1073.484, 10.03332
1073.966, 9.983874
1074.448, 9.343670
1074.931, 8.796111
1075.413, 8.635818
1075.895, 8.717233
1076.377, 9.139991
1076.859, 9.612729
1077.341, 9.741218
1077.823, 9.537426
1078.305, 9.292569
1078.788, 9.075019
1079.270, 8.925886
1079.752, 8.909254
1080.234, 8.919939
1080.716, 8.835482
1081.198, 8.773318
1081.680, 8.964869
1082.162, 9.314492
1082.644, 9.427287
1083.127, 9.125650
1083.609, 8.870785
1084.091, 8.907040
1084.573, 9.006520
1085.055, 9.054498
1085.537, 9.074177
1086.019, 9.108148
1086.501, 9.139258
1086.984, 9.095659
1087.466, 8.946869
1087.948, 8.861491
1088.430, 9.111813
1088.912, 9.192614
1089.394, 8.582605
1089.876, 7.907776
1090.358, 7.789263
1090.840, 8.055101
1091.323, 8.282845
1091.805, 8.384959
1092.287, 8.434180
1092.769, 8.431537
1093.251, 8.417126
1093.733, 8.352878
1094.215, 8.336758
1094.697, 8.580317
1095.179, 8.860371
1095.662, 8.736897
1096.144, 8.194193
1096.626, 7.815748
1097.108, 7.927931
1097.590, 8.002138
1098.072, 7.699210
1098.554, 7.486420
1099.036, 7.767210
1099.519, 8.245124
1100.001, 8.541755
1100.483, 8.636581
1100.965, 8.700718
1101.447, 8.824793
1101.929, 8.801871
1102.411, 8.519796
1102.893, 8.150708
1103.375, 7.469377
1103.858, 6.978520
1104.340, 7.407988
1104.822, 8.471117
1105.304, 9.084766
1105.786, 8.984605
1106.268, 8.844268
1106.750, 8.825728
1107.232, 8.727598
1107.714, 8.340998
1108.197, 7.981485
1108.679, 7.946832
1109.161, 8.114717
1109.643, 8.149826
1110.125, 7.968256
1110.607, 8.074510
1111.089, 9.030819
1111.571, 9.532374
1112.054, 9.009688
1112.536, 8.322117
1113.018, 7.841473
1113.500, 7.558086
1113.982, 7.488937
1114.464, 7.637590
1114.946, 7.727480
1115.428, 7.571828
1115.911, 7.676955
1116.393, 8.357771
1116.875, 8.900663
1117.357, 8.989606
1117.839, 8.831372
1118.321, 8.547278
1118.803, 8.201857
1119.285, 8.209945
1119.767, 8.927774
1120.250, 9.076857
1120.732, 8.331100
1121.214, 7.679630
1121.696, 7.413340
1122.178, 7.316594
1122.660, 7.215776
1123.142, 7.158570
1123.624, 7.291675
1124.106, 7.390945
1124.589, 7.552487
1125.071, 7.879924
1125.553, 8.017565
1126.035, 8.429682
1126.517, 8.749325
1126.999, 8.735122
1127.481, 8.564256
1127.963, 8.529355
1128.446, 8.606545
1128.928, 8.478073
1129.410, 8.101421
1129.892, 7.911176
1130.374, 7.967330
1130.856, 8.128757
1131.338, 8.346540
1131.820, 8.584851
1132.302, 8.811447
1132.785, 9.011580
1133.267, 9.122869
1133.749, 9.151637
1134.231, 9.221936
1134.713, 9.335128
1135.195, 9.314610
1135.677, 9.113278
1136.159, 9.004979
1136.641, 9.202835
1137.124, 9.504401
1137.606, 9.557282
1138.088, 9.425323
1138.570, 9.299699
1139.052, 9.206248
1139.534, 9.324238
1140.016, 9.635143
1140.498, 9.825940
1140.981, 9.750710
1141.463, 9.539630
1141.945, 9.279599
1142.427, 9.034433
1142.909, 8.924395
1143.391, 8.909526
1143.873, 8.809325
1144.355, 8.732139
1144.838, 9.203185
1145.320, 10.24588
1145.802, 10.97519
1146.284, 10.73457
1146.766, 10.16384
1147.248, 9.781628
1147.730, 9.544978
1148.212, 9.349040
1148.694, 9.285735
1149.177, 9.632498
1149.659, 10.28245
1150.141, 10.75274
1150.623, 10.85666
1151.105, 10.80934
1151.587, 10.68890
1152.069, 10.52947
1152.551, 10.31985
1153.033, 10.11246
1153.516, 9.928556
1153.998, 9.802584
1154.480, 9.838363
1154.962, 10.03747
1155.444, 10.11101
1155.926, 9.680392
1156.408, 9.531322
1156.890, 10.33817
1157.373, 10.99136
1157.855, 10.64180
1158.337, 9.953020
1158.819, 9.643662
1159.301, 9.723767
1159.783, 10.03474
1160.265, 10.81225
1160.747, 11.14801
1161.229, 10.59009
1161.712, 10.14723
1162.194, 10.09779
1162.676, 10.15692
1163.158, 10.14114
1163.640, 10.11273
1164.122, 10.20633
1164.604, 10.42984
1165.086, 10.49435
1165.568, 10.29799
1166.051, 10.27249
1166.533, 10.53543
1167.015, 10.73435
1167.497, 10.70802
1167.979, 10.60028
1168.461, 10.55058
1168.943, 10.54829
1169.425, 10.58082
1169.908, 10.65194
1170.390, 10.58524
1170.872, 10.37449
1171.354, 10.17323
1171.836, 10.01631
1172.318, 9.909155
1172.800, 9.859376
1173.282, 9.806305
1173.765, 9.650572
1174.247, 9.436081
1174.729, 9.320436
1175.211, 9.258722
1175.693, 8.967480
1176.175, 8.543855
1176.657, 8.628170
1177.139, 9.367858
1177.621, 10.06081
1178.104, 10.19533
1178.586, 10.04992
1179.068, 9.743872
1179.550, 9.525832
1180.032, 9.931570
1180.514, 10.59104
1180.996, 10.81339
1181.478, 10.59276
1181.960, 10.31323
1182.443, 10.11186
1182.925, 9.938200
1183.407, 9.684618
1183.889, 9.548331
1184.371, 9.805470
1184.853, 10.08165
1185.335, 9.923089
1185.817, 9.622920
1186.300, 9.792679
1186.782, 10.40475
1187.264, 10.63559
1187.746, 10.05568
1188.228, 9.639347
1188.710, 9.558640
1189.192, 9.660808
1189.674, 10.05035
1190.156, 10.45129
1190.639, 10.67400
1191.121, 10.74069
1191.603, 10.64637
1192.085, 10.83921
1192.567, 10.95720
1193.049, 10.96279
1193.531, 11.29940
1194.013, 11.22965
1194.495, 11.26532
1194.978, 11.69161
1195.460, 12.07192
1195.942, 11.92069
1196.424, 11.44100
1196.906, 11.23416
1197.388, 11.28789
1197.870, 11.35470
1198.352, 11.43174
1198.835, 11.57313
1199.317, 11.78274
1199.799, 11.97230
1200.281, 12.09594
1200.763, 12.12791
1201.245, 12.01330
1201.727, 11.82230
1202.209, 11.65133
1202.692, 11.51391
1203.174, 11.46766
1203.656, 11.47192
1204.138, 11.45346
1204.620, 11.36935
1205.102, 11.07566
1205.584, 10.42192
1206.066, 9.964113
1206.548, 10.33148
1207.031, 10.79478
1207.513, 10.78885
1207.995, 10.58747
1208.477, 10.47726
1208.959, 10.43013
1209.441, 10.32124
1209.923, 10.13277
1210.405, 9.946540
1210.887, 9.719212
1211.370, 9.594823
1211.852, 9.668854
1212.334, 9.758494
1212.816, 9.853314
1213.298, 9.865063
1213.780, 9.602236
1214.262, 9.261175
1214.744, 9.394825
1215.227, 10.08343
1215.709, 10.33496
1216.191, 10.00943
1216.673, 9.842119
1217.155, 9.957876
1217.637, 10.10513
1218.119, 10.19405
1218.601, 10.13682
1219.083, 9.808306
1219.566, 9.370681
1220.048, 9.295081
1220.530, 8.946266
1221.012, 9.211374
1221.494, 8.660035
1221.976, 8.510990
1222.458, 8.790368
1222.940, 8.818191
1223.422, 8.305423
1223.905, 7.927015
1224.387, 8.443774
1224.869, 9.112002
1225.351, 9.143324
1225.833, 8.857258
1226.315, 8.419174
1226.797, 8.068538
1227.279, 8.307874
1227.762, 8.986444
1228.244, 9.249822
1228.726, 8.741080
1229.208, 8.391839
1229.690, 8.625226
1230.172, 8.916787
1230.654, 9.033072
1231.136, 9.204226
1231.619, 9.828045
1232.101, 10.42549
1232.583, 10.26046
1233.065, 9.471595
1233.547, 8.948239
1234.029, 8.680882
1234.511, 8.760451
1234.993, 9.325583
1235.475, 9.704341
1235.958, 9.716223
1236.440, 9.668698
1236.922, 9.749756
1237.404, 9.808343
1237.886, 9.607845
1238.368, 9.272616
1238.850, 9.207788
1239.332, 9.347317
1239.814, 9.444262
1240.297, 9.481641
1240.779, 9.485614
1241.261, 9.456195
1241.743, 9.324515
1242.225, 9.043937
1242.707, 8.852970
1243.189, 9.083588
1243.671, 9.361621
1244.154, 9.237354
1244.636, 9.080092
1245.118, 9.427399
1245.600, 9.965329
1246.082, 10.07526
1246.564, 9.761807
1247.046, 9.547636
1247.528, 9.581038
1248.010, 9.624439
1248.493, 9.775411
1248.975, 9.726607
1249.457, 9.109556
1249.939, 8.676270
1250.421, 8.987250
1250.903, 9.527906
1251.385, 9.577082
1251.867, 9.755796
1252.349, 9.853565
1252.832, 9.702191
1253.314, 9.802992
1253.796, 9.549386
1254.278, 9.446659
1254.760, 9.604300
1255.242, 9.753173
1255.724, 9.745557
1256.206, 9.744143
1256.689, 9.992764
1257.171, 10.25853
1257.653, 10.04391
1258.135, 9.649786
1258.617, 9.631321
1259.099, 9.839319
1259.581, 9.895830
1260.063, 9.776199
1260.546, 9.680372
1261.028, 9.677980
1261.510, 9.697095
1261.992, 9.752641
1262.474, 9.756765
1262.956, 9.714340
1263.438, 9.564526
1263.920, 9.099985
1264.402, 8.634225
1264.885, 8.441565
1265.367, 8.576694
1265.849, 9.358217
1266.331, 11.05308
1266.813, 11.60052
1267.295, 10.76048
1267.777, 9.834127
1268.259, 8.950736
1268.741, 8.554433
1269.224, 8.868772
1269.706, 9.254681
1270.188, 9.089383
1270.670, 8.711167
1271.152, 8.766144
1271.634, 9.078470
1272.116, 9.296309
1272.598, 9.409330
1273.081, 9.415262
1273.563, 9.324161
1274.045, 9.101104
1274.527, 8.767785
1275.009, 8.616893
1275.491, 8.941434
1275.973, 9.143571
1276.455, 8.809966
1276.938, 8.429429
1277.420, 8.220227
1277.902, 8.132558
1278.384, 8.156514
1278.866, 8.244006
1279.348, 8.346171
1279.830, 8.453451
1280.312, 8.295141
1280.794, 7.744298
1281.276, 7.427996
1281.759, 7.387319
1282.241, 7.524145
1282.723, 7.830317
1283.205, 8.114780
1283.687, 8.260759
1284.169, 8.372474
1284.651, 8.626700
1285.133, 8.870850
1285.616, 8.841193
1286.098, 8.536383
##END=



