##NAMES=Guanacoite
##RRUFFID=R060811
##IDEAL CHEMISTRY=Cu^2+^_2_Mg_3_(As^5+^O_4_)_2_(OH)_4_&#183;4H_2_O
##LOCALITY=Guanaco mine, Tal Tal, Chile
##OWNER=RRUFF
##SOURCE=Bob Jenkins
##DESCRIPTION=Tufts of light blue acicular crystals
##STATUS=The identification of this mineral has been confirmed only by single crystal X-ray diffraction.
##URL=rruff.info/R060811
123.938, 545.032
124.420, 575.049
124.902, 611.529
125.385, 653.342
125.867, 697.203
126.349, 748.015
126.831, 793.344
127.313, 822.106
127.795, 833.374
128.277, 838.367
128.760, 845.433
129.242, 854.518
129.724, 860.716
130.206, 863.760
130.688, 862.354
131.170, 855.772
131.652, 843.915
132.134, 827.002
132.616, 803.429
133.098, 771.400
133.581, 742.192
134.063, 717.630
134.545, 697.211
135.027, 680.423
135.509, 667.128
135.991, 659.040
136.473, 660.281
136.955, 675.221
137.438, 687.366
137.920, 687.689
138.402, 687.761
138.884, 697.067
139.366, 718.862
139.848, 747.809
140.330, 773.388
140.812, 790.102
141.294, 814.205
141.777, 854.222
142.259, 897.946
142.741, 935.037
143.223, 961.077
143.705, 978.539
144.187, 993.581
144.669, 1005.527
145.151, 1015.489
145.633, 1020.344
146.116, 1024.712
146.598, 1033.751
147.080, 1049.932
147.562, 1071.269
148.044, 1091.443
148.526, 1115.977
149.008, 1132.055
149.490, 1132.322
149.973, 1125.396
150.455, 1123.286
150.937, 1132.620
151.419, 1148.722
151.901, 1151.317
152.383, 1130.696
152.865, 1106.831
153.347, 1079.944
153.829, 1051.771
154.312, 1024.504
154.794, 999.090
155.276, 975.323
155.758, 951.532
156.240, 926.839
156.722, 903.118
157.204, 880.674
157.686, 859.350
158.169, 837.671
158.651, 814.037
159.133, 790.043
159.615, 777.715
160.097, 783.754
160.579, 791.603
161.061, 797.135
161.543, 800.871
162.025, 804.724
162.508, 810.141
162.990, 816.445
163.472, 818.622
163.954, 809.003
164.436, 804.009
164.918, 814.746
165.400, 835.693
165.883, 851.522
166.365, 851.857
166.847, 839.787
167.329, 834.419
167.811, 839.721
168.293, 846.654
168.775, 851.596
169.257, 854.936
169.739, 858.726
170.221, 865.156
170.704, 872.470
171.186, 873.216
171.668, 862.364
172.150, 850.508
172.632, 841.451
173.114, 835.423
173.596, 833.716
174.078, 838.529
174.561, 847.907
175.043, 853.488
175.525, 852.018
176.007, 850.112
176.489, 854.202
176.971, 862.503
177.453, 864.172
177.935, 849.585
178.417, 825.243
178.900, 813.326
179.382, 823.124
179.864, 834.849
180.346, 835.145
180.828, 825.490
181.310, 815.738
181.792, 810.822
182.274, 809.516
182.757, 807.779
183.239, 807.864
183.721, 804.787
184.203, 792.680
184.685, 772.821
185.167, 754.778
185.649, 742.821
186.131, 736.503
186.613, 733.630
187.096, 738.061
187.578, 740.265
188.060, 730.413
188.542, 710.035
189.024, 693.630
189.506, 689.395
189.988, 692.319
190.470, 692.233
190.952, 689.585
191.435, 682.787
191.917, 666.451
192.399, 642.214
192.881, 625.285
193.363, 625.010
193.845, 634.065
194.327, 639.352
194.809, 640.139
195.292, 638.365
195.774, 632.682
196.256, 624.066
196.738, 621.230
197.220, 631.280
197.702, 645.702
198.184, 651.174
198.666, 644.883
199.148, 637.989
199.631, 637.881
200.113, 643.917
200.595, 652.031
201.077, 661.618
201.559, 672.289
202.041, 683.885
202.523, 696.961
203.005, 708.211
203.488, 714.903
203.970, 717.614
204.452, 719.879
204.934, 723.524
205.416, 725.873
205.898, 721.975
206.380, 710.638
206.862, 703.990
207.344, 713.393
207.827, 734.771
208.309, 750.996
208.791, 758.085
209.273, 758.359
209.755, 752.687
210.237, 740.953
210.719, 732.641
211.201, 735.637
211.684, 746.434
212.166, 754.114
212.648, 757.025
213.130, 755.443
213.612, 748.149
214.094, 735.793
214.576, 724.985
215.058, 719.349
215.540, 717.522
216.023, 715.728
216.505, 712.765
216.987, 711.344
217.469, 715.662
217.951, 724.378
218.433, 730.863
218.915, 732.281
219.397, 729.809
219.880, 724.876
220.362, 716.561
220.844, 708.817
221.326, 708.305
221.808, 711.926
222.290, 709.384
222.772, 690.366
223.254, 665.749
223.736, 654.395
224.219, 660.078
224.701, 665.625
225.183, 654.724
225.665, 633.476
226.147, 617.081
226.629, 610.085
227.111, 609.010
227.593, 612.037
228.076, 619.770
228.558, 624.395
229.040, 618.838
229.522, 606.490
230.004, 595.702
230.486, 585.956
230.968, 579.451
231.450, 580.478
231.932, 588.804
232.415, 594.953
232.897, 592.619
233.379, 584.848
233.861, 579.461
234.343, 576.416
234.825, 576.233
235.307, 580.501
235.789, 588.558
236.271, 597.026
236.754, 606.042
237.236, 612.944
237.718, 612.360
238.200, 600.904
238.682, 589.541
239.164, 583.071
239.646, 581.093
240.128, 582.704
240.611, 588.330
241.093, 596.312
241.575, 604.031
242.057, 611.876
242.539, 618.318
243.021, 622.700
243.503, 625.333
243.985, 626.453
244.467, 625.844
244.950, 624.675
245.432, 623.317
245.914, 620.404
246.396, 624.422
246.878, 645.375
247.360, 670.989
247.842, 684.652
248.324, 682.785
248.807, 674.898
249.289, 670.208
249.771, 668.786
250.253, 671.347
250.735, 680.451
251.217, 692.001
251.699, 704.103
252.181, 716.123
252.663, 724.028
253.146, 721.441
253.628, 707.751
254.110, 710.623
254.592, 746.879
255.074, 784.287
255.556, 801.248
256.038, 800.786
256.520, 800.083
257.003, 810.906
257.485, 832.093
257.967, 850.293
258.449, 858.049
258.931, 871.209
259.413, 898.524
259.895, 935.214
260.377, 971.763
260.859, 1003.396
261.342, 1030.949
261.824, 1057.085
262.306, 1077.890
262.788, 1102.278
263.270, 1134.408
263.752, 1169.909
264.234, 1202.298
264.716, 1229.115
265.198, 1254.381
265.681, 1286.139
266.163, 1335.135
266.645, 1374.679
267.127, 1400.158
267.609, 1419.421
268.091, 1438.066
268.573, 1457.610
269.056, 1477.604
269.538, 1497.989
270.020, 1521.343
270.502, 1536.615
270.984, 1537.579
271.466, 1537.468
271.948, 1547.832
272.430, 1565.829
272.912, 1576.852
273.395, 1564.171
273.877, 1524.237
274.359, 1505.051
274.841, 1489.215
275.323, 1462.894
275.805, 1450.034
276.287, 1433.907
276.769, 1414.689
277.251, 1383.115
277.734, 1367.490
278.216, 1345.477
278.698, 1326.627
279.180, 1316.237
279.662, 1301.768
280.144, 1285.630
280.626, 1272.589
281.108, 1265.030
281.591, 1259.631
282.073, 1249.330
282.555, 1232.518
283.037, 1215.020
283.519, 1192.006
284.001, 1172.417
284.483, 1166.354
284.965, 1175.910
285.447, 1187.556
285.930, 1184.196
286.412, 1164.312
286.894, 1148.150
287.376, 1142.179
287.858, 1137.795
288.340, 1127.636
288.822, 1112.554
289.304, 1101.011
289.786, 1101.662
290.269, 1111.667
290.751, 1116.757
291.233, 1113.132
291.715, 1109.723
292.197, 1112.333
292.679, 1119.786
293.161, 1129.560
293.643, 1139.898
294.125, 1152.259
294.608, 1171.456
295.090, 1199.021
295.572, 1222.313
296.054, 1230.552
296.536, 1229.647
297.018, 1231.976
297.500, 1240.930
297.983, 1251.026
298.465, 1255.386
298.947, 1255.786
299.429, 1263.606
299.911, 1286.296
300.393, 1316.123
300.875, 1337.177
301.357, 1346.317
301.839, 1355.994
302.322, 1370.771
302.804, 1389.022
303.286, 1408.307
303.768, 1428.180
304.250, 1448.107
304.732, 1466.770
305.214, 1482.913
305.696, 1503.809
306.178, 1531.278
306.661, 1562.803
307.143, 1596.795
307.625, 1632.992
308.107, 1671.035
308.589, 1710.904
309.071, 1752.648
309.553, 1795.565
310.035, 1842.981
310.517, 1887.722
311.000, 1925.952
311.482, 1959.325
311.964, 1991.669
312.446, 2024.918
312.928, 2058.975
313.410, 2093.678
313.892, 2145.467
314.374, 2176.274
314.857, 2170.386
315.339, 2148.633
315.821, 2117.131
316.303, 2081.866
316.785, 2032.653
317.267, 2002.886
317.749, 1968.397
318.231, 1929.434
318.714, 1872.640
319.196, 1838.884
319.678, 1795.893
320.160, 1752.526
320.642, 1716.928
321.124, 1645.017
321.606, 1581.136
322.088, 1523.248
322.570, 1477.398
323.052, 1430.219
323.535, 1371.990
324.017, 1309.362
324.499, 1253.292
324.981, 1209.135
325.463, 1174.616
325.945, 1147.444
326.427, 1129.875
326.909, 1110.074
327.392, 1082.362
327.874, 1050.278
328.356, 1015.807
328.838, 978.004
329.320, 943.548
329.802, 920.884
330.284, 907.285
330.766, 887.961
331.249, 855.977
331.731, 823.049
332.213, 804.862
332.695, 800.500
333.177, 795.718
333.659, 784.197
334.141, 770.786
334.623, 762.441
335.105, 759.909
335.588, 757.113
336.070, 748.319
336.552, 734.128
337.034, 725.146
337.516, 725.057
337.998, 726.303
338.480, 723.617
338.962, 719.309
339.444, 720.449
339.927, 731.354
340.409, 747.044
340.891, 753.523
341.373, 739.706
341.855, 730.568
342.337, 727.985
342.819, 729.834
343.301, 736.213
343.784, 746.210
344.266, 755.196
344.748, 756.185
345.230, 745.222
345.712, 743.331
346.194, 757.286
346.676, 773.298
347.158, 787.143
347.641, 798.531
348.123, 808.673
348.605, 819.202
349.087, 828.445
349.569, 827.446
350.051, 807.194
350.533, 793.556
351.015, 795.585
351.497, 805.935
351.979, 818.588
352.462, 832.193
352.944, 844.308
353.426, 851.405
353.908, 853.430
354.390, 855.724
354.872, 861.215
355.354, 864.983
355.836, 860.849
356.319, 849.822
356.801, 842.649
357.283, 847.330
357.765, 858.254
358.247, 866.388
358.729, 871.185
359.211, 872.420
359.693, 868.070
360.176, 859.721
360.658, 854.886
361.140, 855.624
361.622, 858.116
362.104, 860.394
362.586, 862.820
363.068, 866.370
363.550, 871.496
364.032, 877.782
364.515, 884.453
364.997, 890.791
365.479, 898.983
365.961, 914.289
366.443, 928.089
366.925, 930.694
367.407, 922.590
367.889, 914.341
368.371, 916.677
368.854, 930.483
369.336, 939.765
369.818, 941.783
370.300, 942.164
370.782, 939.919
371.264, 937.520
371.746, 939.330
372.228, 947.859
372.711, 958.957
373.193, 962.026
373.675, 951.947
374.157, 949.144
374.639, 964.612
375.121, 983.742
375.603, 997.864
376.085, 1005.957
376.568, 1011.196
377.050, 1014.852
377.532, 1017.434
378.014, 1020.950
378.496, 1024.925
378.978, 1031.254
379.460, 1044.630
379.942, 1061.381
380.424, 1073.526
380.906, 1077.412
381.389, 1077.639
381.871, 1077.066
382.353, 1075.905
382.835, 1075.159
383.317, 1075.226
383.799, 1075.982
384.281, 1077.163
384.763, 1078.517
385.246, 1080.822
385.728, 1087.025
386.210, 1092.653
386.692, 1093.246
387.174, 1088.246
387.656, 1079.277
388.138, 1066.878
388.620, 1050.518
389.103, 1040.661
389.585, 1041.002
390.067, 1043.212
390.549, 1046.835
391.031, 1050.378
391.513, 1051.909
391.995, 1050.547
392.477, 1047.100
392.959, 1043.077
393.442, 1038.462
393.924, 1033.259
394.406, 1027.480
394.888, 1021.040
395.370, 1013.571
395.852, 1005.198
396.334, 996.779
396.816, 988.946
397.298, 981.535
397.781, 974.572
398.263, 968.875
398.745, 961.084
399.227, 944.928
399.709, 926.371
400.191, 916.873
400.673, 924.125
401.155, 930.880
401.638, 922.198
402.120, 903.302
402.602, 889.310
403.084, 884.660
403.566, 886.850
404.048, 894.617
404.530, 911.615
405.012, 917.999
405.495, 901.806
405.977, 883.724
406.459, 878.784
406.941, 885.441
407.423, 894.020
407.905, 898.303
408.387, 898.711
408.869, 897.347
409.351, 892.909
409.833, 888.323
410.316, 881.313
410.798, 875.794
411.280, 877.758
411.762, 887.455
412.244, 895.947
412.726, 889.527
413.208, 867.325
413.690, 858.016
414.173, 871.714
414.655, 885.737
415.137, 887.124
415.619, 880.258
416.101, 874.060
416.583, 872.046
417.065, 871.674
417.547, 869.179
418.030, 864.926
418.512, 864.268
418.994, 871.707
419.476, 880.294
419.958, 876.965
420.440, 859.502
420.922, 846.099
421.404, 843.257
421.886, 845.007
422.369, 845.921
422.851, 845.472
423.333, 845.039
423.815, 845.333
424.297, 846.600
424.779, 851.263
425.261, 866.281
425.743, 876.285
426.225, 875.525
426.708, 870.247
427.190, 866.223
427.672, 865.380
428.154, 867.647
428.636, 875.131
429.118, 889.587
429.600, 895.240
430.082, 885.005
430.565, 873.551
431.047, 866.287
431.529, 862.902
432.011, 862.861
432.493, 867.945
432.975, 873.485
433.457, 871.995
433.939, 863.787
434.422, 857.451
434.904, 856.085
435.386, 857.575
435.868, 858.748
436.350, 859.354
436.832, 861.439
437.314, 868.345
437.796, 875.143
438.278, 877.426
438.760, 874.854
439.243, 867.929
439.725, 856.114
440.207, 840.910
440.689, 830.896
441.171, 832.427
441.653, 831.512
442.135, 825.538
442.617, 817.312
443.100, 808.119
443.582, 798.906
444.064, 792.338
444.546, 794.142
445.028, 804.648
445.510, 802.561
445.992, 777.922
446.474, 754.997
446.957, 746.450
447.439, 745.690
447.921, 742.729
448.403, 734.125
448.885, 723.542
449.367, 713.495
449.849, 704.288
450.331, 698.314
450.813, 697.129
451.296, 696.846
451.778, 692.167
452.260, 682.805
452.742, 676.358
453.224, 678.240
453.706, 679.111
454.188, 670.760
454.670, 656.200
455.152, 643.871
455.635, 638.029
456.117, 637.088
456.599, 637.722
457.081, 644.426
457.563, 644.197
458.045, 631.774
458.527, 617.466
459.009, 606.950
459.492, 600.453
459.974, 595.649
460.456, 591.128
460.938, 586.904
461.420, 583.127
461.902, 580.044
462.384, 576.430
462.866, 571.169
463.349, 565.540
463.831, 561.475
464.313, 559.560
464.795, 556.295
465.277, 547.093
465.759, 536.549
466.241, 532.729
466.723, 536.407
467.205, 541.391
467.688, 543.258
468.170, 542.263
468.652, 540.789
469.134, 537.451
469.616, 535.397
470.098, 538.271
470.580, 541.203
471.062, 535.623
471.544, 521.116
472.027, 509.702
472.509, 518.188
472.991, 547.958
473.473, 563.301
473.955, 554.533
474.437, 544.525
474.919, 542.890
475.401, 545.489
475.884, 545.932
476.366, 541.555
476.848, 537.710
477.330, 540.278
477.812, 547.837
478.294, 554.873
478.776, 560.473
479.258, 564.700
479.741, 567.396
480.223, 568.498
480.705, 569.591
481.187, 567.026
481.669, 568.265
482.151, 583.454
482.633, 603.537
483.115, 609.343
483.597, 594.053
484.079, 573.181
484.562, 572.351
485.044, 598.929
485.526, 619.754
486.008, 629.707
486.490, 638.734
486.972, 652.659
487.454, 668.019
487.936, 677.119
488.419, 674.880
488.901, 668.832
489.383, 670.931
489.865, 680.429
490.347, 683.808
490.829, 675.476
491.311, 663.718
491.793, 658.654
492.276, 659.745
492.758, 657.780
493.240, 647.790
493.722, 637.579
494.204, 633.172
494.686, 632.764
495.168, 631.919
495.650, 628.760
496.132, 622.864
496.615, 612.361
497.097, 591.930
497.579, 580.216
498.061, 588.172
498.543, 593.833
499.025, 583.558
499.507, 562.989
499.989, 546.788
500.471, 543.729
500.954, 545.679
501.436, 537.780
501.918, 519.957
502.400, 508.075
502.882, 509.837
503.364, 513.851
503.846, 504.216
504.328, 482.026
504.810, 466.297
505.293, 466.723
505.775, 469.441
506.257, 464.523
506.739, 453.624
507.221, 441.499
507.703, 430.044
508.185, 420.767
508.668, 417.255
509.150, 423.783
509.632, 425.557
510.114, 417.722
510.596, 410.084
511.078, 407.922
511.560, 409.356
512.042, 409.980
512.524, 408.075
513.006, 403.394
513.489, 392.764
513.971, 376.630
514.453, 368.330
514.935, 373.624
515.417, 383.298
515.899, 387.840
516.381, 387.622
516.864, 386.899
517.346, 388.433
517.828, 387.492
518.310, 377.262
518.792, 362.902
519.274, 355.983
519.756, 361.068
520.238, 371.394
520.720, 376.375
521.203, 374.665
521.685, 372.634
522.167, 371.231
522.649, 368.455
523.131, 360.491
523.613, 351.332
524.095, 348.866
524.577, 357.772
525.059, 368.191
525.542, 367.715
526.024, 358.724
526.506, 353.601
526.988, 355.568
527.470, 358.556
527.952, 356.251
528.434, 348.950
528.916, 346.296
529.398, 351.981
529.881, 358.038
530.363, 365.047
530.845, 369.267
531.327, 362.771
531.809, 344.841
532.291, 327.097
532.773, 324.068
533.255, 336.081
533.737, 345.462
534.220, 353.836
534.702, 356.762
535.184, 346.856
535.666, 333.599
536.148, 329.009
536.630, 336.318
537.112, 346.064
537.594, 354.100
538.077, 359.543
538.559, 358.889
539.041, 351.994
539.523, 346.809
540.005, 349.835
540.487, 358.693
540.969, 361.616
541.451, 353.398
541.933, 346.210
542.416, 339.117
542.898, 334.668
543.380, 336.605
543.862, 343.794
544.344, 350.889
544.826, 354.661
545.308, 354.848
545.791, 348.937
546.273, 335.193
546.755, 325.419
547.237, 323.959
547.719, 327.672
548.201, 333.375
548.683, 341.105
549.165, 348.332
549.647, 357.920
550.130, 363.828
550.612, 357.224
551.094, 342.553
551.576, 333.157
552.058, 335.056
552.540, 342.353
553.022, 343.786
553.504, 335.632
553.987, 333.105
554.469, 343.186
554.951, 352.135
555.433, 354.723
555.915, 352.683
556.397, 349.185
556.879, 344.882
557.361, 340.935
557.843, 338.622
558.326, 337.636
558.808, 336.870
559.290, 336.101
559.772, 335.820
560.254, 336.469
560.736, 338.010
561.218, 339.904
561.700, 346.025
562.182, 347.542
562.665, 336.144
563.147, 323.293
563.629, 323.489
564.111, 336.355
564.593, 346.476
565.075, 338.432
565.557, 317.683
566.039, 307.690
566.521, 310.850
567.004, 314.638
567.486, 314.492
567.968, 313.272
568.450, 313.906
568.932, 316.297
569.414, 321.830
569.896, 338.032
570.378, 351.631
570.860, 347.258
571.343, 330.864
571.825, 320.505
572.307, 324.172
572.789, 334.933
573.271, 340.544
573.753, 339.312
574.235, 339.384
574.718, 340.724
575.200, 343.530
575.682, 350.129
576.164, 357.586
576.646, 360.611
577.128, 356.786
577.610, 351.744
578.092, 349.433
578.574, 349.322
579.057, 351.891
579.539, 357.122
580.021, 357.844
580.503, 346.584
580.985, 327.200
581.467, 321.040
581.949, 345.184
582.431, 360.284
582.914, 357.188
583.396, 350.044
583.878, 350.849
584.360, 358.113
584.842, 360.962
585.324, 349.732
585.806, 333.611
586.288, 331.723
586.770, 343.605
587.253, 351.927
587.735, 351.522
588.217, 346.984
588.699, 341.633
589.181, 335.308
589.663, 335.456
590.145, 350.044
590.627, 362.364
591.109, 366.011
591.592, 363.213
592.074, 354.685
592.556, 341.807
593.038, 331.660
593.520, 333.762
594.002, 346.098
594.484, 351.918
594.966, 350.298
595.448, 344.646
595.931, 331.000
596.413, 317.562
596.895, 316.416
597.377, 329.335
597.859, 341.632
598.341, 352.703
598.823, 358.466
599.305, 351.842
599.787, 337.021
600.270, 324.452
600.752, 318.724
601.234, 318.469
601.716, 322.489
602.198, 332.138
602.680, 338.688
603.162, 340.774
603.644, 341.567
604.127, 342.401
604.609, 343.018
605.091, 342.751
605.573, 341.010
606.055, 340.139
606.537, 343.502
607.019, 347.488
607.501, 345.375
607.984, 337.827
608.466, 333.081
608.948, 336.867
609.430, 345.480
609.912, 347.954
610.394, 340.627
610.876, 335.454
611.358, 333.003
611.841, 332.942
612.323, 336.756
612.805, 342.746
613.287, 347.568
613.769, 350.908
614.251, 350.772
614.733, 340.833
615.215, 326.889
615.697, 323.538
616.180, 333.142
616.662, 345.570
617.144, 353.429
617.626, 357.043
618.108, 358.124
618.590, 352.507
619.072, 350.902
619.554, 360.463
620.036, 368.681
620.519, 363.572
621.001, 348.858
621.483, 339.780
621.965, 346.421
622.447, 358.274
622.929, 363.825
623.411, 363.873
623.893, 360.964
624.375, 355.513
624.858, 348.730
625.340, 340.964
625.822, 332.454
626.304, 329.669
626.786, 337.506
627.268, 344.962
627.750, 352.967
628.232, 358.609
628.714, 356.814
629.197, 349.311
629.679, 345.591
630.161, 354.735
630.643, 367.736
631.125, 369.793
631.607, 362.466
632.089, 355.735
632.571, 352.345
633.054, 350.192
633.536, 346.481
634.018, 340.995
634.500, 340.581
634.982, 354.571
635.464, 361.550
635.946, 349.241
636.428, 333.547
636.911, 330.933
637.393, 342.014
637.875, 354.051
638.357, 358.392
638.839, 358.353
639.321, 359.352
639.803, 361.302
640.285, 364.120
640.768, 368.503
641.250, 370.524
641.732, 364.099
642.214, 347.887
642.696, 340.705
643.178, 352.979
643.660, 360.611
644.142, 354.186
644.624, 343.215
645.107, 336.108
645.589, 334.491
646.071, 336.944
646.553, 344.307
647.035, 353.986
647.517, 363.163
647.999, 371.279
648.481, 372.391
648.963, 363.352
649.446, 352.461
649.928, 349.723
650.410, 355.811
650.892, 361.225
651.374, 365.861
651.856, 369.986
652.338, 377.510
652.820, 382.040
653.302, 373.883
653.785, 354.057
654.267, 337.957
654.749, 336.775
655.231, 344.598
655.713, 355.312
656.195, 367.840
656.677, 375.902
657.159, 377.418
657.641, 374.880
658.124, 370.271
658.606, 363.306
659.088, 360.990
659.570, 367.820
660.052, 373.647
660.534, 376.423
661.016, 377.861
661.498, 379.112
661.981, 380.465
662.463, 382.385
662.945, 387.555
663.427, 391.437
663.909, 385.931
664.391, 374.314
664.873, 367.861
665.355, 369.668
665.838, 374.558
666.320, 377.712
666.802, 379.085
667.284, 377.530
667.766, 368.838
668.248, 364.267
668.730, 368.007
669.212, 374.490
669.695, 380.452
670.177, 385.438
670.659, 388.986
671.141, 390.328
671.623, 390.793
672.105, 393.098
672.587, 394.977
673.069, 390.057
673.551, 377.789
674.034, 366.351
674.516, 363.423
674.998, 367.170
675.480, 367.134
675.962, 359.740
676.444, 358.402
676.926, 369.914
677.408, 383.890
677.890, 394.947
678.373, 402.474
678.855, 404.362
679.337, 395.284
679.819, 387.032
680.301, 387.446
680.783, 391.171
681.265, 391.332
681.747, 387.429
682.229, 382.512
682.712, 378.166
683.194, 375.741
683.676, 380.652
684.158, 394.555
684.640, 399.976
685.122, 389.678
685.604, 379.956
686.086, 384.213
686.568, 398.356
687.051, 407.775
687.533, 412.348
688.015, 412.057
688.497, 402.585
688.979, 391.776
689.461, 384.719
689.943, 381.993
690.425, 384.410
690.908, 393.046
691.390, 401.112
691.872, 396.109
692.354, 381.147
692.836, 375.598
693.318, 381.976
693.800, 390.663
694.282, 396.098
694.765, 400.410
695.247, 409.177
695.729, 427.193
696.211, 438.507
696.693, 442.080
697.175, 440.147
697.657, 427.972
698.139, 413.219
698.622, 408.419
699.104, 417.196
699.586, 425.306
700.068, 417.168
700.550, 403.668
701.032, 404.759
701.514, 418.616
701.996, 431.174
702.478, 437.015
702.961, 437.461
703.443, 434.012
703.925, 426.420
704.407, 417.097
704.889, 399.498
705.371, 390.960
705.853, 405.922
706.335, 425.526
706.817, 430.993
707.300, 422.117
707.782, 416.523
708.264, 424.492
708.746, 433.237
709.228, 434.013
709.710, 429.526
710.192, 422.115
710.674, 413.623
711.156, 410.450
711.639, 419.592
712.121, 436.403
712.603, 445.221
713.085, 445.294
713.567, 443.876
714.049, 441.433
714.531, 439.925
715.013, 442.187
715.495, 447.254
715.978, 448.156
716.460, 439.095
716.942, 434.091
717.424, 440.353
717.906, 447.205
718.388, 444.763
718.870, 436.001
719.352, 430.326
719.835, 432.167
720.317, 437.712
720.799, 445.031
721.281, 452.464
721.763, 454.668
722.245, 451.433
722.727, 448.442
723.209, 448.702
723.692, 451.494
724.174, 455.908
724.656, 463.492
725.138, 466.952
725.620, 462.431
726.102, 458.889
726.584, 459.659
727.066, 463.037
727.549, 468.612
728.031, 476.672
728.513, 479.203
728.995, 467.738
729.477, 454.632
729.959, 448.460
730.441, 447.922
730.923, 450.815
731.405, 456.119
731.888, 461.739
732.370, 464.879
732.852, 467.212
733.334, 477.229
733.816, 495.946
734.298, 505.411
734.780, 498.824
735.262, 487.420
735.744, 480.596
736.227, 478.197
736.709, 478.913
737.191, 486.241
737.673, 491.623
738.155, 490.140
738.637, 489.970
739.119, 500.708
739.601, 517.315
740.083, 525.324
740.566, 517.109
741.048, 506.599
741.530, 505.764
742.012, 510.192
742.494, 514.346
742.976, 516.846
743.458, 514.292
743.940, 504.744
744.422, 491.405
744.905, 477.410
745.387, 461.448
745.869, 462.058
746.351, 488.392
746.833, 508.836
747.315, 506.168
747.797, 494.630
748.279, 495.688
748.762, 510.570
749.244, 519.112
749.726, 516.627
750.208, 510.249
750.690, 495.723
751.172, 483.098
751.654, 488.457
752.136, 509.703
752.619, 524.290
753.101, 513.009
753.583, 494.782
754.065, 499.129
754.547, 518.528
755.029, 526.724
755.511, 519.462
755.993, 511.951
756.476, 515.543
756.958, 526.016
757.440, 529.878
757.922, 524.175
758.404, 522.210
758.886, 527.874
759.368, 532.800
759.850, 529.623
760.332, 523.975
760.815, 525.311
761.297, 536.096
761.779, 545.370
762.261, 550.688
762.743, 553.521
763.225, 553.533
763.707, 552.146
764.189, 550.608
764.671, 549.595
765.154, 551.085
765.636, 558.631
766.118, 568.460
766.600, 572.843
767.082, 572.785
767.564, 572.803
768.046, 573.876
768.528, 578.640
769.010, 589.820
769.493, 606.311
769.975, 622.614
770.457, 639.717
770.939, 654.082
771.421, 664.600
771.903, 673.102
772.385, 680.434
772.867, 686.671
773.349, 691.910
773.832, 695.870
774.314, 699.645
774.796, 703.518
775.278, 707.310
775.760, 709.758
776.242, 712.431
776.724, 718.512
777.206, 728.692
777.689, 739.552
778.171, 748.822
778.653, 756.452
779.135, 761.143
779.617, 763.864
780.099, 770.849
780.581, 783.922
781.063, 794.441
781.545, 792.847
782.028, 782.536
782.510, 784.439
782.992, 805.292
783.474, 815.964
783.956, 806.735
784.438, 794.507
784.920, 789.198
785.403, 789.506
785.885, 793.108
786.367, 804.063
786.849, 808.188
787.331, 794.640
787.813, 781.928
788.295, 787.374
788.777, 798.804
789.259, 792.549
789.742, 763.727
790.224, 737.597
790.706, 736.815
791.188, 746.770
791.670, 747.399
792.152, 741.656
792.634, 740.750
793.116, 746.789
793.598, 749.042
794.081, 736.898
794.563, 715.800
795.045, 705.234
795.527, 706.614
796.009, 707.354
796.491, 706.025
796.973, 703.539
797.455, 702.144
797.938, 699.204
798.420, 686.071
798.902, 649.483
799.384, 632.988
799.866, 652.612
800.348, 674.083
800.830, 687.280
801.312, 692.342
801.794, 686.061
802.277, 669.371
802.759, 660.142
803.241, 672.540
803.723, 690.277
804.205, 704.617
804.687, 713.890
805.169, 711.774
805.651, 700.547
806.133, 695.122
806.616, 706.297
807.098, 725.835
807.580, 739.398
808.062, 748.041
808.544, 758.730
809.026, 772.335
809.508, 784.349
809.990, 791.866
810.472, 797.663
810.955, 805.986
811.437, 815.983
811.919, 834.696
812.401, 870.068
812.883, 900.179
813.365, 915.095
813.847, 924.567
814.330, 937.697
814.812, 954.055
815.294, 968.636
815.776, 976.073
816.258, 987.706
816.740, 1003.591
817.222, 1027.744
817.704, 1070.471
818.186, 1123.825
818.669, 1167.505
819.151, 1193.197
819.633, 1212.984
820.115, 1233.759
820.597, 1256.941
821.079, 1290.831
821.561, 1329.474
822.043, 1349.457
822.526, 1343.999
823.008, 1337.849
823.490, 1359.612
823.972, 1401.220
824.454, 1429.329
824.936, 1443.526
825.418, 1453.119
825.900, 1459.721
826.382, 1462.920
826.865, 1462.567
827.347, 1458.458
827.829, 1449.154
828.311, 1428.348
828.793, 1416.024
829.275, 1423.284
829.757, 1425.599
830.239, 1411.735
830.721, 1388.597
831.204, 1364.616
831.686, 1340.586
832.168, 1314.223
832.650, 1278.915
833.132, 1248.285
833.614, 1231.889
834.096, 1221.504
834.578, 1206.929
835.060, 1189.030
835.543, 1177.196
836.025, 1177.624
836.507, 1180.875
836.989, 1179.117
837.471, 1173.294
837.953, 1164.627
838.435, 1153.449
838.917, 1139.112
839.400, 1121.519
839.882, 1105.602
840.364, 1098.469
840.846, 1098.576
841.328, 1097.743
841.810, 1095.947
842.292, 1094.248
842.774, 1092.820
843.256, 1091.790
843.739, 1090.410
844.221, 1089.999
844.703, 1097.617
845.185, 1118.932
845.667, 1134.012
846.149, 1136.034
846.631, 1139.549
847.114, 1155.605
847.596, 1175.802
848.078, 1185.501
848.560, 1181.346
849.042, 1187.626
849.524, 1215.035
850.006, 1244.543
850.488, 1270.062
850.970, 1293.351
851.453, 1315.084
851.935, 1336.409
852.417, 1360.599
852.899, 1389.573
853.381, 1420.230
853.863, 1450.593
854.345, 1481.120
854.827, 1509.017
855.309, 1537.427
855.792, 1577.294
856.274, 1631.956
856.756, 1686.272
857.238, 1720.369
857.720, 1744.460
858.202, 1782.527
858.684, 1833.641
859.166, 1895.768
859.648, 1968.499
860.131, 2038.113
860.613, 2093.538
861.095, 2139.364
861.577, 2188.150
862.059, 2240.934
862.541, 2291.261
863.023, 2340.344
863.505, 2382.085
863.987, 2412.850
864.470, 2435.892
864.952, 2457.514
865.434, 2479.227
865.916, 2482.259
866.398, 2455.962
866.880, 2426.670
867.362, 2404.551
867.844, 2375.617
868.327, 2325.810
868.809, 2261.718
869.291, 2202.644
869.773, 2154.949
870.255, 2103.350
870.737, 2041.122
871.219, 1976.657
871.701, 1912.527
872.183, 1851.350
872.666, 1796.412
873.148, 1748.435
873.630, 1704.715
874.112, 1670.227
874.594, 1632.729
875.076, 1574.575
875.558, 1510.976
876.041, 1463.842
876.523, 1434.086
877.005, 1413.163
877.487, 1397.249
877.969, 1382.875
878.451, 1369.777
878.933, 1353.941
879.415, 1319.913
879.897, 1271.741
880.380, 1235.855
880.862, 1219.969
881.344, 1207.546
881.826, 1183.871
882.308, 1151.254
882.790, 1115.924
883.272, 1077.534
883.754, 1043.941
884.237, 1016.143
884.719, 992.727
885.201, 973.816
885.683, 956.867
886.165, 936.834
886.647, 913.052
887.129, 893.793
887.611, 881.916
888.093, 868.572
888.576, 849.731
889.058, 830.866
889.540, 817.682
890.022, 808.351
890.504, 795.039
890.986, 776.012
891.468, 756.182
891.950, 733.315
892.432, 712.555
892.915, 696.637
893.397, 683.961
893.879, 673.305
894.361, 664.296
894.843, 655.094
895.325, 646.299
895.807, 635.667
896.289, 619.895
896.771, 603.638
897.254, 592.310
897.736, 584.221
898.218, 573.137
898.700, 556.514
899.182, 542.723
899.664, 537.737
900.146, 538.681
900.628, 547.990
901.110, 558.981
901.593, 556.456
902.075, 540.083
902.557, 525.433
903.039, 523.389
903.521, 525.743
904.003, 519.680
904.485, 509.095
904.968, 506.379
905.450, 510.143
905.932, 506.179
906.414, 489.035
906.896, 469.238
907.378, 458.244
907.860, 454.175
908.342, 449.494
908.824, 444.402
909.307, 446.105
909.789, 456.560
910.271, 463.802
910.753, 460.171
911.235, 449.330
911.717, 437.255
912.199, 423.318
912.681, 416.872
913.164, 420.138
913.646, 422.924
914.128, 422.657
914.610, 420.212
915.092, 415.360
915.574, 409.164
916.056, 407.128
916.538, 411.116
917.020, 415.238
917.503, 420.784
917.985, 424.458
918.467, 423.008
918.949, 420.189
919.431, 421.556
919.913, 427.201
920.395, 430.240
920.877, 434.787
921.359, 430.503
921.842, 403.030
922.324, 378.743
922.806, 378.790
923.288, 392.783
923.770, 398.431
924.252, 390.494
924.734, 388.603
925.216, 409.604
925.698, 424.201
926.181, 412.571
926.663, 392.124
927.145, 377.976
927.627, 372.036
928.109, 372.798
928.591, 381.508
929.073, 390.731
929.555, 398.957
930.037, 403.496
930.520, 399.739
931.002, 391.637
931.484, 383.986
931.966, 378.741
932.448, 379.652
932.930, 393.407
933.412, 405.620
933.894, 398.397
934.377, 383.689
934.859, 379.953
935.341, 384.467
935.823, 382.745
936.305, 370.510
936.787, 361.202
937.269, 371.124
937.751, 387.573
938.234, 388.947
938.716, 380.451
939.198, 374.191
939.680, 371.974
940.162, 361.167
940.644, 371.857
941.126, 377.329
941.608, 377.862
942.091, 358.669
942.573, 364.949
943.055, 361.020
943.537, 356.673
944.019, 366.539
944.501, 359.689
944.983, 368.783
945.465, 383.714
945.947, 388.288
946.430, 383.319
946.912, 376.435
947.394, 367.813
947.876, 365.249
948.358, 371.832
948.840, 380.378
949.322, 384.761
949.804, 384.360
950.286, 374.350
950.769, 353.206
951.251, 342.752
951.733, 346.032
952.215, 353.726
952.697, 363.647
953.179, 370.394
953.661, 365.683
954.143, 351.053
954.625, 344.148
955.108, 346.067
955.590, 352.565
956.072, 366.911
956.554, 375.955
957.036, 371.316
957.518, 358.607
958.000, 346.546
958.482, 334.753
958.964, 327.911
959.447, 325.317
959.929, 329.993
960.411, 347.627
960.893, 364.654
961.375, 371.117
961.857, 370.740
962.339, 372.275
962.821, 375.877
963.304, 380.854
963.786, 390.175
964.268, 396.187
964.750, 396.879
965.232, 393.837
965.714, 386.138
966.196, 375.642
966.678, 369.317
967.161, 367.822
967.643, 368.976
968.125, 378.296
968.607, 383.303
969.089, 375.603
969.571, 365.401
970.053, 364.141
970.535, 369.766
971.018, 369.217
971.500, 352.994
971.982, 345.897
972.464, 359.987
972.946, 372.451
973.428, 370.983
973.910, 363.964
974.392, 361.677
974.874, 364.138
975.357, 364.616
975.839, 356.963
976.321, 354.664
976.803, 361.719
977.285, 373.193
977.767, 372.155
978.249, 361.869
978.731, 375.093
979.213, 382.609
979.696, 384.726
980.178, 365.268
980.660, 373.669
981.142, 370.906
981.624, 373.670
982.106, 377.602
982.588, 381.955
983.070, 376.799
983.552, 360.514
984.035, 355.125
984.517, 382.899
984.999, 402.399
985.481, 387.398
985.963, 366.717
986.445, 366.672
986.927, 378.344
987.409, 380.406
987.891, 368.174
988.374, 353.351
988.856, 333.537
989.338, 320.431
989.820, 324.354
990.302, 333.563
990.784, 338.294
991.266, 338.999
991.748, 339.152
992.231, 339.514
992.713, 340.087
993.195, 341.770
993.677, 342.594
994.159, 341.559
994.641, 339.079
995.123, 333.992
995.605, 328.073
996.088, 325.537
996.570, 327.624
997.052, 332.696
997.534, 343.422
998.016, 353.040
998.498, 357.260
998.980, 358.392
999.462, 358.988
999.945, 358.933
1000.427, 355.916
1000.909, 347.904
1001.391, 343.760
1001.873, 351.619
1002.355, 360.131
1002.837, 361.489
1003.319, 359.932
1003.801, 361.365
1004.284, 364.899
1004.766, 364.207
1005.248, 355.122
1005.730, 350.876
1006.212, 363.569
1006.694, 376.402
1007.176, 378.284
1007.658, 374.366
1008.140, 368.476
1008.623, 363.113
1009.105, 364.781
1009.587, 379.016
1010.069, 387.959
1010.551, 376.209
1011.033, 364.924
1011.515, 371.225
1011.997, 383.324
1012.479, 387.238
1012.962, 382.618
1013.444, 374.999
1013.926, 363.797
1014.408, 357.228
1014.890, 360.149
1015.372, 367.114
1015.854, 381.964
1016.336, 394.001
1016.819, 386.670
1017.301, 364.277
1017.783, 349.690
1018.265, 351.520
1018.747, 355.400
1019.229, 357.597
1019.711, 358.544
1020.193, 356.142
1020.675, 354.292
1021.158, 360.723
1021.640, 372.269
1022.122, 373.845
1022.604, 357.216
1023.086, 343.126
1023.568, 337.710
1024.050, 336.822
1024.532, 341.441
1025.015, 347.219
1025.497, 348.235
1025.979, 346.072
1026.461, 349.286
1026.943, 363.577
1027.425, 372.392
1027.907, 370.439
1028.389, 363.763
1028.871, 343.915
1029.354, 329.319
1029.836, 347.222
1030.318, 387.569
1030.800, 405.977
1031.282, 385.732
1031.764, 371.566
1032.246, 377.247
1032.728, 381.352
1033.210, 371.023
1033.693, 359.607
1034.175, 362.414
1034.657, 374.973
1035.139, 378.924
1035.621, 367.904
1036.103, 361.594
1036.585, 363.722
1037.067, 367.585
1037.550, 376.398
1038.032, 381.703
1038.514, 371.927
1038.996, 353.186
1039.478, 346.254
1039.960, 357.328
1040.442, 361.737
1040.924, 350.529
1041.406, 346.918
1041.889, 365.754
1042.371, 382.431
1042.853, 372.507
1043.335, 349.135
1043.817, 348.306
1044.299, 377.947
1044.781, 394.985
1045.263, 396.599
1045.745, 390.977
1046.228, 374.604
1046.710, 360.972
1047.192, 361.319
1047.674, 368.866
1048.156, 367.898
1048.638, 356.641
1049.120, 356.331
1049.602, 372.898
1050.085, 378.815
1050.567, 365.192
1051.049, 351.399
1051.531, 349.799
1052.013, 354.800
1052.495, 356.785
1052.977, 355.833
1053.459, 354.903
1053.942, 353.806
1054.424, 354.407
1054.906, 357.163
1055.388, 360.884
1055.870, 365.343
1056.352, 368.686
1056.834, 367.824
1057.316, 363.656
1057.798, 360.650
1058.281, 358.906
1058.763, 365.399
1059.245, 380.783
1059.727, 379.817
1060.209, 350.101
1060.691, 320.831
1061.173, 328.333
1061.655, 358.431
1062.137, 372.723
1062.620, 373.601
1063.102, 370.584
1063.584, 365.316
1064.066, 361.073
1064.548, 358.973
1065.030, 357.268
1065.512, 354.336
1065.994, 350.950
1066.477, 346.274
1066.959, 343.055
1067.441, 350.636
1067.923, 365.380
1068.405, 375.111
1068.887, 376.164
1069.369, 369.233
1069.851, 352.604
1070.333, 334.837
1070.816, 321.315
1071.298, 315.639
1071.780, 329.637
1072.262, 352.657
1072.744, 362.624
1073.226, 358.000
1073.708, 353.945
1074.190, 358.009
1074.672, 362.777
1075.155, 366.235
1075.637, 364.858
1076.119, 349.796
1076.601, 332.035
1077.083, 324.871
1077.565, 328.561
1078.047, 338.456
1078.530, 354.888
1079.012, 367.180
1079.494, 370.382
1079.976, 369.258
1080.458, 362.774
1080.940, 356.000
1081.422, 353.792
1081.904, 354.663
1082.386, 354.012
1082.869, 350.590
1083.351, 351.296
1083.833, 366.624
1084.315, 372.698
1084.797, 352.035
1085.279, 333.735
1085.761, 340.662
1086.243, 357.949
1086.725, 362.397
1087.208, 353.827
1087.690, 347.287
1088.172, 340.571
1088.654, 341.171
1089.136, 354.177
1089.618, 365.787
1090.100, 371.210
1090.582, 370.670
1091.065, 362.708
1091.547, 349.657
1092.029, 343.950
1092.511, 346.954
1092.993, 348.342
1093.475, 347.551
1093.957, 345.797
1094.439, 343.135
1094.922, 341.847
1095.404, 344.067
1095.886, 348.118
1096.368, 350.286
1096.850, 350.796
1097.332, 351.354
1097.814, 351.940
1098.296, 352.128
1098.778, 351.834
1099.260, 351.152
1099.743, 350.111
1100.225, 349.100
1100.707, 348.132
1101.189, 347.835
1101.671, 351.515
1102.153, 356.195
1102.635, 353.765
1103.117, 345.283
1103.600, 337.681
1104.082, 333.634
1104.564, 332.210
1105.046, 334.165
1105.528, 336.482
1106.010, 332.871
1106.492, 330.959
1106.974, 345.798
1107.457, 366.457
1107.939, 369.278
1108.421, 352.451
1108.903, 337.941
1109.385, 334.315
1109.867, 334.402
1110.349, 338.695
1110.831, 341.983
1111.313, 338.698
1111.796, 334.632
1112.278, 337.454
1112.760, 345.551
1113.242, 350.499
1113.724, 349.743
1114.206, 334.632
1114.688, 349.209
1115.170, 356.580
1115.652, 357.131
1116.135, 330.434
1116.617, 338.921
1117.099, 333.310
1117.581, 327.120
1118.063, 340.559
1118.545, 317.828
1119.027, 330.956
1119.509, 327.148
1119.992, 334.562
1120.474, 339.948
1120.956, 336.913
1121.438, 331.792
1121.920, 331.304
1122.402, 335.228
1122.884, 345.905
1123.366, 361.141
1123.849, 364.892
1124.331, 357.587
1124.813, 348.097
1125.295, 339.720
1125.777, 339.354
1126.259, 353.318
1126.741, 367.024
1127.223, 356.910
1127.705, 337.744
1128.188, 332.627
1128.670, 336.688
1129.152, 338.915
1129.634, 339.348
1130.116, 346.449
1130.598, 363.451
1131.080, 374.335
1131.562, 364.858
1132.044, 351.472
1132.527, 339.821
1133.009, 332.980
1133.491, 336.604
1133.973, 345.359
1134.455, 349.702
1134.937, 349.069
1135.419, 352.082
1135.901, 368.287
1136.384, 374.875
1136.866, 360.919
1137.348, 347.695
1137.830, 341.444
1138.312, 340.260
1138.794, 346.105
1139.276, 353.896
1139.758, 347.059
1140.240, 321.628
1140.723, 310.831
1141.205, 317.576
1141.687, 326.072
1142.169, 334.606
1142.651, 336.463
1143.133, 327.015
1143.615, 314.497
1144.097, 309.253
1144.579, 310.250
1145.062, 315.518
1145.544, 323.984
1146.026, 332.432
1146.508, 339.494
1146.990, 338.164
1147.472, 328.045
1147.954, 324.195
1148.436, 339.474
1148.919, 354.605
1149.401, 344.373
1149.883, 327.317
1150.365, 325.612
1150.847, 331.694
1151.329, 331.671
1151.811, 327.198
1152.293, 330.466
1152.776, 345.845
1153.258, 357.307
1153.740, 358.657
1154.222, 355.090
1154.704, 344.741
1155.186, 334.093
1155.668, 325.208
1156.150, 319.894
1156.632, 321.284
1157.115, 328.834
1157.597, 338.648
1158.079, 356.007
1158.561, 360.621
1159.043, 346.809
1159.525, 334.974
1160.007, 329.600
1160.489, 333.486
1160.971, 351.845
1161.454, 371.549
1161.936, 363.233
1162.418, 333.790
1162.900, 329.086
1163.382, 345.248
1163.864, 358.147
1164.346, 364.800
1164.828, 371.836
1165.311, 381.217
1165.793, 382.944
1166.275, 364.057
1166.757, 343.977
1167.239, 350.099
1167.721, 364.230
1168.203, 363.523
1168.685, 354.085
1169.167, 347.757
1169.650, 345.646
1170.132, 343.435
1170.614, 339.666
1171.096, 336.557
1171.578, 333.057
1172.060, 332.807
1172.542, 341.765
1173.024, 349.523
1173.506, 346.445
1173.989, 339.284
1174.471, 338.498
1174.953, 343.403
1175.435, 344.729
1175.917, 340.400
1176.399, 341.013
1176.881, 348.431
1177.363, 354.270
1177.846, 356.485
1178.328, 352.082
1178.810, 337.578
1179.292, 321.630
1179.774, 321.445
1180.256, 331.252
1180.738, 329.865
1181.220, 321.823
1181.703, 322.015
1182.185, 329.966
1182.667, 335.822
1183.149, 336.582
1183.631, 337.809
1184.113, 344.660
1184.595, 349.861
1185.077, 344.402
1185.559, 338.845
1186.042, 343.704
1186.524, 352.154
1187.006, 355.623
1187.488, 354.574
1187.970, 353.059
1188.452, 351.055
1188.934, 351.388
1189.416, 358.962
1189.898, 359.898
1190.381, 345.877
1190.863, 338.729
1191.345, 353.058
1191.827, 368.953
1192.309, 362.032
1192.791, 340.885
1193.273, 336.224
1193.755, 346.730
1194.238, 352.620
1194.720, 353.441
1195.202, 349.220
1195.684, 341.149
1196.166, 338.719
1196.648, 346.807
1197.130, 354.099
1197.612, 344.487
1198.094, 334.288
1198.577, 347.786
1199.059, 365.896
1199.541, 361.322
1200.023, 346.503
1200.505, 348.082
1200.987, 366.303
1201.469, 378.422
1201.951, 378.259
1202.433, 373.246
1202.916, 358.441
1203.398, 348.075
1203.880, 349.446
1204.362, 350.717
1204.844, 344.677
1205.326, 334.778
1205.808, 315.848
1206.290, 338.719
1206.773, 351.443
1207.255, 354.566
1207.737, 319.329
1208.219, 333.625
1208.701, 328.071
1209.183, 321.703
1209.665, 342.971
1210.147, 313.313
1210.630, 334.143
1211.112, 334.819
1211.594, 344.719
1212.076, 334.646
1212.558, 330.742
1213.040, 346.817
1213.522, 329.608
1214.004, 335.919
1214.486, 356.493
1214.969, 369.086
1215.451, 365.963
1215.933, 359.006
1216.415, 348.248
1216.897, 336.070
1217.379, 317.047
1217.861, 306.760
1218.343, 319.456
1218.825, 340.163
1219.308, 343.801
1219.790, 334.283
1220.272, 339.274
1220.754, 357.499
1221.236, 367.056
1221.718, 366.551
1222.200, 355.296
1222.682, 335.614
1223.165, 326.728
1223.647, 341.288
1224.129, 358.581
1224.611, 355.789
1225.093, 348.564
1225.575, 354.071
1226.057, 362.022
1226.539, 357.871
1227.021, 348.934
1227.504, 351.734
1227.986, 366.301
1228.468, 373.843
1228.950, 368.176
1229.432, 362.694
1229.914, 357.152
1230.396, 353.292
1230.878, 352.504
1231.360, 350.541
1231.843, 344.214
1232.325, 337.715
1232.807, 336.626
1233.289, 340.366
1233.771, 349.766
1234.253, 361.974
1234.735, 365.452
1235.217, 361.192
1235.700, 353.761
1236.182, 345.375
1236.664, 339.997
1237.146, 339.511
1237.628, 340.717
1238.110, 341.415
1238.592, 343.333
1239.074, 353.716
1239.557, 358.937
1240.039, 340.019
1240.521, 316.110
1241.003, 315.722
1241.485, 333.048
1241.967, 344.698
1242.449, 349.989
1242.931, 353.158
1243.413, 353.626
1243.896, 355.582
1244.378, 359.645
1244.860, 367.634
1245.342, 380.474
1245.824, 388.159
1246.306, 379.908
1246.788, 366.200
1247.270, 363.310
1247.752, 364.267
1248.235, 358.142
1248.717, 348.987
1249.199, 343.344
1249.681, 341.390
1250.163, 341.889
1250.645, 344.552
1251.127, 344.388
1251.609, 333.553
1252.092, 330.879
1252.574, 344.835
1253.056, 356.385
1253.538, 358.880
1254.020, 359.520
1254.502, 363.978
1254.984, 368.703
1255.466, 366.749
1255.948, 360.084
1256.431, 357.891
1256.913, 358.741
1257.395, 356.233
1257.877, 351.153
1258.359, 347.912
1258.841, 347.657
##END=



