##NAMES=Gudmundite
##RRUFFID=R060741
##IDEAL CHEMISTRY=Fe^3+^(SbS)^3-^
##LOCALITY=Pezinok, Czechoslovakia
##OWNER=RRUFF
##SOURCE=Michael Scott
##DESCRIPTION=Silver metallic blebs with a blue surface tarnish associated with quartz, stibnite and kermesite, R060742
##STATUS=The identification of this mineral is confirmed by single-crystal X-ray diffraction and chemical analysis.
##URL=rruff.info/R060741
##MEASURED CHEMISTRY=Fe_1.00_Sb_1.00_S_1.00_ ; trace amounts of As
150.6375, 1599.556
151.1196, 1691.268
151.6017, 1884.963
152.0838, 2023.328
152.5659, 2065.100
153.0480, 1980.785
153.5302, 1900.378
154.0123, 1825.174
154.4944, 1758.542
154.9765, 1705.369
155.4586, 1660.861
155.9408, 1634.273
156.4229, 1632.216
156.9050, 1663.467
157.3871, 1680.612
157.8692, 1678.246
158.3513, 1664.040
158.8335, 1653.146
159.3156, 1647.104
159.7977, 1646.705
160.2798, 1653.139
160.7619, 1675.829
161.2440, 1692.930
161.7262, 1694.314
162.2083, 1683.608
162.6904, 1675.397
163.1725, 1679.503
163.6546, 1686.109
164.1367, 1687.674
164.6189, 1673.079
165.1010, 1660.795
165.5831, 1659.819
166.0652, 1669.448
166.5473, 1682.651
167.0294, 1695.824
167.5116, 1710.176
167.9937, 1726.978
168.4758, 1753.692
168.9579, 1778.038
169.4400, 1788.430
169.9221, 1783.671
170.4043, 1780.730
170.8864, 1795.958
171.3685, 1820.323
171.8506, 1838.679
172.3327, 1837.307
172.8148, 1830.056
173.2970, 1830.299
173.7791, 1839.879
174.2612, 1852.978
174.7433, 1869.390
175.2254, 1885.988
175.7076, 1894.942
176.1897, 1887.206
176.6718, 1870.969
177.1539, 1856.057
177.6360, 1842.489
178.1181, 1833.813
178.6003, 1834.555
179.0824, 1843.908
179.5645, 1857.637
180.0466, 1880.376
180.5287, 1905.256
181.0108, 1915.967
181.4930, 1903.967
181.9751, 1885.457
182.4572, 1882.982
182.9393, 1895.911
183.4214, 1917.993
183.9035, 1949.210
184.3857, 1986.281
184.8678, 2020.837
185.3499, 2053.621
185.8320, 2080.289
186.3141, 2085.052
186.7962, 2067.313
187.2784, 2051.117
187.7605, 2059.547
188.2426, 2089.286
188.7247, 2124.212
189.2068, 2162.521
189.6889, 2201.480
190.1711, 2238.381
190.6532, 2274.906
191.1353, 2296.231
191.6174, 2281.511
192.0995, 2232.878
192.5816, 2173.024
193.0638, 2100.527
193.5459, 2021.195
194.0280, 1971.125
194.5101, 1954.257
194.9922, 1951.389
195.4743, 1936.463
195.9565, 1909.414
196.4386, 1885.335
196.9207, 1869.015
197.4028, 1860.521
197.8849, 1864.535
198.3670, 1885.495
198.8492, 1910.387
199.3313, 1914.780
199.8134, 1895.746
200.2955, 1877.973
200.7776, 1874.408
201.2597, 1885.698
201.7419, 1893.237
202.2240, 1895.059
202.7061, 1894.659
203.1882, 1901.242
203.6703, 1917.231
204.1524, 1929.797
204.6346, 1931.079
205.1167, 1919.614
205.5988, 1907.907
206.0809, 1894.753
206.5630, 1883.051
207.0451, 1881.900
207.5273, 1893.923
208.0094, 1908.837
208.4915, 1920.659
208.9736, 1928.543
209.4557, 1938.312
209.9378, 1953.488
210.4200, 1970.100
210.9021, 1971.076
211.3842, 1950.286
211.8663, 1927.713
212.3484, 1917.615
212.8305, 1922.881
213.3127, 1929.791
213.7948, 1938.517
214.2769, 1947.832
214.7590, 1949.690
215.2411, 1941.097
215.7233, 1930.396
216.2054, 1923.592
216.6875, 1920.722
217.1696, 1921.712
217.6517, 1927.707
218.1338, 1938.155
218.6160, 1946.905
219.0981, 1954.656
219.5802, 1959.773
220.0623, 1958.604
220.5444, 1944.542
221.0265, 1942.219
221.5087, 1964.065
221.9908, 2009.065
222.4729, 2018.341
222.9550, 1970.745
223.4371, 1913.394
223.9192, 1893.656
224.4014, 1930.004
224.8835, 1963.067
225.3656, 1981.157
225.8477, 1984.071
226.3298, 1982.979
226.8119, 1975.458
227.2941, 1966.406
227.7762, 1960.767
228.2583, 1959.226
228.7404, 1960.007
229.2225, 1964.901
229.7046, 1975.091
230.1868, 1974.315
230.6689, 1955.771
231.1510, 1932.332
231.6331, 1919.086
232.1152, 1919.717
232.5973, 1924.193
233.0795, 1932.151
233.5616, 1945.042
234.0437, 1949.503
234.5258, 1938.708
235.0079, 1925.155
235.4900, 1926.852
235.9722, 1956.872
236.4543, 1978.896
236.9364, 1979.682
237.4185, 1952.855
237.9006, 1941.464
238.3827, 1951.722
238.8649, 1972.751
239.3470, 1989.871
239.8291, 2001.967
240.3112, 2011.507
240.7933, 2016.962
241.2754, 2015.145
241.7576, 2025.647
242.2397, 2057.886
242.7218, 2096.093
243.2039, 2114.306
243.6860, 2098.398
244.1681, 2086.396
244.6503, 2090.804
245.1324, 2115.733
245.6145, 2138.644
246.0966, 2155.291
246.5787, 2172.708
247.0608, 2192.722
247.5430, 2234.838
248.0251, 2271.855
248.5072, 2304.053
248.9893, 2316.999
249.4714, 2354.805
249.9535, 2382.648
250.4357, 2410.088
250.9178, 2451.393
251.3999, 2467.138
251.8820, 2494.315
252.3641, 2521.167
252.8462, 2557.732
253.3284, 2605.591
253.8105, 2670.260
254.2926, 2741.964
254.7747, 2809.548
255.2568, 2893.464
255.7389, 2934.944
256.2211, 2908.913
256.7032, 2802.192
257.1853, 2682.275
257.6674, 2536.747
258.1495, 2388.499
258.6317, 2279.136
259.1138, 2221.356
259.5959, 2177.772
260.0780, 2134.508
260.5601, 2086.610
261.0422, 2062.625
261.5244, 2072.567
262.0065, 2097.750
262.4886, 2105.080
262.9707, 2086.906
263.4528, 2068.998
263.9349, 2060.544
264.4171, 2063.287
264.8992, 2067.189
265.3813, 2074.362
265.8634, 2080.689
266.3455, 2078.555
266.8276, 2065.297
267.3098, 2050.754
267.7919, 2037.145
268.2740, 2023.864
268.7561, 2017.126
269.2382, 2019.033
269.7203, 2025.103
270.2025, 2021.386
270.6846, 2028.403
271.1667, 2031.782
271.6488, 2031.719
272.1309, 2017.904
272.6130, 2021.847
273.0952, 2018.673
273.5773, 2015.207
274.0594, 2021.650
274.5415, 2009.835
275.0236, 2016.120
275.5057, 2015.180
275.9879, 2020.023
276.4700, 2023.869
276.9521, 2024.450
277.4342, 2011.454
277.9163, 2016.391
278.3984, 2014.388
278.8806, 2012.269
279.3627, 2020.233
279.8448, 2010.117
280.3269, 2018.275
280.8090, 2019.385
281.2911, 2023.976
281.7733, 2021.584
282.2554, 2021.579
282.7375, 2028.912
283.2196, 2032.455
283.7017, 2029.941
284.1838, 2035.798
284.6660, 2027.189
285.1481, 2031.604
285.6302, 2041.739
286.1123, 2040.464
286.5944, 2047.331
287.0765, 2051.339
287.5587, 2041.737
288.0408, 2056.288
288.5229, 2060.645
289.0050, 2054.530
289.4871, 2068.786
289.9692, 2064.491
290.4514, 2067.057
290.9335, 2074.828
291.4156, 2077.531
291.8977, 2088.678
292.3798, 2092.036
292.8619, 2094.857
293.3441, 2100.961
293.8262, 2098.440
294.3083, 2112.421
294.7904, 2115.425
295.2725, 2124.148
295.7546, 2134.305
296.2368, 2135.016
296.7189, 2155.782
297.2010, 2171.258
297.6831, 2181.357
298.1652, 2184.270
298.6473, 2175.497
299.1295, 2162.952
299.6116, 2157.513
300.0937, 2159.139
300.5758, 2166.836
301.0579, 2180.156
301.5400, 2198.866
302.0222, 2223.160
302.5043, 2254.102
302.9864, 2289.036
303.4685, 2325.060
303.9506, 2362.359
304.4327, 2400.078
304.9149, 2443.186
305.3970, 2484.769
305.8791, 2514.195
306.3612, 2523.772
306.8433, 2529.334
307.3254, 2543.037
307.8076, 2564.284
308.2897, 2591.443
308.7718, 2626.352
309.2539, 2665.191
309.7360, 2707.580
310.2181, 2761.266
310.7003, 2799.581
311.1824, 2809.619
311.6645, 2789.785
312.1466, 2736.346
312.6287, 2611.617
313.1108, 2473.342
313.5930, 2364.456
314.0751, 2292.781
314.5572, 2243.104
315.0393, 2216.610
315.5214, 2205.772
316.0035, 2196.680
316.4857, 2182.406
316.9678, 2169.238
317.4499, 2162.617
317.9320, 2165.764
318.4141, 2163.515
318.8962, 2142.133
319.3784, 2114.015
319.8605, 2095.850
320.3426, 2096.112
320.8247, 2104.539
321.3068, 2122.959
321.7889, 2155.115
322.2711, 2170.262
322.7532, 2142.634
323.2353, 2101.419
323.7174, 2077.609
324.1995, 2094.526
324.6816, 2111.902
325.1638, 2118.815
325.6459, 2114.208
326.1280, 2110.605
326.6101, 2105.762
327.0922, 2104.212
327.5743, 2109.610
328.0565, 2138.249
328.5386, 2155.942
329.0207, 2154.054
329.5028, 2133.827
329.9849, 2119.764
330.4670, 2110.987
330.9492, 2109.200
331.4313, 2116.646
331.9134, 2148.271
332.3955, 2165.327
332.8776, 2160.198
333.3597, 2137.453
333.8419, 2116.412
334.3240, 2092.047
334.8061, 2076.061
335.2882, 2075.771
335.7703, 2097.275
336.2524, 2119.724
336.7346, 2146.070
337.2167, 2171.308
337.6988, 2181.167
338.1809, 2171.058
338.6630, 2157.331
339.1452, 2146.788
339.6273, 2139.303
340.1094, 2134.666
340.5915, 2131.734
341.0736, 2133.180
341.5558, 2146.850
342.0379, 2175.424
342.5200, 2199.169
343.0021, 2209.717
343.4842, 2207.623
343.9663, 2201.393
344.4485, 2189.914
344.9306, 2178.233
345.4127, 2172.525
345.8948, 2172.638
346.3769, 2176.892
346.8590, 2185.787
347.3412, 2198.283
347.8233, 2211.577
348.3054, 2225.759
348.7875, 2238.926
349.2696, 2247.753
349.7517, 2253.493
350.2339, 2261.239
350.7160, 2273.731
351.1981, 2287.461
351.6802, 2294.972
352.1623, 2296.988
352.6444, 2302.071
353.1266, 2315.705
353.6087, 2336.725
354.0908, 2364.748
354.5729, 2404.530
355.0550, 2442.128
355.5371, 2458.622
356.0193, 2460.109
356.5014, 2466.286
356.9835, 2492.643
357.4656, 2527.132
357.9477, 2557.787
358.4298, 2581.476
358.9120, 2606.158
359.3941, 2639.125
359.8762, 2676.317
360.3583, 2710.941
360.8404, 2738.990
361.3225, 2764.107
361.8047, 2788.925
362.2868, 2813.942
362.7689, 2836.283
363.2510, 2864.944
363.7331, 2886.806
364.2152, 2886.913
364.6974, 2845.355
365.1795, 2796.780
365.6616, 2749.007
366.1437, 2702.381
366.6258, 2658.354
367.1079, 2622.301
367.5901, 2586.014
368.0722, 2543.675
368.5543, 2482.052
369.0364, 2428.996
369.5185, 2386.772
370.0006, 2354.925
370.4828, 2332.790
370.9649, 2328.366
371.4470, 2325.992
371.9291, 2316.849
372.4112, 2287.414
372.8933, 2278.104
373.3755, 2300.171
373.8576, 2338.127
374.3397, 2356.089
374.8218, 2345.774
375.3039, 2332.159
375.7860, 2324.897
376.2682, 2325.206
376.7503, 2322.456
377.2324, 2315.505
377.7145, 2307.289
378.1966, 2303.104
378.6787, 2304.159
379.1609, 2300.496
379.6430, 2288.144
380.1251, 2268.507
380.6072, 2246.142
381.0893, 2219.767
381.5714, 2199.094
382.0536, 2197.302
382.5357, 2211.709
383.0178, 2222.976
383.4999, 2226.773
383.9820, 2225.200
384.4641, 2219.823
384.9463, 2211.082
385.4284, 2205.354
385.9105, 2210.963
386.3926, 2221.917
386.8747, 2225.047
387.3568, 2216.260
387.8390, 2205.793
388.3211, 2204.028
388.8032, 2209.121
389.2853, 2216.111
389.7674, 2229.245
390.2495, 2239.212
390.7317, 2232.705
391.2138, 2206.852
391.6959, 2186.292
392.1780, 2190.064
392.6601, 2207.047
393.1422, 2222.261
393.6244, 2233.759
394.1065, 2239.543
394.5886, 2235.439
395.0707, 2222.451
395.5528, 2213.069
396.0349, 2214.643
396.5171, 2219.304
396.9992, 2221.558
397.4813, 2218.201
397.9634, 2214.938
398.4455, 2209.745
398.9276, 2204.653
399.4098, 2206.363
399.8919, 2223.691
400.3740, 2240.628
400.8561, 2252.109
401.3382, 2259.168
401.8203, 2257.481
402.3025, 2240.815
402.7846, 2218.902
403.2667, 2206.286
403.7488, 2205.823
404.2309, 2209.182
404.7130, 2214.308
405.1952, 2221.182
405.6773, 2234.319
406.1594, 2259.545
406.6415, 2278.848
407.1236, 2268.880
407.6057, 2225.562
408.0879, 2195.420
408.5700, 2187.885
409.0521, 2198.050
409.5342, 2218.278
410.0163, 2249.290
410.4984, 2270.987
410.9806, 2262.643
411.4627, 2231.840
411.9448, 2209.981
412.4269, 2199.793
412.9090, 2199.664
413.3911, 2212.353
413.8733, 2234.520
414.3554, 2254.801
414.8375, 2271.752
415.3196, 2281.688
415.8017, 2276.229
416.2838, 2255.206
416.7660, 2233.051
417.2481, 2215.384
417.7302, 2204.936
418.2123, 2206.005
418.6944, 2232.199
419.1765, 2257.717
419.6587, 2265.621
420.1408, 2259.504
420.6229, 2253.639
421.1050, 2254.303
421.5871, 2256.872
422.0692, 2259.378
422.5514, 2264.593
423.0335, 2263.076
423.5156, 2240.642
423.9977, 2212.355
424.4798, 2203.017
424.9619, 2238.029
425.4441, 2270.305
425.9262, 2288.640
426.4083, 2291.670
426.8904, 2288.763
427.3725, 2271.985
427.8546, 2256.046
428.3368, 2255.060
428.8189, 2278.683
429.3010, 2296.018
429.7831, 2304.723
430.2652, 2304.278
430.7473, 2287.071
431.2295, 2245.057
431.7116, 2212.093
432.1937, 2213.846
432.6758, 2251.169
433.1579, 2277.657
433.6400, 2289.616
434.1222, 2293.969
434.6043, 2299.490
435.0864, 2306.152
435.5685, 2314.136
436.0506, 2325.565
436.5327, 2337.724
437.0149, 2343.690
437.4970, 2343.494
437.9791, 2341.079
438.4612, 2339.325
438.9434, 2337.706
439.4255, 2334.842
439.9076, 2328.379
440.3897, 2323.858
440.8718, 2325.869
441.3539, 2333.797
441.8361, 2345.977
442.3182, 2368.874
442.8003, 2390.865
443.2824, 2403.000
443.7645, 2402.316
444.2466, 2400.751
444.7288, 2404.411
445.2109, 2408.986
445.6930, 2409.331
446.1751, 2394.570
446.6572, 2385.673
447.1393, 2389.431
447.6215, 2405.593
448.1036, 2421.138
448.5857, 2434.978
449.0678, 2448.802
449.5499, 2464.494
450.0320, 2487.379
450.5142, 2500.103
450.9963, 2496.914
451.4784, 2486.393
451.9605, 2488.878
452.4426, 2510.181
452.9247, 2526.738
453.4069, 2529.923
453.8890, 2520.065
454.3711, 2505.093
454.8532, 2483.750
455.3353, 2461.850
455.8174, 2446.468
456.2996, 2436.608
456.7817, 2425.359
457.2638, 2409.651
457.7459, 2393.602
458.2280, 2382.539
458.7101, 2376.717
459.1923, 2377.268
459.6744, 2389.905
460.1565, 2407.639
460.6386, 2421.017
461.1207, 2429.404
461.6028, 2433.113
462.0850, 2428.711
462.5671, 2420.782
463.0492, 2416.114
463.5313, 2425.296
464.0134, 2431.210
464.4955, 2421.014
464.9777, 2397.051
465.4598, 2380.502
465.9419, 2383.105
466.4240, 2391.170
466.9061, 2396.859
467.3882, 2400.331
467.8704, 2399.422
468.3525, 2389.775
468.8346, 2376.532
469.3167, 2368.343
469.7988, 2367.478
470.2809, 2367.968
470.7631, 2368.749
471.2452, 2369.846
471.7273, 2369.630
472.2094, 2368.748
472.6915, 2365.370
473.1736, 2354.930
473.6558, 2336.392
474.1379, 2328.906
474.6200, 2338.190
475.1021, 2355.750
475.5842, 2365.114
476.0663, 2366.544
476.5485, 2363.337
477.0306, 2350.297
477.5127, 2335.134
477.9948, 2339.938
478.4769, 2366.697
478.9590, 2390.611
479.4412, 2382.962
479.9233, 2358.704
480.4054, 2343.210
480.8875, 2351.638
481.3696, 2362.590
481.8517, 2360.902
482.3339, 2349.726
482.8160, 2339.541
483.2981, 2332.458
483.7802, 2329.306
484.2623, 2331.388
484.7444, 2340.223
485.2266, 2349.092
485.7087, 2360.674
486.1908, 2370.200
486.6729, 2371.847
487.1550, 2356.686
487.6371, 2345.797
488.1193, 2344.014
488.6014, 2349.533
489.0835, 2350.960
489.5656, 2346.859
490.0477, 2341.480
490.5298, 2337.529
491.0120, 2335.566
491.4941, 2329.315
491.9762, 2315.723
492.4583, 2304.171
492.9404, 2313.471
493.4225, 2341.842
493.9047, 2360.035
494.3868, 2350.745
494.8689, 2330.214
495.3510, 2337.823
495.8331, 2370.606
496.3152, 2396.014
496.7974, 2380.070
497.2795, 2346.517
497.7616, 2328.777
498.2437, 2335.015
498.7258, 2346.268
499.2079, 2352.673
499.6901, 2354.879
500.1722, 2354.038
500.6543, 2348.475
501.1364, 2342.024
501.6185, 2335.321
502.1006, 2328.625
502.5828, 2324.212
503.0649, 2323.361
503.5470, 2324.354
504.0291, 2326.669
504.5112, 2334.921
504.9933, 2335.437
505.4755, 2320.971
505.9576, 2303.196
506.4397, 2304.146
506.9218, 2333.803
507.4039, 2353.458
507.8860, 2348.492
508.3682, 2323.476
508.8503, 2310.890
509.3324, 2312.233
509.8145, 2316.115
510.2966, 2311.350
510.7787, 2300.743
511.2609, 2298.271
511.7430, 2306.808
512.2251, 2319.670
512.7072, 2331.093
513.1893, 2340.482
513.6714, 2346.300
514.1536, 2348.083
514.6357, 2345.837
515.1178, 2335.896
515.5999, 2319.674
516.0820, 2309.375
516.5641, 2313.652
517.0463, 2324.407
517.5284, 2337.202
518.0105, 2356.552
518.4926, 2366.729
518.9747, 2357.685
519.4568, 2339.145
519.9390, 2326.150
520.4211, 2322.199
520.9032, 2319.612
521.3853, 2316.314
521.8674, 2312.688
522.3495, 2314.746
522.8317, 2326.231
523.3138, 2335.638
523.7959, 2333.389
524.2780, 2318.303
524.7601, 2309.856
525.2422, 2309.497
525.7244, 2314.484
526.2065, 2325.119
526.6886, 2339.528
527.1707, 2345.713
527.6528, 2334.911
528.1349, 2316.906
528.6171, 2303.232
529.0992, 2294.380
529.5813, 2293.646
530.0634, 2311.993
530.5455, 2334.444
531.0276, 2344.462
531.5098, 2335.923
531.9919, 2330.997
532.4740, 2345.997
532.9561, 2367.823
533.4382, 2381.165
533.9203, 2375.824
534.4025, 2368.765
534.8846, 2363.665
535.3667, 2359.888
535.8488, 2353.487
536.3309, 2337.799
536.8130, 2328.436
537.2952, 2334.046
537.7773, 2358.435
538.2594, 2376.010
538.7415, 2387.045
539.2236, 2391.311
539.7057, 2385.093
540.1879, 2368.681
540.6700, 2359.453
541.1521, 2364.323
541.6342, 2373.517
542.1163, 2362.764
542.5984, 2336.767
543.0806, 2321.813
543.5627, 2349.873
544.0448, 2388.423
544.5269, 2390.392
545.0090, 2353.285
545.4911, 2325.676
545.9733, 2352.636
546.4554, 2396.419
546.9375, 2420.366
547.4196, 2401.808
547.9017, 2383.225
548.3839, 2379.349
548.8660, 2382.522
549.3481, 2376.384
549.8302, 2345.313
550.3123, 2321.843
550.7944, 2315.110
551.2766, 2324.877
551.7587, 2335.327
552.2408, 2349.148
552.7229, 2358.268
553.2050, 2352.096
553.6871, 2329.227
554.1693, 2324.443
554.6514, 2344.071
555.1335, 2371.686
555.6156, 2385.033
556.0977, 2385.769
556.5798, 2380.656
557.0620, 2368.272
557.5441, 2354.691
558.0262, 2349.065
558.5083, 2349.980
558.9904, 2350.212
559.4725, 2341.600
559.9547, 2333.301
560.4368, 2333.850
560.9189, 2346.335
561.4010, 2356.719
561.8831, 2362.292
562.3652, 2362.842
562.8474, 2358.125
563.3295, 2335.926
563.8116, 2324.208
564.2937, 2330.538
564.7758, 2347.641
565.2579, 2355.375
565.7401, 2350.054
566.2222, 2344.122
566.7043, 2341.638
567.1864, 2342.526
567.6685, 2345.333
568.1506, 2349.845
568.6328, 2357.662
569.1149, 2376.457
569.5970, 2400.578
570.0791, 2409.150
570.5612, 2397.039
571.0433, 2375.509
571.5255, 2346.701
572.0076, 2317.794
572.4897, 2302.327
572.9718, 2312.380
573.4539, 2332.174
573.9360, 2361.510
574.4182, 2396.087
574.9003, 2413.977
575.3824, 2393.003
575.8645, 2366.901
576.3466, 2351.418
576.8287, 2349.149
577.3109, 2351.685
577.7930, 2365.614
578.2751, 2378.053
578.7572, 2374.734
579.2393, 2350.704
579.7214, 2332.010
580.2036, 2323.006
580.6857, 2319.840
581.1678, 2313.412
581.6499, 2304.035
582.1320, 2297.697
582.6141, 2296.244
583.0963, 2300.189
583.5784, 2314.875
584.0605, 2338.921
584.5426, 2357.606
585.0247, 2355.843
585.5068, 2345.587
585.9890, 2339.610
586.4711, 2342.097
586.9532, 2342.218
587.4354, 2327.884
587.9175, 2311.602
588.3996, 2308.210
588.8817, 2335.141
589.3638, 2357.375
589.8459, 2371.086
590.3281, 2376.764
590.8102, 2375.220
591.2923, 2361.428
591.7744, 2351.744
592.2565, 2354.774
592.7386, 2369.521
593.2208, 2377.581
593.7029, 2378.261
594.1850, 2376.555
594.6671, 2379.942
595.1492, 2384.746
595.6313, 2375.791
596.1135, 2346.076
596.5956, 2320.271
597.0777, 2330.668
597.5598, 2360.890
598.0419, 2381.443
598.5240, 2371.152
599.0062, 2358.179
599.4883, 2353.881
599.9704, 2357.672
600.4525, 2366.592
600.9346, 2389.566
601.4167, 2408.424
601.8989, 2414.095
602.3810, 2403.727
602.8631, 2401.430
603.3452, 2412.498
603.8273, 2423.558
604.3094, 2421.155
604.7916, 2403.116
605.2737, 2395.700
605.7558, 2404.473
606.2379, 2417.006
606.7200, 2414.483
607.2021, 2399.318
607.6843, 2359.162
608.1664, 2388.327
608.6485, 2404.760
609.1306, 2409.146
609.6127, 2365.401
610.0948, 2383.808
610.5770, 2377.306
611.0591, 2369.784
611.5412, 2396.938
612.0233, 2360.193
612.5054, 2386.797
612.9875, 2388.114
613.4697, 2401.003
613.9518, 2388.832
614.4339, 2384.401
614.9160, 2405.040
615.3981, 2411.797
615.8802, 2396.740
616.3624, 2410.366
616.8445, 2372.746
617.3266, 2380.095
617.8087, 2406.845
618.2908, 2393.049
618.7729, 2407.133
619.2551, 2410.598
619.7372, 2365.809
620.2193, 2404.939
620.7014, 2407.777
621.1835, 2373.350
621.6656, 2409.606
622.1478, 2380.316
622.6299, 2374.422
623.1120, 2386.135
623.5941, 2379.493
624.0762, 2401.789
624.5583, 2396.208
625.0405, 2388.135
625.5226, 2390.932
626.0047, 2362.928
626.4868, 2392.067
626.9689, 2382.172
627.4510, 2391.680
627.9332, 2405.586
628.4153, 2385.817
628.8974, 2401.699
629.3795, 2362.295
629.8616, 2369.151
630.3438, 2371.026
630.8259, 2402.468
631.3080, 2363.334
631.7901, 2368.904
632.2722, 2393.509
632.7543, 2391.480
633.2365, 2400.588
633.7186, 2376.728
634.2007, 2383.838
634.6828, 2382.412
635.1649, 2410.483
635.6470, 2415.268
636.1292, 2391.968
636.6113, 2368.787
637.0934, 2398.981
637.5755, 2378.586
638.0576, 2385.483
638.5397, 2364.193
639.0219, 2367.240
639.5040, 2369.902
639.9861, 2385.040
640.4682, 2357.458
640.9503, 2335.842
641.4324, 2327.772
641.9146, 2345.222
642.3967, 2373.622
642.8788, 2396.061
643.3609, 2411.232
643.8430, 2417.637
644.3251, 2403.874
644.8073, 2387.003
645.2894, 2382.335
645.7715, 2402.540
646.2536, 2414.598
646.7357, 2407.579
647.2178, 2393.678
647.7000, 2386.115
648.1821, 2387.494
648.6642, 2388.840
649.1463, 2387.832
649.6284, 2386.907
650.1105, 2394.413
650.5927, 2410.302
651.0748, 2422.155
651.5569, 2421.557
652.0390, 2414.469
652.5211, 2412.960
653.0032, 2416.149
653.4854, 2417.888
653.9675, 2412.349
654.4496, 2404.941
654.9317, 2399.733
655.4138, 2397.135
655.8959, 2397.118
656.3781, 2403.168
656.8602, 2409.633
657.3423, 2411.962
657.8244, 2407.225
658.3065, 2403.604
658.7886, 2401.029
659.2708, 2399.780
659.7529, 2400.523
660.2350, 2403.397
660.7171, 2406.760
661.1992, 2410.427
661.6813, 2414.091
662.1635, 2418.494
662.6456, 2422.790
663.1277, 2423.224
663.6098, 2414.215
664.0919, 2403.105
664.5740, 2395.562
665.0562, 2391.655
665.5383, 2390.876
666.0204, 2393.105
666.5025, 2398.370
666.9846, 2409.054
667.4667, 2429.552
667.9489, 2436.771
668.4310, 2422.299
668.9131, 2405.011
669.3952, 2399.736
669.8773, 2408.295
670.3594, 2416.392
670.8416, 2423.365
671.3237, 2428.893
671.8058, 2430.487
672.2879, 2429.891
672.7700, 2435.220
673.2521, 2454.705
673.7343, 2470.653
674.2164, 2455.969
674.6985, 2424.982
675.1806, 2408.887
675.6627, 2439.751
676.1448, 2469.166
676.6270, 2475.144
677.1091, 2460.236
677.5912, 2451.911
678.0733, 2460.333
678.5554, 2462.688
679.0375, 2445.084
679.5197, 2407.178
680.0018, 2397.073
680.4839, 2419.439
680.9660, 2446.715
681.4481, 2458.699
681.9302, 2457.905
682.4124, 2450.621
682.8945, 2436.489
683.3766, 2424.737
683.8587, 2425.590
684.3408, 2432.785
684.8229, 2438.763
685.3051, 2442.868
685.7872, 2443.391
686.2693, 2434.603
686.7514, 2423.339
687.2335, 2421.150
687.7156, 2439.113
688.1978, 2448.008
688.6799, 2439.891
689.1620, 2421.905
689.6441, 2416.075
690.1262, 2423.905
690.6083, 2428.645
691.0905, 2420.119
691.5726, 2405.394
692.0547, 2401.384
692.5368, 2406.957
693.0189, 2414.682
693.5010, 2424.098
693.9832, 2430.628
694.4653, 2428.408
694.9474, 2416.789
695.4295, 2406.894
695.9116, 2399.393
696.3937, 2397.228
696.8759, 2403.474
697.3580, 2422.686
697.8401, 2436.254
698.3222, 2441.705
698.8043, 2445.429
699.2864, 2455.782
699.7686, 2472.805
700.2507, 2482.034
700.7328, 2479.826
701.2149, 2474.208
701.6970, 2477.840
702.1791, 2486.396
702.6613, 2489.119
703.1434, 2478.480
703.6255, 2465.982
704.1076, 2459.566
704.5897, 2456.734
705.0718, 2451.781
705.5540, 2432.949
706.0361, 2423.852
706.5182, 2436.335
707.0003, 2464.269
707.4824, 2476.435
707.9645, 2468.685
708.4467, 2457.800
708.9288, 2450.326
709.4109, 2445.993
709.8930, 2442.885
710.3751, 2441.092
710.8572, 2442.181
711.3394, 2449.426
711.8215, 2459.218
712.3036, 2467.494
712.7857, 2473.966
713.2678, 2477.361
713.7499, 2472.410
714.2321, 2466.990
714.7142, 2468.372
715.1963, 2489.196
715.6784, 2490.876
716.1605, 2462.723
716.6426, 2426.295
717.1248, 2403.739
717.6069, 2396.385
718.0890, 2393.201
718.5711, 2393.568
719.0532, 2395.756
719.5353, 2398.394
720.0175, 2400.953
720.4996, 2401.499
720.9817, 2398.066
721.4638, 2394.498
721.9459, 2392.633
722.4280, 2393.052
722.9102, 2396.881
723.3923, 2414.685
723.8744, 2424.770
724.3565, 2413.936
724.8386, 2389.500
725.3207, 2382.999
725.8029, 2400.835
726.2850, 2420.210
726.7671, 2434.881
727.2492, 2443.817
727.7313, 2436.364
728.2134, 2413.230
728.6956, 2396.557
729.1777, 2407.047
729.6598, 2429.366
730.1419, 2448.399
730.6240, 2462.740
731.1061, 2463.551
731.5883, 2427.164
732.0704, 2389.766
732.5525, 2377.810
733.0346, 2405.666
733.5167, 2423.175
733.9988, 2427.655
734.4810, 2425.880
734.9631, 2422.509
735.4452, 2417.504
735.9273, 2412.679
736.4094, 2408.359
736.8915, 2403.503
737.3737, 2394.306
737.8558, 2383.910
738.3379, 2380.546
738.8200, 2389.706
739.3021, 2397.317
739.7842, 2386.367
740.2664, 2370.405
740.7485, 2368.427
741.2306, 2404.223
741.7127, 2430.033
742.1948, 2439.810
742.6769, 2437.069
743.1591, 2425.509
743.6412, 2401.284
744.1233, 2387.534
744.6054, 2394.470
745.0875, 2411.210
745.5696, 2410.917
746.0518, 2397.512
746.5339, 2389.353
747.0160, 2404.643
747.4981, 2422.084
747.9802, 2421.262
748.4623, 2405.961
748.9445, 2393.771
749.4266, 2389.817
749.9087, 2390.416
750.3908, 2396.523
750.8729, 2407.522
751.3550, 2411.119
751.8372, 2403.689
752.3193, 2399.130
752.8014, 2409.654
753.2835, 2430.854
753.7656, 2434.383
754.2477, 2420.639
754.7299, 2404.458
755.2120, 2393.108
755.6941, 2387.914
756.1762, 2394.097
756.6583, 2413.372
757.1404, 2425.893
757.6226, 2414.856
758.1047, 2400.825
758.5868, 2399.928
759.0689, 2420.467
759.5510, 2426.837
760.0331, 2413.568
760.5153, 2395.770
760.9974, 2386.984
761.4795, 2386.698
761.9616, 2390.767
762.4437, 2399.686
762.9258, 2407.744
763.4080, 2406.462
763.8901, 2401.178
764.3722, 2400.877
764.8543, 2412.156
765.3364, 2419.180
765.8185, 2411.214
766.3007, 2397.291
766.7828, 2389.059
767.2649, 2388.287
767.7470, 2391.073
768.2291, 2399.646
768.7112, 2408.348
769.1934, 2406.157
769.6755, 2393.519
770.1576, 2381.765
770.6397, 2372.673
771.1218, 2368.068
771.6039, 2373.305
772.0861, 2384.693
772.5682, 2394.396
773.0503, 2401.289
773.5324, 2403.759
774.0145, 2400.962
774.4966, 2393.212
774.9788, 2380.219
775.4609, 2350.674
775.9430, 2338.553
776.4251, 2359.788
776.9072, 2398.915
777.3893, 2400.668
777.8715, 2366.327
778.3536, 2341.931
778.8357, 2358.641
779.3178, 2389.890
779.7999, 2398.388
780.2820, 2389.053
780.7642, 2379.189
781.2463, 2373.082
781.7284, 2371.957
782.2105, 2380.311
782.6926, 2396.782
783.1748, 2403.755
783.6569, 2398.264
784.1390, 2388.060
784.6212, 2372.449
785.1033, 2354.011
785.5854, 2353.427
786.0675, 2370.310
786.5496, 2386.161
787.0317, 2385.268
787.5139, 2377.948
787.9960, 2376.729
788.4781, 2381.775
788.9602, 2388.261
789.4423, 2399.063
789.9244, 2406.468
790.4066, 2403.782
790.8887, 2389.896
791.3708, 2383.703
791.8529, 2388.308
792.3350, 2394.252
792.8171, 2395.798
793.2993, 2393.449
793.7814, 2392.399
794.2635, 2392.793
794.7456, 2389.934
795.2277, 2374.896
795.7098, 2357.473
796.1920, 2351.625
796.6741, 2360.095
797.1562, 2362.547
797.6383, 2339.736
798.1204, 2317.997
798.6025, 2316.414
799.0847, 2341.490
799.5668, 2355.123
800.0489, 2354.152
800.5310, 2349.538
801.0131, 2350.915
801.4952, 2356.668
801.9774, 2359.080
802.4595, 2357.276
802.9416, 2355.625
803.4237, 2358.112
803.9058, 2362.317
804.3879, 2366.125
804.8701, 2369.705
805.3522, 2370.987
805.8343, 2364.316
806.3164, 2359.345
806.7985, 2364.315
807.2806, 2383.598
807.7628, 2392.274
808.2449, 2387.625
808.7270, 2380.247
809.2091, 2383.264
809.6912, 2392.228
810.1733, 2395.006
810.6555, 2388.969
811.1376, 2381.586
811.6197, 2375.885
812.1018, 2372.531
812.5839, 2372.583
813.0660, 2379.486
813.5482, 2382.866
814.0303, 2380.370
814.5124, 2376.330
814.9945, 2374.136
815.4766, 2373.733
815.9587, 2379.013
816.4409, 2392.153
816.9230, 2402.441
817.4051, 2393.549
817.8872, 2374.638
818.3693, 2361.353
818.8514, 2358.674
819.3336, 2356.440
819.8157, 2345.811
820.2978, 2335.501
820.7799, 2335.095
821.2620, 2351.372
821.7441, 2363.559
822.2263, 2370.901
822.7084, 2374.946
823.1905, 2377.659
823.6726, 2378.765
824.1547, 2375.511
824.6368, 2366.163
825.1190, 2358.733
825.6011, 2361.362
826.0832, 2369.987
826.5653, 2379.791
827.0474, 2391.073
827.5295, 2400.671
828.0117, 2410.072
828.4938, 2416.173
828.9759, 2415.816
829.4580, 2408.220
829.9401, 2397.037
830.4222, 2380.828
830.9044, 2366.997
831.3865, 2366.192
831.8686, 2374.531
832.3507, 2383.698
832.8328, 2393.471
833.3149, 2397.218
833.7971, 2385.606
834.2792, 2368.394
834.7613, 2355.444
835.2434, 2349.171
835.7255, 2346.121
836.2076, 2348.058
836.6898, 2350.951
837.1719, 2347.943
837.6540, 2339.639
838.1361, 2344.557
838.6182, 2366.974
839.1003, 2389.182
839.5825, 2389.453
840.0646, 2379.361
840.5467, 2375.559
841.0288, 2383.540
841.5109, 2390.946
841.9930, 2396.302
842.4752, 2397.462
842.9573, 2391.867
843.4394, 2375.802
843.9215, 2364.814
844.4036, 2359.315
844.8857, 2358.709
845.3679, 2365.704
845.8500, 2376.951
846.3321, 2381.387
846.8142, 2376.499
847.2963, 2374.200
847.7784, 2388.125
848.2606, 2405.239
848.7427, 2413.625
849.2248, 2407.745
849.7069, 2403.785
850.1890, 2405.708
850.6711, 2404.888
851.1533, 2389.850
851.6354, 2361.401
852.1175, 2354.720
852.5996, 2372.802
853.0817, 2390.746
853.5638, 2380.696
854.0460, 2360.346
854.5281, 2352.125
855.0102, 2360.533
855.4923, 2367.635
855.9744, 2361.212
856.4565, 2357.175
856.9387, 2366.789
857.4208, 2392.891
857.9029, 2409.096
858.3850, 2414.494
858.8671, 2413.808
859.3492, 2406.755
859.8314, 2397.269
860.3135, 2397.426
860.7956, 2407.131
861.2777, 2411.388
861.7598, 2390.401
862.2419, 2369.688
862.7241, 2369.130
863.2062, 2393.352
863.6883, 2405.808
864.1704, 2402.208
864.6525, 2395.362
865.1346, 2391.709
865.6168, 2390.500
866.0989, 2385.258
866.5810, 2376.479
867.0631, 2373.252
867.5452, 2388.770
868.0273, 2406.933
868.5095, 2412.517
868.9916, 2406.370
869.4737, 2400.749
869.9558, 2391.843
870.4379, 2392.844
870.9200, 2415.347
871.4022, 2451.813
871.8843, 2452.435
872.3664, 2415.519
872.8485, 2383.936
873.3306, 2382.629
873.8127, 2396.347
874.2949, 2406.699
874.7770, 2413.540
875.2591, 2416.306
875.7412, 2408.819
876.2233, 2403.419
876.7054, 2405.421
877.1876, 2412.755
877.6697, 2422.328
878.1518, 2437.153
878.6339, 2439.922
879.1160, 2421.527
879.5981, 2394.708
880.0803, 2380.594
880.5624, 2377.963
881.0445, 2383.712
881.5266, 2409.074
882.0087, 2427.140
882.4908, 2418.633
882.9730, 2375.860
883.4551, 2404.959
883.9372, 2421.325
884.4193, 2425.645
884.9014, 2381.833
885.3835, 2400.173
885.8657, 2393.605
886.3478, 2386.016
886.8299, 2413.103
887.3120, 2376.292
887.7941, 2402.830
888.2762, 2404.079
888.7584, 2416.903
889.2405, 2404.665
889.7226, 2400.167
890.2047, 2420.739
890.6868, 2427.430
891.1689, 2412.307
891.6511, 2425.866
892.1332, 2423.171
892.6153, 2424.397
893.0974, 2392.782
893.5795, 2364.765
894.0616, 2381.683
894.5438, 2414.681
895.0259, 2431.557
895.5080, 2425.951
895.9901, 2415.657
896.4722, 2396.638
896.9543, 2382.358
897.4365, 2382.652
897.9186, 2398.047
898.4007, 2405.110
898.8828, 2403.672
899.3649, 2398.811
899.8470, 2394.155
900.3292, 2388.354
900.8113, 2376.240
901.2934, 2359.184
901.7755, 2350.172
902.2576, 2364.652
902.7397, 2377.171
903.2219, 2373.170
903.7040, 2356.951
904.1861, 2361.783
904.6682, 2391.399
905.1503, 2414.635
905.6324, 2414.577
906.1146, 2403.305
906.5967, 2402.053
907.0788, 2407.409
907.5609, 2409.281
908.0430, 2397.594
908.5251, 2387.932
909.0073, 2387.704
909.4894, 2392.875
909.9715, 2395.732
910.4536, 2396.619
910.9357, 2392.874
911.4178, 2381.729
911.9000, 2370.563
912.3821, 2372.889
912.8642, 2384.187
913.3463, 2394.893
913.8284, 2404.245
914.3105, 2408.055
914.7927, 2398.510
915.2748, 2385.624
915.7569, 2380.876
916.2390, 2388.906
916.7211, 2391.199
917.2032, 2384.757
917.6854, 2380.071
918.1675, 2394.969
918.6496, 2419.320
919.1317, 2423.970
919.6138, 2405.047
920.0959, 2384.870
920.5781, 2373.788
921.0602, 2368.356
921.5423, 2367.737
922.0244, 2372.442
922.5065, 2373.225
922.9886, 2367.840
923.4708, 2364.887
923.9529, 2372.713
924.4350, 2386.090
924.9171, 2386.434
925.3992, 2376.127
925.8813, 2369.604
926.3635, 2382.395
926.8456, 2394.168
927.3277, 2388.615
927.8098, 2370.698
928.2919, 2367.254
928.7740, 2384.401
929.2562, 2400.837
929.7383, 2411.825
930.2204, 2418.073
930.7025, 2420.928
931.1846, 2420.256
931.6667, 2414.671
932.1489, 2396.977
932.6310, 2385.691
933.1131, 2401.909
933.5952, 2426.990
934.0773, 2432.870
934.5594, 2406.686
935.0416, 2390.803
935.5237, 2390.495
936.0058, 2392.872
936.4879, 2376.064
936.9700, 2349.932
937.4521, 2348.854
937.9343, 2379.725
938.4164, 2406.753
938.8985, 2402.460
939.3806, 2389.656
939.8627, 2386.577
940.3448, 2396.112
940.8270, 2399.739
941.3091, 2395.413
941.7912, 2390.995
942.2733, 2390.945
942.7554, 2394.444
943.2375, 2400.725
943.7197, 2408.977
944.2018, 2414.935
944.6839, 2414.742
945.1660, 2413.063
945.6481, 2411.530
946.1302, 2410.463
946.6124, 2411.319
947.0945, 2416.174
947.5766, 2415.733
948.0587, 2406.093
948.5408, 2393.065
949.0229, 2385.409
949.5051, 2383.200
949.9872, 2387.079
950.4693, 2400.955
950.9514, 2413.599
951.4335, 2423.041
951.9156, 2426.544
952.3978, 2420.366
952.8799, 2399.495
953.3620, 2385.534
953.8441, 2379.187
954.3262, 2379.568
954.8083, 2392.243
955.2905, 2409.012
955.7726, 2409.831
956.2547, 2392.968
956.7368, 2383.772
957.2189, 2406.193
957.7010, 2428.256
958.1832, 2432.472
958.6653, 2420.105
959.1474, 2406.486
959.6295, 2390.639
960.1116, 2382.180
960.5938, 2392.165
961.0759, 2406.652
961.5580, 2395.837
962.0401, 2370.906
962.5222, 2361.720
963.0043, 2402.720
963.4865, 2433.153
963.9686, 2433.139
964.4507, 2416.972
964.9328, 2405.246
965.4149, 2397.950
965.8970, 2392.325
966.3792, 2387.233
966.8613, 2387.062
967.3434, 2402.259
967.8255, 2422.910
968.3076, 2435.969
968.7897, 2439.313
969.2719, 2434.604
969.7540, 2414.974
970.2361, 2395.743
970.7182, 2384.315
971.2003, 2380.710
971.6824, 2391.113
972.1646, 2415.130
972.6467, 2435.682
973.1288, 2434.222
973.6109, 2430.086
974.0930, 2447.783
974.5751, 2479.934
975.0573, 2492.625
975.5394, 2467.483
976.0215, 2442.470
976.5036, 2422.516
976.9857, 2408.848
977.4678, 2405.958
977.9500, 2412.071
978.4321, 2419.261
978.9142, 2426.648
979.3963, 2430.849
979.8784, 2428.827
980.3605, 2422.670
980.8427, 2413.409
981.3248, 2395.807
981.8069, 2391.755
982.2891, 2404.841
982.7712, 2422.140
983.2533, 2436.494
983.7354, 2446.185
984.2175, 2445.563
984.6996, 2435.021
985.1818, 2420.704
985.6639, 2391.420
986.1460, 2373.187
986.6281, 2390.886
987.1102, 2432.551
987.5923, 2449.118
988.0745, 2436.720
988.5566, 2421.582
989.0387, 2408.053
989.5208, 2402.298
990.0029, 2423.168
990.4850, 2456.877
990.9672, 2475.958
991.4493, 2464.108
991.9314, 2452.002
992.4135, 2445.780
992.8956, 2442.863
993.3777, 2443.624
993.8599, 2448.609
994.3420, 2438.303
994.8241, 2410.946
995.3062, 2389.687
995.7883, 2400.785
996.2704, 2421.499
996.7526, 2428.245
997.2347, 2420.519
997.7168, 2418.765
998.1989, 2430.421
998.6810, 2440.023
999.1631, 2442.382
999.6453, 2440.440
1000.127, 2444.083
1000.609, 2451.210
1001.092, 2451.737
1001.574, 2437.311
1002.056, 2423.840
1002.538, 2424.989
1003.020, 2431.010
1003.502, 2428.475
1003.984, 2409.678
1004.466, 2404.904
1004.949, 2418.437
1005.431, 2433.035
1005.913, 2427.762
1006.395, 2413.538
1006.877, 2413.970
1007.359, 2429.335
1007.841, 2441.464
1008.323, 2437.582
1008.805, 2433.708
1009.288, 2437.876
1009.770, 2447.025
1010.252, 2447.945
1010.734, 2440.390
1011.216, 2436.492
1011.698, 2442.954
1012.180, 2449.513
1012.662, 2441.233
1013.145, 2426.701
1013.627, 2418.817
1014.109, 2427.623
1014.591, 2429.832
1015.073, 2419.482
1015.555, 2411.268
1016.037, 2422.393
1016.519, 2447.934
1017.001, 2465.360
1017.484, 2473.612
1017.966, 2469.895
1018.448, 2434.550
1018.930, 2403.337
1019.412, 2405.656
1019.894, 2433.572
1020.376, 2442.311
1020.858, 2426.754
1021.341, 2415.446
1021.823, 2417.289
1022.305, 2424.788
1022.787, 2427.531
1023.269, 2427.508
1023.751, 2428.545
1024.233, 2432.978
1024.715, 2435.281
1025.197, 2431.602
1025.680, 2427.930
1026.162, 2429.265
1026.644, 2435.459
1027.126, 2437.107
1027.608, 2434.186
1028.090, 2431.308
1028.572, 2428.531
1029.054, 2429.500
1029.536, 2438.393
1030.019, 2453.751
1030.501, 2470.764
1030.983, 2497.234
1031.465, 2503.421
1031.947, 2477.694
1032.429, 2442.449
1032.911, 2436.859
1033.393, 2449.211
1033.875, 2450.975
1034.358, 2433.153
1034.840, 2417.666
1035.322, 2412.000
1035.804, 2414.135
1036.286, 2424.431
1036.768, 2442.885
1037.250, 2454.975
1037.732, 2460.759
1038.215, 2461.323
1038.697, 2453.961
1039.179, 2444.401
1039.661, 2436.881
1040.143, 2431.480
1040.625, 2428.225
1041.107, 2425.078
1041.589, 2428.410
1042.072, 2441.241
1042.554, 2456.165
1043.036, 2465.393
1043.518, 2468.440
1044.000, 2459.780
1044.482, 2437.645
1044.964, 2425.609
1045.446, 2451.474
1045.928, 2476.646
1046.411, 2474.030
1046.893, 2448.773
1047.375, 2448.720
1047.857, 2475.187
1048.339, 2493.961
1048.821, 2488.971
1049.303, 2472.386
1049.785, 2449.396
1050.267, 2427.215
1050.750, 2416.895
1051.232, 2433.589
1051.714, 2442.517
1052.196, 2439.324
1052.678, 2436.221
1053.160, 2447.766
1053.642, 2468.356
1054.124, 2479.111
1054.607, 2479.826
1055.089, 2475.526
1055.571, 2463.816
1056.053, 2453.237
1056.535, 2446.456
1057.017, 2444.133
1057.499, 2451.212
1057.981, 2468.512
1058.464, 2477.274
1058.946, 2470.402
1059.428, 2463.077
1059.910, 2482.735
1060.392, 2505.621
1060.874, 2499.237
1061.356, 2444.344
1061.838, 2415.000
1062.320, 2421.123
1062.802, 2435.224
1063.285, 2440.990
1063.767, 2443.104
1064.249, 2460.939
1064.731, 2488.372
1065.213, 2501.837
1065.695, 2476.455
1066.177, 2452.029
1066.659, 2436.904
1067.142, 2432.926
1067.624, 2448.961
1068.106, 2485.975
1068.588, 2503.288
1069.070, 2496.018
1069.552, 2481.879
1070.034, 2470.561
1070.516, 2463.372
1070.999, 2464.242
1071.481, 2472.694
1071.963, 2473.439
1072.445, 2462.479
1072.927, 2454.946
1073.409, 2456.965
1073.891, 2462.070
1074.373, 2456.520
1074.855, 2445.958
1075.338, 2443.419
1075.820, 2459.293
1076.302, 2464.916
1076.784, 2442.082
1077.266, 2419.358
1077.748, 2415.519
1078.230, 2429.015
1078.712, 2443.106
1079.195, 2457.375
1079.677, 2466.511
1080.159, 2462.729
1080.641, 2457.521
1081.123, 2457.456
1081.605, 2461.136
1082.087, 2465.923
1082.569, 2473.878
1083.052, 2471.940
1083.534, 2456.793
1084.016, 2440.833
1084.498, 2438.329
1084.980, 2441.347
1085.462, 2436.067
1085.944, 2421.365
1086.426, 2424.620
1086.908, 2465.623
1087.391, 2495.197
1087.873, 2495.801
1088.355, 2478.283
1088.837, 2461.623
1089.319, 2447.894
1089.801, 2444.703
1090.283, 2459.905
1090.765, 2471.420
1091.247, 2464.451
1091.730, 2454.596
1092.212, 2453.085
1092.694, 2459.943
1093.176, 2465.045
1093.658, 2468.413
1094.140, 2470.849
1094.622, 2472.706
1095.104, 2473.911
1095.587, 2473.465
1096.069, 2472.492
1096.551, 2474.001
1097.033, 2480.448
1097.515, 2480.941
1097.997, 2473.295
1098.479, 2438.069
1098.961, 2466.665
1099.443, 2482.530
1099.926, 2486.345
1100.408, 2442.032
1100.890, 2459.869
1101.372, 2452.799
1101.854, 2444.707
1102.336, 2471.291
1102.818, 2433.978
1103.300, 2460.012
1103.782, 2460.760
1104.265, 2473.079
1104.747, 2460.339
1105.229, 2455.339
1105.711, 2475.408
1106.193, 2481.597
1106.675, 2465.971
1107.157, 2479.028
1107.639, 2440.839
1108.122, 2447.617
1108.604, 2473.799
1109.086, 2459.433
1109.568, 2472.948
1110.050, 2475.844
1110.532, 2430.485
1111.014, 2469.047
1111.496, 2471.316
1111.979, 2436.319
1112.461, 2472.005
1112.943, 2442.146
1113.425, 2435.683
1113.907, 2472.456
1114.389, 2479.804
1114.871, 2473.002
1115.353, 2468.148
1115.835, 2473.108
1116.318, 2470.166
1116.800, 2452.504
1117.282, 2433.177
1117.764, 2433.294
1118.246, 2446.228
1118.728, 2458.369
1119.210, 2468.043
1119.692, 2471.032
1120.174, 2461.128
1120.657, 2448.607
1121.139, 2435.793
1121.621, 2424.285
1122.103, 2420.480
1122.585, 2423.679
1123.067, 2430.926
1123.549, 2444.472
1124.031, 2454.284
1124.514, 2453.073
1124.996, 2445.885
1125.478, 2436.122
1125.960, 2423.080
1126.442, 2419.021
1126.924, 2424.032
1127.406, 2431.951
1127.888, 2440.730
1128.370, 2448.965
1128.853, 2458.526
1129.335, 2465.877
1129.817, 2461.656
1130.299, 2436.688
1130.781, 2430.541
1131.263, 2449.998
1131.745, 2468.617
1132.227, 2451.802
1132.709, 2425.263
1133.192, 2428.280
1133.674, 2457.830
1134.156, 2476.132
1134.638, 2468.421
1135.120, 2463.697
1135.602, 2467.956
1136.084, 2476.618
1136.566, 2487.417
1137.049, 2496.036
1137.531, 2489.581
1138.013, 2463.891
1138.495, 2446.589
1138.977, 2456.501
1139.459, 2466.581
1139.941, 2466.954
1140.423, 2460.437
1140.906, 2454.129
1141.388, 2448.749
1141.870, 2448.409
1142.352, 2457.467
1142.834, 2464.065
1143.316, 2459.251
1143.798, 2452.592
1144.280, 2451.490
1144.762, 2455.773
1145.245, 2456.969
1145.727, 2455.434
1146.209, 2456.316
1146.691, 2467.385
1147.173, 2476.347
1147.655, 2473.321
1148.137, 2464.026
1148.619, 2456.463
1149.101, 2449.635
1149.584, 2451.775
1150.066, 2463.710
1150.548, 2476.954
1151.030, 2485.979
1151.512, 2492.400
1151.994, 2500.039
1152.476, 2506.404
1152.958, 2501.617
1153.441, 2480.167
1153.923, 2464.638
1154.405, 2457.654
1154.887, 2458.555
1155.369, 2478.888
1155.851, 2499.402
1156.333, 2486.937
1156.815, 2440.018
1157.297, 2420.668
1157.780, 2448.530
1158.262, 2467.861
1158.744, 2460.658
1159.226, 2443.887
1159.708, 2446.290
1160.190, 2459.186
1160.672, 2465.933
1161.154, 2461.402
1161.636, 2461.503
1162.119, 2473.037
1162.601, 2482.669
1163.083, 2483.417
1163.565, 2479.511
1164.047, 2484.350
1164.529, 2493.924
1165.011, 2496.719
1165.493, 2484.596
1165.976, 2474.964
1166.458, 2473.783
1166.940, 2474.605
1167.422, 2474.231
1167.904, 2472.280
1168.386, 2461.688
1168.868, 2446.109
1169.350, 2443.163
1169.833, 2480.357
1170.315, 2508.329
1170.797, 2501.204
1171.279, 2483.390
1171.761, 2477.756
1172.243, 2483.403
1172.725, 2486.458
1173.207, 2486.507
1173.689, 2484.889
1174.172, 2483.195
1174.654, 2479.327
1175.136, 2469.656
1175.618, 2458.309
1176.100, 2450.311
1176.582, 2445.672
1177.064, 2453.776
1177.546, 2476.351
1178.028, 2495.219
1178.511, 2495.007
1178.993, 2487.790
1179.475, 2479.102
1179.957, 2470.673
1180.439, 2467.970
1180.921, 2471.242
1181.403, 2473.812
1181.885, 2473.911
1182.368, 2475.274
1182.850, 2484.838
1183.332, 2494.403
1183.814, 2494.839
1184.296, 2486.909
1184.778, 2485.967
1185.260, 2492.983
1185.742, 2495.566
1186.224, 2486.933
1186.707, 2479.925
1187.189, 2500.043
1187.671, 2521.808
1188.153, 2509.130
1188.635, 2452.314
1189.117, 2433.714
1189.599, 2458.704
1190.081, 2485.669
1190.563, 2496.365
1191.046, 2497.582
1191.528, 2493.709
1192.010, 2486.886
1192.492, 2480.371
1192.974, 2475.476
1193.456, 2464.990
1193.938, 2445.926
1194.420, 2437.925
1194.903, 2466.118
1195.385, 2501.976
1195.867, 2508.072
1196.349, 2494.589
1196.831, 2481.567
1197.313, 2467.577
1197.795, 2466.711
1198.277, 2482.098
1198.760, 2498.475
1199.242, 2506.785
1199.724, 2506.654
1200.206, 2491.718
1200.688, 2467.418
1201.170, 2452.381
1201.652, 2449.339
1202.134, 2454.922
1202.616, 2470.281
1203.099, 2489.180
1203.581, 2514.220
1204.063, 2533.897
1204.545, 2524.329
1205.027, 2490.896
1205.509, 2470.374
1205.991, 2474.296
1206.473, 2475.951
1206.955, 2470.789
1207.438, 2463.897
1207.920, 2459.176
1208.402, 2457.902
1208.884, 2464.515
1209.366, 2478.492
1209.848, 2485.201
1210.330, 2480.917
1210.812, 2474.657
1211.295, 2467.680
1211.777, 2461.727
1212.259, 2457.219
1212.741, 2456.605
1213.223, 2466.473
1213.705, 2488.539
1214.187, 2502.366
1214.669, 2504.289
1215.151, 2502.544
1215.634, 2497.584
1216.116, 2494.509
1216.598, 2506.781
1217.080, 2524.013
1217.562, 2527.166
1218.044, 2508.692
1218.526, 2503.715
1219.008, 2522.701
1219.490, 2531.638
1219.973, 2510.817
1220.455, 2481.794
1220.937, 2482.199
1221.419, 2499.982
1221.901, 2516.746
1222.383, 2531.166
1222.865, 2532.084
1223.347, 2514.561
1223.830, 2498.355
1224.312, 2493.234
1224.794, 2495.880
1225.276, 2507.101
1225.758, 2520.127
1226.240, 2521.944
1226.722, 2500.778
1227.204, 2489.772
1227.687, 2490.911
1228.169, 2496.233
1228.651, 2505.474
1229.133, 2511.870
1229.615, 2497.837
1230.097, 2474.491
1230.579, 2464.471
1231.061, 2479.992
1231.543, 2493.581
1232.026, 2506.276
1232.508, 2512.625
1232.990, 2503.837
1233.472, 2489.699
1233.954, 2485.080
1234.436, 2485.776
1234.918, 2481.168
1235.400, 2460.866
1235.882, 2461.199
1236.365, 2487.412
1236.847, 2512.178
1237.329, 2508.241
1237.811, 2494.444
1238.293, 2491.106
1238.775, 2495.646
1239.257, 2499.865
1239.739, 2504.243
1240.222, 2503.078
1240.704, 2494.891
1241.186, 2488.694
1241.668, 2497.546
1242.150, 2507.854
1242.632, 2501.270
1243.114, 2484.978
1243.596, 2484.873
1244.078, 2507.079
1244.561, 2519.031
1245.043, 2517.207
1245.525, 2508.889
1246.007, 2493.759
1246.489, 2480.696
1246.971, 2478.760
1247.453, 2485.627
1247.935, 2492.519
1248.417, 2500.076
1248.900, 2499.269
1249.382, 2488.062
1249.864, 2479.402
1250.346, 2486.582
1250.828, 2498.477
1251.310, 2510.305
1251.792, 2519.344
1252.274, 2516.976
1252.757, 2503.159
1253.239, 2489.682
1253.721, 2477.654
1254.203, 2473.999
1254.685, 2494.248
1255.167, 2514.471
1255.649, 2515.920
1256.131, 2507.163
1256.614, 2509.464
1257.096, 2521.898
1257.578, 2536.139
1258.060, 2551.691
1258.542, 2556.847
1259.024, 2531.488
1259.506, 2507.580
1259.988, 2503.735
1260.470, 2510.591
1260.953, 2498.846
1261.435, 2474.811
1261.917, 2473.376
1262.399, 2504.322
1262.881, 2525.483
1263.363, 2501.968
1263.845, 2480.596
1264.327, 2478.898
1264.809, 2492.152
1265.292, 2512.185
1265.774, 2537.623
1266.256, 2569.583
1266.738, 2611.951
1267.220, 2626.511
1267.702, 2575.749
1268.184, 2532.491
1268.666, 2522.483
1269.149, 2530.915
1269.631, 2531.232
1270.113, 2525.986
1270.595, 2517.904
1271.077, 2505.738
1271.559, 2506.939
1272.041, 2531.128
1272.523, 2548.719
1273.005, 2547.455
1273.488, 2538.187
1273.970, 2539.908
##END=



