##NAMES=Halite
##RRUFFID=R070534
##IDEAL CHEMISTRY=NaCl
##LOCALITY=Searles Lake, San Bernadino County, California, USA
##OWNER=RRUFF
##SOURCE=James Shigley
##DESCRIPTION=Colorless cubes
##STATUS=The identification of this mineral has been confirmed by X-ray diffraction.
##URL=rruff.info/R070534
154.1837, 49163.90
154.6658, 49425.05
155.1479, 49611.87
155.6300, 49749.47
156.1121, 49841.96
156.5943, 49889.24
157.0764, 49860.73
157.5585, 49777.61
158.0406, 49720.64
158.5227, 49712.35
159.0048, 49756.29
159.4870, 49808.73
159.9691, 49637.51
160.4512, 49417.42
160.9333, 49271.46
161.4154, 49189.19
161.8975, 49099.02
162.3797, 48959.57
162.8618, 48822.50
163.3439, 48760.81
163.8260, 48797.76
164.3081, 48844.77
164.7902, 48825.89
165.2724, 48750.46
165.7545, 48708.32
166.2366, 48739.07
166.7187, 48819.11
167.2008, 48932.04
167.6829, 49094.44
168.1651, 49235.15
168.6472, 49274.96
169.1293, 49216.46
169.6114, 49182.91
170.0935, 49245.78
170.5756, 49330.39
171.0578, 49364.94
171.5399, 49336.22
172.0220, 49281.45
172.5041, 49231.75
172.9862, 49186.02
173.4683, 49141.39
173.9505, 49108.83
174.4326, 49064.65
174.9147, 48980.72
175.3968, 48846.84
175.8789, 48702.96
176.3610, 48591.99
176.8432, 48516.09
177.3253, 48440.44
177.8074, 48367.98
178.2895, 48280.20
178.7716, 48152.53
179.2537, 47976.36
179.7359, 47796.57
180.2180, 47673.44
180.7001, 47618.10
181.1822, 47539.70
181.6643, 47375.22
182.1465, 47204.33
182.6286, 47088.63
183.1107, 47040.98
183.5928, 47006.48
184.0749, 46913.90
184.5570, 46750.45
185.0392, 46606.38
185.5213, 46502.33
186.0034, 46425.38
186.4855, 46381.62
186.9676, 46371.45
187.4497, 46363.16
187.9319, 46309.58
188.4140, 46196.35
188.8961, 46116.05
189.3782, 46106.16
189.8603, 46121.08
190.3424, 46139.10
190.8246, 46155.69
191.3067, 46174.26
191.7888, 46206.56
192.2709, 46260.83
192.7530, 46284.09
193.2351, 46236.72
193.7173, 46177.97
194.1994, 46133.83
194.6815, 46109.84
195.1636, 46103.66
195.6457, 46128.32
196.1278, 46198.27
196.6100, 46216.79
197.0921, 46101.85
197.5742, 45984.06
198.0563, 45939.07
198.5384, 45969.83
199.0205, 46013.96
199.5027, 46001.67
199.9848, 45922.46
200.4669, 45862.00
200.9490, 45839.04
201.4311, 45828.85
201.9132, 45831.50
202.3954, 45841.59
202.8775, 45839.75
203.3596, 45793.70
203.8417, 45693.97
204.3238, 45634.60
204.8059, 45663.45
205.2881, 45697.29
205.7702, 45706.19
206.2523, 45687.12
206.7344, 45646.72
207.2165, 45577.77
207.6986, 45475.21
208.1808, 45407.70
208.6629, 45412.35
209.1450, 45417.95
209.6271, 45388.45
210.1092, 45331.56
210.5913, 45279.42
211.0735, 45268.81
211.5556, 45298.61
212.0377, 45280.93
212.5198, 45153.45
213.0019, 45044.66
213.4840, 45014.18
213.9662, 45043.41
214.4483, 45082.88
214.9304, 45102.66
215.4125, 45103.49
215.8946, 45088.75
216.3767, 45048.33
216.8589, 45004.68
217.3410, 44960.25
217.8231, 44919.73
218.3052, 44891.11
218.7873, 44882.77
219.2694, 44890.20
219.7516, 44891.92
220.2337, 44889.29
220.7158, 44878.49
221.1979, 44848.70
221.6800, 44813.23
222.1621, 44790.78
222.6443, 44790.35
223.1264, 44810.34
223.6085, 44854.79
224.0906, 44960.96
224.5727, 45019.58
225.0548, 44960.59
225.5370, 44854.02
226.0191, 44788.36
226.5012, 44809.09
226.9833, 44868.87
227.4654, 44863.95
227.9475, 44764.67
228.4297, 44674.95
228.9118, 44640.49
229.3939, 44622.98
229.8760, 44585.82
230.3581, 44515.00
230.8402, 44429.59
231.3224, 44355.01
231.8045, 44289.78
232.2866, 44239.59
232.7687, 44195.66
233.2508, 44172.89
233.7329, 44200.91
234.2151, 44289.66
234.6972, 44373.34
235.1793, 44357.29
235.6614, 44226.04
236.1435, 44131.45
236.6256, 44141.48
237.1078, 44176.72
237.5899, 44182.69
238.0720, 44153.55
238.5541, 44119.18
239.0362, 44104.76
239.5183, 44110.31
240.0005, 44123.16
240.4826, 44149.82
240.9647, 44175.97
241.4468, 44185.20
241.9289, 44180.29
242.4111, 44186.82
242.8932, 44241.05
243.3753, 44329.42
243.8574, 44370.91
244.3395, 44338.13
244.8216, 44284.15
245.3038, 44253.33
245.7859, 44237.55
246.2680, 44205.16
246.7501, 44133.14
247.2322, 44032.94
247.7143, 43928.97
248.1965, 43815.17
248.6786, 43714.46
249.1607, 43653.25
249.6428, 43616.54
250.1249, 43574.51
250.6070, 43509.96
251.0892, 43436.31
251.5713, 43372.79
252.0534, 43319.42
252.5355, 43274.25
253.0176, 43237.82
253.4997, 43208.69
253.9819, 43185.95
254.4640, 43176.49
254.9461, 43166.31
255.4282, 43126.31
255.9103, 43058.04
256.3924, 43032.10
256.8745, 43120.21
257.3567, 43254.86
257.8388, 43293.41
258.3209, 43180.39
258.8030, 43059.73
259.2851, 43032.80
259.7672, 43080.20
260.2494, 43116.84
260.7315, 43105.90
261.2136, 43075.67
261.6957, 43081.42
262.1778, 43136.33
262.6599, 43179.47
263.1421, 43189.60
263.6242, 43171.57
264.1063, 43128.91
264.5884, 43057.77
265.0705, 42979.38
265.5526, 42923.72
266.0348, 42892.00
266.5169, 42868.02
266.9990, 42853.20
267.4811, 42842.71
267.9632, 42837.18
268.4453, 42836.49
268.9275, 42819.93
269.4096, 42754.35
269.8917, 42624.62
270.3738, 42564.46
270.8559, 42662.84
271.3380, 42763.38
271.8202, 42725.78
272.3023, 42565.71
272.7844, 42424.75
273.2665, 42423.41
273.7487, 42557.34
274.2308, 42605.60
274.7129, 42506.97
275.1950, 42401.14
275.6771, 42334.57
276.1592, 42304.02
276.6414, 42298.87
277.1235, 42316.31
277.6056, 42348.96
278.0877, 42363.91
278.5698, 42352.22
279.0519, 42334.79
279.5341, 42312.68
280.0162, 42287.54
280.4983, 42259.41
280.9804, 42228.59
281.4625, 42199.00
281.9446, 42178.14
282.4268, 42171.81
282.9089, 42166.45
283.3910, 42156.18
283.8731, 42150.54
284.3552, 42162.96
284.8373, 42192.73
285.3195, 42221.16
285.8016, 42224.24
286.2837, 42194.25
286.7658, 42167.15
287.2479, 42156.00
287.7300, 42135.91
288.2122, 42092.59
288.6943, 42029.15
289.1764, 41956.92
289.6585, 41878.87
290.1406, 41796.84
290.6227, 41753.28
291.1049, 41782.24
291.5870, 41811.54
292.0691, 41828.96
292.5512, 41830.82
293.0333, 41810.40
293.5154, 41760.10
293.9976, 41692.56
294.4797, 41643.16
294.9618, 41621.61
295.4439, 41594.83
295.9260, 41537.45
296.4081, 41477.78
296.8903, 41447.49
297.3724, 41458.32
297.8545, 41476.81
298.3366, 41454.68
298.8187, 41387.63
299.3008, 41341.84
299.7830, 41342.18
300.2651, 41362.65
300.7472, 41392.28
301.2293, 41429.49
301.7114, 41445.63
302.1935, 41406.02
302.6757, 41326.97
303.1578, 41269.06
303.6399, 41241.53
304.1220, 41233.98
304.6041, 41250.38
305.0862, 41283.02
305.5684, 41300.11
306.0505, 41288.66
306.5326, 41258.16
307.0147, 41211.78
307.4968, 41148.16
307.9789, 41101.09
308.4611, 41102.77
308.9432, 41138.88
309.4253, 41149.45
309.9074, 41125.97
310.3895, 41083.86
310.8716, 41006.84
311.3538, 40913.96
311.8359, 40872.80
312.3180, 40924.38
312.8001, 41026.02
313.2822, 41069.81
313.7643, 41034.39
314.2465, 40995.63
314.7286, 40970.02
315.2107, 40948.01
315.6928, 40917.71
316.1749, 40876.08
316.6570, 40829.14
317.1392, 40785.97
317.6213, 40752.84
318.1034, 40699.23
318.5855, 40585.97
319.0676, 40485.65
319.5497, 40457.62
320.0319, 40488.81
320.5140, 40517.07
320.9961, 40489.82
321.4782, 40409.71
321.9603, 40364.45
322.4424, 40401.46
322.9246, 40422.04
323.4067, 40388.73
323.8888, 40330.94
324.3709, 40290.86
324.8530, 40288.56
325.3351, 40314.23
325.8173, 40347.63
326.2994, 40398.03
326.7815, 40436.76
327.2636, 40477.50
327.7457, 40496.04
328.2278, 40457.38
328.7100, 40361.79
329.1921, 40267.54
329.6742, 40250.64
330.1563, 40315.80
330.6384, 40343.63
331.1205, 40291.98
331.6027, 40241.55
332.0848, 40242.82
332.5669, 40283.69
333.0490, 40323.69
333.5311, 40350.90
334.0132, 40359.95
334.4954, 40331.70
334.9775, 40257.22
335.4596, 40180.08
335.9417, 40116.52
336.4238, 40067.51
336.9059, 40039.11
337.3881, 40042.33
337.8702, 40049.36
338.3523, 40031.86
338.8344, 39995.97
339.3165, 39980.18
339.7986, 40013.44
340.2808, 40049.11
340.7629, 39991.12
341.2450, 39816.72
341.7271, 39680.82
342.2092, 39643.42
342.6913, 39658.66
343.1735, 39676.67
343.6556, 39688.22
344.1377, 39694.64
344.6198, 39696.73
345.1019, 39694.07
345.5840, 39690.20
346.0662, 39675.83
346.5483, 39669.74
347.0304, 39697.49
347.5125, 39741.53
347.9946, 39757.44
348.4767, 39717.03
348.9589, 39638.46
349.4410, 39589.01
349.9231, 39590.27
350.4052, 39596.36
350.8873, 39621.82
351.3694, 39641.76
351.8516, 39628.39
352.3337, 39576.88
352.8158, 39511.56
353.2979, 39459.84
353.7800, 39419.46
354.2621, 39402.00
354.7443, 39438.20
355.2264, 39470.91
355.7085, 39476.13
356.1906, 39458.24
356.6727, 39434.30
357.1548, 39416.28
357.6370, 39399.40
358.1191, 39366.63
358.6012, 39311.20
359.0833, 39257.20
359.5654, 39202.34
360.0475, 39159.62
360.5297, 39155.36
361.0118, 39212.19
361.4939, 39256.03
361.9760, 39194.94
362.4581, 39050.37
362.9402, 38958.90
363.4224, 38975.11
363.9045, 39024.54
364.3866, 39011.02
364.8687, 38936.06
365.3508, 38864.49
365.8329, 38810.53
366.3151, 38769.74
366.7972, 38740.97
367.2793, 38722.95
367.7614, 38705.97
368.2435, 38682.79
368.7256, 38653.94
369.2078, 38626.96
369.6899, 38599.52
370.1720, 38576.37
370.6541, 38554.91
371.1362, 38539.91
371.6183, 38545.21
372.1005, 38576.46
372.5826, 38613.83
373.0647, 38619.03
373.5468, 38576.69
374.0289, 38530.95
374.5110, 38462.53
374.9932, 38407.16
375.4753, 38401.77
375.9574, 38435.80
376.4395, 38459.44
376.9216, 38423.89
377.4037, 38336.69
377.8859, 38289.56
378.3680, 38317.09
378.8501, 38331.93
379.3322, 38284.48
379.8143, 38216.66
380.2964, 38186.85
380.7786, 38220.44
381.2607, 38273.91
381.7428, 38296.74
382.2249, 38288.84
382.7070, 38258.62
383.1891, 38188.02
383.6713, 38118.06
384.1534, 38094.46
384.6355, 38115.45
385.1176, 38132.61
385.5997, 38118.79
386.0818, 38092.68
386.5640, 38086.48
387.0461, 38102.70
387.5282, 38108.24
388.0103, 38077.82
388.4924, 38015.66
388.9745, 37956.68
389.4567, 37888.01
389.9388, 37835.89
390.4209, 37813.37
390.9030, 37812.49
391.3851, 37825.44
391.8672, 37849.41
392.3494, 37872.57
392.8315, 37874.63
393.3136, 37843.16
393.7957, 37821.62
394.2778, 37832.33
394.7599, 37832.63
395.2421, 37780.34
395.7242, 37694.27
396.2063, 37635.45
396.6884, 37655.97
397.1706, 37733.27
397.6527, 37749.00
398.1348, 37650.54
398.6169, 37588.47
399.0990, 37643.80
399.5811, 37727.47
400.0633, 37749.84
400.5454, 37687.49
401.0275, 37602.32
401.5096, 37546.83
401.9917, 37519.66
402.4738, 37517.00
402.9560, 37550.06
403.4381, 37585.62
403.9202, 37593.96
404.4023, 37580.28
404.8844, 37562.91
405.3665, 37550.18
405.8487, 37532.07
406.3308, 37494.22
406.8129, 37440.07
407.2950, 37391.46
407.7771, 37361.73
408.2592, 37340.07
408.7414, 37297.25
409.2235, 37218.51
409.7056, 37147.46
410.1877, 37085.53
410.6698, 37036.08
411.1519, 37010.07
411.6341, 37004.89
412.1162, 36998.53
412.5983, 36968.04
413.0804, 36912.83
413.5625, 36870.91
414.0446, 36855.60
414.5268, 36840.29
415.0089, 36813.98
415.4910, 36786.19
415.9731, 36769.38
416.4552, 36768.50
416.9373, 36778.73
417.4195, 36797.24
417.9016, 36826.00
418.3837, 36842.82
418.8658, 36836.37
419.3479, 36825.02
419.8300, 36834.20
420.3122, 36855.78
420.7943, 36846.98
421.2764, 36754.45
421.7585, 36637.98
422.2406, 36587.43
422.7227, 36603.47
423.2049, 36626.80
423.6870, 36632.09
424.1691, 36620.30
424.6512, 36592.95
425.1333, 36541.45
425.6154, 36493.67
426.0976, 36455.70
426.5797, 36425.47
427.0618, 36405.23
427.5439, 36393.26
428.0260, 36376.08
428.5081, 36337.71
428.9903, 36275.21
429.4724, 36229.50
429.9545, 36213.71
430.4366, 36198.97
430.9187, 36182.25
431.4008, 36160.25
431.8830, 36128.86
432.3651, 36086.30
432.8472, 36036.32
433.3293, 35977.06
433.8114, 35902.95
434.2935, 35863.20
434.7757, 35889.87
435.2578, 35927.43
435.7399, 35943.65
436.2220, 35940.61
436.7041, 35928.52
437.1862, 35906.98
437.6684, 35882.38
438.1505, 35857.12
438.6326, 35832.43
439.1147, 35835.02
439.5968, 35893.23
440.0789, 35971.61
440.5611, 35985.54
441.0432, 35915.00
441.5253, 35847.09
442.0074, 35781.45
442.4895, 35737.88
442.9716, 35753.25
443.4538, 35821.10
443.9359, 35883.91
444.4180, 35892.78
444.9001, 35850.10
445.3822, 35804.19
445.8643, 35751.32
446.3465, 35699.11
446.8286, 35648.13
447.3107, 35598.42
447.7928, 35545.62
448.2749, 35489.56
448.7570, 35444.76
449.2392, 35438.84
449.7213, 35471.24
450.2034, 35472.87
450.6855, 35427.14
451.1676, 35369.81
451.6497, 35319.09
452.1319, 35274.18
452.6140, 35233.04
453.0961, 35189.33
453.5782, 35156.91
454.0603, 35158.23
454.5424, 35183.16
455.0246, 35192.74
455.5067, 35172.50
455.9888, 35138.21
456.4709, 35110.20
456.9530, 35087.63
457.4352, 35075.65
457.9173, 35112.85
458.3994, 35125.39
458.8815, 35034.93
459.3636, 34881.26
459.8457, 34772.88
460.3279, 34773.27
460.8100, 34840.89
461.2921, 34857.84
461.7742, 34790.53
462.2563, 34748.06
462.7384, 34744.20
463.2206, 34766.49
463.7027, 34836.96
464.1848, 34938.00
464.6669, 34992.39
465.1490, 34914.32
465.6311, 34762.99
466.1133, 34689.44
466.5954, 34704.89
467.0775, 34713.47
467.5596, 34664.34
468.0417, 34585.41
468.5238, 34531.13
469.0060, 34505.50
469.4881, 34491.59
469.9702, 34501.08
470.4523, 34510.17
470.9344, 34480.30
471.4165, 34412.18
471.8987, 34350.15
472.3808, 34331.73
472.8629, 34352.48
473.3450, 34365.32
473.8271, 34355.76
474.3092, 34354.73
474.7914, 34389.20
475.2735, 34420.16
475.7556, 34395.32
476.2377, 34309.78
476.7198, 34225.28
477.2019, 34220.51
477.6841, 34286.95
478.1662, 34302.61
478.6483, 34237.55
479.1304, 34179.42
479.6125, 34204.96
480.0946, 34260.77
480.5768, 34260.21
481.0589, 34163.78
481.5410, 34064.48
482.0231, 34022.10
482.5052, 34020.43
482.9873, 34033.09
483.4695, 34055.22
483.9516, 34070.16
484.4337, 34058.80
484.9158, 34019.11
485.3979, 33991.83
485.8800, 33997.59
486.3622, 33990.43
486.8443, 33938.09
487.3264, 33871.64
487.8085, 33838.16
488.2906, 33851.52
488.7727, 33877.44
489.2549, 33866.04
489.7370, 33812.22
490.2191, 33778.07
490.7012, 33782.62
491.1833, 33782.87
491.6654, 33756.75
492.1476, 33712.06
492.6297, 33659.76
493.1118, 33592.59
493.5939, 33538.66
494.0760, 33531.15
494.5581, 33557.19
495.0403, 33578.69
495.5224, 33588.16
496.0045, 33578.06
496.4866, 33528.87
496.9687, 33431.48
497.4508, 33398.96
497.9330, 33510.71
498.4151, 33596.36
498.8972, 33572.09
499.3793, 33481.59
499.8614, 33387.93
500.3435, 33315.70
500.8257, 33266.11
501.3078, 33249.83
501.7899, 33275.88
502.2720, 33273.60
502.7541, 33215.52
503.2362, 33160.73
503.7184, 33136.42
504.2005, 33134.82
504.6826, 33143.89
505.1647, 33169.05
505.6468, 33185.29
506.1289, 33162.20
506.6111, 33110.71
507.0932, 33064.63
507.5753, 33031.39
508.0574, 33012.07
508.5395, 33012.47
509.0216, 33035.39
509.5038, 33039.39
509.9859, 33023.27
510.4680, 32991.73
510.9501, 32932.44
511.4322, 32864.30
511.9143, 32810.12
512.3965, 32778.42
512.8786, 32767.70
513.3607, 32786.38
513.8428, 32841.26
514.3250, 32858.46
514.8071, 32813.63
515.2892, 32765.22
515.7713, 32743.93
516.2534, 32736.66
516.7355, 32720.60
517.2177, 32684.39
517.6998, 32653.20
518.1819, 32660.63
518.6640, 32686.48
519.1461, 32679.17
519.6282, 32627.75
520.1104, 32556.45
520.5925, 32479.25
521.0746, 32396.23
521.5567, 32362.84
522.0388, 32430.90
522.5209, 32477.43
523.0031, 32462.47
523.4852, 32415.75
523.9673, 32361.96
524.4494, 32311.08
524.9315, 32277.26
525.4136, 32288.58
525.8958, 32338.68
526.3779, 32332.21
526.8600, 32234.93
527.3421, 32158.70
527.8242, 32185.02
528.3063, 32250.74
528.7885, 32275.46
529.2706, 32242.63
529.7527, 32202.85
530.2348, 32173.96
530.7169, 32156.59
531.1990, 32157.59
531.6812, 32174.99
532.1633, 32188.32
532.6454, 32183.38
533.1275, 32162.12
533.6096, 32133.82
534.0917, 32080.88
534.5739, 32046.01
535.0560, 32046.95
535.5381, 32054.22
536.0202, 32047.67
536.5023, 32025.58
536.9844, 31995.12
537.4666, 31958.99
537.9487, 31919.73
538.4308, 31875.87
538.9129, 31824.26
539.3950, 31806.24
539.8771, 31858.89
540.3593, 31927.65
540.8414, 31932.79
541.3235, 31871.56
541.8056, 31810.93
542.2877, 31761.92
542.7698, 31720.32
543.2520, 31680.75
543.7341, 31646.51
544.2162, 31631.59
544.6983, 31643.35
545.1804, 31660.40
545.6625, 31635.44
546.1447, 31543.22
546.6268, 31490.75
547.1089, 31520.74
547.5910, 31549.20
548.0731, 31529.71
548.5552, 31484.33
549.0374, 31458.08
549.5195, 31467.48
550.0016, 31498.24
550.4837, 31560.98
550.9658, 31635.63
551.4479, 31644.39
551.9301, 31565.40
552.4122, 31472.37
552.8943, 31430.29
553.3764, 31437.90
553.8585, 31443.74
554.3406, 31460.11
554.8228, 31459.78
555.3049, 31424.25
555.7870, 31376.44
556.2691, 31345.24
556.7512, 31332.82
557.2333, 31312.51
557.7155, 31249.26
558.1976, 31158.05
558.6797, 31119.46
559.1618, 31151.58
559.6439, 31170.51
560.1260, 31127.78
560.6082, 31066.82
561.0903, 31052.04
561.5724, 31091.95
562.0545, 31120.77
562.5366, 31122.43
563.0187, 31101.07
563.5009, 31044.13
563.9830, 30965.13
564.4651, 30905.98
564.9472, 30888.10
565.4293, 30894.91
565.9114, 30891.74
566.3936, 30872.61
566.8757, 30859.41
567.3578, 30870.34
567.8399, 30868.73
568.3220, 30822.28
568.8041, 30754.47
569.2863, 30715.63
569.7684, 30732.13
570.2505, 30758.28
570.7326, 30749.87
571.2147, 30716.88
571.6968, 30683.47
572.1790, 30653.35
572.6611, 30639.18
573.1432, 30659.91
573.6253, 30709.52
574.1074, 30713.95
574.5895, 30634.26
575.0717, 30562.51
575.5538, 30513.60
576.0359, 30476.61
576.5180, 30440.39
577.0001, 30405.09
577.4822, 30380.33
577.9644, 30378.37
578.4465, 30389.01
578.9286, 30383.53
579.4107, 30360.34
579.8928, 30340.32
580.3749, 30333.49
580.8571, 30328.93
581.3392, 30309.56
581.8213, 30275.14
582.3034, 30246.28
582.7855, 30225.61
583.2676, 30211.13
583.7498, 30209.55
584.2319, 30211.10
584.7140, 30191.49
585.1961, 30144.13
585.6782, 30100.35
586.1603, 30113.32
586.6425, 30188.00
587.1246, 30208.83
587.6067, 30148.89
588.0888, 30083.39
588.5709, 30042.29
589.0530, 30016.35
589.5352, 29996.05
590.0173, 29980.42
590.4994, 29970.67
590.9815, 29971.25
591.4636, 29975.92
591.9457, 29980.73
592.4279, 29983.34
592.9100, 29973.79
593.3921, 29944.52
593.8742, 29907.74
594.3563, 29895.89
594.8384, 29929.62
595.3206, 29937.26
595.8027, 29905.28
596.2848, 29856.51
596.7669, 29773.68
597.2490, 29684.49
597.7311, 29649.57
598.2133, 29706.93
598.6954, 29775.07
599.1775, 29776.03
599.6596, 29733.34
600.1417, 29705.95
600.6238, 29703.54
601.1060, 29706.32
601.5881, 29700.15
602.0702, 29686.07
602.5523, 29669.20
603.0344, 29631.73
603.5165, 29617.75
603.9987, 29656.25
604.4808, 29696.99
604.9629, 29709.18
605.4450, 29690.46
605.9271, 29645.31
606.4092, 29563.42
606.8914, 29476.40
607.3735, 29442.13
607.8556, 29451.53
608.3377, 29423.22
608.8198, 29325.66
609.3019, 29235.57
609.7841, 29234.26
610.2662, 29322.32
610.7483, 29384.64
611.2304, 29425.56
611.7125, 29438.87
612.1946, 29409.64
612.6768, 29360.88
613.1589, 29309.30
613.6410, 29260.94
614.1231, 29221.11
614.6052, 29193.48
615.0873, 29177.54
615.5695, 29177.56
616.0516, 29194.44
616.5337, 29202.29
617.0158, 29193.67
617.4979, 29171.37
617.9800, 29133.48
618.4622, 29077.74
618.9443, 29037.92
619.4264, 29027.48
619.9085, 29018.84
620.3906, 28987.41
620.8727, 28957.14
621.3549, 28973.93
621.8370, 29040.39
622.3191, 29094.82
622.8012, 29064.62
623.2833, 28973.57
623.7654, 28938.25
624.2476, 28970.73
624.7297, 28990.98
625.2118, 28964.96
625.6939, 28918.85
626.1760, 28888.13
626.6581, 28873.16
627.1403, 28860.00
627.6224, 28854.51
628.1045, 28842.98
628.5866, 28810.81
629.0687, 28770.19
629.5508, 28742.61
630.0330, 28733.65
630.5151, 28728.37
630.9972, 28708.60
631.4793, 28676.67
631.9614, 28651.24
632.4435, 28632.07
632.9257, 28621.71
633.4078, 28633.57
633.8899, 28644.69
634.3720, 28609.71
634.8541, 28518.75
635.3362, 28474.11
635.8184, 28548.63
636.3005, 28623.06
636.7826, 28607.80
637.2647, 28541.83
637.7468, 28503.70
638.2289, 28519.08
638.7111, 28551.10
639.1932, 28552.33
639.6753, 28526.03
640.1574, 28524.54
640.6395, 28560.46
641.1216, 28579.98
641.6038, 28553.81
642.0859, 28504.58
642.5680, 28465.91
643.0501, 28439.39
643.5322, 28411.96
644.0143, 28371.07
644.4965, 28338.45
644.9786, 28337.77
645.4607, 28353.07
645.9428, 28355.37
646.4249, 28334.85
646.9070, 28300.19
647.3892, 28257.22
647.8713, 28207.42
648.3534, 28165.33
648.8355, 28126.83
649.3176, 28112.84
649.7997, 28149.98
650.2819, 28201.63
650.7640, 28208.83
651.2461, 28165.80
651.7282, 28132.73
652.2103, 28129.58
652.6924, 28129.13
653.1746, 28112.07
653.6567, 28087.83
654.1388, 28076.52
654.6209, 28083.03
655.1030, 28089.40
655.5851, 28071.02
656.0673, 28033.81
656.5494, 28022.09
657.0315, 28044.74
657.5136, 28045.56
657.9957, 27993.96
658.4778, 27919.26
658.9600, 27855.72
659.4421, 27799.70
659.9242, 27780.49
660.4063, 27840.32
660.8884, 27893.96
661.3705, 27897.54
661.8527, 27870.89
662.3348, 27839.29
662.8169, 27810.90
663.2990, 27788.37
663.7811, 27780.50
664.2632, 27779.04
664.7454, 27748.95
665.2275, 27687.11
665.7096, 27645.13
666.1917, 27644.76
666.6738, 27663.25
667.1559, 27672.32
667.6381, 27669.72
668.1202, 27677.61
668.6023, 27715.02
669.0844, 27739.51
669.5665, 27734.59
670.0486, 27712.00
670.5308, 27682.89
671.0129, 27650.15
671.4950, 27614.01
671.9771, 27571.69
672.4592, 27528.62
672.9413, 27496.60
673.4235, 27474.62
673.9056, 27446.33
674.3877, 27405.05
674.8698, 27368.93
675.3519, 27359.57
675.8340, 27376.58
676.3162, 27378.72
676.7983, 27362.72
677.2804, 27336.32
677.7625, 27273.95
678.2446, 27221.87
678.7267, 27227.96
679.2089, 27282.61
679.6910, 27333.55
680.1731, 27363.04
680.6552, 27364.45
681.1373, 27302.06
681.6194, 27206.37
682.1016, 27177.65
682.5837, 27233.81
683.0658, 27295.64
683.5479, 27297.72
684.0300, 27251.68
684.5121, 27216.15
684.9943, 27195.66
685.4764, 27175.49
685.9585, 27131.57
686.4406, 27108.72
686.9227, 27155.20
687.4048, 27239.81
687.8870, 27285.86
688.3691, 27266.27
688.8512, 27217.67
689.3333, 27144.93
689.8154, 27067.10
690.2975, 27008.89
690.7797, 26972.40
691.2618, 26951.80
691.7439, 26944.87
692.2260, 26943.89
692.7081, 26930.76
693.1902, 26902.51
693.6724, 26883.82
694.1545, 26883.02
694.6366, 26879.81
695.1187, 26863.13
695.6008, 26836.96
696.0829, 26804.84
696.5651, 26761.07
697.0472, 26732.65
697.5293, 26740.18
698.0114, 26752.83
698.4935, 26744.69
698.9756, 26724.80
699.4578, 26712.80
699.9399, 26715.95
700.4220, 26730.59
700.9041, 26762.96
701.3862, 26805.45
701.8683, 26816.02
702.3505, 26792.71
702.8326, 26751.04
703.3147, 26684.65
703.7968, 26623.95
704.2789, 26617.46
704.7611, 26678.26
705.2432, 26706.35
705.7253, 26692.65
706.2075, 26659.74
706.6896, 26594.29
707.1717, 26525.24
707.6538, 26480.81
708.1359, 26463.78
708.6180, 26459.38
709.1002, 26467.17
709.5823, 26474.03
710.0644, 26461.25
710.5465, 26432.79
711.0286, 26399.18
711.5107, 26362.88
711.9929, 26332.78
712.4750, 26316.33
712.9571, 26312.52
713.4392, 26318.24
713.9213, 26344.15
714.4034, 26355.01
714.8856, 26336.02
715.3677, 26311.19
715.8498, 26292.22
716.3319, 26278.44
716.8140, 26269.09
717.2961, 26270.90
717.7783, 26261.53
718.2604, 26203.59
718.7425, 26147.65
719.2246, 26165.80
719.7067, 26237.87
720.1888, 26286.65
720.6710, 26273.71
721.1531, 26226.47
721.6352, 26175.47
722.1173, 26122.71
722.5994, 26105.67
723.0815, 26134.42
723.5637, 26160.02
724.0458, 26160.60
724.5279, 26144.50
725.0100, 26123.44
725.4921, 26094.07
725.9742, 26073.79
726.4564, 26062.59
726.9385, 26060.87
727.4206, 26096.58
727.9027, 26126.17
728.3848, 26084.66
728.8669, 25971.66
729.3491, 25870.34
729.8312, 25841.01
730.3133, 25847.78
730.7954, 25855.03
731.2775, 25858.94
731.7596, 25840.16
732.2418, 25795.23
732.7239, 25757.14
733.2060, 25754.32
733.6881, 25782.82
734.1702, 25829.17
734.6523, 25911.93
735.1345, 25956.28
735.6166, 25930.11
736.0987, 25888.86
736.5808, 25859.89
737.0629, 25843.78
737.5450, 25845.22
738.0272, 25879.43
738.5093, 25897.56
738.9914, 25875.91
739.4735, 25838.30
739.9556, 25794.25
740.4377, 25752.67
740.9199, 25733.27
741.4020, 25743.97
741.8841, 25754.88
742.3662, 25725.39
742.8483, 25668.07
743.3304, 25624.74
743.8126, 25596.73
744.2947, 25587.42
744.7768, 25602.63
745.2589, 25622.60
745.7410, 25621.32
746.2231, 25597.81
746.7053, 25567.20
747.1874, 25520.86
747.6695, 25479.86
748.1516, 25442.27
748.6337, 25416.02
749.1158, 25403.24
749.5980, 25406.63
750.0801, 25437.71
750.5622, 25534.52
751.0443, 25611.96
751.5264, 25604.14
752.0085, 25551.74
752.4907, 25496.39
752.9728, 25449.78
753.4549, 25426.74
753.9370, 25438.60
754.4191, 25459.26
754.9012, 25431.00
755.3834, 25358.81
755.8655, 25339.53
756.3476, 25391.25
756.8297, 25433.29
757.3118, 25423.82
757.7939, 25382.58
758.2761, 25341.49
758.7582, 25292.97
759.2403, 25273.88
759.7224, 25315.15
760.2045, 25345.46
760.6866, 25330.97
761.1688, 25303.57
761.6509, 25307.36
762.1330, 25340.31
762.6151, 25346.42
763.0972, 25266.09
763.5793, 25181.19
764.0615, 25168.97
764.5436, 25196.63
765.0257, 25211.70
765.5078, 25204.67
765.9899, 25185.69
766.4720, 25160.91
766.9542, 25132.97
767.4363, 25104.81
767.9184, 25076.35
768.4005, 25063.45
768.8826, 25072.12
769.3647, 25079.37
769.8469, 25068.11
770.3290, 25050.42
770.8111, 25054.38
771.2932, 25090.92
771.7753, 25116.85
772.2574, 25120.45
772.7396, 25127.02
773.2217, 25159.05
773.7038, 25190.17
774.1859, 25186.93
774.6680, 25146.91
775.1501, 25099.67
775.6323, 25048.33
776.1144, 25007.40
776.5965, 25000.12
777.0786, 25008.06
777.5607, 24997.94
778.0428, 24965.82
778.5250, 24927.98
779.0071, 24894.81
779.4892, 24868.28
779.9713, 24856.18
780.4534, 24858.28
780.9355, 24854.41
781.4177, 24843.05
781.8998, 24820.76
782.3819, 24773.12
782.8640, 24728.85
783.3461, 24756.43
783.8282, 24899.44
784.3104, 24971.28
784.7925, 24922.83
785.2746, 24864.50
785.7567, 24819.04
786.2388, 24784.36
786.7209, 24756.05
787.2031, 24734.09
787.6852, 24724.03
788.1673, 24747.43
788.6494, 24762.26
789.1315, 24729.60
789.6136, 24677.38
790.0958, 24640.96
790.5779, 24626.03
791.0600, 24629.04
791.5421, 24651.14
792.0242, 24674.32
792.5063, 24662.24
792.9885, 24623.28
793.4706, 24610.02
793.9527, 24628.13
794.4348, 24631.66
794.9169, 24591.96
795.3990, 24545.12
795.8812, 24557.07
796.3633, 24641.02
796.8454, 24678.31
797.3275, 24646.61
797.8096, 24603.98
798.2917, 24545.71
798.7739, 24497.92
799.2560, 24491.23
799.7381, 24518.68
800.2202, 24533.68
800.7023, 24515.22
801.1844, 24498.48
801.6666, 24506.70
802.1487, 24513.27
802.6308, 24485.82
803.1129, 24436.09
803.5950, 24401.58
804.0771, 24398.87
804.5593, 24401.27
805.0414, 24379.52
805.5235, 24345.78
806.0056, 24321.92
806.4877, 24308.51
806.9698, 24302.41
807.4520, 24302.48
807.9341, 24309.23
808.4162, 24328.50
808.8983, 24353.74
809.3804, 24332.79
809.8625, 24252.18
810.3447, 24191.55
810.8268, 24170.43
811.3089, 24165.21
811.7910, 24161.87
812.2731, 24159.51
812.7552, 24154.21
813.2374, 24146.51
813.7195, 24135.08
814.2016, 24111.84
814.6837, 24093.66
815.1658, 24091.28
815.6479, 24097.46
816.1301, 24101.68
816.6122, 24102.00
817.0943, 24103.72
817.5764, 24103.92
818.0585, 24111.67
818.5406, 24144.88
819.0228, 24185.43
819.5049, 24210.71
819.9870, 24213.97
820.4691, 24186.20
820.9512, 24114.34
821.4333, 24033.55
821.9155, 24010.29
822.3976, 24029.06
822.8797, 24019.76
823.3618, 23976.42
823.8439, 23936.75
824.3260, 23919.25
824.8082, 23915.35
825.2903, 23912.33
825.7724, 23910.42
826.2545, 23904.05
826.7366, 23888.57
827.2188, 23879.57
827.7009, 23881.19
828.1830, 23890.64
828.6651, 23916.06
829.1472, 23950.98
829.6293, 23950.20
830.1115, 23863.31
830.5936, 23811.61
831.0757, 23831.26
831.5578, 23869.32
832.0399, 23906.89
832.5220, 23933.84
833.0042, 23929.95
833.4863, 23888.03
833.9684, 23859.53
834.4505, 23901.27
834.9326, 23944.55
835.4147, 23913.60
835.8969, 23843.06
836.3790, 23798.59
836.8611, 23791.54
837.3432, 23790.18
837.8253, 23772.17
838.3074, 23745.58
838.7896, 23720.23
839.2717, 23698.16
839.7538, 23694.04
840.2359, 23708.68
840.7180, 23708.57
841.2001, 23673.28
841.6823, 23628.12
842.1644, 23618.09
842.6465, 23645.29
843.1286, 23661.66
843.6107, 23667.64
844.0928, 23657.10
844.5750, 23611.37
845.0571, 23571.72
845.5392, 23589.71
846.0213, 23654.85
846.5034, 23676.77
846.9855, 23600.02
847.4677, 23564.25
847.9498, 23614.99
848.4319, 23669.18
848.9140, 23691.43
849.3961, 23684.08
849.8782, 23648.49
850.3604, 23583.10
850.8425, 23525.87
851.3246, 23488.02
851.8067, 23467.65
852.2888, 23476.01
852.7709, 23493.94
853.2531, 23498.03
853.7352, 23484.95
854.2173, 23459.27
854.6994, 23418.67
855.1815, 23382.92
855.6636, 23385.40
856.1458, 23406.22
856.6279, 23398.63
857.1100, 23365.29
857.5921, 23341.63
858.0742, 23342.41
858.5563, 23353.00
859.0385, 23356.79
859.5206, 23354.38
860.0027, 23349.72
860.4848, 23342.96
860.9669, 23327.02
861.4490, 23296.64
861.9312, 23273.19
862.4133, 23275.61
862.8954, 23294.24
863.3775, 23298.40
863.8596, 23283.33
864.3417, 23265.51
864.8239, 23236.14
865.3060, 23218.15
865.7881, 23229.14
866.2702, 23250.43
866.7523, 23257.33
867.2344, 23249.96
867.7166, 23250.44
868.1987, 23284.89
868.6808, 23294.51
869.1629, 23241.30
869.6450, 23180.93
870.1271, 23156.78
870.6093, 23158.85
871.0914, 23159.33
871.5735, 23151.48
872.0556, 23137.94
872.5377, 23103.04
873.0198, 23079.07
873.5020, 23114.37
873.9841, 23169.54
874.4662, 23170.95
874.9483, 23114.35
875.4304, 23064.58
875.9125, 23065.14
876.3947, 23088.76
876.8768, 23108.19
877.3589, 23122.04
877.8410, 23125.88
878.3231, 23120.65
878.8052, 23113.15
879.2874, 23106.47
879.7695, 23096.54
880.2516, 23076.66
880.7337, 23049.50
881.2158, 23026.64
881.6979, 23008.33
882.1801, 22998.65
882.6622, 23000.01
883.1443, 22999.54
883.6264, 22987.07
884.1085, 22966.46
884.5906, 22946.32
885.0728, 22923.15
885.5549, 22918.03
886.0370, 22939.93
886.5191, 22959.04
887.0012, 22965.40
887.4833, 22961.81
887.9655, 22950.41
888.4476, 22931.19
888.9297, 22909.33
889.4118, 22877.45
889.8939, 22853.75
890.3760, 22847.85
890.8582, 22841.83
891.3403, 22824.46
891.8224, 22800.75
892.3045, 22781.80
892.7866, 22770.91
893.2687, 22750.24
893.7509, 22687.01
894.2330, 22647.13
894.7151, 22682.55
895.1972, 22741.33
895.6793, 22771.62
896.1614, 22771.91
896.6436, 22763.60
897.1257, 22754.25
897.6078, 22740.07
898.0899, 22712.49
898.5720, 22683.70
899.0541, 22662.39
899.5363, 22651.01
900.0184, 22657.69
900.5005, 22681.12
900.9826, 22698.79
901.4647, 22692.73
901.9468, 22673.47
902.4290, 22655.19
902.9111, 22634.87
903.3932, 22598.53
903.8753, 22550.62
904.3574, 22521.09
904.8395, 22524.01
905.3217, 22543.16
905.8038, 22562.87
906.2859, 22580.33
906.7680, 22580.31
907.2501, 22564.83
907.7322, 22554.96
908.2144, 22555.30
908.6965, 22572.11
909.1786, 22614.65
909.6607, 22662.83
910.1428, 22662.95
910.6249, 22610.47
911.1071, 22565.69
911.5892, 22531.09
912.0713, 22493.91
912.5534, 22441.43
913.0355, 22406.57
913.5176, 22434.37
913.9998, 22512.20
914.4819, 22533.78
914.9640, 22462.89
915.4461, 22428.50
915.9282, 22464.15
916.4103, 22498.68
916.8925, 22499.65
917.3746, 22477.09
917.8567, 22440.41
918.3388, 22385.47
918.8209, 22353.98
919.3030, 22363.07
919.7852, 22371.65
920.2673, 22382.24
920.7494, 22381.80
921.2315, 22357.57
921.7136, 22316.88
922.1957, 22271.77
922.6779, 22216.20
923.1600, 22190.02
923.6421, 22225.73
924.1242, 22263.98
924.6063, 22273.03
925.0884, 22275.03
925.5706, 22305.17
926.0527, 22352.42
926.5348, 22363.63
927.0169, 22307.86
927.4990, 22250.56
927.9811, 22209.80
928.4633, 22193.90
928.9454, 22225.40
929.4275, 22279.01
929.9096, 22320.65
930.3917, 22341.42
930.8738, 22340.76
931.3560, 22311.61
931.8381, 22272.58
932.3202, 22224.99
932.8023, 22187.05
933.2844, 22192.69
933.7665, 22228.15
934.2487, 22257.86
934.7308, 22268.38
935.2129, 22253.44
935.6950, 22189.48
936.1771, 22114.72
936.6592, 22086.65
937.1414, 22090.89
937.6235, 22099.21
938.1056, 22106.64
938.5877, 22114.95
939.0698, 22125.12
939.5519, 22133.22
940.0341, 22137.97
940.5162, 22135.73
940.9983, 22108.38
941.4804, 22063.23
941.9625, 22039.04
942.4446, 22042.19
942.9268, 22041.81
943.4089, 22014.46
943.8910, 21989.09
944.3731, 22040.69
944.8552, 22150.07
945.3373, 22161.86
945.8195, 22075.69
946.3016, 22012.65
946.7837, 22008.94
947.2658, 22025.43
947.7479, 22030.61
948.2300, 22025.44
948.7122, 22009.59
949.1943, 21982.50
949.6764, 21966.12
950.1585, 21963.72
950.6406, 21955.47
951.1228, 21931.96
951.6049, 21907.69
952.0870, 21898.66
952.5692, 21902.92
953.0513, 21912.84
953.5334, 21935.24
954.0155, 21921.20
954.4976, 21843.49
954.9797, 21805.48
955.4619, 21874.07
955.9440, 21974.47
956.4261, 22002.79
956.9082, 21960.70
957.3903, 21915.31
957.8724, 21859.02
958.3546, 21819.69
958.8367, 21804.68
959.3188, 21800.29
959.8009, 21801.77
960.2830, 21806.93
960.7651, 21811.68
961.2473, 21815.64
961.7294, 21823.49
962.2115, 21839.60
962.6936, 21852.65
963.1757, 21876.15
963.6578, 21876.79
964.1400, 21805.66
964.6221, 21706.08
965.1042, 21681.42
965.5863, 21762.89
966.0684, 21795.55
966.5505, 21730.03
967.0327, 21683.21
967.5148, 21687.41
967.9969, 21708.50
968.4790, 21731.67
968.9611, 21751.18
969.4432, 21751.72
969.9254, 21727.79
970.4075, 21700.49
970.8896, 21661.47
971.3717, 21632.27
971.8538, 21621.67
972.3359, 21621.78
972.8181, 21630.22
973.3002, 21643.55
973.7823, 21651.80
974.2644, 21653.65
974.7465, 21650.58
975.2286, 21642.18
975.7108, 21629.45
976.1929, 21599.96
976.6750, 21575.80
977.1571, 21588.33
977.6392, 21628.31
978.1213, 21649.23
978.6035, 21640.04
979.0856, 21616.78
979.5677, 21559.82
980.0498, 21516.86
980.5319, 21524.59
981.0140, 21551.89
981.4962, 21563.34
981.9783, 21558.05
982.4604, 21554.90
982.9425, 21568.32
983.4246, 21564.80
983.9067, 21509.95
984.3889, 21460.57
984.8710, 21458.37
985.3531, 21478.62
985.8352, 21490.61
986.3173, 21490.36
986.7994, 21483.69
987.2816, 21472.19
987.7637, 21454.76
988.2458, 21412.60
988.7279, 21383.22
989.2100, 21417.71
989.6921, 21468.43
990.1743, 21452.38
990.6564, 21370.73
991.1385, 21323.61
991.6206, 21372.07
992.1027, 21420.04
992.5848, 21428.88
993.0670, 21419.80
993.5491, 21411.14
994.0312, 21394.24
994.5133, 21338.11
994.9954, 21247.51
995.4775, 21200.87
995.9597, 21260.96
996.4418, 21319.94
996.9239, 21322.79
997.4060, 21309.61
997.8881, 21308.15
998.3702, 21314.88
998.8524, 21323.21
999.3345, 21330.57
999.8166, 21327.89
1000.299, 21306.80
1000.781, 21281.76
1001.263, 21242.16
1001.745, 21218.12
1002.227, 21250.34
1002.709, 21308.07
1003.191, 21335.32
1003.674, 21325.22
1004.156, 21325.67
1004.638, 21378.80
1005.120, 21414.20
1005.602, 21376.03
1006.084, 21328.00
1006.566, 21332.17
1007.048, 21359.26
1007.530, 21347.19
1008.013, 21290.54
1008.495, 21253.95
1008.977, 21294.11
1009.459, 21316.88
1009.941, 21255.44
1010.423, 21183.04
1010.905, 21147.84
1011.387, 21148.07
1011.870, 21188.24
1012.352, 21261.54
1012.834, 21304.84
1013.316, 21278.30
1013.798, 21239.82
1014.280, 21201.71
1014.762, 21172.84
1015.244, 21162.50
1015.726, 21164.50
1016.209, 21175.76
1016.691, 21192.43
1017.173, 21188.77
1017.655, 21135.84
1018.137, 21091.57
1018.619, 21076.52
1019.101, 21077.98
1019.583, 21097.12
1020.065, 21121.55
1020.548, 21134.79
1021.030, 21135.54
1021.512, 21134.00
1021.994, 21133.29
1022.476, 21130.57
1022.958, 21133.55
1023.440, 21125.21
1023.922, 21087.98
1024.405, 21037.45
1024.887, 20985.24
1025.369, 20937.46
1025.851, 20922.72
1026.333, 20975.95
1026.815, 21013.71
1027.297, 21001.73
1027.779, 20986.20
1028.261, 20996.59
1028.744, 21013.99
1029.226, 21014.32
1029.708, 20998.01
1030.190, 20980.73
1030.672, 20958.03
1031.154, 20947.32
1031.636, 20973.59
1032.118, 20985.35
1032.600, 20931.84
1033.083, 20873.42
1033.565, 20889.60
1034.047, 20964.45
1034.529, 20997.14
1035.011, 20954.56
1035.493, 20922.48
1035.975, 20906.81
1036.457, 20901.91
1036.940, 20922.57
1037.422, 20939.65
1037.904, 20910.53
1038.386, 20853.44
1038.868, 20847.11
1039.350, 20936.23
1039.832, 20964.37
1040.314, 20878.03
1040.797, 20812.32
1041.279, 20809.31
1041.761, 20831.45
1042.243, 20861.54
1042.725, 20889.56
1043.207, 20882.37
1043.689, 20824.25
1044.171, 20795.84
1044.653, 20814.22
1045.135, 20825.10
1045.618, 20812.82
1046.100, 20797.24
1046.582, 20796.05
1047.064, 20796.92
1047.546, 20766.09
1048.028, 20695.07
1048.510, 20690.56
1048.992, 20785.02
1049.475, 20827.64
1049.957, 20776.39
1050.439, 20713.81
1050.921, 20687.95
1051.403, 20681.21
1051.885, 20657.64
1052.367, 20620.90
1052.849, 20665.40
1053.332, 20808.90
1053.814, 20873.86
1054.296, 20825.63
1054.778, 20767.55
1055.260, 20751.88
1055.742, 20745.08
1056.224, 20699.28
1056.706, 20627.94
1057.188, 20595.47
1057.671, 20600.64
1058.153, 20626.77
1058.635, 20671.12
1059.117, 20687.81
1059.599, 20658.11
1060.081, 20615.49
1060.563, 20594.46
1061.045, 20584.71
1061.527, 20554.35
1062.010, 20513.25
1062.492, 20511.58
1062.974, 20544.90
1063.456, 20566.01
1063.938, 20561.08
1064.420, 20544.78
1064.902, 20524.85
1065.384, 20512.85
1065.867, 20532.44
1066.349, 20569.81
1066.831, 20601.93
1067.313, 20624.73
1067.795, 20629.61
1068.277, 20616.67
1068.759, 20594.07
1069.241, 20564.68
1069.724, 20539.09
1070.206, 20527.26
1070.688, 20525.83
1071.170, 20539.90
1071.652, 20556.48
1072.134, 20554.94
1072.616, 20534.44
1073.098, 20496.62
1073.580, 20440.72
1074.063, 20408.20
1074.545, 20448.23
1075.027, 20497.52
1075.509, 20512.74
1075.991, 20509.22
1076.473, 20504.06
1076.955, 20494.52
1077.437, 20464.08
1077.920, 20410.41
1078.402, 20375.35
1078.884, 20384.34
1079.366, 20402.27
1079.848, 20436.60
1080.330, 20453.89
1080.812, 20409.69
1081.294, 20346.31
1081.776, 20332.97
1082.259, 20369.40
1082.741, 20381.29
1083.223, 20333.82
1083.705, 20301.32
1084.187, 20301.89
1084.669, 20306.03
1085.151, 20292.93
1085.633, 20286.05
1086.115, 20323.02
1086.598, 20384.35
1087.080, 20387.94
1087.562, 20302.95
1088.044, 20260.58
1088.526, 20278.09
1089.008, 20299.45
1089.490, 20314.36
1089.972, 20323.59
1090.455, 20326.96
1090.937, 20326.00
1091.419, 20322.27
1091.901, 20315.80
1092.383, 20326.24
1092.865, 20359.21
1093.347, 20354.30
1093.829, 20296.56
1094.312, 20255.13
1094.794, 20266.41
1095.276, 20296.28
1095.758, 20303.26
1096.240, 20294.25
1096.722, 20299.83
1097.204, 20312.56
1097.686, 20268.21
1098.168, 20174.82
1098.651, 20140.18
1099.133, 20194.31
1099.615, 20247.55
1100.097, 20225.17
1100.579, 20181.59
1101.061, 20209.08
1101.543, 20265.21
1102.025, 20269.45
1102.507, 20235.81
1102.990, 20202.69
1103.472, 20178.69
1103.954, 20160.41
1104.436, 20145.97
1104.918, 20138.40
1105.400, 20148.45
1105.882, 20157.39
1106.364, 20154.54
1106.847, 20137.05
1107.329, 20077.80
1107.811, 20008.25
1108.293, 20011.46
1108.775, 20104.03
1109.257, 20167.93
1109.739, 20131.45
1110.221, 20097.02
1110.703, 20100.70
1111.186, 20116.90
1111.668, 20149.44
1112.150, 20172.30
1112.632, 20134.34
1113.114, 20045.80
1113.596, 20012.29
1114.078, 20091.64
1114.560, 20122.54
1115.042, 20059.87
1115.525, 20025.36
1116.007, 20074.00
1116.489, 20126.31
1116.971, 20115.22
1117.453, 20070.05
1117.935, 20060.11
1118.417, 20087.72
1118.899, 20103.70
1119.382, 20107.50
1119.864, 20101.45
1120.346, 20084.79
1120.828, 20069.46
1121.310, 20062.32
1121.792, 20050.58
1122.274, 20015.45
1122.756, 19968.97
1123.239, 19944.40
1123.721, 19940.26
1124.203, 19963.37
1124.685, 20003.62
1125.167, 20006.51
1125.649, 19961.15
1126.131, 19907.96
1126.613, 19871.84
1127.095, 19849.90
1127.578, 19839.82
1128.060, 19841.06
1128.542, 19870.82
1129.024, 19901.51
1129.506, 19865.38
1129.988, 19788.52
1130.470, 19776.28
1130.952, 19863.60
1131.434, 19940.24
1131.917, 19950.54
1132.399, 19933.20
1132.881, 19885.86
1133.363, 19839.12
1133.845, 19820.12
1134.327, 19814.35
1134.809, 19792.91
1135.291, 19757.76
1135.774, 19750.88
1136.256, 19811.14
1136.738, 19833.92
1137.220, 19782.02
1137.702, 19749.71
1138.184, 19780.23
1138.666, 19812.10
1139.148, 19794.54
1139.630, 19750.89
1140.113, 19733.98
1140.595, 19744.42
1141.077, 19735.32
1141.559, 19702.82
1142.041, 19695.01
1142.523, 19720.02
1143.005, 19748.40
1143.487, 19767.15
1143.969, 19786.94
1144.452, 19826.02
1144.934, 19856.76
1145.416, 19793.16
1145.898, 19680.29
1146.380, 19652.57
1146.862, 19692.54
1147.344, 19730.36
1147.826, 19746.79
1148.309, 19734.72
1148.791, 19687.16
1149.273, 19647.77
1149.755, 19668.63
1150.237, 19696.09
1150.719, 19678.59
1151.201, 19646.86
1151.683, 19642.87
1152.166, 19650.68
1152.648, 19619.42
1153.130, 19545.91
1153.612, 19517.07
1154.094, 19604.65
1154.576, 19660.66
1155.058, 19633.89
1155.540, 19601.33
1156.022, 19595.86
1156.505, 19595.72
1156.987, 19570.60
1157.469, 19542.85
1157.951, 19585.43
1158.433, 19717.37
1158.915, 19735.61
1159.397, 19610.12
1159.879, 19526.15
1160.361, 19514.15
1160.844, 19534.42
1161.326, 19571.42
1161.808, 19602.94
1162.290, 19602.39
1162.772, 19582.24
1163.254, 19572.74
1163.736, 19569.02
1164.218, 19550.10
1164.701, 19522.69
1165.183, 19516.70
1165.665, 19533.19
1166.147, 19539.84
1166.629, 19519.22
1167.111, 19504.35
1167.593, 19537.87
1168.075, 19569.73
1168.557, 19542.36
1169.040, 19506.07
1169.522, 19528.18
1170.004, 19574.55
1170.486, 19569.12
1170.968, 19507.97
1171.450, 19471.44
1171.932, 19498.03
1172.414, 19507.77
1172.896, 19469.52
1173.379, 19444.43
1173.861, 19459.78
1174.343, 19478.91
1174.825, 19472.22
1175.307, 19455.60
1175.789, 19466.44
1176.271, 19501.83
1176.753, 19465.64
1177.236, 19350.91
1177.718, 19327.01
1178.200, 19411.49
1178.682, 19463.89
1179.164, 19433.81
1179.646, 19385.98
1180.128, 19373.02
1180.610, 19373.12
1181.093, 19344.16
1181.575, 19312.05
1182.057, 19336.28
1182.539, 19385.48
1183.021, 19396.75
1183.503, 19372.03
1183.985, 19341.69
1184.467, 19315.83
1184.949, 19305.38
1185.432, 19331.16
1185.914, 19351.59
1186.396, 19346.52
1186.878, 19335.21
1187.360, 19324.19
1187.842, 19317.11
1188.324, 19327.82
1188.806, 19344.14
1189.288, 19318.33
1189.771, 19232.58
1190.253, 19214.54
1190.735, 19290.04
1191.217, 19337.82
1191.699, 19336.19
1192.181, 19317.37
1192.663, 19293.06
1193.145, 19280.65
1193.628, 19303.02
1194.110, 19339.06
1194.592, 19333.69
1195.074, 19305.29
1195.556, 19310.72
1196.038, 19342.24
1196.520, 19380.59
1197.002, 19413.26
1197.484, 19408.05
1197.967, 19352.16
1198.449, 19294.30
1198.931, 19263.12
1199.413, 19245.70
1199.895, 19241.03
1200.377, 19240.09
1200.859, 19230.27
1201.341, 19223.93
1201.823, 19242.53
1202.306, 19280.68
1202.788, 19311.76
1203.270, 19346.48
1203.752, 19322.48
1204.234, 19201.58
1204.716, 19127.97
1205.198, 19133.05
1205.680, 19161.36
1206.163, 19190.23
1206.645, 19213.19
1207.127, 19222.33
1207.609, 19223.21
1208.091, 19231.31
1208.573, 19242.68
1209.055, 19245.14
1209.537, 19238.09
1210.020, 19218.83
1210.502, 19189.96
1210.984, 19160.05
1211.466, 19132.77
1211.948, 19112.87
1212.430, 19103.68
1212.912, 19102.47
1213.394, 19122.17
1213.876, 19133.38
1214.359, 19091.98
1214.841, 19046.57
1215.323, 19070.39
1215.805, 19142.76
1216.287, 19171.59
1216.769, 19149.33
1217.251, 19120.65
1217.733, 19078.39
1218.215, 19056.99
1218.698, 19066.72
1219.180, 19070.03
1219.662, 19050.63
1220.144, 19025.77
1220.626, 19010.33
1221.108, 19003.48
1221.590, 19003.52
1222.072, 19010.94
1222.555, 19034.75
1223.037, 19063.97
1223.519, 19075.45
1224.001, 19066.96
1224.483, 19038.54
1224.965, 18992.68
1225.447, 18955.07
1225.929, 18929.38
1226.411, 18931.47
1226.894, 18995.24
1227.376, 19054.38
1227.858, 19085.89
1228.340, 19085.78
1228.822, 19026.58
1229.304, 18951.13
1229.786, 18948.04
1230.268, 19013.45
1230.750, 19014.82
1231.233, 18940.06
1231.715, 18924.12
1232.197, 18978.39
1232.679, 18993.85
1233.161, 18941.22
1233.643, 18893.54
1234.125, 18898.40
1234.607, 18914.05
1235.090, 18877.26
1235.572, 18834.53
1236.054, 18866.18
1236.536, 18915.96
1237.018, 18893.74
1237.500, 18839.32
1237.982, 18846.69
1238.464, 18912.20
1238.947, 18941.30
1239.429, 18901.83
1239.911, 18861.52
1240.393, 18819.27
1240.875, 18793.25
1241.357, 18783.50
1241.839, 18799.42
1242.321, 18857.47
1242.803, 18912.51
1243.286, 18913.61
1243.768, 18878.55
1244.250, 18846.68
1244.732, 18821.96
1245.214, 18835.19
1245.696, 18873.30
1246.178, 18885.80
1246.660, 18870.62
1247.142, 18853.22
1247.625, 18842.28
1248.107, 18830.06
1248.589, 18808.49
1249.071, 18792.55
1249.553, 18800.52
1250.035, 18804.38
1250.517, 18777.43
1250.999, 18748.25
1251.482, 18747.08
1251.964, 18760.34
1252.446, 18760.54
1252.928, 18749.82
1253.410, 18765.48
1253.892, 18815.64
1254.374, 18820.51
1254.856, 18774.87
1255.339, 18752.58
1255.821, 18769.87
1256.303, 18780.65
1256.785, 18759.75
1257.267, 18738.16
1257.749, 18755.15
1258.231, 18776.02
1258.713, 18751.38
1259.195, 18717.56
1259.677, 18714.32
1260.160, 18729.01
1260.642, 18749.89
1261.124, 18767.29
1261.606, 18756.76
1262.088, 18709.73
1262.570, 18670.90
1263.052, 18629.18
1263.534, 18629.95
1264.017, 18694.10
1264.499, 18741.72
1264.981, 18745.07
1265.463, 18732.54
1265.945, 18724.72
1266.427, 18713.85
1266.909, 18678.75
1267.391, 18639.56
##END=



