##NAMES=Hambergite
##RRUFFID=R050672
##IDEAL CHEMISTRY=Be_2_BO_3_(OH)
##LOCALITY=Anjanabonoina, Madagascar
##OWNER=RRUFF
##SOURCE=University of Arizona Mineral Museum
##DESCRIPTION=Pale gray prismatic crystal
##STATUS=The identification of this mineral has been confirmed by X-ray diffraction.
##URL=rruff.info/R050672
93.56738, 20.28943
94.04950, 20.06527
94.53162, 20.08978
95.01373, 20.14791
95.49585, 20.33716
95.97797, 20.59481
96.46008, 20.79198
96.94220, 20.88358
97.42432, 21.26416
97.90643, 21.68348
98.38855, 22.51160
98.87067, 24.08810
99.35278, 26.47144
99.83490, 29.34332
100.3170, 32.05590
100.7991, 34.69063
101.2813, 36.95094
101.7634, 38.99437
102.2455, 40.67910
102.7276, 41.82724
103.2097, 42.33472
103.6918, 42.27035
104.1740, 41.94293
104.6561, 41.04024
105.1382, 40.26579
105.6203, 39.90078
106.1024, 39.90318
106.5845, 40.04325
107.0667, 40.13520
107.5488, 40.24662
108.0309, 40.61315
108.5130, 41.35328
108.9951, 42.30444
109.4772, 43.27911
109.9594, 44.25889
110.4415, 45.32027
110.9236, 46.57007
111.4057, 47.93633
111.8878, 49.28877
112.3699, 50.53450
112.8521, 51.69917
113.3342, 52.91681
113.8163, 54.22959
114.2984, 55.56699
114.7805, 56.82538
115.2626, 58.06059
115.7447, 59.40200
116.2269, 60.98242
116.7090, 62.80206
117.1911, 64.86742
117.6732, 67.01827
118.1553, 69.47876
118.6374, 72.02995
119.1196, 74.77085
119.6017, 78.32789
120.0838, 83.71659
120.5659, 92.02288
121.0480, 100.8208
121.5301, 113.2018
122.0123, 124.9365
122.4944, 131.5673
122.9765, 131.3435
123.4586, 125.2501
123.9407, 114.4900
124.4228, 97.07563
124.9050, 80.21707
125.3871, 65.69788
125.8692, 53.57407
126.3513, 43.78350
126.8334, 36.71388
127.3155, 32.14872
127.7977, 28.76730
128.2798, 26.74453
128.7619, 25.60427
129.2440, 25.07599
129.7261, 25.23214
130.2083, 25.55379
130.6904, 25.32934
131.1725, 25.30271
131.6546, 26.22769
132.1367, 28.35026
132.6188, 31.61768
133.1010, 35.80593
133.5831, 40.41400
134.0652, 47.05012
134.5473, 56.85046
135.0294, 68.50304
135.5115, 80.68594
135.9936, 92.91138
136.4758, 104.9723
136.9579, 112.9586
137.4400, 114.6982
137.9221, 114.2566
138.4042, 111.1403
138.8863, 106.4310
139.3685, 102.0300
139.8506, 99.58018
140.3327, 99.31267
140.8148, 99.78252
141.2969, 100.6167
141.7790, 102.2956
142.2612, 105.3600
142.7433, 109.7492
143.2254, 114.6589
143.7075, 119.2668
144.1896, 123.4977
144.6717, 127.8432
145.1539, 132.5351
145.6360, 137.2807
146.1181, 141.5791
146.6002, 145.2466
147.0823, 148.8487
147.5644, 153.1235
148.0466, 157.9615
148.5287, 162.9342
149.0108, 167.6376
149.4929, 172.2886
149.9750, 177.6134
150.4571, 183.7909
150.9393, 190.6666
151.4214, 197.4783
151.9035, 204.3522
152.3856, 212.7065
152.8677, 222.1726
153.3498, 232.3076
153.8320, 249.7009
154.3141, 278.4468
154.7962, 313.5283
155.2783, 360.1821
155.7604, 416.6717
156.2425, 466.5368
156.7247, 489.0424
157.2068, 481.7005
157.6889, 449.5508
158.1710, 376.8236
158.6531, 294.5172
159.1352, 220.6960
159.6174, 161.8752
160.0995, 116.4380
160.5816, 82.04469
161.0637, 65.50552
161.5458, 52.63111
162.0279, 44.24109
162.5101, 38.68880
162.9922, 34.65576
163.4743, 31.58500
163.9564, 29.32327
164.4385, 27.44632
164.9206, 25.91403
165.4028, 24.76534
165.8849, 24.24596
166.3670, 24.10695
166.8491, 23.86318
167.3312, 23.24337
167.8133, 22.42853
168.2955, 21.97320
168.7776, 21.98258
169.2597, 22.12686
169.7418, 22.27324
170.2239, 22.42723
170.7060, 22.60813
171.1882, 22.78546
171.6703, 23.03431
172.1524, 23.50130
172.6345, 24.36324
173.1166, 25.19259
173.5987, 25.70749
174.0809, 25.93335
174.5630, 25.61888
175.0451, 24.13691
175.5272, 22.22196
176.0093, 20.51636
176.4914, 19.17579
176.9736, 18.16283
177.4557, 17.46391
177.9378, 17.21084
178.4199, 16.95403
178.9020, 16.57088
179.3841, 16.09616
179.8663, 15.53994
180.3484, 14.89608
180.8305, 14.20315
181.3126, 13.58315
181.7947, 13.01970
182.2768, 12.56855
182.7590, 12.24683
183.2411, 12.02639
183.7232, 11.88004
184.2053, 11.79632
184.6874, 11.76618
185.1695, 11.73604
185.6517, 11.70775
186.1338, 11.67738
186.6159, 11.69662
187.0980, 11.70847
187.5801, 11.59932
188.0622, 11.27664
188.5444, 10.77027
189.0265, 10.48405
189.5086, 10.57642
189.9907, 10.68581
190.4728, 10.70604
190.9549, 10.65287
191.4371, 10.58248
191.9192, 10.52588
192.4013, 10.48768
192.8834, 10.50056
193.3655, 10.55776
193.8476, 10.66225
194.3298, 10.84334
194.8119, 11.08751
195.2940, 11.31519
195.7761, 11.45372
196.2582, 11.52680
196.7403, 11.68700
197.2225, 12.02719
197.7046, 12.38828
198.1867, 12.59560
198.6688, 12.64460
199.1509, 12.78051
199.6330, 13.25055
200.1152, 13.92221
200.5973, 14.50032
201.0794, 14.96572
201.5615, 15.29587
202.0436, 15.42453
202.5257, 15.31315
203.0079, 15.16864
203.4900, 15.03931
203.9721, 14.96634
204.4542, 15.02992
204.9363, 15.30473
205.4184, 15.69561
205.9006, 16.03536
206.3827, 16.32825
206.8648, 16.54909
207.3469, 16.62119
207.8290, 16.64194
208.3111, 16.73613
208.7933, 16.97265
209.2754, 17.30940
209.7575, 17.63727
210.2396, 18.00354
210.7217, 18.27148
211.2038, 18.25831
211.6860, 18.17787
212.1681, 18.32426
212.6502, 18.88875
213.1323, 19.75716
213.6144, 20.40911
214.0965, 20.74174
214.5787, 20.95741
215.0608, 20.90602
215.5429, 20.80966
216.0250, 20.98522
216.5071, 21.63588
216.9892, 22.66321
217.4713, 23.51479
217.9535, 24.11039
218.4356, 24.59492
218.9177, 25.01191
219.3998, 25.32326
219.8819, 25.51223
220.3640, 25.58696
220.8462, 25.49347
221.3283, 24.85108
221.8104, 23.19035
222.2925, 21.54030
222.7746, 20.09411
223.2567, 18.80210
223.7389, 17.54279
224.2210, 16.22848
224.7031, 14.91303
225.1852, 13.94361
225.6673, 13.48739
226.1494, 13.10369
226.6316, 12.67019
227.1137, 12.22088
227.5958, 11.82674
228.0779, 11.52386
228.5600, 11.31073
229.0421, 11.18787
229.5243, 11.20545
230.0064, 11.23027
230.4885, 11.20153
230.9706, 11.13810
231.4527, 11.09687
231.9348, 11.11223
232.4170, 11.16031
232.8991, 11.18291
233.3812, 11.19190
233.8633, 11.16035
234.3454, 11.04605
234.8275, 10.86963
235.3097, 10.70943
235.7918, 10.57019
236.2739, 10.49784
236.7560, 10.55483
237.2381, 10.76798
237.7202, 11.02397
238.2024, 11.27038
238.6845, 11.50486
239.1666, 11.70417
239.6487, 11.84231
240.1308, 11.95627
240.6129, 12.09800
241.0951, 12.27532
241.5772, 12.43825
242.0593, 12.51583
242.5414, 12.51828
243.0235, 12.60140
243.5056, 12.80765
243.9878, 13.11662
244.4699, 13.49659
244.9520, 13.94918
245.4341, 14.48234
245.9162, 15.07612
246.3983, 15.73107
246.8805, 16.55259
247.3626, 17.46314
247.8447, 18.66783
248.3268, 20.40381
248.8089, 22.61780
249.2910, 24.89698
249.7732, 27.00280
250.2553, 28.95200
250.7374, 30.36552
251.2195, 30.90996
251.7016, 31.11856
252.1837, 31.09607
252.6659, 30.92557
253.1480, 30.80325
253.6301, 30.93021
254.1122, 31.32614
254.5943, 31.66959
255.0764, 31.63710
255.5586, 31.86557
256.0407, 32.71264
256.5228, 34.04821
257.0049, 35.48114
257.4870, 36.69010
257.9691, 37.66882
258.4513, 38.71725
258.9334, 40.03881
259.4155, 41.24391
259.8976, 42.13810
260.3797, 42.82541
260.8618, 43.52356
261.3440, 44.38328
261.8261, 45.40554
262.3082, 46.52477
262.7903, 47.66992
263.2724, 48.99538
263.7545, 50.46531
264.2367, 52.14941
264.7188, 54.14954
265.2009, 56.51756
265.6830, 59.26165
266.1651, 62.36612
266.6472, 65.67856
267.1294, 69.58652
267.6115, 75.05781
268.0936, 81.00223
268.5757, 86.18274
269.0578, 89.99386
269.5399, 92.15585
270.0221, 91.31948
270.5042, 85.83976
270.9863, 78.92565
271.4684, 69.52542
271.9505, 59.26456
272.4326, 49.98211
272.9148, 42.46803
273.3969, 36.55302
273.8790, 31.78067
274.3611, 28.79395
274.8432, 26.28849
275.3253, 24.26485
275.8075, 22.68147
276.2896, 21.53493
276.7717, 20.81959
277.2538, 20.40975
277.7359, 20.06185
278.2180, 19.72416
278.7002, 19.55476
279.1823, 19.63652
279.6644, 19.84539
280.1465, 20.01056
280.6286, 20.10033
281.1107, 20.31472
281.5929, 20.96161
282.0750, 22.32284
282.5571, 23.45354
283.0392, 24.12403
283.5213, 24.71631
284.0034, 25.60946
284.4856, 26.83796
284.9677, 28.08863
285.4498, 29.04497
285.9319, 29.66222
286.4140, 30.04098
286.8961, 30.09457
287.3783, 29.98798
287.8604, 29.86895
288.3425, 29.72709
288.8246, 29.39249
289.3067, 28.67733
289.7888, 27.56669
290.2710, 26.64880
290.7531, 26.02718
291.2352, 25.48321
291.7173, 24.88022
292.1994, 24.23866
292.6815, 23.66714
293.1637, 23.23906
293.6458, 22.94472
294.1279, 22.69452
294.6100, 22.53088
295.0921, 22.36246
295.5742, 22.11395
296.0564, 21.82610
296.5385, 21.59359
297.0206, 21.44379
297.5027, 21.40602
297.9848, 21.58335
298.4669, 22.04038
298.9491, 22.54493
299.4312, 23.01354
299.9133, 23.48368
300.3954, 24.02820
300.8775, 24.67795
301.3596, 25.40638
301.8418, 26.25175
302.3239, 27.40075
302.8060, 28.05739
303.2881, 28.03757
303.7702, 27.41878
304.2523, 26.17636
304.7345, 24.26812
305.2166, 22.10296
305.6987, 20.13549
306.1808, 18.34591
306.6629, 16.92209
307.1451, 16.03311
307.6272, 15.44555
308.1093, 14.95570
308.5914, 14.53608
309.0735, 14.18794
309.5556, 13.93315
310.0378, 13.76974
310.5199, 13.58327
311.0020, 13.31389
311.4841, 13.06185
311.9662, 12.91241
312.4483, 12.86081
312.9305, 12.83539
313.4126, 12.78887
313.8947, 12.73306
314.3768, 12.71464
314.8589, 12.72683
315.3410, 12.78094
315.8232, 12.86176
316.3053, 12.98443
316.7874, 13.22852
317.2695, 13.68406
317.7516, 14.21714
318.2337, 14.48314
318.7159, 14.36312
319.1980, 14.29660
319.6801, 14.51528
320.1622, 14.89286
320.6443, 15.20742
321.1264, 15.41087
321.6086, 15.46452
322.0907, 15.28420
322.5728, 14.88586
323.0549, 14.31082
323.5370, 13.38689
324.0191, 12.36212
324.5013, 11.55665
324.9834, 11.02512
325.4655, 10.67042
325.9476, 10.43497
326.4297, 10.32192
326.9118, 10.17669
327.3940, 9.965436
327.8761, 9.734396
328.3582, 9.488605
328.8403, 9.239702
329.3224, 9.077032
329.8045, 9.084948
330.2867, 9.242247
330.7688, 9.362245
331.2509, 9.471757
331.7330, 9.520892
332.2151, 9.426239
332.6972, 9.238791
333.1794, 9.133851
333.6615, 9.219257
334.1436, 9.407456
334.6257, 9.443760
335.1078, 9.226450
335.5899, 9.089822
336.0721, 9.224384
336.5542, 9.483199
337.0363, 9.610737
337.5184, 9.521807
338.0005, 9.339811
338.4826, 9.262996
338.9648, 9.341712
339.4469, 9.298437
339.9290, 8.974019
340.4111, 8.585850
340.8932, 8.351580
341.3753, 8.299977
341.8574, 8.312733
342.3395, 8.276717
342.8217, 8.186766
343.3038, 8.176907
343.7859, 8.349277
344.2680, 8.508947
344.7501, 8.518876
345.2322, 8.405980
345.7144, 8.293573
346.1965, 8.260441
346.6786, 8.290413
347.1607, 8.287923
347.6428, 8.205163
348.1249, 8.152731
348.6071, 8.160536
349.0892, 8.218554
349.5713, 8.330325
350.0534, 8.503930
350.5355, 8.679675
351.0176, 8.728666
351.4998, 8.519133
351.9819, 8.434185
352.4640, 8.626493
352.9461, 8.876524
353.4282, 8.964941
353.9103, 8.857355
354.3925, 8.683125
354.8746, 8.571745
355.3567, 8.512666
355.8388, 8.613952
356.3209, 9.088811
356.8030, 9.512462
357.2852, 9.594600
357.7673, 9.409556
358.2494, 9.242769
358.7315, 9.304148
359.2136, 9.563928
359.6957, 9.717673
360.1779, 9.628102
360.6600, 9.598827
361.1421, 9.747120
361.6242, 9.976275
362.1063, 10.15668
362.5884, 10.23193
363.0706, 10.22736
363.5527, 10.19062
364.0348, 10.01806
364.5169, 9.979589
364.9990, 10.17210
365.4811, 10.42295
365.9633, 10.63217
366.4454, 10.76809
366.9275, 10.82456
367.4096, 10.79815
367.8917, 10.69511
368.3738, 10.46627
368.8560, 9.910471
369.3381, 9.436421
369.8202, 9.265857
370.3023, 9.303838
370.7844, 9.307076
371.2665, 9.102166
371.7487, 8.740894
372.2308, 8.522711
372.7129, 8.546702
373.1950, 8.593530
373.6771, 8.623229
374.1592, 8.657529
374.6414, 8.722217
375.1235, 8.826369
375.6056, 8.956926
376.0877, 9.085737
376.5698, 9.195319
377.0519, 9.356915
377.5341, 9.632349
378.0162, 9.913575
378.4983, 10.13596
378.9804, 10.30068
379.4625, 10.45700
379.9446, 10.66445
380.4268, 10.91957
380.9089, 11.08361
381.3910, 11.01891
381.8731, 11.04224
382.3552, 11.36983
382.8373, 11.83954
383.3195, 12.18794
383.8016, 12.27418
384.2837, 12.18952
384.7658, 12.09810
385.2479, 11.97480
385.7300, 11.93069
386.2122, 12.01537
386.6943, 12.18938
387.1764, 12.44640
387.6585, 12.78635
388.1406, 13.15570
388.6227, 13.48441
389.1049, 13.78172
389.5870, 14.17760
390.0691, 14.79700
390.5512, 15.36974
391.0333, 15.67242
391.5154, 15.76109
391.9976, 15.84509
392.4797, 15.96566
392.9618, 16.16053
393.4439, 16.50528
393.9260, 17.01169
394.4081, 17.62180
394.8903, 18.40856
395.3724, 19.24511
395.8545, 19.92831
396.3366, 20.44015
396.8187, 20.79059
397.3008, 21.02432
397.7830, 21.11655
398.2651, 20.94080
398.7472, 20.41674
399.2293, 19.67568
399.7114, 18.87408
400.1935, 18.01114
400.6757, 17.16914
401.1578, 16.43265
401.6399, 15.70403
402.1220, 14.82771
402.6041, 13.78716
403.0862, 12.76281
403.5684, 11.87393
404.0505, 11.13912
404.5326, 10.56215
405.0147, 10.17714
405.4968, 9.911455
405.9789, 9.806514
406.4611, 9.794711
406.9432, 9.700411
407.4253, 9.430882
407.9074, 9.091205
408.3895, 8.929831
408.8716, 9.094939
409.3538, 9.154711
409.8359, 9.020186
410.3180, 8.804784
410.8001, 8.584806
411.2822, 8.384035
411.7643, 8.222747
412.2465, 8.122204
412.7286, 8.083522
413.2107, 8.094367
413.6928, 8.234734
414.1749, 8.332261
414.6570, 8.311656
415.1392, 8.210115
415.6213, 8.087140
416.1034, 7.971579
416.5855, 7.872324
417.0676, 7.812866
417.5497, 7.797271
418.0319, 7.819806
418.5140, 7.924400
418.9961, 8.029908
419.4782, 8.065274
419.9603, 8.029613
420.4424, 7.984553
420.9246, 7.990899
421.4067, 8.050485
421.8888, 8.127277
422.3709, 8.293152
422.8530, 8.386587
423.3351, 8.304056
423.8173, 8.127854
424.2994, 7.991608
424.7815, 7.961057
425.2636, 7.989612
425.7457, 7.984439
426.2278, 7.928936
426.7100, 7.911952
427.1921, 7.951917
427.6742, 8.046901
428.1563, 8.231457
428.6384, 8.500740
429.1205, 8.734332
429.6027, 8.824158
430.0848, 8.805696
430.5669, 8.819247
431.0490, 8.901723
431.5311, 8.949062
432.0132, 8.822298
432.4954, 8.609194
432.9775, 8.483110
433.4596, 8.513785
433.9417, 8.608041
434.4238, 8.731375
434.9059, 8.865827
435.3881, 8.885004
435.8702, 8.711009
436.3523, 8.442649
436.8344, 8.236494
437.3165, 8.085687
437.7986, 7.999200
438.2808, 8.063806
438.7629, 8.149505
439.2450, 8.067073
439.7271, 7.807253
440.2092, 7.574314
440.6913, 7.552762
441.1735, 7.728401
441.6556, 7.789574
442.1377, 7.660952
442.6198, 7.520465
443.1019, 7.401962
443.5840, 7.316733
444.0662, 7.280809
444.5483, 7.299911
445.0304, 7.364676
445.5125, 7.467854
445.9946, 7.669590
446.4767, 7.764514
446.9589, 7.661050
447.4410, 7.546458
447.9231, 7.574578
448.4052, 7.698059
448.8873, 7.730271
449.3694, 7.509445
449.8516, 7.102265
450.3337, 6.928907
450.8158, 7.184189
451.2979, 7.376565
451.7800, 7.381378
452.2621, 7.305973
452.7443, 7.230453
453.2264, 7.180183
453.7085, 7.175843
454.1906, 7.279441
454.6727, 7.497527
455.1548, 7.598657
455.6370, 7.497646
456.1191, 7.362033
456.6012, 7.283793
457.0833, 7.244854
457.5654, 7.203647
458.0475, 7.138166
458.5297, 7.067009
459.0118, 7.012028
459.4939, 6.972958
459.9760, 6.964932
460.4581, 7.020215
460.9402, 7.085547
461.4224, 7.082574
461.9045, 7.003736
462.3866, 6.928152
462.8687, 6.905699
463.3508, 6.899403
463.8329, 6.835272
464.3151, 6.704027
464.7972, 6.599646
465.2793, 6.602112
465.7614, 6.699655
466.2435, 6.775172
466.7256, 6.832534
467.2078, 6.865151
467.6899, 6.830999
468.1720, 6.780417
468.6541, 6.831459
469.1362, 7.021622
469.6183, 7.200871
470.1005, 7.129773
470.5826, 6.672279
471.0647, 6.417595
471.5468, 6.476470
472.0289, 6.601779
472.5110, 6.729584
472.9932, 6.822113
473.4753, 6.801421
473.9574, 6.603670
474.4395, 6.333408
474.9216, 6.355220
475.4037, 6.942185
475.8859, 7.266274
476.3680, 7.014032
476.8501, 6.648807
477.3322, 6.488214
477.8143, 6.558911
478.2964, 6.704543
478.7786, 6.828370
479.2607, 6.922698
479.7428, 6.914067
480.2249, 6.741618
480.7070, 6.598219
481.1891, 6.605940
481.6713, 6.685689
482.1534, 6.745071
482.6355, 6.763785
483.1176, 6.762865
483.5997, 6.732621
484.0818, 6.691868
484.5640, 6.729685
485.0461, 6.888323
485.5282, 7.064691
486.0103, 7.173145
486.4924, 7.213516
486.9745, 7.160058
487.4567, 6.848892
487.9388, 6.582872
488.4209, 6.635701
488.9030, 6.918351
489.3851, 7.148482
489.8672, 7.194618
490.3494, 7.131640
490.8315, 7.114114
491.3136, 7.204421
491.7957, 7.217043
492.2778, 7.093570
492.7599, 6.938652
493.2421, 6.796943
493.7242, 6.687719
494.2063, 6.644979
494.6884, 6.701369
495.1705, 6.832730
495.6526, 6.911308
496.1348, 6.917544
496.6169, 6.898485
497.0990, 6.805617
497.5811, 6.729331
498.0632, 6.766013
498.5453, 6.919840
499.0275, 7.088690
499.5096, 7.195399
499.9917, 7.239437
500.4738, 7.191592
500.9559, 6.984388
501.4380, 6.820910
501.9202, 6.854142
502.4023, 6.976249
502.8844, 7.023784
503.3665, 6.915504
503.8486, 6.861398
504.3307, 7.143603
504.8129, 7.637537
505.2950, 7.878335
505.7771, 7.726844
506.2592, 7.441209
506.7413, 7.243300
507.2234, 7.135606
507.7055, 7.105830
508.1877, 7.280273
508.6698, 7.411187
509.1519, 7.242324
509.6340, 6.925461
510.1161, 6.850105
510.5982, 7.186719
511.0804, 7.687688
511.5625, 7.920159
512.0446, 7.757666
512.5267, 7.635613
513.0089, 7.532976
513.4910, 7.484842
513.9731, 7.546943
514.4552, 7.677667
514.9373, 7.778326
515.4194, 7.785392
515.9016, 7.747710
516.3837, 7.821781
516.8658, 8.105824
517.3479, 8.230292
517.8300, 7.947191
518.3121, 7.631943
518.7943, 7.496645
519.2764, 7.544341
519.7585, 7.677733
520.2406, 7.882146
520.7227, 8.114268
521.2048, 8.292988
521.6870, 8.421079
522.1691, 8.455047
522.6512, 8.277216
523.1333, 8.065351
523.6154, 8.131061
524.0975, 8.542838
524.5797, 8.908993
525.0618, 9.022096
525.5439, 9.040860
526.0260, 9.193064
526.5081, 9.488728
526.9902, 9.727121
527.4724, 9.736760
527.9545, 9.579069
528.4366, 9.629786
528.9187, 10.20379
529.4008, 10.56316
529.8829, 10.44674
530.3651, 10.17321
530.8472, 10.09819
531.3293, 10.24043
531.8114, 10.30326
532.2935, 9.963627
532.7756, 9.248825
533.2578, 8.749293
533.7399, 8.669338
534.2220, 8.494852
534.7041, 7.959565
535.1862, 7.345964
535.6683, 6.940465
536.1505, 6.810304
536.6326, 6.828827
537.1147, 6.943642
537.5968, 7.124898
538.0789, 7.225892
538.5610, 7.222859
539.0432, 7.181417
539.5253, 7.158510
540.0074, 7.123373
540.4895, 6.992661
540.9716, 6.668636
541.4537, 6.409125
541.9359, 6.392624
542.4180, 6.519648
542.9001, 6.622749
543.3822, 6.665629
543.8643, 6.696212
544.3464, 6.766854
544.8286, 6.880082
545.3107, 6.937554
545.7928, 6.903608
546.2749, 6.865201
546.7570, 6.847417
547.2391, 6.835542
547.7213, 6.785789
548.2034, 6.696609
548.6855, 6.651303
549.1676, 6.779429
549.6497, 7.098527
550.1318, 7.305001
550.6140, 7.362328
551.0961, 7.352237
551.5782, 7.255034
552.0603, 7.137870
552.5424, 7.107001
553.0245, 7.205543
553.5067, 7.302363
553.9888, 7.249557
554.4709, 7.091355
554.9530, 6.997360
555.4351, 6.999321
555.9172, 7.039917
556.3994, 7.077680
556.8815, 7.117143
557.3636, 7.179192
557.8457, 7.370186
558.3278, 7.458840
558.8099, 7.227162
559.2921, 6.882467
559.7742, 6.722984
560.2563, 6.818120
560.7384, 7.073604
561.2205, 7.428382
561.7026, 7.899152
562.1848, 8.075933
562.6669, 7.634395
563.1490, 7.264113
563.6311, 7.074916
564.1132, 7.031614
564.5953, 7.138308
565.0775, 7.377774
565.5596, 7.603198
566.0417, 7.590812
566.5238, 7.380203
567.0059, 7.424307
567.4880, 7.843289
567.9702, 8.256662
568.4523, 8.444413
568.9344, 8.503727
569.4165, 8.559500
569.8986, 8.637938
570.3807, 8.677338
570.8629, 8.593136
571.3450, 8.462794
571.8271, 8.437414
572.3092, 8.534316
572.7913, 8.628330
573.2734, 8.617712
573.7556, 8.522296
574.2377, 8.484662
574.7198, 8.494701
575.2019, 8.571012
575.6840, 8.787680
576.1661, 9.025661
576.6483, 9.178788
577.1304, 9.236299
577.6125, 9.245337
578.0946, 9.235276
578.5767, 9.214927
579.0588, 9.237536
579.5410, 9.321273
580.0231, 9.406730
580.5052, 9.521556
580.9873, 9.601922
581.4694, 9.547171
581.9515, 9.365417
582.4337, 9.262039
582.9158, 9.455485
583.3979, 9.753955
583.8800, 9.826796
584.3621, 9.674329
584.8442, 9.516666
585.3264, 9.470959
585.8085, 9.460475
586.2906, 9.310184
586.7727, 8.949433
587.2548, 8.676453
587.7369, 8.605903
588.2190, 8.555457
588.7011, 8.347933
589.1832, 8.052888
589.6653, 7.892763
590.1475, 7.993923
590.6296, 8.216887
591.1117, 8.242328
591.5938, 7.988132
592.0759, 7.795494
592.5580, 7.703212
593.0402, 7.665749
593.5223, 7.694194
594.0044, 7.759200
594.4865, 7.796671
594.9686, 7.772388
595.4507, 7.729154
595.9329, 7.704752
596.4150, 7.701006
596.8971, 7.741988
597.3792, 7.849142
597.8613, 7.941898
598.3434, 7.924519
598.8256, 7.800672
599.3077, 7.751271
599.7898, 7.736564
600.2719, 7.841667
600.7540, 8.213581
601.2361, 8.675547
601.7183, 8.989530
602.2004, 9.101221
602.6825, 9.109777
603.1646, 9.097315
603.6467, 9.067371
604.1288, 9.158643
604.6110, 9.500081
605.0931, 9.755336
605.5752, 9.755864
606.0573, 9.694340
606.5394, 9.759007
607.0215, 9.973430
607.5037, 10.21081
607.9858, 10.41268
608.4679, 10.56738
608.9500, 10.61315
609.4321, 10.54751
609.9142, 10.55301
610.3964, 10.73001
610.8785, 11.01326
611.3606, 11.28119
611.8427, 11.54330
612.3248, 11.76606
612.8069, 11.92501
613.2891, 12.06205
613.7712, 12.15409
614.2533, 12.25169
614.7354, 12.49228
615.2175, 12.94642
615.6996, 13.46346
616.1818, 13.73603
616.6639, 13.68903
617.1460, 13.73368
617.6281, 14.00419
618.1102, 14.22988
618.5923, 14.29844
619.0745, 14.23761
619.5566, 14.11176
620.0387, 13.95867
620.5208, 13.68041
621.0029, 13.12395
621.4850, 12.38508
621.9672, 11.69748
622.4493, 11.09426
622.9314, 10.55698
623.4135, 10.06794
623.8956, 9.632012
624.3777, 9.285134
624.8599, 9.010578
625.3420, 8.834037
625.8241, 8.842901
626.3062, 8.889245
626.7883, 8.811380
627.2704, 8.636197
627.7526, 8.532578
628.2347, 8.624599
628.7168, 8.857824
629.1989, 9.110698
629.6810, 9.412223
630.1631, 9.578897
630.6453, 9.421330
631.1274, 9.275277
631.6095, 9.466382
632.0916, 9.909504
632.5737, 10.24736
633.0558, 10.30047
633.5380, 10.27934
634.0201, 10.28204
634.5022, 10.34072
634.9843, 10.56294
635.4664, 10.97713
635.9485, 11.43028
636.4307, 11.76282
636.9128, 11.97376
637.3949, 12.17248
637.8770, 12.30608
638.3591, 12.49663
638.8412, 12.78696
639.3234, 13.12594
639.8055, 13.48760
640.2876, 13.85614
640.7697, 14.18629
641.2518, 14.39635
641.7339, 14.56512
642.2161, 14.92097
642.6982, 15.48075
643.1803, 16.02557
643.6624, 16.52837
644.1445, 16.92231
644.6266, 17.07596
645.1088, 16.99610
645.5909, 16.89859
646.0730, 16.89349
646.5551, 16.79594
647.0372, 16.44787
647.5193, 15.94524
648.0015, 15.47902
648.4836, 15.10350
648.9657, 14.70936
649.4478, 14.15044
649.9299, 13.42259
650.4120, 12.76873
650.8942, 12.23730
651.3763, 11.69778
651.8584, 11.00930
652.3405, 10.35167
652.8226, 9.921805
653.3047, 9.738157
653.7869, 9.598981
654.2690, 9.394054
654.7511, 9.169781
655.2332, 8.971054
655.7153, 8.804747
656.1974, 8.717211
656.6796, 8.741175
657.1617, 8.791684
657.6438, 8.730877
658.1259, 8.524818
658.6080, 8.342319
659.0901, 8.199261
659.5723, 8.059660
660.0544, 7.889758
660.5365, 7.725626
661.0186, 7.605483
661.5007, 7.542599
661.9828, 7.544019
662.4650, 7.648656
662.9471, 7.827171
663.4292, 7.956508
663.9113, 8.029932
664.3934, 8.085257
664.8755, 8.147359
665.3577, 8.193069
665.8398, 8.168359
666.3219, 8.059222
666.8040, 7.988220
667.2861, 7.979286
667.7682, 8.010009
668.2504, 8.128631
668.7325, 8.263499
669.2146, 8.234382
669.6967, 7.987100
670.1788, 7.741110
670.6609, 7.836046
671.1431, 8.292276
671.6252, 8.518020
672.1073, 8.391792
672.5894, 8.264707
673.0715, 8.269938
673.5536, 8.349575
674.0358, 8.468531
674.5179, 8.626737
675.0000, 8.746810
675.4821, 8.776723
675.9642, 8.764708
676.4464, 8.777729
676.9285, 8.797107
677.4106, 8.713485
677.8927, 8.474507
678.3748, 8.247073
678.8569, 8.305994
679.3391, 8.728765
679.8212, 8.968221
680.3033, 8.824678
680.7854, 8.732136
681.2675, 8.895620
681.7496, 9.108557
682.2318, 9.119184
682.7139, 8.891952
683.1960, 8.632054
683.6781, 8.448405
684.1602, 8.340851
684.6423, 8.358366
685.1245, 8.482478
685.6066, 8.516102
686.0887, 8.370639
686.5708, 8.138321
687.0529, 7.947052
687.5350, 7.801990
688.0172, 7.668762
688.4993, 7.553795
688.9814, 7.441885
689.4635, 7.312652
689.9456, 7.192643
690.4277, 7.116703
690.9099, 7.088653
691.3920, 7.081174
691.8741, 7.086944
692.3562, 7.089929
692.8383, 7.043198
693.3204, 6.946093
693.8026, 6.805501
694.2847, 6.580246
694.7668, 6.389740
695.2489, 6.428442
695.7310, 6.711811
696.2131, 6.843715
696.6953, 6.649614
697.1774, 6.484590
697.6595, 6.561786
698.1416, 6.707987
698.6237, 6.665082
699.1058, 6.418584
699.5880, 6.204690
700.0701, 6.242998
700.5522, 6.459839
701.0343, 6.593406
701.5164, 6.630043
701.9985, 6.677399
702.4807, 6.788748
702.9628, 6.885978
703.4449, 6.857845
703.9270, 6.736118
704.4091, 6.679822
704.8912, 6.805908
705.3734, 6.891118
705.8555, 6.770938
706.3376, 6.589984
706.8197, 6.540511
707.3018, 6.637892
707.7839, 6.766679
708.2661, 6.837267
708.7482, 6.879303
709.2303, 6.998985
709.7124, 7.225350
710.1945, 7.399791
710.6766, 7.487030
711.1588, 7.529049
711.6409, 7.550841
712.1230, 7.552760
712.6051, 7.521239
713.0872, 7.369896
713.5693, 7.343948
714.0515, 7.713974
714.5336, 8.187142
715.0157, 8.390779
715.4978, 8.318918
715.9799, 8.161027
716.4620, 8.022973
716.9442, 7.935268
717.4263, 7.974803
717.9084, 8.156401
718.3905, 8.411984
718.8726, 8.828800
719.3547, 9.193802
719.8369, 9.371044
720.3190, 9.439737
720.8011, 9.529510
721.2832, 9.676019
721.7653, 9.765428
722.2474, 9.626013
722.7296, 9.480966
723.2117, 9.585897
723.6938, 9.917190
724.1759, 10.35466
724.6580, 10.84992
725.1401, 11.32628
725.6223, 11.65587
726.1044, 11.81786
726.5865, 12.00597
727.0686, 12.20783
727.5507, 12.45938
728.0328, 12.90544
728.5150, 13.32646
728.9971, 13.46200
729.4792, 13.29397
729.9613, 13.11962
730.4434, 13.01724
730.9255, 13.00152
731.4077, 13.14789
731.8898, 13.38394
732.3719, 13.52882
732.8540, 13.53325
733.3361, 13.49723
733.8182, 13.52544
734.3004, 13.61137
734.7825, 13.68775
735.2646, 13.76300
735.7467, 13.80930
736.2288, 13.72445
736.7109, 13.69129
737.1931, 13.91194
737.6752, 14.31148
738.1573, 14.56743
738.6394, 14.46277
739.1215, 14.35475
739.6036, 14.50842
740.0858, 14.80136
740.5679, 15.10938
741.0500, 15.37746
741.5321, 15.43472
742.0142, 15.13096
742.4963, 14.64939
742.9785, 14.55621
743.4606, 15.01235
743.9427, 15.25772
744.4248, 15.14435
744.9069, 14.93022
745.3890, 14.71991
745.8712, 14.51589
746.3533, 14.35041
746.8354, 14.26892
747.3175, 14.04704
747.7996, 13.42634
748.2817, 12.73426
748.7639, 12.37652
749.2460, 12.24652
749.7281, 11.94737
750.2102, 11.31539
750.6923, 10.60341
751.1744, 10.16312
751.6566, 9.998493
752.1387, 9.832614
752.6208, 9.683326
753.1029, 9.488837
753.5850, 9.160522
754.0671, 8.830878
754.5493, 8.665595
755.0314, 8.656585
755.5135, 8.590936
755.9956, 8.303192
756.4777, 8.069271
756.9598, 8.112270
757.4420, 8.276351
757.9241, 8.322631
758.4062, 8.224392
758.8883, 8.138094
759.3704, 8.199361
759.8525, 8.326738
760.3347, 8.243970
760.8168, 7.907311
761.2989, 7.770389
761.7810, 8.002494
762.2631, 8.259172
762.7452, 8.279000
763.2274, 8.128757
763.7095, 8.013807
764.1916, 7.902469
764.6737, 7.903094
765.1558, 8.158078
765.6379, 8.431094
766.1201, 8.569092
766.6022, 8.576106
767.0843, 8.447854
767.5664, 8.188966
768.0485, 7.988103
768.5306, 8.150717
769.0128, 8.586020
769.4949, 8.793607
769.9770, 8.737967
770.4591, 8.724489
770.9412, 8.904356
771.4233, 9.123043
771.9055, 9.147746
772.3876, 8.941430
772.8697, 8.888183
773.3518, 9.103665
773.8339, 9.320086
774.3160, 9.553177
774.7982, 9.692448
775.2803, 9.557463
775.7624, 9.206772
776.2445, 8.927364
776.7266, 8.901374
777.2087, 8.989457
777.6909, 9.008025
778.1730, 8.979836
778.6551, 9.030413
779.1372, 9.183872
779.6193, 9.213148
780.1014, 8.929853
780.5836, 8.468897
781.0657, 8.229873
781.5478, 8.351864
782.0299, 8.379782
782.5120, 8.202350
782.9941, 8.057060
783.4763, 8.054929
783.9584, 8.127271
784.4405, 8.181115
784.9226, 8.198561
785.4047, 8.207333
785.8868, 8.246775
786.3690, 8.267917
786.8511, 8.131499
787.3332, 7.933524
787.8153, 8.006536
788.2974, 8.429502
788.7795, 8.850922
789.2617, 8.901888
789.7438, 8.650328
790.2259, 8.518567
790.7080, 8.536468
791.1901, 8.589060
791.6722, 8.711353
792.1544, 8.799450
792.6365, 8.697852
793.1186, 8.511943
793.6007, 8.537942
794.0828, 8.943606
794.5649, 9.272105
795.0471, 9.298855
795.5292, 9.224453
796.0113, 9.198705
796.4934, 9.227921
796.9755, 9.274539
797.4576, 9.324678
797.9398, 9.414601
798.4219, 9.623636
798.9040, 9.919780
799.3861, 10.11508
799.8682, 10.20100
800.3503, 10.28529
800.8325, 10.41849
801.3146, 10.53700
801.7967, 10.56442
802.2788, 10.49865
802.7609, 10.42039
803.2430, 10.36150
803.7252, 10.24796
804.2073, 9.946356
804.6894, 9.685439
805.1715, 9.732545
805.6536, 9.975844
806.1357, 10.05641
806.6179, 9.790339
807.1000, 9.457245
807.5821, 9.310859
808.0642, 9.288829
808.5463, 9.280624
809.0284, 9.274777
809.5106, 9.274230
809.9927, 9.279524
810.4748, 9.302280
810.9569, 9.384795
811.4390, 9.547302
811.9211, 9.485926
812.4033, 9.020638
812.8854, 8.671195
813.3675, 8.657920
813.8496, 8.770299
814.3317, 8.867674
814.8138, 8.939609
815.2960, 8.947484
815.7781, 8.835661
816.2602, 8.717633
816.7423, 8.619892
817.2244, 8.558578
817.7065, 8.576569
818.1887, 8.650615
818.6708, 8.696611
819.1529, 8.668673
819.6350, 8.625383
820.1171, 8.694757
820.5992, 8.838714
821.0814, 8.773014
821.5635, 8.462065
822.0456, 8.207989
822.5277, 8.150363
823.0098, 8.186745
823.4919, 8.162736
823.9741, 8.060740
824.4562, 8.068998
824.9383, 8.324078
825.4204, 8.506972
825.9025, 8.515942
826.3846, 8.471320
826.8668, 8.458302
827.3489, 8.478934
827.8310, 8.510448
828.3131, 8.556434
828.7952, 8.580842
829.2773, 8.515726
829.7595, 8.433962
830.2416, 8.471584
830.7237, 8.605654
831.2058, 8.689131
831.6879, 8.653016
832.1700, 8.576627
832.6522, 8.581962
833.1343, 8.664289
833.6164, 8.688616
834.0985, 8.637025
834.5806, 8.592348
835.0627, 8.553710
835.5449, 8.570067
836.0270, 8.746967
836.5091, 9.062067
836.9912, 9.200438
837.4733, 9.049682
837.9554, 8.873278
838.4376, 8.594711
838.9197, 8.417994
839.4018, 8.543858
839.8839, 8.882680
840.3660, 9.239847
840.8481, 9.551867
841.3303, 9.787111
841.8124, 9.925858
842.2945, 9.967619
842.7766, 9.828473
843.2587, 9.574296
843.7408, 9.519837
844.2230, 9.767149
844.7051, 10.09658
845.1872, 10.27321
845.6693, 10.31734
846.1514, 10.34668
846.6335, 10.33095
847.1157, 10.40751
847.5978, 10.61769
848.0799, 10.89937
848.5620, 11.27054
849.0441, 11.66992
849.5262, 11.93365
850.0084, 11.96611
850.4905, 12.11198
850.9726, 12.59813
851.4547, 13.04575
851.9368, 13.18145
852.4189, 13.16196
852.9011, 13.23988
853.3832, 13.45935
853.8653, 13.66721
854.3474, 13.71935
854.8295, 13.73753
855.3116, 13.90944
855.7938, 14.19718
856.2759, 14.50234
856.7580, 14.80174
857.2401, 15.01998
857.7222, 15.08924
858.2043, 15.10395
858.6865, 15.32108
859.1686, 15.81321
859.6507, 16.12837
860.1328, 16.20014
860.6149, 16.21765
861.0970, 16.23031
861.5792, 16.24626
862.0613, 16.28192
862.5434, 16.33682
863.0255, 16.37262
863.5076, 16.41752
863.9897, 16.40090
864.4719, 16.30618
864.9540, 16.13544
865.4361, 15.81192
865.9182, 15.41784
866.4003, 15.20004
866.8824, 15.29160
867.3646, 15.36590
867.8467, 15.07268
868.3288, 14.57174
868.8109, 14.11761
869.2930, 13.72592
869.7751, 13.40064
870.2573, 13.14325
870.7394, 12.89165
871.2215, 12.57261
871.7036, 12.20323
872.1857, 11.88036
872.6678, 11.61745
873.1500, 11.33829
873.6321, 11.00519
874.1142, 10.70114
874.5963, 10.49099
875.0784, 10.34898
875.5605, 10.19134
876.0427, 9.967971
876.5248, 9.870065
877.0069, 10.04406
877.4890, 10.19155
877.9711, 10.21063
878.4532, 10.11778
878.9354, 9.901571
879.4175, 9.585793
879.8996, 9.293462
880.3817, 9.079990
880.8638, 8.922318
881.3459, 8.863647
881.8281, 8.817155
882.3102, 8.584003
882.7923, 8.205003
883.2744, 7.953413
883.7565, 7.968170
884.2386, 8.074533
884.7208, 7.989685
885.2029, 7.751375
885.6850, 7.699901
886.1671, 7.852550
886.6492, 7.997955
887.1313, 8.079151
887.6135, 8.116009
888.0956, 8.128442
888.5777, 8.114072
889.0598, 8.053517
889.5419, 7.902915
890.0240, 7.784611
890.5062, 7.736430
890.9883, 7.684322
891.4704, 7.586884
891.9525, 7.469833
892.4346, 7.384366
892.9167, 7.338656
893.3989, 7.239080
893.8810, 6.960320
894.3631, 6.722303
894.8452, 6.629870
895.3273, 6.667911
895.8094, 6.910004
896.2916, 7.272873
896.7737, 7.456620
897.2558, 7.281481
897.7379, 6.994819
898.2200, 6.907895
898.7021, 6.939385
899.1843, 6.866943
899.6664, 6.697687
900.1485, 6.598436
900.6306, 6.632826
901.1127, 6.686154
901.5948, 6.615723
902.0770, 6.456460
902.5591, 6.462623
903.0412, 6.699186
903.5233, 6.792916
904.0054, 6.623946
904.4875, 6.435791
904.9697, 6.375592
905.4518, 6.404465
905.9339, 6.447399
906.4160, 6.534768
906.8981, 6.528780
907.3802, 6.281730
907.8624, 6.122300
908.3445, 6.260267
908.8266, 6.454717
909.3087, 6.477752
909.7908, 6.336556
910.2729, 6.143135
910.7551, 5.861086
911.2372, 5.711878
911.7193, 5.974732
912.2014, 6.329149
912.6835, 6.431939
913.1656, 6.333683
913.6478, 6.193181
914.1299, 6.072301
914.6120, 5.999428
915.0941, 6.026495
915.5762, 6.094667
916.0583, 6.075908
916.5404, 5.985866
917.0225, 5.889627
917.5046, 5.800252
917.9868, 5.765992
918.4689, 5.824640
918.9510, 5.925536
919.4331, 5.979301
919.9152, 5.990588
920.3973, 5.868860
920.8795, 5.510359
921.3616, 5.340807
921.8437, 5.590561
922.3258, 5.934968
922.8079, 6.055725
923.2900, 5.987950
923.7722, 5.986368
924.2543, 6.134834
924.7364, 6.212667
925.2185, 6.178334
925.7006, 6.107162
926.1827, 5.984431
926.6649, 5.872989
927.1470, 5.862912
927.6291, 5.961870
928.1112, 6.075836
928.5933, 6.263657
929.0754, 6.344744
929.5576, 6.075560
930.0397, 5.735544
930.5218, 5.698412
931.0039, 5.895437
931.4860, 6.002981
931.9681, 5.883263
932.4503, 5.709602
932.9324, 5.630664
933.4145, 5.628530
933.8966, 5.723105
934.3787, 5.866726
934.8608, 5.841605
935.3430, 5.613148
935.8251, 5.422026
936.3072, 5.457594
936.7893, 5.632875
937.2714, 5.755388
937.7535, 5.825009
938.2357, 5.870910
938.7178, 5.893556
939.1999, 5.892250
939.6820, 5.857538
940.1641, 5.819849
940.6462, 5.812735
941.1284, 5.835489
941.6105, 5.880065
942.0926, 5.974900
942.5747, 6.033491
943.0568, 5.978438
943.5389, 5.969005
944.0211, 6.171063
944.5032, 6.425717
944.9853, 6.471511
945.4674, 6.276440
945.9495, 6.122295
946.4316, 6.016111
946.9138, 6.009384
947.3959, 6.258946
947.8780, 6.501010
948.3601, 6.428390
948.8422, 6.158873
949.3243, 6.053128
949.8065, 6.242096
950.2886, 6.457080
950.7707, 6.456374
951.2528, 6.467255
951.7349, 6.829823
952.2170, 7.315340
952.6992, 7.503921
953.1813, 7.345305
953.6634, 7.047196
954.1455, 6.701496
954.6276, 6.446820
955.1097, 6.556122
955.5919, 6.884980
956.0740, 7.023172
956.5561, 6.983726
957.0382, 7.020173
957.5203, 7.217816
958.0024, 7.456084
958.4846, 7.627218
958.9667, 7.721489
959.4488, 7.644502
959.9309, 7.379299
960.4130, 7.406468
960.8951, 7.838120
961.3773, 8.228105
961.8594, 8.344658
962.3415, 8.342113
962.8236, 8.451154
963.3057, 8.674402
963.7878, 8.805402
964.2700, 8.740455
964.7521, 8.814700
965.2342, 9.142549
965.7163, 9.535629
966.1984, 9.898823
966.6805, 10.24110
967.1627, 10.56630
967.6448, 10.85569
968.1269, 11.23029
968.6090, 11.67035
969.0911, 12.23383
969.5732, 13.00826
970.0554, 13.85507
970.5375, 14.68153
971.0196, 15.47697
971.5017, 16.19489
971.9838, 16.76538
972.4659, 17.54038
972.9481, 18.72286
973.4302, 20.09644
973.9123, 21.61079
974.3944, 23.15882
974.8765, 24.64988
975.3586, 26.05252
975.8408, 27.31089
976.3229, 28.33283
976.8050, 29.45209
977.2871, 31.15328
977.7692, 33.00042
978.2513, 34.32971
978.7335, 35.30779
979.2156, 36.41063
979.6977, 37.76799
980.1798, 39.31376
980.6619, 41.03073
981.1440, 42.81503
981.6262, 44.45317
982.1083, 46.03243
982.5904, 47.86372
983.0725, 49.94763
983.5546, 52.07563
984.0367, 54.16222
984.5189, 56.09253
985.0010, 57.68671
985.4831, 59.05279
985.9652, 60.74261
986.4473, 62.76347
986.9294, 63.90911
987.4116, 63.98853
987.8937, 63.61772
988.3758, 63.13313
988.8579, 62.21078
989.3400, 60.32666
989.8221, 57.51787
990.3043, 54.72507
990.7864, 52.08992
991.2685, 48.92355
991.7506, 44.79311
992.2327, 40.78473
992.7148, 37.56470
993.1970, 34.83643
993.6791, 32.03036
994.1612, 29.06676
994.6433, 26.61006
995.1254, 24.93855
995.6075, 23.35543
996.0897, 21.68204
996.5718, 20.15115
997.0539, 18.97174
997.5360, 18.01748
998.0181, 17.02689
998.5002, 15.94864
998.9824, 15.04023
999.4645, 14.46793
999.9466, 13.90535
1000.429, 13.16710
1000.911, 12.46797
1001.393, 12.01758
1001.875, 11.74843
1002.357, 11.48484
1002.839, 11.19597
1003.321, 10.85294
1003.804, 10.32411
1004.286, 9.870471
1004.768, 9.700732
1005.250, 9.654275
1005.732, 9.557534
1006.214, 9.405108
1006.696, 9.272909
1007.178, 9.197534
1007.660, 9.091578
1008.143, 8.877814
1008.625, 8.623637
1009.107, 8.366125
1009.589, 8.128207
1010.071, 7.947922
1010.553, 7.823070
1011.035, 7.729341
1011.517, 7.661477
1012.000, 7.573133
1012.482, 7.385847
1012.964, 7.169760
1013.446, 7.018846
1013.928, 6.934024
1014.410, 6.947485
1014.892, 7.034020
1015.374, 7.020155
1015.856, 6.783403
1016.339, 6.491287
1016.821, 6.372337
1017.303, 6.388751
1017.785, 6.476268
1018.267, 6.608831
1018.749, 6.693892
1019.231, 6.705200
1019.713, 6.634446
1020.195, 6.469048
1020.678, 6.254721
1021.160, 6.035570
1021.642, 5.835659
1022.124, 5.849223
1022.606, 6.069274
1023.088, 6.230434
1023.570, 6.256941
1024.052, 6.184098
1024.535, 6.021402
1025.017, 5.838302
1025.499, 5.831553
1025.981, 6.005359
1026.463, 6.092816
1026.945, 6.085532
1027.427, 5.986069
1027.909, 5.761432
1028.391, 5.616892
1028.874, 5.762535
1029.356, 6.078935
1029.838, 6.189448
1030.320, 6.061382
1030.802, 5.904063
1031.284, 5.692436
1031.766, 5.546507
1032.248, 5.505347
1032.731, 5.543080
1033.213, 5.666854
1033.695, 5.831139
1034.177, 5.860368
1034.659, 5.691617
1035.141, 5.608971
1035.623, 5.664110
1036.105, 5.689206
1036.588, 5.606179
1037.070, 5.514925
1037.552, 5.512200
1038.034, 5.573731
1038.516, 5.604834
1038.998, 5.605637
1039.480, 5.573969
1039.962, 5.465979
1040.444, 5.394167
1040.927, 5.399314
1041.409, 5.445016
1041.891, 5.525500
1042.373, 5.621453
1042.855, 5.654583
1043.337, 5.611000
1043.819, 5.537049
1044.301, 5.399453
1044.783, 5.274693
1045.266, 5.164037
1045.748, 5.091381
1046.230, 5.082815
1046.712, 5.128053
1047.194, 5.206052
1047.676, 5.360121
1048.158, 5.415561
1048.640, 5.198049
1049.123, 5.084970
1049.605, 5.328102
1050.087, 5.607236
1050.569, 5.617361
1051.051, 5.443398
1051.533, 5.327236
1052.015, 5.237745
1052.497, 5.438506
1052.979, 6.498738
1053.462, 7.184105
1053.944, 6.780044
1054.426, 6.048903
1054.908, 5.530460
1055.390, 5.244896
1055.872, 5.148161
1056.354, 5.278502
1056.836, 5.329139
1057.318, 5.165492
1057.801, 4.981256
1058.283, 4.766147
1058.765, 4.639948
1059.247, 4.788047
1059.729, 5.081505
1060.211, 5.217843
1060.693, 5.127148
1061.175, 5.023455
1061.658, 4.937926
1062.140, 4.898674
1062.622, 4.964434
1063.104, 5.038916
1063.586, 5.020526
1064.068, 4.953909
1064.550, 4.952437
1065.032, 5.039678
1065.515, 5.089261
1065.997, 4.999908
1066.479, 4.934538
1066.961, 4.983488
1067.443, 5.070355
1067.925, 5.157263
1068.407, 5.222998
1068.889, 5.234263
1069.371, 5.187647
1069.854, 5.139623
1070.336, 5.143693
1070.818, 5.110559
1071.300, 4.913278
1071.782, 4.746125
1072.264, 4.788486
1072.746, 4.960622
1073.228, 5.173042
1073.710, 5.382024
1074.193, 5.424307
1074.675, 5.102466
1075.157, 4.829048
1075.639, 4.824525
1076.121, 4.913325
1076.603, 5.005248
1077.085, 5.075307
1077.567, 5.091705
1078.050, 5.062007
1078.532, 5.046091
1079.014, 5.072104
1079.496, 5.100738
1079.978, 5.129985
1080.460, 5.137697
1080.942, 5.071086
1081.424, 4.996747
1081.906, 5.024643
1082.389, 5.132383
1082.871, 5.185756
1083.353, 5.134056
1083.835, 5.046659
1084.317, 4.862871
1084.799, 4.758926
1085.281, 4.963708
1085.763, 5.223937
1086.245, 5.213916
1086.728, 4.994641
1087.210, 4.847426
1087.692, 4.857749
1088.174, 4.879439
1088.656, 4.794684
1089.138, 4.770178
1089.620, 4.952954
1090.102, 5.194194
1090.584, 5.417945
1091.067, 5.559396
1091.549, 5.449841
1092.031, 5.042117
1092.513, 4.802531
1092.995, 5.077494
1093.477, 5.341493
1093.959, 5.298156
1094.441, 5.206295
1094.924, 5.304014
1095.406, 5.498746
1095.888, 5.592727
1096.370, 5.561088
1096.852, 5.555939
1097.334, 5.627166
1097.816, 5.732512
1098.298, 5.999815
1098.781, 6.145641
1099.263, 5.813227
1099.745, 5.344823
1100.227, 5.239194
1100.709, 5.490569
1101.191, 5.688194
1101.673, 5.714673
1102.155, 5.715924
1102.637, 5.706923
1103.120, 5.710280
1103.602, 5.700747
1104.084, 5.737437
1104.566, 5.945701
1105.048, 6.256773
1105.530, 6.411531
1106.012, 6.332654
1106.494, 6.222712
1106.976, 6.090360
1107.459, 5.970251
1107.941, 5.859132
1108.423, 5.779331
1108.905, 5.745055
1109.387, 5.755674
1109.869, 5.824046
1110.351, 5.967404
1110.833, 6.052885
1111.316, 6.020202
1111.798, 5.995715
1112.280, 6.013018
1112.762, 6.036123
1113.244, 6.034630
1113.726, 6.030351
1114.208, 6.049249
1114.690, 6.091844
1115.172, 6.183715
1115.655, 6.390165
1116.137, 6.540640
1116.619, 6.559432
1117.101, 6.610429
1117.583, 6.751616
1118.065, 6.961659
1118.547, 7.278316
1119.029, 7.652331
1119.511, 7.814101
1119.994, 7.647295
1120.476, 7.557177
1120.958, 7.501934
1121.440, 7.614154
1121.922, 8.022618
1122.404, 8.473290
1122.886, 8.803489
1123.368, 9.006008
1123.851, 9.028646
1124.333, 8.820896
1124.815, 8.847958
1125.297, 9.153540
1125.779, 9.582747
1126.261, 10.19515
1126.743, 10.67495
1127.225, 10.80443
1127.708, 10.78456
1128.190, 10.90503
1128.672, 11.15601
1129.154, 11.44120
1129.636, 11.76321
1130.118, 12.09712
1130.600, 12.43622
1131.082, 12.84139
1131.564, 13.36379
1132.047, 13.79675
1132.529, 13.90327
1133.011, 13.82283
1133.493, 14.00098
1133.975, 14.42651
1134.457, 14.69128
1134.939, 14.78369
1135.421, 14.70463
1135.903, 14.45047
1136.386, 14.32134
1136.868, 14.53881
1137.350, 14.84197
1137.832, 14.78149
1138.314, 14.45466
1138.796, 14.28303
1139.278, 14.21751
1139.760, 14.00364
1140.243, 13.61027
1140.725, 13.10079
1141.207, 12.50574
1141.689, 11.95034
1142.171, 11.57230
1142.653, 11.28259
1143.135, 10.89596
1143.617, 10.48313
1144.099, 10.27099
1144.582, 10.18023
1145.064, 9.896142
1145.546, 9.366083
1146.028, 8.821618
1146.510, 8.399266
1146.992, 8.058085
1147.474, 7.752965
1147.956, 7.509524
1148.438, 7.394156
1148.921, 7.346952
1149.403, 7.278867
1149.885, 7.175193
1150.367, 7.041709
1150.849, 6.880173
1151.331, 6.717695
1151.813, 6.539412
1152.295, 6.403078
1152.778, 6.412024
1153.260, 6.427171
1153.742, 6.274820
1154.224, 6.038705
1154.706, 5.885053
1155.188, 5.835287
1155.670, 5.800401
1156.152, 5.758451
1156.635, 5.709288
1157.117, 5.613296
1157.599, 5.557067
1158.081, 5.661169
1158.563, 5.770279
1159.045, 5.673525
1159.527, 5.448313
1160.009, 5.371354
1160.491, 5.515418
1160.974, 5.612519
1161.456, 5.661599
1161.938, 5.622335
1162.420, 5.324427
1162.902, 5.120660
1163.384, 5.336680
1163.866, 5.663367
1164.348, 5.619085
1164.830, 5.236136
1165.313, 5.054017
1165.795, 5.117098
1166.277, 5.285225
1166.759, 5.658867
1167.241, 5.853874
1167.723, 5.686314
1168.205, 5.434926
1168.687, 5.318375
1169.170, 5.318895
1169.652, 5.429675
1170.134, 5.655287
1170.616, 5.609254
1171.098, 5.260540
1171.580, 5.145317
1172.062, 5.369468
1172.544, 5.567856
1173.026, 5.560206
1173.509, 5.418127
1173.991, 5.205863
1174.473, 4.955757
1174.955, 4.722858
1175.437, 4.529590
1175.919, 4.493507
1176.401, 4.599957
1176.883, 4.761249
1177.365, 4.941592
1177.848, 5.084152
1178.330, 5.151628
1178.812, 5.173404
1179.294, 5.194981
1179.776, 5.184258
1180.258, 5.054478
1180.740, 4.878003
1181.222, 4.794188
1181.705, 4.785515
1182.187, 4.731308
1182.669, 4.604978
1183.151, 4.549137
1183.633, 4.675372
1184.115, 4.847336
1184.597, 5.077455
1185.079, 5.211764
1185.562, 4.993322
1186.044, 4.683408
1186.526, 4.697702
1187.008, 4.961430
1187.490, 5.019554
1187.972, 4.702982
1188.454, 4.494868
1188.936, 4.593238
1189.418, 4.699090
1189.901, 4.736653
1190.383, 4.736268
1190.865, 4.716209
1191.347, 4.672081
1191.829, 4.583180
1192.311, 4.454686
1192.793, 4.373378
1193.275, 4.337725
1193.757, 4.357285
1194.240, 4.456246
1194.722, 4.547701
1195.204, 4.593851
1195.686, 4.669424
1196.168, 4.864744
1196.650, 5.054648
1197.132, 4.956213
1197.614, 4.597110
1198.097, 4.369062
1198.579, 4.270759
1199.061, 4.247095
1199.543, 4.289602
1200.025, 4.353443
1200.507, 4.420797
1200.989, 4.516158
1201.471, 4.676980
1201.953, 4.822094
1202.436, 4.778550
1202.918, 4.626460
1203.400, 4.548604
1203.882, 4.517813
1204.364, 4.422234
1204.846, 4.271691
1205.328, 4.174768
1205.810, 4.175362
1206.292, 4.246098
1206.775, 4.374516
1207.257, 4.554533
1207.739, 4.916793
1208.221, 5.200229
1208.703, 5.058597
1209.185, 4.708649
1209.667, 4.472346
1210.149, 4.385470
1210.632, 4.362221
1211.114, 4.382652
1211.596, 4.459719
1212.078, 4.682081
1212.560, 4.843294
1213.042, 4.842391
1213.524, 4.795525
1214.006, 4.774606
1214.489, 4.760820
1214.971, 4.724325
1215.453, 4.667134
1215.935, 4.615933
1216.417, 4.581416
1216.899, 4.513269
1217.381, 4.394996
1217.863, 4.281686
1218.345, 4.165767
1218.828, 4.174790
1219.310, 4.422160
1219.792, 4.751304
1220.274, 4.912385
1220.756, 4.916803
1221.238, 4.748640
1221.720, 4.460060
1222.202, 4.367629
1222.684, 4.470761
1223.167, 4.562632
1223.649, 4.579129
1224.131, 4.571630
1224.613, 4.569463
1225.095, 4.589639
1225.577, 4.701062
1226.059, 4.799579
1226.541, 4.736960
1227.024, 4.589233
1227.506, 4.409765
1227.988, 4.267627
1228.470, 4.320215
1228.952, 4.582589
1229.434, 4.798571
1229.916, 4.897883
1230.398, 4.876395
1230.880, 4.643206
1231.363, 4.398044
1231.845, 4.142598
1232.327, 4.010253
1232.809, 4.245522
1233.291, 4.659572
1233.773, 4.763006
1234.255, 4.518201
1234.737, 4.494466
1235.219, 4.823962
1235.702, 4.970779
1236.184, 4.828721
1236.666, 4.710532
1237.148, 4.739382
1237.630, 4.787554
1238.112, 4.741159
1238.594, 4.657083
1239.076, 4.660746
1239.559, 4.732170
1240.041, 4.766995
1240.523, 4.768134
1241.005, 4.735479
1241.487, 4.680995
1241.969, 4.664512
1242.451, 4.702065
1242.933, 4.741633
1243.416, 4.751417
1243.898, 4.731318
1244.380, 4.663050
1244.862, 4.583282
1245.344, 4.501437
1245.826, 4.451859
1246.308, 4.538198
1246.790, 4.675043
1247.272, 4.597604
1247.755, 4.268152
1248.237, 4.145120
1248.719, 4.612058
1249.201, 4.887988
1249.683, 4.634934
1250.165, 4.441038
1250.647, 4.618442
1251.129, 4.826330
1251.611, 4.777226
1252.094, 4.601976
1252.576, 4.568183
1253.058, 4.672040
1253.540, 4.772287
1254.022, 4.883759
1254.504, 4.785034
1254.986, 4.443019
1255.468, 4.254138
1255.951, 4.345964
1256.433, 4.522681
1256.915, 4.652217
1257.397, 4.709969
1257.879, 4.582572
1258.361, 4.412818
1258.843, 4.512017
1259.325, 4.753241
1259.807, 4.917534
1260.290, 4.997006
1260.772, 5.038637
1261.254, 5.057350
1261.736, 5.061756
1262.218, 5.062059
1262.700, 5.024262
1263.182, 4.857715
1263.664, 4.747442
1264.146, 4.841208
1264.629, 4.966515
1265.111, 4.997248
1265.593, 4.966416
1266.075, 4.908128
1266.557, 4.837541
1267.039, 4.887550
1267.521, 5.149177
1268.003, 5.198730
1268.486, 4.972750
1268.968, 4.820302
1269.450, 4.826632
1269.932, 4.828202
1270.414, 4.731343
1270.896, 4.646123
1271.378, 4.718205
1271.860, 4.855680
1272.343, 4.851396
1272.825, 4.751899
1273.307, 4.613760
1273.789, 4.499718
1274.271, 4.606018
1274.753, 4.884331
1275.235, 5.070807
1275.717, 5.070290
1276.199, 4.978892
1276.682, 4.742012
1277.164, 4.596287
1277.646, 4.766553
1278.128, 4.936383
1278.610, 4.872652
1279.092, 4.734931
1279.574, 4.672851
1280.056, 4.685967
1280.538, 4.736197
1281.021, 4.818216
1281.503, 5.069128
1281.985, 5.615960
1282.467, 5.816079
1282.949, 5.547946
1283.431, 5.325586
1283.913, 5.314330
1284.395, 5.342881
1284.878, 5.283365
1285.360, 5.253357
1285.842, 5.491384
1286.324, 5.823014
1286.806, 5.917492
1287.288, 5.776707
##END=



