##NAMES=Hashemite
##RRUFFID=R100120
##IDEAL CHEMISTRY=BaCr^6+^O_4_
##LOCALITY=60 kilometers south east of Aman, West Central Jordan
##OWNER=RRUFF
##SOURCE=William W. Pinch
##DESCRIPTION=Doubly-terminated to tabular brown crystals with striations, associated with calcite and elongated yellow amorphous minerals.
##STATUS=The identification of this mineral has been confirmed by single-crystal X-ray diffraction.
##URL=rruff.info/R100120
91.03516, 14.18147
91.51727, 14.22707
91.99939, 14.27553
92.48151, 14.28488
92.96362, 14.13468
93.44574, 13.48463
93.92786, 12.65886
94.40997, 12.46000
94.89210, 13.07734
95.37421, 13.91814
95.85633, 14.03130
96.33845, 13.44928
96.82056, 12.81522
97.30268, 12.60614
97.78480, 12.77062
98.26691, 12.74500
98.74903, 12.39060
99.23115, 11.85820
99.71326, 11.59494
100.1954, 11.64366
100.6775, 11.80600
101.1596, 11.99342
101.6417, 12.25776
102.1239, 12.26105
102.6060, 11.84243
103.0881, 11.03793
103.5702, 10.56691
104.0523, 10.60384
104.5344, 10.75652
105.0166, 10.55989
105.4987, 9.684673
105.9808, 9.049701
106.4629, 8.883914
106.9450, 9.262707
107.4271, 9.787861
107.9093, 10.78534
108.3914, 11.81641
108.8735, 12.23267
109.3556, 11.50085
109.8377, 10.64216
110.3198, 9.903260
110.8020, 9.263103
111.2841, 8.793357
111.7662, 8.524570
112.2483, 8.426349
112.7304, 8.426317
113.2125, 8.629046
113.6947, 8.847775
114.1768, 9.000574
114.6589, 9.145494
115.1410, 9.136271
115.6231, 8.790951
116.1052, 8.218102
116.5874, 7.823026
117.0695, 7.770654
117.5516, 7.942797
118.0337, 8.250611
118.5158, 9.021822
118.9980, 9.610086
119.4801, 9.562742
119.9622, 8.939022
120.4443, 8.434671
120.9264, 8.767626
121.4085, 9.358767
121.8907, 9.494840
122.3728, 8.382611
122.8549, 7.020933
123.3370, 6.197890
123.8191, 5.942261
124.3012, 5.998118
124.7834, 6.445821
125.2655, 7.068312
125.7476, 7.401281
126.2297, 6.698316
126.7118, 5.733169
127.1939, 5.822937
127.6761, 7.216384
128.1582, 8.822987
128.6403, 9.299453
129.1224, 8.833517
129.6045, 8.331031
130.0867, 8.282244
130.5688, 8.600694
131.0509, 9.040716
131.5330, 9.633947
132.0151, 10.23213
132.4972, 10.53423
132.9794, 10.53972
133.4615, 10.52940
133.9436, 10.66077
134.4257, 10.93373
134.9078, 11.34668
135.3899, 11.95035
135.8721, 12.65762
136.3542, 13.18350
136.8363, 13.47063
137.3184, 13.83374
137.8005, 14.51496
138.2826, 15.54015
138.7648, 16.73109
139.2469, 18.00749
139.7290, 19.41804
140.2111, 21.32536
140.6932, 23.97036
141.1753, 26.69626
141.6575, 28.82976
142.1396, 30.22544
142.6217, 31.45758
143.1038, 32.50388
143.5859, 33.33818
144.0681, 34.82163
144.5502, 37.46019
145.0323, 40.30922
145.5144, 42.27077
145.9965, 42.74229
146.4786, 43.23492
146.9608, 44.15260
147.4429, 45.67900
147.9250, 46.88777
148.4071, 47.53881
148.8892, 47.96399
149.3713, 48.63790
149.8535, 49.67390
150.3356, 50.85711
150.8177, 52.13387
151.2998, 53.49074
151.7819, 54.96880
152.2640, 56.65437
152.7462, 58.45868
153.2283, 60.19019
153.7104, 61.92416
154.1925, 63.51559
154.6746, 64.91029
155.1567, 66.09811
155.6389, 67.06688
156.1210, 67.73874
156.6031, 68.18803
157.0852, 68.60744
157.5673, 68.95316
158.0495, 69.33401
158.5316, 69.81157
159.0137, 70.44640
159.4958, 71.10320
159.9779, 71.92565
160.4600, 72.78804
160.9422, 73.27998
161.4243, 72.58334
161.9064, 71.86023
162.3885, 71.91363
162.8706, 73.49033
163.3527, 75.22744
163.8349, 76.64877
164.3170, 77.78629
164.7991, 78.79309
165.2812, 79.59362
165.7633, 80.35921
166.2454, 81.24191
166.7276, 82.23603
167.2097, 83.40783
167.6918, 84.85227
168.1739, 86.53947
168.6560, 88.32732
169.1381, 90.24657
169.6203, 92.15151
170.1024, 93.28346
170.5845, 94.25582
171.0666, 94.89054
171.5487, 94.54850
172.0309, 93.31013
172.5130, 92.12571
172.9951, 91.87268
173.4772, 92.06996
173.9593, 91.96553
174.4414, 91.12054
174.9236, 89.91904
175.4057, 88.75269
175.8878, 87.61295
176.3699, 86.47722
176.8520, 85.14256
177.3341, 83.77470
177.8163, 82.73829
178.2984, 82.66994
178.7805, 82.86267
179.2626, 82.11562
179.7447, 80.36392
180.2268, 78.41516
180.7090, 76.97149
181.1911, 75.97935
181.6732, 75.31083
182.1553, 75.23860
182.6374, 75.40675
183.1195, 74.99483
183.6017, 73.91745
184.0838, 72.62731
184.5659, 71.56152
185.0480, 70.70494
185.5301, 69.93473
186.0123, 69.11402
186.4944, 68.32531
186.9765, 67.92474
187.4586, 67.98019
187.9407, 68.18836
188.4228, 68.15705
188.9050, 67.89970
189.3871, 67.53952
189.8692, 67.12074
190.3513, 66.65013
190.8334, 66.08477
191.3155, 65.35540
191.7977, 64.71374
192.2798, 64.71965
192.7619, 65.37154
193.2440, 65.88104
193.7261, 65.77383
194.2082, 65.10281
194.6904, 64.45504
195.1725, 63.85270
195.6546, 63.29815
196.1367, 62.78898
196.6188, 62.31401
197.1009, 61.97834
197.5831, 61.86772
198.0652, 61.97960
198.5473, 62.18160
199.0294, 62.56032
199.5115, 62.89354
199.9937, 62.64312
200.4758, 61.73759
200.9579, 60.73808
201.4400, 59.90017
201.9221, 59.21785
202.4042, 58.78667
202.8864, 58.67826
203.3685, 58.75452
203.8506, 58.64463
204.3327, 58.27504
204.8148, 58.01783
205.2969, 58.17229
205.7791, 58.83349
206.2612, 59.19458
206.7433, 59.14365
207.2254, 58.81828
207.7075, 58.54998
208.1896, 58.33783
208.6718, 58.18343
209.1539, 58.08793
209.6360, 58.05488
210.1181, 58.07898
210.6002, 58.19807
211.0823, 58.35476
211.5645, 58.36688
212.0466, 58.17801
212.5287, 57.98162
213.0108, 57.92407
213.4929, 58.09669
213.9750, 58.03894
214.4572, 57.65045
214.9393, 57.04798
215.4214, 56.52068
215.9035, 55.98475
216.3856, 55.69070
216.8678, 55.87096
217.3499, 56.77250
217.8320, 57.31535
218.3141, 57.30468
218.7962, 56.94126
219.2783, 56.88612
219.7605, 57.31276
220.2426, 57.72900
220.7247, 57.86828
221.2068, 57.65913
221.6889, 57.35801
222.1710, 56.89187
222.6532, 56.36100
223.1353, 56.11990
223.6174, 56.31174
224.0995, 56.55163
224.5816, 56.64412
225.0637, 56.53180
225.5459, 56.40570
226.0280, 56.19128
226.5101, 55.98429
226.9922, 56.12189
227.4743, 56.82690
227.9564, 57.52706
228.4386, 57.96035
228.9207, 58.07056
229.4028, 58.00353
229.8849, 57.59370
230.3670, 57.04825
230.8492, 57.00055
231.3313, 57.81796
231.8134, 58.57703
232.2955, 58.84890
232.7776, 58.43320
233.2597, 57.98180
233.7419, 57.48509
234.2240, 56.96022
234.7061, 56.44961
235.1882, 55.88860
235.6703, 55.44242
236.1524, 55.17476
236.6346, 55.09652
237.1167, 55.19282
237.5988, 55.54829
238.0809, 56.04676
238.5630, 56.43483
239.0451, 56.72904
239.5273, 56.88081
240.0094, 56.83531
240.4915, 56.45523
240.9736, 56.22717
241.4557, 56.14650
241.9378, 56.21516
242.4200, 56.47422
242.9021, 57.12646
243.3842, 57.65596
243.8663, 57.85074
244.3484, 57.60048
244.8306, 57.32802
245.3127, 56.95998
245.7948, 56.61028
246.2769, 56.52557
246.7590, 56.90044
247.2411, 57.20777
247.7233, 57.19824
248.2054, 56.68141
248.6875, 56.59041
249.1696, 57.13654
249.6517, 57.96690
250.1338, 58.53617
250.6160, 58.87348
251.0981, 58.88587
251.5802, 58.38499
252.0623, 57.12896
252.5444, 56.65536
253.0265, 57.37162
253.5087, 58.53973
253.9908, 59.04236
254.4729, 58.47184
254.9550, 58.07884
255.4371, 58.30194
255.9192, 59.25337
256.4014, 59.89442
256.8835, 60.19379
257.3656, 60.21295
257.8477, 59.92952
258.3298, 59.01344
258.8120, 58.55579
259.2941, 58.99769
259.7762, 60.42491
260.2583, 61.28193
260.7404, 61.37116
261.2225, 61.14374
261.7047, 61.05139
262.1868, 61.08169
262.6689, 61.30581
263.1510, 61.91088
263.6331, 62.86431
264.1152, 63.00003
264.5974, 61.89608
265.0795, 60.62392
265.5616, 60.33977
266.0437, 61.41873
266.5258, 62.19817
267.0079, 62.20481
267.4901, 61.58478
267.9722, 61.75095
268.4543, 63.05947
268.9364, 64.44901
269.4185, 64.95708
269.9006, 64.33173
270.3828, 63.93102
270.8649, 63.99028
271.3470, 64.42521
271.8291, 64.85484
272.3112, 65.29141
272.7933, 65.69932
273.2755, 66.06147
273.7576, 66.38517
274.2397, 66.59303
274.7218, 66.61677
275.2039, 66.54865
275.6860, 66.68698
276.1682, 67.07003
276.6503, 67.52047
277.1324, 67.96563
277.6145, 68.41113
278.0966, 68.73567
278.5787, 68.91298
279.0609, 68.98909
279.5430, 69.02881
280.0251, 69.01491
280.5072, 69.08410
280.9893, 69.35738
281.4715, 69.83184
281.9536, 70.22221
282.4357, 70.49734
282.9178, 70.72199
283.3999, 70.96883
283.8820, 71.23119
284.3642, 71.61356
284.8463, 72.26380
285.3284, 73.14321
285.8105, 73.74003
286.2926, 73.99686
286.7747, 74.15063
287.2569, 74.55388
287.7390, 75.19511
288.2211, 75.78976
288.7032, 76.09936
289.1853, 76.24864
289.6674, 76.88669
290.1496, 78.07725
290.6317, 79.35757
291.1138, 80.19365
291.5959, 80.64060
292.0780, 81.04945
292.5602, 81.54285
293.0423, 82.08025
293.5244, 82.50887
294.0065, 82.81934
294.4886, 83.21622
294.9707, 84.01949
295.4529, 85.10120
295.9350, 85.97507
296.4171, 86.47655
296.8992, 86.75037
297.3813, 86.90156
297.8634, 86.95809
298.3456, 87.26327
298.8277, 88.23829
299.3098, 89.64365
299.7919, 90.98022
300.2740, 92.17871
300.7561, 93.19026
301.2383, 93.74483
301.7204, 93.95933
302.2025, 94.32972
302.6846, 95.33421
303.1667, 96.64793
303.6488, 97.78736
304.1310, 98.62912
304.6131, 99.41402
305.0952, 100.2899
305.5773, 101.2780
306.0594, 102.4305
306.5415, 103.7912
307.0237, 105.3279
307.5058, 107.1188
307.9879, 109.2109
308.4700, 111.1977
308.9521, 112.6571
309.4343, 113.8156
309.9164, 115.1063
310.3985, 116.9188
310.8806, 118.8090
311.3627, 120.3070
311.8448, 121.3987
312.3270, 122.7550
312.8091, 125.0304
313.2912, 127.7190
313.7733, 130.2234
314.2554, 131.9145
314.7375, 133.7288
315.2197, 136.2082
315.7018, 139.3152
316.1839, 142.5226
316.6660, 145.6226
317.1481, 148.7249
317.6302, 151.8835
318.1124, 155.1726
318.5945, 158.4677
319.0766, 161.6824
319.5587, 164.8685
320.0408, 168.2508
320.5229, 171.3576
321.0051, 175.0579
321.4872, 179.9829
321.9693, 186.9831
322.4514, 193.6812
322.9335, 198.8945
323.4156, 203.5348
323.8978, 209.3600
324.3799, 217.3599
324.8620, 225.9942
325.3441, 234.5977
325.8262, 242.5914
326.3083, 251.9740
326.7905, 263.0331
327.2726, 275.5647
327.7547, 289.1547
328.2368, 303.0562
328.7189, 318.8795
329.2010, 336.8151
329.6832, 356.6396
330.1653, 379.1717
330.6474, 404.7484
331.1295, 432.7625
331.6116, 463.0022
332.0938, 495.3022
332.5759, 530.3275
333.0580, 568.6758
333.5401, 610.1617
334.0222, 650.6562
334.5043, 690.1746
334.9865, 729.1478
335.4686, 768.2379
335.9507, 807.8427
336.4328, 846.5957
336.9149, 883.9491
337.3970, 921.2186
337.8792, 960.2078
338.3613, 1001.315
338.8434, 1044.514
339.3255, 1089.882
339.8076, 1137.451
340.2898, 1188.141
340.7719, 1241.932
341.2540, 1299.618
341.7361, 1363.394
342.2182, 1432.053
342.7003, 1507.833
343.1825, 1590.929
343.6646, 1681.733
344.1467, 1777.209
344.6288, 1878.035
345.1109, 1984.198
345.5930, 2099.886
346.0752, 2222.909
346.5573, 2346.555
347.0394, 2473.159
347.5215, 2596.842
348.0036, 2710.448
348.4857, 2813.270
348.9679, 2900.082
349.4500, 2977.059
349.9321, 3036.195
350.4142, 3054.516
350.8963, 3027.574
351.3784, 2962.815
351.8606, 2860.051
352.3427, 2725.482
352.8248, 2579.010
353.3069, 2419.155
353.7890, 2260.690
354.2711, 2119.580
354.7533, 1997.371
355.2354, 1893.827
355.7175, 1812.999
356.1996, 1751.557
356.6817, 1703.703
357.1638, 1672.206
357.6460, 1649.648
358.1281, 1632.925
358.6102, 1621.443
359.0923, 1608.467
359.5744, 1593.969
360.0565, 1574.588
360.5387, 1547.153
361.0208, 1511.473
361.5029, 1466.559
361.9850, 1410.737
362.4671, 1345.289
362.9492, 1274.697
363.4314, 1196.485
363.9135, 1116.494
364.3956, 1037.283
364.8777, 957.3703
365.3598, 881.9589
365.8419, 811.8207
366.3241, 746.8616
366.8062, 687.4487
367.2883, 635.0016
367.7704, 586.7627
368.2526, 541.9203
368.7347, 500.1347
369.2168, 462.9826
369.6989, 431.3572
370.1810, 403.5615
370.6631, 377.9103
371.1453, 354.4607
371.6274, 333.0326
372.1095, 313.5077
372.5916, 295.8085
373.0737, 280.0865
373.5558, 266.5481
374.0380, 254.4744
374.5201, 243.3286
375.0022, 233.1626
375.4843, 224.0671
375.9664, 215.9386
376.4485, 208.9839
376.9307, 203.5386
377.4128, 199.7968
377.8949, 196.9412
378.3770, 194.8249
378.8591, 193.4271
379.3412, 192.1517
379.8234, 190.9426
380.3055, 190.0902
380.7876, 189.7520
381.2697, 189.9554
381.7518, 191.2307
382.2339, 193.7333
382.7161, 197.3647
383.1982, 201.7630
383.6803, 206.9151
384.1624, 213.6152
384.6445, 222.3952
385.1266, 233.1250
385.6088, 245.5168
386.0909, 259.4971
386.5730, 275.0848
387.0551, 293.2637
387.5372, 313.0252
388.0193, 331.8355
388.5015, 347.7567
388.9836, 362.1744
389.4657, 376.2621
389.9478, 390.0631
390.4299, 404.1835
390.9120, 418.6825
391.3942, 433.8892
391.8763, 450.0006
392.3584, 467.0145
392.8405, 485.0392
393.3226, 504.3208
393.8047, 524.7327
394.2869, 545.6952
394.7690, 567.7917
395.2511, 589.8206
395.7332, 610.6431
396.2154, 628.1775
396.6975, 648.4221
397.1796, 671.5656
397.6617, 698.6238
398.1438, 731.0244
398.6259, 771.7182
399.1081, 815.3132
399.5902, 860.9850
400.0723, 909.0817
400.5544, 956.9822
401.0365, 1006.673
401.5186, 1054.845
402.0008, 1099.949
402.4829, 1152.718
402.9650, 1183.512
403.4471, 1192.813
403.9292, 1177.525
404.4113, 1121.045
404.8935, 1010.369
405.3756, 888.0192
405.8577, 770.5427
406.3398, 656.8718
406.8219, 564.2893
407.3040, 494.3627
407.7862, 442.6520
408.2683, 403.6568
408.7504, 377.5261
409.2325, 358.9703
409.7146, 348.0005
410.1967, 342.9421
410.6789, 338.6359
411.1610, 335.1821
411.6431, 329.9941
412.1252, 320.7689
412.6073, 308.0775
413.0894, 293.0459
413.5716, 275.3699
414.0537, 257.3160
414.5358, 240.8655
415.0179, 226.3669
415.5000, 214.4000
415.9821, 205.9758
416.4643, 200.0299
416.9464, 195.7503
417.4285, 193.1400
417.9106, 191.5718
418.3927, 190.6317
418.8748, 190.4975
419.3570, 191.3942
419.8391, 193.5877
420.3212, 196.6382
420.8033, 200.4877
421.2854, 205.0894
421.7675, 210.2786
422.2497, 215.9996
422.7318, 222.3056
423.2139, 229.3655
423.6960, 237.9919
424.1781, 245.6034
424.6602, 252.4869
425.1424, 258.0122
425.6245, 261.2258
426.1066, 262.9386
426.5887, 261.3080
427.0709, 255.6033
427.5530, 245.8247
428.0351, 234.1281
428.5172, 219.4608
428.9993, 204.1200
429.4814, 189.4468
429.9636, 175.1896
430.4457, 162.5891
430.9278, 151.8372
431.4099, 142.7054
431.8920, 134.8480
432.3741, 128.2492
432.8563, 122.5222
433.3384, 117.5625
433.8205, 113.3230
434.3026, 109.6249
434.7847, 106.4427
435.2668, 103.8379
435.7490, 102.2044
436.2311, 101.2598
436.7132, 100.0264
437.1953, 98.10863
437.6774, 95.97655
438.1595, 94.17821
438.6417, 92.68181
439.1238, 91.35555
439.6059, 90.24850
440.0880, 89.20602
440.5701, 88.01143
441.0522, 86.59785
441.5344, 85.31393
442.0165, 84.46831
442.4986, 83.84740
442.9807, 83.19460
443.4628, 82.32214
443.9449, 81.50256
444.4271, 80.92423
444.9092, 80.52798
445.3913, 79.96926
445.8734, 79.15047
446.3555, 78.17068
446.8376, 77.08602
447.3198, 75.94778
447.8019, 74.59517
448.2840, 72.85650
448.7661, 70.98738
449.2482, 69.35732
449.7303, 68.14436
450.2125, 66.88048
450.6946, 65.35645
451.1767, 63.61420
451.6588, 62.39632
452.1409, 61.82194
452.6230, 61.47228
453.1052, 61.07731
453.5873, 60.62793
454.0694, 60.21299
454.5515, 59.84794
455.0337, 59.50299
455.5158, 59.11811
455.9979, 58.69598
456.4800, 58.32937
456.9621, 58.05188
457.4442, 57.85542
457.9264, 57.71463
458.4085, 57.63042
458.8906, 57.61898
459.3727, 57.78414
459.8548, 58.01020
460.3369, 58.14193
460.8191, 58.21456
461.3012, 58.02715
461.7833, 57.21380
462.2654, 56.02765
462.7475, 54.99834
463.2296, 54.39197
463.7118, 53.96321
464.1939, 53.63955
464.6760, 53.41430
465.1581, 53.09297
465.6402, 52.43793
466.1223, 51.77246
466.6045, 51.33323
467.0866, 51.62183
467.5687, 51.55315
468.0508, 50.75795
468.5329, 49.59613
469.0150, 48.87271
469.4972, 48.86387
469.9793, 48.88661
470.4614, 48.72247
470.9435, 48.35819
471.4256, 48.08845
471.9077, 47.94460
472.3899, 47.83443
472.8720, 47.70311
473.3541, 47.55630
473.8362, 47.27765
474.3183, 46.80872
474.8004, 46.26471
475.2826, 45.86024
475.7647, 45.59082
476.2468, 45.39501
476.7289, 45.30755
477.2110, 45.25769
477.6931, 45.05145
478.1753, 44.68733
478.6574, 44.35396
479.1395, 44.26488
479.6216, 44.28952
480.1037, 44.23074
480.5858, 44.00575
481.0680, 43.74644
481.5501, 43.59719
482.0322, 43.47933
482.5143, 43.22863
482.9964, 42.45991
483.4786, 41.82151
483.9607, 41.68859
484.4428, 42.12024
484.9249, 42.52785
485.4070, 42.86955
485.8892, 43.10231
486.3713, 43.18959
486.8534, 43.07715
487.3355, 42.89870
487.8176, 42.59388
488.2997, 42.24621
488.7819, 42.04779
489.2640, 42.08784
489.7461, 42.06355
490.2282, 41.80960
490.7103, 41.35309
491.1924, 41.25838
491.6746, 41.59799
492.1567, 41.99535
492.6388, 42.07275
493.1209, 41.87675
493.6030, 41.82701
494.0851, 42.00827
494.5673, 42.27022
495.0494, 42.47895
495.5315, 42.60372
496.0136, 42.52726
496.4957, 42.01242
496.9778, 41.37766
497.4600, 40.92413
497.9421, 40.65571
498.4242, 40.55433
498.9063, 40.69933
499.3884, 40.95350
499.8705, 41.23522
500.3527, 41.61528
500.8348, 41.79818
501.3169, 41.46502
501.7990, 40.92654
502.2811, 40.61897
502.7632, 40.70817
503.2454, 40.94566
503.7275, 41.44482
504.2096, 42.14680
504.6917, 42.40561
505.1738, 42.04773
505.6559, 41.48328
506.1381, 40.85476
506.6202, 40.05310
507.1023, 39.68132
507.5844, 39.86538
508.0665, 40.25291
508.5486, 40.32135
509.0308, 40.06017
509.5129, 39.98433
509.9950, 40.33829
510.4771, 40.84652
510.9592, 40.82778
511.4413, 40.33525
511.9235, 39.88850
512.4056, 39.92080
512.8877, 40.16607
513.3698, 40.15946
513.8519, 39.84264
514.3340, 39.64766
514.8162, 40.17617
515.2983, 40.90350
515.7804, 41.18345
516.2625, 40.43233
516.7446, 39.70058
517.2267, 39.41046
517.7089, 39.45430
518.1910, 39.57342
518.6731, 39.94026
519.1552, 40.16134
519.6373, 40.01912
520.1194, 39.46481
520.6016, 39.08794
521.0837, 38.94587
521.5658, 38.92041
522.0479, 38.97448
522.5300, 39.19490
523.0121, 39.13153
523.4943, 38.63243
523.9764, 38.00010
524.4585, 37.79677
524.9406, 38.03276
525.4227, 38.36612
525.9048, 38.77373
526.3870, 39.14567
526.8691, 39.21112
527.3513, 38.97643
527.8334, 38.55019
528.3155, 37.78042
528.7976, 36.94810
529.2797, 36.47041
529.7618, 36.41784
530.2440, 36.57520
530.7261, 37.03204
531.2082, 37.53319
531.6903, 37.74413
532.1724, 37.25093
532.6545, 36.77757
533.1367, 36.54512
533.6188, 36.51597
534.1009, 36.54188
534.5830, 36.61895
535.0651, 36.73529
535.5472, 36.92918
536.0294, 37.24257
536.5115, 37.33101
536.9936, 37.12283
537.4757, 36.79061
537.9578, 36.44453
538.4399, 36.06086
538.9221, 35.80744
539.4042, 35.72396
539.8863, 35.73332
540.3684, 35.66115
540.8505, 35.52398
541.3326, 35.53039
541.8148, 35.89856
542.2969, 36.38156
542.7790, 36.51325
543.2611, 36.32560
543.7432, 36.08275
544.2253, 35.88569
544.7075, 35.76565
545.1896, 35.82818
545.6717, 36.15326
546.1538, 36.28231
546.6359, 35.66032
547.1180, 34.86327
547.6002, 34.51175
548.0823, 35.49129
548.5644, 36.07290
549.0465, 35.63467
549.5286, 34.56123
550.0107, 33.98621
550.4929, 34.24815
550.9750, 34.49316
551.4571, 34.37915
551.9392, 33.90244
552.4213, 33.88214
552.9034, 34.45477
553.3856, 35.05463
553.8677, 35.20280
554.3498, 34.93261
554.8319, 34.64235
555.3140, 34.37180
555.7961, 34.08519
556.2783, 33.59554
556.7604, 33.03967
557.2425, 32.83732
557.7246, 33.44453
558.2067, 34.15766
558.6888, 34.14995
559.1710, 33.63541
559.6531, 33.33904
560.1352, 33.97346
560.6173, 34.64977
561.0994, 34.79699
561.5815, 34.30937
562.0637, 33.83456
562.5458, 33.49501
563.0279, 33.21581
563.5100, 32.92491
563.9921, 32.46025
564.4742, 32.29462
564.9564, 32.59940
565.4385, 33.08009
565.9206, 33.19414
566.4027, 32.85153
566.8848, 32.59258
567.3669, 32.60266
567.8491, 32.78990
568.3312, 32.87449
568.8133, 32.85827
569.2954, 32.78995
569.7775, 32.72342
570.2596, 32.61967
570.7418, 32.35600
571.2239, 31.91639
571.7060, 31.54706
572.1881, 31.43378
572.6702, 31.49199
573.1523, 31.65486
573.6345, 32.04597
574.1166, 32.28181
574.5987, 32.13288
575.0808, 31.75250
575.5629, 31.39085
576.0450, 30.91674
576.5272, 30.67656
577.0093, 30.86523
577.4914, 31.38898
577.9735, 31.60530
578.4556, 31.37199
578.9377, 31.12230
579.4199, 31.09648
579.9020, 31.30120
580.3841, 31.35255
580.8662, 31.22201
581.3483, 31.09238
581.8304, 31.22832
582.3126, 31.52968
582.7947, 31.65034
583.2768, 31.52269
583.7589, 31.20972
584.2410, 30.57526
584.7231, 29.82063
585.2053, 29.34454
585.6874, 29.58863
586.1696, 29.90164
586.6517, 29.84909
587.1338, 29.53704
587.6159, 29.45116
588.0980, 30.06985
588.5801, 30.62581
589.0623, 30.70704
589.5444, 30.19841
590.0265, 29.99789
590.5086, 30.26873
590.9907, 30.63926
591.4728, 30.84284
591.9550, 30.87197
592.4371, 30.73810
592.9192, 30.38232
593.4013, 30.01076
593.8834, 29.96276
594.3655, 30.19344
594.8477, 30.42797
595.3298, 30.61163
595.8119, 30.71092
596.2940, 30.58922
596.7761, 30.32358
597.2582, 30.16880
597.7404, 30.25931
598.2225, 30.50863
598.7046, 30.98544
599.1867, 31.67962
599.6688, 32.08205
600.1509, 31.78605
600.6331, 31.33849
601.1152, 31.08527
601.5973, 31.14872
602.0794, 31.12674
602.5615, 30.88825
603.0436, 30.69026
603.5258, 30.90694
604.0079, 31.66293
604.4900, 32.12246
604.9721, 32.05164
605.4542, 31.76051
605.9363, 31.97511
606.4185, 32.62188
606.9006, 33.05145
607.3827, 32.71739
607.8648, 32.14645
608.3469, 32.20982
608.8290, 32.79537
609.3112, 33.26861
609.7933, 33.20711
610.2754, 32.92459
610.7575, 32.56962
611.2396, 32.12571
611.7217, 31.94495
612.2039, 32.27685
612.6860, 32.81652
613.1681, 33.35697
613.6502, 34.13670
614.1323, 34.45558
614.6144, 34.08821
615.0966, 33.44602
615.5787, 33.10619
616.0608, 33.10269
616.5429, 33.19651
617.0250, 33.31483
617.5071, 33.51748
617.9893, 34.25212
618.4714, 35.37873
618.9535, 35.79473
619.4356, 34.25217
619.9177, 32.05068
620.3998, 30.80738
620.8820, 30.48288
621.3641, 30.49986
621.8462, 30.93717
622.3283, 31.31534
622.8104, 31.19425
623.2925, 30.33606
623.7747, 29.73060
624.2568, 29.68316
624.7389, 29.88279
625.2210, 30.08787
625.7031, 30.30079
626.1852, 30.52643
626.6674, 30.80705
627.1495, 31.04934
627.6316, 31.03922
628.1137, 30.76232
628.5958, 30.60242
629.0779, 30.73052
629.5601, 30.97011
630.0422, 30.89058
630.5243, 30.57613
631.0064, 30.42053
631.4885, 30.77453
631.9706, 31.29983
632.4528, 31.74313
632.9349, 32.08342
633.4170, 32.26316
633.8991, 32.18847
634.3812, 31.99640
634.8633, 31.75018
635.3455, 31.42657
635.8276, 31.14797
636.3097, 30.86718
636.7918, 30.67749
637.2739, 30.68937
637.7560, 30.97519
638.2382, 31.17645
638.7203, 31.27116
639.2024, 31.25603
639.6845, 31.10189
640.1666, 30.81847
640.6487, 30.49053
641.1309, 30.11047
641.6130, 29.73803
642.0951, 29.49118
642.5772, 29.32799
643.0594, 29.14161
643.5415, 28.66391
644.0236, 28.33282
644.5057, 28.44340
644.9879, 28.97212
645.4700, 29.60425
645.9521, 30.62600
646.4342, 31.40699
646.9163, 31.64158
647.3984, 31.24266
647.8806, 30.88688
648.3627, 30.54749
648.8448, 30.29697
649.3269, 30.23058
649.8090, 30.34870
650.2911, 30.36375
650.7733, 30.21793
651.2554, 30.13005
651.7375, 30.50567
652.2196, 31.13818
652.7017, 31.50513
653.1838, 31.36621
653.6660, 31.10753
654.1481, 30.96511
654.6302, 30.91948
655.1123, 30.93542
655.5944, 31.05199
656.0765, 31.17463
656.5587, 31.20884
657.0408, 31.20731
657.5229, 31.44204
658.0050, 32.13886
658.4871, 32.67071
658.9692, 32.74380
659.4514, 32.41659
659.9335, 32.38169
660.4156, 32.67293
660.8977, 32.97643
661.3798, 33.06047
661.8619, 32.98267
662.3441, 32.85902
662.8262, 32.69315
663.3083, 32.60997
663.7904, 32.74799
664.2725, 33.00394
664.7546, 33.26049
665.2368, 33.47405
665.7189, 33.74548
666.2010, 34.25438
666.6831, 34.77745
667.1652, 35.04727
667.6473, 34.89178
668.1295, 34.74930
668.6116, 34.58482
669.0937, 34.49715
669.5758, 34.76770
670.0579, 35.45531
670.5400, 35.91880
671.0222, 35.86454
671.5043, 35.58506
671.9864, 35.69803
672.4685, 36.14740
672.9506, 36.65893
673.4327, 37.16817
673.9149, 37.60052
674.3970, 37.90905
674.8791, 38.08915
675.3612, 38.11858
675.8433, 37.66352
676.3254, 37.33073
676.8076, 37.53786
677.2897, 38.43530
677.7718, 38.99543
678.2539, 39.01318
678.7360, 38.97379
679.2181, 39.24946
679.7003, 39.88963
680.1824, 40.30198
680.6645, 40.45259
681.1466, 40.44129
681.6287, 40.25609
682.1108, 39.99529
682.5930, 39.96657
683.0751, 40.28321
683.5572, 40.65476
684.0393, 40.88987
684.5214, 41.00912
685.0035, 41.04461
685.4857, 40.81169
685.9678, 40.71922
686.4499, 40.90746
686.9320, 41.30417
687.4141, 41.75987
687.8962, 42.38017
688.3784, 42.83709
688.8605, 42.97527
689.3426, 42.93390
689.8247, 43.35829
690.3068, 44.28582
690.7889, 44.76122
691.2711, 43.92958
691.7532, 42.51418
692.2353, 41.97013
692.7174, 42.21756
693.1995, 42.72315
693.6816, 43.55599
694.1638, 44.23278
694.6459, 44.21532
695.1280, 43.43123
695.6101, 42.95360
696.0922, 43.31469
696.5743, 43.83454
697.0565, 44.16353
697.5386, 44.28461
698.0207, 44.26876
698.5028, 44.04454
698.9849, 43.83611
699.4670, 43.86982
699.9492, 44.12630
700.4313, 44.43321
700.9135, 44.78840
701.3956, 45.08189
701.8777, 45.11829
702.3598, 45.02616
702.8419, 45.02898
703.3240, 45.21850
703.8062, 45.44913
704.2883, 45.66808
704.7704, 45.87350
705.2525, 46.05883
705.7346, 46.26153
706.2167, 46.39016
706.6989, 46.39108
707.1810, 46.33354
707.6631, 46.37282
708.1452, 46.51810
708.6273, 46.70258
709.1094, 46.89724
709.5916, 47.12877
710.0737, 47.55750
710.5558, 48.11736
711.0379, 48.48449
711.5200, 48.26450
712.0021, 47.93853
712.4843, 47.93204
712.9664, 48.20750
713.4485, 48.53489
713.9306, 48.99956
714.4127, 49.33736
714.8948, 49.34613
715.3770, 49.02235
715.8591, 48.85515
716.3412, 48.87616
716.8233, 48.99104
717.3054, 49.15224
717.7875, 49.36163
718.2697, 49.61256
718.7518, 49.90400
719.2339, 50.28532
719.7160, 50.89818
720.1981, 51.59225
720.6802, 52.14635
721.1624, 52.52804
721.6445, 52.77699
722.1266, 52.81073
722.6087, 52.78033
723.0908, 52.83027
723.5729, 53.11799
724.0551, 53.18348
724.5372, 52.75784
725.0193, 52.33347
725.5014, 52.53490
725.9835, 53.54775
726.4656, 53.96294
726.9478, 53.48144
727.4299, 52.79038
727.9120, 53.04304
728.3941, 53.92049
728.8762, 54.35161
729.3583, 53.84181
729.8405, 53.22799
730.3226, 53.16524
730.8047, 53.48096
731.2868, 53.89085
731.7689, 54.47337
732.2510, 54.94972
732.7332, 55.24315
733.2153, 55.39235
733.6974, 55.44992
734.1795, 55.37078
734.6616, 55.31452
735.1437, 55.29387
735.6259, 55.34479
736.1080, 55.61506
736.5901, 56.07896
737.0722, 56.51031
737.5543, 56.82084
738.0364, 57.02631
738.5186, 57.12197
739.0007, 57.12247
739.4828, 57.08455
739.9649, 56.89138
740.4470, 56.80034
740.9291, 57.02162
741.4113, 57.52225
741.8934, 57.75813
742.3755, 57.49172
742.8576, 57.40532
743.3397, 57.91933
743.8218, 58.90513
744.3040, 59.19664
744.7861, 58.77586
745.2682, 58.30683
745.7503, 58.16647
746.2324, 58.30033
746.7145, 58.76983
747.1967, 59.53741
747.6788, 60.06899
748.1609, 59.90289
748.6430, 59.52736
749.1251, 59.17025
749.6072, 58.78532
750.0894, 58.87428
750.5715, 59.77903
751.0536, 60.71645
751.5357, 61.13263
752.0178, 60.97049
752.4999, 61.04945
752.9821, 61.39272
753.4642, 61.83415
753.9463, 62.29972
754.4284, 62.72794
754.9105, 62.94715
755.3926, 62.91401
755.8748, 62.91552
756.3569, 63.17496
756.8390, 63.53002
757.3211, 63.82489
757.8032, 63.93122
758.2853, 64.22085
758.7675, 64.87092
759.2496, 65.54543
759.7318, 65.92356
760.2139, 65.95938
760.6960, 66.05293
761.1781, 66.26695
761.6602, 66.42892
762.1423, 66.09728
762.6245, 65.56883
763.1066, 65.64751
763.5887, 66.67374
764.0708, 67.75745
764.5529, 68.41709
765.0350, 68.71751
765.5172, 68.73447
765.9993, 67.69440
766.4814, 67.49636
766.9635, 68.85213
767.4456, 70.60506
767.9277, 71.05784
768.4099, 69.92070
768.8920, 69.51446
769.3741, 70.38586
769.8562, 71.66003
770.3383, 72.09021
770.8204, 71.88390
771.3026, 71.55305
771.7847, 71.06028
772.2668, 70.85853
772.7489, 71.59795
773.2310, 72.74374
773.7131, 73.44665
774.1953, 73.04910
774.6774, 72.81319
775.1595, 72.84666
775.6416, 73.13040
776.1237, 73.78764
776.6058, 74.93826
777.0880, 75.43459
777.5701, 74.73485
778.0522, 73.73849
778.5343, 74.09549
779.0164, 75.42559
779.4985, 76.64113
779.9807, 77.35122
780.4628, 77.73434
780.9449, 77.56204
781.4270, 77.17372
781.9091, 77.27432
782.3912, 78.68727
782.8734, 79.70037
783.3555, 79.77666
783.8376, 79.45475
784.3197, 80.33701
784.8018, 82.59548
785.2839, 83.98436
785.7661, 83.41917
786.2482, 82.18222
786.7303, 82.62814
787.2124, 84.20654
787.6945, 85.36115
788.1766, 84.85207
788.6588, 84.25555
789.1409, 84.41333
789.6230, 85.10947
790.1051, 85.71880
790.5872, 86.04257
791.0693, 86.49556
791.5515, 87.24986
792.0336, 88.13670
792.5157, 88.53671
792.9978, 88.44685
793.4799, 88.61852
793.9620, 89.53307
794.4442, 90.62373
794.9263, 90.95661
795.4084, 90.77441
795.8905, 90.75911
796.3726, 91.28037
796.8547, 91.96159
797.3369, 92.72066
797.8190, 93.52189
798.3011, 94.28609
798.7832, 95.12835
799.2653, 95.66518
799.7474, 95.60777
800.2296, 95.32624
800.7117, 96.00301
801.1938, 97.55101
801.6759, 99.03919
802.1580, 100.1850
802.6401, 100.9611
803.1223, 101.0393
803.6044, 100.7014
804.0865, 100.6788
804.5686, 101.4790
805.0507, 102.3765
805.5328, 103.1492
806.0150, 103.8548
806.4971, 104.6852
806.9792, 105.7270
807.4613, 106.5951
807.9434, 107.0967
808.4255, 107.4560
808.9077, 108.3322
809.3898, 109.5823
809.8719, 110.5492
810.3540, 110.4936
810.8361, 110.5172
811.3182, 111.7280
811.8004, 113.6689
812.2825, 115.2841
812.7646, 115.7569
813.2467, 116.5662
813.7288, 118.1692
814.2109, 120.2127
814.6931, 121.6996
815.1752, 122.5632
815.6573, 123.5852
816.1394, 124.9459
816.6215, 126.6728
817.1037, 129.0853
817.5858, 131.9009
818.0679, 134.4315
818.5500, 136.0374
819.0322, 137.6795
819.5143, 139.9918
819.9964, 142.6181
820.4785, 144.7264
820.9606, 145.5370
821.4427, 147.1840
821.9249, 150.1417
822.4070, 153.9476
822.8891, 157.8022
823.3712, 161.6758
823.8533, 165.2051
824.3354, 168.2296
824.8176, 171.0653
825.2997, 173.6911
825.7818, 176.4445
826.2639, 179.8435
826.7460, 184.7242
827.2281, 189.5130
827.7103, 194.0876
828.1924, 198.3294
828.6745, 202.0457
829.1566, 205.0238
829.6387, 208.2209
830.1208, 211.7799
830.6030, 215.5271
831.0851, 218.7803
831.5672, 221.9043
832.0493, 226.0220
832.5314, 231.5998
833.0135, 237.6683
833.4957, 243.4014
833.9778, 249.2364
834.4599, 255.7907
834.9420, 263.3725
835.4241, 271.2058
835.9063, 278.8415
836.3884, 287.2588
836.8705, 297.8156
837.3526, 310.4542
837.8347, 322.6450
838.3168, 334.0129
838.7990, 346.1510
839.2811, 360.8761
839.7632, 377.5752
840.2453, 395.2607
840.7274, 413.6859
841.2095, 433.8690
841.6917, 455.9746
842.1738, 480.2129
842.6559, 506.5393
843.1380, 534.2748
843.6201, 566.2946
844.1022, 602.4031
844.5844, 643.4536
845.0665, 689.3912
845.5486, 741.2048
846.0307, 799.8049
846.5128, 865.4523
846.9949, 941.0017
847.4771, 1026.594
847.9592, 1124.143
848.4413, 1235.728
848.9234, 1362.852
849.4055, 1500.390
849.8876, 1650.038
850.3698, 1804.668
850.8519, 1959.319
851.3340, 2114.446
851.8161, 2267.211
852.2982, 2417.621
852.7803, 2569.543
853.2625, 2721.439
853.7446, 2878.743
854.2267, 3046.562
854.7088, 3226.491
855.1909, 3431.964
855.6730, 3662.188
856.1552, 3922.932
856.6373, 4215.710
857.1194, 4539.222
857.6015, 4893.393
858.0836, 5283.565
858.5657, 5686.312
859.0479, 6098.195
859.5300, 6516.515
860.0121, 6942.983
860.4942, 7369.714
860.9763, 7765.381
861.4584, 8173.905
861.9406, 8476.624
862.4227, 8649.280
862.9048, 8661.388
863.3869, 8448.701
863.8690, 7960.838
864.3511, 7353.796
864.8333, 6611.552
865.3154, 5827.740
865.7975, 5141.017
866.2796, 4556.500
866.7617, 4086.232
867.2438, 3745.344
867.7260, 3493.146
868.2081, 3314.753
868.6902, 3197.092
869.1723, 3115.170
869.6544, 3088.573
870.1365, 3065.978
870.6187, 3054.472
871.1008, 3035.030
871.5829, 2985.913
872.0650, 2906.908
872.5471, 2789.786
873.0292, 2630.267
873.5114, 2448.639
873.9935, 2246.833
874.4756, 2043.969
874.9577, 1864.041
875.4399, 1710.035
875.9220, 1578.571
876.4041, 1473.053
876.8862, 1388.362
877.3683, 1323.684
877.8505, 1280.327
878.3326, 1248.679
878.8147, 1229.032
879.2968, 1219.230
879.7789, 1219.983
880.2610, 1228.560
880.7432, 1241.704
881.2253, 1258.990
881.7074, 1277.273
882.1895, 1299.116
882.6716, 1317.902
883.1537, 1331.683
883.6359, 1340.283
884.1180, 1337.665
884.6001, 1324.254
885.0822, 1297.893
885.5643, 1254.523
886.0464, 1199.240
886.5286, 1141.134
887.0107, 1081.300
887.4928, 1023.821
887.9749, 968.9626
888.4570, 920.5482
888.9391, 881.2838
889.4213, 850.5082
889.9034, 824.9477
890.3855, 804.7453
890.8676, 789.3408
891.3497, 778.4717
891.8318, 772.6069
892.3140, 773.0325
892.7961, 779.0380
893.2782, 788.0002
893.7603, 799.3748
894.2424, 812.7630
894.7245, 828.8198
895.2067, 846.1185
895.6888, 863.0995
896.1709, 878.1357
896.6530, 895.0861
897.1351, 914.7527
897.6172, 934.8675
898.0994, 952.3498
898.5815, 967.7294
899.0636, 984.3300
899.5457, 1002.238
900.0278, 1021.392
900.5099, 1041.950
900.9921, 1063.697
901.4742, 1086.374
901.9563, 1112.389
902.4384, 1136.277
902.9205, 1168.810
903.4026, 1201.685
903.8848, 1234.283
904.3669, 1265.472
904.8490, 1289.112
905.3311, 1304.951
905.8132, 1310.342
906.2953, 1306.051
906.7775, 1288.683
907.2596, 1253.288
907.7417, 1201.885
908.2238, 1140.607
908.7059, 1062.395
909.1880, 985.3807
909.6702, 912.3925
910.1523, 843.4676
910.6344, 778.0319
911.1165, 716.1541
911.5986, 661.2048
912.0807, 614.6868
912.5629, 573.9831
913.0450, 536.8909
913.5271, 503.5111
914.0092, 473.4437
914.4913, 447.3784
914.9734, 424.4994
915.4556, 405.3803
915.9377, 388.5511
916.4198, 372.8354
916.9019, 358.2216
917.3840, 345.0355
917.8661, 333.3095
918.3483, 322.4627
918.8304, 311.6476
919.3125, 301.4139
919.7946, 292.4568
920.2767, 284.9267
920.7589, 278.1624
921.2410, 272.5029
921.7231, 267.0355
922.2052, 261.1966
922.6873, 255.1320
923.1694, 250.2914
923.6516, 246.7431
924.1337, 243.2954
924.6158, 239.1715
925.0979, 234.9738
925.5800, 231.7167
926.0621, 229.0656
926.5443, 226.1419
927.0264, 222.3226
927.5085, 218.6068
927.9906, 215.2065
928.4727, 211.9651
928.9548, 208.7103
929.4370, 205.4641
929.9191, 201.9256
930.4012, 197.9939
930.8833, 194.1376
931.3654, 191.0491
931.8475, 188.3168
932.3297, 185.3145
932.8118, 181.8769
933.2939, 178.3828
933.7761, 174.5461
934.2582, 171.0490
934.7403, 168.4321
935.2224, 166.6962
935.7045, 164.8954
936.1866, 163.0199
936.6688, 160.9346
937.1509, 158.2671
937.6330, 155.5265
938.1151, 153.2691
938.5972, 151.4587
939.0793, 149.9144
939.5615, 148.8464
940.0436, 147.7083
940.5257, 146.4517
941.0078, 145.0046
941.4899, 143.0647
941.9720, 140.6609
942.4542, 138.6159
942.9363, 137.2708
943.4184, 136.0502
943.9005, 134.1456
944.3826, 132.0410
944.8647, 130.3890
945.3469, 129.7373
945.8290, 128.8050
946.3111, 127.3052
946.7932, 125.7363
947.2753, 124.6265
947.7574, 123.9239
948.2396, 122.7100
948.7217, 120.9457
949.2038, 119.3064
949.6859, 118.4836
950.1680, 117.9016
950.6501, 116.9766
951.1323, 115.7118
951.6144, 114.7965
952.0965, 114.6379
952.5786, 114.2640
953.0607, 113.2660
953.5428, 111.9270
954.0250, 111.2646
954.5071, 111.1190
954.9892, 110.4882
955.4713, 108.5818
955.9534, 106.7687
956.4355, 106.1549
956.9177, 106.2553
957.3998, 106.3879
957.8819, 106.7548
958.3640, 106.5172
958.8461, 105.4008
959.3282, 104.1945
959.8104, 103.9827
960.2925, 104.3900
960.7746, 104.0580
961.2567, 102.8769
961.7388, 101.6035
962.2209, 100.5889
962.7031, 99.75069
963.1852, 99.01723
963.6673, 98.39793
964.1494, 98.07574
964.6315, 98.08865
965.1136, 98.27741
965.5958, 98.60628
966.0779, 99.04848
966.5600, 99.51467
967.0421, 100.0507
967.5242, 100.7731
968.0063, 101.8715
968.4885, 102.9746
968.9706, 103.9352
969.4527, 104.8386
969.9348, 105.8519
970.4169, 107.0642
970.8990, 107.7610
971.3812, 107.7605
971.8633, 108.0279
972.3454, 109.8805
972.8275, 112.4288
973.3096, 114.2525
973.7917, 115.2281
974.2739, 116.6067
974.7560, 118.8171
975.2381, 121.5520
975.7202, 124.7030
976.2023, 128.3735
976.6844, 132.4005
977.1666, 137.1048
977.6487, 142.1319
978.1308, 147.6358
978.6129, 152.9101
979.0950, 157.7592
979.5771, 161.7418
980.0593, 164.1747
980.5414, 165.9964
981.0235, 164.3635
981.5056, 158.6457
981.9877, 150.2876
982.4698, 139.7091
982.9520, 127.4303
983.4341, 116.4145
983.9162, 106.8656
984.3983, 99.32374
984.8804, 95.00345
985.3625, 92.13146
985.8447, 89.64372
986.3268, 87.48331
986.8089, 85.75298
987.2910, 84.49168
987.7731, 83.58450
988.2552, 83.10413
988.7374, 82.80782
989.2195, 82.18996
989.7016, 81.35583
990.1837, 80.57894
990.6658, 79.95255
991.1479, 79.39409
991.6301, 78.69884
992.1122, 78.18061
992.5944, 78.22519
993.0765, 79.02892
993.5586, 79.26015
994.0407, 78.85603
994.5228, 78.27770
995.0049, 77.76701
995.4871, 77.38855
995.9692, 77.27576
996.4513, 77.39663
996.9334, 77.51295
997.4155, 77.63465
997.8976, 77.62503
998.3798, 77.40312
998.8619, 77.06535
999.3440, 76.83974
999.8261, 76.71516
1000.308, 76.59417
1000.790, 76.44981
1001.272, 76.30744
1001.755, 76.09969
1002.237, 75.95297
1002.719, 76.09152
1003.201, 76.84122
1003.683, 76.74789
1004.165, 75.41557
1004.647, 74.23669
1005.129, 74.37339
1005.612, 75.30237
1006.094, 75.50243
1006.576, 75.08052
1007.058, 74.55113
1007.540, 74.07703
1008.022, 73.66432
1008.504, 73.25175
1008.986, 72.92196
1009.468, 72.86040
1009.951, 73.10833
1010.433, 73.31078
1010.915, 73.42929
1011.397, 73.42020
1011.879, 73.09456
1012.361, 72.68865
1012.843, 72.50422
1013.325, 72.60679
1013.807, 72.76674
1014.290, 73.14063
1014.772, 73.26119
1015.254, 72.79856
1015.736, 71.95542
1016.218, 71.52670
1016.700, 71.47996
1017.182, 71.63943
1017.664, 72.13315
1018.147, 72.53752
1018.629, 72.46475
1019.111, 72.17837
1019.593, 72.10964
1020.075, 72.43535
1020.557, 72.44530
1021.039, 72.04109
1021.521, 71.59594
1022.003, 71.57999
1022.486, 71.71904
1022.968, 71.49216
1023.450, 70.89816
1023.932, 70.29382
1024.414, 69.96095
1024.896, 69.45634
1025.378, 68.54713
1025.860, 67.41957
1026.343, 66.54787
1026.825, 65.94656
1027.307, 65.72054
1027.789, 66.06493
1028.271, 66.25671
1028.753, 65.48569
1029.235, 64.29463
1029.717, 63.22738
1030.199, 62.23730
1030.682, 61.91597
1031.164, 62.52843
1031.646, 63.06216
1032.128, 62.80311
1032.610, 62.03603
1033.092, 61.40059
1033.574, 60.89584
1034.056, 60.53972
1034.539, 60.59334
1035.021, 60.48430
1035.503, 59.84890
1035.985, 59.07591
1036.467, 58.67619
1036.949, 58.65961
1037.431, 58.81137
1037.913, 59.14259
1038.396, 59.27541
1038.878, 58.44108
1039.360, 57.55851
1039.842, 57.74454
1040.324, 59.06927
1040.806, 59.52005
1041.288, 58.67163
1041.770, 57.71722
1042.252, 56.96198
1042.734, 56.40882
1043.217, 56.05972
1043.699, 55.90553
1044.181, 55.95718
1044.663, 56.38863
1045.145, 56.61739
1045.627, 56.25747
1046.109, 55.73374
1046.591, 55.34005
1047.074, 55.07844
1047.556, 54.90338
1048.038, 54.81374
1048.520, 54.78072
1049.002, 54.97567
1049.484, 55.05202
1049.966, 54.45300
1050.448, 53.49557
1050.931, 53.12716
1051.413, 53.86073
1051.895, 54.17461
1052.377, 53.78219
1052.859, 53.22807
1053.341, 53.31652
1053.823, 53.70942
1054.305, 53.58644
1054.787, 52.85149
1055.270, 52.15379
1055.752, 51.61231
1056.234, 51.38939
1056.716, 51.71804
1057.198, 52.35608
1057.680, 52.17826
1058.162, 51.25704
1058.644, 50.76902
1059.126, 51.23313
1059.609, 51.88964
1060.091, 52.18554
1060.573, 52.22802
1061.055, 52.13034
1061.537, 51.93929
1062.019, 51.40074
1062.501, 50.35914
1062.983, 49.54363
1063.466, 49.53782
1063.948, 50.03057
1064.430, 50.72669
1064.912, 51.44353
1065.394, 51.63213
1065.876, 50.55233
1066.358, 49.61750
1066.840, 48.98554
1067.323, 48.68021
1067.805, 48.90495
1068.287, 49.54544
1068.769, 49.72078
1069.251, 49.36269
1069.733, 48.94690
1070.215, 48.78866
1070.697, 48.69926
1071.179, 48.57932
1071.661, 48.42460
1072.144, 48.18409
1072.626, 47.80358
1073.108, 47.78468
1073.590, 48.37929
1074.072, 49.00954
1074.554, 48.83033
1075.036, 48.29582
1075.518, 48.06239
1076.001, 48.39014
1076.483, 48.27325
1076.965, 47.34575
1077.447, 46.60759
1077.929, 46.74789
1078.411, 47.35015
1078.893, 47.05971
1079.375, 46.16567
1079.858, 45.61782
1080.340, 46.13700
1080.822, 46.58324
1081.304, 46.43848
1081.786, 46.13828
1082.268, 46.11656
1082.750, 46.38348
1083.232, 46.28902
1083.714, 45.82098
1084.197, 45.33787
1084.679, 44.92878
1085.161, 44.75724
1085.643, 45.20287
1086.125, 45.98495
1086.607, 46.17653
1087.089, 45.53424
1087.571, 45.14024
1088.054, 45.20896
1088.536, 45.34699
1089.018, 45.02382
1089.500, 44.50554
1089.982, 44.22009
1090.464, 44.21679
1090.946, 44.06799
1091.428, 43.57266
1091.911, 43.10905
1092.393, 42.78487
1092.875, 42.57405
1093.357, 42.41142
1093.839, 42.31007
1094.321, 42.32415
1094.803, 42.51146
1095.285, 42.67690
1095.767, 42.74554
1096.250, 42.73924
1096.732, 42.64646
1097.214, 42.47720
1097.696, 42.48107
1098.178, 42.64246
1098.660, 42.64298
1099.142, 42.25573
1099.624, 41.72122
1100.106, 40.98802
1100.589, 40.32202
1101.071, 40.18007
1101.553, 40.79153
1102.035, 41.18993
1102.517, 41.35908
1102.999, 41.30297
1103.481, 40.78844
1103.963, 40.20426
1104.446, 40.19299
1104.928, 40.60877
1105.410, 40.75889
1105.892, 39.78475
1106.374, 39.89977
1106.856, 41.90816
1107.338, 44.11259
1107.820, 43.90404
1108.302, 42.17373
1108.785, 41.04875
1109.267, 40.78060
1109.749, 40.63730
1110.231, 40.34760
1110.713, 40.07090
1111.195, 39.83624
1111.677, 39.67009
1112.159, 39.70837
1112.641, 39.90450
1113.124, 39.95598
1113.606, 39.76587
1114.088, 39.51439
1114.570, 39.16329
1115.052, 38.93662
1115.534, 39.10451
1116.016, 39.63266
1116.498, 39.80141
1116.981, 39.60362
1117.463, 39.27905
1117.945, 38.80817
1118.427, 38.45466
1118.909, 38.63567
1119.391, 39.03559
1119.873, 39.20330
1120.355, 39.05458
1120.838, 38.72913
1121.320, 38.14949
1121.802, 37.72536
1122.284, 37.90311
1122.766, 38.30983
1123.248, 38.43167
1123.730, 38.30951
1124.212, 38.06524
1124.694, 37.56179
1125.177, 37.18202
1125.659, 36.92145
1126.141, 36.85084
1126.623, 37.29053
1127.105, 37.92456
1127.587, 37.71410
1128.069, 36.75260
1128.551, 36.12608
1129.033, 36.61672
1129.516, 37.15843
1129.998, 37.59288
1130.480, 37.76883
1130.962, 37.17605
1131.444, 36.04026
1131.926, 35.55849
1132.408, 35.91479
1132.890, 36.51888
1133.373, 37.46935
1133.855, 38.07628
1134.337, 37.80952
1134.819, 36.94157
1135.301, 36.37358
1135.783, 36.10001
1136.265, 35.80397
1136.747, 35.36360
1137.229, 35.04658
1137.712, 35.27025
1138.194, 35.58165
1138.676, 35.51990
1139.158, 35.07951
1139.640, 34.75397
1140.122, 34.53298
1140.604, 34.52584
1141.086, 34.88568
1141.569, 35.27703
1142.051, 35.32656
1142.533, 35.17687
1143.015, 34.98003
1143.497, 34.64931
1143.979, 34.76171
1144.461, 35.47232
1144.943, 36.00788
1145.426, 35.81002
1145.908, 35.21514
1146.390, 34.58879
1146.872, 34.01246
1147.354, 33.64963
1147.836, 33.76062
1148.318, 33.77639
1148.800, 33.67969
1149.282, 33.49533
1149.765, 33.19235
1150.247, 32.83801
1150.729, 32.56839
1151.211, 32.38227
1151.693, 32.25297
1152.175, 32.23665
1152.657, 32.18402
1153.139, 32.06189
1153.621, 31.91210
1154.104, 31.72379
1154.586, 31.55302
1155.068, 31.69131
1155.550, 32.11250
1156.032, 32.33282
1156.514, 31.73041
1156.996, 31.40091
1157.478, 31.91627
1157.961, 32.65987
1158.443, 32.33366
1158.925, 31.18064
1159.407, 30.62540
1159.889, 30.88095
1160.371, 31.22948
1160.853, 31.37050
1161.335, 31.33408
1161.818, 30.99444
1162.300, 30.55321
1162.782, 30.69202
1163.264, 31.35279
1163.746, 31.81948
1164.228, 31.91846
1164.710, 31.92655
1165.192, 32.03344
1165.674, 32.13525
1166.156, 32.15585
1166.639, 32.10355
1167.121, 31.99310
1167.603, 31.82621
1168.085, 31.74690
1168.567, 31.82384
1169.049, 31.93212
1169.531, 32.08458
1170.013, 32.13242
1170.496, 31.82541
1170.978, 31.15911
1171.460, 30.84019
1171.942, 30.87241
1172.424, 31.17483
1172.906, 31.92493
1173.388, 32.55191
1173.870, 32.26925
1174.353, 31.61802
1174.835, 31.36466
1175.317, 31.67628
1175.799, 31.56069
1176.281, 30.93296
1176.763, 30.56700
1177.245, 31.18742
1177.727, 31.97812
1178.209, 31.96657
1178.692, 31.49239
1179.174, 31.11220
1179.656, 30.83874
1180.138, 30.85762
1180.620, 31.22366
1181.102, 31.60059
1181.584, 31.72925
1182.066, 31.74366
1182.548, 31.78571
1183.031, 31.85195
1183.513, 31.93051
1183.995, 31.99653
1184.477, 32.14558
1184.959, 32.41547
1185.441, 32.64215
1185.923, 32.66248
1186.405, 32.56456
1186.888, 32.38424
1187.370, 32.18538
1187.852, 32.19587
1188.334, 32.64195
1188.816, 32.86315
1189.298, 32.72369
1189.780, 32.60542
1190.262, 33.11786
1190.745, 33.78094
1191.227, 33.73582
1191.709, 33.09814
1192.191, 32.72545
1192.673, 32.90989
1193.155, 33.15326
1193.637, 33.42641
1194.119, 33.63955
1194.601, 33.59019
1195.084, 33.46140
1195.566, 33.55676
1196.048, 33.88500
1196.530, 34.27636
1197.012, 34.92633
1197.494, 35.14222
1197.976, 34.67945
1198.458, 34.00521
1198.941, 33.64491
1199.423, 33.58908
1199.905, 33.97527
1200.387, 34.79483
1200.869, 35.27425
1201.351, 35.06419
1201.833, 34.93490
1202.315, 35.12045
1202.797, 35.37201
1203.280, 35.20483
1203.762, 34.85445
1204.244, 34.75614
1204.726, 34.98803
1205.208, 35.16849
1205.690, 35.20710
1206.172, 35.24846
1206.654, 35.35753
1207.136, 35.45261
1207.619, 35.26448
1208.101, 35.00754
1208.583, 35.16845
1209.065, 35.93877
1209.547, 36.19755
1210.029, 35.49618
1210.511, 34.95543
1210.993, 35.03259
1211.476, 35.38841
1211.958, 35.31937
1212.440, 35.10046
1212.922, 35.30841
1213.404, 36.20420
1213.886, 36.71069
1214.368, 36.65690
1214.850, 36.36396
1215.333, 35.86369
1215.815, 35.35394
1216.297, 35.14517
1216.779, 35.20513
1217.261, 35.57057
1217.743, 36.46915
1218.225, 36.68860
1218.707, 35.86633
1219.189, 35.12498
1219.672, 34.97434
1220.154, 35.22590
1220.636, 35.71562
1221.118, 36.29087
1221.600, 36.68008
1222.082, 36.77804
1222.564, 36.78957
1223.046, 36.74501
1223.528, 36.54577
1224.011, 36.00412
1224.493, 35.44123
1224.975, 35.56392
1225.457, 36.01049
1225.939, 36.11846
1226.421, 35.49516
1226.903, 35.23902
1227.385, 35.44657
1227.868, 35.71238
1228.350, 35.85594
1228.832, 35.87683
1229.314, 35.67693
1229.796, 35.38680
1230.278, 35.22865
1230.760, 35.25874
1231.242, 35.43004
1231.724, 35.79535
1232.207, 36.05056
1232.689, 35.92010
1233.171, 35.68231
1233.653, 35.65011
1234.135, 35.77998
1234.617, 36.03913
1235.099, 36.57215
1235.581, 36.66125
1236.063, 36.23820
1236.546, 35.84318
1237.028, 35.80812
1237.510, 35.97483
1237.992, 36.34615
1238.474, 36.73975
1238.956, 36.79381
1239.438, 36.33905
1239.920, 36.28742
1240.403, 36.66877
1240.885, 37.04637
1241.367, 37.18156
1241.849, 37.14775
1242.331, 36.96149
1242.813, 36.66064
1243.295, 36.27738
1243.777, 35.75059
1244.260, 35.49435
1244.742, 35.50494
1245.224, 35.67060
1245.706, 36.11828
1246.188, 36.48490
1246.670, 36.45942
1247.152, 36.23830
1247.634, 36.10947
1248.116, 36.08318
1248.599, 35.91585
1249.081, 35.62917
1249.563, 35.54969
1250.045, 36.11658
1250.527, 36.66122
1251.009, 36.87905
1251.491, 36.84822
1251.973, 36.60860
1252.455, 36.17009
1252.938, 35.65175
1253.420, 35.09825
1253.902, 34.82410
1254.384, 35.35806
1254.866, 35.73934
1255.348, 35.36915
1255.830, 34.95445
1256.313, 35.24906
1256.795, 36.08811
1257.277, 36.40562
1257.759, 36.27318
1258.241, 36.10601
1258.723, 36.02439
1259.205, 36.02820
1259.687, 36.05386
1260.169, 36.24164
1260.651, 36.96120
1261.134, 37.89320
1261.616, 37.90340
1262.098, 37.19276
1262.580, 36.50047
1263.062, 35.99705
1263.544, 35.72042
1264.026, 35.73001
1264.508, 35.80967
1264.991, 35.80095
1265.473, 35.72715
1265.955, 35.51471
1266.437, 35.28352
1266.919, 35.35544
1267.401, 36.24698
1267.883, 36.59317
1268.365, 36.26492
1268.848, 35.82363
1269.330, 35.70923
1269.812, 35.72549
1270.294, 35.47584
1270.776, 35.19029
1271.258, 35.47179
1271.740, 36.75844
1272.222, 37.20848
1272.704, 36.71913
1273.187, 36.09245
1273.669, 35.79780
1274.151, 35.69293
1274.633, 35.47630
1275.115, 35.47306
1275.597, 36.42120
1276.079, 38.72436
1276.561, 38.71737
1277.043, 36.46360
1277.526, 34.38749
1278.008, 34.06394
1278.490, 34.26318
1278.972, 34.51135
1279.454, 34.75935
1279.936, 34.98580
1280.418, 35.18333
1280.900, 35.17169
1281.383, 34.98243
1281.865, 34.82227
1282.347, 34.88329
1282.829, 34.85065
1283.311, 34.42289
1283.793, 34.10141
1284.275, 34.44500
1284.757, 35.19284
1285.240, 35.18943
1285.722, 34.62416
1286.204, 34.10158
1286.686, 33.69473
1287.168, 33.69715
1287.650, 34.34498
1288.132, 34.86997
1288.614, 34.58374
1289.096, 33.92942
1289.578, 33.79937
1290.061, 34.00880
1290.543, 34.18542
1291.025, 34.24054
1291.507, 34.22663
1291.989, 34.11055
1292.471, 34.08937
1292.953, 34.41182
1293.435, 34.71235
1293.918, 34.40596
1294.400, 34.52034
1294.882, 33.69898
1295.364, 34.01389
1295.846, 33.80912
1296.328, 33.07022
1296.810, 32.71914
1297.292, 33.44782
1297.775, 34.23462
1298.257, 34.35784
1298.739, 34.09841
1299.221, 33.64571
1299.703, 33.05827
1300.185, 33.04675
1300.667, 33.51772
1301.149, 33.92591
1301.631, 34.08898
1302.114, 34.07955
1302.596, 33.94011
##END=



