##NAMES=Hauchecornite
##RRUFFID=R060851
##IDEAL CHEMISTRY=Ni_9_BiSbS_8_
##LOCALITY=Vermilion mine, Sudbury, Ontario, Canada
##OWNER=RRUFF
##SOURCE=Michael Scott
##DESCRIPTION=Bronze-yellow metallic massive
##STATUS=The identification of this mineral is not yet confirmed.
##URL=rruff.info/R060851
130.2055, 1005.421
130.6876, 1085.605
131.1698, 1184.120
131.6519, 1291.699
132.1340, 1404.529
132.6161, 1509.246
133.0982, 1580.112
133.5803, 1599.250
134.0625, 1614.464
134.5446, 1644.299
135.0267, 1666.580
135.5088, 1661.877
135.9909, 1622.296
136.4730, 1554.137
136.9552, 1470.099
137.4373, 1332.829
137.9194, 1232.079
138.4015, 1189.147
138.8836, 1179.381
139.3657, 1178.174
139.8479, 1173.811
140.3300, 1167.407
140.8121, 1162.972
141.2942, 1155.575
141.7763, 1156.216
142.2584, 1170.950
142.7406, 1193.517
143.2227, 1212.810
143.7048, 1221.662
144.1869, 1224.901
144.6690, 1253.033
145.1511, 1322.524
145.6333, 1397.095
146.1154, 1472.635
146.5975, 1547.949
147.0796, 1624.190
147.5617, 1703.087
148.0438, 1782.939
148.5260, 1841.494
149.0081, 1874.252
149.4902, 1896.016
149.9723, 1912.125
150.4544, 1921.325
150.9365, 1917.782
151.4187, 1895.376
151.9008, 1855.351
152.3829, 1828.115
152.8650, 1827.400
153.3471, 1823.918
153.8292, 1803.365
154.3114, 1767.819
154.7935, 1727.264
155.2756, 1688.343
155.7577, 1651.114
156.2398, 1613.376
156.7219, 1568.556
157.2041, 1528.735
157.6862, 1498.769
158.1683, 1479.480
158.6504, 1473.736
159.1325, 1486.785
159.6146, 1518.958
160.0968, 1544.612
160.5789, 1565.850
161.0610, 1579.092
161.5431, 1576.600
162.0252, 1559.426
162.5073, 1543.925
162.9895, 1543.956
163.4716, 1559.586
163.9537, 1573.104
164.4358, 1584.345
164.9179, 1593.066
165.4000, 1597.884
165.8822, 1598.739
166.3643, 1599.906
166.8464, 1607.626
167.3285, 1620.055
167.8106, 1622.087
168.2927, 1600.461
168.7749, 1574.506
169.2570, 1564.808
169.7391, 1573.703
170.2212, 1586.442
170.7033, 1592.704
171.1854, 1592.766
171.6676, 1587.902
172.1497, 1571.656
172.6318, 1553.878
173.1139, 1548.552
173.5960, 1558.369
174.0781, 1566.988
174.5603, 1556.228
175.0424, 1531.366
175.5245, 1513.897
176.0066, 1509.163
176.4887, 1513.750
176.9708, 1528.617
177.4530, 1557.278
177.9351, 1577.958
178.4172, 1560.624
178.8993, 1517.772
179.3814, 1489.301
179.8635, 1495.214
180.3457, 1517.377
180.8278, 1530.703
181.3099, 1532.366
181.7920, 1530.675
182.2741, 1535.041
182.7562, 1541.924
183.2384, 1540.494
183.7205, 1518.152
184.2026, 1488.893
184.6847, 1476.049
185.1668, 1484.601
185.6489, 1495.492
186.1311, 1489.978
186.6132, 1474.955
187.0953, 1466.466
187.5774, 1477.419
188.0595, 1495.382
188.5416, 1495.720
189.0238, 1470.868
189.5059, 1452.243
189.9880, 1482.518
190.4701, 1537.938
190.9522, 1565.311
191.4343, 1521.975
191.9165, 1448.804
192.3986, 1412.963
192.8807, 1421.930
193.3628, 1446.250
193.8449, 1476.151
194.3270, 1506.589
194.8092, 1525.671
195.2913, 1523.712
195.7734, 1510.204
196.2555, 1498.956
196.7376, 1489.445
197.2197, 1484.248
197.7019, 1487.957
198.1840, 1497.103
198.6661, 1506.287
199.1482, 1516.464
199.6303, 1524.656
200.1124, 1524.328
200.5946, 1513.139
201.0767, 1503.138
201.5588, 1503.616
202.0409, 1510.392
202.5230, 1517.786
203.0051, 1524.497
203.4873, 1530.788
203.9694, 1539.026
204.4515, 1550.883
204.9336, 1556.099
205.4157, 1539.833
205.8978, 1514.237
206.3800, 1498.398
206.8621, 1502.611
207.3442, 1514.002
207.8263, 1514.701
208.3084, 1502.867
208.7905, 1493.723
209.2727, 1499.869
209.7548, 1513.005
210.2369, 1520.654
210.7190, 1517.736
211.2011, 1511.182
211.6832, 1508.367
212.1654, 1509.524
212.6475, 1511.891
213.1296, 1516.856
213.6117, 1521.094
214.0938, 1518.450
214.5760, 1502.125
215.0581, 1487.143
215.5402, 1489.913
216.0223, 1510.676
216.5044, 1533.253
216.9865, 1553.376
217.4687, 1569.675
217.9508, 1580.430
218.4329, 1583.885
218.9150, 1584.672
219.3971, 1588.083
219.8792, 1593.655
220.3614, 1592.537
220.8435, 1573.887
221.3256, 1551.946
221.8077, 1548.773
222.2898, 1570.883
222.7719, 1596.486
223.2541, 1610.466
223.7362, 1614.376
224.2183, 1617.732
224.7004, 1624.636
225.1825, 1631.384
225.6646, 1632.960
226.1468, 1629.015
226.6289, 1621.593
227.1110, 1603.543
227.5931, 1581.037
228.0752, 1579.688
228.5573, 1616.119
229.0395, 1663.832
229.5216, 1683.328
230.0037, 1671.489
230.4858, 1659.447
230.9679, 1661.538
231.4500, 1673.390
231.9322, 1686.517
232.4143, 1701.237
232.8964, 1711.393
233.3785, 1704.332
233.8606, 1679.511
234.3427, 1661.458
234.8249, 1659.806
235.3070, 1669.314
235.7891, 1682.284
236.2712, 1697.815
236.7533, 1714.839
237.2354, 1733.391
237.7176, 1753.635
238.1997, 1769.953
238.6818, 1777.587
239.1639, 1782.541
239.6460, 1793.544
240.1281, 1812.165
240.6103, 1829.744
241.0924, 1836.651
241.5745, 1832.810
242.0566, 1833.057
242.5387, 1841.692
243.0208, 1852.781
243.5030, 1860.583
243.9851, 1865.003
244.4672, 1871.026
244.9493, 1883.689
245.4314, 1902.737
245.9135, 1916.265
246.3957, 1922.097
246.8778, 1924.528
247.3599, 1923.543
247.8420, 1920.518
248.3241, 1920.597
248.8062, 1927.151
249.2884, 1939.908
249.7705, 1955.214
250.2526, 1969.930
250.7347, 1989.860
251.2168, 2023.928
251.6989, 2065.342
252.1811, 2097.451
252.6632, 2110.193
253.1453, 2108.399
253.6274, 2112.205
254.1095, 2123.684
254.5916, 2137.349
255.0738, 2152.906
255.5559, 2169.775
256.0380, 2188.201
256.5201, 2208.519
257.0022, 2228.160
257.4843, 2241.131
257.9665, 2238.883
258.4486, 2240.650
258.9307, 2249.024
259.4128, 2260.683
259.8949, 2273.424
260.3770, 2286.377
260.8592, 2297.893
261.3413, 2305.314
261.8234, 2306.337
262.3055, 2307.511
262.7876, 2310.761
263.2697, 2312.860
263.7519, 2311.215
264.2340, 2305.680
264.7161, 2297.915
265.1982, 2289.148
265.6803, 2277.608
266.1624, 2272.443
266.6446, 2244.002
267.1267, 2246.812
267.6088, 2261.170
268.0909, 2320.585
268.5730, 2528.033
269.0551, 3027.649
269.5373, 3832.237
270.0194, 4291.128
270.5015, 4103.780
270.9836, 3832.990
271.4657, 3575.330
271.9478, 3336.763
272.4300, 3098.630
272.9121, 2841.815
273.3942, 2582.140
273.8763, 2384.939
274.3584, 2270.312
274.8405, 2198.216
275.3227, 2166.939
275.8048, 2164.022
276.2869, 2179.213
276.7690, 2210.405
277.2511, 2248.043
277.7332, 2269.039
278.2154, 2260.402
278.6975, 2272.307
279.1796, 2332.100
279.6617, 2407.889
280.1438, 2474.723
280.6259, 2526.457
281.1081, 2576.791
281.5902, 2640.742
282.0723, 2719.074
282.5544, 2803.566
283.0365, 2889.163
283.5186, 2984.680
284.0008, 3114.958
284.4829, 3276.531
284.9650, 3403.240
285.4471, 3430.760
285.9292, 3378.105
286.4113, 3338.307
286.8935, 3328.610
287.3756, 3321.327
287.8577, 3299.194
288.3398, 3262.729
288.8219, 3209.925
289.3040, 3136.822
289.7862, 3048.376
290.2683, 2946.668
290.7504, 2829.272
291.2325, 2715.761
291.7146, 2622.572
292.1967, 2544.583
292.6789, 2465.539
293.1610, 2376.229
293.6431, 2291.168
294.1252, 2225.439
294.6073, 2176.941
295.0894, 2128.771
295.5716, 2070.139
296.0537, 2006.818
296.5358, 1956.835
297.0179, 1922.994
297.5000, 1896.341
297.9821, 1874.551
298.4643, 1857.576
298.9464, 1845.612
299.4285, 1839.027
299.9106, 1836.582
300.3927, 1836.799
300.8748, 1843.714
301.3570, 1844.302
301.8391, 1833.165
302.3212, 1817.270
302.8033, 1801.719
303.2854, 1788.005
303.7675, 1777.768
304.2497, 1772.278
304.7318, 1770.561
305.2139, 1779.637
305.6960, 1810.322
306.1781, 1840.786
306.6602, 1854.541
307.1424, 1856.184
307.6245, 1864.496
308.1066, 1895.890
308.5887, 1948.906
309.0708, 1986.678
309.5529, 1996.445
310.0351, 2003.555
310.5172, 2008.353
310.9993, 2014.629
311.4814, 2028.271
311.9635, 2052.726
312.4456, 2082.819
312.9278, 2106.008
313.4099, 2122.948
313.8920, 2130.638
314.3741, 2127.209
314.8562, 2116.788
315.3383, 2101.404
315.8205, 2081.805
316.3026, 2060.282
316.7847, 2039.955
317.2668, 2021.331
317.7489, 1999.724
318.2310, 1978.212
318.7132, 1949.484
319.1953, 1902.608
319.6774, 1841.837
320.1595, 1788.260
320.6416, 1761.101
321.1237, 1752.788
321.6059, 1735.797
322.0880, 1703.755
322.5701, 1675.393
323.0522, 1667.308
323.5343, 1671.390
324.0164, 1672.102
324.4986, 1661.585
324.9807, 1648.541
325.4628, 1643.035
325.9449, 1644.852
326.4270, 1647.941
326.9091, 1651.639
327.3913, 1653.176
327.8734, 1646.424
328.3555, 1626.249
328.8376, 1607.867
329.3197, 1597.276
329.8018, 1593.408
330.2840, 1596.075
330.7661, 1606.440
331.2482, 1617.237
331.7303, 1616.271
332.2124, 1597.330
332.6945, 1586.764
333.1767, 1597.571
333.6588, 1609.892
334.1409, 1603.462
334.6230, 1578.775
335.1051, 1554.571
335.5873, 1547.839
336.0694, 1559.846
336.5515, 1568.434
337.0336, 1574.028
337.5157, 1576.347
337.9979, 1574.772
338.4800, 1569.924
338.9621, 1561.130
339.4442, 1547.349
339.9263, 1532.937
340.4084, 1532.262
340.8906, 1554.376
341.3727, 1575.838
341.8548, 1594.763
342.3369, 1611.441
342.8190, 1625.043
343.3011, 1635.744
343.7833, 1646.537
344.2654, 1663.786
344.7475, 1689.511
345.2296, 1703.700
345.7117, 1695.551
346.1938, 1684.449
346.6760, 1681.051
347.1581, 1683.871
347.6402, 1686.299
348.1223, 1686.719
348.6044, 1683.602
349.0865, 1670.599
349.5687, 1643.969
350.0508, 1620.265
350.5329, 1614.080
351.0150, 1615.690
351.4971, 1609.498
351.9792, 1590.878
352.4614, 1566.911
352.9435, 1534.237
353.4256, 1498.069
353.9077, 1486.607
354.3898, 1519.266
354.8719, 1566.694
355.3541, 1570.743
355.8362, 1521.912
356.3183, 1483.217
356.8004, 1474.661
357.2825, 1480.499
357.7646, 1486.367
358.2468, 1489.317
358.7289, 1487.542
359.2110, 1478.286
359.6931, 1460.453
360.1752, 1447.574
360.6573, 1444.362
361.1395, 1440.520
361.6216, 1430.509
362.1037, 1416.851
362.5858, 1404.149
363.0679, 1394.648
363.5500, 1389.177
364.0322, 1390.981
364.5143, 1407.530
364.9964, 1419.376
365.4785, 1421.374
365.9606, 1420.655
366.4427, 1424.875
366.9249, 1434.718
367.4070, 1442.039
367.8891, 1434.328
368.3712, 1410.039
368.8533, 1395.779
369.3354, 1396.925
369.8176, 1403.594
370.2997, 1415.067
370.7818, 1427.837
371.2639, 1433.078
371.7460, 1422.882
372.2281, 1405.129
372.7103, 1393.132
373.1924, 1387.591
373.6745, 1382.363
374.1566, 1372.902
374.6387, 1363.109
375.1208, 1359.593
375.6030, 1364.309
376.0851, 1371.202
376.5672, 1377.868
377.0493, 1384.366
377.5314, 1393.146
378.0135, 1405.942
378.4957, 1413.138
378.9778, 1400.315
379.4599, 1360.416
379.9420, 1333.859
380.4241, 1329.726
380.9063, 1331.812
381.3884, 1331.460
381.8705, 1328.155
382.3526, 1323.237
382.8347, 1317.189
383.3168, 1310.829
383.7990, 1308.825
384.2811, 1318.120
384.7632, 1323.254
385.2453, 1316.879
385.7274, 1308.758
386.2095, 1311.414
386.6917, 1327.316
387.1738, 1343.988
387.6559, 1342.186
388.1380, 1317.549
388.6201, 1302.607
389.1022, 1303.229
389.5844, 1309.867
390.0665, 1321.405
390.5486, 1335.369
391.0307, 1345.713
391.5128, 1349.871
391.9949, 1348.101
392.4771, 1337.329
392.9592, 1315.322
393.4413, 1301.173
393.9234, 1308.325
394.4055, 1326.560
394.8876, 1338.245
395.3698, 1341.441
395.8519, 1341.697
396.3340, 1342.640
396.8161, 1342.385
397.2982, 1334.833
397.7803, 1317.858
398.2625, 1302.267
398.7446, 1300.761
399.2267, 1316.540
399.7088, 1328.750
400.1909, 1340.278
400.6730, 1345.763
401.1552, 1338.927
401.6373, 1323.677
402.1194, 1308.817
402.6015, 1299.229
403.0836, 1294.140
403.5657, 1291.055
404.0479, 1288.050
404.5300, 1290.681
405.0121, 1309.080
405.4942, 1326.071
405.9763, 1324.518
406.4584, 1304.235
406.9406, 1282.915
407.4227, 1278.907
407.9048, 1291.464
408.3869, 1303.085
408.8690, 1315.250
409.3511, 1323.832
409.8333, 1326.241
410.3154, 1324.026
410.7975, 1319.273
411.2796, 1310.977
411.7617, 1302.756
412.2438, 1297.876
412.7260, 1296.249
413.2081, 1297.694
413.6902, 1302.961
414.1723, 1309.955
414.6544, 1316.456
415.1365, 1323.545
415.6187, 1325.213
416.1008, 1313.591
416.5829, 1300.526
417.0650, 1298.102
417.5471, 1305.996
418.0292, 1315.806
418.5114, 1322.226
418.9935, 1324.783
419.4756, 1319.052
419.9577, 1288.404
420.4398, 1269.332
420.9219, 1273.479
421.4041, 1288.390
421.8862, 1303.619
422.3683, 1315.354
422.8504, 1320.541
423.3325, 1310.786
423.8146, 1282.558
424.2968, 1269.638
424.7789, 1287.732
425.2610, 1304.713
425.7431, 1300.890
426.2252, 1283.838
426.7073, 1272.267
427.1895, 1277.278
427.6716, 1288.506
428.1537, 1289.958
428.6358, 1281.963
429.1179, 1279.882
429.6000, 1293.192
430.0822, 1311.374
430.5643, 1315.614
431.0464, 1302.857
431.5285, 1292.851
432.0106, 1297.266
432.4927, 1303.317
432.9749, 1293.543
433.4570, 1268.471
433.9391, 1246.073
434.4212, 1241.183
434.9033, 1252.295
435.3854, 1258.631
435.8676, 1251.050
436.3497, 1249.648
436.8318, 1265.703
437.3139, 1285.807
437.7960, 1294.764
438.2781, 1288.278
438.7603, 1274.535
439.2424, 1262.906
439.7245, 1253.388
440.2066, 1246.447
440.6887, 1245.105
441.1708, 1242.634
441.6530, 1232.479
442.1351, 1218.818
442.6172, 1211.397
443.0993, 1216.386
443.5814, 1226.295
444.0635, 1233.387
444.5457, 1237.679
445.0278, 1238.358
445.5099, 1232.677
445.9920, 1226.978
446.4741, 1234.500
446.9562, 1258.837
447.4384, 1274.398
447.9205, 1272.767
448.4026, 1263.874
448.8847, 1253.413
449.3668, 1243.045
449.8489, 1234.928
450.3311, 1230.153
450.8132, 1229.264
451.2953, 1235.624
451.7774, 1265.449
452.2595, 1279.060
452.7416, 1258.136
453.2238, 1229.866
453.7059, 1217.466
454.1880, 1224.457
454.6701, 1205.320
455.1522, 1245.100
455.6343, 1268.149
456.1165, 1275.367
456.5986, 1219.335
457.0807, 1244.976
457.5628, 1237.887
458.0449, 1229.455
458.5270, 1266.592
459.0092, 1219.759
459.4913, 1256.174
459.9734, 1259.357
460.4555, 1277.750
460.9376, 1263.209
461.4197, 1258.840
461.9019, 1287.415
462.3840, 1255.041
462.8661, 1256.664
463.3482, 1254.391
463.8303, 1244.291
464.3124, 1234.697
464.7946, 1224.069
465.2767, 1217.582
465.7588, 1227.091
466.2409, 1258.346
466.7230, 1296.673
467.2051, 1313.341
467.6873, 1302.635
468.1694, 1290.374
468.6515, 1273.055
469.1336, 1259.865
469.6157, 1260.155
470.0978, 1269.435
470.5800, 1272.094
471.0621, 1253.044
471.5442, 1228.572
472.0263, 1225.151
472.5084, 1242.182
472.9905, 1259.636
473.4727, 1270.639
473.9548, 1276.767
474.4369, 1281.507
474.9190, 1287.252
475.4011, 1283.568
475.8832, 1257.977
476.3654, 1229.926
476.8475, 1215.910
477.3296, 1215.647
477.8117, 1220.444
478.2938, 1224.815
478.7759, 1228.871
479.2581, 1233.888
479.7402, 1248.415
480.2223, 1249.051
480.7044, 1218.789
481.1865, 1185.644
481.6686, 1172.418
482.1508, 1180.266
482.6329, 1192.799
483.1150, 1197.351
483.5971, 1196.345
484.0792, 1197.550
484.5613, 1200.857
485.0435, 1207.610
485.5256, 1224.022
486.0077, 1241.768
486.4898, 1243.690
486.9719, 1223.817
487.4540, 1202.248
487.9362, 1181.812
488.4183, 1166.302
488.9004, 1162.178
489.3825, 1169.576
489.8646, 1181.729
490.3467, 1193.517
490.8289, 1204.825
491.3110, 1214.269
491.7931, 1225.144
492.2752, 1229.645
492.7573, 1220.007
493.2394, 1207.273
493.7216, 1204.353
494.2037, 1213.272
494.6858, 1222.469
495.1679, 1219.309
495.6500, 1205.746
496.1321, 1194.473
496.6143, 1185.179
497.0964, 1180.404
497.5785, 1184.699
498.0606, 1194.004
498.5427, 1200.295
499.0248, 1202.868
499.5070, 1202.405
499.9891, 1199.319
500.4712, 1193.360
500.9533, 1180.850
501.4355, 1161.976
501.9176, 1148.601
502.3997, 1154.023
502.8818, 1178.372
503.3639, 1190.900
503.8460, 1176.994
504.3282, 1168.059
504.8103, 1176.812
505.2924, 1189.889
505.7745, 1190.652
506.2566, 1175.384
506.7387, 1157.647
507.2209, 1151.396
507.7030, 1155.443
508.1851, 1161.673
508.6672, 1172.051
509.1493, 1178.093
509.6314, 1167.023
510.1136, 1149.391
510.5957, 1150.600
511.0778, 1189.610
511.5599, 1218.028
512.0420, 1201.422
512.5241, 1164.740
513.0062, 1146.404
513.4883, 1152.873
513.9705, 1164.050
514.4526, 1160.061
514.9347, 1141.220
515.4168, 1130.474
515.8989, 1133.576
516.3810, 1138.250
516.8632, 1140.020
517.3453, 1143.663
517.8274, 1159.639
518.3095, 1188.466
518.7916, 1208.775
519.2737, 1190.834
519.7559, 1145.836
520.2380, 1122.863
520.7201, 1128.018
521.2022, 1139.401
521.6843, 1146.994
522.1664, 1150.814
522.6486, 1151.589
523.1307, 1147.391
523.6128, 1143.810
524.0949, 1139.980
524.5770, 1139.167
525.0591, 1149.472
525.5413, 1169.155
526.0234, 1182.932
526.5055, 1176.736
526.9876, 1154.102
527.4697, 1141.644
527.9518, 1143.943
528.4340, 1149.116
528.9161, 1161.764
529.3982, 1171.554
529.8803, 1168.260
530.3624, 1151.536
530.8445, 1102.642
531.3267, 1139.781
531.8088, 1160.190
532.2909, 1164.766
532.7730, 1106.093
533.2551, 1129.094
533.7372, 1119.364
534.2194, 1108.291
534.7015, 1142.788
535.1836, 1093.314
535.6657, 1127.088
536.1478, 1127.631
536.6299, 1143.383
537.1121, 1126.201
537.5942, 1119.191
538.0763, 1145.126
538.5584, 1152.819
539.0405, 1131.846
539.5226, 1148.565
540.0048, 1097.941
540.4869, 1106.411
540.9690, 1098.881
541.4511, 1095.542
541.9332, 1106.954
542.4153, 1130.126
542.8975, 1149.146
543.3796, 1159.963
543.8617, 1162.865
544.3438, 1153.567
544.8259, 1136.038
545.3080, 1122.849
545.7902, 1118.441
546.2723, 1120.319
546.7544, 1126.270
547.2365, 1139.961
547.7186, 1142.254
548.2007, 1121.599
548.6829, 1103.270
549.1650, 1097.288
549.6471, 1098.952
550.1292, 1101.190
550.6113, 1101.542
551.0934, 1100.398
551.5756, 1095.563
552.0577, 1088.522
552.5398, 1091.325
553.0219, 1108.393
553.5040, 1125.359
553.9861, 1134.817
554.4683, 1135.605
554.9504, 1126.151
555.4325, 1089.825
555.9146, 1066.221
556.3967, 1078.257
556.8788, 1103.290
557.3610, 1116.029
557.8431, 1113.433
558.3252, 1108.054
558.8073, 1110.971
559.2894, 1120.041
559.7715, 1121.435
560.2537, 1110.026
560.7358, 1102.339
561.2179, 1104.803
561.7000, 1111.200
562.1821, 1119.552
562.6642, 1129.019
563.1464, 1132.226
563.6285, 1125.443
564.1106, 1110.676
564.5927, 1051.922
565.0748, 1089.961
565.5569, 1111.270
566.0391, 1116.746
566.5212, 1058.973
567.0033, 1082.873
567.4854, 1074.043
567.9675, 1063.870
568.4496, 1099.266
568.9318, 1050.692
569.4139, 1085.366
569.8960, 1086.808
570.3781, 1103.460
570.8602, 1087.178
571.3423, 1081.068
571.8245, 1107.902
572.3066, 1089.587
572.7887, 1092.653
573.2708, 1088.693
573.7529, 1085.524
574.2350, 1091.015
574.7172, 1102.339
575.1993, 1104.323
575.6814, 1090.267
576.1635, 1076.149
576.6456, 1063.545
577.1277, 1053.788
577.6099, 1047.396
578.0920, 1044.938
578.5741, 1048.513
579.0562, 1061.739
579.5383, 1080.191
580.0204, 1085.310
580.5026, 1071.548
580.9847, 1067.042
581.4668, 1088.397
581.9489, 1113.163
582.4310, 1117.899
582.9132, 1103.933
583.3953, 1091.313
583.8774, 1085.064
584.3596, 1082.651
584.8417, 1083.749
585.3238, 1086.999
585.8059, 1089.827
586.2880, 1091.296
586.7701, 1091.479
587.2523, 1090.387
587.7344, 1087.935
588.2165, 1084.896
588.6986, 1080.073
589.1807, 1076.307
589.6628, 1075.903
590.1450, 1076.328
590.6271, 1074.047
591.1092, 1068.089
591.5913, 1062.475
592.0734, 1060.082
592.5555, 1059.602
593.0377, 1057.878
593.5198, 1055.161
594.0019, 1056.872
594.4840, 1051.798
594.9661, 1070.897
595.4482, 1081.631
595.9304, 1084.449
596.4125, 1055.642
596.8946, 1067.672
597.3767, 1063.337
597.8588, 1058.330
598.3409, 1076.108
598.8231, 1051.901
599.3052, 1069.317
599.7873, 1070.118
600.2694, 1078.524
600.7515, 1070.463
601.2336, 1067.487
601.7158, 1080.984
602.1979, 1085.360
602.6800, 1075.404
603.1621, 1067.384
603.6442, 1067.802
604.1263, 1069.544
604.6085, 1069.613
605.0906, 1067.986
605.5727, 1064.260
606.0548, 1055.492
606.5369, 1043.656
607.0190, 1035.988
607.5012, 1038.015
607.9833, 1046.438
608.4654, 1057.284
608.9475, 1070.635
609.4296, 1073.838
609.9117, 1059.689
610.3939, 1042.223
610.8760, 1036.323
611.3581, 1042.243
611.8402, 1047.134
612.3223, 1052.074
612.8044, 1054.358
613.2866, 1049.698
613.7687, 1043.469
614.2508, 1042.595
614.7329, 1048.193
615.2150, 1056.113
615.6971, 1062.563
616.1793, 1068.138
616.6614, 1078.199
617.1435, 1095.990
617.6256, 1100.286
618.1077, 1075.168
618.5898, 1041.872
619.0720, 1030.263
619.5541, 1040.780
620.0362, 1049.145
620.5183, 1052.059
621.0004, 1051.115
621.4825, 1044.465
621.9647, 1035.348
622.4468, 1028.377
622.9289, 1025.211
623.4110, 1026.037
623.8931, 1032.737
624.3752, 1044.772
624.8574, 1051.919
625.3395, 1053.297
625.8216, 1052.151
626.3037, 1048.776
626.7858, 1044.164
627.2679, 1038.915
627.7501, 1032.388
628.2322, 1029.816
628.7143, 1038.565
629.1964, 1046.516
629.6785, 1040.153
630.1606, 1026.017
630.6428, 1021.728
631.1249, 1034.124
631.6070, 1050.736
632.0891, 1050.956
632.5712, 1033.342
633.0533, 1027.354
633.5355, 1038.199
634.0176, 1049.802
634.4997, 1052.523
634.9818, 1052.410
635.4639, 1060.095
635.9460, 1079.424
636.4282, 1091.340
636.9103, 1088.234
637.3924, 1076.224
637.8745, 1053.948
638.3566, 1027.532
638.8387, 1010.513
639.3209, 1009.123
639.8030, 1019.380
640.2851, 1039.043
640.7672, 1070.248
641.2493, 1085.421
641.7314, 1076.260
642.2136, 1065.676
642.6957, 1068.240
643.1778, 1075.675
643.6599, 1073.748
644.1420, 1057.763
644.6241, 1046.050
645.1063, 1049.026
645.5884, 1055.589
646.0705, 1056.451
646.5526, 1052.054
647.0347, 1045.911
647.5168, 1039.705
647.9990, 1033.677
648.4811, 1027.391
648.9632, 1020.445
649.4453, 1019.763
649.9274, 1031.033
650.4095, 1037.257
650.8917, 1018.599
651.3738, 992.6667
651.8559, 994.9552
652.3380, 1039.177
652.8201, 1073.358
653.3022, 1075.670
653.7844, 1066.984
654.2665, 1062.695
654.7486, 1062.755
655.2307, 1062.149
655.7128, 1058.476
656.1949, 1054.223
656.6771, 1055.621
657.1592, 1062.829
657.6413, 1057.717
658.1234, 1033.817
658.6055, 1012.228
659.0876, 1005.898
659.5698, 1008.747
660.0519, 1005.794
660.5340, 991.8834
661.0161, 987.8346
661.4982, 1008.232
661.9803, 1030.771
662.4625, 1041.304
662.9446, 1040.704
663.4267, 1030.618
663.9088, 1011.690
664.3909, 995.6448
664.8730, 1005.242
665.3552, 1035.957
665.8373, 1041.234
666.3194, 1012.370
666.8015, 989.8161
667.2836, 997.8400
667.7657, 1022.400
668.2479, 1033.658
668.7300, 1027.502
669.2121, 1022.522
669.6942, 1023.356
670.1763, 1022.505
670.6584, 1010.454
671.1406, 995.5061
671.6227, 994.7853
672.1048, 1013.587
672.5869, 1031.997
673.0690, 1025.277
673.5511, 1001.364
674.0333, 985.6315
674.5154, 978.9576
674.9975, 981.4964
675.4796, 996.1974
675.9617, 1014.828
676.4438, 1023.280
676.9260, 1018.869
677.4081, 1013.551
677.8902, 1001.756
678.3723, 995.4971
678.8544, 1001.906
679.3365, 1014.824
679.8187, 1029.265
680.3008, 1043.379
680.7829, 1049.739
681.2650, 1037.710
681.7471, 1016.975
682.2292, 1001.630
682.7114, 992.1699
683.1935, 989.2142
683.6756, 993.2435
684.1577, 1002.396
684.6398, 1015.823
685.1219, 1034.802
685.6041, 1042.343
686.0862, 1032.030
686.5683, 1019.098
687.0504, 998.3107
687.5325, 982.5092
688.0146, 989.3049
688.4968, 1017.159
688.9789, 1036.523
689.4610, 1027.292
689.9431, 1010.432
690.4252, 1002.756
690.9073, 1002.005
691.3895, 1003.504
691.8716, 1005.864
692.3537, 1008.512
692.8358, 1010.864
693.3179, 1013.031
693.8000, 1016.318
694.2822, 1022.249
694.7643, 1024.101
695.2464, 1016.071
695.7285, 1008.132
696.2106, 1012.997
696.6927, 1026.613
697.1749, 1029.208
697.6570, 1004.397
698.1391, 984.1703
698.6212, 985.4290
699.1033, 995.0844
699.5854, 999.7986
700.0676, 998.1497
700.5497, 994.2917
701.0318, 990.5079
701.5139, 987.2870
701.9960, 985.6757
702.4781, 985.6439
702.9603, 986.6053
703.4424, 989.2482
703.9245, 989.4639
704.4066, 981.7487
704.8887, 970.1130
705.3708, 970.1851
705.8530, 996.1315
706.3351, 1010.017
706.8172, 1003.537
707.2993, 975.3767
707.7814, 993.5313
708.2635, 1003.320
708.7457, 1005.193
709.2278, 975.4416
709.7099, 986.5269
710.1920, 981.2465
710.6741, 975.2952
711.1563, 992.1279
711.6384, 966.9759
712.1205, 983.4476
712.6026, 983.3038
713.0847, 990.7645
713.5668, 981.7586
714.0490, 977.8384
714.5311, 990.3904
715.0132, 993.8219
715.4953, 976.7465
715.9774, 981.0190
716.4595, 984.8853
716.9417, 983.6702
717.4238, 976.9373
717.9059, 969.5816
718.3880, 952.6868
718.8701, 946.1163
719.3522, 979.3522
719.8344, 1027.908
720.3165, 1046.783
720.7986, 1027.203
721.2807, 995.5576
721.7628, 972.9165
722.2449, 959.2549
722.7271, 958.8057
723.2092, 973.3081
723.6913, 976.4083
724.1734, 957.3177
724.6555, 936.1125
725.1376, 932.4583
725.6198, 944.4506
726.1019, 950.3188
726.5840, 943.7099
727.0661, 940.4202
727.5482, 946.1472
728.0303, 952.7141
728.5125, 951.5560
728.9946, 946.2114
729.4767, 949.1140
729.9588, 969.5745
730.4409, 985.7249
730.9230, 968.0672
731.4052, 934.1124
731.8873, 920.6484
732.3694, 929.2303
732.8515, 941.0314
733.3336, 946.2178
733.8157, 946.2838
734.2979, 942.9775
734.7800, 934.6037
735.2621, 932.2592
735.7442, 940.6354
736.2263, 946.8933
736.7084, 940.7851
737.1906, 932.3027
737.6727, 937.1155
738.1548, 958.0079
738.6369, 968.1788
739.1190, 947.7505
739.6011, 929.5691
740.0833, 939.5761
740.5654, 960.4340
741.0475, 964.6412
741.5296, 948.2661
742.0117, 929.8465
742.4938, 923.6046
742.9760, 925.9176
743.4581, 934.8228
743.9402, 947.9933
744.4223, 940.8853
744.9044, 904.8977
745.3865, 870.0197
745.8687, 862.2438
746.3508, 877.6455
746.8329, 895.3710
747.3150, 922.7566
747.7971, 938.6055
748.2792, 933.5115
748.7614, 924.5099
749.2435, 918.7997
749.7256, 915.7797
750.2077, 914.2739
750.6898, 915.9084
751.1719, 912.5701
751.6541, 893.6699
752.1362, 873.0220
752.6183, 862.3948
753.1004, 862.3033
753.5825, 875.0369
754.0646, 900.6691
754.5468, 923.1162
755.0289, 917.9688
755.5110, 891.1660
755.9931, 875.0016
756.4752, 869.7078
756.9573, 873.6003
757.4395, 889.2805
757.9216, 906.2582
758.4037, 911.7963
758.8858, 905.5885
759.3679, 899.7681
759.8500, 894.0244
760.3322, 889.1429
760.8143, 882.7189
761.2964, 879.3099
761.7785, 887.1124
762.2606, 901.4015
762.7427, 904.8563
763.2249, 884.9368
763.7070, 865.9663
764.1891, 869.9514
764.6712, 864.1959
765.1533, 878.6069
765.6354, 884.6529
766.1176, 882.7812
766.5997, 849.2864
767.0818, 856.6281
767.5639, 847.6040
768.0460, 837.9089
768.5281, 850.9987
769.0103, 822.1018
769.4924, 834.8302
769.9745, 830.9427
770.4566, 870.0777
770.9387, 881.6946
771.4208, 858.5930
771.9030, 845.4950
772.3851, 851.7832
772.8672, 855.7525
773.3493, 848.3425
773.8314, 840.3892
774.3135, 845.4454
774.7957, 860.3119
775.2778, 865.3790
775.7599, 848.0649
776.2420, 826.4031
776.7241, 803.7360
777.2062, 789.2064
777.6884, 802.9359
778.1705, 839.4210
778.6526, 871.4833
779.1347, 884.4194
779.6168, 882.2166
780.0989, 863.5137
780.5811, 831.8820
781.0632, 826.1263
781.5453, 852.1682
782.0274, 869.8998
782.5095, 859.2312
782.9916, 834.8726
783.4738, 818.6134
783.9559, 810.9611
784.4380, 808.1397
784.9201, 814.6013
785.4022, 820.0470
785.8843, 819.4085
786.3665, 819.1891
786.8486, 825.5142
787.3307, 837.8170
787.8128, 851.0642
788.2949, 870.3524
788.7770, 881.1189
789.2592, 868.5369
789.7413, 847.7088
790.2234, 833.5411
790.7055, 827.8331
791.1876, 830.3113
791.6697, 841.7437
792.1519, 852.0230
792.6340, 842.2654
793.1161, 820.1146
793.5982, 818.2206
794.0803, 837.4971
794.5624, 848.4290
795.0446, 837.5873
795.5267, 818.1335
796.0088, 791.9147
796.4909, 809.8502
796.9730, 819.4202
797.4551, 821.0745
797.9373, 791.1034
798.4194, 801.9698
798.9015, 796.4703
799.3836, 790.2999
799.8657, 806.9138
800.3478, 781.5428
800.8300, 797.7951
801.3121, 797.4324
801.7942, 804.6740
802.2763, 795.4489
802.7584, 791.3098
803.2405, 803.6429
803.7227, 806.8549
804.2048, 795.7343
804.6869, 803.4593
805.1690, 777.5130
805.6511, 781.1137
806.1332, 797.4628
806.6154, 787.1697
807.0975, 775.1580
807.5796, 784.9473
808.0617, 802.4044
808.5438, 820.6193
809.0259, 836.9130
809.5081, 834.6323
809.9902, 809.8402
810.4723, 797.8755
810.9544, 809.7686
811.4365, 823.8054
811.9186, 823.8948
812.4008, 813.3036
812.8829, 803.1564
813.3650, 789.8059
813.8471, 784.0109
814.3292, 789.6198
814.8113, 798.2108
815.2935, 812.3640
815.7756, 824.3317
816.2577, 820.5987
816.7398, 799.1949
817.2219, 784.5659
817.7040, 794.5683
818.1862, 806.1965
818.6683, 803.3756
819.1504, 792.4113
819.6325, 777.6182
820.1146, 763.5812
820.5967, 763.9906
821.0789, 791.3469
821.5610, 826.0234
822.0431, 841.1942
822.5252, 839.5028
823.0073, 824.9825
823.4894, 799.3389
823.9716, 780.0201
824.4537, 776.2401
824.9358, 780.2873
825.4179, 778.1926
825.9000, 769.0847
826.3821, 778.6530
826.8643, 818.4201
827.3464, 840.6428
827.8285, 821.7358
828.3106, 792.9022
828.7927, 788.4498
829.2748, 805.7530
829.7570, 807.6983
830.2391, 772.4822
830.7212, 754.0882
831.2033, 776.8958
831.6854, 800.0610
832.1675, 780.3701
832.6497, 798.6846
833.1318, 808.6342
833.6139, 810.6676
834.0960, 781.0762
834.5781, 792.3218
835.0602, 787.2018
835.5424, 781.4105
836.0245, 798.4038
836.5066, 773.4122
836.9887, 790.0441
837.4708, 790.0606
837.9529, 797.6816
838.4351, 788.8357
838.9172, 785.0761
839.3993, 797.7884
839.8814, 801.3801
840.3635, 790.6387
840.8456, 772.3853
841.3278, 771.4968
841.8099, 775.0858
842.2920, 777.5468
842.7741, 778.7689
843.2562, 780.6478
843.7383, 783.6833
844.2205, 785.4217
844.7026, 784.2452
845.1847, 782.7267
845.6668, 784.7455
846.1489, 790.0391
846.6310, 789.6114
847.1132, 773.2778
847.5953, 765.9346
848.0774, 779.9390
848.5595, 792.8615
849.0416, 787.5496
849.5237, 772.4821
850.0059, 765.8223
850.4880, 772.0074
850.9701, 779.8492
851.4522, 790.0718
851.9343, 795.8262
852.4164, 789.4708
852.8986, 777.2058
853.3807, 765.8969
853.8628, 758.0027
854.3449, 757.1450
854.8270, 769.4429
855.3091, 783.1971
855.7913, 785.1613
856.2734, 778.6119
856.7555, 766.1287
857.2376, 750.7336
857.7197, 744.8556
858.2018, 755.0111
858.6840, 769.4394
859.1661, 767.6125
859.6482, 753.6465
860.1303, 756.8170
860.6124, 777.5692
861.0945, 799.4539
861.5767, 819.8478
862.0588, 827.1119
862.5409, 805.8987
863.0230, 764.4741
863.5051, 748.0377
863.9872, 764.7164
864.4694, 782.7621
864.9515, 807.0106
865.4336, 819.9770
865.9157, 804.8198
866.3978, 776.5379
866.8799, 763.3485
867.3621, 768.7465
867.8442, 768.3840
868.3263, 750.4971
868.8084, 740.6946
869.2905, 754.9257
869.7726, 773.3821
870.2548, 777.9570
870.7369, 770.4866
871.2190, 763.0457
871.7011, 758.4360
872.1832, 755.8492
872.6653, 759.3221
873.1475, 760.7516
873.6296, 749.7770
874.1117, 732.3553
874.5938, 718.6248
875.0759, 711.9393
875.5580, 713.8331
876.0402, 734.7043
876.5223, 740.6198
877.0044, 758.5361
877.4865, 768.0871
877.9686, 769.7221
878.4507, 739.7323
878.9329, 750.5792
879.4150, 745.0608
879.8971, 738.8712
880.3792, 755.4659
880.8613, 730.0758
881.3434, 746.3094
881.8256, 745.9272
882.3077, 753.1498
882.7898, 743.9056
883.2719, 739.7475
883.7540, 752.0613
884.2361, 755.2546
884.7183, 744.1146
885.2004, 751.8206
885.6825, 725.8553
886.1646, 729.4370
886.6467, 745.7668
887.1288, 735.4551
887.6110, 743.4617
888.0931, 744.4921
888.5752, 713.8156
889.0573, 738.2802
889.5394, 738.8980
890.0215, 741.2151
890.5037, 750.3336
890.9858, 752.4545
891.4679, 743.3495
891.9500, 727.3354
892.4321, 719.9365
892.9142, 723.7702
893.3964, 734.7880
893.8785, 767.3391
894.3606, 790.6885
894.8427, 777.0054
895.3248, 748.1951
895.8069, 735.2355
896.2891, 742.5640
896.7712, 753.8652
897.2533, 770.6224
897.7354, 778.5939
898.2175, 754.9085
898.6996, 727.0571
899.1818, 735.0457
899.6639, 767.9280
900.1460, 782.2283
900.6281, 760.0289
901.1102, 734.3560
901.5923, 741.5813
902.0745, 759.3906
902.5566, 751.4698
903.0387, 727.4636
903.5208, 714.0333
904.0029, 716.2756
904.4850, 722.7661
904.9672, 725.9904
905.4493, 726.6359
905.9314, 725.2624
906.4135, 722.2932
906.8956, 716.9731
907.3777, 710.1870
907.8599, 716.5302
908.3420, 742.5416
908.8241, 765.5986
909.3062, 756.9648
909.7883, 724.8952
910.2704, 713.2858
910.7526, 723.9244
911.2347, 730.7404
911.7169, 727.8932
912.1990, 732.0569
912.6811, 756.7064
913.1632, 787.6882
913.6453, 799.1533
914.1274, 790.2603
914.6096, 764.6369
915.0917, 705.3695
915.5738, 671.1345
916.0559, 684.3237
916.5380, 716.1808
917.0201, 753.1046
917.5023, 788.4671
917.9844, 792.6961
918.4665, 740.1296
918.9486, 707.5692
919.4307, 710.1027
919.9128, 714.1903
920.3950, 704.2992
920.8771, 693.2958
921.3592, 698.3051
921.8413, 718.1318
922.3234, 730.5338
922.8055, 725.1381
923.2877, 722.4855
923.7698, 729.3718
924.2519, 737.8566
924.7340, 743.4935
925.2161, 746.8536
925.6982, 749.5546
926.1804, 751.8884
926.6625, 752.8947
927.1446, 750.5654
927.6267, 748.7474
928.1088, 752.6179
928.5909, 755.6909
929.0731, 748.0435
929.5552, 733.5745
930.0373, 725.7850
930.5194, 730.3793
931.0015, 734.6929
931.4836, 728.6125
931.9658, 719.6891
932.4479, 712.8734
932.9300, 709.5202
933.4121, 713.7800
933.8942, 724.0758
934.3763, 730.3165
934.8585, 725.4642
935.3406, 719.3372
935.8227, 728.8736
936.3048, 740.4435
936.7869, 722.0351
937.2690, 686.1677
937.7512, 678.6141
938.2333, 709.5627
938.7154, 739.1628
939.1975, 731.2455
939.6796, 707.1889
940.1617, 705.4709
940.6439, 718.5758
941.1260, 722.6268
941.6081, 716.7412
942.0902, 713.3069
942.5723, 717.6675
943.0544, 724.9052
943.5366, 729.8610
944.0187, 732.6542
944.5008, 735.0708
944.9829, 736.3929
945.4650, 725.7117
945.9471, 701.4521
946.4293, 688.1218
946.9114, 700.9617
947.3935, 725.7707
947.8756, 739.4199
948.3577, 742.5486
948.8398, 744.5372
949.3220, 745.7216
949.8041, 738.1578
950.2862, 717.9455
950.7683, 701.4709
951.2504, 701.6528
951.7325, 712.7926
952.2147, 722.8013
952.6968, 733.3276
953.1789, 726.5735
953.6610, 695.7290
954.1431, 677.0400
954.6252, 684.4529
955.1074, 700.6548
955.5895, 709.9897
956.0716, 714.3021
956.5537, 723.0414
957.0358, 741.4232
957.5179, 745.1824
958.0001, 724.1126
958.4822, 711.3325
958.9643, 726.4525
959.4464, 746.0372
959.9285, 739.5872
960.4106, 710.3856
960.8928, 700.1268
961.3749, 720.6865
961.8570, 734.6581
962.3391, 737.2936
962.8212, 736.5250
963.3033, 736.7701
963.7855, 734.9974
964.2676, 724.2872
964.7497, 703.7758
965.2318, 694.7347
965.7139, 701.5593
966.1960, 713.1400
966.6782, 743.5591
967.1603, 762.3223
967.6424, 741.5286
968.1245, 703.5887
968.6066, 686.9325
969.0887, 695.5308
969.5709, 700.0883
970.0530, 695.2524
970.5351, 660.8906
971.0172, 698.9583
971.4993, 720.2950
971.9814, 725.8000
972.4636, 668.0551
972.9457, 691.9843
973.4278, 683.1822
973.9099, 673.0380
974.3920, 708.4624
974.8741, 659.9171
975.3563, 694.6188
975.8384, 696.0900
976.3205, 712.7699
976.8026, 696.5165
977.2847, 690.4351
977.7668, 717.2977
978.2490, 725.9189
978.7311, 705.8743
979.2132, 693.6044
979.6953, 705.9766
980.1774, 716.7991
980.6595, 714.3911
981.1417, 702.5522
981.6238, 695.5452
982.1059, 697.1434
982.5880, 701.1441
983.0701, 711.1419
983.5522, 716.8308
984.0344, 707.1699
984.5165, 694.5931
984.9986, 695.0350
985.4807, 705.9273
985.9628, 711.0050
986.4449, 703.3896
986.9271, 696.5355
987.4092, 677.0400
987.8913, 699.8907
988.3734, 712.7029
988.8555, 716.0159
989.3376, 681.3791
989.8198, 695.7467
990.3019, 690.4755
990.7840, 684.3991
991.2661, 705.6639
991.7482, 676.5468
992.2303, 697.3780
992.7125, 698.2707
993.1946, 708.2888
993.6767, 698.5468
994.1588, 694.9081
994.6409, 711.0358
995.1230, 716.2186
995.6052, 704.2020
996.0873, 714.8001
996.5694, 684.9927
997.0515, 690.6418
997.5336, 711.5886
998.0157, 700.5655
998.4979, 711.5249
998.9800, 714.1122
999.4621, 695.4308
999.9442, 696.5015
1000.426, 685.3849
1000.908, 675.0731
1001.391, 679.1315
1001.873, 688.8503
1002.355, 686.1024
1002.837, 671.6194
1003.319, 672.4073
1003.801, 716.9164
1004.283, 747.5690
1004.765, 723.4503
1005.247, 688.4662
1005.730, 674.7963
1006.212, 674.9681
1006.694, 672.5273
1007.176, 666.0039
1007.658, 668.1188
1008.140, 693.0724
1008.622, 712.4664
1009.104, 711.0588
1009.587, 701.1072
1010.069, 684.6749
1010.551, 669.8486
1011.033, 671.2720
1011.515, 688.4675
1011.997, 698.8290
1012.479, 689.1768
1012.961, 678.3492
1013.443, 670.9832
1013.926, 668.9719
1014.408, 680.0471
1014.890, 694.1592
1015.372, 692.2891
1015.854, 674.6965
1016.336, 668.5701
1016.818, 696.4428
1017.300, 716.2203
1017.783, 705.6937
1018.265, 659.2913
1018.747, 696.0615
1019.229, 716.1009
1019.711, 720.3085
1020.193, 661.2662
1020.675, 683.8979
1021.157, 673.7985
1021.639, 662.3568
1022.122, 696.4808
1022.604, 646.6381
1023.086, 680.0425
1023.568, 680.2161
1024.050, 695.5985
1024.532, 678.0479
1025.014, 670.6689
1025.496, 696.2343
1025.979, 703.5551
1026.461, 682.2129
1026.943, 698.5624
1027.425, 647.5691
1027.907, 655.6701
1028.389, 689.2672
1028.871, 669.5812
1029.353, 686.5325
1029.835, 682.4454
1030.318, 698.5782
1030.800, 689.0672
1031.282, 674.5590
1031.764, 661.7575
1032.246, 651.4005
1032.728, 641.4682
1033.210, 633.4418
1033.692, 637.3730
1034.174, 665.8976
1034.657, 684.5979
1035.139, 686.2174
1035.621, 682.2104
1036.103, 672.4737
1036.585, 662.5400
1037.067, 656.6800
1037.549, 655.2460
1038.031, 660.2064
1038.514, 683.1591
1038.996, 688.6799
1039.478, 651.4298
1039.960, 631.6221
1040.442, 667.8481
1040.924, 707.2078
1041.406, 693.8551
1041.888, 646.7354
1042.370, 637.1853
1042.853, 683.4466
1043.335, 714.2284
1043.817, 728.4028
1044.299, 727.8519
1044.781, 702.7715
1045.263, 678.5574
1045.745, 678.6309
1046.227, 692.2744
1046.709, 687.9987
1047.192, 658.1761
1047.674, 654.0723
1048.156, 691.4689
1048.638, 707.0023
1049.120, 675.8275
1049.602, 646.2675
1050.084, 654.7669
1050.566, 681.8106
1051.049, 685.6226
1051.531, 664.8543
1052.013, 653.6554
1052.495, 653.1047
1052.977, 656.8760
1053.459, 664.8752
1053.941, 672.9666
1054.423, 680.3727
1054.906, 680.1760
1055.388, 655.5760
1055.870, 612.5528
1056.352, 614.9955
1056.834, 664.1599
1057.316, 678.9078
1057.798, 645.8595
1058.280, 624.2921
1058.762, 644.1981
1059.245, 676.1450
1059.727, 685.0117
1060.209, 675.4548
1060.691, 659.6163
1061.173, 639.3677
1061.655, 626.0359
1062.137, 620.9114
1062.619, 626.3239
1063.101, 642.8282
1063.584, 658.2388
1064.066, 660.5898
1064.548, 655.6059
1065.030, 652.1589
1065.512, 651.0776
1065.994, 657.3334
1066.476, 668.3203
1066.958, 673.4514
1067.441, 669.9660
1067.923, 662.2159
1068.405, 651.9238
1068.887, 643.2265
1069.369, 642.3501
1069.851, 645.6481
1070.333, 649.6741
1070.815, 652.4255
1071.297, 648.3514
1071.780, 638.5283
1072.262, 633.3429
1072.744, 639.3290
1073.226, 643.5776
1073.708, 633.6669
1074.190, 619.1165
1074.672, 602.5185
1075.154, 591.2674
1075.636, 599.4983
1076.119, 621.7017
1076.601, 637.6398
1077.083, 640.4101
1077.565, 640.0681
1078.047, 636.9735
1078.529, 637.7547
1079.011, 651.5318
1079.494, 666.0541
1079.976, 667.2917
1080.458, 661.3888
1080.940, 665.3651
1081.422, 682.6472
1081.904, 687.3592
1082.386, 638.9775
1082.868, 660.9682
1083.350, 672.9207
1083.833, 675.3719
1084.315, 639.8753
1084.797, 653.3830
1085.279, 647.2519
1085.761, 640.3158
1086.243, 660.7206
1086.725, 630.7439
1087.207, 650.7152
1087.689, 650.7483
1088.172, 659.9046
1088.654, 649.3027
1089.136, 644.8044
1089.618, 660.0722
1090.100, 664.3954
1090.582, 643.0897
1091.064, 621.5299
1091.546, 619.1485
1092.029, 642.0598
1092.511, 658.0294
1092.993, 657.6948
1093.475, 653.4252
1093.957, 654.0531
1094.439, 656.3120
1094.921, 653.5067
1095.403, 646.2208
1095.885, 641.8963
1096.368, 640.2050
1096.850, 632.8988
1097.332, 618.9730
1097.814, 606.5594
1098.296, 599.4213
1098.778, 601.9716
1099.260, 624.0404
1099.742, 653.4256
1100.224, 663.1512
1100.707, 657.0289
1101.189, 639.4553
1101.671, 616.3486
1102.153, 606.4744
1102.635, 614.4518
1103.117, 627.2246
1103.599, 637.7789
1104.081, 643.4498
1104.564, 634.9359
1105.046, 625.2529
1105.528, 635.8433
1106.010, 654.7395
1106.492, 660.7162
1106.974, 651.7065
1107.456, 635.7292
1107.938, 613.7836
1108.421, 596.1541
1108.903, 580.7666
1109.385, 580.2882
1109.867, 625.5412
1110.349, 669.2422
1110.831, 655.9791
1111.313, 607.6288
1111.795, 579.2578
1112.277, 579.5889
1112.760, 589.0211
1113.242, 611.3651
1113.724, 632.2797
1114.206, 659.1609
1114.688, 671.7755
1115.170, 648.3050
1115.652, 615.3870
1116.134, 604.4561
1116.616, 613.9728
1117.099, 633.6378
1117.581, 676.4688
1118.063, 684.3959
1118.545, 643.0323
1119.027, 607.1116
1119.509, 591.1210
1119.991, 594.8831
1120.473, 622.6459
1120.956, 659.4414
1121.438, 668.5242
1121.920, 652.6511
1122.402, 655.9932
1122.884, 676.8126
1123.366, 688.9912
1123.848, 688.1833
1124.330, 681.2697
1124.813, 671.6137
1125.295, 661.6178
1125.777, 653.2535
1126.259, 647.2128
1126.741, 646.5310
1127.223, 648.2523
1127.705, 648.5006
1128.187, 645.1332
1128.669, 628.2677
1129.151, 599.9589
1129.634, 588.1003
1130.116, 614.1318
1130.598, 644.2444
1131.080, 656.2742
1131.562, 658.6445
1132.044, 654.0215
1132.526, 647.1525
1133.008, 643.9760
1133.491, 643.3507
1133.973, 637.7534
1134.455, 622.8744
1134.937, 621.2980
1135.419, 660.5178
1135.901, 682.2780
1136.383, 651.5188
1136.865, 619.6946
1137.348, 624.0066
1137.830, 642.0146
1138.312, 641.8633
1138.794, 625.7134
1139.276, 621.7428
1139.758, 637.4342
1140.240, 640.3095
1140.722, 624.9080
1141.204, 612.1080
1141.687, 608.9061
1142.169, 608.1492
1142.651, 603.6295
1143.133, 599.2406
1143.615, 606.0309
1144.097, 621.0275
1144.579, 616.7941
1145.061, 598.0532
1145.543, 605.4628
1146.026, 638.5792
1146.508, 638.8613
1146.990, 582.6852
1147.472, 533.1742
1147.954, 555.4064
1148.436, 603.7379
1148.918, 623.3700
1149.400, 626.6010
1149.883, 626.9609
1150.365, 626.8766
1150.847, 628.1248
1151.329, 630.6401
1151.811, 632.5812
1152.293, 633.3273
1152.775, 633.1132
1153.257, 633.6436
1153.740, 631.2151
1154.222, 624.0460
1154.704, 613.0497
1155.186, 590.8012
1155.668, 568.2764
1156.150, 573.4133
1156.632, 610.8611
1157.114, 621.3962
1157.596, 583.0700
1158.078, 566.2327
1158.561, 585.0102
1159.043, 603.4459
1159.525, 607.8607
1160.007, 608.4195
1160.489, 615.3723
1160.971, 623.7322
1161.453, 620.0637
1161.935, 604.9326
1162.418, 583.2677
1162.900, 557.0465
1163.382, 548.8620
1163.864, 561.1174
1164.346, 576.4379
1164.828, 586.7518
1165.310, 595.6194
1165.792, 607.6079
1166.275, 618.5652
1166.757, 621.3205
1167.239, 620.5269
1167.721, 626.2037
1168.203, 632.4227
1168.685, 623.7871
1169.167, 601.6049
1169.649, 584.2592
1170.131, 578.6179
1170.614, 578.1638
1171.096, 578.5554
1171.578, 585.8033
1172.060, 616.9509
1172.542, 641.7830
1173.024, 628.6249
1173.506, 596.9669
1173.988, 582.6765
1174.470, 585.5742
1174.953, 592.4604
1175.435, 608.4991
1175.917, 610.6671
1176.399, 591.7222
1176.881, 583.9901
1177.363, 601.1421
1177.845, 613.1492
1178.327, 594.3941
1178.810, 565.2630
1179.292, 565.7809
1179.774, 588.7838
1180.256, 610.4000
1180.738, 627.1636
1181.220, 618.1785
1181.702, 589.7029
1182.184, 580.6015
1182.667, 601.6295
1183.149, 619.3381
1183.631, 608.4081
1184.113, 591.3806
1184.595, 583.6804
1185.077, 581.8990
1185.559, 583.2100
1186.041, 588.4642
1186.523, 601.9827
1187.005, 620.1494
1187.488, 633.1005
1187.970, 639.2288
1188.452, 639.8893
1188.934, 636.2814
1189.416, 624.4393
1189.898, 589.1400
1190.380, 572.3627
1190.862, 580.0776
1191.345, 608.2293
1191.827, 623.8337
1192.309, 627.5645
1192.791, 583.8576
1193.273, 601.4065
1193.755, 594.4068
1194.237, 586.4005
1194.719, 612.5707
1195.202, 575.7626
1195.684, 601.3909
1196.166, 602.0961
1196.648, 614.2080
1197.130, 601.6198
1197.612, 596.6606
1198.094, 616.4095
1198.576, 622.4773
1199.058, 607.0458
1199.541, 619.8817
1200.023, 582.2118
1200.505, 588.8623
1200.987, 614.6351
1201.469, 600.4456
1201.951, 613.7340
1202.433, 616.5574
1202.915, 571.8207
1203.397, 609.7957
1203.880, 611.9995
1204.362, 577.4763
1204.844, 612.6173
1205.326, 583.1575
1205.808, 576.7562
1206.290, 587.7079
1206.772, 580.5698
1207.254, 601.9523
1207.737, 595.8577
1208.219, 587.3094
1208.701, 589.4742
1209.183, 561.2812
1209.665, 583.0970
1210.147, 581.1757
1210.629, 597.9819
1211.111, 618.6184
1211.594, 627.5215
1212.076, 625.9180
1212.558, 608.8709
1213.040, 586.1285
1213.522, 568.5768
1214.004, 560.5093
1214.486, 572.7090
1214.968, 613.9355
1215.450, 634.4095
1215.932, 611.3812
1216.415, 582.5935
1216.897, 540.1125
1217.379, 516.1699
1217.861, 533.3332
1218.343, 561.6832
1218.825, 570.4305
1219.307, 566.4067
1219.789, 572.5998
1220.272, 588.5310
1220.754, 582.2622
1221.236, 557.0177
1221.718, 552.2428
1222.200, 570.3289
1222.682, 577.3102
1223.164, 560.7156
1223.646, 547.4584
1224.129, 560.9346
1224.611, 581.0698
1225.093, 592.7631
1225.575, 596.1887
1226.057, 582.6563
1226.539, 567.5710
1227.021, 579.1340
1227.503, 604.0141
1227.985, 598.8801
1228.468, 554.0820
1228.950, 525.4485
1229.432, 525.4178
1229.914, 528.1167
1230.396, 532.5931
1230.878, 538.9706
1231.360, 548.4238
1231.842, 556.6198
1232.324, 560.3834
1232.807, 559.8615
1233.289, 552.3441
1233.771, 542.1636
1234.253, 554.3315
##END=



