##NAMES=Hellandite-(Ce)
##RRUFFID=R061013
##IDEAL CHEMISTRY=(Ca,REE)_4_Ce_2_Al[box]_2_(B_4_Si_4_O_22_)(OH)_2_
##LOCALITY=Campo Pefella, near Capranica, Viterbo, Latium, Italy
##OWNER=RRUFF
##SOURCE=Michael Scott
##DESCRIPTION=Pale yellow platy crystals
##STATUS=The identification of this mineral is not yet confirmed.
##URL=rruff.info/R061013
170.6980, 7042.192
171.1801, 7010.260
171.6622, 6989.539
172.1444, 6979.616
172.6265, 6979.833
173.1086, 7000.087
173.5907, 7025.377
174.0728, 7038.317
174.5549, 7036.658
175.0371, 7032.408
175.5192, 7037.411
176.0013, 7048.633
176.4834, 7058.178
176.9655, 7056.479
177.4476, 7051.734
177.9298, 7057.461
178.4119, 7077.020
178.8940, 7102.190
179.3761, 7128.628
179.8582, 7154.611
180.3403, 7172.860
180.8224, 7171.007
181.3046, 7157.829
181.7867, 7154.268
182.2688, 7165.741
182.7509, 7185.767
183.2330, 7206.899
183.7151, 7228.528
184.1973, 7247.209
184.6794, 7259.122
185.1615, 7265.290
185.6436, 7268.641
186.1257, 7266.516
186.6078, 7263.941
187.0900, 7275.503
187.5721, 7302.059
188.0542, 7330.375
188.5363, 7344.161
189.0184, 7345.873
189.5005, 7356.471
189.9827, 7388.042
190.4648, 7433.805
190.9469, 7466.214
191.4290, 7482.559
191.9111, 7495.652
192.3932, 7518.674
192.8754, 7551.624
193.3575, 7594.113
193.8396, 7654.336
194.3217, 7729.739
194.8038, 7779.134
195.2859, 7794.782
195.7681, 7802.571
196.2502, 7849.410
196.7323, 7939.311
197.2144, 8024.043
197.6965, 8073.689
198.1786, 8087.866
198.6608, 8121.453
199.1429, 8182.507
199.6250, 8256.330
200.1071, 8312.272
200.5892, 8347.158
201.0714, 8379.743
201.5535, 8421.279
202.0356, 8472.590
202.5177, 8521.020
202.9998, 8563.287
203.4819, 8602.944
203.9641, 8652.236
204.4462, 8715.663
204.9283, 8774.361
205.4104, 8810.742
205.8925, 8818.722
206.3746, 8838.783
206.8568, 8881.890
207.3389, 8941.413
207.8210, 8980.159
208.3031, 8993.085
208.7852, 8998.370
209.2673, 9010.364
209.7494, 9030.368
210.2316, 9054.184
210.7137, 9083.714
211.1958, 9118.102
211.6779, 9144.162
212.1600, 9158.957
212.6421, 9171.090
213.1243, 9189.047
213.6064, 9213.634
214.0885, 9240.464
214.5706, 9266.721
215.0527, 9291.916
215.5348, 9329.229
216.0170, 9383.020
216.4991, 9442.425
216.9812, 9492.354
217.4633, 9524.539
217.9454, 9564.954
218.4275, 9622.965
218.9097, 9700.770
219.3918, 9775.477
219.8739, 9844.965
220.3560, 9912.565
220.8381, 9983.387
221.3202, 10055.12
221.8024, 10134.29
222.2845, 10222.08
222.7666, 10319.17
223.2487, 10426.21
223.7308, 10546.07
224.2129, 10673.93
224.6951, 10800.98
225.1772, 10930.47
225.6593, 11055.42
226.1414, 11172.45
226.6235, 11273.59
227.1056, 11386.59
227.5878, 11516.95
228.0699, 11656.67
228.5520, 11796.57
229.0341, 11944.59
229.5162, 12077.82
229.9983, 12181.31
230.4805, 12223.16
230.9626, 12308.64
231.4447, 12462.56
231.9268, 12658.18
232.4089, 12808.30
232.8910, 12901.08
233.3732, 12969.55
233.8553, 13031.02
234.3374, 13094.27
234.8195, 13133.43
235.3016, 13144.89
235.7837, 13131.55
236.2658, 13103.83
236.7480, 13058.19
237.2301, 13003.13
237.7122, 12945.34
238.1943, 12895.48
238.6764, 12820.10
239.1585, 12703.62
239.6407, 12555.44
240.1228, 12431.11
240.6049, 12331.00
241.0870, 12252.83
241.5691, 12195.24
242.0512, 12158.47
242.5334, 12141.85
243.0155, 12149.19
243.4976, 12178.04
243.9797, 12210.89
244.4618, 12253.77
244.9439, 12291.97
245.4261, 12311.81
245.9082, 12295.62
246.3903, 12296.19
246.8724, 12326.38
247.3545, 12383.22
247.8366, 12426.68
248.3188, 12453.57
248.8009, 12470.66
249.2830, 12482.86
249.7651, 12489.35
250.2472, 12494.51
250.7293, 12503.35
251.2115, 12515.49
251.6936, 12507.37
252.1757, 12470.53
252.6578, 12424.30
253.1399, 12383.13
253.6220, 12346.12
254.1042, 12317.36
254.5863, 12301.77
255.0684, 12298.84
255.5505, 12283.78
256.0326, 12250.44
256.5147, 12211.58
256.9969, 12178.36
257.4790, 12153.56
257.9611, 12126.88
258.4432, 12096.97
258.9253, 12063.36
259.4074, 12020.88
259.8896, 11963.39
260.3717, 11903.48
260.8538, 11852.73
261.3359, 11814.54
261.8180, 11776.64
262.3001, 11738.85
262.7823, 11701.47
263.2644, 11646.64
263.7465, 11566.99
264.2286, 11480.20
264.7107, 11408.94
265.1928, 11358.26
265.6750, 11305.68
266.1571, 11245.91
266.6392, 11179.64
267.1213, 11107.25
267.6034, 11022.81
268.0855, 10942.72
268.5677, 10889.87
269.0498, 10874.49
269.5319, 10850.06
270.0140, 10801.91
270.4961, 10731.01
270.9782, 10665.59
271.4604, 10602.90
271.9425, 10549.69
272.4246, 10515.06
272.9067, 10501.89
273.3888, 10494.40
273.8709, 10489.82
274.3531, 10487.84
274.8352, 10480.94
275.3173, 10463.14
275.7994, 10453.08
276.2815, 10477.06
276.7636, 10539.32
277.2457, 10600.30
277.7278, 10643.51
278.2100, 10672.56
278.6921, 10727.96
279.1742, 10814.99
279.6563, 10913.04
280.1384, 10994.86
280.6205, 11057.20
281.1027, 11135.89
281.5848, 11245.67
282.0669, 11381.39
282.5490, 11505.78
283.0311, 11614.28
283.5132, 11729.05
283.9954, 11876.08
284.4775, 12056.33
284.9596, 12247.91
285.4417, 12456.23
285.9238, 12672.12
286.4059, 12846.67
286.8881, 12972.05
287.3702, 13092.82
287.8523, 13258.39
288.3344, 13466.18
288.8165, 13673.79
289.2986, 13876.91
289.7808, 14070.15
290.2629, 14235.51
290.7450, 14370.50
291.2271, 14487.34
291.7092, 14596.62
292.1913, 14697.57
292.6735, 14788.21
293.1556, 14877.48
293.6377, 14949.99
294.1198, 14962.58
294.6019, 14914.40
295.0840, 14839.44
295.5662, 14759.21
296.0483, 14675.45
296.5304, 14594.35
297.0125, 14515.35
297.4946, 14442.17
297.9767, 14387.00
298.4589, 14348.91
298.9410, 14311.44
299.4231, 14252.71
299.9052, 14183.38
300.3873, 14130.21
300.8694, 14101.71
301.3516, 14091.00
301.8337, 14085.84
302.3158, 14087.20
302.7979, 14107.65
303.2800, 14158.08
303.7621, 14233.02
304.2443, 14326.83
304.7264, 14444.90
305.2085, 14569.44
305.6906, 14680.67
306.1727, 14780.88
306.6548, 14888.59
307.1370, 15014.53
307.6191, 15155.33
308.1012, 15305.99
308.5833, 15465.17
309.0654, 15632.03
309.5475, 15809.71
310.0297, 15993.94
310.5118, 16172.38
310.9939, 16325.67
311.4760, 16473.15
311.9581, 16636.96
312.4402, 16833.66
312.9224, 17025.67
313.4045, 17196.33
313.8866, 17348.06
314.3687, 17482.61
314.8508, 17615.60
315.3329, 17723.24
315.8151, 17787.24
316.2972, 17798.16
316.7793, 17780.00
317.2614, 17748.83
317.7435, 17696.81
318.2256, 17605.89
318.7078, 17447.61
319.1899, 17265.06
319.6720, 17078.92
320.1541, 16890.47
320.6362, 16702.17
321.1183, 16514.06
321.6005, 16328.32
322.0826, 16150.70
322.5647, 15972.22
323.0468, 15810.16
323.5289, 15672.73
324.0110, 15565.82
324.4932, 15467.37
324.9753, 15376.80
325.4574, 15293.54
325.9395, 15218.08
326.4216, 15160.56
326.9037, 15101.16
327.3859, 15030.15
327.8680, 14937.46
328.3501, 14868.38
328.8322, 14835.84
329.3143, 14822.40
329.7964, 14808.23
330.2786, 14788.49
330.7607, 14774.57
331.2428, 14770.05
331.7249, 14776.06
332.2070, 14781.94
332.6891, 14783.45
333.1712, 14788.79
333.6534, 14807.10
334.1355, 14845.70
334.6176, 14883.24
335.0997, 14914.16
335.5818, 14938.69
336.0639, 14970.75
336.5461, 15010.13
337.0282, 15056.84
337.5103, 15114.24
337.9924, 15185.46
338.4745, 15251.22
338.9566, 15305.15
339.4388, 15350.73
339.9209, 15411.51
340.4030, 15492.12
340.8851, 15572.22
341.3672, 15636.34
341.8493, 15685.41
342.3315, 15721.26
342.8136, 15742.05
343.2957, 15753.23
343.7778, 15771.03
344.2599, 15796.86
344.7420, 15816.47
345.2242, 15818.50
345.7063, 15804.90
346.1884, 15790.14
346.6705, 15778.39
347.1526, 15759.26
347.6347, 15716.79
348.1169, 15651.35
348.5990, 15566.66
349.0811, 15463.14
349.5632, 15342.90
350.0453, 15208.58
350.5274, 15059.51
351.0096, 14902.34
351.4917, 14743.28
351.9738, 14581.31
352.4559, 14410.54
352.9380, 14232.42
353.4201, 14043.85
353.9023, 13843.89
354.3844, 13632.71
354.8665, 13413.24
355.3486, 13169.95
355.8307, 12923.87
356.3128, 12704.72
356.7950, 12557.44
357.2771, 12423.86
357.7592, 12259.17
358.2413, 12064.18
358.7234, 11865.86
359.2055, 11670.63
359.6877, 11483.18
360.1698, 11308.42
360.6519, 11159.88
361.1340, 11012.41
361.6161, 10848.89
362.0982, 10673.30
362.5804, 10508.49
363.0625, 10376.25
363.5446, 10248.91
364.0267, 10107.46
364.5088, 9929.446
364.9909, 9762.917
365.4731, 9623.327
365.9552, 9502.708
366.4373, 9377.532
366.9194, 9241.056
367.4015, 9102.333
367.8836, 8962.477
368.3658, 8811.105
368.8479, 8677.999
369.3300, 8579.672
369.8121, 8496.579
370.2942, 8396.207
370.7763, 8264.934
371.2585, 8132.056
371.7406, 8003.684
372.2227, 7879.786
372.7048, 7764.964
373.1869, 7660.774
373.6690, 7565.250
374.1512, 7475.236
374.6333, 7390.045
375.1154, 7311.770
375.5975, 7242.765
376.0796, 7181.926
376.5617, 7113.546
377.0439, 7034.590
377.5260, 6956.547
378.0081, 6892.991
378.4902, 6844.835
378.9723, 6793.206
379.4544, 6728.332
379.9366, 6661.844
380.4187, 6634.051
380.9008, 6648.353
381.3829, 6661.099
381.8650, 6634.321
382.3471, 6576.645
382.8293, 6532.417
383.3114, 6507.944
383.7935, 6496.202
384.2756, 6490.786
384.7577, 6490.161
385.2398, 6486.048
385.7219, 6465.968
386.2040, 6441.079
386.6862, 6433.376
387.1683, 6446.549
387.6504, 6461.400
388.1325, 6460.905
388.6146, 6448.922
389.0967, 6433.501
389.5789, 6408.740
390.0610, 6388.369
390.5431, 6387.471
391.0252, 6406.163
391.5073, 6425.728
391.9894, 6439.106
392.4716, 6446.994
392.9537, 6450.096
393.4358, 6439.792
393.9179, 6433.804
394.4000, 6440.597
394.8821, 6458.349
395.3643, 6477.042
395.8464, 6485.703
396.3285, 6499.747
396.8106, 6528.839
397.2927, 6586.744
397.7748, 6640.463
398.2570, 6683.346
398.7391, 6719.228
399.2212, 6757.396
399.7033, 6798.708
400.1854, 6841.714
400.6675, 6883.916
401.1497, 6919.593
401.6318, 6974.450
402.1139, 7059.897
402.5960, 7156.441
403.0781, 7237.163
403.5602, 7290.788
404.0424, 7353.960
404.5245, 7435.473
405.0066, 7534.214
405.4887, 7646.511
405.9708, 7777.985
406.4529, 7910.228
406.9351, 8023.750
407.4172, 8116.201
407.8993, 8224.454
408.3814, 8357.499
408.8635, 8508.048
409.3456, 8661.589
409.8278, 8818.891
410.3099, 8974.348
410.7920, 9113.222
411.2741, 9244.982
411.7562, 9403.683
412.2383, 9598.352
412.7205, 9804.242
413.2026, 10001.52
413.6847, 10191.33
414.1668, 10373.42
414.6489, 10550.58
415.1310, 10719.87
415.6132, 10878.43
416.0953, 11027.04
416.5774, 11171.19
417.0595, 11333.00
417.5416, 11489.79
418.0237, 11615.38
418.5059, 11670.13
418.9880, 11718.71
419.4701, 11809.39
419.9522, 11930.04
420.4343, 12013.82
420.9164, 12002.12
421.3986, 11967.91
421.8807, 11959.53
422.3628, 12017.49
422.8449, 12045.81
423.3270, 12019.47
423.8091, 11952.94
424.2913, 11874.21
424.7734, 11779.89
425.2555, 11680.54
425.7376, 11580.00
426.2197, 11479.35
426.7018, 11372.21
427.1840, 11254.71
427.6661, 11132.25
428.1482, 11011.50
428.6303, 10894.97
429.1124, 10769.44
429.5945, 10629.51
430.0767, 10478.13
430.5588, 10324.90
431.0409, 10166.75
431.5230, 10019.34
432.0051, 9895.924
432.4872, 9796.152
432.9694, 9703.578
433.4515, 9615.513
433.9336, 9532.802
434.4157, 9461.555
434.8978, 9400.233
435.3799, 9330.604
435.8621, 9229.737
436.3442, 9115.398
436.8263, 9031.148
437.3084, 8978.934
437.7905, 8940.083
438.2726, 8899.084
438.7548, 8858.927
439.2369, 8825.609
439.7190, 8811.110
440.2011, 8795.136
440.6832, 8753.411
441.1653, 8691.752
441.6474, 8642.164
442.1295, 8629.386
442.6117, 8630.490
443.0938, 8627.222
443.5759, 8610.030
444.0580, 8600.272
444.5401, 8612.094
445.0222, 8635.377
445.5044, 8651.623
445.9865, 8652.144
446.4686, 8650.300
446.9507, 8647.250
447.4328, 8640.127
447.9149, 8647.771
448.3971, 8678.326
448.8792, 8717.776
449.3613, 8754.284
449.8434, 8783.265
450.3255, 8818.576
450.8076, 8861.994
451.2898, 8912.778
451.7719, 8967.889
452.2540, 9027.385
452.7361, 9089.572
453.2182, 9153.824
453.7003, 9219.523
454.1825, 9289.848
454.6646, 9364.927
455.1467, 9443.199
455.6288, 9516.743
456.1109, 9587.684
456.5930, 9672.648
457.0752, 9787.190
457.5573, 9916.273
458.0394, 10021.28
458.5215, 10103.93
459.0036, 10190.40
459.4857, 10306.15
459.9679, 10439.49
460.4500, 10568.30
460.9321, 10687.89
461.4142, 10804.60
461.8963, 10927.29
462.3784, 11052.10
462.8606, 11169.62
463.3427, 11261.82
463.8248, 11357.91
464.3069, 11480.51
464.7890, 11642.71
465.2711, 11784.62
465.7533, 11881.04
466.2354, 11954.44
466.7175, 12027.03
467.1996, 12093.68
467.6817, 12168.09
468.1638, 12262.29
468.6460, 12370.12
469.1281, 12451.54
469.6102, 12496.61
470.0923, 12528.06
470.5744, 12555.58
471.0565, 12575.21
471.5387, 12608.46
472.0208, 12668.85
472.5029, 12726.17
472.9850, 12723.92
473.4671, 12657.75
473.9492, 12587.00
474.4314, 12528.44
474.9135, 12483.23
475.3956, 12464.73
475.8777, 12474.78
476.3598, 12476.98
476.8419, 12434.79
477.3241, 12360.80
477.8062, 12281.72
478.2883, 12199.21
478.7704, 12124.05
479.2525, 12077.14
479.7346, 12047.91
480.2168, 12007.69
480.6989, 11938.68
481.1810, 11854.34
481.6631, 11758.62
482.1452, 11649.65
482.6273, 11549.07
483.1095, 11479.26
483.5916, 11415.89
484.0737, 11336.90
484.5558, 11205.85
485.0379, 11092.83
485.5201, 11029.07
486.0022, 11000.58
486.4843, 10937.27
486.9664, 10812.41
487.4485, 10683.46
487.9306, 10572.31
488.4128, 10484.75
488.8949, 10398.33
489.3770, 10314.67
489.8591, 10229.75
490.3412, 10138.81
490.8233, 10040.85
491.3055, 9941.589
491.7876, 9841.978
492.2697, 9743.370
492.7518, 9648.691
493.2339, 9558.625
493.7160, 9469.094
494.1982, 9377.803
494.6803, 9285.001
495.1624, 9193.107
495.6445, 9100.093
496.1266, 9012.580
496.6087, 8941.605
497.0908, 8879.204
497.5729, 8807.384
498.0551, 8706.247
498.5372, 8603.374
499.0193, 8522.521
499.5014, 8461.780
499.9835, 8395.563
500.4656, 8307.787
500.9478, 8214.992
501.4299, 8125.744
501.9120, 8031.248
502.3941, 7958.632
502.8762, 7935.416
503.3583, 7932.333
503.8405, 7895.065
504.3226, 7794.938
504.8047, 7701.009
505.2868, 7631.418
505.7689, 7586.081
506.2510, 7539.615
506.7332, 7490.307
507.2153, 7444.169
507.6974, 7408.016
508.1795, 7382.830
508.6616, 7353.325
509.1437, 7316.912
509.6259, 7277.872
510.1080, 7243.747
510.5901, 7214.048
511.0722, 7184.497
511.5543, 7155.306
512.0364, 7124.487
512.5186, 7083.677
513.0007, 7033.184
513.4828, 6993.425
513.9649, 6990.101
514.4470, 7001.438
514.9291, 7000.767
515.4113, 6971.495
515.8934, 6946.336
516.3755, 6943.187
516.8576, 6954.908
517.3397, 6966.448
517.8218, 6972.287
518.3040, 6978.763
518.7861, 6990.408
519.2682, 7009.241
519.7503, 7017.497
520.2324, 7003.835
520.7145, 6989.979
521.1967, 6992.150
521.6788, 7015.039
522.1609, 7041.616
522.6430, 7071.549
523.1251, 7103.846
523.6072, 7135.363
524.0894, 7165.654
524.5715, 7198.191
525.0536, 7235.391
525.5357, 7275.820
526.0178, 7313.354
526.4999, 7347.752
526.9821, 7387.164
527.4642, 7441.461
527.9463, 7505.730
528.4284, 7569.075
528.9105, 7628.578
529.3926, 7689.186
529.8748, 7759.317
530.3569, 7833.458
530.8390, 7898.312
531.3211, 7935.016
531.8032, 7972.674
532.2853, 8028.215
532.7675, 8103.250
533.2496, 8175.750
533.7317, 8239.618
534.2138, 8301.195
534.6959, 8365.911
535.1780, 8440.152
535.6602, 8506.912
536.1423, 8566.179
536.6244, 8618.805
537.1065, 8667.891
537.5886, 8713.983
538.0707, 8752.750
538.5529, 8777.447
539.0350, 8792.860
539.5171, 8834.976
539.9992, 8906.362
540.4813, 8977.889
540.9634, 9026.457
541.4456, 9056.477
541.9277, 9075.213
542.4098, 9078.171
542.8919, 9090.324
543.3740, 9148.067
543.8561, 9233.941
544.3383, 9312.472
544.8204, 9361.663
545.3025, 9404.496
545.7846, 9456.927
546.2667, 9517.034
546.7488, 9569.352
547.2310, 9590.743
547.7131, 9615.586
548.1952, 9663.667
548.6773, 9745.563
549.1594, 9833.162
549.6415, 9935.340
550.1237, 10036.96
550.6058, 10116.09
551.0879, 10155.13
551.5700, 10214.40
552.0521, 10309.52
552.5342, 10432.07
553.0164, 10548.10
553.4985, 10655.71
553.9806, 10771.68
554.4627, 10900.13
554.9448, 11045.02
555.4269, 11228.11
555.9091, 11455.02
556.3912, 11684.06
556.8733, 11855.67
557.3554, 12001.46
557.8375, 12176.87
558.3196, 12405.72
558.8018, 12659.95
559.2839, 12935.18
559.7660, 13222.36
560.2481, 13504.93
560.7302, 13759.46
561.2123, 14022.73
561.6945, 14314.17
562.1766, 14635.73
562.6587, 14962.20
563.1408, 15287.76
563.6229, 15616.82
564.1050, 15958.42
564.5872, 16330.04
565.0693, 16671.64
565.5514, 16979.94
566.0335, 17260.54
566.5156, 17520.92
566.9977, 17760.43
567.4799, 17978.13
567.9620, 18179.18
568.4441, 18354.65
568.9262, 18477.37
569.4083, 18548.25
569.8904, 18563.59
570.3726, 18501.84
570.8547, 18391.07
571.3368, 18271.13
571.8189, 18153.47
572.3010, 18003.22
572.7831, 17787.95
573.2653, 17530.97
573.7474, 17266.22
574.2295, 16982.27
574.7116, 16711.15
575.1937, 16471.15
575.6758, 16251.95
576.1580, 16015.16
576.6401, 15751.66
577.1222, 15477.68
577.6042, 15194.29
578.0864, 14894.16
578.5685, 14622.61
579.0506, 14382.84
579.5327, 14160.64
580.0148, 13936.71
580.4969, 13712.94
580.9791, 13512.67
581.4612, 13341.91
581.9433, 13189.96
582.4254, 13048.92
582.9075, 12917.39
583.3896, 12793.26
583.8718, 12687.27
584.3539, 12580.24
584.8360, 12444.09
585.3181, 12283.97
585.8002, 12138.71
586.2823, 12029.75
586.7645, 11941.91
587.2466, 11868.79
587.7287, 11817.02
588.2108, 11760.14
588.6929, 11691.49
589.1750, 11618.29
589.6572, 11546.30
590.1393, 11470.11
590.6214, 11406.93
591.1035, 11360.65
591.5856, 11327.77
592.0677, 11299.92
592.5499, 11277.89
593.0320, 11254.55
593.5141, 11226.39
593.9962, 11194.07
594.4783, 11157.20
594.9604, 11115.50
595.4426, 11081.18
595.9247, 11065.95
596.4068, 11063.23
596.8889, 11065.24
597.3710, 11072.54
597.8531, 11078.26
598.3353, 11068.58
598.8174, 11057.59
599.2995, 11065.43
599.7816, 11116.48
600.2637, 11166.05
600.7458, 11200.78
601.2280, 11224.02
601.7101, 11252.19
602.1922, 11277.05
602.6743, 11320.39
603.1564, 11399.21
603.6385, 11517.49
604.1207, 11602.46
604.6028, 11648.93
605.0849, 11683.68
605.5670, 11732.53
606.0491, 11792.18
606.5313, 11844.69
607.0134, 11883.85
607.4955, 11925.78
607.9776, 11999.51
608.4597, 12089.92
608.9418, 12166.02
609.4240, 12193.52
609.9061, 12220.02
610.3882, 12278.22
610.8703, 12362.58
611.3524, 12437.69
611.8345, 12487.81
612.3167, 12532.95
612.7988, 12583.74
613.2809, 12644.65
613.7630, 12693.86
614.2451, 12722.53
614.7272, 12752.01
615.2094, 12804.96
615.6915, 12885.51
616.1736, 12954.13
616.6557, 13003.75
617.1378, 13043.63
617.6199, 13093.54
618.1021, 13149.44
618.5842, 13189.16
619.0663, 13184.75
619.5484, 13173.84
620.0305, 13206.72
620.5126, 13275.86
620.9948, 13345.44
621.4769, 13408.33
621.9590, 13454.82
622.4411, 13469.23
622.9232, 13441.08
623.4053, 13435.69
623.8875, 13477.94
624.3696, 13539.72
624.8517, 13603.10
625.3338, 13680.43
625.8159, 13728.30
626.2980, 13733.04
626.7802, 13720.23
627.2623, 13740.18
627.7444, 13795.84
628.2265, 13830.46
628.7086, 13812.89
629.1907, 13775.59
629.6729, 13803.88
630.1550, 13885.23
630.6371, 13944.52
631.1192, 13912.38
631.6013, 13849.35
632.0834, 13811.41
632.5656, 13802.83
633.0477, 13810.12
633.5298, 13847.18
634.0119, 13885.09
634.4940, 13900.26
634.9761, 13868.00
635.4583, 13850.14
635.9404, 13855.76
636.4225, 13871.74
636.9046, 13882.21
637.3867, 13887.78
637.8688, 13885.13
638.3510, 13875.01
638.8331, 13854.97
639.3152, 13811.57
639.7973, 13746.73
640.2794, 13688.59
640.7615, 13654.65
641.2437, 13636.85
641.7258, 13628.11
642.2079, 13627.23
642.6900, 13618.51
643.1721, 13580.34
643.6542, 13537.88
644.1364, 13513.27
644.6185, 13516.96
645.1006, 13515.86
645.5827, 13491.77
646.0648, 13464.81
646.5469, 13456.19
647.0291, 13483.99
647.5112, 13491.96
647.9933, 13467.48
648.4754, 13426.20
648.9575, 13403.74
649.4396, 13400.89
649.9218, 13395.50
650.4039, 13379.12
650.8860, 13355.43
651.3681, 13330.08
651.8502, 13304.14
652.3323, 13283.69
652.8145, 13279.98
653.2966, 13279.43
653.7787, 13273.43
654.2608, 13261.80
654.7429, 13232.25
655.2250, 13157.89
655.7072, 13077.99
656.1893, 13021.98
656.6714, 13005.87
657.1535, 12992.45
657.6356, 12987.13
658.1177, 12979.46
658.5999, 12952.73
659.0820, 12901.82
659.5641, 12861.40
660.0462, 12841.91
660.5283, 12831.44
661.0104, 12806.18
661.4926, 12767.96
661.9747, 12726.20
662.4568, 12680.26
662.9389, 12636.99
663.4210, 12604.63
663.9031, 12582.97
664.3853, 12567.89
664.8674, 12568.72
665.3495, 12566.59
665.8316, 12548.17
666.3137, 12507.58
666.7958, 12470.56
667.2780, 12431.60
667.7601, 12401.61
668.2422, 12394.22
668.7243, 12421.78
669.2064, 12414.81
669.6885, 12359.74
670.1707, 12288.84
670.6528, 12250.87
671.1349, 12239.96
671.6170, 12217.81
672.0991, 12170.83
672.5812, 12114.58
673.0634, 12063.80
673.5455, 12018.53
674.0276, 11977.94
674.5097, 11940.29
674.9918, 11910.06
675.4739, 11896.95
675.9561, 11898.52
676.4382, 11885.31
676.9203, 11833.06
677.4024, 11786.61
677.8845, 11766.02
678.3666, 11775.28
678.8488, 11764.40
679.3309, 11726.36
679.8130, 11685.73
680.2951, 11668.90
680.7772, 11669.19
681.2593, 11644.25
681.7415, 11584.92
682.2236, 11524.07
682.7057, 11496.94
683.1878, 11490.72
683.6699, 11484.38
684.1520, 11476.50
684.6342, 11460.12
685.1163, 11427.76
685.5984, 11385.84
686.0805, 11345.59
686.5626, 11302.46
687.0447, 11270.13
687.5268, 11251.50
688.0089, 11245.67
688.4910, 11254.24
688.9731, 11284.47
689.4553, 11297.84
689.9374, 11269.44
690.4195, 11209.60
690.9016, 11157.23
691.3837, 11112.66
691.8658, 11078.00
692.3480, 11068.36
692.8301, 11062.11
693.3122, 11026.07
693.7943, 10951.15
694.2764, 10893.84
694.7585, 10895.78
695.2407, 10915.96
695.7228, 10919.98
696.2049, 10897.99
696.6870, 10869.35
697.1691, 10831.25
697.6512, 10789.73
698.1334, 10752.00
698.6155, 10718.11
699.0976, 10688.17
699.5797, 10660.91
700.0618, 10639.03
700.5439, 10629.89
701.0261, 10630.81
701.5082, 10631.51
701.9903, 10630.78
702.4724, 10624.77
702.9545, 10610.45
703.4366, 10588.02
703.9188, 10558.50
704.4009, 10516.13
704.8830, 10472.15
705.3651, 10426.70
705.8472, 10379.41
706.3293, 10354.06
706.8115, 10364.89
707.2936, 10372.16
707.7757, 10347.97
708.2578, 10292.56
708.7399, 10252.74
709.2220, 10229.79
709.7042, 10217.13
710.1863, 10221.26
710.6684, 10228.68
711.1505, 10211.11
711.6326, 10159.32
712.1147, 10102.00
712.5969, 10044.41
713.0790, 9997.428
713.5611, 9973.541
714.0432, 10007.48
714.5253, 10023.98
715.0074, 10011.02
715.4896, 9980.089
715.9717, 9948.412
716.4538, 9915.542
716.9359, 9884.439
717.4180, 9855.704
717.9001, 9829.185
718.3823, 9802.363
718.8644, 9776.369
719.3465, 9757.506
719.8286, 9759.022
720.3107, 9762.783
720.7928, 9744.589
721.2750, 9709.637
721.7571, 9681.923
722.2392, 9684.311
722.7213, 9686.200
723.2034, 9669.921
723.6855, 9632.695
724.1677, 9603.146
724.6498, 9580.032
725.1319, 9566.780
725.6140, 9573.785
726.0961, 9602.587
726.5782, 9593.713
727.0604, 9542.488
727.5425, 9483.980
728.0246, 9446.855
728.5067, 9427.759
728.9888, 9424.158
729.4709, 9440.265
729.9531, 9450.841
730.4352, 9434.678
730.9173, 9406.776
731.3994, 9382.856
731.8815, 9364.551
732.3636, 9353.518
732.8458, 9355.609
733.3279, 9360.886
733.8100, 9354.496
734.2921, 9334.421
734.7742, 9311.958
735.2563, 9290.000
735.7385, 9265.786
736.2206, 9230.460
736.7027, 9186.963
737.1848, 9150.145
737.6669, 9131.847
738.1490, 9117.897
738.6312, 9094.048
739.1133, 9064.088
739.5954, 9039.614
740.0775, 9029.776
740.5596, 9021.410
741.0417, 9010.984
741.5239, 8998.266
742.0060, 8979.407
742.4881, 8950.644
742.9702, 8923.434
743.4523, 8904.766
743.9344, 8892.680
744.4166, 8877.636
744.8987, 8859.315
745.3808, 8832.372
745.8629, 8786.047
746.3450, 8731.840
746.8271, 8681.789
747.3093, 8636.587
747.7914, 8604.501
748.2735, 8608.970
748.7556, 8614.938
749.2377, 8595.491
749.7198, 8539.802
750.2020, 8481.380
750.6841, 8415.159
751.1662, 8354.742
751.6483, 8316.116
752.1304, 8299.860
752.6125, 8282.403
753.0947, 8260.101
753.5768, 8240.619
754.0589, 8231.748
754.5410, 8232.680
755.0231, 8244.433
755.5052, 8277.771
755.9874, 8301.182
756.4695, 8287.712
756.9516, 8256.289
757.4337, 8235.745
757.9158, 8236.152
758.3979, 8240.980
758.8801, 8252.252
759.3622, 8265.433
759.8443, 8271.313
760.3264, 8270.109
760.8085, 8261.499
761.2906, 8240.314
761.7728, 8218.629
762.2549, 8216.662
762.7370, 8232.486
763.2191, 8258.817
763.7012, 8310.240
764.1833, 8354.337
764.6655, 8361.104
765.1476, 8339.186
765.6297, 8334.701
766.1118, 8366.902
766.5939, 8404.425
767.0760, 8442.048
767.5582, 8478.313
768.0403, 8497.105
768.5224, 8494.733
769.0045, 8497.730
769.4866, 8529.111
769.9688, 8575.681
770.4509, 8602.326
770.9330, 8610.611
771.4151, 8620.976
771.8972, 8654.523
772.3793, 8689.732
772.8615, 8709.418
773.3436, 8710.663
773.8257, 8712.030
774.3078, 8704.676
774.7899, 8710.504
775.2720, 8746.814
775.7542, 8819.709
776.2363, 8872.306
776.7184, 8902.164
777.2005, 8845.803
777.6826, 8959.524
778.1647, 9040.398
778.6469, 9090.208
779.1290, 9015.847
779.6111, 9101.810
780.0932, 9123.525
780.5753, 9142.605
781.0574, 9251.135
781.5396, 9194.843
782.0217, 9256.468
782.5038, 9260.141
782.9859, 9274.367
783.4680, 9293.442
783.9501, 9318.580
784.4323, 9340.746
784.9144, 9358.481
785.3965, 9375.291
785.8786, 9394.282
786.3607, 9415.939
786.8428, 9444.605
787.3250, 9488.750
787.8071, 9520.403
788.2892, 9508.771
788.7713, 9478.567
789.2534, 9462.131
789.7355, 9485.740
790.2177, 9496.958
790.6998, 9490.696
791.1819, 9471.512
791.6640, 9441.222
792.1461, 9397.771
792.6282, 9371.476
793.1104, 9375.851
793.5925, 9384.854
794.0746, 9354.308
794.5567, 9297.308
795.0388, 9244.348
795.5209, 9209.069
796.0031, 9180.180
796.4852, 9153.521
796.9672, 9129.227
797.4493, 9106.736
797.9315, 9084.248
798.4136, 9067.016
798.8957, 9058.102
799.3778, 9053.840
799.8599, 9044.167
800.3420, 9029.168
800.8242, 9016.731
801.3063, 9010.880
801.7884, 9007.743
802.2705, 8997.024
802.7526, 8984.061
803.2347, 8983.543
803.7169, 9007.441
804.1990, 9039.841
804.6811, 9079.470
805.1632, 9123.034
805.6453, 9155.593
806.1274, 9164.816
806.6096, 9189.123
807.0917, 9243.113
807.5738, 9319.114
808.0559, 9392.518
808.5380, 9463.614
809.0201, 9535.593
809.5023, 9605.837
809.9844, 9680.759
810.4665, 9770.574
810.9486, 9872.441
811.4307, 9975.477
811.9128, 10074.79
812.3950, 10175.25
812.8771, 10281.21
813.3592, 10391.56
813.8413, 10495.58
814.3234, 10591.64
814.8055, 10688.79
815.2877, 10789.48
815.7698, 10895.17
816.2519, 11011.53
816.7340, 11137.15
817.2161, 11260.23
817.6982, 11377.14
818.1804, 11484.96
818.6625, 11567.85
819.1446, 11632.12
819.6267, 11724.51
820.1088, 11883.76
820.5909, 12041.27
821.0731, 12185.96
821.5552, 12312.49
822.0373, 12377.01
822.5194, 12371.04
823.0015, 12386.15
823.4836, 12490.83
823.9658, 12645.77
824.4479, 12782.79
824.9300, 12902.81
825.4121, 13004.18
825.8942, 13073.57
826.3763, 13137.78
826.8585, 13214.23
827.3406, 13302.62
827.8227, 13381.26
828.3048, 13445.26
828.7869, 13507.76
829.2690, 13574.48
829.7512, 13644.39
830.2333, 13706.35
830.7154, 13761.09
831.1975, 13809.91
831.6796, 13846.08
832.1617, 13882.37
832.6439, 13934.09
833.1260, 14000.05
833.6081, 14065.26
834.0902, 14123.85
834.5723, 14181.28
835.0544, 14236.37
835.5366, 14289.99
836.0187, 14357.92
836.5008, 14442.86
836.9829, 14533.73
837.4650, 14631.47
837.9471, 14729.35
838.4293, 14807.82
838.9114, 14869.47
839.3935, 14934.00
839.8756, 15010.79
840.3577, 15096.30
840.8398, 15193.68
841.3220, 15301.15
841.8041, 15398.78
842.2862, 15470.11
842.7683, 15555.25
843.2504, 15676.29
843.7325, 15824.12
844.2147, 15946.45
844.6968, 16042.40
845.1789, 16120.17
845.6610, 16158.08
846.1431, 16197.22
846.6252, 16301.63
847.1074, 16457.11
847.5895, 16589.34
848.0716, 16662.20
848.5537, 16712.24
849.0358, 16748.74
849.5179, 16773.82
850.0001, 16793.57
850.4822, 16801.98
850.9643, 16836.65
851.4464, 16930.59
851.9285, 17052.80
852.4106, 17126.84
852.8928, 17160.18
853.3749, 17179.75
853.8570, 17186.68
854.3391, 17196.86
854.8212, 17221.03
855.3033, 17257.10
855.7855, 17292.71
856.2676, 17326.03
856.7497, 17360.46
857.2318, 17401.06
857.7139, 17440.41
858.1960, 17448.95
858.6782, 17429.56
859.1603, 17420.27
859.6424, 17451.69
860.1245, 17487.13
860.6066, 17480.47
861.0887, 17447.44
861.5709, 17429.04
862.0530, 17455.54
862.5351, 17477.76
863.0172, 17488.52
863.4993, 17486.40
863.9814, 17460.64
864.4636, 17406.79
864.9457, 17375.48
865.4278, 17391.56
865.9099, 17421.63
866.3920, 17418.75
866.8741, 17387.15
867.3563, 17335.81
867.8384, 17241.74
868.3205, 17159.68
868.8026, 17122.11
869.2847, 17109.15
869.7668, 17082.33
870.2490, 17040.57
870.7311, 16987.24
871.2132, 16921.91
871.6953, 16848.31
872.1774, 16782.52
872.6595, 16716.17
873.1417, 16614.58
873.6238, 16452.19
874.1059, 16286.46
874.5880, 16166.14
875.0701, 16066.61
875.5522, 15957.99
876.0344, 15837.79
876.5165, 15700.72
876.9986, 15546.56
877.4807, 15375.80
877.9628, 15178.11
878.4449, 14958.64
878.9271, 14769.44
879.4092, 14623.43
879.8913, 14478.13
880.3734, 14288.89
880.8555, 14077.10
881.3376, 13867.83
881.8198, 13664.63
882.3019, 13467.14
882.7840, 13271.08
883.2661, 13082.04
883.7482, 12908.00
884.2303, 12752.63
884.7125, 12576.43
885.1946, 12374.69
885.6767, 12177.25
886.1588, 12029.33
886.6409, 11899.29
887.1230, 11730.06
887.6052, 11513.55
888.0873, 11308.08
888.5694, 11141.47
889.0515, 10992.66
889.5336, 10847.93
890.0157, 10708.39
890.4979, 10568.48
890.9800, 10428.09
891.4621, 10291.99
891.9442, 10158.99
892.4263, 10034.02
892.9084, 9931.453
893.3906, 9848.707
893.8727, 9763.225
894.3548, 9658.125
894.8369, 9549.128
895.3190, 9443.333
895.8011, 9341.051
896.2833, 9249.784
896.7654, 9173.754
897.2475, 9096.128
897.7296, 9008.372
898.2117, 8918.182
898.6938, 8854.224
899.1760, 8811.723
899.6581, 8769.966
900.1402, 8713.181
900.6223, 8658.246
901.1044, 8611.396
901.5865, 8574.803
902.0687, 8558.251
902.5508, 8578.094
903.0329, 8587.829
903.5150, 8580.815
903.9971, 8558.401
904.4792, 8514.770
904.9614, 8454.826
905.4435, 8410.221
905.9256, 8393.072
906.4077, 8386.785
906.8898, 8381.760
907.3719, 8376.836
907.8540, 8370.425
908.3361, 8362.520
908.8182, 8352.941
909.3004, 8343.755
909.7825, 8330.589
910.2646, 8307.312
910.7467, 8274.667
911.2288, 8243.966
911.7109, 8218.064
912.1931, 8180.839
912.6752, 8109.693
913.1573, 8023.070
913.6394, 7941.549
914.1215, 7870.794
914.6036, 7793.815
915.0858, 7712.413
915.5679, 7619.442
916.0500, 7507.197
916.5321, 7377.016
917.0142, 7251.667
917.4963, 7131.372
917.9785, 7010.240
918.4606, 6882.526
918.9427, 6752.693
919.4248, 6624.614
919.9069, 6499.415
920.3890, 6375.778
920.8712, 6250.047
921.3533, 6129.912
921.8354, 6020.424
922.3175, 5918.351
922.7996, 5804.026
923.2817, 5676.599
923.7639, 5547.872
924.2460, 5413.652
924.7281, 5289.569
925.2102, 5201.234
925.6923, 5136.017
926.1744, 5065.054
926.6566, 4981.577
927.1387, 4887.198
927.6208, 4770.643
928.1029, 4653.332
928.5850, 4573.423
929.0671, 4533.110
929.5493, 4480.991
930.0314, 4405.443
930.5135, 4323.806
930.9956, 4256.416
931.4777, 4197.542
931.9598, 4140.383
932.4420, 4081.028
932.9241, 4028.515
933.4062, 3989.424
933.8883, 3953.307
934.3704, 3909.726
934.8525, 3856.525
935.3347, 3824.707
935.8168, 3816.018
936.2989, 3810.550
936.7810, 3795.365
937.2631, 3771.974
937.7452, 3739.191
938.2274, 3697.701
938.7095, 3660.407
939.1916, 3628.999
939.6737, 3605.768
940.1558, 3593.408
940.6379, 3590.251
941.1201, 3587.869
941.6022, 3586.404
942.0843, 3578.938
942.5664, 3557.075
943.0485, 3532.843
943.5306, 3524.358
944.0128, 3525.177
944.4949, 3520.063
944.9770, 3493.231
945.4591, 3474.368
945.9412, 3470.202
946.4233, 3475.125
946.9055, 3480.526
947.3876, 3486.434
947.8697, 3495.351
948.3518, 3509.424
948.8339, 3519.279
949.3160, 3503.436
949.7982, 3482.527
950.2803, 3484.364
950.7624, 3523.173
951.2445, 3558.576
951.7266, 3588.575
952.2087, 3609.745
952.6909, 3615.695
953.1730, 3606.741
953.6551, 3609.141
954.1372, 3622.993
954.6193, 3641.704
955.1014, 3662.561
955.5836, 3684.200
956.0657, 3704.605
956.5478, 3724.109
957.0299, 3746.822
957.5120, 3778.151
957.9941, 3805.209
958.4763, 3823.444
958.9584, 3835.250
959.4405, 3845.349
959.9226, 3854.457
960.4047, 3868.154
960.8868, 3890.612
961.3690, 3914.911
961.8511, 3938.282
962.3332, 3959.102
962.8153, 3974.771
963.2974, 3975.960
963.7795, 3989.042
964.2617, 4020.264
964.7438, 4054.764
965.2259, 4072.940
965.7080, 4078.731
966.1901, 4085.884
966.6722, 4095.905
967.1544, 4108.925
967.6365, 4125.259
968.1186, 4144.475
968.6007, 4167.485
969.0828, 4195.318
969.5649, 4216.465
970.0471, 4229.828
970.5292, 4240.024
971.0113, 4247.363
971.4934, 4254.341
971.9755, 4268.810
972.4576, 4289.342
972.9398, 4310.547
973.4219, 4335.608
973.9040, 4354.666
974.3861, 4358.651
974.8682, 4354.625
975.3503, 4357.254
975.8325, 4366.912
976.3146, 4383.217
976.7967, 4408.446
977.2788, 4433.064
977.7609, 4443.294
978.2430, 4444.407
978.7252, 4444.952
979.2073, 4445.323
979.6894, 4450.514
980.1715, 4472.271
980.6536, 4490.522
981.1357, 4488.896
981.6179, 4465.506
982.1000, 4463.493
982.5821, 4484.058
983.0642, 4505.356
983.5463, 4507.953
984.0284, 4505.763
984.5106, 4518.800
984.9927, 4542.765
985.4748, 4555.568
985.9569, 4536.625
986.4390, 4524.707
986.9211, 4531.836
987.4033, 4547.308
987.8854, 4542.424
988.3675, 4520.928
988.8496, 4514.570
989.3317, 4537.032
989.8138, 4562.001
990.2960, 4564.183
990.7781, 4557.688
991.2602, 4559.821
991.7423, 4579.622
992.2244, 4590.661
992.7065, 4588.430
993.1887, 4587.513
993.6708, 4605.141
994.1529, 4633.404
994.6350, 4642.152
995.1171, 4632.750
995.5992, 4627.074
996.0814, 4639.499
996.5635, 4657.529
997.0456, 4677.304
997.5277, 4697.348
998.0098, 4712.364
998.4919, 4722.185
998.9741, 4726.591
999.4562, 4721.653
999.9383, 4719.160
1000.420, 4738.880
1000.903, 4773.548
1001.385, 4810.768
1001.867, 4850.439
1002.349, 4884.440
1002.831, 4909.992
1003.313, 4929.967
1003.795, 4941.880
1004.277, 4945.163
1004.759, 4973.382
1005.242, 5028.583
1005.724, 5075.519
1006.206, 5074.421
1006.688, 5063.923
1007.170, 5083.758
1007.652, 5131.861
1008.134, 5168.607
1008.616, 5187.850
1009.099, 5199.855
1009.581, 5205.218
1010.063, 5207.416
1010.545, 5218.302
1011.027, 5233.514
1011.509, 5235.586
1011.991, 5213.229
1012.473, 5190.479
1012.955, 5185.014
1013.438, 5183.287
1013.920, 5170.978
1014.402, 5146.184
1014.884, 5114.872
1015.366, 5074.107
1015.848, 5040.809
1016.330, 5039.966
1016.812, 5049.740
1017.294, 5034.251
1017.777, 4995.118
1018.259, 4952.625
1018.741, 4916.068
1019.223, 4872.977
1019.705, 4813.438
1020.187, 4748.948
1020.669, 4717.471
1021.151, 4715.355
1021.633, 4692.339
1022.116, 4630.801
1022.598, 4556.264
1023.080, 4480.688
1023.562, 4410.227
1024.044, 4353.984
1024.526, 4322.329
1025.008, 4276.953
1025.490, 4213.600
1025.973, 4146.598
1026.455, 4087.261
1026.937, 4032.065
1027.419, 3972.884
1027.901, 3908.797
1028.383, 3838.989
1028.865, 3757.505
1029.347, 3674.888
1029.829, 3591.867
1030.312, 3512.134
1030.794, 3443.280
1031.276, 3386.128
1031.758, 3328.953
1032.240, 3271.954
1032.722, 3208.706
1033.204, 3116.850
1033.686, 3023.311
1034.169, 2963.538
1034.651, 2954.526
1035.133, 2930.836
1035.615, 2877.254
1036.097, 2826.662
1036.579, 2799.892
1037.061, 2789.076
1037.543, 2762.377
1038.026, 2722.506
1038.508, 2684.373
1038.990, 2660.442
1039.472, 2634.446
1039.954, 2591.264
1040.436, 2543.622
1040.918, 2513.238
1041.400, 2503.060
1041.882, 2496.512
1042.365, 2493.125
1042.847, 2485.702
1043.329, 2460.298
1043.811, 2429.863
1044.293, 2413.011
1044.775, 2412.688
1045.257, 2406.102
1045.739, 2382.259
1046.221, 2362.587
1046.704, 2357.564
1047.186, 2361.474
1047.668, 2354.574
1048.150, 2339.251
1048.632, 2326.653
1049.114, 2321.289
1049.596, 2319.784
1050.078, 2324.597
1050.561, 2329.906
1051.043, 2327.960
1051.525, 2316.134
1052.007, 2307.743
1052.489, 2303.066
1052.971, 2301.789
1053.453, 2306.407
1053.935, 2312.509
1054.417, 2315.232
1054.900, 2314.183
1055.382, 2308.822
1055.864, 2295.339
1056.346, 2282.039
1056.828, 2268.848
1057.310, 2258.918
1057.792, 2263.231
1058.274, 2277.056
1058.756, 2281.261
1059.239, 2269.436
1059.721, 2254.574
1060.203, 2238.778
1060.685, 2227.747
1061.167, 2227.818
1061.649, 2240.293
1062.131, 2244.581
1062.613, 2240.127
1063.096, 2235.332
1063.578, 2238.733
1064.060, 2241.862
1064.542, 2229.608
1065.024, 2209.044
1065.506, 2198.048
1065.988, 2211.748
1066.470, 2218.587
1066.953, 2214.475
1067.435, 2205.931
1067.917, 2199.537
1068.399, 2195.526
1068.881, 2196.699
1069.363, 2203.262
1069.845, 2206.112
1070.327, 2192.156
1070.809, 2181.509
1071.292, 2188.150
1071.774, 2206.550
1072.256, 2210.696
1072.738, 2200.340
1073.220, 2186.460
1073.702, 2170.214
1074.184, 2157.501
1074.666, 2159.292
1075.148, 2166.143
1075.630, 2165.129
1076.113, 2147.361
1076.595, 2141.067
1077.077, 2149.345
1077.559, 2159.975
1078.041, 2167.474
1078.523, 2169.838
1079.005, 2157.394
1079.487, 2134.466
1079.970, 2118.918
1080.452, 2127.419
1080.934, 2132.153
1081.416, 2122.920
1081.898, 2110.047
1082.380, 2109.699
1082.862, 2120.833
1083.344, 2136.808
1083.827, 2157.396
1084.309, 2169.809
1084.791, 2157.413
1085.273, 2138.507
1085.755, 2124.509
1086.237, 2116.202
1086.719, 2117.864
1087.201, 2131.684
1087.683, 2141.400
1088.166, 2140.024
1088.648, 2133.709
1089.130, 2130.019
1089.612, 2127.281
1090.094, 2122.262
1090.576, 2109.631
1091.058, 2106.075
1091.540, 2115.687
1092.022, 2127.738
1092.505, 2135.447
1092.987, 2139.205
1093.469, 2140.694
1093.951, 2139.597
1094.433, 2134.569
1094.915, 2117.197
1095.397, 2105.281
1095.879, 2108.365
1096.362, 2117.679
1096.844, 2120.222
1097.326, 2116.273
1097.808, 2117.043
1098.290, 2124.323
1098.772, 2129.955
1099.254, 2128.071
1099.736, 2121.367
1100.219, 2108.309
1100.701, 2090.381
1101.183, 2085.244
1101.665, 2096.084
1102.147, 2104.007
1102.629, 2102.728
1103.111, 2096.575
1103.593, 2087.291
1104.075, 2078.597
1104.557, 2076.246
1105.040, 2083.066
1105.522, 2092.462
1106.004, 2106.398
1106.486, 2117.855
1106.968, 2123.947
1107.450, 2124.192
1107.932, 2111.421
1108.414, 2090.582
1108.897, 2079.565
1109.379, 2099.676
1109.861, 2114.551
1110.343, 2111.436
1110.825, 2100.268
1111.307, 2089.365
1111.789, 2079.109
1112.271, 2076.355
1112.754, 2081.564
1113.236, 2086.952
1113.718, 2084.575
1114.200, 2082.800
1114.682, 2089.667
1115.164, 2102.031
1115.646, 2106.918
1116.128, 2103.148
1116.610, 2100.866
1117.093, 2103.391
1117.575, 2103.373
1118.057, 2084.549
1118.539, 2063.346
1119.021, 2061.752
1119.503, 2086.786
1119.985, 2099.827
1120.467, 2096.500
1120.949, 2089.292
1121.432, 2081.761
1121.914, 2075.786
1122.396, 2073.864
1122.878, 2076.516
1123.360, 2086.062
1123.842, 2115.565
1124.324, 2126.097
1124.806, 2101.395
1125.289, 2073.901
1125.771, 2070.383
1126.253, 2085.552
1126.735, 2092.580
1127.217, 2092.495
1127.699, 2092.492
1128.181, 2097.702
1128.663, 2102.045
1129.146, 2102.391
1129.628, 2100.880
1130.110, 2100.396
1130.592, 2100.874
1131.074, 2100.906
1131.556, 2100.456
1132.038, 2097.205
1132.520, 2081.883
1133.002, 2069.919
1133.484, 2077.594
1133.967, 2099.347
1134.449, 2105.867
1134.931, 2094.340
1135.413, 2092.109
1135.895, 2108.135
1136.377, 2126.036
1136.859, 2128.694
1137.341, 2122.911
1137.824, 2115.277
1138.306, 2106.070
1138.788, 2099.538
1139.270, 2097.203
1139.752, 2091.700
1140.234, 2076.990
1140.716, 2061.066
1141.198, 2059.925
1141.681, 2067.402
1142.163, 2071.665
1142.645, 2065.820
1143.127, 2065.254
1143.609, 2074.452
1144.091, 2082.606
1144.573, 2080.785
1145.055, 2072.295
1145.537, 2065.068
1146.020, 2059.973
1146.502, 2060.573
1146.984, 2076.478
1147.466, 2086.996
1147.948, 2083.975
1148.430, 2078.401
1148.912, 2085.462
1149.394, 2101.905
1149.876, 2106.750
1150.359, 2099.386
1150.841, 2093.542
1151.323, 2102.483
1151.805, 2109.050
1152.287, 2103.850
1152.769, 2091.650
1153.251, 2080.704
1153.733, 2071.146
1154.216, 2065.781
1154.698, 2065.309
1155.180, 2066.661
1155.662, 2065.878
1156.144, 2067.418
1156.626, 2079.040
1157.108, 2097.371
1157.590, 2099.705
1158.073, 2085.034
1158.555, 2074.909
1159.037, 2077.729
1159.519, 2082.431
1160.001, 2075.395
1160.483, 2065.778
1160.965, 2064.896
1161.447, 2074.904
1161.929, 2081.571
1162.411, 2085.225
1162.894, 2083.003
1163.376, 2068.831
1163.858, 2054.026
1164.340, 2054.846
1164.822, 2064.612
1165.304, 2072.047
1165.786, 2073.982
1166.268, 2076.418
1166.751, 2079.548
1167.233, 2082.726
1167.715, 2088.637
1168.197, 2092.447
1168.679, 2081.841
1169.161, 2062.260
1169.643, 2049.640
1170.125, 2055.613
1170.608, 2056.689
1171.090, 2049.248
1171.572, 2041.268
1172.054, 2041.548
1172.536, 2047.333
1173.018, 2054.972
1173.500, 2063.446
1173.982, 2067.986
1174.464, 2063.177
1174.947, 2059.145
1175.429, 2057.732
1175.911, 2057.940
1176.393, 2059.586
1176.875, 2061.432
1177.357, 2058.752
1177.839, 2050.957
1178.321, 2046.809
1178.803, 2052.833
1179.286, 2060.095
1179.768, 2067.199
1180.250, 2072.192
1180.732, 2068.179
1181.214, 2058.094
1181.696, 2051.791
1182.178, 2051.900
1182.660, 2053.685
1183.142, 2057.620
1183.625, 2059.618
1184.107, 2057.001
1184.589, 2051.202
1185.071, 2047.633
1185.553, 2046.008
1186.035, 2045.278
1186.517, 2045.601
1186.999, 2045.498
1187.482, 2041.531
1187.964, 2039.804
1188.446, 2047.859
1188.928, 2063.279
1189.410, 2056.874
1189.892, 2031.819
1190.374, 2011.172
1190.856, 2007.635
1191.339, 2008.080
1191.821, 2009.666
1192.303, 2009.393
1192.785, 2001.054
1193.267, 1984.135
1193.749, 1990.770
1194.231, 2018.981
1194.713, 2042.380
1195.195, 2046.083
1195.677, 2039.444
1196.160, 2016.488
1196.642, 1992.282
1197.124, 1990.161
1197.606, 2011.207
1198.088, 2021.098
1198.570, 2018.277
1199.052, 2010.479
1199.534, 1996.038
1200.017, 1985.582
1200.499, 1988.627
1200.981, 1999.483
1201.463, 2008.084
1201.945, 2014.610
1202.427, 2013.410
1202.909, 2003.439
1203.391, 1995.304
1203.874, 2001.347
1204.356, 2008.685
1204.838, 2006.948
1205.320, 1999.267
1205.802, 1995.421
1206.284, 1995.574
1206.766, 1993.891
1207.248, 1988.899
1207.730, 1985.403
1208.213, 1989.755
1208.695, 1995.231
1209.177, 1997.126
1209.659, 1995.495
1210.141, 1988.773
1210.623, 1976.726
1211.105, 1972.004
1211.587, 1979.382
1212.069, 1988.405
1212.552, 1995.413
1213.034, 1995.398
1213.516, 1977.313
1213.998, 1945.304
1214.480, 1934.665
1214.962, 1945.548
1215.444, 1962.286
1215.926, 1983.559
1216.409, 1997.472
1216.891, 1988.393
1217.373, 1970.722
1217.855, 1957.032
1218.337, 1947.767
1218.819, 1942.570
1219.301, 1941.454
1219.783, 1945.700
1220.266, 1959.896
1220.748, 1971.949
1221.230, 1969.724
1221.712, 1961.790
1222.194, 1957.088
1222.676, 1955.888
1223.158, 1955.449
1223.640, 1955.790
1224.122, 1959.328
1224.604, 1970.302
1225.087, 1980.818
1225.569, 1989.353
1226.051, 1991.175
1226.533, 1977.853
1227.015, 1946.200
1227.497, 1941.627
1227.979, 1963.129
1228.461, 1977.614
1228.944, 1956.381
1229.426, 1931.117
1229.908, 1919.818
1230.390, 1917.067
1230.872, 1914.591
1231.354, 1911.996
1231.836, 1920.823
1232.318, 1940.632
1232.801, 1954.007
1233.283, 1944.034
1233.765, 1931.049
1234.247, 1923.489
1234.729, 1921.795
1235.211, 1927.786
1235.693, 1941.305
1236.175, 1956.569
1236.657, 1972.528
1237.140, 1978.050
1237.622, 1954.211
1238.104, 1931.177
1238.586, 1925.993
1239.068, 1929.150
1239.550, 1928.294
1240.032, 1923.887
1240.514, 1921.211
1240.996, 1920.554
1241.479, 1918.522
1241.961, 1911.470
1242.443, 1904.288
1242.925, 1896.721
1243.407, 1892.122
1243.889, 1897.833
1244.371, 1912.117
1244.853, 1926.956
1245.336, 1941.104
1245.818, 1946.263
1246.300, 1925.856
1246.782, 1910.481
1247.264, 1912.456
1247.746, 1922.998
1248.228, 1926.779
1248.710, 1926.031
1249.193, 1930.275
1249.675, 1940.620
1250.157, 1947.233
1250.639, 1942.835
1251.121, 1937.718
1251.603, 1934.752
1252.085, 1932.921
1252.567, 1931.611
1253.049, 1929.710
1253.531, 1922.817
1254.014, 1910.168
1254.496, 1901.957
1254.978, 1901.829
1255.460, 1906.523
1255.942, 1917.107
1256.424, 1928.610
1256.906, 1932.145
1257.388, 1930.141
1257.871, 1928.287
1258.353, 1927.821
1258.835, 1917.873
1259.317, 1887.276
1259.799, 1870.572
1260.281, 1881.183
1260.763, 1902.371
1261.245, 1912.871
1261.728, 1914.780
1262.210, 1908.261
1262.692, 1892.378
1263.174, 1886.763
1263.656, 1895.443
1264.138, 1901.996
1264.620, 1900.245
1265.102, 1897.125
1265.584, 1905.114
1266.067, 1914.990
1266.549, 1913.367
1267.031, 1898.013
1267.513, 1888.850
1267.995, 1886.064
1268.477, 1888.510
1268.959, 1897.490
1269.441, 1906.353
1269.923, 1908.425
1270.406, 1906.437
1270.888, 1901.463
1271.370, 1894.143
1271.852, 1894.225
1272.334, 1901.779
1272.816, 1904.844
1273.298, 1898.617
1273.780, 1889.830
##END=



