##NAMES=Hellandite-(Ce)
##RRUFFID=R061013
##IDEAL CHEMISTRY=(Ca,REE)_4_Ce_2_Al[box]_2_(B_4_Si_4_O_22_)(OH)_2_
##LOCALITY=Campo Pefella, near Capranica, Viterbo, Latium, Italy
##OWNER=RRUFF
##SOURCE=Michael Scott
##DESCRIPTION=Pale yellow platy crystals
##STATUS=The identification of this mineral is not yet confirmed.
##URL=rruff.info/R061013
178.9000, 9507.949
179.3821, 9481.066
179.8642, 9474.903
180.3464, 9482.386
180.8285, 9495.594
181.3106, 9515.282
181.7927, 9534.039
182.2748, 9539.240
182.7569, 9535.607
183.2391, 9542.629
183.7212, 9574.097
184.2033, 9616.976
184.6854, 9651.051
185.1675, 9673.307
185.6496, 9691.208
186.1318, 9708.402
186.6139, 9725.634
187.0960, 9746.791
187.5781, 9774.161
188.0602, 9805.804
188.5423, 9840.656
189.0245, 9880.074
189.5066, 9917.300
189.9887, 9938.017
190.4708, 9949.847
190.9529, 9977.282
191.4350, 10037.27
191.9172, 10114.86
192.3993, 10183.86
192.8814, 10238.51
193.3635, 10298.67
193.8456, 10386.93
194.3277, 10494.04
194.8099, 10599.15
195.2920, 10697.96
195.7741, 10790.21
196.2562, 10874.24
196.7383, 10949.11
197.2204, 11020.21
197.7026, 11081.91
198.1847, 11141.78
198.6668, 11220.70
199.1489, 11340.70
199.6310, 11478.23
200.1131, 11597.89
200.5953, 11695.56
201.0774, 11786.60
201.5595, 11880.65
202.0416, 11975.89
202.5237, 12066.04
203.0058, 12147.41
203.4880, 12223.75
203.9701, 12300.92
204.4522, 12379.74
204.9343, 12456.12
205.4164, 12522.51
205.8985, 12584.39
206.3807, 12651.90
206.8628, 12730.85
207.3449, 12815.08
207.8270, 12900.09
208.3091, 12987.42
208.7912, 13065.41
209.2734, 13123.51
209.7555, 13167.59
210.2376, 13205.33
210.7197, 13230.23
211.2018, 13256.11
211.6839, 13301.65
212.1661, 13368.57
212.6482, 13435.73
213.1303, 13489.67
213.6124, 13536.18
214.0945, 13584.91
214.5766, 13639.07
215.0588, 13694.30
215.5409, 13746.78
216.0230, 13796.57
216.5051, 13842.33
216.9872, 13881.91
217.4693, 13917.25
217.9515, 13951.18
218.4336, 13979.39
218.9157, 14012.83
219.3978, 14065.92
219.8799, 14137.26
220.3620, 14202.53
220.8442, 14249.26
221.3263, 14284.04
221.8084, 14321.26
222.2905, 14364.39
222.7726, 14403.98
223.2547, 14430.89
223.7369, 14446.94
224.2190, 14464.84
224.7011, 14488.44
225.1832, 14517.65
225.6653, 14553.08
226.1474, 14599.05
226.6296, 14639.38
227.1117, 14662.11
227.5938, 14670.66
228.0759, 14676.24
228.5580, 14678.50
229.0401, 14684.84
229.5223, 14708.69
230.0044, 14754.24
230.4865, 14797.56
230.9686, 14826.95
231.4507, 14846.30
231.9328, 14866.22
232.4150, 14891.56
232.8971, 14914.24
233.3792, 14925.75
233.8613, 14929.81
234.3434, 14911.14
234.8255, 14855.12
235.3077, 14775.42
235.7898, 14698.18
236.2719, 14632.30
236.7540, 14556.10
237.2361, 14431.95
237.7182, 14258.58
238.2004, 14091.77
238.6825, 13942.71
239.1646, 13806.29
239.6467, 13676.66
240.1288, 13552.10
240.6109, 13438.95
241.0931, 13346.05
241.5752, 13275.47
242.0573, 13203.88
242.5394, 13111.52
243.0215, 13028.69
243.5036, 12987.43
243.9858, 12989.03
244.4679, 13004.72
244.9500, 13011.52
245.4321, 13008.85
245.9142, 13010.86
246.3963, 13022.90
246.8785, 13035.06
247.3606, 13035.46
247.8427, 13027.56
248.3248, 13030.29
248.8069, 13059.79
249.2890, 13113.63
249.7712, 13154.81
250.2533, 13179.73
250.7354, 13197.20
251.2175, 13201.28
251.6996, 13199.56
252.1817, 13211.26
252.6639, 13248.94
253.1460, 13307.00
253.6281, 13357.18
254.1102, 13399.30
254.5923, 13434.72
255.0744, 13464.52
255.5566, 13487.79
256.0387, 13501.82
256.5208, 13505.07
257.0029, 13500.97
257.4850, 13498.59
257.9671, 13503.00
258.4492, 13503.22
258.9314, 13500.07
259.4135, 13492.17
259.8956, 13476.94
260.3777, 13453.77
260.8598, 13426.17
261.3419, 13399.27
261.8241, 13369.72
262.3062, 13348.09
262.7883, 13348.39
263.2704, 13346.64
263.7525, 13326.82
264.2346, 13285.53
264.7168, 13227.08
265.1989, 13153.47
265.6810, 13054.22
266.1631, 12975.11
266.6452, 12926.23
267.1273, 12885.33
267.6095, 12846.10
268.0916, 12805.53
268.5737, 12759.69
269.0558, 12703.84
269.5379, 12636.87
270.0201, 12574.64
270.5022, 12524.21
270.9843, 12471.64
271.4664, 12403.62
271.9485, 12330.63
272.4306, 12275.55
272.9128, 12259.03
273.3949, 12270.24
273.8770, 12249.72
274.3591, 12170.77
274.8412, 12097.92
275.3233, 12045.89
275.8055, 12010.34
276.2876, 11986.33
276.7697, 11972.57
277.2518, 11966.17
277.7339, 11958.83
278.2160, 11944.55
278.6982, 11946.25
279.1803, 11988.99
279.6624, 12039.69
280.1445, 12067.37
280.6266, 12062.12
281.1087, 12050.81
281.5909, 12062.76
282.0730, 12098.79
282.5551, 12148.54
283.0372, 12217.23
283.5193, 12294.59
284.0014, 12374.97
284.4836, 12458.00
284.9657, 12536.68
285.4478, 12603.79
285.9299, 12661.80
286.4120, 12718.44
286.8941, 12770.71
287.3763, 12829.14
287.8584, 12907.83
288.3405, 13002.55
288.8226, 13090.75
289.3047, 13154.74
289.7868, 13209.09
290.2690, 13281.49
290.7511, 13376.96
291.2332, 13472.16
291.7153, 13548.44
292.1974, 13609.27
292.6795, 13667.00
293.1617, 13720.36
293.6438, 13773.30
294.1259, 13824.61
294.6080, 13875.54
295.0901, 13937.71
295.5722, 14017.43
296.0544, 14113.65
296.5365, 14222.43
297.0186, 14364.38
297.5007, 14491.65
297.9828, 14567.51
298.4649, 14616.12
298.9471, 14688.45
299.4292, 14806.16
299.9113, 14953.82
300.3934, 15100.09
300.8755, 15240.26
301.3576, 15389.22
301.8398, 15564.74
302.3219, 15741.23
302.8040, 15886.28
303.2861, 15994.78
303.7682, 16094.67
304.2503, 16221.80
304.7325, 16385.79
305.2146, 16545.94
305.6967, 16703.43
306.1788, 16856.43
306.6609, 16998.80
307.1430, 17135.17
307.6252, 17282.74
308.1073, 17458.31
308.5894, 17661.78
309.0715, 17837.10
309.5536, 17947.91
310.0357, 18069.82
310.5179, 18222.26
311.0000, 18396.72
311.4821, 18579.57
311.9642, 18764.78
312.4463, 18952.80
312.9284, 19143.62
313.4106, 19338.46
313.8927, 19533.97
314.3748, 19750.39
314.8569, 19957.10
315.3390, 20121.37
315.8211, 20235.38
316.3033, 20329.65
316.7854, 20442.72
317.2675, 20577.08
317.7496, 20706.80
318.2317, 20842.51
318.7138, 20957.52
319.1960, 21028.21
319.6781, 21058.46
320.1602, 21079.00
320.6423, 21091.81
321.1244, 21108.43
321.6065, 21179.38
322.0887, 21327.43
322.5708, 21482.14
323.0529, 21586.51
323.5350, 21659.92
324.0171, 21743.99
324.4992, 21857.77
324.9814, 21982.93
325.4635, 22106.59
325.9456, 22229.13
326.4277, 22328.73
326.9098, 22383.14
327.3919, 22412.03
327.8741, 22467.66
328.3562, 22555.93
328.8383, 22659.81
329.3204, 22782.60
329.8025, 22914.85
330.2846, 23038.03
330.7668, 23145.82
331.2489, 23241.32
331.7310, 23328.52
332.2131, 23409.99
332.6952, 23474.74
333.1773, 23520.35
333.6595, 23550.22
334.1416, 23561.57
334.6237, 23556.92
335.1058, 23549.12
335.5879, 23551.27
336.0700, 23565.49
336.5522, 23565.50
337.0343, 23541.37
337.5164, 23515.60
337.9985, 23493.35
338.4806, 23475.42
338.9627, 23465.91
339.4449, 23469.28
339.9270, 23474.38
340.4091, 23439.92
340.8912, 23326.70
341.3733, 23237.27
341.8554, 23199.12
342.3376, 23179.10
342.8197, 23151.89
343.3018, 23110.12
343.7839, 23055.61
344.2660, 22989.81
344.7481, 22912.16
345.2303, 22826.06
345.7124, 22728.46
346.1945, 22625.47
346.6766, 22521.94
347.1587, 22416.54
347.6408, 22302.29
348.1230, 22177.74
348.6051, 22040.73
349.0872, 21881.52
349.5693, 21693.88
350.0514, 21502.95
350.5335, 21331.15
351.0157, 21164.48
351.4978, 20977.61
351.9799, 20757.93
352.4620, 20526.68
352.9441, 20294.51
353.4262, 20062.82
353.9084, 19844.86
354.3905, 19652.51
354.8726, 19464.18
355.3547, 19232.40
355.8368, 18939.63
356.3189, 18672.52
356.8011, 18466.98
357.2832, 18287.69
357.7653, 18098.74
358.2474, 17893.57
358.7295, 17675.97
359.2116, 17444.56
359.6938, 17195.80
360.1759, 16974.23
360.6580, 16799.53
361.1401, 16628.51
361.6222, 16446.33
362.1043, 16254.31
362.5865, 16057.38
363.0686, 15856.75
363.5507, 15654.71
364.0328, 15460.56
364.5149, 15282.41
364.9970, 15098.16
365.4792, 14896.29
365.9613, 14692.37
366.4434, 14502.62
366.9255, 14328.65
367.4076, 14157.83
367.8897, 13972.06
368.3719, 13769.67
368.8540, 13577.03
369.3361, 13400.03
369.8182, 13229.35
370.3003, 13061.51
370.7824, 12896.09
371.2646, 12732.78
371.7467, 12570.77
372.2288, 12411.79
372.7109, 12261.00
373.1930, 12119.91
373.6751, 11975.31
374.1573, 11813.58
374.6394, 11648.76
375.1215, 11506.28
375.6036, 11391.92
376.0857, 11289.60
376.5678, 11199.80
377.0500, 11115.39
377.5321, 11022.65
378.0142, 10917.95
378.4963, 10801.82
378.9784, 10669.67
379.4605, 10510.61
379.9427, 10384.77
380.4248, 10314.66
380.9069, 10259.74
381.3890, 10191.05
381.8711, 10112.19
382.3532, 10045.50
382.8354, 10008.14
383.3175, 9993.306
383.7996, 9957.599
384.2817, 9873.968
384.7638, 9801.682
385.2459, 9748.393
385.7281, 9708.812
386.2102, 9681.391
386.6923, 9664.372
387.1744, 9648.105
387.6565, 9614.609
388.1386, 9557.721
388.6208, 9522.591
389.1029, 9528.186
389.5850, 9540.621
390.0671, 9547.054
390.5492, 9546.302
391.0313, 9537.400
391.5135, 9512.976
391.9956, 9483.396
392.4777, 9469.528
392.9598, 9472.733
393.4419, 9482.800
393.9240, 9499.846
394.4062, 9518.508
394.8883, 9527.053
395.3704, 9517.033
395.8525, 9516.332
396.3346, 9552.543
396.8167, 9605.549
397.2989, 9630.814
397.7810, 9615.825
398.2631, 9593.752
398.7452, 9603.762
399.2273, 9654.259
399.7094, 9692.415
400.1916, 9703.397
400.6737, 9715.974
401.1558, 9744.634
401.6379, 9788.020
402.1200, 9841.087
402.6021, 9902.433
403.0843, 9967.994
403.5664, 10021.68
404.0485, 10043.33
404.5306, 10087.30
405.0127, 10174.94
405.4948, 10273.63
405.9770, 10356.63
406.4591, 10420.42
406.9412, 10480.82
407.4233, 10549.24
407.9054, 10626.53
408.3875, 10720.28
408.8697, 10836.07
409.3518, 10960.28
409.8339, 11089.04
410.3160, 11220.39
410.7981, 11348.40
411.2802, 11469.59
411.7624, 11589.66
412.2445, 11710.75
412.7266, 11833.47
413.2087, 11970.90
413.6908, 12132.40
414.1729, 12302.23
414.6551, 12454.27
415.1372, 12584.93
415.6193, 12718.79
416.1014, 12871.07
416.5835, 13020.62
417.0656, 13147.43
417.5478, 13250.50
418.0299, 13337.50
418.5120, 13413.64
418.9941, 13479.65
419.4762, 13546.48
419.9583, 13616.81
420.4405, 13684.97
420.9226, 13762.39
421.4047, 13831.87
421.8868, 13874.02
422.3689, 13883.52
422.8510, 13871.50
423.3332, 13847.13
423.8153, 13807.19
424.2974, 13781.13
424.7795, 13795.63
425.2616, 13794.32
425.7437, 13742.64
426.2259, 13654.16
426.7080, 13563.33
427.1901, 13488.68
427.6722, 13416.53
428.1543, 13322.83
428.6364, 13208.61
429.1186, 13103.46
429.6007, 13022.45
430.0828, 12952.95
430.5649, 12870.85
431.0470, 12772.10
431.5291, 12680.38
432.0113, 12606.42
432.4934, 12540.45
432.9755, 12470.72
433.4576, 12396.90
433.9397, 12329.21
434.4218, 12277.87
434.9040, 12241.04
435.3861, 12186.06
435.8682, 12073.95
436.3503, 11990.26
436.8324, 11971.38
437.3145, 11978.43
437.7967, 11965.92
438.2788, 11920.74
438.7609, 11866.07
439.2430, 11833.34
439.7251, 11826.03
440.2072, 11809.13
440.6894, 11773.41
441.1715, 11736.92
441.6536, 11710.68
442.1357, 11690.66
442.6178, 11667.15
443.0999, 11635.80
443.5821, 11599.83
444.0642, 11557.47
444.5463, 11510.38
445.0284, 11478.30
445.5105, 11470.22
445.9926, 11477.42
446.4748, 11490.43
446.9569, 11513.72
447.4390, 11521.44
447.9211, 11481.27
448.4032, 11444.22
448.8853, 11419.30
449.3675, 11540.69
449.8496, 11623.15
450.3317, 11668.78
450.8138, 11567.25
451.2959, 11655.74
451.7780, 11668.09
452.2602, 11677.31
452.7423, 11792.55
453.2244, 11712.42
453.7065, 11825.98
454.1886, 11808.53
454.6707, 11863.60
455.1529, 11918.57
455.6350, 11974.61
456.1171, 12044.94
456.5992, 12134.58
457.0813, 12227.54
457.5634, 12321.10
458.0455, 12411.03
458.5276, 12487.68
459.0098, 12541.08
459.4919, 12596.67
459.9740, 12673.23
460.4561, 12765.24
460.9382, 12859.51
461.4203, 12953.47
461.9025, 13046.77
462.3846, 13141.08
462.8667, 13238.49
463.3488, 13322.38
463.8309, 13376.96
464.3130, 13435.56
464.7952, 13517.46
465.2773, 13613.07
465.7594, 13707.41
466.2415, 13794.07
466.7236, 13865.82
467.2057, 13901.27
467.6879, 13882.60
468.1700, 13890.78
468.6521, 13976.92
469.1342, 14052.42
469.6163, 14064.24
470.0984, 14024.53
470.5806, 13981.15
471.0627, 13962.72
471.5448, 13951.20
472.0269, 13921.95
472.5090, 13874.85
472.9911, 13810.42
473.4733, 13721.21
473.9554, 13622.34
474.4375, 13541.95
474.9196, 13482.12
475.4017, 13424.98
475.8839, 13377.85
476.3660, 13324.37
476.8481, 13243.33
477.3302, 13139.97
477.8123, 13042.92
478.2944, 12973.61
478.7766, 12922.71
479.2587, 12847.20
479.7408, 12716.62
480.2229, 12612.64
480.7050, 12557.35
481.1871, 12519.90
481.6693, 12482.58
482.1514, 12440.74
482.6335, 12391.04
483.1156, 12326.31
483.5977, 12251.61
484.0798, 12185.20
484.5620, 12128.74
485.0441, 12071.49
485.5262, 11998.76
486.0083, 11925.92
486.4904, 11887.84
486.9725, 11903.30
487.4547, 11909.64
487.9368, 11881.41
488.4189, 11831.47
488.9010, 11772.51
489.3831, 11707.91
489.8652, 11642.08
490.3474, 11577.63
490.8295, 11515.39
491.3116, 11463.79
491.7937, 11431.13
492.2758, 11400.13
492.7579, 11375.14
493.2401, 11347.13
493.7222, 11303.42
494.2043, 11242.90
494.6864, 11181.67
495.1685, 11144.42
495.6506, 11124.46
496.1328, 11067.76
496.6149, 10954.78
497.0970, 10852.34
497.5791, 10810.70
498.0612, 10804.16
498.5433, 10781.39
499.0255, 10730.12
499.5076, 10676.80
499.9897, 10633.95
500.4718, 10597.29
500.9539, 10561.08
501.4360, 10524.06
501.9182, 10484.87
502.4003, 10440.10
502.8824, 10389.55
503.3645, 10360.08
503.8466, 10380.23
504.3287, 10388.65
504.8109, 10356.61
505.2930, 10316.31
505.7751, 10311.56
506.2572, 10351.05
506.7393, 10389.72
507.2214, 10366.83
507.7036, 10293.42
508.1857, 10261.45
508.6678, 10286.58
509.1499, 10323.13
509.6320, 10348.55
510.1141, 10364.56
510.5963, 10374.69
511.0784, 10376.06
511.5605, 10376.91
512.0426, 10380.35
512.5247, 10385.78
513.0068, 10388.71
513.4890, 10389.54
513.9711, 10402.00
514.4532, 10443.06
514.9353, 10512.21
515.4174, 10552.14
515.8995, 10529.19
516.3817, 10517.33
516.8638, 10533.64
517.3459, 10564.30
517.8280, 10593.82
518.3101, 10619.17
518.7922, 10650.20
519.2744, 10702.69
519.7565, 10769.63
520.2386, 10822.93
520.7207, 10860.98
521.2028, 10884.47
521.6849, 10879.69
522.1671, 10864.57
522.6492, 10887.34
523.1313, 10966.83
523.6134, 11048.06
524.0955, 11114.02
524.5776, 11172.16
525.0598, 11233.30
525.5419, 11297.37
526.0240, 11352.03
526.5061, 11384.31
526.9882, 11400.21
527.4703, 11443.85
527.9525, 11532.60
528.4346, 11621.49
528.9167, 11699.95
529.3988, 11776.86
529.8809, 11860.22
530.3630, 11950.30
530.8452, 12041.17
531.3273, 12128.56
531.8094, 12213.56
532.2915, 12297.99
532.7736, 12382.03
533.2557, 12468.65
533.7379, 12562.09
534.2200, 12656.09
534.7021, 12733.25
535.1842, 12778.86
535.6663, 12844.37
536.1484, 12954.83
536.6306, 13070.99
537.1127, 13161.13
537.5948, 13229.97
538.0769, 13300.02
538.5590, 13386.40
539.0411, 13479.45
539.5233, 13553.78
540.0054, 13603.55
540.4875, 13656.79
540.9696, 13725.23
541.4517, 13791.38
541.9338, 13840.06
542.4160, 13874.24
542.8981, 13910.11
543.3802, 13949.13
543.8623, 13995.80
544.3444, 14066.98
544.8265, 14150.75
545.3087, 14202.18
545.7908, 14202.93
546.2729, 14192.57
546.7550, 14232.67
547.2371, 14346.58
547.7192, 14407.53
548.2014, 14366.63
548.6835, 14331.42
549.1656, 14345.62
549.6477, 14387.63
550.1298, 14425.73
550.6119, 14448.92
551.0941, 14458.73
551.5762, 14454.03
552.0583, 14436.27
552.5404, 14415.06
553.0225, 14390.45
553.5046, 14365.86
553.9868, 14344.29
554.4689, 14324.96
554.9510, 14304.40
555.4331, 14285.69
555.9152, 14261.57
556.3973, 14216.23
556.8795, 14172.01
557.3616, 14162.61
557.8437, 14186.44
558.3258, 14205.46
558.8079, 14184.64
559.2900, 14133.42
559.7722, 14108.16
560.2543, 14119.58
560.7364, 14132.77
561.2185, 14146.08
561.7006, 14152.76
562.1827, 14139.88
562.6649, 14109.13
563.1470, 14091.83
563.6291, 14123.34
564.1112, 14162.06
564.5933, 14150.75
565.0754, 14098.56
565.5576, 14056.52
566.0397, 14047.05
566.5218, 14055.18
567.0039, 14056.15
567.4860, 14051.27
567.9681, 14034.98
568.4503, 13999.06
568.9324, 13962.03
569.4145, 13941.49
569.8966, 13922.96
570.3787, 13878.77
570.8608, 13796.46
571.3430, 13703.14
571.8251, 13635.83
572.3072, 13588.17
572.7893, 13520.38
573.2714, 13422.70
573.7535, 13327.06
574.2357, 13259.39
574.7178, 13214.18
575.1999, 13162.07
575.6820, 13102.68
576.1641, 13037.44
576.6462, 12964.72
577.1284, 12887.87
577.6105, 12807.76
578.0926, 12726.15
578.5747, 12646.56
579.0568, 12568.46
579.5389, 12497.45
580.0211, 12461.74
580.5032, 12477.53
580.9853, 12461.48
581.4674, 12368.25
581.9495, 12257.04
582.4316, 12186.26
582.9138, 12153.14
583.3959, 12118.51
583.8780, 12062.89
584.3601, 12009.75
584.8422, 11983.67
585.3243, 11973.02
585.8065, 11948.80
586.2886, 11901.31
586.7707, 11846.09
587.2528, 11804.77
587.7349, 11779.30
588.2170, 11748.63
588.6992, 11710.26
589.1813, 11669.99
589.6634, 11615.56
590.1455, 11567.33
590.6276, 11558.12
591.1097, 11597.32
591.5919, 11628.28
592.0740, 11595.32
592.5561, 11538.69
593.0382, 11530.29
593.5203, 11570.22
594.0024, 11607.41
594.4846, 11613.16
594.9667, 11599.59
595.4488, 11597.11
595.9309, 11614.16
596.4130, 11625.91
596.8951, 11629.99
597.3773, 11631.72
597.8594, 11626.67
598.3415, 11622.42
598.8236, 11633.55
599.3057, 11667.37
599.7878, 11714.64
600.2700, 11769.88
600.7521, 11830.44
601.2342, 11883.91
601.7163, 11927.75
602.1984, 11968.19
602.6805, 12007.58
603.1627, 12047.40
603.6448, 12098.17
604.1269, 12172.52
604.6090, 12239.79
605.0911, 12294.71
605.5732, 12342.09
606.0554, 12380.51
606.5375, 12414.09
607.0196, 12454.58
607.5017, 12510.79
607.9838, 12576.98
608.4659, 12642.85
608.9481, 12708.16
609.4302, 12774.20
609.9123, 12841.09
610.3944, 12909.71
610.8765, 12984.15
611.3586, 13063.89
611.8408, 13128.67
612.3229, 13170.82
612.8050, 13206.90
613.2871, 13233.93
613.7692, 13263.03
614.2513, 13312.34
614.7335, 13382.41
615.2156, 13450.00
615.6977, 13489.57
616.1798, 13511.21
616.6619, 13562.74
617.1440, 13652.01
617.6262, 13729.61
618.1083, 13770.97
618.5904, 13801.08
619.0725, 13854.49
619.5546, 13931.69
620.0367, 13996.83
620.5189, 14042.10
621.0010, 14075.13
621.4831, 14085.69
621.9652, 14091.32
622.4473, 14126.22
622.9294, 14198.65
623.4116, 14276.61
623.8937, 14319.42
624.3758, 14330.09
624.8579, 14357.93
625.3400, 14408.26
625.8221, 14461.16
626.3043, 14514.43
626.7864, 14562.33
627.2685, 14594.34
627.7506, 14607.43
628.2327, 14628.83
628.7148, 14679.04
629.1970, 14728.44
629.6791, 14747.75
630.1612, 14749.47
630.6433, 14763.97
631.1254, 14803.05
631.6075, 14853.89
632.0897, 14901.96
632.5718, 14947.65
633.0539, 14980.08
633.5360, 14993.29
634.0181, 15005.38
634.5002, 15021.48
634.9824, 15042.73
635.4645, 15071.76
635.9466, 15110.17
636.4287, 15148.32
636.9108, 15190.10
637.3929, 15224.42
637.8751, 15234.50
638.3572, 15228.91
638.8393, 15232.37
639.3214, 15255.79
639.8035, 15286.39
640.2856, 15304.85
640.7678, 15310.49
641.2499, 15310.46
641.7320, 15302.93
642.2141, 15293.32
642.6962, 15236.32
643.1783, 15330.83
643.6605, 15386.43
644.1426, 15405.19
644.6247, 15276.79
645.1068, 15338.42
645.5889, 15323.89
646.0710, 15306.24
646.5532, 15394.61
647.0353, 15287.62
647.5174, 15374.31
647.9995, 15383.68
648.4816, 15428.44
648.9637, 15396.58
649.4459, 15388.39
649.9280, 15349.08
650.4101, 15362.44
650.8922, 15374.35
651.3743, 15381.50
651.8564, 15376.24
652.3386, 15352.27
652.8207, 15335.89
653.3028, 15339.60
653.7849, 15349.69
654.2670, 15354.63
654.7491, 15355.98
655.2313, 15361.04
655.7134, 15373.14
656.1955, 15387.25
656.6776, 15395.62
657.1597, 15398.21
657.6418, 15400.95
658.1240, 15404.75
658.6061, 15407.17
659.0882, 15408.78
659.5703, 15407.31
660.0524, 15399.54
660.5345, 15386.79
661.0167, 15363.89
661.4988, 15314.92
661.9809, 15269.16
662.4630, 15251.34
662.9451, 15252.03
663.4272, 15249.37
663.9094, 15234.50
664.3915, 15212.61
664.8736, 15184.12
665.3557, 15151.54
665.8378, 15147.18
666.3199, 15181.65
666.8021, 15199.55
667.2842, 15168.33
667.7663, 15108.66
668.2484, 15058.82
668.7305, 15015.76
669.2126, 14990.95
669.6948, 15000.80
670.1769, 15013.43
670.6590, 15018.02
671.1411, 15011.62
671.6232, 14989.08
672.1053, 14949.31
672.5875, 14904.84
673.0696, 14863.60
673.5517, 14828.21
674.0338, 14809.76
674.5159, 14808.98
674.9980, 14811.62
675.4802, 14813.65
675.9623, 14812.23
676.4444, 14803.49
676.9265, 14788.66
677.4086, 14760.72
677.8907, 14704.10
678.3729, 14653.45
678.8550, 14627.77
679.3371, 14610.90
679.8192, 14584.30
680.3013, 14543.70
680.7834, 14494.30
681.2656, 14430.01
681.7477, 14364.03
682.2298, 14323.53
682.7119, 14303.98
683.1940, 14279.57
683.6761, 14241.90
684.1583, 14191.54
684.6404, 14125.08
685.1225, 14040.58
685.6046, 13981.16
686.0867, 13971.76
686.5688, 13952.91
687.0510, 13904.39
687.5331, 13847.84
688.0152, 13804.14
688.4973, 13773.06
688.9794, 13734.51
689.4615, 13669.14
689.9437, 13602.09
690.4258, 13557.91
690.9079, 13528.01
691.3900, 13494.43
691.8721, 13452.82
692.3542, 13408.60
692.8364, 13365.90
693.3185, 13324.92
693.8006, 13290.86
694.2827, 13269.90
694.7648, 13233.58
695.2469, 13155.84
695.7291, 13083.10
696.2112, 13061.27
696.6933, 13078.16
697.1754, 13084.64
697.6575, 13080.46
698.1396, 13055.14
698.6218, 12989.50
699.1039, 12910.31
699.5860, 12847.90
700.0681, 12801.95
700.5502, 12752.29
701.0323, 12685.68
701.5145, 12613.13
701.9966, 12555.00
702.4787, 12510.88
702.9608, 12472.62
703.4429, 12442.22
703.9250, 12405.13
704.4072, 12347.15
704.8893, 12276.96
705.3714, 12222.96
705.8535, 12199.13
706.3356, 12166.46
706.8177, 12114.11
707.2999, 12061.56
707.7820, 12019.34
708.2641, 11984.83
708.7462, 11952.86
709.2283, 11921.89
709.7104, 11889.50
710.1926, 11843.31
710.6747, 11797.66
711.1568, 11793.50
711.6389, 11825.40
712.1210, 11833.37
712.6031, 11788.86
713.0853, 11714.96
713.5674, 11645.30
714.0495, 11577.13
714.5316, 11532.67
715.0137, 11533.07
715.4958, 11524.98
715.9780, 11489.47
716.4601, 11439.07
716.9422, 11381.90
717.4243, 11319.30
717.9064, 11264.45
718.3885, 11227.49
718.8707, 11194.94
719.3528, 11150.90
719.8349, 11107.02
720.3170, 11091.56
720.7991, 11105.68
721.2813, 11111.33
721.7634, 11071.90
722.2455, 11001.57
722.7276, 10945.92
723.2097, 10906.04
723.6918, 10865.44
724.1740, 10819.25
724.6561, 10774.36
725.1382, 10734.62
725.6203, 10700.83
726.1024, 10682.25
726.5845, 10696.91
727.0667, 10699.93
727.5488, 10694.30
728.0309, 10668.83
728.5130, 10601.94
728.9951, 10509.78
729.4772, 10429.95
729.9594, 10377.17
730.4415, 10342.74
730.9236, 10329.44
731.4057, 10325.67
731.8878, 10307.35
732.3699, 10273.62
732.8521, 10235.15
733.3342, 10196.15
733.8163, 10161.58
734.2984, 10143.35
734.7805, 10147.13
735.2626, 10131.73
735.7448, 10089.28
736.2269, 10041.27
736.7090, 9993.035
737.1911, 9945.598
737.6732, 9897.681
738.1553, 9848.579
738.6375, 9811.003
739.1196, 9795.148
739.6017, 9783.666
740.0838, 9776.364
740.5659, 9763.024
741.0480, 9725.365
741.5302, 9663.800
742.0123, 9602.361
742.4944, 9562.522
742.9765, 9531.317
743.4586, 9478.437
743.9407, 9407.259
744.4229, 9346.569
744.9050, 9302.724
745.3871, 9270.399
745.8692, 9249.129
746.3513, 9233.647
746.8334, 9197.102
747.3156, 9119.563
747.7977, 9058.120
748.2798, 9018.469
748.7619, 8991.714
749.2440, 8984.739
749.7261, 8984.713
750.2083, 8965.829
750.6904, 8917.682
751.1725, 8871.865
751.6546, 8847.670
752.1367, 8830.013
752.6188, 8803.520
753.1010, 8771.078
753.5831, 8742.167
754.0652, 8720.278
754.5473, 8702.347
755.0294, 8687.239
755.5115, 8673.211
755.9937, 8648.974
756.4758, 8613.577
756.9579, 8582.418
757.4400, 8559.285
757.9221, 8545.229
758.4042, 8543.138
758.8864, 8553.017
759.3685, 8560.413
759.8506, 8566.720
760.3327, 8568.426
760.8148, 8564.716
761.2969, 8556.509
761.7791, 8538.563
762.2612, 8516.570
762.7433, 8506.893
763.2254, 8518.700
763.7075, 8535.680
764.1896, 8551.686
764.6718, 8563.624
765.1539, 8566.553
765.6360, 8561.327
766.1181, 8549.265
766.6002, 8530.633
767.0823, 8517.809
767.5645, 8540.125
768.0466, 8592.272
768.5287, 8597.033
769.0108, 8543.109
769.4929, 8509.042
769.9750, 8531.823
770.4572, 8578.443
770.9393, 8606.945
771.4214, 8616.570
771.9035, 8614.921
772.3856, 8578.816
772.8677, 8562.262
773.3499, 8602.014
773.8320, 8644.497
774.3141, 8633.714
774.7962, 8581.244
775.2783, 8550.203
775.7604, 8574.603
776.2426, 8609.371
776.7247, 8620.637
777.2068, 8625.558
777.6889, 8653.271
778.1710, 8699.263
778.6531, 8733.896
779.1353, 8741.552
779.6174, 8733.808
780.0995, 8722.661
780.5816, 8710.044
781.0637, 8717.730
781.5458, 8749.353
782.0280, 8774.415
782.5101, 8776.756
782.9922, 8772.853
783.4743, 8788.284
783.9564, 8826.546
784.4385, 8851.739
784.9207, 8855.967
785.4028, 8857.165
785.8849, 8858.059
786.3670, 8857.355
786.8491, 8850.557
787.3312, 8840.334
787.8134, 8839.832
788.2955, 8871.647
788.7776, 8885.042
789.2597, 8835.972
789.7418, 8766.554
790.2239, 8718.854
790.7061, 8694.865
791.1882, 8682.015
791.6703, 8674.846
792.1524, 8670.428
792.6345, 8667.162
793.1166, 8663.601
793.5988, 8657.483
794.0809, 8648.275
794.5630, 8618.684
795.0451, 8558.453
795.5272, 8491.805
796.0093, 8450.802
796.4915, 8435.530
796.9736, 8414.334
797.4557, 8383.597
797.9378, 8353.938
798.4199, 8324.986
798.9020, 8300.133
799.3842, 8283.663
799.8663, 8273.499
800.3484, 8262.706
800.8305, 8255.823
801.3126, 8239.096
801.7947, 8196.670
802.2769, 8154.006
802.7590, 8135.082
803.2411, 8130.268
803.7232, 8112.959
804.2053, 8074.096
804.6874, 8042.968
805.1696, 8055.873
805.6517, 8086.066
806.1338, 8089.854
806.6159, 8072.554
807.0980, 8053.701
807.5801, 8039.835
808.0623, 8041.423
808.5444, 8071.648
809.0265, 8122.422
809.5086, 8160.120
809.9907, 8183.705
810.4728, 8201.063
810.9550, 8211.109
811.4371, 8220.619
811.9192, 8231.382
812.4013, 8246.506
812.8834, 8276.771
813.3655, 8338.534
813.8477, 8381.134
814.3298, 8385.856
814.8119, 8393.552
815.2940, 8417.607
815.7761, 8454.890
816.2582, 8506.742
816.7404, 8572.016
817.2225, 8624.775
817.7046, 8650.901
818.1867, 8664.896
818.6688, 8670.443
819.1509, 8673.001
819.6331, 8676.579
820.1152, 8683.926
820.5973, 8701.806
821.0794, 8736.063
821.5615, 8775.875
822.0436, 8802.655
822.5258, 8822.757
823.0079, 8859.598
823.4900, 8913.932
823.9721, 8970.281
824.4542, 9022.783
824.9363, 9064.309
825.4185, 9079.341
825.9006, 9067.288
826.3827, 9081.539
826.8648, 9133.086
827.3469, 9176.424
827.8290, 9199.295
828.3111, 9209.257
828.7932, 9205.390
829.2753, 9191.703
829.7574, 9202.417
830.2396, 9265.287
830.7217, 9310.762
831.2038, 9319.598
831.6859, 9323.088
832.1680, 9337.018
832.6501, 9359.303
833.1323, 9385.909
833.6144, 9416.453
834.0965, 9443.043
834.5786, 9461.104
835.0607, 9473.916
835.5428, 9475.422
836.0250, 9477.190
836.5071, 9498.933
836.9892, 9543.165
837.4713, 9599.633
837.9534, 9668.029
838.4355, 9729.906
838.9177, 9743.697
839.3998, 9725.504
839.8819, 9733.798
840.3640, 9774.814
840.8461, 9829.191
841.3282, 9888.568
841.8104, 9940.156
842.2925, 9954.386
842.7746, 9928.389
843.2567, 9933.983
843.7388, 9977.636
844.2209, 10030.64
844.7031, 10090.38
845.1852, 10145.84
845.6673, 10182.62
846.1494, 10202.46
846.6315, 10232.41
847.1136, 10298.31
847.5958, 10335.85
848.0779, 10312.66
848.5600, 10289.68
849.0421, 10310.12
849.5242, 10351.07
850.0063, 10367.29
850.4885, 10348.18
850.9706, 10327.34
851.4527, 10315.38
851.9348, 10306.90
852.4169, 10305.02
852.8990, 10301.10
853.3812, 10282.20
853.8633, 10248.26
854.3454, 10212.40
854.8275, 10188.43
855.3096, 10154.01
855.7917, 10067.36
856.2739, 9958.399
856.7560, 9893.025
857.2381, 9868.503
857.7202, 9835.219
858.2023, 9769.795
858.6844, 9695.654
859.1666, 9648.301
859.6487, 9620.613
860.1308, 9567.750
860.6129, 9489.134
861.0950, 9410.691
861.5771, 9337.978
862.0593, 9271.965
862.5414, 9215.291
863.0235, 9164.900
863.5056, 9107.211
863.9877, 9038.677
864.4698, 8973.896
864.9520, 8915.077
865.4341, 8857.737
865.9162, 8806.233
866.3983, 8751.009
866.8804, 8670.591
867.3625, 8558.474
867.8447, 8472.639
868.3268, 8437.784
868.8089, 8399.844
869.2910, 8345.256
869.7731, 8282.302
870.2552, 8215.592
870.7374, 8147.015
871.2195, 8079.448
871.7016, 8014.694
872.1837, 7949.608
872.6658, 7882.197
873.1479, 7814.381
873.6301, 7747.939
874.1122, 7681.516
874.5943, 7608.872
875.0764, 7530.182
875.5585, 7458.942
876.0406, 7410.711
876.5228, 7367.290
877.0049, 7304.721
877.4870, 7229.642
877.9691, 7151.363
878.4512, 7073.782
878.9333, 7009.403
879.4155, 6966.044
879.8976, 6926.422
880.3797, 6862.370
880.8618, 6778.840
881.3439, 6702.482
881.8260, 6633.722
882.3082, 6566.351
882.7903, 6498.901
883.2724, 6432.580
883.7545, 6370.298
884.2366, 6309.729
884.7188, 6239.539
885.2009, 6155.850
885.6830, 6080.674
886.1651, 6015.545
886.6472, 5960.976
887.1293, 5922.710
887.6115, 5889.149
888.0936, 5836.725
888.5757, 5758.614
889.0578, 5707.925
889.5399, 5718.748
890.0220, 5707.528
890.5042, 5640.572
890.9863, 5563.730
891.4684, 5507.432
891.9505, 5468.331
892.4326, 5433.983
892.9147, 5405.821
893.3969, 5375.375
893.8790, 5338.739
894.3611, 5301.823
894.8432, 5269.518
895.3253, 5238.086
895.8074, 5198.203
896.2896, 5151.406
896.7717, 5119.515
897.2538, 5124.681
897.7359, 5130.966
898.2180, 5107.645
898.7001, 5079.136
899.1823, 5080.137
899.6644, 5099.968
900.1465, 5100.802
900.6286, 5068.486
901.1107, 5035.464
901.5928, 5032.919
902.0750, 5044.659
902.5571, 5047.219
903.0392, 5045.146
903.5213, 5052.106
904.0034, 5069.460
904.4855, 5087.413
904.9677, 5100.024
905.4498, 5107.488
905.9319, 5109.776
906.4140, 5107.155
906.8961, 5097.254
907.3782, 5081.329
907.8604, 5075.378
908.3425, 5085.288
908.8246, 5104.993
909.3067, 5130.768
909.7888, 5158.188
910.2709, 5166.348
910.7531, 5153.640
911.2352, 5141.977
911.7173, 5133.543
912.1994, 5129.451
912.6815, 5131.602
913.1636, 5136.046
913.6458, 5137.054
914.1279, 5135.238
914.6100, 5121.532
915.0921, 5092.359
915.5742, 5060.275
916.0563, 5028.961
916.5385, 4994.072
917.0206, 4949.238
917.5027, 4898.834
917.9848, 4858.413
918.4669, 4830.152
918.9490, 4806.646
919.4312, 4803.748
919.9133, 4785.725
920.3954, 4730.940
920.8775, 4663.581
921.3596, 4604.725
921.8417, 4555.001
922.3239, 4513.701
922.8060, 4481.767
923.2881, 4456.396
923.7702, 4445.457
924.2523, 4432.445
924.7344, 4398.933
925.2166, 4360.521
925.6987, 4345.624
926.1808, 4358.229
926.6629, 4363.602
927.1450, 4346.179
927.6271, 4321.085
928.1093, 4283.476
928.5914, 4251.958
929.0735, 4251.792
929.5556, 4272.598
930.0377, 4282.946
930.5198, 4271.470
931.0020, 4259.440
931.4841, 4261.652
931.9662, 4268.965
932.4483, 4270.711
932.9304, 4272.562
933.4125, 4286.559
933.8947, 4311.500
934.3768, 4333.060
934.8589, 4341.978
935.3410, 4352.792
935.8231, 4387.363
936.3052, 4429.940
936.7874, 4453.248
937.2695, 4462.115
937.7516, 4471.289
938.2337, 4485.956
938.7158, 4509.959
939.1979, 4548.995
939.6801, 4593.374
940.1622, 4624.286
940.6443, 4647.538
941.1264, 4684.587
941.6085, 4733.845
942.0906, 4768.459
942.5728, 4778.300
943.0549, 4790.185
943.5370, 4836.562
944.0191, 4905.069
944.5012, 4956.530
944.9833, 4993.285
945.4655, 5038.100
945.9476, 5094.085
946.4297, 5137.888
946.9118, 5154.728
947.3939, 5167.729
947.8760, 5214.960
948.3582, 5292.178
948.8403, 5363.110
949.3224, 5428.925
949.8045, 5461.669
950.2866, 5448.261
950.7687, 5449.320
951.2509, 5510.329
951.7330, 5606.211
952.2151, 5678.682
952.6972, 5724.160
953.1793, 5789.838
953.6614, 5885.231
954.1436, 5960.283
954.6257, 5996.235
955.1078, 6020.654
955.5899, 6053.098
956.0720, 6096.107
956.5541, 6160.681
957.0363, 6257.450
957.5184, 6338.588
958.0005, 6400.387
958.4826, 6452.626
958.9647, 6490.884
959.4468, 6532.305
959.9290, 6597.867
960.4111, 6683.723
960.8932, 6756.180
961.3753, 6798.859
961.8574, 6865.162
962.3395, 6979.396
962.8217, 7082.077
963.3038, 7140.138
963.7859, 7179.011
964.2680, 7229.787
964.7501, 7292.352
965.2322, 7354.575
965.7144, 7402.773
966.1965, 7471.559
966.6786, 7586.676
967.1607, 7696.572
967.6428, 7771.816
968.1249, 7829.804
968.6071, 7894.802
969.0892, 7966.936
969.5713, 8049.432
970.0534, 8146.350
970.5355, 8248.450
971.0176, 8364.906
971.4998, 8475.361
971.9819, 8570.145
972.4640, 8649.141
972.9461, 8706.888
973.4282, 8737.396
973.9103, 8789.163
974.3925, 8863.574
974.8746, 8966.515
975.3567, 9129.991
975.8388, 9294.243
976.3209, 9410.910
976.8030, 9494.534
977.2852, 9584.158
977.7673, 9686.396
978.2494, 9788.652
978.7315, 9879.268
979.2136, 9980.450
979.6957, 10107.47
980.1779, 10244.27
980.6600, 10379.84
981.1421, 10512.71
981.6242, 10641.53
982.1063, 10764.19
982.5884, 10890.85
983.0706, 11022.79
983.5527, 11161.54
984.0348, 11307.43
984.5169, 11460.90
984.9990, 11626.70
985.4811, 11800.23
985.9633, 11969.47
986.4454, 12130.81
986.9275, 12286.40
987.4096, 12415.87
987.8917, 12561.71
988.3738, 12761.91
988.8560, 12982.55
989.3381, 13186.52
989.8202, 13373.31
990.3023, 13561.15
990.7844, 13749.54
991.2665, 13956.29
991.7487, 14195.01
992.2308, 14448.85
992.7129, 14720.95
993.1950, 14993.24
993.6771, 15233.81
994.1592, 15450.62
994.6414, 15695.43
995.1235, 15997.75
995.6056, 16301.18
996.0877, 16575.92
996.5698, 16849.77
997.0519, 17119.73
997.5341, 17413.18
998.0162, 17784.65
998.4983, 18218.38
998.9804, 18614.54
999.4625, 18914.32
999.9446, 19213.22
1000.427, 19551.71
1000.909, 19909.40
1001.391, 20274.92
1001.873, 20649.80
1002.355, 21041.75
1002.837, 21449.05
1003.319, 21856.54
1003.802, 22253.27
1004.284, 22661.43
1004.766, 23090.54
1005.248, 23533.98
1005.730, 23989.32
1006.212, 24454.91
1006.694, 24930.27
1007.176, 25414.50
1007.659, 25892.96
1008.141, 26363.65
1008.623, 26825.62
1009.105, 27280.71
1009.587, 27722.45
1010.069, 28126.63
1010.551, 28525.21
1011.033, 28960.95
1011.515, 29436.96
1011.998, 29927.26
1012.480, 30435.00
1012.962, 30930.30
1013.444, 31407.22
1013.926, 31856.71
1014.408, 32260.97
1014.890, 32642.60
1015.372, 33016.13
1015.854, 33394.17
1016.337, 33827.96
1016.819, 34396.64
1017.301, 34907.57
1017.783, 35255.17
1018.265, 35556.25
1018.747, 35857.70
1019.229, 36181.91
1019.711, 36563.46
1020.194, 36996.64
1020.676, 37418.80
1021.158, 37838.30
1021.640, 38193.88
1022.122, 38420.67
1022.604, 38627.30
1023.086, 38873.74
1023.568, 39140.63
1024.051, 39406.88
1024.533, 39667.79
1025.015, 39915.89
1025.497, 40157.19
1025.979, 40370.33
1026.461, 40532.70
1026.943, 40685.53
1027.425, 40857.77
1027.907, 41028.78
1028.390, 41168.32
1028.872, 41280.83
1029.354, 41406.53
1029.836, 41583.63
1030.318, 41708.61
1030.800, 41738.37
1031.282, 41740.80
1031.764, 41713.38
1032.246, 41697.90
1032.729, 41756.12
1033.211, 41869.34
1033.693, 41938.61
1034.175, 41945.41
1034.657, 41928.36
1035.139, 41890.70
1035.621, 41831.20
1036.103, 41741.11
1036.586, 41636.16
1037.068, 41519.30
1037.550, 41398.09
1038.032, 41304.93
1038.514, 41275.47
1038.996, 41189.39
1039.478, 41005.82
1039.960, 40820.13
1040.443, 40658.02
1040.925, 40500.52
1041.407, 40347.89
1041.889, 40184.13
1042.371, 39953.85
1042.853, 39621.59
1043.335, 39354.16
1043.817, 39185.57
1044.299, 39017.71
1044.781, 38843.79
1045.264, 38641.41
1045.746, 38388.54
1046.228, 38101.52
1046.710, 37822.58
1047.192, 37553.58
1047.674, 37284.39
1048.156, 37012.23
1048.638, 36754.56
1049.121, 36526.64
1049.603, 36284.72
1050.085, 35992.11
1050.567, 35685.57
1051.049, 35437.83
1051.531, 35249.80
1052.013, 35004.70
1052.495, 34688.72
1052.978, 34393.13
1053.460, 34134.02
1053.942, 33878.52
1054.424, 33606.24
1054.906, 33331.61
1055.388, 33079.31
1055.870, 32843.66
1056.352, 32595.26
1056.834, 32334.15
1057.317, 32099.09
1057.799, 31897.52
1058.281, 31660.78
1058.763, 31354.92
1059.245, 31038.98
1059.727, 30785.29
1060.209, 30566.62
1060.691, 30294.20
1061.173, 29976.69
1061.656, 29645.46
1062.138, 29312.41
1062.620, 29071.79
1063.102, 28950.28
1063.584, 28827.73
1064.066, 28594.98
1064.548, 28303.10
1065.030, 28028.42
1065.513, 27774.85
1065.995, 27562.44
1066.477, 27381.41
1066.959, 27195.64
1067.441, 26993.91
1067.923, 26784.24
1068.405, 26570.66
1068.887, 26355.04
1069.370, 26135.61
1069.852, 25918.30
1070.334, 25715.69
1070.816, 25523.04
1071.298, 25327.04
1071.780, 25129.24
1072.262, 24946.78
1072.744, 24790.66
1073.226, 24631.73
1073.708, 24442.80
1074.191, 24244.10
1074.673, 24046.20
1075.155, 23855.19
1075.637, 23688.04
1076.119, 23533.44
1076.601, 23355.92
1077.083, 23142.68
1077.565, 22944.82
1078.047, 22799.68
1078.530, 22661.54
1079.012, 22515.08
1079.494, 22357.25
1079.976, 22185.87
1080.458, 22002.44
1080.940, 21801.97
1081.422, 21584.89
1081.904, 21394.05
1082.387, 21249.59
1082.869, 21118.81
1083.351, 21032.07
1083.833, 20916.17
1084.315, 20687.53
1084.797, 20435.58
1085.279, 20292.14
1085.761, 20248.81
1086.244, 20148.14
1086.726, 19943.60
1087.208, 19764.91
1087.690, 19633.22
1088.172, 19491.73
1088.654, 19312.38
1089.136, 19127.25
1089.618, 18963.13
1090.100, 18816.09
1090.583, 18672.15
1091.065, 18525.40
1091.547, 18417.90
1092.029, 18366.94
1092.511, 18273.25
1092.993, 18104.44
1093.475, 17933.46
1093.957, 17810.68
1094.439, 17706.14
1094.922, 17566.44
1095.404, 17396.42
1095.886, 17227.15
1096.368, 17059.18
1096.850, 16876.48
1097.332, 16679.29
1097.814, 16516.98
1098.296, 16411.52
1098.779, 16324.67
1099.261, 16217.91
1099.743, 16096.56
1100.225, 15969.61
1100.707, 15837.72
1101.189, 15700.22
1101.671, 15560.78
1102.153, 15433.37
1102.635, 15320.11
1103.118, 15206.60
1103.600, 15084.31
1104.082, 14954.12
1104.564, 14810.80
1105.046, 14664.42
1105.528, 14525.20
1106.010, 14392.55
1106.492, 14253.13
1106.974, 14116.89
1107.457, 14031.05
1107.939, 14023.18
1108.421, 13992.74
1108.903, 13867.97
1109.385, 13729.71
1109.867, 13620.30
1110.349, 13519.82
1110.831, 13409.80
1111.314, 13292.73
1111.796, 13172.43
1112.278, 13047.75
1112.760, 12950.30
1113.242, 12932.80
1113.724, 12871.75
1114.206, 12694.38
1114.688, 12534.80
1115.171, 12483.47
1115.653, 12454.06
1116.135, 12340.34
1116.617, 12162.64
1117.099, 12036.93
1117.581, 11987.96
1118.063, 11910.22
1118.545, 11787.20
1119.027, 11694.48
1119.510, 11665.21
1119.992, 11622.19
1120.474, 11500.81
1120.956, 11347.62
1121.438, 11260.31
1121.920, 11230.15
1122.402, 11172.34
1122.884, 11089.60
1123.366, 11016.84
1123.849, 10959.09
1124.331, 10910.53
1124.813, 10868.24
1125.295, 10816.18
1125.777, 10733.78
1126.259, 10637.86
1126.741, 10554.94
1127.223, 10483.80
1127.706, 10426.63
1128.188, 10378.04
1128.670, 10326.11
1129.152, 10268.19
1129.634, 10207.68
1130.116, 10145.50
1130.598, 10085.30
1131.080, 10032.45
1131.563, 9980.384
1132.045, 9924.473
1132.527, 9865.524
1133.009, 9802.555
1133.491, 9737.980
1133.973, 9677.951
1134.455, 9623.654
1134.937, 9571.480
1135.419, 9517.147
1135.901, 9469.196
1136.384, 9430.484
1136.866, 9397.868
1137.348, 9370.837
1137.830, 9348.145
1138.312, 9333.314
1138.794, 9323.049
1139.276, 9290.621
1139.758, 9231.128
1140.241, 9161.621
1140.723, 9071.838
1141.205, 9013.525
1141.687, 9006.255
1142.169, 9013.113
1142.651, 9008.450
1143.133, 8995.414
1143.615, 8981.059
1144.098, 8963.739
1144.580, 8925.895
1145.062, 8873.436
1145.544, 8853.873
1146.026, 8867.106
1146.508, 8863.764
1146.990, 8825.239
1147.472, 8782.269
1147.954, 8763.163
1148.437, 8750.287
1148.919, 8714.609
1149.401, 8676.385
1149.883, 8672.780
1150.365, 8684.759
1150.847, 8667.698
1151.329, 8624.664
1151.811, 8603.314
1152.293, 8628.369
1152.776, 8639.380
1153.258, 8585.075
1153.740, 8541.478
1154.222, 8559.614
1154.704, 8588.269
1155.186, 8581.457
1155.668, 8557.090
1156.150, 8553.532
1156.633, 8572.985
1157.115, 8581.341
1157.597, 8565.560
1158.079, 8569.554
1158.561, 8612.384
1159.043, 8630.424
1159.525, 8590.226
1160.007, 8550.741
1160.490, 8564.852
1160.972, 8609.376
1161.454, 8633.125
1161.936, 8637.220
1162.418, 8637.800
1162.900, 8634.172
1163.382, 8608.337
1163.864, 8563.505
1164.346, 8557.479
1164.828, 8613.839
1165.311, 8670.869
1165.793, 8664.939
1166.275, 8643.114
1166.757, 8673.377
1167.239, 8723.641
1167.721, 8750.001
1168.203, 8760.274
1168.685, 8770.700
1169.168, 8786.770
1169.650, 8817.355
1170.132, 8871.289
1170.614, 8909.534
1171.096, 8900.960
1171.578, 8894.504
1172.060, 8907.181
1172.542, 8932.820
1173.025, 8969.279
1173.507, 9014.284
1173.989, 9070.280
1174.471, 9134.851
1174.953, 9173.511
1175.435, 9174.404
1175.917, 9185.770
1176.399, 9210.954
1176.881, 9238.759
1177.364, 9264.906
1177.846, 9298.746
1178.328, 9347.233
1178.810, 9405.743
1179.292, 9469.566
1179.774, 9535.569
1180.256, 9587.020
1180.738, 9629.096
1181.220, 9679.187
1181.703, 9738.763
1182.185, 9805.399
1182.667, 9877.371
1183.149, 9947.380
1183.631, 10014.39
1184.113, 10068.03
1184.595, 10081.03
1185.077, 10096.42
1185.560, 10147.42
1186.042, 10224.91
1186.524, 10331.97
1187.006, 10451.01
1187.488, 10537.66
1187.970, 10580.54
1188.452, 10642.36
1188.934, 10734.12
1189.417, 10842.82
1189.899, 10989.53
1190.381, 11114.06
1190.863, 11185.83
1191.345, 11237.62
1191.827, 11293.99
1192.309, 11361.70
1192.791, 11462.89
1193.273, 11596.09
1193.755, 11719.35
1194.238, 11833.90
1194.720, 11953.80
1195.202, 12079.94
1195.684, 12195.14
1196.166, 12293.66
1196.648, 12401.62
1197.130, 12547.56
1197.612, 12700.84
1198.095, 12814.03
1198.577, 12924.01
1199.059, 13087.35
1199.541, 13270.52
1200.023, 13415.83
1200.505, 13529.83
1200.987, 13657.11
1201.469, 13809.68
1201.952, 13963.01
1202.434, 14100.40
1202.916, 14253.20
1203.398, 14431.03
1203.880, 14622.77
1204.362, 14837.77
1204.844, 15045.94
1205.326, 15212.76
1205.808, 15352.47
1206.291, 15507.08
1206.773, 15675.57
1207.255, 15895.27
1207.737, 16164.45
1208.219, 16400.75
1208.701, 16593.32
1209.183, 16777.58
1209.665, 16970.15
1210.147, 17191.78
1210.630, 17471.12
1211.112, 17763.77
1211.594, 18016.70
1212.076, 18248.02
1212.558, 18457.89
1213.040, 18678.10
1213.522, 18976.92
1214.004, 19328.40
1214.487, 19626.37
1214.969, 19841.42
1215.451, 20054.40
1215.933, 20258.89
1216.415, 20501.68
1216.897, 20806.50
1217.379, 21130.41
1217.861, 21475.91
1218.344, 21804.92
1218.826, 22074.68
1219.308, 22309.30
1219.790, 22568.12
1220.272, 22851.83
1220.754, 23160.78
1221.236, 23494.00
1221.718, 23820.38
1222.200, 24136.37
1222.682, 24456.48
1223.165, 24784.29
1223.647, 25083.85
1224.129, 25307.97
1224.611, 25551.08
1225.093, 25939.55
1225.575, 26355.75
1226.057, 26684.66
1226.539, 26977.23
1227.022, 27305.34
1227.504, 27653.35
1227.986, 27960.75
1228.468, 28217.54
1228.950, 28503.88
1229.432, 28841.48
1229.914, 29182.06
1230.396, 29524.11
1230.879, 29879.07
1231.361, 30260.39
1231.843, 30623.28
1232.325, 30934.55
1232.807, 31214.13
1233.289, 31489.07
1233.771, 31762.83
1234.253, 32037.97
1234.735, 32324.57
1235.218, 32681.03
1235.700, 33078.96
1236.182, 33417.29
1236.664, 33682.18
1237.146, 33943.53
1237.628, 34231.14
1238.110, 34538.16
1238.592, 34882.28
1239.074, 35213.71
1239.557, 35511.16
1240.039, 35781.52
1240.521, 36014.95
1241.003, 36237.64
1241.485, 36493.00
1241.967, 36769.84
1242.449, 37000.18
1242.931, 37166.54
1243.414, 37402.36
1243.896, 37715.58
1244.378, 37996.40
1244.860, 38224.94
1245.342, 38432.14
1245.824, 38632.32
1246.306, 38833.20
1246.788, 39039.17
1247.271, 39257.29
1247.753, 39508.15
1248.235, 39765.04
1248.717, 39988.19
1249.199, 40194.27
1249.681, 40409.98
1250.163, 40632.82
1250.645, 40846.98
1251.127, 41048.82
1251.609, 41264.74
1252.092, 41507.84
1252.574, 41752.51
1253.056, 41997.10
1253.538, 42248.80
1254.020, 42514.87
1254.502, 42775.95
1254.984, 43016.56
1255.466, 43251.88
1255.949, 43501.91
1256.431, 43764.12
1256.913, 44035.82
1257.395, 44307.50
1257.877, 44575.69
1258.359, 44811.63
1258.841, 44925.00
1259.323, 44922.70
1259.806, 44908.33
1260.288, 44921.71
1260.770, 44923.02
1261.252, 44930.63
1261.734, 44867.90
1262.216, 44714.42
1262.698, 44471.26
1263.180, 44080.74
1263.662, 43669.09
1264.145, 43374.18
1264.627, 43119.74
1265.109, 42702.27
1265.591, 42131.99
1266.073, 41629.49
1266.555, 41185.82
1267.037, 40717.84
1267.519, 40218.16
1268.001, 39702.55
1268.484, 39181.50
1268.966, 38673.89
1269.448, 38191.64
1269.930, 37738.04
1270.412, 37359.98
1270.894, 36946.77
1271.376, 36450.07
1271.858, 35872.10
##END=



