##NAMES=Hemusite
##RRUFFID=R061011
##IDEAL CHEMISTRY=Cu^1+^_4_Cu^2+^_2_Sn^4+^Mo^4+^S^2-^_8_
##LOCALITY=Kawazu mine, Shizuoka, Japan
##OWNER=RRUFF
##SOURCE=Michael Scott
##DESCRIPTION=Metallic tarnished purple coatings and blebs in quartz
##STATUS=The identification of this mineral is not yet confirmed.
##URL=rruff.info/R061011
129.7181, 2919.188
130.2002, 2947.508
130.6823, 2977.858
131.1645, 3014.260
131.6466, 3055.518
132.1287, 3096.310
132.6108, 3135.179
133.0929, 3175.275
133.5750, 3222.367
134.0572, 3277.197
134.5393, 3333.442
135.0214, 3388.037
135.5035, 3440.980
135.9856, 3496.816
136.4677, 3556.757
136.9499, 3619.200
137.4320, 3681.129
137.9141, 3745.891
138.3962, 3799.146
138.8783, 3829.849
139.3604, 3836.775
139.8426, 3825.287
140.3247, 3791.273
140.8068, 3735.432
141.2889, 3687.522
141.7710, 3651.096
142.2531, 3619.113
142.7353, 3582.273
143.2174, 3538.908
143.6995, 3493.961
144.1816, 3445.618
144.6637, 3385.003
145.1458, 3350.390
145.6280, 3354.276
146.1101, 3380.558
146.5922, 3394.070
147.0743, 3392.736
147.5564, 3380.793
148.0385, 3359.298
148.5207, 3316.663
149.0028, 3280.980
149.4849, 3251.338
149.9670, 3228.260
150.4491, 3216.489
150.9312, 3229.009
151.4134, 3244.658
151.8955, 3251.893
152.3776, 3231.926
152.8597, 3223.765
153.3418, 3242.872
153.8239, 3290.398
154.3061, 3314.895
154.7882, 3293.249
155.2703, 3253.853
155.7524, 3222.146
156.2345, 3192.577
156.7166, 3179.606
157.1988, 3196.005
157.6809, 3251.537
158.1630, 3291.476
158.6451, 3287.043
159.1272, 3261.108
159.6093, 3246.518
160.0915, 3263.323
160.5736, 3286.229
161.0557, 3302.694
161.5378, 3308.424
162.0199, 3312.738
162.5020, 3322.714
162.9841, 3334.337
163.4663, 3337.697
163.9484, 3316.429
164.4305, 3291.979
164.9126, 3281.272
165.3947, 3299.919
165.8768, 3318.624
166.3590, 3319.724
166.8411, 3306.106
167.3232, 3292.505
167.8053, 3285.375
168.2874, 3283.193
168.7695, 3284.296
169.2517, 3291.482
169.7338, 3299.541
170.2159, 3305.447
170.6980, 3309.104
171.1801, 3309.678
171.6622, 3302.282
172.1444, 3291.750
172.6265, 3286.102
173.1086, 3292.573
173.5907, 3303.796
174.0728, 3312.498
174.5549, 3318.290
175.0371, 3321.730
175.5192, 3320.688
176.0013, 3317.235
176.4834, 3316.914
176.9655, 3327.262
177.4476, 3341.396
177.9298, 3346.935
178.4119, 3339.792
178.8940, 3331.637
179.3761, 3338.566
179.8582, 3357.798
180.3403, 3375.777
180.8225, 3382.349
181.3046, 3381.161
181.7867, 3380.076
182.2688, 3378.789
182.7509, 3380.556
183.2330, 3395.385
183.7152, 3422.128
184.1973, 3444.657
184.6794, 3446.357
185.1615, 3431.828
185.6436, 3418.994
186.1257, 3412.630
186.6079, 3410.216
187.0900, 3403.945
187.5721, 3393.292
188.0542, 3386.317
188.5363, 3393.349
189.0184, 3412.686
189.5006, 3431.554
189.9827, 3448.491
190.4648, 3461.741
190.9469, 3462.114
191.4290, 3447.656
191.9111, 3429.097
192.3932, 3418.974
192.8754, 3417.307
193.3575, 3417.047
193.8396, 3415.223
194.3217, 3412.136
194.8038, 3410.927
195.2859, 3411.594
195.7681, 3414.300
196.2502, 3421.349
196.7323, 3433.481
197.2144, 3442.016
197.6965, 3441.475
198.1786, 3431.860
198.6608, 3422.230
199.1429, 3411.668
199.6250, 3402.918
200.1071, 3402.934
200.5892, 3413.216
201.0714, 3424.340
201.5535, 3430.869
202.0356, 3432.361
202.5177, 3432.735
202.9998, 3431.723
203.4819, 3429.903
203.9641, 3430.039
204.4462, 3433.128
204.9283, 3434.653
205.4104, 3428.744
205.8925, 3412.213
206.3746, 3406.774
206.8568, 3420.484
207.3389, 3447.431
207.8210, 3454.184
208.3031, 3433.851
208.7852, 3409.585
209.2673, 3402.737
209.7495, 3419.526
210.2316, 3430.269
210.7137, 3428.515
211.1958, 3415.315
211.6779, 3402.381
212.1600, 3388.227
212.6422, 3376.750
213.1243, 3373.317
213.6064, 3381.601
214.0885, 3386.633
214.5706, 3382.937
215.0527, 3369.804
215.5349, 3365.487
216.0170, 3373.473
216.4991, 3385.652
216.9812, 3390.938
217.4633, 3384.013
217.9454, 3382.767
218.4276, 3395.645
218.9097, 3426.311
219.3918, 3442.267
219.8739, 3439.223
220.3560, 3425.198
220.8381, 3410.345
221.3203, 3392.006
221.8024, 3378.809
222.2845, 3374.250
222.7666, 3380.001
223.2487, 3388.180
223.7308, 3400.274
224.2129, 3413.985
224.6951, 3424.768
225.1772, 3431.278
225.6593, 3437.384
226.1414, 3445.690
226.6235, 3459.974
227.1056, 3464.725
227.5878, 3455.094
228.0699, 3437.646
228.5520, 3426.989
229.0341, 3424.279
229.5162, 3426.601
229.9983, 3434.418
230.4805, 3454.729
230.9626, 3463.757
231.4447, 3455.634
231.9268, 3436.693
232.4089, 3426.912
232.8910, 3429.558
233.3732, 3436.527
233.8553, 3443.767
234.3374, 3450.323
234.8195, 3459.802
235.3016, 3474.787
235.7837, 3492.996
236.2659, 3504.599
236.7480, 3505.761
237.2301, 3505.397
237.7122, 3508.113
238.1943, 3513.101
238.6764, 3523.308
239.1586, 3542.284
239.6407, 3567.707
240.1228, 3585.552
240.6049, 3593.959
241.0870, 3597.312
241.5691, 3596.052
242.0513, 3579.032
242.5334, 3580.379
243.0155, 3609.720
243.4976, 3663.110
243.9797, 3707.341
244.4618, 3740.463
244.9440, 3765.801
245.4261, 3783.780
245.9082, 3786.375
246.3903, 3797.765
246.8724, 3824.178
247.3545, 3864.141
247.8367, 3897.823
248.3188, 3923.630
248.8009, 3944.662
249.2830, 3961.758
249.7651, 3968.313
250.2472, 3985.136
250.7294, 4018.771
251.2115, 4068.517
251.6936, 4112.805
252.1757, 4152.446
252.6578, 4186.167
253.1399, 4212.700
253.6220, 4227.829
254.1042, 4245.035
254.5863, 4265.027
255.0684, 4287.988
255.5505, 4321.814
256.0326, 4376.788
256.5147, 4430.511
256.9969, 4459.781
257.4790, 4447.714
257.9611, 4449.954
258.4432, 4481.950
258.9253, 4543.884
259.4074, 4592.800
259.8896, 4628.115
260.3717, 4651.350
260.8538, 4662.827
261.3359, 4657.182
261.8180, 4652.767
262.3001, 4652.693
262.7823, 4656.919
263.2644, 4667.643
263.7465, 4690.897
264.2286, 4712.322
264.7107, 4714.862
265.1928, 4693.513
265.6750, 4668.416
266.1571, 4642.917
266.6392, 4617.307
267.1213, 4594.234
267.6034, 4575.310
268.0855, 4556.934
268.5677, 4536.823
269.0498, 4517.218
269.5319, 4487.405
270.0140, 4438.364
270.4961, 4371.260
270.9782, 4328.827
271.4604, 4318.473
271.9425, 4318.772
272.4246, 4305.613
272.9067, 4276.896
273.3888, 4244.120
273.8709, 4208.444
274.3531, 4170.424
274.8352, 4137.396
275.3173, 4110.206
275.7994, 4086.492
276.2815, 4063.306
276.7636, 4040.580
277.2458, 4020.416
277.7279, 4003.200
278.2100, 3989.003
278.6921, 3979.963
279.1742, 3977.364
279.6563, 3976.121
280.1385, 3970.689
280.6206, 3960.988
281.1027, 3949.318
281.5848, 3936.610
282.0669, 3922.624
282.5490, 3903.187
283.0312, 3875.948
283.5133, 3852.318
283.9954, 3824.469
284.4775, 3841.575
284.9596, 3848.859
285.4417, 3846.845
285.9239, 3807.691
286.4060, 3816.496
286.8881, 3806.082
287.3702, 3794.879
287.8523, 3810.434
288.3344, 3776.683
288.8166, 3791.812
289.2987, 3787.430
289.7808, 3791.978
290.2629, 3769.274
290.7450, 3759.519
291.2271, 3749.455
291.7093, 3737.601
292.1914, 3724.637
292.6735, 3714.840
293.1556, 3712.978
293.6377, 3713.614
294.1198, 3702.376
294.6020, 3678.908
295.0841, 3655.013
295.5662, 3644.205
296.0483, 3642.390
296.5304, 3634.296
297.0125, 3608.767
297.4947, 3579.492
297.9768, 3573.333
298.4589, 3589.489
298.9410, 3610.434
299.4231, 3622.035
299.9052, 3627.073
300.3873, 3631.913
300.8694, 3639.002
301.3516, 3645.848
301.8337, 3649.894
302.3158, 3650.955
302.7979, 3648.450
303.2800, 3638.193
303.7621, 3624.556
304.2443, 3614.366
304.7264, 3608.069
305.2085, 3607.915
305.6906, 3623.238
306.1727, 3650.283
306.6548, 3669.036
307.1370, 3656.837
307.6191, 3631.667
308.1012, 3616.637
308.5833, 3622.529
309.0654, 3633.365
309.5475, 3639.664
310.0297, 3641.320
310.5118, 3637.804
310.9939, 3617.666
311.4760, 3597.566
311.9581, 3595.021
312.4402, 3625.360
312.9224, 3654.390
313.4045, 3657.419
313.8866, 3642.682
314.3687, 3633.604
314.8508, 3647.612
315.3329, 3667.325
315.8151, 3681.349
316.2972, 3689.401
316.7793, 3688.271
317.2614, 3667.875
317.7435, 3637.136
318.2256, 3616.234
318.7078, 3619.436
319.1899, 3629.131
319.6720, 3635.398
320.1541, 3633.399
320.6362, 3636.085
321.1183, 3652.865
321.6005, 3676.003
322.0826, 3691.351
322.5647, 3690.826
323.0468, 3685.850
323.5289, 3680.205
324.0110, 3673.615
324.4932, 3667.977
324.9753, 3660.357
325.4574, 3654.572
325.9395, 3656.316
326.4216, 3679.564
326.9037, 3697.677
327.3859, 3701.627
327.8680, 3685.574
328.3501, 3675.297
328.8322, 3676.758
329.3143, 3681.703
329.7964, 3680.478
330.2786, 3663.766
330.7607, 3652.676
331.2428, 3653.138
331.7249, 3666.641
332.2070, 3678.788
332.6891, 3694.777
333.1713, 3705.221
333.6534, 3698.328
334.1355, 3659.439
334.6176, 3632.604
335.0997, 3629.753
335.5818, 3649.663
336.0640, 3661.522
336.5461, 3662.142
337.0282, 3659.311
337.5103, 3659.344
337.9924, 3662.750
338.4745, 3667.105
338.9567, 3673.480
339.4388, 3680.380
339.9209, 3679.931
340.4030, 3670.670
340.8851, 3658.688
341.3672, 3646.855
341.8494, 3634.674
342.3315, 3630.726
342.8136, 3639.363
343.2957, 3653.972
343.7778, 3655.533
344.2599, 3642.877
344.7421, 3631.938
345.2242, 3638.240
345.7063, 3658.300
346.1884, 3663.990
346.6705, 3647.738
347.1526, 3626.301
347.6348, 3630.898
348.1169, 3658.779
348.5990, 3686.505
349.0811, 3698.138
349.5632, 3699.365
350.0453, 3705.388
350.5275, 3718.669
351.0096, 3729.804
351.4917, 3725.210
351.9738, 3708.962
352.4559, 3694.203
352.9380, 3687.250
353.4202, 3685.661
353.9023, 3686.666
354.3844, 3690.227
354.8665, 3696.773
355.3486, 3710.868
355.8307, 3727.697
356.3129, 3739.531
356.7950, 3740.665
357.2771, 3737.231
357.7592, 3729.113
358.2413, 3717.148
358.7234, 3715.133
359.2056, 3741.520
359.6877, 3777.581
360.1698, 3804.071
360.6519, 3807.093
361.1340, 3806.777
361.6161, 3812.232
362.0982, 3822.084
362.5804, 3828.934
363.0625, 3823.689
363.5446, 3818.510
364.0267, 3821.712
364.5088, 3842.069
364.9909, 3861.140
365.4731, 3875.576
365.9552, 3886.154
366.4373, 3895.040
366.9194, 3893.954
367.4015, 3898.286
367.8836, 3914.788
368.3658, 3948.603
368.8479, 3986.104
369.3300, 4031.278
369.8121, 4079.045
370.2942, 4119.299
370.7763, 4147.037
371.2585, 4173.776
371.7406, 4202.561
372.2227, 4233.182
372.7048, 4265.178
373.1869, 4298.180
373.6690, 4332.261
374.1512, 4366.435
374.6333, 4396.891
375.1154, 4437.878
375.5975, 4496.705
376.0796, 4572.097
376.5617, 4639.476
377.0439, 4699.997
377.5260, 4749.539
378.0081, 4780.354
378.4902, 4791.286
378.9723, 4801.731
379.4544, 4813.674
379.9366, 4828.812
380.4187, 4856.169
380.9008, 4896.928
381.3829, 4934.488
381.8650, 4954.969
382.3471, 4961.484
382.8293, 4970.953
383.3114, 4989.800
383.7935, 5002.740
384.2756, 4985.938
384.7577, 4941.345
385.2398, 4883.271
385.7220, 4812.562
386.2041, 4734.329
386.6862, 4657.619
387.1683, 4582.802
387.6504, 4505.937
388.1325, 4416.425
388.6147, 4321.414
389.0968, 4238.709
389.5789, 4183.465
390.0610, 4137.487
390.5431, 4084.042
391.0252, 4023.142
391.5074, 3971.942
391.9895, 3947.718
392.4716, 3934.910
392.9537, 3917.219
393.4358, 3878.191
393.9179, 3844.721
394.4001, 3829.252
394.8822, 3829.163
395.3643, 3829.635
395.8464, 3824.396
396.3285, 3819.524
396.8106, 3818.596
397.2928, 3822.980
397.7749, 3829.681
398.2570, 3843.180
398.7391, 3858.729
399.2212, 3864.931
399.7033, 3858.146
400.1855, 3845.246
400.6676, 3826.708
401.1497, 3799.660
401.6318, 3777.237
402.1139, 3755.998
402.5960, 3741.957
403.0782, 3744.980
403.5603, 3774.247
404.0424, 3800.352
404.5245, 3817.666
405.0066, 3826.041
405.4887, 3822.471
405.9709, 3802.175
406.4530, 3781.263
406.9351, 3774.440
407.4172, 3782.587
407.8993, 3792.164
408.3814, 3802.232
408.8636, 3811.175
409.3457, 3813.685
409.8278, 3809.704
410.3099, 3805.796
410.7920, 3810.097
411.2741, 3818.531
411.7563, 3813.544
412.2384, 3789.506
412.7205, 3765.357
413.2026, 3766.156
413.6847, 3786.328
414.1668, 3807.187
414.6490, 3820.385
415.1311, 3829.033
415.6132, 3838.726
416.0953, 3849.832
416.5774, 3854.166
417.0595, 3840.568
417.5417, 3818.564
418.0238, 3799.953
418.5059, 3785.623
418.9880, 3778.956
419.4701, 3787.593
419.9522, 3808.102
420.4344, 3822.405
420.9165, 3817.073
421.3986, 3807.789
421.8807, 3804.414
422.3628, 3811.907
422.8449, 3819.814
423.3270, 3827.000
423.8091, 3833.338
424.2913, 3838.657
424.7734, 3841.513
425.2555, 3844.563
425.7376, 3846.546
426.2197, 3844.581
426.7018, 3855.206
427.1840, 3886.717
427.6661, 3924.075
428.1482, 3951.289
428.6303, 3965.781
429.1124, 3976.607
429.5945, 3985.175
430.0767, 3991.416
430.5588, 3992.742
431.0409, 3985.682
431.5230, 3984.740
432.0051, 4005.385
432.4872, 4047.774
432.9694, 4078.729
433.4515, 4093.700
433.9336, 4099.389
434.4157, 4103.629
434.8978, 4107.218
435.3799, 4118.682
435.8621, 4149.059
436.3442, 4189.682
436.8263, 4218.421
437.3084, 4233.912
437.7905, 4249.408
438.2726, 4275.455
438.7548, 4310.323
439.2369, 4350.929
439.7190, 4398.289
440.2011, 4449.139
440.6832, 4501.203
441.1653, 4554.395
441.6475, 4607.351
442.1296, 4658.173
442.6117, 4709.129
443.0938, 4761.274
443.5759, 4811.998
444.0580, 4870.067
444.5402, 4941.534
445.0223, 5021.233
445.5044, 5098.787
445.9865, 5165.237
446.4686, 5236.283
446.9507, 5313.054
447.4329, 5393.170
447.9150, 5495.333
448.3971, 5634.307
448.8792, 5784.457
449.3613, 5926.004
449.8434, 6050.766
450.3256, 6183.480
450.8077, 6323.739
451.2898, 6473.751
451.7719, 6643.932
452.2540, 6837.508
452.7361, 7038.066
453.2183, 7233.878
453.7004, 7422.693
454.1825, 7635.651
454.6646, 7872.545
455.1467, 8133.409
455.6288, 8408.950
456.1110, 8702.028
456.5931, 9031.595
457.0752, 9405.360
457.5573, 9816.627
458.0394, 10237.79
458.5215, 10672.80
459.0037, 11133.44
459.4858, 11628.11
459.9679, 12159.83
460.4500, 12717.18
460.9321, 13315.61
461.4142, 13925.44
461.8964, 14536.74
462.3785, 15148.18
462.8606, 15760.32
463.3427, 16369.19
463.8248, 16992.33
464.3069, 17628.23
464.7891, 18282.33
465.2712, 18969.87
465.7533, 19717.49
466.2354, 20493.28
466.7175, 21254.07
467.1996, 21990.70
467.6818, 22713.72
468.1639, 23441.23
468.6460, 24159.78
469.1281, 24842.21
469.6102, 25505.97
470.0923, 26106.19
470.5745, 26641.73
471.0566, 27143.69
471.5387, 27461.42
472.0208, 27601.05
472.5029, 27541.74
472.9850, 27251.24
473.4672, 26729.05
473.9493, 25987.98
474.4314, 25005.58
474.9135, 23811.72
475.3956, 22481.49
475.8777, 20998.68
476.3599, 19489.82
476.8420, 18035.39
477.3241, 16647.55
477.8062, 15365.02
478.2883, 14207.79
478.7704, 13162.44
479.2526, 12228.09
479.7347, 11396.31
480.2168, 10660.56
480.6989, 10028.82
481.1810, 9473.219
481.6631, 8978.296
482.1453, 8543.541
482.6274, 8155.122
483.1095, 7826.497
483.5916, 7535.066
484.0737, 7264.503
484.5558, 7001.638
485.0379, 6766.075
485.5201, 6569.457
486.0022, 6407.038
486.4843, 6256.053
486.9664, 6117.520
487.4485, 5990.011
487.9306, 5872.332
488.4128, 5766.611
488.8949, 5666.458
489.3770, 5571.006
489.8591, 5481.315
490.3412, 5401.330
490.8233, 5331.924
491.3055, 5262.488
491.7876, 5187.081
492.2697, 5111.828
492.7518, 5059.073
493.2339, 5029.506
493.7160, 5002.559
494.1982, 4964.167
494.6803, 4917.031
495.1624, 4865.834
495.6445, 4807.349
496.1266, 4758.250
496.6087, 4740.838
497.0909, 4743.760
497.5730, 4743.535
498.0551, 4729.779
498.5372, 4709.531
499.0193, 4685.829
499.5014, 4659.164
499.9836, 4633.174
500.4657, 4604.573
500.9478, 4580.421
501.4299, 4565.838
501.9120, 4569.038
502.3941, 4569.810
502.8763, 4564.407
503.3584, 4555.069
503.8405, 4546.270
504.3226, 4541.909
504.8047, 4532.008
505.2868, 4511.700
505.7690, 4481.184
506.2511, 4455.825
506.7332, 4433.509
507.2153, 4421.333
507.6974, 4432.277
508.1795, 4467.613
508.6617, 4483.780
509.1438, 4472.219
509.6259, 4446.203
510.1080, 4425.740
510.5901, 4410.603
511.0722, 4398.748
511.5544, 4392.560
512.0365, 4387.922
512.5186, 4375.612
513.0007, 4355.857
513.4828, 4340.516
513.9650, 4345.961
514.4471, 4357.551
514.9292, 4357.138
515.4113, 4332.378
515.8934, 4308.424
516.3755, 4300.539
516.8576, 4301.680
517.3397, 4296.919
517.8218, 4263.704
518.3040, 4241.399
518.7861, 4250.860
519.2682, 4299.667
519.7503, 4327.749
520.2324, 4322.162
520.7145, 4307.570
521.1967, 4303.064
521.6788, 4316.167
522.1609, 4317.759
522.6430, 4301.527
523.1251, 4275.919
523.6072, 4261.066
524.0894, 4258.245
524.5715, 4253.922
525.0536, 4236.062
525.5357, 4211.801
526.0178, 4213.906
526.4999, 4243.550
526.9821, 4274.946
527.4642, 4287.159
527.9463, 4284.658
528.4284, 4273.440
528.9105, 4249.492
529.3926, 4229.360
529.8748, 4232.765
530.3569, 4250.397
530.8390, 4262.362
531.3211, 4256.081
531.8032, 4245.731
532.2853, 4239.250
532.7675, 4237.249
533.2496, 4230.151
533.7317, 4209.590
534.2138, 4187.664
534.6959, 4171.975
535.1780, 4162.256
535.6602, 4160.367
536.1423, 4172.047
536.6244, 4188.365
537.1065, 4189.939
537.5886, 4169.205
538.0707, 4158.847
538.5529, 4173.831
539.0350, 4208.513
539.5171, 4228.674
539.9992, 4233.739
540.4813, 4229.030
540.9634, 4211.691
541.4456, 4187.360
541.9277, 4174.597
542.4098, 4177.013
542.8919, 4187.201
543.3740, 4201.616
543.8561, 4217.634
544.3383, 4229.881
544.8204, 4240.806
545.3025, 4243.247
545.7846, 4227.296
546.2667, 4195.821
546.7488, 4169.124
547.2310, 4154.253
547.7131, 4146.623
548.1952, 4144.282
548.6773, 4149.759
549.1594, 4155.197
549.6415, 4162.933
550.1237, 4169.043
550.6058, 4167.260
551.0879, 4151.509
551.5700, 4144.537
552.0521, 4157.296
552.5342, 4180.182
553.0164, 4169.234
553.4985, 4119.495
553.9806, 4074.913
554.4627, 4067.242
554.9448, 4087.753
555.4269, 4101.512
555.9091, 4107.059
556.3912, 4107.508
556.8733, 4103.825
557.3554, 4097.606
557.8375, 4091.424
558.3196, 4084.424
558.8018, 4080.068
559.2839, 4085.629
559.7660, 4095.974
560.2481, 4097.953
560.7302, 4072.757
561.2123, 4050.333
561.6945, 4046.165
562.1766, 4064.375
562.6587, 4078.634
563.1408, 4086.133
563.6229, 4089.866
564.1050, 4092.509
564.5872, 4097.130
565.0693, 4091.401
565.5514, 4069.843
566.0335, 4042.311
566.5156, 4027.898
566.9977, 4027.104
567.4799, 4033.006
567.9620, 4046.706
568.4441, 4063.991
568.9262, 4072.992
569.4083, 4073.940
569.8904, 4069.591
570.3726, 4054.976
570.8547, 4039.060
571.3368, 4036.761
571.8189, 4053.678
572.3010, 4067.242
572.7831, 4056.465
573.2653, 4035.839
573.7474, 4024.084
574.2295, 4034.354
574.7116, 4045.794
575.1937, 4058.184
575.6758, 4068.764
576.1580, 4064.146
576.6401, 3990.354
577.1222, 4034.899
577.6043, 4059.215
578.0864, 4064.388
578.5685, 3993.086
579.0507, 4020.536
579.5328, 4008.411
580.0149, 3994.663
580.4970, 4036.013
580.9791, 3975.834
581.4612, 4016.310
581.9434, 4016.605
582.4255, 4035.291
582.9076, 4014.156
583.3897, 4005.321
583.8718, 4036.318
584.3539, 4045.259
584.8361, 4019.540
585.3182, 4039.395
585.8003, 3977.825
586.2824, 3987.706
586.7645, 4028.414
587.2466, 4004.698
587.7288, 4025.280
588.2109, 4028.991
588.6930, 3956.028
589.1751, 4016.409
589.6572, 4019.122
590.1393, 3962.626
590.6215, 4018.437
591.1036, 3970.103
591.5857, 3958.942
592.0678, 3975.757
592.5499, 3963.408
593.0320, 3997.040
593.5142, 3986.375
593.9963, 3971.753
594.4784, 3974.402
594.9605, 3928.111
595.4426, 3972.614
595.9247, 3955.097
596.4069, 3968.408
596.8890, 3988.708
597.3711, 3955.502
597.8532, 3978.942
598.3353, 3914.537
598.8174, 3923.635
599.2996, 3924.817
599.7817, 3972.982
600.2638, 3909.005
600.7459, 3916.061
601.2280, 3953.361
601.7101, 3948.342
602.1923, 3961.016
602.6744, 3921.311
603.1565, 3930.812
603.6386, 3926.751
604.1207, 3969.559
604.6028, 3975.365
605.0850, 3936.548
605.5671, 3897.920
606.0492, 3944.101
606.5313, 3909.899
607.0134, 3919.062
607.4955, 3883.439
607.9777, 3886.485
608.4598, 3888.919
608.9419, 3911.176
609.4240, 3873.323
609.9061, 3913.442
610.3882, 3908.496
610.8704, 3916.824
611.3525, 3923.676
611.8346, 3870.053
612.3167, 3866.005
612.7988, 3932.893
613.2809, 3891.599
613.7631, 3872.140
614.2452, 3868.204
614.7273, 3937.521
615.2094, 3938.750
615.6915, 3858.590
616.1736, 3924.680
616.6558, 3900.794
617.1379, 3903.646
617.6200, 3896.744
618.1021, 3892.728
618.5842, 3851.982
619.0663, 3859.641
619.5485, 3906.656
620.0306, 3886.573
620.5127, 3912.083
620.9948, 3854.503
621.4769, 3846.243
621.9590, 3851.075
622.4412, 3860.682
622.9233, 3832.139
623.4054, 3879.891
623.8875, 3876.843
624.3696, 3829.773
624.8517, 3830.458
625.3339, 3823.214
625.8160, 3898.515
626.2981, 3860.326
626.7802, 3814.101
627.2623, 3857.845
627.7444, 3872.753
628.2266, 3848.674
628.7087, 3845.311
629.1908, 3802.647
629.6729, 3820.253
630.1550, 3817.131
630.6371, 3848.163
631.1193, 3805.656
631.6014, 3847.807
632.0835, 3807.273
632.5656, 3852.851
633.0477, 3810.569
633.5298, 3846.554
634.0120, 3789.115
634.4941, 3799.296
634.9762, 3814.837
635.4583, 3847.689
635.9404, 3813.984
636.4225, 3850.943
636.9047, 3825.889
637.3868, 3841.199
637.8689, 3834.127
638.3510, 3799.042
638.8331, 3842.966
639.3152, 3814.831
639.7973, 3835.352
640.2794, 3777.062
640.7615, 3814.580
641.2437, 3831.471
641.7258, 3844.113
642.2079, 3838.884
642.6900, 3825.691
643.1721, 3824.995
643.6542, 3803.442
644.1364, 3751.434
644.6185, 3762.618
645.1006, 3792.918
645.5827, 3813.742
646.0648, 3770.411
646.5469, 3796.123
647.0291, 3790.748
647.5112, 3814.790
647.9933, 3782.443
648.4754, 3817.230
648.9575, 3761.752
649.4396, 3803.357
649.9218, 3818.620
650.4039, 3734.730
650.8860, 3813.682
651.3681, 3745.604
651.8502, 3764.201
652.3323, 3777.328
652.8145, 3747.904
653.2966, 3801.184
653.7787, 3722.457
654.2608, 3736.889
654.7429, 3785.872
655.2250, 3751.500
655.7072, 3798.832
656.1893, 3764.063
656.6714, 3712.047
657.1535, 3781.132
657.6356, 3725.621
658.1177, 3751.923
658.5999, 3710.214
659.0820, 3784.117
659.5641, 3745.385
660.0462, 3711.868
660.5283, 3740.871
661.0104, 3767.293
661.4926, 3720.424
661.9747, 3728.621
662.4568, 3716.003
662.9389, 3749.212
663.4210, 3771.767
663.9031, 3700.783
664.3853, 3746.726
664.8674, 3711.683
665.3495, 3762.965
665.8316, 3679.032
666.3137, 3678.740
666.7958, 3751.372
667.2780, 3722.231
667.7601, 3757.195
668.2422, 3673.125
668.7243, 3672.163
669.2064, 3736.993
669.6885, 3673.367
670.1707, 3748.670
670.6528, 3686.887
671.1349, 3677.939
671.6170, 3729.142
672.0991, 3690.779
672.5812, 3729.891
673.0634, 3706.493
673.5455, 3737.433
674.0276, 3715.303
674.5097, 3662.933
674.9918, 3726.433
675.4739, 3702.452
675.9561, 3658.541
676.4382, 3646.635
676.9203, 3678.681
677.4024, 3706.001
677.8845, 3707.601
678.3666, 3679.476
678.8488, 3663.294
679.3309, 3660.596
679.8130, 3664.470
680.2951, 3669.653
680.7772, 3676.202
681.2593, 3686.729
681.7415, 3702.616
682.2236, 3716.055
682.7057, 3717.009
683.1878, 3710.614
683.6699, 3705.384
684.1520, 3704.045
684.6342, 3704.099
685.1163, 3705.936
685.5984, 3708.290
686.0805, 3708.731
686.5626, 3705.140
687.0447, 3701.613
687.5269, 3696.824
688.0090, 3692.660
688.4911, 3700.572
688.9732, 3725.686
689.4553, 3740.950
689.9374, 3726.600
690.4196, 3692.338
690.9017, 3677.912
691.3838, 3682.896
691.8659, 3695.387
692.3480, 3715.798
692.8301, 3734.307
693.3123, 3737.102
693.7944, 3720.805
694.2765, 3704.764
694.7586, 3691.161
695.2407, 3685.205
695.7228, 3692.098
696.2050, 3735.319
696.6871, 3751.975
697.1692, 3725.542
697.6513, 3687.853
698.1334, 3685.216
698.6155, 3723.725
699.0977, 3747.498
699.5798, 3742.590
700.0619, 3724.998
700.5440, 3725.255
701.0261, 3738.406
701.5082, 3745.199
701.9904, 3731.657
702.4725, 3712.167
702.9546, 3694.688
703.4367, 3680.577
703.9188, 3675.273
704.4009, 3688.259
704.8831, 3703.301
705.3652, 3703.806
705.8473, 3653.239
706.3294, 3677.325
706.8115, 3691.586
707.2936, 3696.551
707.7758, 3664.377
708.2579, 3680.160
708.7400, 3676.725
709.2221, 3672.500
709.7042, 3695.034
710.1863, 3668.261
710.6685, 3690.370
711.1506, 3692.966
711.6327, 3704.493
712.1148, 3696.682
712.5969, 3694.843
713.0790, 3712.349
713.5612, 3719.144
714.0433, 3701.171
714.5254, 3695.686
715.0075, 3703.052
715.4896, 3718.142
715.9717, 3734.209
716.4539, 3752.934
716.9360, 3764.946
717.4181, 3766.122
717.9002, 3761.361
718.3823, 3762.643
718.8644, 3769.019
719.3466, 3774.405
719.8287, 3773.020
720.3108, 3770.938
720.7929, 3777.243
721.2750, 3789.590
721.7571, 3796.995
722.2393, 3785.520
722.7214, 3775.780
723.2035, 3781.683
723.6856, 3805.847
724.1677, 3815.951
724.6498, 3804.909
725.1320, 3790.623
725.6141, 3782.077
726.0962, 3779.391
726.5783, 3784.875
727.0604, 3799.968
727.5425, 3813.676
728.0247, 3810.358
728.5068, 3799.305
728.9889, 3800.029
729.4710, 3818.269
729.9531, 3837.097
730.4352, 3847.188
730.9174, 3851.355
731.3995, 3852.627
731.8816, 3847.410
732.3637, 3845.053
732.8458, 3848.512
733.3279, 3853.569
733.8101, 3852.141
734.2922, 3840.909
734.7743, 3840.844
735.2564, 3861.449
735.7385, 3887.254
736.2206, 3880.499
736.7028, 3848.565
737.1849, 3826.952
737.6670, 3841.360
738.1491, 3863.321
738.6312, 3864.601
739.1133, 3851.843
739.5955, 3845.310
740.0776, 3864.006
740.5597, 3878.486
741.0418, 3871.617
741.5239, 3847.183
742.0060, 3838.918
742.4882, 3851.875
742.9703, 3869.122
743.4524, 3883.854
743.9345, 3895.791
744.4166, 3903.292
744.8987, 3906.225
745.3809, 3904.689
745.8630, 3891.658
746.3451, 3877.637
746.8272, 3879.608
747.3093, 3886.413
747.7914, 3909.546
748.2736, 3922.856
748.7557, 3926.869
749.2378, 3893.742
749.7199, 3908.573
750.2020, 3904.185
750.6841, 3899.009
751.1663, 3920.591
751.6484, 3892.866
752.1305, 3914.023
752.6126, 3915.667
753.0947, 3926.242
753.5768, 3917.478
754.0590, 3914.688
754.5411, 3931.242
755.0232, 3937.085
755.5053, 3926.095
755.9874, 3937.238
756.4695, 3908.837
756.9517, 3915.137
757.4338, 3936.407
757.9159, 3926.390
758.3980, 3937.886
758.8801, 3941.188
759.3622, 3907.255
759.8444, 3938.079
760.3265, 3940.897
760.8086, 3913.299
761.2907, 3920.876
761.7728, 3933.432
762.2549, 3937.118
762.7370, 3933.173
763.2191, 3925.877
763.7012, 3909.076
764.1833, 3897.028
764.6655, 3903.740
765.1476, 3924.641
765.6297, 3936.195
766.1118, 3925.096
766.5939, 3914.278
767.0760, 3909.018
767.5582, 3909.129
768.0403, 3916.011
768.5224, 3930.971
769.0045, 3942.148
769.4866, 3939.341
769.9688, 3928.112
770.4509, 3923.132
770.9330, 3923.869
771.4151, 3922.599
771.8972, 3909.966
772.3793, 3896.744
772.8615, 3892.027
773.3436, 3897.689
773.8257, 3901.697
774.3078, 3897.429
774.7899, 3896.361
775.2720, 3907.114
775.7542, 3932.622
776.2363, 3945.489
776.7184, 3944.052
777.2005, 3937.896
777.6826, 3931.993
778.1647, 3928.480
778.6469, 3935.887
779.1290, 3956.729
779.6111, 3972.243
780.0932, 3959.418
780.5753, 3940.321
781.0574, 3937.968
781.5396, 3970.407
782.0217, 3987.292
782.5038, 3973.383
782.9859, 3952.797
783.4680, 3949.141
783.9501, 3965.219
784.4323, 3978.430
784.9144, 3986.730
785.3965, 3991.713
785.8786, 3995.453
786.3607, 3960.703
786.8428, 4009.895
787.3250, 4038.859
787.8071, 4048.680
788.2892, 3982.025
788.7713, 4014.122
789.2534, 4006.644
789.7355, 3997.543
790.2177, 4043.540
790.6998, 3988.009
791.1819, 4033.131
791.6640, 4038.074
792.1461, 4061.407
792.6282, 4044.919
793.1104, 4040.731
793.5925, 4076.376
794.0746, 4089.964
794.5567, 4068.893
795.0388, 4093.394
795.5209, 4036.471
796.0031, 4051.000
796.4852, 4096.356
796.9673, 4077.286
797.4494, 4102.516
797.9315, 4110.874
798.4136, 4042.558
798.8958, 4107.586
799.3779, 4114.947
799.8600, 4063.097
800.3421, 4123.556
800.8242, 4079.869
801.3063, 4073.355
801.7885, 4094.818
802.2706, 4087.116
802.7527, 4125.394
803.2348, 4119.377
803.7169, 4109.402
804.1990, 4116.698
804.6812, 4075.054
805.1633, 4124.205
805.6454, 4111.334
806.1275, 4129.293
806.6096, 4154.241
807.0917, 4125.681
807.5739, 4153.769
808.0560, 4094.011
808.5381, 4107.756
809.0202, 4113.586
809.5023, 4166.397
809.9844, 4107.067
810.4666, 4118.771
810.9487, 4160.718
811.4308, 4160.346
811.9129, 4177.668
812.3950, 4142.609
812.8771, 4156.758
813.3593, 4157.344
813.8414, 4204.799
814.3235, 4215.252
814.8056, 4181.083
815.2877, 4147.102
815.7698, 4197.929
816.2520, 4168.375
816.7341, 4182.186
817.2162, 4201.919
817.6983, 4225.023
818.1804, 4194.623
818.6625, 4220.867
819.1447, 4159.268
819.6268, 4171.171
820.1089, 4175.159
820.5910, 4226.128
821.0731, 4164.957
821.5552, 4174.817
822.0374, 4214.922
822.5195, 4212.708
823.0016, 4228.188
823.4837, 4191.288
823.9658, 4203.595
824.4479, 4202.338
824.9301, 4247.951
825.4122, 4256.562
825.8943, 4220.550
826.3764, 4184.728
826.8585, 4233.713
827.3406, 4202.316
827.8228, 4214.286
828.3049, 4181.467
828.7870, 4187.319
829.2691, 4192.558
829.7512, 4217.620
830.2333, 4182.572
830.7155, 4225.497
831.1976, 4223.355
831.6797, 4234.488
832.1618, 4244.145
832.6439, 4193.327
833.1260, 4192.084
833.6082, 4261.778
834.0903, 4223.289
834.5724, 4206.636
835.0545, 4205.504
835.5366, 4277.626
836.0187, 4281.660
836.5009, 4204.306
836.9830, 4273.201
837.4651, 4252.120
837.9472, 4257.777
838.4293, 4253.680
838.9114, 4252.469
839.3936, 4214.529
839.8757, 4224.992
840.3578, 4274.812
840.8399, 4257.535
841.3220, 4285.851
841.8041, 4231.074
842.2863, 4225.620
842.7684, 4233.257
843.2505, 4245.669
843.7326, 4219.932
844.2147, 4270.488
844.6968, 4270.246
845.1790, 4225.981
845.6611, 4229.471
846.1432, 4225.032
846.6253, 4303.138
847.1074, 4267.755
847.5895, 4224.334
848.0717, 4270.884
848.5538, 4288.596
849.0359, 4267.323
849.5180, 4266.765
850.0001, 4226.906
850.4822, 4247.317
850.9644, 4247.001
851.4465, 4280.837
851.9286, 4241.136
852.4107, 4286.092
852.8928, 4248.363
853.3749, 4296.746
853.8571, 4257.270
854.3392, 4296.059
854.8213, 4241.426
855.3034, 4254.412
855.7855, 4272.757
856.2676, 4308.415
856.7498, 4277.515
857.2319, 4317.279
857.7140, 4295.031
858.1961, 4313.146
858.6782, 4308.878
859.1603, 4276.598
859.6425, 4323.328
860.1246, 4297.997
860.6067, 4321.324
861.0888, 4265.839
861.5709, 4306.162
862.0530, 4325.858
862.5352, 4341.306
863.0173, 4338.881
863.4994, 4328.494
863.9815, 4330.603
864.4636, 4311.855
864.9457, 4262.652
865.4279, 4276.642
865.9100, 4309.747
866.3921, 4333.376
866.8742, 4292.850
867.3563, 4321.366
867.8384, 4318.796
868.3206, 4345.645
868.8027, 4316.102
869.2848, 4353.694
869.7669, 4301.021
870.2490, 4345.431
870.7311, 4363.500
871.2133, 4282.415
871.6954, 4364.172
872.1775, 4298.898
872.6596, 4320.301
873.1417, 4313.231
873.6238, 4346.096
874.1060, 4380.956
874.5881, 4383.866
875.0702, 4370.189
875.5523, 4359.343
876.0344, 4354.895
876.5165, 4353.390
876.9987, 4354.642
877.4808, 4358.999
877.9629, 4367.452
878.4450, 4379.775
878.9271, 4390.557
879.4092, 4366.052
879.8914, 4392.243
880.3735, 4408.608
880.8556, 4415.678
881.3377, 4385.607
881.8198, 4403.496
882.3019, 4402.164
882.7841, 4400.045
883.2662, 4424.682
883.7483, 4400.014
884.2304, 4424.228
884.7125, 4428.928
885.1946, 4442.559
885.6768, 4436.853
886.1588, 4437.118
886.6409, 4456.729
887.1230, 4465.627
887.6052, 4457.695
888.0873, 4459.969
888.5694, 4475.685
889.0515, 4488.363
889.5336, 4483.604
890.0157, 4459.604
890.4979, 4445.258
890.9800, 4440.127
891.4621, 4446.682
891.9442, 4477.039
892.4263, 4517.513
892.9084, 4531.583
893.3906, 4521.862
893.8727, 4514.188
894.3548, 4526.589
894.8369, 4541.649
895.3190, 4547.008
895.8011, 4543.895
896.2833, 4553.218
896.7654, 4583.783
897.2475, 4604.446
897.7296, 4600.134
898.2117, 4580.168
898.6938, 4568.816
899.1760, 4565.226
899.6581, 4565.338
900.1402, 4568.949
900.6223, 4574.013
901.1044, 4578.719
901.5865, 4583.895
902.0687, 4591.696
902.5508, 4603.256
903.0329, 4615.737
903.5150, 4629.480
903.9971, 4642.774
904.4792, 4648.744
904.9614, 4649.542
905.4435, 4660.510
905.9256, 4691.320
906.4077, 4720.977
906.8898, 4730.520
907.3719, 4728.156
907.8541, 4725.284
908.3362, 4709.636
908.8183, 4718.420
909.3004, 4770.485
909.7825, 4824.867
910.2646, 4826.436
910.7468, 4780.295
911.2289, 4760.062
911.7110, 4776.228
912.1931, 4801.224
912.6752, 4810.798
913.1573, 4814.942
913.6395, 4823.652
914.1216, 4838.133
914.6037, 4859.715
915.0858, 4899.594
915.5679, 4933.515
916.0500, 4944.013
916.5322, 4931.563
917.0143, 4930.359
917.4964, 4940.646
917.9785, 4954.369
918.4606, 4965.597
918.9427, 4977.283
919.4249, 4994.603
919.9070, 5016.578
920.3891, 5034.480
920.8712, 5046.044
921.3533, 5051.891
921.8354, 5049.499
922.3176, 5041.530
922.7997, 5039.703
923.2818, 5043.919
923.7639, 5054.704
924.2460, 5079.282
924.7281, 5102.227
925.2103, 5102.623
925.6924, 5087.004
926.1745, 5070.104
926.6566, 5063.422
927.1387, 5047.106
927.6208, 5007.959
928.1030, 4964.640
928.5851, 4948.600
929.0672, 4961.323
929.5493, 4974.774
930.0314, 4985.856
930.5135, 4989.854
930.9957, 4981.760
931.4778, 4962.757
931.9599, 4931.622
932.4420, 4878.475
932.9241, 4839.751
933.4063, 4830.187
933.8884, 4832.034
934.3705, 4837.398
934.8526, 4847.997
935.3347, 4840.029
935.8168, 4812.283
936.2990, 4779.379
936.7811, 4747.474
937.2632, 4721.090
937.7453, 4707.462
938.2274, 4706.673
938.7095, 4710.729
939.1917, 4725.684
939.6738, 4735.615
940.1559, 4733.685
940.6380, 4721.773
941.1201, 4710.665
941.6022, 4700.441
942.0844, 4689.400
942.5665, 4676.577
943.0486, 4662.859
943.5307, 4647.442
944.0128, 4632.307
944.4949, 4622.104
944.9771, 4624.018
945.4592, 4623.683
945.9413, 4616.917
946.4234, 4608.085
946.9055, 4606.713
947.3876, 4612.665
947.8698, 4606.583
948.3519, 4581.509
948.8340, 4558.670
949.3161, 4570.963
949.7982, 4594.549
950.2803, 4596.376
950.7625, 4557.407
951.2446, 4535.337
951.7267, 4546.355
952.2088, 4564.642
952.6909, 4573.479
953.1730, 4572.942
953.6552, 4571.739
954.1373, 4569.926
954.6194, 4564.205
955.1015, 4545.116
955.5836, 4526.374
956.0657, 4521.646
956.5479, 4530.477
957.0300, 4541.756
957.5121, 4563.539
957.9942, 4571.140
958.4763, 4550.863
958.9584, 4515.822
959.4406, 4507.356
959.9227, 4522.214
960.4048, 4538.490
960.8869, 4551.924
961.3690, 4556.643
961.8511, 4537.066
962.3333, 4509.090
962.8154, 4498.273
963.2975, 4522.225
963.7796, 4540.296
964.2617, 4552.330
964.7438, 4555.807
965.2260, 4539.989
965.7081, 4512.194
966.1902, 4505.157
966.6723, 4524.164
967.1544, 4542.481
967.6365, 4534.469
968.1187, 4523.289
968.6008, 4530.340
969.0829, 4559.409
969.5650, 4575.374
970.0471, 4576.911
970.5292, 4569.283
971.0114, 4551.152
971.4935, 4527.706
971.9756, 4508.715
972.4577, 4495.772
972.9398, 4494.175
973.4219, 4521.890
973.9041, 4544.898
974.3862, 4542.390
974.8683, 4525.825
975.3504, 4519.915
975.8325, 4526.194
976.3146, 4536.054
976.7968, 4547.790
977.2789, 4563.214
977.7610, 4594.572
978.2431, 4628.580
978.7252, 4639.094
979.2073, 4614.237
979.6895, 4589.890
980.1716, 4582.694
980.6537, 4577.015
981.1358, 4559.105
981.6179, 4527.114
982.1000, 4525.995
982.5822, 4557.583
983.0643, 4588.107
983.5464, 4592.265
984.0285, 4583.524
984.5106, 4574.000
984.9927, 4564.625
985.4749, 4557.290
985.9570, 4549.682
986.4391, 4548.595
986.9212, 4558.329
987.4033, 4573.043
987.8854, 4578.599
988.3676, 4576.314
988.8497, 4578.163
989.3318, 4590.612
989.8139, 4598.610
990.2960, 4580.040
990.7781, 4554.243
991.2603, 4546.277
991.7424, 4573.690
992.2245, 4582.704
992.7066, 4567.989
993.1887, 4546.754
993.6708, 4527.503
994.1530, 4513.379
994.6351, 4517.539
995.1172, 4538.846
995.5993, 4563.064
996.0814, 4586.269
996.5635, 4605.552
997.0457, 4620.288
997.5278, 4629.715
998.0099, 4627.727
998.4920, 4610.292
998.9741, 4602.795
999.4562, 4616.487
999.9384, 4634.943
1000.420, 4630.547
1000.903, 4613.413
1001.385, 4603.000
1001.867, 4610.134
1002.349, 4613.734
1002.831, 4603.886
1003.313, 4593.148
1003.795, 4593.145
1004.277, 4604.397
1004.760, 4607.662
1005.242, 4602.418
1005.724, 4595.459
1006.206, 4588.810
1006.688, 4585.215
1007.170, 4590.939
1007.652, 4604.331
1008.134, 4606.975
1008.616, 4585.882
1009.099, 4575.999
1009.581, 4589.906
1010.063, 4616.366
1010.545, 4575.499
1011.027, 4598.059
1011.509, 4610.794
1011.991, 4614.233
1012.473, 4580.532
1012.955, 4594.790
1013.438, 4589.828
1013.920, 4584.078
1014.402, 4605.085
1014.884, 4576.786
1015.366, 4597.369
1015.848, 4598.439
1016.330, 4608.440
1016.812, 4599.103
1017.294, 4617.548
1017.777, 4646.815
1018.259, 4667.204
1018.741, 4659.166
1019.223, 4649.498
1019.705, 4644.756
1020.187, 4644.231
1020.669, 4647.396
1021.151, 4653.796
1021.634, 4658.120
1022.116, 4658.305
1022.598, 4657.601
1023.080, 4654.523
1023.562, 4654.306
1024.044, 4664.916
1024.526, 4696.818
1025.008, 4710.524
1025.490, 4699.668
1025.973, 4687.896
1026.455, 4698.160
1026.937, 4719.431
1027.419, 4720.546
1027.901, 4703.354
1028.383, 4681.963
1028.865, 4647.779
1029.347, 4628.262
1029.830, 4645.036
1030.312, 4680.092
1030.794, 4699.340
1031.276, 4702.462
1031.758, 4692.877
1032.240, 4667.344
1032.722, 4645.979
1033.204, 4655.098
1033.687, 4678.695
1034.169, 4698.062
1034.651, 4709.084
1035.133, 4719.981
1035.615, 4735.318
1036.097, 4743.282
1036.579, 4733.471
1037.061, 4711.702
1037.543, 4701.488
1038.026, 4701.246
1038.508, 4703.866
1038.990, 4708.059
1039.472, 4711.628
1039.954, 4709.910
1040.436, 4708.622
1040.918, 4720.438
1041.400, 4750.458
1041.882, 4763.008
1042.365, 4752.320
1042.847, 4734.363
1043.329, 4721.868
1043.811, 4714.550
1044.293, 4713.434
1044.775, 4718.974
1045.257, 4723.170
1045.739, 4724.694
1046.222, 4724.060
1046.704, 4719.097
1047.186, 4713.294
1047.668, 4722.344
1048.150, 4742.064
1048.632, 4752.063
1049.114, 4732.204
1049.596, 4719.698
1050.078, 4751.162
1050.561, 4792.708
1051.043, 4799.906
1051.525, 4761.031
1052.007, 4736.697
1052.489, 4729.246
1052.971, 4729.736
1053.453, 4732.924
1053.935, 4737.877
1054.417, 4745.866
1054.900, 4755.485
1055.382, 4757.627
1055.864, 4737.191
1056.346, 4727.799
1056.828, 4741.485
1057.310, 4765.285
1057.792, 4768.852
1058.274, 4758.487
1058.757, 4762.389
1059.239, 4794.415
1059.721, 4814.666
1060.203, 4787.327
1060.685, 4747.482
1061.167, 4720.602
1061.649, 4706.403
1062.131, 4719.433
1062.614, 4762.257
1063.096, 4801.024
1063.578, 4820.860
1064.060, 4821.488
1064.542, 4785.045
1065.024, 4729.898
1065.506, 4702.611
1065.988, 4744.500
1066.470, 4767.618
1066.953, 4757.122
1067.435, 4740.813
1067.917, 4763.286
1068.399, 4808.183
1068.881, 4817.519
1069.363, 4785.375
1069.845, 4757.418
1070.327, 4761.908
1070.809, 4774.035
1071.292, 4781.417
1071.774, 4785.247
1072.256, 4796.052
1072.738, 4813.976
1073.220, 4816.904
1073.702, 4792.357
1074.184, 4762.171
1074.666, 4739.827
1075.148, 4729.527
1075.631, 4740.725
1076.113, 4796.215
1076.595, 4812.397
1077.077, 4776.429
1077.559, 4740.420
1078.041, 4745.147
1078.523, 4775.632
1079.005, 4804.792
1079.488, 4830.849
1079.970, 4848.468
1080.452, 4850.043
1080.934, 4849.147
1081.416, 4847.157
1081.898, 4846.257
1082.380, 4851.912
1082.862, 4862.817
1083.344, 4865.849
1083.827, 4858.552
1084.309, 4852.009
1084.791, 4856.621
1085.273, 4863.424
1085.755, 4867.154
1086.237, 4867.304
1086.719, 4857.258
1087.201, 4833.239
1087.683, 4825.581
1088.166, 4852.599
1088.648, 4887.793
1089.130, 4892.135
1089.612, 4881.566
1090.094, 4882.056
1090.576, 4910.444
1091.058, 4926.019
1091.540, 4925.001
1092.023, 4914.352
1092.505, 4892.782
1092.987, 4866.094
1093.469, 4857.369
1093.951, 4863.405
1094.433, 4868.182
1094.915, 4857.077
1095.397, 4851.580
1095.880, 4862.153
1096.362, 4879.979
1096.844, 4893.612
1097.326, 4903.016
1097.808, 4910.799
1098.290, 4917.599
1098.772, 4918.819
1099.254, 4904.703
1099.736, 4888.609
1100.219, 4881.207
1100.701, 4882.633
1101.183, 4884.035
1101.665, 4884.949
1102.147, 4888.641
1102.629, 4897.493
1103.111, 4906.082
1103.593, 4903.496
1104.075, 4896.928
1104.558, 4898.646
1105.040, 4917.112
1105.522, 4924.342
1106.004, 4910.028
1106.486, 4900.688
1106.968, 4917.578
1107.450, 4949.860
1107.932, 4967.646
1108.415, 4971.019
1108.897, 4960.611
1109.379, 4922.969
1109.861, 4888.773
1110.343, 4859.999
1110.825, 4844.836
1111.307, 4862.221
1111.789, 4909.017
1112.271, 4924.578
1112.754, 4904.774
1113.236, 4885.121
1113.718, 4892.661
1114.200, 4906.652
1114.682, 4915.439
1115.164, 4918.731
1115.646, 4915.101
1116.128, 4901.852
1116.610, 4902.815
1117.093, 4926.834
1117.575, 4951.977
1118.057, 4952.694
1118.539, 4941.788
1119.021, 4934.129
1119.503, 4932.854
1119.985, 4925.639
1120.467, 4909.216
1120.950, 4894.827
1121.432, 4885.396
1121.914, 4883.144
1122.396, 4896.801
1122.878, 4920.277
1123.360, 4940.489
1123.842, 4953.668
1124.324, 4962.559
1124.807, 4967.913
1125.289, 4969.065
1125.771, 4963.217
1126.253, 4952.220
1126.735, 4944.284
1127.217, 4939.867
1127.699, 4941.946
1128.181, 4961.615
1128.663, 4976.531
1129.146, 4973.015
1129.628, 4962.636
1130.110, 4961.773
1130.592, 4970.017
1131.074, 4971.850
1131.556, 4965.649
1132.038, 4959.367
1132.520, 4956.805
1133.002, 4958.660
1133.485, 4966.293
1133.967, 4979.314
1134.449, 4998.431
1134.931, 5026.915
1135.413, 5036.112
1135.895, 5015.824
1136.377, 4987.304
1136.859, 4964.721
1137.342, 4951.866
1137.824, 4957.131
1138.306, 4985.713
1138.788, 4999.741
1139.270, 4994.740
1139.752, 4988.067
1140.234, 4987.114
1140.716, 4988.602
1141.198, 4976.751
1141.681, 4952.368
1142.163, 4976.546
1142.645, 4990.901
1143.127, 4995.960
1143.609, 4963.879
1144.091, 4979.756
1144.573, 4976.414
1145.055, 4972.284
1145.537, 4994.911
1146.020, 4968.235
1146.502, 4990.438
1146.984, 4993.128
1147.466, 5004.749
1147.948, 4997.031
1148.430, 4995.287
1148.912, 4988.574
1149.394, 4999.527
1149.877, 5009.183
1150.359, 5016.361
1150.841, 5021.147
1151.323, 5016.134
1151.805, 5016.681
1152.287, 5033.937
1152.769, 5059.129
1153.251, 5076.047
1153.734, 5084.665
1154.216, 5084.411
1154.698, 5074.209
1155.180, 5065.389
1155.662, 5071.590
1156.144, 5078.578
1156.626, 5073.632
1157.108, 5059.186
1157.590, 5048.104
1158.073, 5040.341
1158.555, 5038.618
1159.037, 5046.866
1159.519, 5052.481
1160.001, 5034.649
1160.483, 5012.241
1160.965, 5008.797
1161.447, 5028.954
1161.929, 5039.267
1162.412, 5038.436
1162.894, 5036.689
1163.376, 5042.644
1163.858, 5046.056
1164.340, 5022.592
1164.822, 4991.327
1165.304, 4985.205
1165.786, 5027.910
1166.269, 5055.820
1166.751, 5067.197
1167.233, 5070.464
1167.715, 5071.128
1168.197, 5068.129
1168.679, 5054.434
1169.161, 5035.445
1169.643, 5026.799
1170.125, 5031.640
1170.608, 5053.505
1171.090, 5102.679
1171.572, 5145.121
1172.054, 5128.792
1172.536, 5085.267
1173.018, 5086.813
1173.500, 5128.836
1173.982, 5153.333
1174.464, 5125.000
1174.947, 5094.874
1175.429, 5066.534
1175.911, 5049.681
1176.393, 5069.815
1176.875, 5111.196
1177.357, 5130.470
1177.839, 5122.039
1178.321, 5114.300
1178.804, 5119.173
1179.286, 5126.493
1179.768, 5133.717
1180.250, 5140.484
1180.732, 5144.921
1181.214, 5148.109
1181.696, 5155.938
1182.178, 5171.973
1182.661, 5179.345
1183.143, 5164.310
1183.625, 5143.990
1184.107, 5123.469
1184.589, 5105.338
1185.071, 5103.205
1185.553, 5113.648
1186.035, 5120.768
1186.517, 5117.915
1187.000, 5114.347
1187.482, 5109.707
1187.964, 5111.149
1188.446, 5128.271
1188.928, 5157.757
1189.410, 5160.649
1189.892, 5140.636
1190.374, 5123.692
1190.856, 5118.209
1191.339, 5123.946
1191.821, 5153.948
1192.303, 5185.301
1192.785, 5195.352
1193.267, 5183.624
1193.749, 5171.207
1194.231, 5158.625
1194.713, 5151.038
1195.195, 5158.315
1195.678, 5163.908
1196.160, 5149.901
1196.642, 5133.980
1197.124, 5146.567
1197.606, 5189.451
1198.088, 5196.969
1198.570, 5166.627
1199.052, 5138.028
1199.535, 5139.581
1200.017, 5151.182
1200.499, 5171.347
1200.981, 5188.448
1201.463, 5173.679
1201.945, 5124.974
1202.427, 5103.376
1202.909, 5116.093
1203.391, 5137.677
1203.874, 5156.985
1204.356, 5169.179
1204.838, 5161.412
1205.320, 5144.880
1205.802, 5156.472
1206.284, 5197.327
1206.766, 5220.213
1207.248, 5215.492
1207.730, 5202.106
1208.213, 5186.535
1208.695, 5176.768
1209.177, 5182.810
1209.659, 5200.537
1210.141, 5212.956
1210.623, 5219.892
1211.105, 5223.840
1211.587, 5225.680
1212.070, 5223.278
1212.552, 5188.676
1213.034, 5213.549
1213.516, 5228.598
1213.998, 5234.352
1214.480, 5202.964
1214.962, 5219.536
1215.444, 5216.888
1215.927, 5213.457
1216.409, 5236.778
1216.891, 5210.793
1217.373, 5233.690
1217.855, 5237.075
1218.337, 5249.390
1218.819, 5242.366
1219.301, 5241.315
1219.783, 5259.609
1220.266, 5267.197
1220.748, 5257.948
1221.230, 5270.830
1221.712, 5244.170
1222.194, 5252.208
1222.676, 5275.219
1223.158, 5266.942
1223.640, 5280.178
1224.122, 5285.220
1224.605, 5253.032
1225.087, 5285.596
1225.569, 5290.154
1226.051, 5265.958
1226.533, 5296.302
1227.015, 5276.070
1227.497, 5273.890
1227.979, 5285.297
1228.462, 5282.545
1228.944, 5302.118
1229.426, 5300.180
1229.908, 5296.319
1230.390, 5300.847
1230.872, 5281.605
1231.354, 5306.459
1231.836, 5301.192
1232.318, 5310.897
1232.801, 5324.001
1233.283, 5311.116
1233.765, 5325.739
1234.247, 5297.702
1234.729, 5305.361
1235.211, 5309.176
1235.693, 5335.807
1236.175, 5307.979
1236.657, 5314.645
1237.140, 5336.005
1237.622, 5336.808
1238.104, 5346.204
1238.586, 5330.162
1239.068, 5338.017
1239.550, 5339.285
1240.032, 5330.993
1240.514, 5336.052
1240.997, 5353.702
1241.479, 5370.930
1241.961, 5391.358
1242.443, 5394.637
1242.925, 5360.509
1243.407, 5315.073
1243.889, 5300.821
1244.371, 5313.613
1244.854, 5332.265
1245.336, 5354.202
1245.818, 5377.439
1246.300, 5411.222
1246.782, 5431.198
1247.264, 5424.685
1247.746, 5406.234
1248.228, 5404.159
1248.710, 5412.039
1249.193, 5401.232
1249.675, 5368.813
1250.157, 5348.689
1250.639, 5363.452
1251.121, 5385.960
1251.603, 5414.303
1252.085, 5438.171
1252.567, 5434.364
1253.049, 5412.028
1253.532, 5388.302
1254.014, 5365.456
1254.496, 5359.245
1254.978, 5388.683
1255.460, 5413.490
1255.942, 5422.007
1256.424, 5422.486
1256.906, 5430.486
1257.389, 5440.107
1257.871, 5437.286
1258.353, 5418.761
1258.835, 5411.175
1259.317, 5427.727
1259.799, 5432.269
1260.281, 5408.205
1260.763, 5381.753
1261.245, 5406.425
1261.728, 5448.982
1262.210, 5455.600
1262.692, 5415.071
1263.174, 5391.640
1263.656, 5389.441
1264.138, 5402.495
1264.620, 5433.872
1265.102, 5466.881
1265.584, 5479.415
1266.067, 5480.929
1266.549, 5481.229
1267.031, 5481.292
1267.513, 5485.977
1267.995, 5496.430
1268.477, 5500.705
1268.959, 5491.603
1269.441, 5483.914
1269.924, 5499.756
1270.406, 5520.256
1270.888, 5523.079
1271.370, 5509.167
1271.852, 5504.342
1272.334, 5508.598
1272.816, 5512.510
1273.298, 5512.868
1273.781, 5512.804
1274.263, 5512.842
1274.745, 5515.781
1275.227, 5524.858
1275.709, 5539.020
1276.191, 5553.625
1276.673, 5567.196
1277.155, 5563.308
1277.637, 5529.041
1278.120, 5501.391
1278.602, 5507.055
1279.084, 5519.480
1279.566, 5523.944
1280.048, 5521.825
1280.530, 5515.637
1281.012, 5507.761
1281.494, 5508.378
1281.976, 5524.711
1282.459, 5534.922
1282.941, 5527.221
1283.423, 5518.254
1283.905, 5514.253
1284.387, 5515.377
1284.869, 5527.828
1285.351, 5544.359
1285.833, 5546.193
1286.316, 5518.361
1286.798, 5515.292
1287.280, 5554.376
1287.762, 5585.200
1288.244, 5581.115
1288.726, 5559.500
1289.208, 5536.908
1289.690, 5522.580
##END=



