##NAMES=Henritermierite
##RRUFFID=R060253
##IDEAL CHEMISTRY=Ca_3_Mn^3+^_2_(SiO_4_)_2_(OH)_4_
##LOCALITY=N'Chwaning mine, Kuruman, Kakahari mining area, Cape Province, South Africa
##OWNER=RRUFF
##SOURCE=William W. Pinch
##DESCRIPTION=Reddish-brown granular coating on darker andradite
##STATUS=The identification of this mineral is confirmed by single-crystal X-ray diffraction and chemical analysis.
##URL=rruff.info/R060253
##MEASURED CHEMISTRY=Ca_3.00_(Mn^3+^_1.97_Al_0.03_)_Î£=2_(Si_1.00_O_4_)_2_(OH)_4_
142.2853, 69.62808
142.7675, 70.61520
143.2496, 71.52508
143.7317, 72.35921
144.2138, 73.09318
144.6959, 73.75830
145.1780, 74.31325
145.6602, 74.68918
146.1423, 75.13076
146.6244, 76.30653
147.1065, 78.47527
147.5886, 80.41692
148.0707, 81.42058
148.5529, 81.74986
149.0350, 82.43571
149.5171, 84.35572
149.9992, 86.39501
150.4813, 87.05251
150.9634, 86.18780
151.4456, 84.24561
151.9277, 81.36365
152.4098, 77.45123
152.8919, 73.35931
153.3740, 68.80518
153.8561, 64.50540
154.3383, 61.07904
154.8204, 58.79023
155.3025, 57.26830
155.7846, 55.87696
156.2667, 54.49958
156.7488, 53.57224
157.2310, 53.33122
157.7131, 53.45626
158.1952, 53.63039
158.6773, 53.69265
159.1594, 53.71708
159.6415, 54.00191
160.1237, 54.97912
160.6058, 55.71215
161.0879, 55.84687
161.5700, 55.67987
162.0521, 55.63163
162.5342, 55.97659
163.0164, 56.68891
163.4985, 57.33849
163.9806, 57.85729
164.4627, 58.39237
164.9448, 59.03857
165.4269, 59.74465
165.9091, 60.37718
166.3912, 60.84928
166.8733, 61.14865
167.3554, 61.26661
167.8375, 61.08616
168.3196, 60.85641
168.8018, 60.75610
169.2839, 60.77223
169.7660, 60.74752
170.2481, 60.66008
170.7302, 60.43653
171.2123, 59.57454
171.6945, 57.81522
172.1766, 55.53493
172.6587, 52.97700
173.1408, 50.12166
173.6229, 47.29579
174.1050, 44.73185
174.5872, 42.39890
175.0693, 40.33501
175.5514, 38.58573
176.0335, 37.09704
176.5156, 35.77442
176.9977, 34.59216
177.4799, 33.61461
177.9620, 32.91247
178.4441, 32.42340
178.9262, 32.02113
179.4083, 31.64874
179.8904, 31.30462
180.3726, 30.99705
180.8547, 30.71319
181.3368, 30.49112
181.8189, 30.35576
182.3010, 30.29333
182.7831, 30.26834
183.2653, 30.25397
183.7474, 30.24942
184.2295, 30.26852
184.7116, 30.32033
185.1937, 30.39107
185.6758, 30.49484
186.1580, 30.61939
186.6401, 30.72961
187.1222, 30.77854
187.6043, 30.73359
188.0864, 30.77314
188.5685, 31.01201
189.0507, 31.22881
189.5328, 31.32417
190.0149, 31.28670
190.4970, 31.15245
190.9791, 30.95194
191.4612, 30.64947
191.9434, 30.39453
192.4255, 30.18741
192.9076, 30.02043
193.3897, 29.90112
193.8718, 29.82646
194.3539, 29.77264
194.8361, 29.72004
195.3182, 29.70036
195.8003, 29.56469
196.2824, 29.13017
196.7645, 28.67399
197.2466, 28.47311
197.7288, 28.59190
198.2109, 28.88039
198.6930, 29.20698
199.1751, 29.61490
199.6572, 29.77767
200.1393, 29.37033
200.6215, 28.76872
201.1036, 28.52012
201.5857, 28.78644
202.0678, 29.27707
202.5499, 29.70479
203.0320, 30.08061
203.5142, 30.30311
203.9963, 30.27947
204.4784, 30.07644
204.9605, 29.82288
205.4426, 29.47966
205.9247, 29.20936
206.4069, 29.17367
206.8890, 29.34831
207.3711, 29.60701
207.8532, 29.93760
208.3353, 30.31479
208.8174, 30.60563
209.2996, 30.78961
209.7817, 30.87134
210.2638, 30.75977
210.7459, 30.51015
211.2280, 30.41463
211.7101, 30.81182
212.1923, 31.68225
212.6744, 32.31153
213.1565, 32.35040
213.6386, 32.40087
214.1207, 32.81652
214.6028, 33.54614
215.0850, 34.30740
215.5671, 34.78422
216.0492, 34.92004
216.5313, 35.25015
217.0134, 36.07806
217.4955, 36.86841
217.9777, 37.41054
218.4598, 37.71056
218.9419, 37.89198
219.4240, 37.98360
219.9061, 37.85653
220.3882, 38.31720
220.8704, 40.10293
221.3525, 41.81793
221.8346, 42.70245
222.3167, 42.84873
222.7988, 42.91805
223.2809, 43.62315
223.7631, 45.15393
224.2452, 46.54847
224.7273, 47.51966
225.2094, 48.61428
225.6915, 50.23238
226.1736, 52.30483
226.6558, 54.40224
227.1379, 56.06725
227.6200, 57.17251
228.1021, 58.35065
228.5842, 59.65657
229.0663, 60.97330
229.5485, 62.18831
230.0306, 63.31367
230.5127, 64.47012
230.9948, 65.75945
231.4769, 67.19888
231.9590, 68.79085
232.4412, 70.69055
232.9233, 72.60276
233.4054, 74.32185
233.8875, 75.84057
234.3696, 77.35081
234.8517, 79.05157
235.3339, 80.97620
235.8160, 82.58768
236.2981, 83.55969
236.7802, 84.46279
237.2623, 85.82326
237.7444, 87.63676
238.2266, 89.34937
238.7087, 90.41264
239.1908, 90.84257
239.6729, 91.56896
240.1550, 92.76102
240.6371, 94.16182
241.1193, 95.61243
241.6014, 97.10575
242.0835, 98.54494
242.5656, 99.91978
243.0477, 101.1766
243.5298, 102.1688
244.0120, 102.8862
244.4941, 103.3253
244.9762, 103.3747
245.4583, 103.0161
245.9404, 102.6647
246.4225, 102.6521
246.9047, 102.8284
247.3868, 102.8767
247.8689, 102.8310
248.3510, 102.5703
248.8331, 101.9399
249.3152, 100.9211
249.7974, 99.68845
250.2795, 98.13133
250.7616, 96.46616
251.2437, 95.04402
251.7258, 94.03968
252.2079, 93.13024
252.6901, 91.94183
253.1722, 90.46092
253.6543, 88.85359
254.1364, 87.08155
254.6185, 85.28110
255.1006, 83.57890
255.5828, 82.01875
256.0649, 80.53927
256.5470, 78.95271
257.0291, 77.15990
257.5112, 75.88241
257.9933, 76.09063
258.4755, 76.54586
258.9576, 76.25950
259.4397, 74.97154
259.9218, 73.36478
260.4039, 72.24914
260.8860, 71.70735
261.3682, 71.18290
261.8503, 70.62941
262.3324, 69.99171
262.8145, 69.16795
263.2966, 68.14823
263.7787, 67.12502
264.2609, 66.37196
264.7430, 65.97238
265.2251, 65.37231
265.7072, 64.28363
266.1893, 63.12097
266.6714, 62.09039
267.1536, 61.20817
267.6357, 60.36539
268.1178, 59.41417
268.5999, 58.31789
269.0820, 57.34483
269.5641, 56.66856
270.0463, 55.99245
270.5284, 55.12482
271.0105, 54.10972
271.4926, 53.16959
271.9747, 52.51292
272.4568, 52.15392
272.9390, 51.93148
273.4211, 52.07163
273.9032, 52.15392
274.3853, 52.00314
274.8674, 51.65999
275.3495, 51.26849
275.8317, 50.92991
276.3138, 50.64507
276.7959, 50.43245
277.2780, 50.41075
277.7601, 50.35192
278.2422, 50.18970
278.7244, 49.94483
279.2065, 49.66833
279.6886, 49.39575
280.1707, 49.12358
280.6528, 48.82350
281.1349, 48.76459
281.6171, 48.36169
282.0992, 47.16351
282.5813, 45.61708
283.0634, 44.41133
283.5455, 43.98120
284.0276, 44.10827
284.5098, 43.79170
284.9919, 42.49723
285.4740, 41.38697
285.9561, 40.70417
286.4382, 40.24574
286.9203, 39.76014
287.4025, 39.13464
287.8846, 38.44795
288.3667, 37.91754
288.8488, 37.69661
289.3309, 37.42500
289.8130, 37.04950
290.2952, 36.63423
290.7773, 36.18348
291.2594, 35.71533
291.7415, 35.33351
292.2236, 35.25547
292.7057, 35.81778
293.1879, 36.12142
293.6700, 36.09087
294.1521, 35.88834
294.6342, 35.54122
295.1163, 35.09896
295.5984, 34.72666
296.0806, 34.66487
296.5627, 35.07529
297.0448, 35.33702
297.5269, 35.30927
298.0090, 35.27355
298.4911, 35.44197
298.9733, 35.79184
299.4554, 36.12310
299.9375, 36.22911
300.4196, 36.06957
300.9017, 35.94603
301.3839, 35.94952
301.8660, 35.89626
302.3481, 35.56436
302.8302, 35.08778
303.3123, 34.83970
303.7944, 35.13672
304.2766, 35.95618
304.7587, 36.49913
305.2408, 36.44585
305.7229, 36.48450
306.2050, 36.97685
306.6871, 37.66618
307.1693, 38.05396
307.6514, 37.83468
308.1335, 37.17752
308.6156, 36.85629
309.0977, 37.05366
309.5798, 37.39570
310.0620, 38.08136
310.5441, 38.81523
311.0262, 39.16917
311.5083, 38.97587
311.9904, 38.52289
312.4725, 38.44682
312.9547, 39.10955
313.4368, 39.68545
313.9189, 40.09780
314.4010, 40.47241
314.8831, 40.91983
315.3652, 41.46464
315.8474, 42.07002
316.3295, 42.69808
316.8116, 43.44294
317.2937, 43.94072
317.7758, 43.96192
318.2579, 43.95282
318.7401, 44.19489
319.2222, 44.69669
319.7043, 45.30985
320.1864, 45.92363
320.6685, 46.57655
321.1506, 46.88648
321.6328, 46.40676
322.1149, 46.07943
322.5970, 46.31226
323.0791, 47.01069
323.5612, 47.90169
324.0433, 48.83199
324.5255, 49.77899
325.0076, 50.49478
325.4897, 50.81345
325.9718, 51.09016
326.4539, 51.37512
326.9360, 51.66289
327.4182, 51.93000
327.9003, 52.16542
328.3824, 52.39302
328.8645, 52.68247
329.3466, 53.11178
329.8287, 53.50304
330.3109, 53.93473
330.7930, 54.28270
331.2751, 54.40101
331.7572, 54.26007
332.2393, 53.98169
332.7214, 53.74645
333.2036, 53.56029
333.6857, 53.40967
334.1678, 53.31534
334.6499, 53.23292
335.1320, 53.18498
335.6141, 53.14109
336.0963, 53.00705
336.5784, 52.69062
337.0605, 52.18323
337.5426, 51.55671
338.0247, 50.57895
338.5068, 49.71671
338.9890, 49.32030
339.4711, 49.16020
339.9532, 48.74049
340.4353, 47.69639
340.9174, 46.14856
341.3995, 44.84920
341.8817, 43.95640
342.3638, 43.15745
342.8459, 42.47825
343.3280, 41.83462
343.8101, 41.11342
344.2922, 40.26662
344.7744, 39.37394
345.2565, 38.62777
345.7386, 38.18402
346.2207, 37.57801
346.7028, 36.57967
347.1849, 35.56680
347.6671, 34.86344
348.1492, 34.49767
348.6313, 34.22938
349.1134, 33.74315
349.5955, 32.96627
350.0776, 32.30253
350.5598, 31.66406
351.0419, 31.22140
351.5240, 31.25066
352.0061, 31.57392
352.4882, 31.69284
352.9703, 31.11163
353.4525, 29.94670
353.9346, 29.43388
354.4167, 30.12054
354.8988, 30.76153
355.3809, 31.04243
355.8630, 31.04928
356.3452, 30.85416
356.8273, 30.45131
357.3094, 30.00749
357.7915, 29.92322
358.2736, 30.34899
358.7557, 30.74789
359.2379, 30.98487
359.7200, 31.15779
360.2021, 31.34466
360.6842, 31.56139
361.1663, 31.75785
361.6484, 31.85918
362.1306, 31.85272
362.6127, 31.89957
363.0948, 32.06444
363.5769, 32.24358
364.0590, 32.39870
364.5411, 32.52201
365.0233, 32.59516
365.5054, 32.46309
365.9875, 32.24484
366.4696, 32.54189
366.9517, 33.67315
367.4338, 34.69880
367.9160, 35.07157
368.3981, 35.05809
368.8802, 35.02908
369.3623, 35.10279
369.8444, 35.23557
370.3265, 35.42531
370.8087, 35.70192
371.2908, 35.76359
371.7729, 35.20818
372.2550, 34.57224
372.7371, 34.54864
373.2192, 35.30797
373.7014, 35.92522
374.1835, 35.45902
374.6656, 34.19226
375.1477, 33.45262
375.6298, 33.67803
376.1119, 34.20383
376.5941, 34.44900
377.0762, 34.44429
377.5583, 34.29576
378.0404, 33.93287
378.5225, 33.49202
379.0046, 33.20063
379.4868, 33.08724
379.9689, 32.95247
380.4510, 32.64293
380.9331, 32.20538
381.4152, 31.79737
381.8973, 31.47103
382.3795, 31.13329
382.8616, 30.68298
383.3437, 30.15635
383.8258, 29.69550
384.3079, 29.34910
384.7900, 29.10865
385.2722, 28.96881
385.7543, 28.93348
386.2364, 28.94298
386.7185, 29.14819
387.2006, 29.32215
387.6827, 29.11397
388.1649, 28.45173
388.6470, 27.64088
389.1291, 26.98933
389.6112, 26.52596
390.0933, 26.01138
390.5754, 25.28834
391.0576, 24.65168
391.5397, 24.31169
392.0218, 24.22281
392.5039, 24.22361
392.9860, 24.24073
393.4681, 24.24061
393.9503, 24.05303
394.4324, 23.44693
394.9145, 22.95543
395.3966, 22.71208
395.8787, 22.60018
396.3608, 22.50414
396.8430, 22.38286
397.3251, 22.22357
397.8072, 21.99642
398.2893, 21.63618
398.7714, 21.38946
399.2535, 21.32750
399.7357, 21.29856
400.2178, 21.17984
400.6999, 21.00711
401.1820, 20.93508
401.6641, 21.11289
402.1462, 21.50461
402.6284, 21.64701
403.1105, 21.19405
403.5926, 20.89654
404.0747, 20.89448
404.5568, 21.11153
405.0389, 21.52416
405.5211, 22.11995
406.0032, 22.71061
406.4853, 22.91410
406.9674, 22.55620
407.4495, 22.35076
407.9316, 22.32052
408.4138, 22.49778
408.8959, 23.10271
409.3780, 24.01777
409.8601, 24.73117
410.3422, 24.68520
410.8243, 24.00525
411.3065, 23.74803
411.7886, 24.15899
412.2707, 24.58430
412.7528, 24.59358
413.2349, 24.47094
413.7170, 24.67611
414.1992, 25.48116
414.6813, 26.41246
415.1634, 26.76188
415.6455, 26.49352
416.1276, 26.34674
416.6097, 26.60816
417.0919, 27.02439
417.5740, 27.28591
418.0561, 27.38302
418.5382, 27.60317
419.0203, 28.32273
419.5024, 29.23929
419.9846, 29.64527
420.4667, 29.39534
420.9488, 28.95388
421.4309, 28.53875
421.9130, 28.22008
422.3951, 28.25019
422.8773, 29.02084
423.3594, 29.83112
423.8415, 30.06972
424.3236, 29.90298
424.8057, 30.02558
425.2878, 30.82836
425.7700, 31.90262
426.2521, 32.31317
426.7342, 31.79941
427.2163, 31.48755
427.6984, 31.78397
428.1805, 32.25120
428.6627, 32.35879
429.1448, 32.06616
429.6269, 31.84094
430.1090, 32.17665
430.5911, 33.12918
431.0732, 33.51561
431.5554, 32.96606
432.0375, 32.38080
432.5196, 32.02977
433.0017, 31.85839
433.4838, 31.73470
433.9659, 31.59756
434.4481, 31.50094
434.9302, 31.57441
435.4123, 31.93884
435.8944, 32.25902
436.3765, 32.66638
436.8586, 32.92757
437.3408, 32.80453
437.8229, 32.34993
438.3050, 31.85516
438.7871, 31.57543
439.2692, 31.49715
439.7513, 31.37034
440.2335, 31.10471
440.7156, 30.92362
441.1977, 31.05240
441.6798, 31.23386
442.1619, 31.10859
442.6440, 30.52546
443.1262, 29.77832
443.6083, 29.28168
444.0904, 29.06130
444.5725, 28.75289
445.0546, 28.10256
445.5367, 27.54786
446.0189, 27.53544
446.5010, 27.96205
446.9831, 28.23542
447.4652, 27.86769
447.9473, 27.20177
448.4294, 26.88591
448.9116, 26.96252
449.3937, 27.16840
449.8758, 27.48183
450.3579, 27.77320
450.8400, 27.73352
451.3221, 27.08980
451.8043, 26.64698
452.2864, 27.11343
452.7685, 28.05521
453.2506, 28.45779
453.7327, 28.01552
454.2148, 27.37510
454.6970, 27.32707
455.1791, 28.00922
455.6612, 28.39072
456.1433, 28.22006
456.6254, 27.96062
457.1075, 27.81310
457.5897, 27.80830
458.0718, 27.98755
458.5539, 28.39120
459.0360, 28.93806
459.5181, 29.37747
460.0002, 29.66990
460.4824, 29.89708
460.9645, 30.03585
461.4466, 30.12808
461.9287, 30.22072
462.4108, 30.31069
462.8929, 30.33575
463.3751, 30.20195
463.8572, 29.90648
464.3393, 29.82512
464.8214, 30.20053
465.3035, 30.49752
465.7856, 30.47960
466.2678, 30.33875
466.7499, 30.30958
467.2320, 30.47668
467.7141, 30.80478
468.1962, 31.31897
468.6783, 32.05573
469.1605, 32.58001
469.6426, 32.65546
470.1247, 32.67715
470.6068, 32.92420
471.0889, 33.35976
471.5710, 33.81251
472.0532, 34.09732
472.5353, 34.39690
473.0174, 35.07749
473.4995, 36.15755
473.9816, 37.15448
474.4637, 37.78312
474.9459, 38.22438
475.4280, 38.82324
475.9101, 39.55487
476.3922, 40.50236
476.8743, 41.86455
477.3564, 43.40187
477.8386, 44.65876
478.3207, 45.58177
478.8028, 46.67951
479.2849, 48.46859
479.7670, 50.96188
480.2491, 53.15913
480.7313, 54.57093
481.2134, 56.28838
481.6955, 58.68938
482.1776, 61.63081
482.6597, 64.95736
483.1418, 68.58370
483.6240, 72.36590
484.1061, 75.99505
484.5882, 79.36272
485.0703, 82.88668
485.5524, 86.78189
486.0345, 90.62556
486.5167, 94.13218
486.9988, 97.41035
487.4809, 100.7477
487.9630, 104.3605
488.4451, 108.0437
488.9272, 111.2553
489.4094, 113.7562
489.8915, 116.5195
490.3736, 120.2662
490.8557, 124.0508
491.3378, 127.1665
491.8199, 129.5774
492.3021, 131.9611
492.7842, 134.7893
493.2663, 137.8979
493.7484, 140.9303
494.2305, 143.9193
494.7126, 146.6876
495.1948, 149.0937
495.6769, 151.2018
496.1590, 153.2466
496.6411, 155.4313
497.1232, 157.2024
497.6053, 158.3371
498.0875, 158.8748
498.5696, 158.8882
499.0517, 158.3962
499.5338, 157.3523
500.0159, 155.6953
500.4980, 153.4028
500.9802, 150.6088
501.4623, 147.1973
501.9444, 143.4691
502.4265, 139.5418
502.9086, 135.3603
503.3907, 130.8127
503.8729, 125.8448
504.3550, 120.5194
504.8371, 114.9359
505.3192, 108.9262
505.8013, 103.0570
506.2834, 97.12557
506.7656, 91.51926
507.2477, 86.53069
507.7298, 82.02598
508.2119, 77.65850
508.6940, 73.18954
509.1761, 68.84341
509.6583, 65.10236
510.1404, 62.05676
510.6225, 59.14161
511.1046, 56.22413
511.5867, 53.39247
512.0688, 50.65653
512.5510, 48.04155
513.0331, 45.67097
513.5152, 43.56749
513.9973, 41.76860
514.4794, 40.51818
514.9615, 39.79505
515.4437, 38.88590
515.9258, 37.29291
516.4079, 35.30408
516.8900, 33.82316
517.3721, 33.06585
517.8542, 32.26627
518.3364, 31.21925
518.8185, 30.07284
519.3006, 28.88532
519.7827, 27.71797
520.2648, 26.76997
520.7469, 26.24209
521.2291, 26.10536
521.7112, 25.92431
522.1933, 25.58349
522.6754, 25.34181
523.1575, 25.45810
523.6396, 25.56400
524.1218, 25.19008
524.6039, 24.28301
525.0860, 23.33660
525.5681, 22.86787
526.0502, 22.87228
526.5323, 22.98709
527.0145, 23.31252
527.4966, 23.57195
527.9787, 23.61141
528.4608, 23.51883
528.9429, 23.40871
529.4250, 23.30813
529.9072, 23.19350
530.3893, 22.98335
530.8714, 22.73732
531.3535, 22.65794
531.8356, 22.79421
532.3177, 23.06446
532.7999, 23.47025
533.2820, 23.98886
533.7641, 24.25716
534.2462, 24.00543
534.7283, 23.78048
535.2104, 23.85118
535.6926, 24.11429
536.1747, 24.38237
536.6568, 24.59215
537.1389, 24.94536
537.6210, 25.15385
538.1031, 25.65729
538.5853, 26.08618
539.0674, 26.50018
539.5495, 26.78029
540.0316, 26.75976
540.5137, 26.61182
540.9958, 26.61375
541.4780, 26.88601
541.9601, 27.28464
542.4422, 27.58042
542.9243, 27.75891
543.4064, 28.02444
543.8885, 28.38758
544.3707, 28.86909
544.8528, 29.58802
545.3349, 30.42690
545.8170, 31.05456
546.2991, 31.13130
546.7813, 31.22400
547.2634, 31.92292
547.7455, 33.10960
548.2276, 34.31477
548.7097, 35.38145
549.1918, 36.45745
549.6740, 37.71254
550.1561, 39.16221
550.6382, 40.79075
551.1203, 42.78349
551.6024, 44.77678
552.0845, 46.48667
552.5667, 48.06875
553.0488, 49.84749
553.5309, 51.95403
554.0130, 54.29232
554.4951, 56.73536
554.9772, 59.41739
555.4594, 61.76007
555.9415, 63.37084
556.4236, 65.01637
556.9057, 67.09255
557.3878, 69.39780
557.8699, 71.53129
558.3521, 73.30495
558.8342, 74.87124
559.3163, 76.40841
559.7984, 77.91290
560.2805, 79.55494
560.7626, 81.46379
561.2448, 83.34492
561.7269, 84.83251
562.2090, 86.01970
562.6911, 87.37167
563.1732, 89.20970
563.6553, 91.00888
564.1375, 92.41837
564.6196, 93.53020
565.1017, 94.68668
565.5838, 96.02097
566.0659, 97.11179
566.5480, 97.33250
567.0302, 96.50444
567.5123, 95.57107
567.9944, 94.72012
568.4765, 93.57516
568.9586, 92.06825
569.4407, 90.15415
569.9229, 87.79724
570.4050, 84.97802
570.8871, 81.74845
571.3692, 78.09145
571.8513, 73.99780
572.3334, 69.96444
572.8156, 65.89803
573.2977, 62.15460
573.7798, 59.08570
574.2619, 56.42939
574.7440, 53.64885
575.2261, 50.50911
575.7083, 47.45293
576.1904, 44.77332
576.6725, 42.43683
577.1546, 40.37487
577.6367, 38.58619
578.1188, 36.97443
578.6010, 35.46813
579.0831, 34.06818
579.5652, 32.69509
580.0473, 31.20214
580.5294, 29.90540
581.0115, 28.98858
581.4937, 28.26826
581.9758, 27.54815
582.4579, 26.77740
582.9400, 26.01131
583.4221, 25.28482
583.9042, 24.60319
584.3864, 24.08467
584.8685, 23.88232
585.3506, 23.56152
585.8327, 22.80951
586.3148, 21.96126
586.7969, 21.34970
587.2791, 21.02854
587.7612, 20.87085
588.2433, 20.93893
588.7254, 21.06858
589.2075, 20.90526
589.6896, 20.42285
590.1718, 19.85710
590.6539, 19.28598
591.1360, 18.77689
591.6181, 18.56340
592.1002, 18.86013
592.5823, 18.98458
593.0645, 18.73416
593.5466, 18.36685
594.0287, 18.02306
594.5108, 17.75128
594.9929, 17.62844
595.4750, 17.72886
595.9572, 17.93316
596.4393, 17.84682
596.9214, 17.30247
597.4035, 16.93263
597.8856, 16.93263
598.3677, 17.04992
598.8499, 17.25158
599.3320, 17.46825
599.8141, 17.49484
600.2962, 17.12597
600.7783, 16.64582
601.2604, 16.37504
601.7426, 16.29966
602.2247, 16.36429
602.7068, 16.59045
603.1889, 16.82653
603.6710, 16.88627
604.1531, 16.74337
604.6353, 16.61180
605.1174, 16.46596
605.5995, 16.35838
606.0816, 16.33930
606.5637, 16.36302
607.0458, 16.37789
607.5280, 16.36286
608.0101, 16.29321
608.4922, 16.09805
608.9743, 15.76655
609.4564, 15.65827
609.9385, 15.92428
610.4207, 16.16984
610.9028, 16.28700
611.3849, 16.29268
611.8670, 16.13450
612.3491, 15.78349
612.8312, 15.57588
613.3134, 15.94989
613.7955, 16.53979
614.2776, 16.61366
614.7597, 16.13192
615.2418, 15.59258
615.7239, 15.24478
616.2061, 15.07797
616.6882, 15.08155
617.1703, 15.42904
617.6524, 15.61816
618.1345, 15.47022
618.6166, 15.29315
619.0988, 15.33214
619.5809, 15.52250
620.0630, 15.65641
620.5451, 15.62115
621.0272, 15.46067
621.5093, 15.20627
621.9915, 14.81335
622.4736, 14.65585
622.9557, 14.93373
623.4378, 15.25984
623.9199, 15.37390
624.4020, 15.33605
624.8842, 15.28416
625.3663, 15.20309
625.8484, 15.19485
626.3305, 15.46864
626.8126, 15.83719
627.2947, 15.85078
627.7769, 15.43022
628.2590, 14.98635
628.7411, 14.89706
629.2232, 15.12633
629.7053, 15.22456
630.1874, 14.95453
630.6696, 14.85524
631.1517, 15.19148
631.6338, 15.56238
632.1159, 15.63036
632.5980, 15.38562
633.0801, 15.01391
633.5623, 14.57069
634.0444, 14.15717
634.5265, 14.09727
635.0086, 14.42757
635.4907, 14.57891
635.9728, 14.25385
636.4550, 13.85772
636.9371, 13.96959
637.4192, 14.53338
637.9013, 14.89050
638.3834, 14.76756
638.8655, 14.58917
639.3477, 14.60632
639.8298, 14.73860
640.3119, 14.85881
640.7940, 14.92071
641.2761, 14.87930
641.7582, 14.65376
642.2404, 14.23969
642.7225, 13.96338
643.2046, 13.87332
643.6867, 13.85418
644.1688, 13.93523
644.6509, 14.02711
645.1331, 14.04675
645.6152, 13.98346
646.0973, 13.87129
646.5794, 13.57883
647.0615, 13.32445
647.5436, 13.61453
648.0258, 14.37717
648.5079, 14.83250
648.9900, 14.60943
649.4721, 14.04082
649.9542, 13.65493
650.4363, 13.50081
650.9185, 13.36168
651.4006, 13.15488
651.8827, 13.05024
652.3648, 13.22802
652.8469, 13.51466
653.3290, 13.64219
653.8112, 13.53215
654.2933, 13.34691
654.7754, 13.27678
655.2575, 13.30445
655.7396, 13.28107
656.2217, 13.20144
656.7039, 13.07577
657.1860, 12.83442
657.6681, 12.59710
658.1502, 12.56425
658.6323, 12.76949
659.1144, 12.99403
659.5966, 13.31797
660.0787, 13.51927
660.5608, 13.28207
661.0429, 12.75935
661.5250, 12.39325
662.0071, 12.37900
662.4893, 12.54957
662.9714, 12.61988
663.4535, 12.55109
663.9356, 12.59991
664.4177, 12.97311
664.8998, 13.18744
665.3820, 12.97762
665.8641, 12.55930
666.3462, 12.17438
666.8283, 11.85999
667.3104, 11.69053
667.7925, 11.81766
668.2747, 12.07349
668.7568, 12.18521
669.2389, 12.14606
669.7210, 12.08061
670.2031, 12.05392
670.6852, 12.03262
671.1674, 11.93938
671.6495, 11.70966
672.1316, 11.58450
672.6137, 11.73044
673.0958, 11.79294
673.5779, 11.44746
674.0601, 10.98274
674.5422, 10.90917
675.0243, 11.39738
675.5064, 11.92816
675.9885, 11.90296
676.4706, 11.47292
676.9528, 11.19260
677.4349, 11.09437
677.9170, 11.13058
678.3991, 11.33362
678.8812, 11.60588
679.3633, 11.72388
679.8455, 11.63498
680.3276, 11.59519
680.8097, 11.66747
681.2918, 11.76005
681.7739, 11.83348
682.2560, 11.88163
682.7382, 11.92658
683.2203, 11.97286
683.7024, 11.93302
684.1845, 11.58627
684.6666, 10.95432
685.1487, 10.71611
685.6309, 11.00794
686.1130, 11.35112
686.5951, 11.55691
687.0772, 11.66280
687.5593, 11.73926
688.0414, 11.79780
688.5236, 11.76071
689.0057, 11.53214
689.4878, 11.26239
689.9699, 10.97710
690.4520, 10.75960
690.9341, 10.81373
691.4163, 11.21381
691.8984, 11.78421
692.3805, 12.34386
692.8626, 12.91716
693.3447, 13.05936
693.8268, 12.49470
694.3090, 11.97912
694.7911, 11.84284
695.2732, 11.86026
695.7553, 11.76186
696.2374, 11.51886
696.7195, 11.45913
697.2017, 12.06748
697.6838, 12.66391
698.1659, 12.36122
698.6480, 11.43897
699.1301, 10.84140
699.6122, 10.91071
700.0944, 11.22014
700.5765, 11.18245
701.0586, 10.75550
701.5407, 10.72558
702.0228, 11.56021
702.5049, 12.10238
702.9871, 11.83427
703.4692, 11.33916
703.9513, 11.12524
704.4334, 11.23813
704.9155, 11.46054
705.3976, 11.79347
705.8798, 12.09080
706.3619, 12.18205
706.8440, 12.08801
707.3261, 11.81579
707.8082, 11.35191
708.2903, 10.99478
708.7725, 11.13394
709.2546, 11.75911
709.7367, 11.93100
710.2188, 11.09006
710.7009, 10.56695
711.1830, 10.79300
711.6652, 11.20324
712.1473, 11.33252
712.6294, 11.20121
713.1115, 11.13157
713.5936, 11.35029
714.0757, 11.63107
714.5579, 11.63313
715.0400, 11.45416
715.5221, 11.49069
716.0042, 11.84335
716.4863, 12.20912
716.9684, 12.34519
717.4506, 12.26442
717.9327, 12.04947
718.4148, 11.38275
718.8969, 11.04769
719.3790, 11.33618
719.8611, 11.73573
720.3433, 11.94599
720.8254, 11.98148
721.3075, 11.96571
721.7896, 11.94521
722.2717, 11.91796
722.7538, 11.90686
723.2360, 11.88728
723.7181, 11.74683
724.2002, 11.46556
724.6823, 11.22284
725.1644, 11.13106
725.6465, 11.16256
726.1287, 11.23557
726.6108, 11.37051
727.0929, 11.51064
727.5750, 11.71075
728.0571, 11.86108
728.5392, 11.88986
729.0214, 11.83740
729.5035, 11.73860
729.9856, 11.59968
730.4677, 11.55902
730.9498, 11.88595
731.4319, 12.37090
731.9141, 12.45744
732.3962, 12.13544
732.8783, 11.82952
733.3604, 11.73489
733.8425, 11.75135
734.3246, 11.70935
734.8068, 11.57365
735.2889, 11.53816
735.7710, 11.69786
736.2531, 11.83486
736.7352, 11.86176
737.2173, 11.84602
737.6995, 11.89207
738.1816, 12.00052
738.6637, 12.03046
739.1458, 11.74350
739.6279, 11.40889
740.1100, 11.57378
740.5922, 12.13054
741.0743, 12.44449
741.5564, 12.31521
742.0385, 12.03650
742.5206, 11.89437
743.0027, 11.88386
743.4849, 11.90060
743.9670, 11.83987
744.4491, 11.95936
744.9312, 12.52907
745.4133, 13.07717
745.8954, 13.22591
746.3776, 13.04787
746.8597, 12.86022
747.3418, 12.81215
747.8239, 12.77563
748.3060, 12.58750
748.7881, 12.31518
749.2703, 12.08862
749.7524, 11.93434
750.2345, 11.98770
750.7166, 12.37613
751.1987, 12.95030
751.6808, 13.30416
752.1630, 13.34026
752.6451, 13.37648
753.1272, 13.47137
753.6093, 13.50246
754.0914, 13.29944
754.5735, 13.05449
755.0557, 13.10599
755.5378, 13.54504
756.0199, 13.89386
756.5020, 13.73888
756.9841, 13.39572
757.4662, 13.25590
757.9484, 13.30155
758.4305, 13.40446
758.9126, 13.51851
759.3947, 13.61037
759.8768, 13.62747
760.3589, 13.56883
760.8411, 13.58859
761.3232, 13.75076
761.8053, 13.87520
762.2874, 13.87580
762.7695, 13.85582
763.2516, 13.91301
763.7338, 14.02825
764.2159, 14.08132
764.6980, 13.98493
765.1801, 13.87622
765.6622, 13.81641
766.1443, 13.81514
766.6265, 13.91512
767.1086, 14.10166
767.5907, 14.28137
768.0728, 14.39291
768.5549, 14.44709
769.0370, 14.47842
769.5192, 14.49775
770.0013, 14.40424
770.4834, 14.07238
770.9655, 13.83317
771.4476, 13.97263
771.9297, 14.29388
772.4119, 14.47789
772.8940, 14.51091
773.3761, 14.40589
773.8582, 13.88698
774.3403, 13.49479
774.8224, 13.75819
775.3046, 14.39516
775.7867, 14.91584
776.2688, 15.14813
776.7509, 15.09459
777.2330, 14.60436
777.7151, 13.86893
778.1973, 13.73604
778.6794, 14.26856
779.1615, 14.73321
779.6436, 14.94797
780.1257, 14.97183
780.6078, 14.79743
781.0900, 14.44090
781.5721, 14.26456
782.0542, 14.24174
782.5363, 14.42359
783.0184, 15.08140
783.5005, 15.73110
783.9827, 16.02737
784.4648, 15.97844
784.9469, 15.68380
785.4290, 15.14093
785.9111, 14.61444
786.3932, 14.37632
786.8754, 14.39005
787.3575, 14.62750
787.8396, 15.07101
788.3217, 15.44770
788.8038, 15.62528
789.2859, 15.62322
789.7681, 15.43613
790.2502, 14.97727
790.7323, 14.78069
791.2144, 15.07454
791.6965, 15.34749
792.1786, 15.49837
792.6608, 15.55770
793.1429, 15.49013
793.6250, 15.32943
794.1071, 15.30985
794.5892, 15.66480
795.0714, 16.06303
795.5535, 16.18849
796.0356, 16.18729
796.5177, 16.39902
796.9998, 16.82633
797.4819, 17.05603
797.9641, 16.75467
798.4462, 16.20257
798.9283, 16.19986
799.4104, 16.86506
799.8925, 17.23590
800.3746, 17.15560
800.8568, 16.93036
801.3389, 16.62663
801.8210, 16.33067
802.3031, 16.18203
802.7852, 16.17385
803.2673, 16.34646
803.7495, 17.00541
804.2316, 17.53212
804.7137, 17.45744
805.1958, 17.08194
805.6779, 16.83244
806.1600, 16.80512
806.6422, 16.85474
807.1243, 16.83475
807.6064, 16.84765
808.0885, 17.20713
808.5706, 17.84662
809.0527, 18.17892
809.5349, 18.05190
810.0170, 17.81767
810.4991, 17.70906
810.9812, 17.74603
811.4633, 18.03107
811.9454, 18.92615
812.4276, 19.39716
812.9097, 19.07170
813.3918, 18.73129
813.8739, 18.79882
814.3560, 19.03495
814.8381, 19.03535
815.3203, 18.70943
815.8024, 18.39915
816.2845, 18.16370
816.7666, 18.12936
817.2487, 18.62857
817.7308, 19.39293
818.2130, 19.75557
818.6951, 19.57086
819.1772, 19.28931
819.6593, 19.33470
820.1414, 19.60440
820.6235, 19.66313
821.1057, 19.44552
821.5878, 19.54180
822.0699, 20.22134
822.5520, 20.87394
823.0341, 21.08462
823.5162, 20.93576
823.9984, 20.66493
824.4805, 20.06826
824.9626, 19.83432
825.4447, 20.43230
825.9268, 20.99985
826.4089, 20.91052
826.8911, 20.54974
827.3732, 20.59443
827.8553, 21.16861
828.3374, 21.70606
828.8195, 21.61288
829.3016, 21.33730
829.7838, 21.72866
830.2659, 22.53628
830.7480, 22.78258
831.2301, 22.24865
831.7122, 21.62659
832.1943, 21.48470
832.6765, 21.71413
833.1586, 21.93826
833.6407, 22.18490
834.1228, 22.32490
834.6049, 22.29589
835.0870, 22.23419
835.5692, 22.24237
836.0513, 22.25147
836.5334, 22.14460
837.0155, 21.89597
837.4976, 21.65626
837.9797, 21.42875
838.4619, 21.25685
838.9440, 21.21518
839.4261, 21.22109
839.9082, 21.15269
840.3903, 20.99934
840.8724, 20.84443
841.3546, 20.72701
841.8367, 20.67455
842.3188, 20.80430
842.8009, 21.05259
843.2830, 21.08008
843.7651, 20.83490
844.2473, 20.61228
844.7294, 20.60145
845.2115, 20.71297
845.6936, 20.74635
846.1757, 20.67495
846.6578, 20.62711
847.1400, 20.50074
847.6221, 20.55126
848.1042, 21.01675
848.5863, 21.58740
849.0684, 21.95023
849.5505, 22.10814
850.0327, 22.28892
850.5148, 22.68535
850.9969, 22.95693
851.4790, 22.73032
851.9611, 22.43698
852.4432, 22.59156
852.9254, 23.14783
853.4075, 23.76660
853.8896, 24.28846
854.3717, 24.70422
854.8538, 24.93941
855.3359, 25.06449
855.8181, 25.34880
856.3002, 25.79712
856.7823, 26.15668
857.2644, 26.27519
857.7465, 26.56521
858.2286, 27.64237
858.7108, 29.47186
859.1929, 30.58992
859.6750, 30.55502
860.1571, 30.67220
860.6392, 31.12493
861.1213, 31.81293
861.6035, 32.79815
862.0856, 33.95015
862.5677, 34.94108
863.0498, 35.60611
863.5319, 36.46251
864.0140, 37.96138
864.4962, 39.44487
864.9783, 40.31566
865.4604, 40.86257
865.9425, 41.61153
866.4246, 42.69787
866.9067, 43.98961
867.3889, 45.47533
867.8710, 46.98101
868.3531, 48.10679
868.8352, 48.94434
869.3173, 49.92276
869.7994, 51.12151
870.2816, 52.36406
870.7637, 53.55019
871.2458, 54.62648
871.7279, 55.43164
872.2100, 55.88355
872.6921, 56.42354
873.1743, 57.11232
873.6564, 57.77750
874.1385, 58.46327
874.6206, 59.00965
875.1027, 59.12354
875.5848, 58.83274
876.0670, 58.78057
876.5491, 59.38057
877.0312, 59.80149
877.5133, 59.80158
877.9954, 59.49209
878.4775, 58.84669
878.9597, 57.99569
879.4418, 57.23541
879.9239, 56.70317
880.4060, 56.07228
880.8881, 55.00150
881.3702, 53.68064
881.8524, 52.44528
882.3345, 51.24220
882.8166, 49.77445
883.2987, 47.96533
883.7808, 46.20407
884.2629, 44.89282
884.7451, 43.24295
885.2272, 41.75649
885.7093, 40.52657
886.1914, 38.97231
886.6735, 38.01279
887.1556, 37.05827
887.6378, 35.69109
888.1199, 34.14347
888.6020, 32.92284
889.0841, 32.14412
889.5662, 31.27354
890.0483, 30.25294
890.5305, 29.22245
891.0126, 28.12084
891.4947, 27.09826
891.9768, 26.28820
892.4589, 25.68375
892.9410, 25.19409
893.4232, 24.81395
893.9053, 24.48852
894.3874, 24.28617
894.8695, 24.04722
895.3516, 23.54135
895.8337, 22.84714
896.3159, 22.17685
896.7980, 21.60942
897.2801, 21.17394
897.7622, 20.97687
898.2443, 20.88483
898.7264, 20.45308
899.2086, 19.75548
899.6907, 19.40400
900.1728, 19.54441
900.6549, 19.74695
901.1370, 19.69293
901.6191, 19.47978
902.1013, 19.35985
902.5834, 19.32150
903.0655, 19.44303
903.5476, 19.85466
904.0297, 20.17240
904.5118, 20.20588
904.9940, 20.10704
905.4761, 20.05861
905.9582, 20.05528
906.4403, 19.98988
906.9224, 19.69461
907.4045, 19.55822
907.8867, 19.71056
908.3688, 20.00805
908.8509, 20.47276
909.3330, 20.96820
909.8151, 21.18622
910.2972, 21.01868
910.7794, 21.00623
911.2615, 21.64639
911.7436, 22.47323
912.2257, 23.01992
912.7078, 23.37834
913.1899, 23.77443
913.6721, 24.23572
914.1542, 24.59700
914.6363, 24.72650
915.1184, 24.77295
915.6005, 24.98398
916.0826, 25.34422
916.5648, 25.79326
917.0469, 26.32456
917.5290, 26.88641
918.0111, 27.48349
918.4932, 27.97223
918.9753, 28.16648
919.4575, 28.07824
919.9396, 27.88539
920.4217, 27.48244
920.9038, 27.27206
921.3859, 27.41962
921.8680, 27.62272
922.3502, 27.79573
922.8323, 27.85469
923.3144, 27.57949
923.7965, 26.85044
924.2786, 26.26018
924.7607, 26.02097
925.2429, 25.73533
925.7250, 25.20792
926.2071, 24.59832
926.6892, 24.06297
927.1713, 23.60461
927.6534, 23.14844
928.1356, 22.67506
928.6177, 22.17819
929.0998, 21.62177
929.5819, 21.06522
930.0640, 20.58174
930.5461, 20.14696
931.0283, 19.67476
931.5104, 19.14994
931.9925, 18.67153
932.4746, 18.32451
932.9567, 18.07417
933.4388, 17.89931
933.9210, 17.76772
934.4031, 17.54948
934.8852, 17.23073
935.3673, 16.88042
935.8494, 16.53247
936.3315, 16.20123
936.8137, 15.89034
937.2958, 15.60387
937.7779, 15.57800
938.2600, 15.89674
938.7421, 16.05996
939.2242, 15.92001
939.7064, 15.64912
940.1885, 15.39678
940.6706, 15.12059
941.1527, 14.65280
941.6348, 13.78684
942.1169, 13.20857
942.5991, 13.02905
943.0812, 13.01049
943.5633, 13.23436
944.0454, 13.48020
944.5275, 13.52374
945.0096, 13.37232
945.4918, 13.16210
945.9739, 12.71326
946.4560, 12.52087
946.9381, 13.00357
947.4202, 13.54849
947.9023, 13.69884
948.3845, 13.57390
948.8666, 13.41854
949.3487, 13.30148
949.8308, 13.24114
950.3129, 13.28332
950.7950, 13.35280
951.2772, 13.41191
951.7593, 13.43279
952.2414, 13.34026
952.7235, 13.15800
953.2056, 13.00846
953.6877, 12.95083
954.1699, 12.90886
954.6520, 12.75634
955.1341, 12.55469
955.6162, 12.49448
956.0983, 12.55579
956.5804, 12.62367
957.0626, 12.66892
957.5447, 12.60674
958.0268, 12.35218
958.5089, 12.01802
958.9910, 11.86613
959.4731, 11.90298
959.9553, 12.05217
960.4374, 12.35671
960.9195, 12.56437
961.4016, 12.58007
961.8837, 12.47533
962.3658, 12.30381
962.8480, 12.07770
963.3301, 11.88093
963.8122, 11.61931
964.2943, 11.60185
964.7764, 12.16627
965.2585, 12.54774
965.7407, 12.15580
966.2228, 11.53970
966.7049, 11.39249
967.1870, 11.72136
967.6691, 11.99926
968.1512, 12.22268
968.6334, 12.31949
969.1155, 12.24377
969.5976, 12.06658
970.0797, 11.71706
970.5618, 11.34435
971.0439, 11.23016
971.5261, 11.43566
972.0082, 11.62826
972.4903, 11.63595
972.9724, 11.61030
973.4545, 11.63545
973.9366, 11.69018
974.4188, 11.75122
974.9009, 11.81585
975.3830, 11.87679
975.8651, 11.92797
976.3472, 12.03637
976.8293, 12.32309
977.3115, 12.65405
977.7936, 12.87122
978.2757, 12.97985
978.7578, 12.97209
979.2399, 12.87020
979.7220, 12.77921
980.2042, 12.76672
980.6863, 12.78360
981.1684, 12.66125
981.6505, 12.51692
982.1326, 12.94383
982.6147, 13.84106
983.0969, 14.17034
983.5790, 13.62996
984.0611, 13.04080
984.5432, 13.12145
985.0253, 13.58324
985.5074, 13.59128
985.9896, 13.12807
986.4717, 12.99264
986.9538, 13.27408
987.4359, 13.57537
987.9180, 13.79149
988.4001, 13.81474
988.8823, 13.46258
989.3644, 12.83199
989.8465, 12.60302
990.3286, 12.97471
990.8107, 13.10477
991.2928, 12.78675
991.7750, 12.53378
992.2571, 12.63798
992.7392, 12.86280
993.2213, 12.89089
993.7034, 12.72327
994.1855, 12.60496
994.6677, 12.56164
995.1498, 12.53078
995.6319, 12.54912
996.1140, 12.53451
996.5961, 12.46953
997.0782, 12.33563
997.5604, 12.04082
998.0425, 11.57548
998.5246, 11.33521
999.0067, 11.62117
999.4888, 11.81405
999.9709, 11.73217
1000.453, 11.50576
1000.935, 11.09062
1001.417, 10.65286
1001.899, 10.49815
1002.382, 10.68745
1002.864, 10.92711
1003.346, 11.08651
1003.828, 11.27492
1004.310, 11.68896
1004.792, 12.05665
1005.274, 12.09332
1005.756, 11.83499
1006.238, 11.38893
1006.721, 10.78932
1007.203, 10.27725
1007.685, 9.996718
1008.167, 9.899804
1008.649, 10.00252
1009.131, 10.22939
1009.613, 10.53077
1010.095, 10.84399
1010.578, 11.02722
1011.060, 11.01548
1011.542, 10.90654
1012.024, 10.75636
1012.506, 10.59639
1012.988, 10.45181
1013.470, 10.34079
1013.952, 10.37126
1014.434, 10.50419
1014.917, 10.42828
1015.399, 9.963758
1015.881, 9.481458
1016.363, 9.547568
1016.845, 9.954871
1017.327, 10.16583
1017.809, 10.18857
1018.291, 10.02843
1018.773, 9.709734
1019.256, 9.473126
1019.738, 9.474182
1020.220, 9.617264
1020.702, 9.851866
1021.184, 10.11353
1021.666, 9.794485
1022.148, 8.932007
1022.630, 8.584590
1023.113, 9.018008
1023.595, 9.546744
1024.077, 9.686968
1024.559, 9.621854
1025.041, 9.736405
1025.523, 10.03310
1026.005, 10.25431
1026.487, 10.42529
1026.969, 10.23100
1027.452, 9.489725
1027.934, 8.857459
1028.416, 8.871362
1028.898, 8.594186
1029.380, 8.641482
1029.862, 8.942539
1030.344, 9.015600
1030.826, 9.753154
1031.309, 10.10831
1031.791, 9.676134
1032.273, 9.121850
1032.755, 8.963243
1033.237, 9.058527
1033.719, 8.999256
1034.201, 8.691686
1034.683, 8.702374
1035.166, 9.289031
1035.648, 9.618709
1036.130, 9.336730
1036.612, 8.952114
1037.094, 8.833866
1037.576, 8.927343
1038.058, 9.094400
1038.540, 9.399055
1039.022, 9.555010
1039.505, 9.551776
1039.987, 9.410916
1040.469, 8.945883
1040.951, 8.542118
1041.433, 8.534113
1041.915, 8.810364
1042.397, 9.067761
1042.879, 9.334355
1043.361, 9.490261
1043.844, 9.585489
1044.326, 9.499362
1044.808, 8.988576
1045.290, 8.485029
1045.772, 8.307439
1046.254, 8.385893
1046.736, 8.565742
1047.218, 8.909225
1047.700, 9.061350
1048.183, 8.789849
1048.665, 8.584432
1049.147, 8.641570
1049.629, 8.758991
1050.111, 8.786739
1050.593, 8.749590
1051.075, 8.720404
1051.557, 8.708039
1052.040, 8.700496
1052.522, 8.734792
1053.004, 8.721835
1053.486, 8.567662
1053.968, 8.414019
1054.450, 8.416517
1054.932, 8.494433
1055.414, 8.427032
1055.896, 8.149879
1056.379, 8.031523
1056.861, 8.353495
1057.343, 8.608776
1057.825, 8.584288
1058.307, 8.437542
1058.789, 8.188179
1059.271, 7.951163
1059.753, 7.960245
1060.236, 8.265914
1060.718, 8.509938
1061.200, 8.531726
1061.682, 8.530840
1062.164, 8.615278
1062.646, 8.684169
1063.128, 8.584040
1063.610, 8.435021
1064.093, 8.519758
1064.575, 8.876853
1065.057, 9.061563
1065.539, 8.725331
1066.021, 8.430358
1066.503, 8.545766
1066.985, 8.674588
1067.467, 8.368046
1067.949, 7.906999
1068.432, 7.831241
1068.914, 8.200532
1069.396, 8.528396
1069.878, 8.670577
1070.360, 8.662341
1070.842, 8.373255
1071.324, 8.082516
1071.806, 7.989416
1072.288, 8.053967
1072.771, 8.262928
1073.253, 8.566590
1073.735, 8.690578
1074.217, 8.360175
1074.699, 8.164310
1075.181, 8.522825
1075.663, 8.972323
1076.145, 9.253177
1076.627, 9.349529
1077.110, 9.183856
1077.592, 8.827380
1078.074, 8.624896
1078.556, 8.781187
1079.038, 8.882351
1079.520, 8.614917
1080.002, 8.352713
1080.484, 8.424145
1080.967, 8.611450
1081.449, 8.614138
1081.931, 8.452015
1082.413, 8.362864
1082.895, 8.465946
1083.377, 8.454591
1083.859, 7.897582
1084.341, 7.517028
1084.823, 8.014468
1085.306, 8.738051
1085.788, 8.919679
1086.270, 8.670221
1086.752, 8.566580
1087.234, 8.798895
1087.716, 8.859029
1088.198, 8.309307
1088.680, 7.801321
1089.163, 7.706694
1089.645, 7.799021
1090.127, 7.904863
1090.609, 8.001143
1091.091, 8.068223
1091.573, 8.100656
1092.055, 8.242056
1092.537, 8.835886
1093.020, 9.169680
1093.502, 8.690652
1093.984, 8.061506
1094.466, 7.714144
1094.948, 7.633060
1095.430, 7.794293
1095.912, 8.161736
1096.394, 8.390121
1096.876, 8.239491
1097.359, 8.130124
1097.841, 8.301297
1098.323, 8.452487
1098.805, 8.324955
1099.287, 8.097991
1099.769, 8.049649
1100.251, 8.167289
1100.733, 8.162454
1101.215, 7.766956
1101.698, 7.677240
1102.180, 8.391163
1102.662, 9.079101
1103.144, 9.470943
1103.626, 9.522366
1104.108, 8.994963
1104.590, 8.106340
1105.072, 7.601237
1105.554, 7.699954
1106.037, 7.826269
1106.519, 8.054121
1107.001, 8.059301
1107.483, 7.404692
1107.965, 6.782751
1108.447, 6.861683
1108.929, 7.365604
1109.411, 7.629371
1109.894, 7.560913
1110.376, 7.523013
1110.858, 7.507425
1111.340, 7.587753
1111.822, 7.967589
1112.304, 8.243951
1112.786, 8.036592
1113.268, 7.655079
1113.750, 7.655526
1114.233, 7.506516
1114.715, 7.299554
1115.197, 7.479772
1115.679, 7.107459
1116.161, 7.163864
1116.643, 7.365204
1117.125, 7.783224
1117.607, 8.120668
1118.090, 7.975139
1118.572, 7.450989
1119.054, 7.144633
1119.536, 7.116029
1120.018, 7.159552
1120.500, 7.292537
1120.982, 7.466833
1121.464, 7.689668
1121.947, 7.921461
1122.429, 8.171380
1122.911, 8.372202
1123.393, 8.327368
1123.875, 7.991816
1124.357, 7.763304
1124.839, 7.692126
1125.321, 7.540337
1125.803, 7.195780
1126.286, 6.979174
1126.768, 7.128823
1127.250, 7.395736
1127.732, 7.358022
1128.214, 7.067398
1128.696, 7.190149
1129.178, 7.826900
1129.660, 8.016012
1130.142, 7.588335
1130.625, 7.202508
1131.107, 7.117854
1131.589, 7.253090
1132.071, 7.562040
1132.553, 7.951750
1133.035, 8.133490
1133.517, 8.112923
1133.999, 7.999532
1134.481, 7.801941
1134.964, 7.715477
1135.446, 7.793328
1135.928, 7.974195
1136.410, 8.237646
1136.892, 8.426029
1137.374, 8.166644
1137.856, 7.618823
1138.338, 7.452934
1138.821, 7.609769
1139.303, 7.861117
1139.785, 8.144246
1140.267, 8.354821
1140.749, 8.443269
1141.231, 8.378099
1141.713, 8.076047
1142.195, 7.675644
1142.677, 7.412008
1143.160, 7.247910
1143.642, 7.106338
1144.124, 6.986619
1144.606, 6.860553
1145.088, 6.756373
1145.570, 6.915385
1146.052, 7.571333
1146.534, 8.242212
1147.017, 8.435857
1147.499, 8.353160
1147.981, 8.089776
1148.463, 7.814039
1148.945, 7.918429
1149.427, 8.279201
1149.909, 8.247989
1150.391, 7.553792
1150.874, 7.019989
1151.356, 7.363376
1151.838, 7.832740
1152.320, 7.975307
1152.802, 7.915295
1153.284, 7.680321
1153.766, 7.389982
1154.248, 7.224276
1154.730, 7.212972
1155.213, 7.281771
1155.695, 7.444734
1156.177, 7.615899
1156.659, 7.850687
1157.141, 7.988441
1157.623, 7.998647
1158.105, 7.523898
1158.587, 7.870795
1159.069, 7.565290
1159.552, 7.345556
1160.034, 7.512249
1160.516, 7.348992
1160.998, 7.127324
1161.480, 7.393830
1161.962, 7.526190
1162.444, 7.588176
1162.926, 7.636462
1163.408, 7.616332
1163.891, 7.336909
1164.373, 6.809790
1164.855, 6.959288
1165.337, 8.242814
1165.819, 8.894259
1166.301, 8.643185
1166.783, 8.127330
1167.265, 7.444158
1167.748, 6.957364
1168.230, 7.060914
1168.712, 7.546885
1169.194, 7.834317
1169.676, 7.918016
1170.158, 7.940485
1170.640, 7.894125
1171.122, 7.996148
1171.604, 8.298646
1172.087, 8.489534
1172.569, 8.395075
1173.051, 8.144803
1173.533, 7.866443
1174.015, 7.609070
1174.497, 7.502287
1174.979, 7.539291
1175.461, 7.781753
1175.944, 8.158086
1176.426, 8.312623
1176.908, 8.165186
1177.390, 7.989288
1177.872, 7.988275
1178.354, 7.950029
1178.836, 7.368728
1179.318, 6.797397
1179.801, 7.222595
1180.283, 8.152092
1180.765, 8.804998
1181.247, 9.053677
1181.729, 8.857570
1182.211, 8.227764
1182.693, 7.714564
1183.175, 7.702331
1183.657, 7.845079
1184.140, 8.061519
1184.622, 8.211975
1185.104, 8.118957
1185.586, 7.918834
1186.068, 7.764571
1186.550, 7.697642
1187.032, 7.797314
1187.514, 8.155695
1187.996, 8.450041
1188.479, 8.735360
1188.961, 8.786955
1189.443, 8.298910
1189.925, 7.785832
1190.407, 7.595858
1190.889, 7.643796
1191.371, 7.839388
1191.853, 8.184076
1192.335, 8.366254
1192.818, 8.346766
1193.300, 8.261821
1193.782, 8.086254
1194.264, 7.937004
1194.746, 7.852131
1195.228, 7.818136
1195.710, 7.829790
1196.192, 7.871589
1196.675, 7.931330
1197.157, 8.001239
1197.639, 7.831994
1198.121, 7.438881
1198.603, 7.373796
1199.085, 7.704133
1199.567, 7.961020
1200.049, 7.932528
1200.531, 8.061380
1201.014, 7.868822
1201.496, 7.943245
1201.978, 7.761233
1202.460, 7.509994
1202.942, 7.626894
1203.424, 8.022437
1203.906, 8.559039
1204.388, 9.075034
1204.871, 9.047039
1205.353, 8.200381
1205.835, 7.399111
1206.317, 7.288078
1206.799, 7.470860
1207.281, 7.834010
1207.763, 8.164741
1208.245, 8.208971
1208.728, 8.088817
1209.210, 8.056406
1209.692, 8.121364
1210.174, 8.062883
1210.656, 7.718629
1211.138, 7.502077
1211.620, 7.595680
1212.102, 7.693885
1212.584, 7.618261
1213.067, 7.584460
1213.549, 7.868761
1214.031, 8.221428
1214.513, 8.132283
1214.995, 7.603708
1215.477, 7.396317
1215.959, 7.640429
1216.441, 7.698216
1216.923, 7.461749
1217.406, 7.309664
1217.888, 7.381606
1218.370, 7.534170
1218.852, 7.671264
1219.334, 7.739414
1219.816, 7.569757
1220.298, 7.241424
1220.780, 7.152108
1221.262, 7.285698
1221.745, 7.666410
1222.227, 8.212326
1222.709, 8.476007
1223.191, 8.322255
1223.673, 8.143273
1224.155, 8.269879
1224.637, 8.401029
1225.119, 8.125319
1225.602, 7.740287
1226.084, 7.544413
1226.566, 7.522475
1227.048, 7.727357
1227.530, 8.037975
1228.012, 8.101397
1228.494, 7.819407
1228.976, 7.725716
1229.458, 8.398237
1229.941, 8.739163
1230.423, 8.159305
1230.905, 7.450837
1231.387, 6.889126
1231.869, 6.550087
1232.351, 6.557884
1232.833, 6.832618
1233.315, 7.169466
1233.798, 7.616416
1234.280, 7.814924
1234.762, 7.667739
1235.244, 7.585734
1235.726, 7.614406
1236.208, 7.815134
1236.690, 8.271980
1237.172, 8.601746
1237.655, 8.368205
1238.137, 7.837079
1238.619, 7.662054
1239.101, 7.772672
1239.583, 7.860769
1240.065, 7.915637
1240.547, 7.926247
1241.029, 7.894664
1241.511, 7.824832
1241.994, 7.722527
1242.476, 7.650258
1242.958, 7.641531
1243.440, 7.713460
1243.922, 7.956961
1244.404, 8.218206
1244.886, 8.418929
1245.368, 8.482029
1245.850, 8.170595
1246.333, 7.653659
1246.815, 7.516113
1247.297, 7.937108
1247.779, 8.188264
1248.261, 7.994953
1248.743, 7.791620
1249.225, 7.440406
1249.707, 7.401036
1250.189, 8.123533
1250.672, 8.916892
1251.154, 9.127736
1251.636, 8.894606
1252.118, 8.590891
1252.600, 8.209757
1253.082, 7.895425
1253.564, 7.641320
1254.046, 7.571353
1254.529, 7.701998
1255.011, 7.815077
1255.493, 7.824967
1255.975, 7.978385
1256.457, 8.545516
1256.939, 9.127227
1257.421, 9.017365
1257.903, 8.565441
1258.385, 8.364615
1258.868, 8.299787
1259.350, 8.096617
1259.832, 7.789276
1260.314, 7.571135
1260.796, 7.491911
1261.278, 7.454740
1261.760, 7.392136
1262.242, 7.413066
1262.725, 7.742803
1263.207, 7.939788
1263.689, 7.616388
1264.171, 7.210844
1264.653, 7.052938
1265.135, 7.134765
1265.617, 7.477088
1266.099, 8.075984
1266.582, 8.442541
1267.064, 8.525328
1267.546, 8.598289
1268.028, 8.694911
1268.510, 8.682618
1268.992, 8.525376
1269.474, 8.166021
1269.956, 7.521394
1270.438, 7.017582
1270.921, 7.387622
1271.403, 8.197802
1271.885, 8.458245
1272.367, 8.349965
1272.849, 8.200373
1273.331, 8.074591
1273.813, 8.096106
1274.295, 8.219931
1274.777, 8.107847
1275.260, 7.571842
1275.742, 7.231412
1276.224, 7.695371
1276.706, 8.063516
1277.188, 7.642876
1277.670, 7.254845
1278.152, 7.595999
1278.634, 8.215097
1279.116, 8.602825
1279.599, 8.732452
1280.081, 8.491588
1280.563, 7.758126
1281.045, 7.418764
1281.527, 7.528948
1282.009, 7.841810
1282.491, 8.370720
1282.973, 8.709564
1283.456, 8.686234
1283.938, 8.491694
1284.420, 8.266852
1284.902, 8.106474
1285.384, 8.143866
##END=



