##NAMES=Hiortdahlite
##RRUFFID=R070514
##IDEAL CHEMISTRY=Na_2_Ca_4_(Ca_0.5_Zr^4+^_0.5_)Zr^4+^(Si_2_O_7_)_2_OF_3_
##LOCALITY=Aroy, Langesundsfjord, near Larvik, Vestfold, Norway
##OWNER=RRUFF
##SOURCE=James Shigley
##DESCRIPTION=Brownish-yellow massive
##STATUS=The identification of this mineral is confirmed by single-crystal X-ray diffraction and chemical analysis.
##URL=rruff.info/R070514
##MEASURED CHEMISTRY=Na_4.00_Ca_8.00_Zr_2.00_(Zr_0.49_Nb^5+^_0.45_Fe^2+^_0.38_Ti_0.33_Mn_0.32_Mg_0.02_Al_0.01_)_Î£=2_(Si_2.00_O_7_)_4_O_3_F_5.00_
138.7562, 10671.36
139.2383, 10933.66
139.7204, 11198.29
140.2025, 11485.14
140.6847, 11795.02
141.1668, 12132.58
141.6489, 12510.83
142.1310, 12936.52
142.6131, 13395.56
143.0952, 13869.55
143.5774, 14359.34
144.0595, 14865.73
144.5416, 15388.23
145.0237, 15925.68
145.5058, 16483.34
145.9879, 17063.83
146.4701, 17661.60
146.9522, 18261.96
147.4343, 18873.08
147.9164, 19471.79
148.3985, 20079.70
148.8806, 20669.04
149.3627, 21203.78
149.8449, 21667.18
150.3270, 22068.21
150.8091, 22439.18
151.2912, 22808.04
151.7733, 23093.19
152.2554, 23244.34
152.7376, 23318.49
153.2197, 23393.13
153.7018, 23514.93
154.1839, 23668.41
154.6660, 23780.55
155.1481, 23846.62
155.6303, 23869.19
156.1124, 23804.46
156.5945, 23706.44
157.0766, 23655.82
157.5587, 23708.39
158.0408, 23849.65
158.5230, 23967.14
159.0051, 24017.80
159.4872, 24090.34
159.9693, 24189.72
160.4514, 24222.33
160.9335, 24203.12
161.4157, 24189.65
161.8978, 24183.21
162.3799, 24202.87
162.8620, 24281.84
163.3441, 24355.44
163.8262, 24427.49
164.3084, 24486.25
164.7905, 24511.61
165.2726, 24487.24
165.7547, 24417.86
166.2368, 24362.10
166.7189, 24337.28
167.2011, 24312.35
167.6832, 24287.67
168.1653, 24259.12
168.6474, 24217.57
169.1295, 24153.93
169.6116, 24069.79
170.0938, 24014.26
170.5759, 24012.32
171.0580, 24010.67
171.5401, 23997.96
172.0222, 23972.89
172.5043, 23934.16
172.9865, 23877.63
173.4686, 23802.60
173.9507, 23751.58
174.4328, 23738.25
174.9149, 23727.88
175.3970, 23707.45
175.8792, 23678.82
176.3613, 23649.22
176.8434, 23622.44
177.3255, 23597.74
177.8076, 23586.60
178.2897, 23591.83
178.7719, 23602.79
179.2540, 23621.87
179.7361, 23643.93
180.2182, 23657.28
180.7003, 23652.59
181.1824, 23629.90
181.6646, 23610.35
182.1467, 23587.56
182.6288, 23573.57
183.1109, 23574.77
183.5930, 23589.20
184.0751, 23615.34
184.5573, 23657.94
185.0394, 23715.56
185.5215, 23714.41
186.0036, 23601.79
186.4857, 23497.92
186.9678, 23457.59
187.4500, 23467.21
187.9321, 23481.38
188.4142, 23468.90
188.8963, 23431.33
189.3784, 23405.76
189.8605, 23392.61
190.3427, 23387.43
190.8248, 23384.37
191.3069, 23386.90
191.7890, 23408.48
192.2711, 23463.11
192.7532, 23544.92
193.2354, 23585.86
193.7175, 23560.45
194.1996, 23530.61
194.6817, 23517.08
195.1638, 23517.89
195.6459, 23525.02
196.1281, 23534.07
196.6102, 23545.35
197.0923, 23560.61
197.5744, 23586.77
198.0565, 23609.38
198.5386, 23614.16
199.0207, 23611.26
199.5029, 23628.34
199.9850, 23686.50
200.4671, 23773.77
200.9492, 23818.98
201.4313, 23799.00
201.9134, 23774.11
202.3956, 23761.32
202.8777, 23757.01
203.3598, 23750.46
203.8419, 23734.08
204.3240, 23713.74
204.8061, 23716.63
205.2883, 23752.46
205.7704, 23794.10
206.2525, 23835.79
206.7346, 23877.91
207.2167, 23923.58
207.6988, 23975.21
208.1810, 24027.58
208.6631, 24061.85
209.1452, 24075.56
209.6273, 24077.00
210.1094, 24050.36
210.5915, 24015.04
211.0737, 24004.93
211.5558, 24035.85
212.0379, 24092.16
212.5200, 24134.34
213.0021, 24141.82
213.4842, 24167.03
213.9664, 24239.49
214.4485, 24328.08
214.9306, 24391.17
215.4127, 24413.17
215.8948, 24406.48
216.3769, 24392.81
216.8591, 24356.07
217.3412, 24342.09
217.8233, 24372.05
218.3054, 24420.68
218.7875, 24454.71
219.2696, 24464.18
219.7518, 24471.79
220.2339, 24517.78
220.7160, 24639.04
221.1981, 24723.55
221.6802, 24738.46
222.1623, 24731.10
222.6445, 24749.97
223.1266, 24805.53
223.6087, 24871.07
224.0908, 24910.36
224.5729, 24908.06
225.0550, 24916.28
225.5371, 24942.65
226.0193, 24974.28
226.5014, 25000.62
226.9835, 25020.31
227.4656, 25040.66
227.9477, 25070.82
228.4298, 25115.86
228.9120, 25150.26
229.3941, 25174.19
229.8762, 25188.69
230.3583, 25183.04
230.8404, 25163.06
231.3225, 25157.30
231.8047, 25196.92
232.2868, 25292.86
232.7689, 25350.46
233.2510, 25334.19
233.7331, 25318.60
234.2152, 25338.46
234.6974, 25391.49
235.1795, 25459.51
235.6616, 25530.61
236.1437, 25605.01
236.6258, 25668.74
237.1079, 25728.92
237.5901, 25773.54
238.0722, 25779.70
238.5543, 25767.04
239.0364, 25779.90
239.5185, 25851.12
240.0006, 25969.47
240.4828, 26043.41
240.9649, 26042.36
241.4470, 26031.53
241.9291, 26007.54
242.4112, 25984.65
242.8933, 25984.08
243.3755, 26017.77
243.8576, 26076.24
244.3397, 26126.29
244.8218, 26158.60
245.3039, 26193.50
245.7860, 26241.78
246.2682, 26289.80
246.7503, 26319.06
247.2324, 26322.74
247.7145, 26314.17
248.1966, 26323.95
248.6787, 26377.38
249.1608, 26406.08
249.6430, 26382.58
250.1251, 26350.70
250.6072, 26344.68
251.0893, 26373.12
251.5714, 26422.87
252.0535, 26479.49
252.5357, 26558.04
253.0178, 26604.91
253.4999, 26592.63
253.9820, 26573.23
254.4641, 26576.85
254.9462, 26605.95
255.4284, 26643.53
255.9105, 26664.89
256.3926, 26659.83
256.8747, 26696.65
257.3568, 26846.56
257.8390, 26976.76
258.3211, 27017.35
258.8032, 26988.56
259.2853, 26962.29
259.7674, 27000.72
260.2495, 27100.18
260.7316, 27178.31
261.2137, 27234.84
261.6959, 27267.58
262.1780, 27270.25
262.6601, 27251.04
263.1422, 27219.54
263.6243, 27169.22
264.1064, 27118.64
264.5886, 27137.76
265.0707, 27264.48
265.5528, 27391.21
266.0349, 27485.96
266.5170, 27557.97
266.9991, 27618.82
267.4813, 27674.38
267.9634, 27716.63
268.4455, 27721.03
268.9276, 27671.78
269.4097, 27648.83
269.8918, 27714.66
270.3740, 27801.79
270.8561, 27848.83
271.3382, 27836.61
271.8203, 27822.02
272.3024, 27878.49
272.7845, 28005.28
273.2667, 28090.19
273.7488, 28078.45
274.2309, 28036.44
274.7130, 28021.74
275.1951, 28036.08
275.6772, 28073.91
276.1594, 28143.72
276.6415, 28236.34
277.1236, 28319.26
277.6057, 28388.51
278.0878, 28445.32
278.5699, 28483.91
279.0521, 28508.05
279.5342, 28541.41
280.0163, 28609.06
280.4984, 28685.65
280.9805, 28728.03
281.4626, 28729.33
281.9448, 28721.25
282.4269, 28724.72
282.9090, 28739.31
283.3911, 28761.98
283.8732, 28790.98
284.3553, 28829.07
284.8375, 28882.31
285.3196, 28949.04
285.8017, 29019.60
286.2838, 29095.48
286.7659, 29167.48
287.2480, 29204.18
287.7302, 29158.08
288.2123, 29132.61
288.6944, 29187.24
289.1765, 29293.20
289.6586, 29386.85
290.1407, 29441.64
290.6229, 29470.63
291.1050, 29502.73
291.5871, 29542.77
292.0692, 29577.42
292.5513, 29590.78
293.0334, 29604.15
293.5156, 29646.88
293.9977, 29725.00
294.4798, 29814.44
294.9619, 29882.50
295.4440, 29923.95
295.9261, 29954.86
296.4083, 29974.75
296.8904, 29985.05
297.3725, 29964.39
297.8546, 29926.69
298.3367, 29927.16
298.8188, 30024.00
299.3010, 30226.63
299.7831, 30359.44
300.2652, 30368.67
300.7473, 30367.48
301.2294, 30382.78
301.7115, 30411.75
302.1937, 30441.52
302.6758, 30462.84
303.1579, 30483.88
303.6400, 30539.02
304.1221, 30659.80
304.6042, 30767.14
305.0864, 30851.67
305.5685, 30917.10
306.0506, 30962.41
306.5327, 30987.52
307.0148, 31006.53
307.4969, 31042.47
307.9791, 31100.82
308.4612, 31155.58
308.9433, 31201.14
309.4254, 31243.73
309.9075, 31284.48
310.3896, 31324.31
310.8717, 31367.60
311.3539, 31422.03
311.8360, 31485.67
312.3181, 31536.88
312.8002, 31563.56
313.2823, 31593.64
313.7644, 31650.11
314.2466, 31723.16
314.7287, 31787.45
315.2108, 31836.06
315.6929, 31867.23
316.1750, 31860.12
316.6571, 31800.12
317.1393, 31783.62
317.6214, 31894.10
318.1035, 32075.44
318.5856, 32227.75
319.0677, 32330.92
319.5498, 32413.80
320.0320, 32495.79
320.5141, 32574.99
320.9962, 32638.72
321.4783, 32674.24
321.9604, 32703.10
322.4425, 32771.69
322.9247, 32893.17
323.4068, 32994.65
323.8889, 33020.60
324.3710, 33027.71
324.8531, 33109.48
325.3352, 33285.00
325.8174, 33466.98
326.2995, 33553.44
326.7816, 33515.48
327.2637, 33543.51
327.7458, 33716.03
328.2279, 33884.31
328.7101, 33935.05
329.1922, 33895.74
329.6743, 33881.52
330.1564, 33974.32
330.6385, 34160.02
331.1206, 34317.91
331.6028, 34444.18
332.0849, 34549.68
332.5670, 34629.93
333.0491, 34693.37
333.5312, 34744.29
334.0133, 34784.86
334.4955, 34829.11
334.9776, 34907.75
335.4597, 35046.58
335.9418, 35162.64
336.4239, 35225.01
336.9060, 35287.79
337.3882, 35393.14
337.8703, 35538.30
338.3524, 35681.86
338.8345, 35780.50
339.3166, 35834.71
339.7987, 35901.06
340.2809, 35992.21
340.7630, 36077.86
341.2451, 36143.07
341.7272, 36193.74
342.2093, 36241.28
342.6914, 36294.28
343.1736, 36343.41
343.6557, 36361.55
344.1378, 36339.13
344.6199, 36342.89
345.1020, 36416.34
345.5841, 36523.36
346.0663, 36627.99
346.5484, 36736.24
347.0305, 36809.77
347.5126, 36797.08
347.9947, 36726.38
348.4768, 36687.73
348.9590, 36706.82
349.4411, 36751.57
349.9232, 36791.79
350.4053, 36829.02
350.8874, 36847.47
351.3695, 36842.00
351.8517, 36818.82
352.3338, 36772.44
352.8159, 36707.60
353.2980, 36655.64
353.7801, 36642.54
354.2622, 36663.78
354.7444, 36667.80
355.2265, 36658.41
355.7086, 36631.30
356.1907, 36584.02
356.6728, 36518.25
357.1549, 36434.45
357.6371, 36332.55
358.1192, 36218.30
358.6013, 36099.98
359.0834, 35949.34
359.5655, 35849.57
360.0476, 35844.03
360.5297, 35847.72
361.0118, 35811.39
361.4940, 35730.25
361.9761, 35622.36
362.4582, 35497.10
362.9403, 35355.92
363.4224, 35233.80
363.9045, 35141.87
364.3867, 35055.75
364.8688, 34966.36
365.3509, 34877.33
365.8330, 34796.83
366.3151, 34733.88
366.7972, 34668.57
367.2794, 34562.22
367.7615, 34408.52
368.2436, 34275.70
368.7257, 34201.23
369.2078, 34141.14
369.6899, 34043.03
370.1721, 33902.47
370.6542, 33773.44
371.1363, 33703.73
371.6184, 33662.79
372.1005, 33580.30
372.5826, 33440.59
373.0648, 33302.48
373.5469, 33219.64
374.0290, 33189.22
374.5111, 33148.13
374.9932, 33085.97
375.4753, 33020.27
375.9575, 32966.50
376.4396, 32917.79
376.9217, 32848.00
377.4038, 32740.53
377.8859, 32618.86
378.3680, 32544.63
378.8502, 32574.62
379.3323, 32576.41
379.8144, 32541.36
380.2965, 32481.54
380.7786, 32400.89
381.2607, 32303.46
381.7429, 32198.89
382.2250, 32092.42
382.7071, 31981.02
383.1892, 31909.25
383.6713, 31925.80
384.1534, 31931.73
384.6356, 31896.44
385.1177, 31832.44
385.5998, 31758.05
386.0819, 31677.80
386.5640, 31603.63
387.0461, 31566.64
387.5283, 31578.38
388.0104, 31566.53
388.4925, 31497.01
388.9746, 31406.62
389.4567, 31315.46
389.9388, 31225.20
390.4210, 31159.55
390.9031, 31151.95
391.3852, 31175.68
391.8673, 31166.96
392.3494, 31114.63
392.8315, 31057.58
393.3137, 31029.21
393.7958, 31023.25
394.2779, 31001.47
394.7600, 30946.36
395.2421, 30891.14
395.7242, 30848.99
396.2064, 30820.87
396.6885, 30816.53
397.1706, 30843.53
397.6527, 30873.28
398.1348, 30847.57
398.6169, 30708.31
399.0991, 30625.52
399.5812, 30654.15
400.0633, 30694.04
400.5454, 30671.07
401.0275, 30589.61
401.5096, 30501.37
401.9918, 30446.87
402.4739, 30423.74
402.9560, 30408.23
403.4381, 30412.08
403.9202, 30405.55
404.4023, 30367.92
404.8845, 30323.02
405.3666, 30302.37
405.8487, 30316.96
406.3308, 30333.06
406.8129, 30300.46
407.2950, 30220.59
407.7772, 30172.07
408.2592, 30191.99
408.7414, 30211.92
409.2235, 30168.13
409.7056, 30073.66
410.1877, 29986.20
410.6698, 29924.68
411.1519, 29880.99
411.6341, 29849.65
412.1162, 29829.60
412.5983, 29814.44
413.0804, 29805.92
413.5625, 29795.84
414.0446, 29756.43
414.5268, 29670.46
415.0089, 29591.83
415.4910, 29528.05
415.9731, 29477.10
416.4552, 29437.47
416.9373, 29408.29
417.4195, 29389.52
417.9016, 29384.61
418.3837, 29396.43
418.8658, 29381.61
419.3479, 29324.29
419.8300, 29256.75
420.3122, 29176.56
420.7943, 29094.09
421.2764, 29023.38
421.7585, 28970.51
422.2406, 28929.55
422.7227, 28898.62
423.2049, 28883.58
423.6870, 28837.65
424.1691, 28721.37
424.6512, 28603.21
425.1333, 28531.94
425.6154, 28503.27
426.0976, 28484.65
426.5797, 28467.46
427.0618, 28448.01
427.5439, 28424.63
428.0260, 28396.96
428.5081, 28349.25
428.9903, 28264.50
429.4724, 28157.79
429.9545, 28072.62
430.4366, 28011.88
430.9187, 27962.07
431.4008, 27929.32
431.8830, 27900.27
432.3651, 27856.72
432.8472, 27796.13
433.3293, 27732.63
433.8114, 27681.25
434.2935, 27643.32
434.7757, 27594.65
435.2578, 27520.46
435.7399, 27452.62
436.2220, 27405.14
436.7041, 27367.25
437.1862, 27322.85
437.6684, 27265.74
438.1505, 27204.80
438.6326, 27156.04
439.1147, 27122.14
439.5968, 27080.66
440.0789, 27030.01
440.5611, 26969.54
441.0432, 26896.26
441.5253, 26812.95
442.0074, 26730.63
442.4895, 26648.14
442.9716, 26572.63
443.4538, 26514.93
443.9359, 26474.09
444.4180, 26440.48
444.9001, 26413.78
445.3822, 26387.02
445.8643, 26342.63
446.3465, 26274.85
446.8286, 26207.23
447.3107, 26153.49
447.7928, 26095.40
448.2749, 26005.93
448.7570, 25889.99
449.2392, 25788.79
449.7213, 25740.00
450.2034, 25735.61
450.6855, 25682.68
451.1676, 25520.62
451.6497, 25392.10
452.1319, 25339.54
452.6140, 25318.59
453.0961, 25288.52
453.5782, 25238.88
454.0603, 25180.37
454.5424, 25125.56
455.0246, 25072.94
455.5067, 25007.12
455.9888, 24921.78
456.4709, 24833.42
456.9530, 24740.35
457.4351, 24652.15
457.9172, 24594.38
458.3994, 24595.63
458.8815, 24597.54
459.3636, 24559.83
459.8457, 24491.54
460.3278, 24408.32
460.8099, 24312.87
461.2921, 24224.27
461.7742, 24172.32
462.2563, 24172.22
462.7384, 24144.98
463.2205, 24082.91
463.7026, 24004.14
464.1848, 23896.22
464.6669, 23781.75
465.1490, 23707.54
465.6311, 23701.35
466.1132, 23720.93
466.5953, 23666.71
467.0775, 23508.52
467.5596, 23382.42
468.0417, 23335.92
468.5238, 23301.59
469.0059, 23237.52
469.4880, 23149.95
469.9702, 23073.43
470.4523, 23037.73
470.9344, 23017.22
471.4165, 22968.34
471.8986, 22891.85
472.3807, 22816.14
472.8629, 22753.00
473.3450, 22698.28
473.8271, 22646.33
474.3092, 22599.16
474.7913, 22547.41
475.2734, 22484.23
475.7556, 22418.74
476.2377, 22360.86
476.7198, 22309.33
477.2019, 22254.05
477.6840, 22186.55
478.1661, 22110.96
478.6483, 22049.65
479.1304, 22025.74
479.6125, 21977.50
480.0946, 21876.79
480.5767, 21765.62
481.0588, 21677.50
481.5410, 21616.33
482.0231, 21563.58
482.5052, 21507.01
482.9873, 21447.58
483.4694, 21386.49
483.9515, 21323.73
484.4337, 21261.48
484.9158, 21201.26
485.3979, 21142.20
485.8800, 21080.32
486.3621, 21009.88
486.8442, 20950.11
487.3264, 20919.59
487.8085, 20898.58
488.2906, 20864.32
488.7727, 20812.86
489.2548, 20746.51
489.7369, 20665.26
490.2191, 20570.45
490.7012, 20482.39
491.1833, 20391.94
491.6654, 20320.39
492.1475, 20292.08
492.6296, 20271.44
493.1118, 20221.15
493.5939, 20134.72
494.0760, 20038.38
494.5581, 19955.87
495.0402, 19886.01
495.5223, 19820.89
496.0045, 19762.64
496.4866, 19703.80
496.9687, 19641.96
497.4508, 19576.61
497.9329, 19507.03
498.4150, 19432.97
498.8972, 19354.34
499.3793, 19256.16
499.8614, 19158.93
500.3435, 19099.80
500.8256, 19083.36
501.3077, 19079.82
501.7899, 19065.82
502.2720, 19040.93
502.7541, 18990.30
503.2362, 18886.66
503.7183, 18788.84
504.2004, 18694.67
504.6826, 18616.48
505.1647, 18577.40
505.6468, 18577.82
506.1289, 18577.52
506.6110, 18530.18
507.0931, 18442.97
507.5752, 18372.88
508.0573, 18329.50
508.5395, 18280.20
509.0216, 18195.58
509.5037, 18097.05
509.9858, 18025.39
510.4679, 17992.31
510.9500, 17966.68
511.4322, 17946.19
511.9143, 17919.62
512.3964, 17859.35
512.8785, 17765.88
513.3607, 17688.50
513.8428, 17677.50
514.3249, 17722.86
514.8070, 17700.87
515.2891, 17530.98
515.7712, 17393.36
516.2534, 17319.47
516.7355, 17280.24
517.2176, 17256.72
517.6997, 17241.88
518.1818, 17223.72
518.6639, 17190.29
519.1461, 17144.88
519.6282, 17101.36
520.1103, 17062.19
520.5924, 17013.36
521.0745, 16935.41
521.5566, 16850.50
522.0388, 16804.65
522.5209, 16818.07
523.0030, 16811.21
523.4851, 16737.42
523.9672, 16643.36
524.4493, 16579.58
524.9315, 16547.03
525.4136, 16514.99
525.8957, 16461.10
526.3778, 16392.03
526.8599, 16335.93
527.3420, 16297.48
527.8242, 16263.93
528.3063, 16246.17
528.7884, 16222.64
529.2705, 16176.68
529.7526, 16109.33
530.2347, 16034.11
530.7169, 15948.08
531.1990, 15865.59
531.6810, 15821.19
532.1631, 15814.56
532.6453, 15798.50
533.1274, 15752.87
533.6095, 15691.96
534.0916, 15641.23
534.5737, 15605.88
535.0558, 15554.73
535.5380, 15461.18
536.0201, 15371.53
536.5022, 15318.85
536.9843, 15294.78
537.4664, 15277.73
537.9485, 15257.41
538.4307, 15230.65
538.9128, 15187.53
539.3949, 15120.60
539.8770, 15069.95
540.3591, 15057.19
540.8412, 15040.51
541.3234, 14995.47
541.8055, 14929.48
542.2876, 14860.75
542.7697, 14791.20
543.2518, 14726.50
543.7339, 14673.46
544.2161, 14629.54
544.6982, 14585.26
545.1803, 14537.72
545.6624, 14499.23
546.1445, 14488.47
546.6266, 14509.04
547.1088, 14492.66
547.5909, 14403.61
548.0730, 14323.83
548.5551, 14280.67
549.0372, 14253.86
549.5193, 14218.48
550.0015, 14168.69
550.4836, 14117.96
550.9657, 14079.89
551.4478, 14052.82
551.9299, 14027.40
552.4120, 14005.73
552.8942, 13977.71
553.3763, 13936.28
553.8584, 13885.79
554.3405, 13835.64
554.8226, 13786.52
555.3047, 13735.85
555.7869, 13675.60
556.2690, 13618.69
556.7511, 13583.95
557.2332, 13566.73
557.7153, 13541.85
558.1974, 13491.97
558.6796, 13429.29
559.1617, 13393.18
559.6438, 13403.75
560.1259, 13391.74
560.6080, 13327.56
561.0901, 13258.33
561.5723, 13208.34
562.0544, 13174.66
562.5365, 13142.29
563.0186, 13105.19
563.5007, 13066.41
563.9828, 13027.66
564.4650, 12989.89
564.9471, 12957.74
565.4292, 12933.32
565.9113, 12909.61
566.3934, 12878.77
566.8755, 12840.12
567.3577, 12800.86
567.8398, 12765.11
568.3219, 12723.73
568.8040, 12661.81
569.2861, 12599.11
569.7682, 12558.52
570.2504, 12545.34
570.7325, 12547.78
571.2146, 12564.69
571.6967, 12589.61
572.1788, 12590.95
572.6609, 12567.26
573.1431, 12523.53
573.6252, 12447.92
574.1073, 12361.96
574.5894, 12305.69
575.0715, 12282.54
575.5536, 12272.02
576.0358, 12285.06
576.5179, 12296.50
577.0000, 12284.15
577.4821, 12251.86
577.9642, 12212.27
578.4464, 12171.17
578.9285, 12136.31
579.4106, 12131.63
579.8927, 12170.70
580.3748, 12175.45
580.8569, 12117.00
581.3391, 12051.03
581.8212, 12004.87
582.3033, 11975.84
582.7854, 11959.12
583.2675, 11957.90
583.7496, 11960.26
584.2318, 11967.72
584.7139, 11970.48
585.1960, 11946.71
585.6781, 11894.17
586.1602, 11830.72
586.6423, 11768.17
587.1245, 11709.79
587.6066, 11683.87
588.0887, 11733.25
588.5708, 11747.17
589.0529, 11687.69
589.5350, 11610.42
590.0172, 11553.66
590.4993, 11519.53
590.9814, 11492.83
591.4635, 11472.22
591.9456, 11448.60
592.4277, 11401.84
592.9099, 11336.77
593.3920, 11285.51
593.8741, 11259.29
594.3562, 11245.74
594.8383, 11232.09
595.3204, 11219.62
595.8026, 11195.23
596.2847, 11157.04
596.7668, 11110.30
597.2489, 11038.38
597.7310, 10967.48
598.2131, 10933.59
598.6953, 10942.34
599.1774, 10960.03
599.6595, 10962.03
600.1416, 10947.52
600.6237, 10907.64
601.1058, 10838.99
601.5880, 10774.53
602.0701, 10725.59
602.5522, 10692.67
603.0343, 10682.50
603.5164, 10704.98
603.9985, 10706.38
604.4807, 10668.50
604.9628, 10620.38
605.4449, 10571.75
605.9270, 10527.61
606.4091, 10495.02
606.8912, 10477.08
607.3734, 10464.65
607.8555, 10443.32
608.3376, 10413.59
608.8197, 10396.88
609.3018, 10403.84
609.7839, 10398.80
610.2661, 10356.91
610.7482, 10291.37
611.2303, 10225.66
611.7124, 10147.53
612.1945, 10103.88
612.6766, 10147.57
613.1588, 10202.43
613.6409, 10195.57
614.1230, 10136.22
614.6051, 10071.43
615.0872, 10025.91
615.5693, 9997.245
616.0515, 9983.161
616.5336, 9986.152
617.0157, 9987.788
617.4978, 9993.235
617.9799, 9986.916
618.4620, 9945.646
618.9442, 9888.070
619.4263, 9852.184
619.9084, 9850.374
620.3905, 9856.672
620.8726, 9868.364
621.3547, 9876.327
621.8369, 9868.840
622.3190, 9845.692
622.8011, 9810.724
623.2832, 9763.972
623.7653, 9715.886
624.2474, 9700.343
624.7296, 9731.651
625.2117, 9746.895
625.6938, 9737.688
626.1759, 9711.867
626.6580, 9663.535
627.1401, 9603.686
627.6223, 9560.791
628.1044, 9540.409
628.5865, 9540.111
629.0686, 9575.612
629.5507, 9623.041
630.0328, 9649.726
630.5149, 9649.864
630.9970, 9624.612
631.4791, 9571.498
631.9612, 9500.191
632.4434, 9448.645
632.9255, 9421.843
633.4076, 9402.150
633.8897, 9384.450
634.3718, 9376.457
634.8539, 9389.354
635.3361, 9416.315
635.8182, 9436.007
636.3003, 9442.701
636.7824, 9439.767
637.2645, 9420.210
637.7466, 9395.628
638.2288, 9391.458
638.7109, 9408.821
639.1930, 9418.158
639.6751, 9392.922
640.1572, 9343.900
640.6393, 9322.448
641.1215, 9339.251
641.6036, 9357.614
642.0857, 9380.731
642.5678, 9396.061
643.0499, 9396.023
643.5320, 9381.649
644.0142, 9356.271
644.4963, 9308.833
644.9784, 9267.596
645.4605, 9255.704
645.9426, 9261.822
646.4247, 9268.900
646.9069, 9273.241
647.3890, 9274.781
647.8711, 9272.466
648.3532, 9268.727
648.8353, 9275.365
649.3174, 9297.657
649.7996, 9316.485
650.2817, 9332.946
650.7638, 9340.865
651.2459, 9327.263
651.7280, 9301.104
652.2101, 9291.989
652.6923, 9317.866
653.1744, 9348.438
653.6565, 9370.536
654.1386, 9383.283
654.6207, 9381.069
655.1028, 9365.604
655.5850, 9350.551
656.0671, 9345.935
656.5492, 9350.010
657.0313, 9357.296
657.5134, 9368.514
657.9955, 9380.902
658.4777, 9398.022
658.9598, 9411.617
659.4419, 9411.234
659.9240, 9403.021
660.4061, 9405.796
660.8882, 9432.792
661.3704, 9455.598
661.8525, 9458.601
662.3346, 9450.803
662.8167, 9440.705
663.2988, 9430.694
663.7809, 9423.414
664.2631, 9421.112
664.7452, 9420.862
665.2273, 9417.366
665.7094, 9411.935
666.1915, 9392.791
666.6736, 9351.927
667.1558, 9307.653
667.6379, 9268.497
668.1200, 9235.969
668.6021, 9216.516
669.0842, 9225.466
669.5663, 9218.994
670.0485, 9168.895
670.5306, 9107.931
671.0127, 9063.711
671.4948, 9036.924
671.9769, 9019.835
672.4590, 9009.720
672.9412, 8997.743
673.4233, 8964.856
673.9054, 8911.984
674.3875, 8871.427
674.8696, 8849.323
675.3517, 8829.469
675.8339, 8802.343
676.3160, 8770.716
676.7981, 8741.471
677.2802, 8712.733
677.7623, 8690.058
678.2444, 8686.410
678.7266, 8677.692
679.2087, 8638.419
679.6908, 8584.588
680.1729, 8550.186
680.6550, 8548.509
681.1371, 8558.045
681.6193, 8557.314
682.1014, 8547.649
682.5835, 8532.441
683.0656, 8511.408
683.5477, 8491.301
684.0298, 8475.054
684.5120, 8461.866
684.9941, 8451.271
685.4762, 8446.346
685.9583, 8433.181
686.4404, 8396.445
686.9225, 8369.497
687.4047, 8373.955
687.8868, 8390.085
688.3689, 8389.983
688.8510, 8368.693
689.3331, 8350.356
689.8152, 8358.351
690.2974, 8376.298
690.7795, 8381.892
691.2616, 8374.823
691.7437, 8353.284
692.2258, 8315.583
692.7079, 8274.962
693.1901, 8246.607
693.6722, 8230.764
694.1543, 8223.721
694.6364, 8236.189
695.1185, 8240.184
695.6006, 8224.120
696.0828, 8201.607
696.5649, 8179.879
697.0470, 8160.668
697.5291, 8150.292
698.0112, 8155.398
698.4933, 8165.594
698.9755, 8178.637
699.4576, 8189.866
699.9397, 8191.264
700.4218, 8181.592
700.9039, 8163.369
701.3860, 8136.389
701.8682, 8106.413
702.3503, 8095.435
702.8324, 8109.024
703.3145, 8109.487
703.7966, 8083.777
704.2787, 8055.263
704.7609, 8046.047
705.2430, 8048.750
705.7251, 8035.974
706.2072, 7989.822
706.6893, 7956.261
707.1714, 7956.757
707.6536, 7965.466
708.1357, 7960.167
708.6178, 7944.482
709.0999, 7935.206
709.5820, 7940.946
710.0641, 7946.847
710.5463, 7932.455
711.0284, 7901.609
711.5105, 7865.433
711.9926, 7823.800
712.4747, 7800.693
712.9568, 7814.528
713.4390, 7843.862
713.9211, 7846.346
714.4032, 7812.690
714.8853, 7781.849
715.3674, 7748.582
715.8495, 7724.042
716.3317, 7715.261
716.8138, 7715.196
717.2959, 7715.694
717.7780, 7715.359
718.2601, 7717.150
718.7422, 7734.188
719.2244, 7745.171
719.7065, 7719.208
720.1886, 7668.736
720.6707, 7625.387
721.1528, 7598.555
721.6349, 7585.370
722.1171, 7586.479
722.5992, 7597.502
723.0813, 7585.116
723.5634, 7539.229
724.0455, 7506.404
724.5276, 7504.104
725.0098, 7508.741
725.4919, 7496.126
725.9740, 7472.110
726.4561, 7461.044
726.9382, 7476.305
727.4203, 7489.632
727.9025, 7492.311
728.3846, 7490.187
728.8667, 7491.832
729.3488, 7493.494
729.8309, 7481.098
730.3130, 7445.924
730.7951, 7405.299
731.2772, 7384.597
731.7593, 7377.436
732.2415, 7354.957
732.7236, 7314.282
733.2057, 7285.098
733.6878, 7283.483
734.1699, 7301.739
734.6520, 7328.896
735.1342, 7376.033
735.6163, 7390.013
736.0984, 7337.883
736.5805, 7292.266
737.0626, 7279.814
737.5447, 7280.724
738.0269, 7271.546
738.5090, 7250.095
738.9911, 7234.279
739.4732, 7234.368
739.9553, 7240.275
740.4374, 7248.274
740.9196, 7255.033
741.4017, 7254.019
741.8838, 7244.711
742.3659, 7233.291
742.8480, 7225.024
743.3301, 7218.396
743.8123, 7208.496
744.2944, 7195.190
744.7765, 7181.548
745.2586, 7165.240
745.7407, 7158.374
746.2228, 7177.276
746.7050, 7211.851
747.1871, 7219.835
747.6692, 7174.794
748.1513, 7146.902
748.6334, 7148.346
749.1155, 7157.440
749.5977, 7166.802
750.0798, 7174.117
750.5619, 7176.457
751.0440, 7172.733
751.5261, 7168.651
752.0082, 7173.063
752.4904, 7176.274
752.9725, 7158.738
753.4546, 7127.833
753.9367, 7109.886
754.4188, 7113.892
754.9009, 7130.455
755.3831, 7153.142
755.8652, 7178.765
756.3473, 7174.011
756.8294, 7127.235
757.3115, 7099.460
757.7936, 7115.271
758.2758, 7141.205
758.7579, 7142.487
759.2400, 7123.678
759.7221, 7124.434
760.2042, 7170.010
760.6863, 7200.539
761.1685, 7204.013
761.6506, 7190.476
762.1327, 7155.645
762.6148, 7111.703
763.0969, 7084.414
763.5790, 7085.154
764.0612, 7094.877
764.5433, 7095.887
765.0254, 7095.019
765.5075, 7109.094
765.9896, 7134.623
766.4717, 7148.873
766.9539, 7142.199
767.4360, 7127.554
767.9181, 7124.220
768.4002, 7131.681
768.8823, 7119.934
769.3644, 7077.828
769.8466, 7050.896
770.3287, 7056.947
770.8108, 7077.317
771.2929, 7095.526
771.7750, 7111.643
772.2571, 7126.012
772.7393, 7149.725
773.2214, 7156.543
773.7035, 7114.923
774.1856, 7075.286
774.6677, 7088.539
775.1498, 7138.313
775.6320, 7171.857
776.1141, 7165.531
776.5962, 7149.941
777.0783, 7149.568
777.5604, 7159.811
778.0425, 7176.472
778.5247, 7196.877
779.0068, 7210.753
779.4889, 7213.679
779.9710, 7214.686
780.4531, 7226.619
780.9352, 7248.988
781.4174, 7268.976
781.8995, 7286.271
782.3816, 7303.095
782.8637, 7320.992
783.3458, 7337.281
783.8279, 7348.161
784.3101, 7354.113
784.7922, 7363.024
785.2743, 7373.083
785.7564, 7388.387
786.2385, 7373.229
786.7206, 7395.979
787.2028, 7558.482
787.6849, 7789.308
788.1670, 7920.151
788.6491, 7884.646
789.1312, 7796.210
789.6133, 7703.236
790.0955, 7625.255
790.5776, 7597.622
791.0597, 7608.263
791.5418, 7617.673
792.0239, 7611.870
792.5060, 7603.812
792.9882, 7610.361
793.4703, 7626.718
793.9524, 7628.901
794.4345, 7616.193
794.9166, 7596.423
795.3987, 7567.210
795.8809, 7545.121
796.3630, 7549.722
796.8451, 7573.815
797.3272, 7574.251
797.8093, 7530.640
798.2914, 7496.865
798.7736, 7484.987
799.2557, 7471.321
799.7378, 7442.180
800.2199, 7403.978
800.7020, 7368.556
801.1841, 7338.471
801.6663, 7306.523
802.1484, 7269.600
802.6305, 7229.876
803.1126, 7186.266
803.5947, 7142.264
804.0768, 7105.416
804.5590, 7076.114
805.0411, 7045.945
805.5232, 7009.107
806.0053, 6966.337
806.4874, 6912.009
806.9695, 6851.223
807.4517, 6813.688
807.9338, 6804.297
808.4159, 6792.272
808.8980, 6756.119
809.3801, 6707.302
809.8622, 6674.678
810.3444, 6663.756
810.8265, 6646.558
811.3086, 6623.952
811.7907, 6592.828
812.2728, 6540.431
812.7549, 6487.332
813.2371, 6466.573
813.7192, 6479.722
814.2013, 6475.915
814.6834, 6430.345
815.1655, 6393.395
815.6476, 6394.705
816.1298, 6399.853
816.6119, 6366.960
817.0940, 6308.705
817.5761, 6277.415
818.0582, 6302.348
818.5403, 6333.601
819.0225, 6330.720
819.5046, 6311.174
819.9867, 6299.362
820.4688, 6293.373
820.9509, 6278.860
821.4330, 6250.513
821.9152, 6217.209
822.3973, 6186.172
822.8794, 6159.637
823.3615, 6150.717
823.8436, 6159.387
824.3257, 6163.861
824.8079, 6158.337
825.2900, 6149.295
825.7721, 6141.638
826.2542, 6135.517
826.7363, 6131.779
827.2184, 6130.436
827.7006, 6131.762
828.1826, 6144.121
828.6647, 6148.272
829.1469, 6126.512
829.6290, 6094.684
830.1111, 6074.706
830.5932, 6068.000
831.0753, 6069.885
831.5574, 6094.784
832.0396, 6109.947
832.5217, 6089.408
833.0038, 6059.149
833.4859, 6051.358
833.9680, 6063.997
834.4501, 6069.058
834.9323, 6049.767
835.4144, 6025.734
835.8965, 6014.814
836.3786, 6010.430
836.8607, 6000.743
837.3428, 5987.472
837.8250, 5981.753
838.3071, 5988.294
838.7892, 5998.954
839.2713, 6006.268
839.7534, 6008.917
840.2355, 5997.141
840.7177, 5971.123
841.1998, 5953.015
841.6819, 5949.090
842.1640, 5951.955
842.6461, 5957.274
843.1282, 5962.130
843.6104, 5951.921
844.0925, 5918.954
844.5746, 5892.269
845.0567, 5869.417
845.5388, 5859.236
846.0209, 5875.697
846.5031, 5902.888
846.9852, 5915.071
847.4673, 5910.776
847.9494, 5901.534
848.4315, 5880.037
848.9136, 5864.215
849.3958, 5866.127
849.8779, 5871.829
850.3600, 5870.016
850.8421, 5859.753
851.3242, 5842.333
851.8063, 5813.895
852.2885, 5789.682
852.7706, 5784.528
853.2527, 5784.751
853.7348, 5774.631
854.2169, 5757.050
854.6990, 5742.079
855.1812, 5732.899
855.6633, 5724.447
856.1454, 5713.092
856.6275, 5698.361
857.1096, 5673.784
857.5917, 5644.276
858.0739, 5633.692
858.5560, 5645.965
859.0381, 5660.771
859.5202, 5664.272
860.0023, 5659.408
860.4844, 5652.442
860.9666, 5643.427
861.4487, 5628.542
861.9308, 5603.425
862.4129, 5591.924
862.8950, 5609.514
863.3771, 5633.961
863.8593, 5635.268
864.3414, 5613.457
864.8235, 5605.751
865.3056, 5626.550
865.7877, 5637.454
866.2698, 5631.281
866.7520, 5616.339
867.2341, 5590.116
867.7162, 5560.054
868.1983, 5541.128
868.6804, 5534.869
869.1625, 5539.466
869.6447, 5569.311
870.1268, 5593.277
870.6089, 5588.958
871.0910, 5574.324
871.5731, 5574.847
872.0552, 5589.540
872.5374, 5592.456
873.0195, 5559.234
873.5016, 5532.729
873.9837, 5552.799
874.4658, 5592.655
874.9479, 5625.167
875.4301, 5645.674
875.9122, 5649.832
876.3943, 5636.643
876.8764, 5621.409
877.3585, 5617.369
877.8406, 5623.498
878.3228, 5641.275
878.8049, 5667.707
879.2870, 5693.681
879.7691, 5716.543
880.2512, 5726.245
880.7333, 5713.479
881.2155, 5692.144
881.6976, 5694.836
882.1797, 5721.384
882.6618, 5739.916
883.1439, 5748.696
883.6260, 5752.266
884.1082, 5750.775
884.5903, 5749.415
885.0724, 5753.819
885.5545, 5764.043
886.0366, 5782.981
886.5187, 5821.961
887.0009, 5840.430
887.4830, 5820.797
887.9651, 5797.776
888.4472, 5789.100
888.9293, 5792.092
889.4114, 5802.295
889.8936, 5821.220
890.3757, 5840.521
890.8578, 5868.344
891.3399, 5885.709
891.8220, 5876.222
892.3041, 5862.934
892.7863, 5869.163
893.2684, 5890.666
893.7505, 5906.267
894.2326, 5911.714
894.7147, 5908.955
895.1968, 5883.542
895.6790, 5865.085
896.1611, 5884.714
896.6432, 5922.432
897.1253, 5942.037
897.6074, 5938.032
898.0895, 5937.747
898.5717, 5964.308
899.0538, 5992.650
899.5359, 5998.889
900.0180, 5993.119
900.5001, 5989.321
900.9822, 5988.132
901.4644, 5983.479
901.9465, 5972.693
902.4286, 5963.294
902.9107, 5965.284
903.3928, 5973.586
903.8749, 5978.894
904.3571, 5981.153
904.8392, 5979.472
905.3213, 5974.229
905.8034, 5970.396
906.2855, 5971.166
906.7676, 5977.090
907.2498, 5992.736
907.7319, 6016.250
908.2140, 6029.349
908.6961, 6031.059
909.1782, 6021.584
909.6603, 5998.351
910.1425, 5980.902
910.6246, 5994.516
911.1067, 6030.866
911.5888, 6035.920
912.0709, 6000.843
912.5530, 5979.811
913.0352, 5984.177
913.5173, 5987.901
913.9994, 5976.046
914.4815, 5956.725
914.9636, 5943.208
915.4457, 5935.679
915.9279, 5932.014
916.4100, 5934.985
916.8921, 5936.871
917.3742, 5935.743
917.8563, 5933.756
918.3384, 5934.314
918.8206, 5934.977
919.3027, 5928.112
919.7848, 5908.408
920.2669, 5896.279
920.7490, 5898.940
921.2311, 5901.978
921.7133, 5902.707
922.1954, 5899.814
922.6775, 5887.109
923.1596, 5868.607
923.6417, 5864.084
924.1238, 5888.468
924.6060, 5906.582
925.0881, 5902.134
925.5702, 5893.229
926.0523, 5892.414
926.5344, 5894.752
927.0165, 5888.705
927.4986, 5874.173
927.9807, 5868.974
928.4628, 5889.901
928.9449, 5911.504
929.4271, 5913.606
929.9092, 5911.472
930.3913, 5927.746
930.8734, 5952.724
931.3555, 5956.224
931.8376, 5929.432
932.3198, 5906.082
932.8019, 5917.278
933.2840, 5939.641
933.7661, 5946.038
934.2482, 5945.940
934.7303, 5959.250
935.2125, 5984.175
935.6946, 6002.097
936.1767, 6003.871
936.6588, 5997.101
937.1409, 5982.290
937.6230, 5969.019
938.1052, 5982.679
938.5873, 6013.939
939.0694, 6030.374
939.5515, 6026.489
940.0336, 6020.013
940.5157, 6022.588
940.9979, 6032.200
941.4800, 6046.524
941.9621, 6064.946
942.4442, 6086.070
942.9263, 6109.354
943.4084, 6132.210
943.8906, 6153.653
944.3727, 6170.943
944.8548, 6180.657
945.3369, 6186.410
945.8190, 6199.449
946.3011, 6219.213
946.7833, 6234.994
947.2654, 6245.830
947.7475, 6256.469
948.2296, 6269.121
948.7117, 6280.592
949.1938, 6286.334
949.6760, 6287.982
950.1581, 6295.515
950.6402, 6309.693
951.1223, 6325.413
951.6044, 6345.024
952.0865, 6349.625
952.5687, 6323.002
953.0508, 6291.317
953.5329, 6297.786
954.0150, 6342.079
954.4971, 6364.651
954.9792, 6359.412
955.4614, 6352.712
955.9435, 6346.256
956.4256, 6345.699
956.9077, 6357.788
957.3898, 6374.646
957.8719, 6379.783
958.3541, 6371.619
958.8362, 6362.286
959.3183, 6349.991
959.8004, 6339.844
960.2825, 6329.000
960.7646, 6326.761
961.2468, 6347.230
961.7289, 6378.843
962.2110, 6388.144
962.6931, 6365.605
963.1752, 6351.648
963.6573, 6350.020
964.1395, 6351.244
964.6216, 6353.147
965.1037, 6356.788
965.5858, 6365.479
966.0679, 6376.838
966.5500, 6380.708
967.0322, 6370.295
967.5143, 6367.412
967.9964, 6384.558
968.4785, 6394.181
968.9606, 6379.135
969.4427, 6359.157
969.9249, 6354.349
970.4070, 6361.980
970.8891, 6365.333
971.3712, 6360.667
971.8533, 6356.257
972.3354, 6350.277
972.8176, 6347.980
973.2997, 6351.636
973.7818, 6360.131
974.2639, 6376.989
974.7460, 6399.282
975.2281, 6407.938
975.7103, 6387.718
976.1924, 6373.926
976.6745, 6377.220
977.1566, 6384.645
977.6387, 6392.436
978.1208, 6398.330
978.6030, 6396.757
979.0851, 6389.010
979.5672, 6390.419
980.0493, 6412.192
980.5314, 6432.363
981.0135, 6440.763
981.4957, 6450.072
981.9778, 6474.593
982.4599, 6501.977
982.9420, 6510.260
983.4241, 6498.731
983.9063, 6495.287
984.3884, 6518.444
984.8705, 6537.454
985.3526, 6529.104
985.8347, 6525.280
986.3168, 6559.984
986.7990, 6610.310
987.2811, 6635.582
987.7632, 6630.665
988.2453, 6627.169
988.7274, 6636.778
989.2095, 6649.737
989.6917, 6662.131
990.1738, 6676.201
990.6559, 6699.089
991.1380, 6722.791
991.6201, 6730.927
992.1022, 6721.282
992.5844, 6714.807
993.0665, 6714.938
993.5486, 6726.700
994.0307, 6768.071
994.5128, 6807.864
994.9949, 6811.531
995.4771, 6795.940
995.9592, 6796.443
996.4413, 6820.113
996.9234, 6845.992
997.4055, 6876.833
997.8876, 6892.788
998.3698, 6859.774
998.8519, 6828.839
999.3340, 6856.308
999.8161, 6917.592
1000.298, 6958.242
1000.780, 6966.616
1001.262, 6972.508
1001.745, 6991.740
1002.227, 7008.403
1002.709, 7008.291
1003.191, 7007.071
1003.673, 7024.511
1004.155, 7050.211
1004.637, 7056.494
1005.119, 7038.099
1005.602, 7034.971
1006.084, 7079.616
1006.566, 7124.730
1007.048, 7147.845
1007.530, 7159.229
1008.012, 7161.686
1008.494, 7162.246
1008.976, 7174.903
1009.458, 7202.217
1009.941, 7222.253
1010.423, 7216.672
1010.905, 7213.375
1011.387, 7229.292
1011.869, 7250.307
1012.351, 7260.960
1012.833, 7268.567
1013.315, 7292.413
1013.797, 7335.528
1014.280, 7368.353
1014.762, 7370.514
1015.244, 7371.445
1015.726, 7380.989
1016.208, 7397.433
1016.690, 7424.733
1017.172, 7455.468
1017.654, 7475.006
1018.137, 7481.371
1018.619, 7493.004
1019.101, 7520.731
1019.583, 7548.806
1020.065, 7569.941
1020.547, 7590.478
1021.029, 7615.076
1021.511, 7642.577
1021.993, 7676.373
1022.476, 7715.252
1022.958, 7730.972
1023.440, 7679.802
1023.922, 7654.786
1024.404, 7702.983
1024.886, 7766.913
1025.368, 7819.150
1025.850, 7857.406
1026.333, 7880.349
1026.815, 7888.486
1027.297, 7890.901
1027.779, 7870.044
1028.261, 7872.416
1028.743, 7931.215
1029.225, 7990.564
1029.707, 8015.166
1030.189, 8024.382
1030.672, 8047.344
1031.154, 8083.707
1031.636, 8105.837
1032.118, 8093.602
1032.600, 8092.262
1033.082, 8099.701
1033.564, 8128.616
1034.046, 8209.715
1034.528, 8298.048
1035.011, 8337.499
1035.493, 8333.172
1035.975, 8343.691
1036.457, 8387.682
1036.939, 8419.733
1037.421, 8425.842
1037.903, 8435.431
1038.385, 8458.944
1038.868, 8490.562
1039.350, 8522.163
1039.832, 8556.694
1040.314, 8609.789
1040.796, 8699.088
1041.278, 8765.526
1041.760, 8790.557
1042.242, 8823.358
1042.724, 8884.468
1043.207, 8950.739
1043.689, 9007.216
1044.171, 9052.074
1044.653, 9077.536
1045.135, 9075.898
1045.617, 9083.771
1046.099, 9099.464
1046.581, 9130.428
1047.063, 9186.758
1047.546, 9242.054
1048.028, 9273.672
1048.510, 9294.107
1048.992, 9334.665
1049.474, 9399.564
1049.956, 9438.233
1050.438, 9439.652
1050.920, 9464.742
1051.403, 9533.113
1051.885, 9597.054
1052.367, 9623.966
1052.849, 9635.768
1053.331, 9670.468
1053.813, 9726.608
1054.295, 9781.599
1054.777, 9835.930
1055.260, 9882.314
1055.742, 9919.114
1056.224, 9955.929
1056.706, 9997.806
1057.188, 10041.58
1057.670, 10083.65
1058.152, 10123.29
1058.634, 10152.83
1059.116, 10174.72
1059.599, 10222.94
1060.081, 10298.85
1060.563, 10361.84
1061.045, 10396.12
1061.527, 10427.39
1062.009, 10482.61
1062.491, 10549.49
1062.973, 10603.86
1063.455, 10646.22
1063.938, 10668.16
1064.420, 10676.96
1064.902, 10709.30
1065.384, 10773.83
1065.866, 10847.76
1066.348, 10916.67
1066.830, 10977.90
1067.312, 11027.46
1067.795, 11067.36
1068.277, 11089.49
1068.759, 11107.30
1069.241, 11158.93
1069.723, 11243.85
1070.205, 11324.36
1070.687, 11380.85
1071.169, 11424.63
1071.651, 11458.48
1072.134, 11491.76
1072.616, 11534.61
1073.098, 11584.25
1073.580, 11637.83
1074.062, 11693.47
1074.544, 11744.65
1075.026, 11788.96
1075.508, 11844.96
1075.990, 11937.22
1076.473, 12028.31
1076.955, 12094.39
1077.437, 12148.34
1077.919, 12199.36
1078.401, 12248.85
1078.883, 12295.99
1079.365, 12340.80
1079.847, 12388.32
1080.329, 12434.69
1080.812, 12491.79
1081.294, 12572.40
1081.776, 12654.64
1082.258, 12723.72
1082.740, 12788.71
1083.222, 12870.52
1083.704, 12965.01
1084.186, 13024.47
1084.669, 13001.20
1085.151, 13020.62
1085.633, 13115.67
1086.115, 13215.62
1086.597, 13309.50
1087.079, 13388.19
1087.561, 13428.98
1088.043, 13453.00
1088.526, 13532.38
1089.008, 13687.75
1089.490, 13796.47
1089.972, 13839.77
1090.454, 13893.66
1090.936, 13981.32
1091.418, 14059.07
1091.900, 14092.31
1092.382, 14113.17
1092.865, 14178.07
1093.347, 14282.57
1093.829, 14385.43
1094.311, 14487.44
1094.793, 14556.26
1095.275, 14586.52
1095.757, 14643.35
1096.239, 14757.01
1096.721, 14877.88
1097.204, 14950.27
1097.686, 14997.87
1098.168, 15089.63
1098.650, 15205.06
1099.132, 15246.96
1099.614, 15231.88
1100.096, 15266.78
1100.578, 15376.49
1101.061, 15509.81
1101.543, 15637.67
1102.025, 15747.77
1102.507, 15803.08
1102.989, 15848.80
1103.471, 15971.08
1103.953, 16123.86
1104.435, 16208.87
1104.917, 16234.61
1105.400, 16284.23
1105.882, 16389.86
1106.364, 16504.91
1106.846, 16594.94
1107.328, 16690.11
1107.810, 16828.78
1108.292, 16967.13
1108.774, 17057.55
1109.256, 17118.18
1109.739, 17180.95
1110.221, 17252.77
1110.703, 17347.94
1111.185, 17487.21
1111.667, 17624.49
1112.149, 17747.33
1112.631, 17868.59
1113.113, 17995.85
1113.596, 18122.41
1114.078, 18249.90
1114.560, 18370.91
1115.042, 18452.54
1115.524, 18463.59
1116.006, 18539.39
1116.488, 18708.28
1116.970, 18876.23
1117.453, 19028.76
1117.935, 19165.68
1118.417, 19288.94
1118.899, 19391.57
1119.381, 19451.32
1119.863, 19477.61
1120.345, 19587.59
1120.827, 19784.29
1121.309, 19943.35
1121.792, 20050.01
1122.274, 20122.72
1122.756, 20167.37
1123.238, 20232.95
1123.720, 20371.20
1124.202, 20544.76
1124.684, 20694.26
1125.166, 20814.94
1125.648, 20865.80
1126.131, 20878.21
1126.613, 20955.94
1127.095, 21109.09
1127.577, 21269.76
1128.059, 21404.67
1128.541, 21523.37
1129.023, 21622.60
1129.505, 21720.83
1129.988, 21831.36
1130.470, 21955.23
1130.952, 22103.57
1131.434, 22263.34
1131.916, 22405.36
1132.398, 22524.79
1132.880, 22643.01
1133.362, 22751.19
1133.844, 22885.75
1134.327, 23102.16
1134.809, 23295.89
1135.291, 23380.58
1135.773, 23435.81
1136.255, 23541.35
1136.737, 23695.98
1137.219, 23883.28
1137.701, 24128.59
1138.183, 24313.60
1138.666, 24414.20
1139.148, 24509.66
1139.630, 24610.13
1140.112, 24720.50
1140.594, 24842.14
1141.076, 24982.05
1141.558, 25156.16
1142.040, 25354.29
1142.523, 25510.49
1143.005, 25627.45
1143.487, 25744.06
1143.969, 25864.38
1144.451, 25989.10
1144.933, 26118.84
1145.415, 26274.98
1145.897, 26477.94
1146.380, 26684.14
1146.862, 26821.79
1147.344, 26927.28
1147.826, 27073.11
1148.308, 27232.40
1148.790, 27334.68
1149.272, 27393.88
1149.754, 27487.04
1150.236, 27639.44
1150.719, 27796.00
1151.201, 27926.25
1151.683, 28047.54
1152.165, 28178.91
1152.647, 28296.02
1153.129, 28360.53
1153.611, 28412.81
1154.093, 28518.00
1154.575, 28668.35
1155.058, 28784.42
1155.540, 28818.46
1156.022, 28917.75
1156.504, 29129.52
1156.986, 29334.05
1157.468, 29510.48
1157.950, 29665.63
1158.432, 29798.69
1158.915, 29920.65
1159.397, 30051.12
1159.879, 30185.50
1160.361, 30278.81
1160.843, 30328.93
1161.325, 30431.24
1161.807, 30592.93
1162.289, 30768.04
1162.771, 30941.65
1163.254, 31090.94
1163.736, 31196.80
1164.218, 31287.57
1164.700, 31397.36
1165.182, 31524.86
1165.664, 31686.88
1166.146, 31856.56
1166.628, 31964.14
1167.110, 32031.00
1167.593, 32149.79
1168.075, 32344.68
1168.557, 32528.36
1169.039, 32648.10
1169.521, 32754.32
1170.003, 32849.40
1170.485, 32965.91
1170.967, 33147.19
1171.450, 33344.63
1171.932, 33502.11
1172.414, 33624.06
1172.896, 33736.25
1173.378, 33830.05
1173.860, 33959.86
1174.342, 34176.64
1174.824, 34300.66
1175.306, 34253.98
1175.789, 34252.61
1176.271, 34410.53
1176.753, 34638.77
1177.235, 34844.64
1177.717, 35020.87
1178.199, 35131.80
1178.681, 35185.67
1179.163, 35224.83
1179.646, 35262.98
1180.128, 35384.66
1180.610, 35591.16
1181.092, 35765.95
1181.574, 35848.22
1182.056, 35916.02
1182.538, 36052.33
1183.020, 36201.20
1183.502, 36294.63
1183.984, 36375.63
1184.467, 36503.42
1184.949, 36651.42
1185.431, 36767.12
1185.913, 36847.12
1186.395, 36921.31
1186.877, 36991.73
1187.359, 37074.08
1187.841, 37185.46
1188.324, 37289.02
1188.806, 37356.54
1189.288, 37438.68
1189.770, 37579.51
1190.252, 37734.89
1190.734, 37833.52
1191.216, 37886.16
1191.698, 37976.05
1192.181, 38106.55
1192.663, 38206.25
1193.145, 38270.81
1193.627, 38328.36
1194.109, 38386.36
1194.591, 38444.42
1195.073, 38502.50
1195.555, 38557.80
1196.037, 38600.75
1196.520, 38644.55
1197.002, 38701.93
1197.484, 38779.51
1197.966, 38911.32
1198.448, 39063.65
1198.930, 39159.59
1199.412, 39193.90
1199.894, 39234.82
1200.376, 39310.30
1200.859, 39384.20
1201.341, 39437.34
1201.823, 39496.47
1202.305, 39571.39
1202.787, 39656.84
1203.269, 39768.18
1203.751, 39869.69
1204.233, 39891.90
1204.716, 39849.88
1205.198, 39894.16
1205.680, 40039.76
1206.162, 40160.36
1206.644, 40250.78
1207.126, 40296.38
1207.608, 40294.38
1208.090, 40336.34
1208.573, 40481.37
1209.055, 40646.95
1209.537, 40724.13
1210.019, 40762.93
1210.501, 40838.89
1210.983, 40934.30
1211.465, 41034.63
1211.947, 41126.11
1212.429, 41169.95
1212.911, 41177.06
1213.394, 41230.90
1213.876, 41372.13
1214.358, 41508.63
1214.840, 41613.12
1215.322, 41705.72
1215.804, 41779.16
1216.286, 41860.07
1216.768, 41970.15
1217.251, 42089.86
1217.733, 42197.29
1218.215, 42291.61
1218.697, 42357.95
1219.179, 42391.91
1219.661, 42489.59
1220.143, 42651.82
1220.625, 42778.25
1221.108, 42852.29
1221.590, 42930.72
1222.072, 43040.89
1222.554, 43153.41
1223.036, 43230.03
1223.518, 43313.97
1224.000, 43461.85
1224.482, 43643.88
1224.964, 43856.77
1225.447, 44058.31
1225.929, 44167.53
1226.411, 44209.42
1226.893, 44300.73
1227.375, 44476.70
1227.857, 44603.24
1228.339, 44600.61
1228.821, 44639.53
1229.303, 44750.84
1229.786, 44885.60
1230.268, 45034.53
1230.750, 45181.76
1231.232, 45312.71
1231.714, 45431.98
1232.196, 45546.57
1232.678, 45658.88
1233.160, 45781.77
1233.643, 45913.77
1234.125, 46056.56
1234.607, 46201.68
1235.089, 46312.18
1235.571, 46381.59
1236.053, 46450.36
1236.535, 46539.82
1237.017, 46643.01
1237.500, 46756.80
1237.982, 46878.86
1238.464, 47025.57
1238.946, 47161.46
1239.428, 47247.47
1239.910, 47304.03
1240.392, 47359.33
1240.874, 47418.97
1241.356, 47526.40
1241.839, 47707.72
1242.321, 47841.36
1242.803, 47917.74
1243.285, 47998.23
1243.767, 48095.99
1244.249, 48195.91
1244.731, 48289.48
1245.213, 48379.50
1245.695, 48465.96
1246.178, 48556.82
1246.660, 48670.47
1247.142, 48792.78
1247.624, 48906.66
1248.106, 49009.30
1248.588, 49095.77
1249.070, 49168.92
1249.552, 49235.82
1250.035, 49297.89
1250.517, 49367.23
1250.999, 49475.68
1251.481, 49542.43
1251.963, 49491.65
1252.445, 49513.45
1252.927, 49711.41
1253.409, 49905.33
1253.891, 49955.40
1254.374, 49932.57
1254.856, 49953.83
1255.338, 50011.86
1255.820, 50081.25
1256.302, 50157.80
1256.784, 50212.18
1257.266, 50257.77
1257.748, 50370.62
1258.230, 50539.67
1258.713, 50617.23
1259.195, 50528.58
1259.677, 50481.14
1260.159, 50626.77
1260.641, 50800.11
1261.123, 50950.64
1261.605, 51073.19
1262.087, 51149.70
1262.570, 51212.30
1263.052, 51305.89
1263.534, 51403.54
1264.016, 51423.53
1264.498, 51365.46
1264.980, 51406.29
1265.462, 51545.66
1265.944, 51618.84
1266.427, 51618.94
1266.909, 51673.55
1267.391, 51814.15
1267.873, 51953.16
1268.355, 52036.17
1268.837, 52100.56
1269.319, 52188.30
1269.801, 52248.57
1270.283, 52191.48
1270.766, 52136.21
##END=



