##NAMES=Hydroxylherderite
##RRUFFID=R050518
##IDEAL CHEMISTRY=CaBe(P^5+^O_4_)(OH)
##LOCALITY=Mt. Apatite, Auburn, Maine, USA
##OWNER=RRUFF
##SOURCE=University of Arizona Mineral Museum
##DESCRIPTION=Colorless prismatic crystals
##STATUS=The identification of this mineral has been confirmed by X-ray diffraction and chemical analysis
##URL=rruff.info/R050518
##MEASURED CHEMISTRY=Ca_1.00_Be_1.00_(P_1.00_O_4_)((OH)_0.75_F_0.25_)_Î£=1_
149.8449, 4291.145
150.3270, 4423.289
150.8091, 4531.290
151.2912, 4606.817
151.7733, 4667.445
152.2555, 4713.819
152.7376, 4751.633
153.2197, 4789.985
153.7018, 4836.056
154.1839, 4884.852
154.6660, 4911.512
155.1481, 4895.564
155.6303, 4881.507
156.1124, 4878.221
156.5945, 4883.872
157.0766, 4894.359
157.5587, 4906.622
158.0408, 4921.710
158.5230, 4947.505
159.0051, 4980.777
159.4872, 5030.834
159.9693, 5103.046
160.4514, 5170.847
160.9335, 5227.742
161.4157, 5279.384
161.8978, 5326.640
162.3799, 5381.146
162.8620, 5439.538
163.3441, 5509.378
163.8262, 5590.373
164.3084, 5684.242
164.7905, 5797.365
165.2726, 5937.565
165.7547, 6102.377
166.2368, 6235.338
166.7189, 6355.425
167.2011, 6428.395
167.6832, 6449.778
168.1653, 6418.897
168.6474, 6331.366
169.1295, 6180.413
169.6116, 5968.289
170.0938, 5756.071
170.5759, 5518.919
171.0580, 5306.319
171.5401, 5135.491
172.0222, 5001.081
172.5043, 4883.314
172.9865, 4762.719
173.4686, 4638.537
173.9507, 4599.031
174.4328, 4739.541
174.9149, 4853.586
175.3970, 4845.281
175.8792, 4748.953
176.3613, 4662.475
176.8434, 4660.640
177.3255, 4743.899
177.8076, 4792.266
178.2897, 4772.511
178.7719, 4758.621
179.2540, 4772.742
179.7361, 4815.060
180.2182, 4882.315
180.7003, 4975.822
181.1824, 5095.941
181.6646, 5190.737
182.1467, 5271.084
182.6288, 5323.353
183.1109, 5341.083
183.5930, 5326.485
184.0751, 5283.906
184.5573, 5214.057
185.0394, 5117.831
185.5215, 5019.111
186.0036, 4904.096
186.4857, 4800.047
186.9678, 4716.270
187.4500, 4651.715
187.9321, 4601.651
188.4142, 4562.018
188.8963, 4533.370
189.3784, 4527.117
189.8605, 4559.220
190.3427, 4592.079
190.8248, 4602.455
191.3069, 4600.059
191.7890, 4613.516
192.2711, 4663.083
192.7532, 4745.348
193.2354, 4822.479
193.7175, 4896.020
194.1996, 4964.050
194.6817, 5034.067
195.1638, 5098.970
195.6459, 5141.536
196.1281, 5151.145
196.6102, 5129.516
197.0923, 5086.086
197.5744, 5019.276
198.0565, 4938.705
198.5386, 4839.436
199.0208, 4728.145
199.5029, 4618.799
199.9850, 4516.297
200.4671, 4422.839
200.9492, 4349.865
201.4313, 4312.490
201.9135, 4273.872
202.3956, 4213.737
202.8777, 4144.171
203.3598, 4092.742
203.8419, 4076.825
204.3240, 4086.045
204.8061, 4075.943
205.2883, 4030.503
205.7704, 3988.189
206.2525, 3956.987
206.7346, 3935.820
207.2167, 3924.172
207.6988, 3922.961
208.1810, 3928.330
208.6631, 3927.689
209.1452, 3914.124
209.6273, 3904.031
210.1094, 3898.791
210.5915, 3899.354
211.0737, 3908.769
211.5558, 3928.975
212.0379, 3955.595
212.5200, 3977.795
213.0021, 3997.165
213.4842, 4010.234
213.9664, 4010.257
214.4485, 4005.405
214.9306, 4006.319
215.4127, 4016.838
215.8948, 4034.951
216.3769, 4057.519
216.8591, 4088.221
217.3412, 4116.727
217.8233, 4135.512
218.3054, 4154.176
218.7875, 4185.495
219.2696, 4233.518
219.7518, 4289.141
220.2339, 4337.575
220.7160, 4373.020
221.1981, 4412.399
221.6802, 4460.505
222.1623, 4510.819
222.6445, 4561.492
223.1266, 4611.321
223.6087, 4650.644
224.0908, 4666.547
224.5729, 4652.680
225.0550, 4625.102
225.5372, 4573.937
226.0193, 4516.081
226.5014, 4464.894
226.9835, 4422.300
227.4656, 4379.784
227.9477, 4327.279
228.4298, 4260.427
228.9120, 4199.771
229.3941, 4144.067
229.8762, 4094.436
230.3583, 4051.455
230.8404, 4015.134
231.3225, 3985.892
231.8047, 3965.556
232.2868, 3956.405
232.7689, 3937.665
233.2510, 3896.291
233.7331, 3858.868
234.2152, 3839.407
234.6974, 3835.698
235.1795, 3837.982
235.6616, 3839.436
236.1437, 3840.096
236.6258, 3835.865
237.1079, 3817.492
237.5901, 3804.418
238.0722, 3806.974
238.5543, 3819.955
239.0364, 3831.236
239.5185, 3832.587
240.0006, 3825.918
240.4828, 3826.879
240.9649, 3852.365
241.4470, 3866.603
241.9291, 3856.520
242.4112, 3832.398
242.8933, 3807.201
243.3755, 3786.889
243.8576, 3773.752
244.3397, 3775.998
244.8218, 3821.824
245.3039, 3848.091
245.7860, 3834.814
246.2682, 3806.056
246.7503, 3788.663
247.2324, 3793.028
247.7145, 3809.594
248.1966, 3817.811
248.6787, 3812.677
249.1609, 3806.868
249.6430, 3789.347
250.1251, 3778.335
250.6072, 3793.739
251.0893, 3838.360
251.5714, 3892.703
252.0535, 3928.294
252.5357, 3940.823
253.0178, 3944.358
253.4999, 3933.830
253.9820, 3919.752
254.4641, 3903.512
254.9462, 3887.879
255.4284, 3880.573
255.9105, 3893.847
256.3926, 3933.509
256.8747, 3960.221
257.3568, 3964.611
257.8390, 3963.429
258.3211, 3961.119
258.8032, 3958.436
259.2853, 3955.148
259.7674, 3950.716
260.2495, 3945.237
260.7317, 3941.278
261.2138, 3940.760
261.6959, 3939.469
262.1780, 3932.940
262.6601, 3924.889
263.1422, 3922.175
263.6244, 3929.449
264.1065, 3944.427
264.5886, 3961.078
265.0707, 3984.855
265.5528, 3999.265
266.0349, 3988.935
266.5170, 3970.607
266.9991, 3965.630
267.4813, 3985.057
267.9634, 4014.625
268.4455, 4028.051
268.9276, 4019.367
269.4097, 4018.783
269.8918, 4054.572
270.3740, 4094.107
270.8561, 4107.424
271.3382, 4085.465
271.8203, 4054.252
272.3024, 4041.929
272.7845, 4048.337
273.2667, 4046.114
273.7488, 4023.331
274.2309, 3993.658
274.7130, 3970.842
275.1951, 3955.427
275.6772, 3939.761
276.1594, 3919.699
276.6415, 3895.613
277.1236, 3866.014
277.6057, 3823.769
278.0878, 3789.072
278.5699, 3787.227
279.0521, 3812.752
279.5342, 3834.645
280.0163, 3839.706
280.4984, 3835.278
280.9805, 3830.274
281.4626, 3824.594
281.9448, 3824.711
282.4269, 3840.794
282.9090, 3868.425
283.3911, 3886.781
283.8732, 3892.124
284.3553, 3888.196
284.8375, 3874.955
285.3196, 3853.545
285.8017, 3831.385
286.2838, 3811.369
286.7659, 3794.694
287.2480, 3784.493
287.7302, 3785.752
288.2123, 3787.284
288.6944, 3783.736
289.1765, 3777.122
289.6586, 3770.917
290.1407, 3765.816
290.6229, 3764.098
291.1050, 3771.827
291.5871, 3793.521
292.0692, 3815.690
292.5513, 3839.279
293.0334, 3861.230
293.5156, 3877.888
293.9977, 3888.387
294.4798, 3895.099
294.9619, 3900.879
295.4440, 3905.297
295.9261, 3909.895
296.4083, 3912.791
296.8904, 3917.237
297.3725, 3926.090
297.8546, 3938.791
298.3367, 3952.555
298.8188, 3965.239
299.3010, 3977.076
299.7831, 3984.602
300.2652, 3977.901
300.7473, 3977.418
301.2294, 3994.974
301.7115, 4022.389
302.1937, 4044.757
302.6758, 4052.843
303.1579, 4050.451
303.6400, 4052.993
304.1221, 4069.304
304.6042, 4076.584
305.0864, 4066.065
305.5685, 4048.495
306.0506, 4033.249
306.5327, 4023.617
307.0148, 4018.756
307.4969, 4019.708
307.9791, 4030.239
308.4612, 4032.469
308.9433, 4017.679
309.4254, 3998.333
309.9075, 3979.163
310.3896, 3961.370
310.8718, 3946.281
311.3539, 3935.037
311.8360, 3927.587
312.3181, 3925.282
312.8002, 3938.319
313.2823, 3941.090
313.7644, 3909.470
314.2466, 3856.084
314.7287, 3813.946
315.2108, 3802.815
315.6929, 3809.859
316.1750, 3814.067
316.6571, 3815.765
317.1393, 3812.295
317.6214, 3795.283
318.1035, 3774.114
318.5856, 3765.807
319.0677, 3776.098
319.5498, 3794.092
320.0320, 3816.241
320.5141, 3840.626
320.9962, 3857.722
321.4783, 3862.596
321.9604, 3860.412
322.4425, 3858.816
322.9247, 3855.536
323.4068, 3859.838
323.8889, 3883.640
324.3710, 3913.045
324.8531, 3926.166
325.3352, 3918.520
325.8174, 3907.972
326.2995, 3914.518
326.7816, 3942.639
327.2637, 3964.672
327.7458, 3981.015
328.2279, 3991.258
328.7101, 3991.912
329.1922, 3985.563
329.6743, 3979.830
330.1564, 3979.720
330.6385, 3984.926
331.1206, 3992.753
331.6028, 4014.169
332.0849, 4025.453
332.5670, 4009.943
333.0491, 3986.851
333.5312, 3981.175
334.0133, 4002.524
334.4955, 4038.710
334.9776, 4068.687
335.4597, 4096.728
335.9418, 4107.729
336.4239, 4084.377
336.9060, 4058.841
337.3882, 4052.028
337.8703, 4064.667
338.3524, 4083.259
338.8345, 4098.127
339.3166, 4109.258
339.7987, 4109.930
340.2809, 4096.907
340.7630, 4076.500
341.2451, 4045.387
341.7272, 4010.135
342.2093, 3984.244
342.6914, 3977.372
343.1736, 3979.290
343.6557, 3969.721
344.1378, 3945.750
344.6199, 3928.003
345.1020, 3933.196
345.5841, 3944.657
346.0663, 3940.439
346.5484, 3914.823
347.0305, 3887.738
347.5126, 3873.349
347.9947, 3868.337
348.4768, 3861.416
348.9590, 3848.605
349.4411, 3836.904
349.9232, 3839.187
350.4053, 3855.860
350.8874, 3860.505
351.3695, 3839.564
351.8517, 3810.613
352.3338, 3791.353
352.8159, 3781.595
353.2980, 3766.799
353.7801, 3734.456
354.2622, 3687.077
354.7444, 3654.759
355.2265, 3646.092
355.7086, 3639.221
356.1907, 3634.604
356.6728, 3626.095
357.1549, 3601.695
357.6371, 3556.659
358.1192, 3503.256
358.6013, 3465.605
359.0834, 3450.256
359.5655, 3439.891
360.0476, 3439.548
360.5298, 3439.495
361.0119, 3433.205
361.4940, 3420.690
361.9761, 3406.190
362.4582, 3393.029
362.9403, 3381.230
363.4224, 3370.730
363.9045, 3360.467
364.3867, 3353.283
364.8688, 3354.900
365.3509, 3358.675
365.8330, 3353.752
366.3151, 3333.459
366.7972, 3308.132
367.2794, 3292.172
367.7615, 3285.634
368.2436, 3288.010
368.7257, 3307.210
369.2078, 3328.968
369.6899, 3338.877
370.1721, 3335.944
370.6542, 3328.561
371.1363, 3319.151
371.6184, 3308.787
372.1005, 3299.153
372.5826, 3290.204
373.0648, 3283.836
373.5469, 3281.445
374.0290, 3283.352
374.5111, 3289.285
374.9932, 3308.753
375.4753, 3323.482
375.9575, 3317.279
376.4396, 3297.167
376.9217, 3284.432
377.4038, 3290.528
377.8859, 3306.509
378.3680, 3309.139
378.8502, 3273.558
379.3323, 3258.558
379.8144, 3284.886
380.2965, 3319.475
380.7786, 3333.908
381.2607, 3324.867
381.7429, 3307.296
382.2250, 3296.151
382.7071, 3291.854
383.1892, 3288.281
383.6713, 3286.396
384.1534, 3284.206
384.6356, 3276.757
385.1177, 3269.540
385.5998, 3273.165
386.0819, 3294.976
386.5640, 3322.685
387.0461, 3331.886
387.5283, 3318.708
388.0104, 3306.932
388.4925, 3305.777
388.9746, 3305.920
389.4567, 3298.493
389.9388, 3282.928
390.4210, 3268.185
390.9031, 3259.186
391.3852, 3254.813
391.8673, 3253.462
392.3494, 3255.586
392.8315, 3257.094
393.3137, 3253.589
393.7958, 3246.449
394.2779, 3243.503
394.7600, 3248.015
395.2421, 3253.915
395.7242, 3256.545
396.2064, 3258.111
396.6885, 3265.698
397.1706, 3282.985
397.6527, 3302.156
398.1348, 3307.591
398.6169, 3287.338
399.0991, 3275.775
399.5812, 3280.430
400.0633, 3287.518
400.5454, 3285.675
401.0275, 3276.334
401.5096, 3270.241
401.9918, 3277.558
402.4739, 3296.097
402.9560, 3303.529
403.4381, 3287.675
403.9202, 3277.968
404.4023, 3284.783
404.8845, 3299.053
405.3666, 3312.140
405.8487, 3321.580
406.3308, 3326.141
406.8129, 3320.539
407.2950, 3305.147
407.7772, 3299.381
408.2593, 3310.174
408.7414, 3326.260
409.2235, 3340.000
409.7056, 3351.342
410.1877, 3359.665
410.6699, 3360.808
411.1520, 3361.274
411.6341, 3369.686
412.1162, 3385.411
412.5983, 3399.769
413.0804, 3406.996
413.5625, 3410.932
414.0446, 3423.571
414.5268, 3448.594
415.0089, 3473.894
415.4910, 3501.146
415.9731, 3525.696
416.4552, 3539.926
416.9373, 3543.956
417.4195, 3547.510
417.9016, 3560.277
418.3837, 3582.676
418.8658, 3609.249
419.3479, 3640.581
419.8300, 3675.709
420.3122, 3713.296
420.7943, 3755.004
421.2764, 3805.743
421.7585, 3868.454
422.2406, 3931.689
422.7227, 3971.719
423.2049, 3982.784
423.6870, 4011.253
424.1691, 4081.032
424.6512, 4154.711
425.1333, 4210.741
425.6154, 4248.594
426.0976, 4269.522
426.5797, 4273.503
427.0618, 4261.111
427.5439, 4228.867
428.0260, 4176.611
428.5081, 4121.715
428.9903, 4071.508
429.4724, 4025.758
429.9545, 3982.906
430.4366, 3939.812
430.9187, 3904.272
431.4008, 3874.946
431.8830, 3855.684
432.3651, 3853.652
432.8472, 3869.070
433.3293, 3892.279
433.8114, 3914.101
434.2935, 3934.505
434.7757, 3955.085
435.2578, 3969.402
435.7399, 3991.061
436.2220, 4026.350
436.7041, 4070.214
437.1862, 4115.380
437.6684, 4158.726
438.1505, 4204.172
438.6326, 4258.774
439.1147, 4323.614
439.5968, 4386.041
440.0789, 4437.715
440.5611, 4493.855
441.0432, 4558.898
441.5253, 4635.105
442.0074, 4730.681
442.4895, 4851.267
442.9716, 4991.473
443.4538, 5160.578
443.9359, 5353.701
444.4180, 5514.271
444.9001, 5610.716
445.3822, 5664.420
445.8643, 5722.732
446.3465, 5793.413
446.8286, 5848.904
447.3107, 5897.435
447.7928, 5919.904
448.2749, 5895.551
448.7570, 5825.043
449.2392, 5725.586
449.7213, 5609.481
450.2034, 5476.801
450.6855, 5319.735
451.1676, 5118.235
451.6497, 4919.339
452.1319, 4717.619
452.6140, 4528.202
453.0961, 4366.926
453.5782, 4237.266
454.0603, 4129.791
454.5424, 4040.167
455.0246, 3966.584
455.5067, 3892.659
455.9888, 3814.159
456.4709, 3741.510
456.9530, 3685.264
457.4352, 3639.100
457.9173, 3590.850
458.3994, 3528.799
458.8815, 3476.516
459.3636, 3460.564
459.8457, 3467.002
460.3279, 3457.822
460.8100, 3420.244
461.2921, 3373.743
461.7742, 3344.058
462.2563, 3335.630
462.7384, 3327.280
463.2205, 3315.843
463.7026, 3307.691
464.1848, 3311.717
464.6669, 3320.596
465.1490, 3317.884
465.6311, 3294.291
466.1132, 3262.992
466.5953, 3255.101
467.0775, 3280.622
467.5596, 3295.353
468.0417, 3283.639
468.5238, 3267.866
469.0059, 3261.640
469.4880, 3263.216
469.9702, 3261.934
470.4523, 3251.046
470.9344, 3234.660
471.4165, 3215.994
471.8986, 3195.323
472.3807, 3183.301
472.8629, 3186.763
473.3450, 3199.226
473.8271, 3207.835
474.3092, 3211.968
474.7913, 3215.245
475.2734, 3219.583
475.7556, 3222.410
476.2377, 3220.380
476.7198, 3214.180
477.2019, 3207.786
477.6840, 3204.073
478.1661, 3202.410
478.6483, 3199.774
479.1304, 3196.626
479.6125, 3191.536
480.0946, 3179.237
480.5767, 3168.649
481.0588, 3169.917
481.5410, 3182.592
482.0231, 3193.568
482.5052, 3187.829
482.9873, 3171.979
483.4694, 3170.215
483.9515, 3185.976
484.4337, 3201.162
484.9158, 3202.834
485.3979, 3199.418
485.8800, 3211.591
486.3621, 3253.733
486.8442, 3278.405
487.3264, 3248.181
487.8085, 3199.711
488.2906, 3182.091
488.7727, 3200.680
489.2548, 3226.477
489.7369, 3235.107
490.2191, 3227.705
490.7012, 3221.672
491.1833, 3215.582
491.6654, 3212.850
492.1475, 3214.152
492.6296, 3218.878
493.1118, 3227.412
493.5939, 3239.446
494.0760, 3251.998
494.5581, 3262.501
495.0402, 3271.015
495.5223, 3277.441
496.0045, 3280.540
496.4866, 3284.841
496.9687, 3290.781
497.4508, 3300.366
497.9329, 3317.927
498.4150, 3347.179
498.8972, 3377.316
499.3793, 3403.623
499.8614, 3427.184
500.3435, 3447.709
500.8256, 3465.701
501.3077, 3486.991
501.7899, 3517.312
502.2720, 3556.274
502.7541, 3596.363
503.2362, 3628.129
503.7183, 3672.768
504.2004, 3741.494
504.6826, 3820.596
505.1647, 3895.228
505.6468, 3962.626
506.1289, 4030.370
506.6110, 4107.298
507.0931, 4192.187
507.5753, 4274.235
508.0574, 4349.033
508.5395, 4432.190
509.0216, 4537.304
509.5037, 4655.365
509.9858, 4766.798
510.4680, 4863.179
510.9501, 4969.219
511.4322, 5090.394
511.9143, 5230.707
512.3964, 5397.503
512.8785, 5590.951
513.3607, 5801.006
513.8428, 6017.402
514.3249, 6241.254
514.8070, 6488.125
515.2891, 6777.123
515.7712, 7065.500
516.2534, 7369.188
516.7355, 7657.871
517.2176, 7930.952
517.6997, 8174.248
518.1818, 8322.088
518.6639, 8309.228
519.1461, 8152.106
519.6282, 7900.976
520.1103, 7545.129
520.5924, 7142.481
521.0745, 6694.112
521.5566, 6231.126
522.0388, 5798.667
522.5209, 5387.424
523.0030, 5041.590
523.4851, 4786.668
523.9672, 4598.005
524.4493, 4459.284
524.9315, 4362.385
525.4136, 4285.663
525.8957, 4213.718
526.3778, 4150.287
526.8599, 4111.071
527.3420, 4105.340
527.8242, 4108.437
528.3063, 4117.827
528.7884, 4133.845
529.2705, 4158.154
529.7526, 4189.946
530.2347, 4225.489
530.7169, 4270.886
531.1990, 4314.116
531.6811, 4333.134
532.1632, 4328.059
532.6453, 4304.522
533.1274, 4258.537
533.6096, 4203.756
534.0917, 4164.716
534.5738, 4146.048
535.0559, 4118.755
535.5380, 4073.265
536.0201, 4024.082
536.5022, 3971.012
536.9843, 3922.489
537.4664, 3899.424
537.9485, 3912.826
538.4307, 3942.858
538.9128, 3946.658
539.3949, 3913.965
539.8770, 3899.944
540.3591, 3923.476
540.8412, 3950.577
541.3234, 3957.967
541.8055, 3954.742
542.2876, 3965.076
542.7697, 4005.754
543.2518, 4049.019
543.7339, 4070.340
544.2161, 4074.558
544.6982, 4073.276
545.1803, 4068.867
545.6624, 4066.141
546.1445, 4071.105
546.6266, 4084.514
547.1088, 4092.456
547.5909, 4094.238
548.0730, 4091.949
548.5551, 4080.861
549.0372, 4068.498
549.5193, 4065.528
550.0015, 4073.471
550.4836, 4080.743
550.9657, 4070.917
551.4478, 4048.398
551.9299, 4044.579
552.4120, 4067.052
552.8942, 4081.257
553.3763, 4064.775
553.8584, 4031.247
554.3405, 4007.644
554.8226, 3995.458
555.3047, 3988.771
555.7869, 3995.549
556.2690, 4000.425
556.7511, 3983.286
557.2332, 3948.115
557.7153, 3917.128
558.1974, 3904.533
558.6796, 3903.937
559.1617, 3896.161
559.6438, 3878.613
560.1259, 3860.647
560.6080, 3831.783
561.0901, 3812.927
561.5723, 3822.272
562.0544, 3852.207
562.5365, 3877.111
563.0186, 3882.909
563.5007, 3883.039
563.9828, 3889.888
564.4650, 3903.115
564.9471, 3920.933
565.4292, 3942.362
565.9113, 3971.140
566.3934, 4012.389
566.8755, 4067.276
567.3577, 4121.468
567.8398, 4179.240
568.3219, 4231.355
568.8040, 4266.003
569.2861, 4297.979
569.7682, 4342.880
570.2504, 4404.620
570.7325, 4480.433
571.2146, 4573.003
571.6967, 4678.023
572.1788, 4775.143
572.6609, 4862.626
573.1431, 4949.777
573.6252, 5039.684
574.1073, 5133.792
574.5894, 5235.420
575.0715, 5346.059
575.5536, 5458.932
576.0358, 5576.414
576.5179, 5693.122
577.0000, 5799.501
577.4821, 5900.614
577.9642, 6011.514
578.4464, 6140.155
578.9285, 6280.914
579.4106, 6421.803
579.8927, 6562.855
580.3748, 6703.834
580.8569, 6837.926
581.3391, 6979.788
581.8212, 7142.270
582.3033, 7317.016
582.7854, 7485.487
583.2675, 7649.838
583.7496, 7795.746
584.2318, 7911.003
584.7139, 8000.688
585.1960, 8071.136
585.6781, 8123.884
586.1602, 8163.437
586.6423, 8194.617
587.1245, 8215.050
587.6066, 8204.794
588.0887, 8138.568
588.5708, 8080.620
589.0529, 8036.505
589.5350, 8004.587
590.0172, 7984.270
590.4993, 7975.161
590.9814, 7975.837
591.4635, 7981.590
591.9456, 8000.006
592.4277, 8043.245
592.9099, 8109.775
593.3920, 8191.535
593.8741, 8287.646
594.3562, 8392.606
594.8383, 8504.820
595.3204, 8631.053
595.8026, 8712.254
596.2847, 8769.012
596.7668, 8763.637
597.2489, 8676.354
597.7310, 8524.652
598.2131, 8322.052
598.6953, 8074.205
599.1774, 7799.753
599.6595, 7506.540
600.1416, 7199.591
600.6237, 6892.026
601.1058, 6583.020
601.5880, 6284.575
602.0701, 5996.529
602.5522, 5729.399
603.0343, 5504.094
603.5164, 5326.177
603.9985, 5158.970
604.4807, 4998.416
604.9628, 4849.732
605.4449, 4717.563
605.9270, 4599.854
606.4091, 4490.252
606.8912, 4387.159
607.3734, 4292.317
607.8555, 4210.776
608.3376, 4142.334
608.8197, 4073.603
609.3018, 4000.310
609.7839, 3936.197
610.2661, 3894.447
610.7482, 3865.187
611.2303, 3826.901
611.7124, 3774.852
612.1945, 3725.437
612.6766, 3680.182
613.1588, 3642.362
613.6409, 3620.757
614.1230, 3609.845
614.6051, 3591.882
615.0872, 3556.433
615.5693, 3513.954
616.0515, 3485.891
616.5336, 3474.735
617.0157, 3461.584
617.4978, 3443.125
617.9799, 3425.015
618.4620, 3410.806
618.9442, 3399.334
619.4263, 3389.017
619.9084, 3381.889
620.3905, 3371.200
620.8726, 3351.669
621.3547, 3328.084
621.8369, 3306.580
622.3190, 3287.336
622.8011, 3267.066
623.2832, 3243.701
623.7653, 3217.528
624.2474, 3186.162
624.7296, 3142.667
625.2117, 3119.286
625.6938, 3137.991
626.1759, 3157.295
626.6580, 3145.286
627.1401, 3114.466
627.6223, 3099.485
628.1044, 3119.610
628.5865, 3138.250
629.0686, 3129.675
629.5507, 3107.620
630.0328, 3089.284
630.5150, 3078.761
630.9971, 3081.886
631.4792, 3106.181
631.9613, 3141.619
632.4434, 3145.516
632.9255, 3100.403
633.4077, 3069.336
633.8898, 3066.735
634.3719, 3075.167
634.8539, 3089.195
635.3361, 3105.813
635.8182, 3116.730
636.3003, 3118.353
636.7824, 3115.442
637.2645, 3111.511
637.7466, 3105.072
638.2288, 3091.326
638.7109, 3070.626
639.1930, 3051.734
639.6751, 3042.112
640.1572, 3039.291
640.6393, 3030.909
641.1215, 3012.600
641.6036, 2999.377
642.0857, 3004.145
642.5678, 3004.743
643.0499, 2979.836
643.5320, 2938.249
644.0142, 2911.652
644.4963, 2920.251
644.9784, 2931.318
645.4605, 2921.628
645.9426, 2899.495
646.4247, 2876.058
646.9069, 2854.487
647.3890, 2839.123
647.8711, 2833.955
648.3532, 2837.114
648.8353, 2840.695
649.3174, 2845.275
649.7996, 2848.972
650.2817, 2857.282
650.7638, 2858.737
651.2459, 2838.362
651.7280, 2804.484
652.2101, 2784.495
652.6923, 2792.663
653.1744, 2806.813
653.6565, 2814.475
654.1386, 2819.018
654.6207, 2826.052
655.1028, 2835.952
655.5850, 2844.744
656.0671, 2849.481
656.5492, 2850.782
657.0313, 2850.032
657.5134, 2845.693
657.9955, 2844.806
658.4777, 2851.319
658.9598, 2858.111
659.4419, 2858.852
659.9240, 2856.010
660.4061, 2856.588
660.8882, 2860.427
661.3704, 2870.330
661.8525, 2897.077
662.3346, 2925.380
662.8167, 2928.417
663.2988, 2910.501
663.7809, 2906.229
664.2631, 2940.741
664.7452, 2995.119
665.2273, 3021.624
665.7094, 3016.518
666.1915, 3007.396
666.6736, 2992.660
667.1558, 2982.150
667.6379, 2983.438
668.1200, 2994.142
668.6021, 3009.560
669.0842, 3033.681
669.5663, 3054.168
670.0485, 3060.481
670.5306, 3066.163
671.0127, 3086.304
671.4948, 3117.522
671.9769, 3146.380
672.4590, 3165.371
672.9412, 3179.045
673.4233, 3193.669
673.9054, 3209.285
674.3875, 3228.323
674.8696, 3251.701
675.3517, 3276.873
675.8339, 3304.649
676.3160, 3332.302
676.7981, 3350.906
677.2802, 3352.627
677.7623, 3365.800
678.2444, 3411.612
678.7266, 3453.494
679.2087, 3465.423
679.6908, 3456.297
680.1729, 3444.625
680.6550, 3437.482
681.1371, 3434.557
681.6193, 3437.083
682.1014, 3443.522
682.5835, 3448.534
683.0656, 3451.795
683.5477, 3455.129
684.0298, 3462.675
684.5120, 3464.618
684.9941, 3439.313
685.4762, 3369.347
685.9583, 3330.463
686.4404, 3345.416
686.9225, 3363.043
687.4047, 3370.629
687.8868, 3367.679
688.3689, 3349.311
688.8510, 3316.135
689.3331, 3291.413
689.8152, 3304.492
690.2974, 3328.885
690.7795, 3317.869
691.2616, 3278.470
691.7437, 3248.612
692.2258, 3241.451
692.7079, 3246.045
693.1901, 3250.454
693.6722, 3254.839
694.1543, 3252.005
694.6364, 3236.109
695.1185, 3222.464
695.6006, 3213.600
696.0828, 3208.918
696.5649, 3210.824
697.0470, 3217.785
697.5291, 3219.797
698.0112, 3206.251
698.4933, 3193.470
698.9755, 3195.392
699.4576, 3205.063
699.9397, 3211.085
700.4218, 3211.377
700.9039, 3210.000
701.3860, 3210.295
701.8682, 3211.287
702.3503, 3210.495
702.8324, 3208.615
703.3145, 3199.976
703.7966, 3178.568
704.2787, 3158.448
704.7609, 3152.733
705.2430, 3157.229
705.7251, 3156.932
706.2072, 3151.564
706.6893, 3140.901
707.1714, 3117.495
707.6536, 3094.771
708.1357, 3085.518
708.6178, 3086.444
709.0999, 3087.983
709.5820, 3086.243
710.0641, 3078.450
710.5463, 3059.115
711.0284, 3030.460
711.5105, 2998.218
711.9926, 2962.165
712.4747, 2938.678
712.9568, 2939.580
713.4390, 2952.446
713.9211, 2953.031
714.4032, 2937.518
714.8853, 2921.881
715.3674, 2901.754
715.8495, 2886.571
716.3317, 2885.814
716.8138, 2888.123
717.2959, 2877.289
717.7780, 2851.269
718.2601, 2829.188
718.7422, 2825.144
719.2244, 2827.768
719.7065, 2824.312
720.1886, 2817.399
720.6707, 2817.175
721.1528, 2825.796
721.6349, 2830.476
722.1171, 2816.269
722.5992, 2787.313
723.0813, 2772.315
723.5634, 2774.297
724.0455, 2780.438
724.5276, 2792.616
725.0098, 2802.808
725.4919, 2801.735
725.9740, 2792.293
726.4561, 2786.032
726.9382, 2783.543
727.4203, 2784.955
727.9025, 2795.855
728.3846, 2806.408
728.8667, 2808.659
729.3488, 2802.515
729.8309, 2789.343
730.3130, 2768.625
730.7952, 2748.841
731.2773, 2743.159
731.7594, 2747.733
732.2415, 2745.679
732.7236, 2735.314
733.2057, 2734.619
733.6878, 2756.426
734.1699, 2785.248
734.6520, 2789.858
735.1342, 2760.589
735.6163, 2742.740
736.0984, 2747.513
736.5805, 2750.067
737.0626, 2736.744
737.5447, 2721.492
738.0269, 2722.099
738.5090, 2739.917
738.9911, 2755.200
739.4732, 2761.511
739.9553, 2760.404
740.4374, 2747.885
740.9196, 2730.634
741.4017, 2720.550
741.8838, 2719.710
742.3659, 2721.770
742.8480, 2721.229
743.3301, 2720.163
743.8123, 2725.292
744.2944, 2736.957
744.7765, 2748.890
745.2586, 2761.895
745.7407, 2768.912
746.2228, 2761.257
746.7050, 2743.856
747.1871, 2737.029
747.6692, 2747.259
748.1513, 2757.385
748.6334, 2766.865
749.1155, 2776.093
749.5977, 2784.817
750.0798, 2793.579
750.5619, 2804.038
751.0440, 2816.869
751.5261, 2827.472
752.0082, 2828.650
752.4904, 2828.293
752.9725, 2838.542
753.4546, 2856.933
753.9367, 2872.992
754.4188, 2883.149
754.9009, 2893.603
755.3831, 2911.857
755.8652, 2936.908
756.3473, 2960.832
756.8294, 2985.258
757.3115, 3000.882
757.7936, 2999.926
758.2758, 2997.093
758.7579, 3008.997
759.2400, 3032.912
759.7221, 3044.772
760.2042, 3033.270
760.6863, 3024.981
761.1685, 3021.177
761.6506, 3024.981
762.1327, 3044.104
762.6148, 3072.059
763.0969, 3094.795
763.5790, 3107.170
764.0612, 3111.676
764.5433, 3107.699
765.0254, 3098.592
765.5075, 3088.157
765.9896, 3077.829
766.4717, 3073.545
766.9539, 3078.033
767.4360, 3083.316
767.9181, 3077.888
768.4002, 3062.015
768.8823, 3048.002
769.3644, 3034.377
769.8466, 3027.482
770.3287, 3034.117
770.8108, 3042.251
771.2929, 3034.245
771.7750, 3012.964
772.2571, 3010.663
772.7393, 3050.708
773.2214, 3080.046
773.7035, 3079.668
774.1856, 3069.956
774.6677, 3067.651
775.1498, 3070.276
775.6320, 3065.631
776.1141, 3047.353
776.5962, 3028.098
777.0783, 3019.296
777.5604, 3017.250
778.0425, 3016.725
778.5247, 3016.898
779.0068, 3016.618
779.4889, 3015.413
779.9710, 3013.433
780.4531, 3011.433
780.9352, 3009.226
781.4174, 3002.083
781.8995, 2989.187
782.3816, 2974.015
782.8637, 2954.758
783.3458, 2937.711
783.8279, 2929.994
784.3101, 2931.129
784.7922, 2931.883
785.2743, 2935.760
785.7564, 2934.315
786.2385, 2922.274
786.7206, 2908.052
787.2028, 2897.012
787.6849, 2888.670
788.1670, 2881.507
788.6491, 2875.907
789.1312, 2866.650
789.6133, 2842.841
790.0955, 2818.042
790.5776, 2813.302
791.0597, 2823.502
791.5418, 2831.460
792.0239, 2830.828
792.5060, 2822.626
792.9882, 2805.911
793.4703, 2783.220
793.9524, 2766.148
794.4345, 2754.808
794.9166, 2749.469
795.3987, 2752.184
795.8809, 2755.087
796.3630, 2751.456
796.8451, 2742.013
797.3272, 2731.152
797.8093, 2721.402
798.2914, 2705.980
798.7736, 2671.859
799.2557, 2645.731
799.7378, 2648.889
800.2199, 2665.792
800.7020, 2668.833
801.1841, 2651.349
801.6663, 2634.775
802.1484, 2627.112
802.6305, 2624.881
803.1126, 2629.387
803.5947, 2635.930
804.0768, 2637.650
804.5590, 2632.852
805.0411, 2622.441
805.5232, 2604.040
806.0053, 2584.970
806.4874, 2580.985
806.9695, 2588.900
807.4517, 2592.215
807.9338, 2588.197
808.4159, 2585.365
808.8980, 2590.599
809.3801, 2597.316
809.8622, 2586.689
810.3444, 2550.817
810.8265, 2532.892
811.3086, 2542.684
811.7907, 2551.663
812.2728, 2544.623
812.7549, 2533.445
813.2371, 2535.847
813.7192, 2552.465
814.2013, 2562.859
814.6834, 2565.312
815.1655, 2561.247
815.6476, 2544.132
816.1298, 2526.078
816.6119, 2518.180
817.0940, 2519.388
817.5761, 2523.021
818.0582, 2527.711
818.5403, 2529.894
819.0225, 2521.976
819.5046, 2512.772
819.9867, 2519.351
820.4688, 2536.149
820.9509, 2540.605
821.4330, 2524.426
821.9152, 2503.894
822.3973, 2498.374
822.8794, 2504.391
823.3615, 2509.023
823.8436, 2512.292
824.3257, 2509.373
824.8079, 2497.329
825.2900, 2488.501
825.7721, 2495.590
826.2542, 2513.464
826.7363, 2516.954
827.2184, 2495.541
827.7006, 2485.516
828.1827, 2498.468
828.6648, 2510.260
829.1469, 2505.529
829.6290, 2494.268
830.1111, 2493.180
830.5933, 2505.654
831.0754, 2507.824
831.5575, 2484.034
832.0396, 2462.237
832.5217, 2453.695
833.0038, 2454.254
833.4859, 2464.867
833.9680, 2480.718
834.4501, 2484.460
834.9323, 2460.273
835.4144, 2438.163
835.8965, 2452.800
836.3786, 2482.712
836.8607, 2495.539
837.3428, 2491.171
837.8250, 2481.223
838.3071, 2470.805
838.7892, 2462.412
839.2713, 2458.872
839.7534, 2460.038
840.2355, 2466.923
840.7177, 2479.484
841.1998, 2488.043
841.6819, 2489.679
842.1640, 2489.703
842.6461, 2493.872
843.1282, 2499.461
843.6104, 2492.456
844.0925, 2464.360
844.5746, 2448.674
845.0567, 2454.056
845.5388, 2461.587
846.0209, 2461.465
846.5031, 2457.803
846.9852, 2456.388
847.4673, 2456.663
847.9494, 2462.947
848.4315, 2484.070
848.9136, 2500.705
849.3958, 2505.678
849.8779, 2503.882
850.3600, 2498.545
850.8421, 2490.852
851.3242, 2482.137
851.8063, 2471.419
852.2885, 2463.661
852.7706, 2460.736
853.2527, 2463.389
853.7348, 2477.338
854.2169, 2496.713
854.6990, 2507.023
855.1812, 2504.020
855.6633, 2498.740
856.1454, 2502.212
856.6275, 2510.105
857.1096, 2512.832
857.5917, 2511.949
858.0739, 2515.090
858.5560, 2523.494
859.0381, 2530.123
859.5202, 2529.595
860.0023, 2525.775
860.4844, 2527.888
860.9666, 2536.430
861.4487, 2543.293
861.9308, 2548.089
862.4129, 2551.359
862.8950, 2551.999
863.3771, 2553.679
863.8593, 2561.942
864.3414, 2576.717
864.8235, 2587.468
865.3056, 2594.810
865.7877, 2596.910
866.2698, 2582.252
866.7520, 2573.516
867.2341, 2590.411
867.7162, 2621.004
868.1983, 2639.133
868.6804, 2639.528
869.1625, 2638.307
869.6447, 2641.199
870.1268, 2640.714
870.6089, 2629.031
871.0910, 2614.399
871.5731, 2606.997
872.0552, 2607.200
872.5374, 2608.410
873.0195, 2606.454
873.5016, 2606.531
873.9837, 2616.692
874.4658, 2628.307
874.9479, 2627.197
875.4301, 2617.638
875.9122, 2614.891
876.3943, 2624.593
876.8764, 2637.837
877.3585, 2647.097
877.8406, 2652.665
878.3228, 2655.461
878.8049, 2655.154
879.2870, 2648.260
879.7691, 2634.763
880.2512, 2624.779
880.7333, 2625.953
881.2155, 2633.417
881.6976, 2637.427
882.1797, 2638.013
882.6618, 2634.040
883.1439, 2624.165
883.6260, 2619.996
884.1082, 2627.151
884.5903, 2638.302
885.0724, 2644.209
885.5545, 2645.561
886.0366, 2653.545
886.5187, 2673.481
887.0009, 2686.613
887.4830, 2687.700
887.9651, 2685.716
888.4472, 2684.395
888.9293, 2684.201
889.4114, 2686.349
889.8936, 2691.311
890.3757, 2696.479
890.8578, 2702.251
891.3399, 2707.599
891.8220, 2710.850
892.3041, 2714.730
892.7863, 2722.619
893.2684, 2733.450
893.7505, 2742.077
894.2326, 2744.109
894.7147, 2751.096
895.1968, 2778.342
895.6790, 2801.501
896.1611, 2795.595
896.6432, 2776.232
897.1253, 2770.642
897.6074, 2783.485
898.0895, 2797.925
898.5717, 2804.613
899.0538, 2808.078
899.5359, 2811.746
900.0180, 2815.172
900.5001, 2818.211
900.9822, 2820.386
901.4644, 2819.805
901.9465, 2815.638
902.4286, 2811.618
902.9107, 2810.026
903.3928, 2812.278
903.8749, 2825.039
904.3571, 2844.554
904.8392, 2857.837
905.3213, 2861.699
905.8034, 2855.629
906.2855, 2837.761
906.7676, 2816.065
907.2498, 2807.508
907.7319, 2810.819
908.2140, 2813.757
908.6961, 2815.742
909.1782, 2816.442
909.6603, 2815.390
910.1425, 2815.148
910.6246, 2818.805
911.1067, 2825.590
911.5888, 2831.347
912.0709, 2836.755
912.5530, 2837.798
913.0352, 2834.298
913.5173, 2824.731
913.9994, 2804.306
914.4815, 2782.586
914.9636, 2777.945
915.4457, 2793.567
915.9279, 2795.619
916.4100, 2776.409
916.8921, 2757.321
917.3742, 2739.699
917.8563, 2726.165
918.3384, 2720.190
918.8206, 2719.530
919.3027, 2719.272
919.7848, 2723.224
920.2669, 2716.621
920.7490, 2691.724
921.2311, 2664.611
921.7133, 2634.182
922.1954, 2609.048
922.6775, 2601.679
923.1596, 2608.247
923.6417, 2608.406
924.1238, 2592.992
924.6060, 2579.865
925.0881, 2578.088
925.5702, 2576.820
926.0523, 2565.161
926.5344, 2551.151
927.0165, 2550.405
927.4987, 2563.417
927.9808, 2569.029
928.4629, 2549.865
928.9450, 2530.074
929.4271, 2526.063
929.9092, 2528.128
930.3914, 2526.540
930.8734, 2521.884
931.3555, 2519.078
931.8376, 2519.560
932.3198, 2517.840
932.8019, 2505.141
933.2840, 2492.334
933.7661, 2491.129
934.2482, 2498.454
934.7303, 2513.496
935.2125, 2532.181
935.6946, 2541.942
936.1767, 2536.405
936.6588, 2524.109
937.1409, 2511.196
937.6230, 2499.854
938.1052, 2493.494
938.5873, 2492.527
939.0694, 2501.081
939.5515, 2518.090
940.0336, 2530.702
940.5157, 2529.959
940.9979, 2520.161
941.4800, 2502.249
941.9621, 2481.582
942.4442, 2483.048
942.9263, 2504.889
943.4084, 2522.246
943.8906, 2527.174
944.3727, 2530.278
944.8548, 2541.936
945.3369, 2557.519
945.8190, 2562.770
946.3011, 2558.494
946.7833, 2560.328
947.2654, 2569.918
947.7475, 2574.051
948.2296, 2566.367
948.7117, 2556.141
949.1938, 2553.999
949.6760, 2559.284
950.1581, 2570.007
950.6402, 2587.622
951.1223, 2596.370
951.6044, 2592.410
952.0865, 2587.485
952.5687, 2585.266
953.0508, 2591.716
953.5329, 2618.846
954.0150, 2666.459
954.4971, 2698.841
954.9792, 2713.065
955.4614, 2721.407
955.9435, 2723.043
956.4256, 2725.313
956.9077, 2730.674
957.3898, 2742.151
957.8719, 2768.340
958.3541, 2813.722
958.8362, 2841.302
959.3183, 2838.860
959.8004, 2845.236
960.2825, 2872.974
960.7646, 2905.399
961.2468, 2929.402
961.7289, 2949.431
962.2110, 2978.808
962.6931, 3022.713
963.1752, 3058.806
963.6573, 3070.638
964.1395, 3099.974
964.6216, 3172.146
965.1037, 3251.799
965.5858, 3302.841
966.0679, 3336.303
966.5500, 3394.994
967.0322, 3496.199
967.5143, 3584.174
967.9964, 3635.329
968.4785, 3700.897
968.9606, 3795.753
969.4427, 3913.068
969.9249, 4056.738
970.4070, 4219.068
970.8891, 4363.593
971.3712, 4464.382
971.8533, 4590.490
972.3354, 4749.824
972.8176, 4935.626
973.2997, 5156.026
973.7818, 5393.820
974.2639, 5626.784
974.7460, 5856.778
975.2281, 6112.152
975.7103, 6413.991
976.1924, 6714.174
976.6745, 6988.830
977.1566, 7274.074
977.6387, 7596.683
978.1208, 7937.256
978.6030, 8265.918
979.0851, 8581.451
979.5672, 8902.973
980.0493, 9245.948
980.5314, 9579.006
981.0135, 9889.873
981.4957, 10190.58
981.9778, 10502.79
982.4599, 10802.47
982.9420, 11055.36
983.4241, 11257.88
983.9063, 11429.17
984.3884, 11580.50
984.8705, 11692.81
985.3526, 11758.00
985.8347, 11783.10
986.3168, 11774.77
986.7990, 11728.84
987.2811, 11629.21
987.7632, 11476.15
988.2453, 11317.65
988.7274, 11157.16
989.2095, 11011.98
989.6917, 10893.89
990.1738, 10789.48
990.6559, 10678.25
991.1380, 10577.62
991.6201, 10521.40
992.1022, 10514.91
992.5844, 10526.14
993.0665, 10538.33
993.5486, 10570.56
994.0307, 10615.04
994.5128, 10698.35
994.9949, 10860.41
995.4771, 11071.92
995.9592, 11278.60
996.4413, 11468.59
996.9234, 11670.30
997.4055, 11893.24
997.8876, 12134.66
998.3698, 12391.42
998.8519, 12667.37
999.3340, 12975.35
999.8161, 13303.26
1000.298, 13641.24
1000.780, 13985.23
1001.262, 14282.87
1001.745, 14501.68
1002.227, 14682.21
1002.709, 14856.13
1003.191, 14992.31
1003.673, 15071.63
1004.155, 15087.05
1004.637, 15031.22
1005.119, 14902.18
1005.602, 14698.36
1006.084, 14417.60
1006.566, 14062.91
1007.048, 13614.28
1007.530, 13110.48
1008.012, 12568.28
1008.494, 12005.82
1008.976, 11434.43
1009.458, 10860.40
1009.941, 10311.89
1010.423, 9805.832
1010.905, 9322.777
1011.387, 8838.547
1011.869, 8384.057
1012.351, 7983.452
1012.833, 7630.436
1013.315, 7316.489
1013.797, 7038.727
1014.280, 6767.868
1014.762, 6476.853
1015.244, 6210.602
1015.726, 5995.456
1016.208, 5804.902
1016.690, 5623.885
1017.172, 5449.397
1017.654, 5276.485
1018.137, 5105.578
1018.619, 4961.210
1019.101, 4870.582
1019.583, 4782.600
1020.065, 4674.500
1020.547, 4565.261
1021.029, 4463.936
1021.511, 4373.092
1021.993, 4298.060
1022.476, 4238.461
1022.958, 4178.466
1023.440, 4108.441
1023.922, 4044.145
1024.404, 3997.419
1024.886, 3950.283
1025.368, 3888.946
1025.850, 3820.406
1026.333, 3755.395
1026.815, 3695.018
1027.297, 3634.359
1027.779, 3562.455
1028.261, 3503.816
1028.743, 3476.577
1029.225, 3449.878
1029.707, 3401.930
1030.189, 3347.069
1030.672, 3309.498
1031.154, 3287.879
1031.636, 3249.717
1032.118, 3169.828
1032.600, 3105.266
1033.082, 3078.018
1033.564, 3051.148
1034.046, 3001.176
1034.528, 2947.378
1035.011, 2915.337
1035.493, 2902.282
1035.975, 2877.504
1036.457, 2826.753
1036.939, 2786.357
1037.421, 2762.825
1037.903, 2742.980
1038.385, 2725.477
1038.868, 2706.834
1039.350, 2681.347
1039.832, 2651.359
1040.314, 2629.381
1040.796, 2619.549
1041.278, 2608.294
1041.760, 2596.384
1042.242, 2581.575
1042.724, 2559.912
1043.207, 2539.313
1043.689, 2527.246
1044.171, 2521.162
1044.653, 2512.628
1045.135, 2500.217
1045.617, 2490.880
1046.099, 2485.533
1046.581, 2481.126
1047.063, 2477.455
1047.546, 2473.354
1048.028, 2467.546
1048.510, 2461.223
1048.992, 2457.514
1049.474, 2456.947
1049.956, 2452.561
1050.438, 2442.204
1050.920, 2438.927
1051.403, 2449.089
1051.885, 2451.173
1052.367, 2428.376
1052.849, 2398.113
1053.331, 2390.970
1053.813, 2405.400
1054.295, 2417.147
1054.777, 2426.386
1055.260, 2431.463
1055.742, 2432.518
1056.224, 2423.633
1056.706, 2400.518
1057.188, 2374.440
1057.670, 2359.700
1058.152, 2354.905
1058.634, 2357.589
1059.116, 2366.384
1059.599, 2362.974
1060.081, 2346.599
1060.563, 2338.071
1061.045, 2345.588
1061.527, 2359.882
1062.009, 2374.254
1062.491, 2383.702
1062.973, 2371.159
1063.455, 2345.027
1063.938, 2336.282
1064.420, 2343.404
1064.902, 2349.218
1065.384, 2348.249
1065.866, 2340.954
1066.348, 2326.138
1066.830, 2311.124
1067.312, 2304.735
1067.795, 2305.822
1068.277, 2319.704
1068.759, 2337.450
1069.241, 2333.374
1069.723, 2308.034
1070.205, 2289.179
1070.687, 2292.088
1071.169, 2299.910
1071.651, 2296.814
1072.134, 2291.364
1072.616, 2295.950
1073.098, 2302.522
1073.580, 2292.860
1074.062, 2273.552
1074.544, 2271.716
1075.026, 2297.245
1075.508, 2321.411
1075.990, 2330.077
1076.473, 2329.293
1076.955, 2312.361
1077.437, 2297.050
1077.919, 2304.280
1078.401, 2325.101
1078.883, 2340.487
1079.365, 2346.945
1079.847, 2350.350
1080.329, 2344.905
1080.812, 2347.639
1081.294, 2372.531
1081.776, 2397.221
1082.258, 2405.999
1082.740, 2408.324
1083.222, 2416.266
1083.704, 2430.314
1084.186, 2447.258
1084.669, 2472.973
1085.151, 2490.671
1085.633, 2494.154
1086.115, 2497.242
1086.597, 2505.762
1087.079, 2513.644
1087.561, 2515.631
1088.043, 2512.732
1088.526, 2508.207
1089.008, 2502.380
1089.490, 2493.749
1089.972, 2483.826
1090.454, 2465.075
1090.936, 2431.681
1091.418, 2401.879
1091.900, 2388.407
1092.382, 2383.369
1092.865, 2372.457
1093.347, 2357.115
1093.829, 2356.712
1094.311, 2372.235
1094.793, 2370.771
1095.275, 2347.640
1095.757, 2331.758
1096.239, 2336.161
1096.721, 2345.402
1097.204, 2343.695
1097.686, 2333.611
1098.168, 2316.940
1098.650, 2297.698
1099.132, 2294.329
1099.614, 2304.116
1100.096, 2309.213
1100.578, 2305.135
1101.061, 2298.373
1101.543, 2292.506
1102.025, 2289.724
1102.507, 2296.820
1102.989, 2305.380
1103.471, 2299.685
1103.953, 2287.841
1104.435, 2287.266
1104.917, 2296.516
1105.400, 2301.150
1105.882, 2295.611
1106.364, 2288.208
1106.846, 2283.034
1107.328, 2279.281
1107.810, 2272.858
1108.292, 2270.744
1108.774, 2287.214
1109.256, 2309.825
1109.739, 2311.359
1110.221, 2289.571
1110.703, 2279.497
1111.185, 2301.381
1111.667, 2319.125
1112.149, 2318.914
1112.631, 2320.393
1113.113, 2337.682
1113.596, 2357.622
1114.078, 2363.972
1114.560, 2360.530
1115.042, 2362.676
1115.524, 2369.876
1116.006, 2384.239
1116.488, 2404.476
1116.970, 2436.912
1117.453, 2492.619
1117.935, 2537.191
1118.417, 2542.396
1118.899, 2535.504
1119.381, 2564.419
1119.863, 2625.595
1120.345, 2680.199
1120.827, 2728.011
1121.309, 2776.361
1121.792, 2825.792
1122.274, 2886.205
1122.756, 2961.635
1123.238, 3040.490
1123.720, 3111.288
1124.202, 3181.634
1124.684, 3264.616
1125.166, 3359.373
1125.648, 3462.835
1126.131, 3575.271
1126.613, 3702.566
1127.095, 3841.185
1127.577, 3971.118
1128.059, 4083.334
1128.541, 4169.670
1129.023, 4229.375
1129.505, 4252.141
1129.988, 4225.365
1130.470, 4158.512
1130.952, 4051.585
1131.434, 3917.530
1131.916, 3775.755
1132.398, 3631.130
1132.880, 3496.284
1133.362, 3366.624
1133.844, 3259.272
1134.327, 3187.673
1134.809, 3129.044
1135.291, 3069.472
1135.773, 3017.611
1136.255, 2987.575
1136.737, 2974.782
1137.219, 2955.474
1137.701, 2922.850
1138.183, 2907.788
1138.666, 2909.171
1139.148, 2934.827
1139.630, 3000.507
1140.112, 3053.844
1140.594, 3063.314
1141.076, 3046.778
1141.558, 3031.499
1142.040, 3013.563
1142.523, 2967.672
1143.005, 2894.688
1143.487, 2822.768
1143.969, 2754.038
1144.451, 2684.031
1144.933, 2612.397
1145.415, 2556.790
1145.897, 2533.866
1146.380, 2518.667
1146.862, 2473.326
1147.344, 2413.160
1147.826, 2360.843
1148.308, 2317.381
1148.790, 2283.051
1149.272, 2257.689
1149.754, 2242.617
1150.236, 2237.984
1150.719, 2233.594
1151.201, 2224.338
1151.683, 2212.447
1152.165, 2197.426
1152.647, 2181.981
1153.129, 2167.168
1153.611, 2153.779
1154.093, 2141.877
1154.575, 2131.948
1155.058, 2127.077
1155.540, 2130.641
1156.022, 2131.497
1156.504, 2125.494
1156.986, 2123.604
1157.468, 2132.320
1157.950, 2137.650
1158.432, 2127.466
1158.915, 2114.785
1159.397, 2123.403
1159.879, 2148.654
1160.361, 2148.751
1160.843, 2122.910
1161.325, 2103.319
1161.807, 2092.641
1162.289, 2093.090
1162.771, 2105.033
1163.254, 2118.445
1163.736, 2126.760
1164.218, 2127.506
1164.700, 2109.910
1165.182, 2087.116
1165.664, 2086.914
1166.146, 2098.255
1166.628, 2097.002
1167.110, 2085.184
1167.593, 2079.594
1168.075, 2084.856
1168.557, 2089.533
1169.039, 2084.193
1169.521, 2082.003
1170.003, 2100.168
1170.485, 2111.767
1170.967, 2090.817
1171.450, 2059.308
1171.932, 2042.435
1172.414, 2038.544
1172.896, 2033.886
1173.378, 2024.252
1173.860, 2030.440
1174.342, 2065.771
1174.824, 2085.645
1175.307, 2079.389
1175.789, 2066.992
1176.271, 2056.438
1176.753, 2049.720
1177.235, 2050.157
1177.717, 2054.625
1178.199, 2050.852
1178.681, 2040.945
1179.163, 2042.929
1179.646, 2055.151
1180.128, 2063.491
1180.610, 2065.483
1181.092, 2068.917
1181.574, 2077.891
1182.056, 2079.932
1182.538, 2051.304
1183.020, 2022.763
1183.502, 2033.259
1183.984, 2056.110
1184.467, 2063.469
1184.949, 2058.449
1185.431, 2048.030
1185.913, 2035.435
1186.395, 2029.274
1186.877, 2034.882
1187.359, 2037.721
1187.841, 2028.906
1188.324, 2025.546
1188.806, 2035.972
1189.288, 2048.813
1189.770, 2059.827
1190.252, 2066.289
1190.734, 2062.085
1191.216, 2049.720
1191.698, 2051.128
1192.181, 2067.794
1192.663, 2070.502
1193.145, 2057.717
1193.627, 2045.319
1194.109, 2037.611
1194.591, 2033.141
1195.073, 2031.276
1195.555, 2028.401
1196.037, 2016.332
1196.520, 2003.650
1197.002, 2004.697
1197.484, 2013.487
1197.966, 2023.627
1198.448, 2032.552
1198.930, 2037.726
1199.412, 2038.557
1199.894, 2034.134
1200.376, 2019.153
1200.859, 2013.563
1201.341, 2037.936
1201.823, 2053.961
1202.305, 2034.037
1202.787, 2014.579
1203.269, 2024.410
1203.751, 2047.108
1204.233, 2059.527
1204.716, 2061.764
1205.198, 2051.103
1205.680, 2023.426
1206.162, 2019.822
1206.644, 2043.797
1207.126, 2054.067
1207.608, 2040.053
1208.090, 2024.734
1208.573, 2022.028
1209.055, 2026.259
1209.537, 2035.886
1210.019, 2042.253
1210.501, 2024.432
1210.983, 1998.208
1211.465, 1984.812
1211.947, 1985.105
1212.429, 2001.180
1212.911, 2028.339
1213.394, 2046.617
1213.876, 2048.224
1214.358, 2045.088
1214.840, 2035.831
1215.322, 2029.561
1215.804, 2035.115
1216.286, 2037.255
1216.768, 2020.704
1217.251, 2003.918
1217.733, 2014.419
1218.215, 2043.297
1218.697, 2044.333
1219.179, 2014.873
1219.661, 2003.156
1220.143, 2009.803
1220.625, 2014.390
1221.108, 2012.996
1221.590, 2012.388
1222.072, 2015.776
1222.554, 2014.791
1223.036, 1997.415
1223.518, 1978.821
1224.000, 1975.818
1224.482, 1983.689
1224.964, 2006.952
1225.447, 2030.737
1225.929, 2027.444
1226.411, 2004.575
1226.893, 1997.841
1227.375, 2017.544
1227.857, 2027.627
1228.339, 2014.177
1228.821, 2003.052
1229.303, 1995.442
1229.786, 1994.260
1230.268, 2004.205
1230.750, 2012.405
1231.232, 2005.718
1231.714, 1992.909
1232.196, 1994.740
1232.678, 2008.116
1233.160, 2013.558
1233.643, 2012.176
1234.125, 2008.250
1234.607, 2002.714
1235.089, 1994.422
1235.571, 1984.437
1236.053, 1983.063
1236.535, 1999.294
1237.017, 2013.491
1237.500, 2007.024
1237.982, 1999.317
1238.464, 2007.604
1238.946, 2016.310
1239.428, 2006.791
1239.910, 1989.798
1240.392, 1987.739
1240.874, 1998.830
1241.356, 2002.565
1241.839, 1995.712
1242.321, 1994.183
1242.803, 1999.997
1243.285, 1998.546
1243.767, 1986.106
1244.249, 1977.000
1244.731, 1978.908
1245.213, 1984.538
1245.695, 1987.117
1246.178, 1986.522
1246.660, 1978.672
1247.142, 1970.482
1247.624, 1974.795
1248.106, 1985.537
1248.588, 1991.637
1249.070, 1993.378
1249.552, 1997.431
1250.035, 2005.511
1250.517, 2010.576
1250.999, 2011.723
1251.481, 2008.043
1251.963, 1994.454
1252.445, 1984.698
1252.927, 1985.174
1253.409, 1985.882
1253.891, 1978.529
1254.374, 1968.961
1254.856, 1967.652
1255.338, 1972.419
1255.820, 1973.754
1256.302, 1972.734
1256.784, 1975.519
1257.266, 1979.958
1257.748, 1974.961
1258.230, 1960.864
1258.713, 1951.627
1259.195, 1953.637
1259.677, 1957.172
1260.159, 1954.783
1260.641, 1955.088
1261.123, 1967.454
1261.605, 1977.679
1262.087, 1974.677
1262.570, 1966.722
1263.052, 1961.142
##END=



