##NAMES=Hydroxyapophyllite-(K)
##RRUFFID=R050169
##IDEAL CHEMISTRY=KCa_4_Si_8_O_20_(OH)&#183;8H_2_O
##LOCALITY=Christmas mine, Christmas, Gila County, Arizona, USA
##OWNER=RRUFF
##SOURCE=Marcus Origlieri
##DESCRIPTION=Colorless prismatic crystals associated with kinoite, R050168
##STATUS=The identification of this mineral is confirmed by single-crystal X-ray diffraction and chemical analysis.
##URL=rruff.info/R050169
##MEASURED CHEMISTRY=K_1.00_Ca_4.00_Si_8.00_O_20_((OH)_0.98_F_0.02_)_Σ=1_·8H_2_O
129.6975, 258.8205
130.1796, 270.5334
130.6617, 282.7537
131.1439, 297.6840
131.6260, 316.8992
132.1081, 339.7560
132.5902, 361.2058
133.0723, 380.6798
133.5544, 399.2166
134.0366, 416.7713
134.5187, 433.4612
135.0008, 449.1498
135.4829, 463.4120
135.9650, 476.4337
136.4471, 492.6619
136.9293, 515.1389
137.4114, 537.3317
137.8935, 555.6798
138.3756, 571.9972
138.8577, 591.9741
139.3398, 621.0785
139.8220, 659.5400
140.3041, 683.0771
140.7862, 686.6978
141.2683, 684.0682
141.7504, 677.7808
142.2325, 669.5131
142.7147, 662.9777
143.1968, 661.5367
143.6789, 665.3130
144.1610, 665.5331
144.6431, 659.7601
145.1252, 652.9503
145.6074, 646.7814
146.0895, 641.7242
146.5716, 639.2494
147.0537, 641.1904
147.5358, 647.6703
148.0179, 652.2211
148.5001, 652.9544
148.9822, 653.1865
149.4643, 655.7345
149.9464, 660.6508
150.4285, 665.3158
150.9106, 667.3325
151.3928, 666.9325
151.8749, 667.5444
152.3570, 670.5836
152.8391, 673.9687
153.3212, 674.8979
153.8033, 673.0523
154.2855, 672.6023
154.7676, 677.6626
155.2497, 687.2094
155.7318, 696.7012
156.2139, 704.7214
156.6960, 712.7150
157.1782, 722.1948
157.6603, 733.2101
158.1424, 745.6609
158.6245, 758.1252
159.1066, 771.8269
159.5887, 790.7105
160.0709, 814.4291
160.5530, 844.3465
161.0351, 883.3163
161.5172, 932.4484
161.9993, 986.0828
162.4814, 1043.716
162.9636, 1102.724
163.4457, 1159.114
163.9278, 1214.451
164.4099, 1265.164
164.8920, 1305.719
165.3741, 1337.769
165.8563, 1354.153
166.3384, 1350.555
166.8205, 1329.409
167.3026, 1291.150
167.7847, 1227.280
168.2668, 1148.975
168.7490, 1079.825
169.2311, 1020.735
169.7132, 968.6893
170.1953, 921.4315
170.6774, 879.3159
171.1595, 843.6716
171.6417, 815.7658
172.1238, 794.4491
172.6059, 777.0693
173.0880, 763.9605
173.5701, 754.5208
174.0522, 749.4120
174.5344, 747.0190
175.0165, 745.4988
175.4986, 744.9105
175.9807, 744.0245
176.4628, 738.6094
176.9449, 724.9611
177.4271, 713.6783
177.9092, 708.2510
178.3913, 707.3563
178.8734, 709.3749
179.3555, 713.6356
179.8376, 720.2217
180.3197, 729.6858
180.8019, 743.4642
181.2840, 757.7502
181.7661, 772.5627
182.2482, 786.7728
182.7303, 798.1962
183.2124, 804.8725
183.6946, 809.5685
184.1767, 821.0375
184.6588, 844.7428
185.1409, 865.5886
185.6230, 880.3707
186.1051, 890.2847
186.5873, 895.8967
187.0694, 896.7859
187.5515, 895.4197
188.0336, 898.5947
188.5157, 908.6808
188.9978, 919.5275
189.4800, 929.2479
189.9621, 939.0137
190.4442, 949.9506
190.9263, 962.4193
191.4084, 976.6572
191.8905, 993.2668
192.3727, 1012.826
192.8548, 1034.168
193.3369, 1056.432
193.8190, 1080.369
194.3011, 1108.078
194.7832, 1140.500
195.2654, 1173.862
195.7475, 1199.618
196.2296, 1215.042
196.7117, 1227.624
197.1938, 1241.925
197.6759, 1252.631
198.1581, 1255.058
198.6402, 1247.675
199.1223, 1232.341
199.6044, 1211.247
200.0865, 1178.826
200.5686, 1151.860
201.0508, 1136.231
201.5329, 1122.798
202.0150, 1104.199
202.4971, 1078.488
202.9792, 1050.075
203.4613, 1026.476
203.9435, 1011.514
204.4256, 992.7990
204.9077, 965.2208
205.3898, 937.3635
205.8719, 915.0689
206.3540, 899.4398
206.8362, 887.5713
207.3183, 875.7465
207.8004, 864.3364
208.2825, 852.1997
208.7646, 836.0239
209.2467, 821.6653
209.7289, 814.2526
210.2110, 813.4392
210.6931, 813.6069
211.1752, 807.6325
211.6573, 792.9661
212.1395, 781.6797
212.6216, 777.0821
213.1037, 772.8463
213.5858, 765.7006
214.0679, 755.8291
214.5500, 745.4169
215.0322, 736.1563
215.5143, 727.6923
215.9964, 723.1229
216.4785, 723.7609
216.9606, 726.9769
217.4427, 732.6985
217.9249, 740.3480
218.4070, 748.9308
218.8891, 757.7576
219.3712, 766.8459
219.8533, 775.5309
220.3354, 781.9750
220.8176, 789.8463
221.2997, 801.3818
221.7818, 815.1335
222.2639, 828.0754
222.7460, 837.7629
223.2281, 844.7266
223.7103, 853.8351
224.1924, 867.6462
224.6745, 880.9968
225.1566, 892.7969
225.6387, 903.4986
226.1208, 914.5520
226.6030, 927.1914
227.0851, 939.7709
227.5672, 945.2659
228.0493, 940.2421
228.5314, 931.9045
229.0135, 920.8414
229.4957, 907.6727
229.9778, 892.9844
230.4599, 877.0379
230.9420, 859.7704
231.4241, 840.9871
231.9062, 821.4391
232.3884, 798.7753
232.8705, 770.9401
233.3526, 741.4337
233.8347, 712.8109
234.3168, 686.0475
234.7989, 660.4800
235.2811, 633.8949
235.7632, 601.3810
236.2453, 580.0399
236.7274, 581.3200
237.2095, 585.6534
237.6916, 578.7731
238.1738, 558.5652
238.6559, 534.4455
239.1380, 518.4464
239.6201, 513.2825
240.1022, 506.1369
240.5843, 492.3628
241.0665, 479.9654
241.5486, 473.7787
242.0307, 473.3033
242.5128, 474.0504
242.9949, 471.0140
243.4770, 463.5545
243.9592, 460.0736
244.4413, 465.2737
244.9234, 470.1906
245.4055, 471.3521
245.8876, 469.4455
246.3697, 466.8609
246.8519, 465.3567
247.3340, 464.7193
247.8161, 462.9487
248.2982, 458.2311
248.7803, 454.8717
249.2624, 453.7827
249.7446, 454.9567
250.2267, 458.4309
250.7088, 464.4964
251.1909, 472.6036
251.6730, 482.1356
252.1551, 496.4554
252.6373, 505.0467
253.1194, 499.1367
253.6015, 488.6466
254.0836, 484.6431
254.5657, 491.7286
255.0478, 504.2971
255.5300, 513.8798
256.0121, 519.9716
256.4942, 524.8557
256.9763, 528.2689
257.4584, 531.2001
257.9406, 534.2850
258.4227, 537.6454
258.9048, 541.2688
259.3869, 545.1937
259.8690, 549.4349
260.3511, 553.6514
260.8333, 555.8863
261.3154, 560.0204
261.7975, 570.4274
262.2796, 586.6799
262.7617, 601.6383
263.2438, 609.5981
263.7260, 611.6171
264.2081, 613.2951
264.6902, 613.5497
265.1723, 616.2565
265.6544, 626.3586
266.1365, 641.5189
266.6187, 653.7334
267.1008, 658.3414
267.5829, 657.6242
268.0650, 654.7018
268.5471, 647.6788
269.0292, 644.8946
269.5114, 659.5109
269.9935, 681.7899
270.4756, 694.5593
270.9577, 689.3147
271.4398, 676.1049
271.9219, 664.3772
272.4041, 654.0727
272.8862, 647.3193
273.3683, 648.4367
273.8504, 652.2425
274.3325, 648.2358
274.8146, 630.9713
275.2968, 614.9023
275.7789, 611.0811
276.2610, 617.0325
276.7431, 622.5168
277.2252, 623.6591
277.7073, 623.1512
278.1895, 626.3403
278.6716, 634.5851
279.1537, 639.7564
279.6358, 635.8957
280.1179, 627.7201
280.6000, 623.5686
281.0822, 625.5210
281.5643, 629.9822
282.0464, 632.8877
282.5285, 634.0510
283.0106, 635.8615
283.4927, 637.8916
283.9749, 641.1211
284.4570, 647.7163
284.9391, 657.4152
285.4212, 665.8080
285.9033, 668.6757
286.3854, 666.1387
286.8676, 666.9443
287.3497, 673.8068
287.8318, 681.0490
288.3139, 683.1086
288.7960, 683.0298
289.2781, 690.3078
289.7603, 711.5244
290.2424, 741.8749
290.7245, 760.5219
291.2066, 753.7859
291.6887, 753.0985
292.1708, 766.9097
292.6530, 787.9816
293.1351, 807.5023
293.6172, 822.3621
294.0993, 834.9582
294.5814, 849.6154
295.0635, 869.5970
295.5457, 885.2765
296.0278, 892.2952
296.5099, 898.3921
296.9920, 909.9859
297.4741, 927.1310
297.9562, 944.4037
298.4384, 955.9067
298.9205, 960.4709
299.4026, 967.5200
299.8847, 980.7432
300.3668, 992.6920
300.8489, 999.9746
301.3311, 1003.998
301.8131, 1007.474
302.2953, 1011.589
302.7774, 1017.245
303.2595, 1029.764
303.7416, 1056.942
304.2237, 1079.451
304.7058, 1089.229
305.1880, 1094.594
305.6701, 1105.864
306.1522, 1127.093
306.6343, 1150.462
307.1164, 1161.329
307.5985, 1154.907
308.0807, 1153.696
308.5628, 1165.338
309.0449, 1180.964
309.5270, 1196.234
310.0091, 1210.551
310.4912, 1224.544
310.9734, 1239.424
311.4555, 1254.934
311.9376, 1268.117
312.4197, 1279.599
312.9018, 1287.083
313.3839, 1286.296
313.8661, 1280.616
314.3482, 1279.036
314.8303, 1289.198
315.3124, 1304.360
315.7945, 1311.568
316.2766, 1309.330
316.7588, 1308.046
317.2409, 1316.834
317.7230, 1328.814
318.2051, 1332.139
318.6872, 1322.144
319.1693, 1309.056
319.6515, 1302.068
320.1336, 1299.078
320.6157, 1289.146
321.0978, 1265.676
321.5799, 1238.382
322.0620, 1225.140
322.5442, 1229.011
323.0263, 1225.722
323.5084, 1201.735
323.9905, 1169.580
324.4726, 1145.400
324.9547, 1131.807
325.4369, 1123.026
325.9190, 1115.415
326.4011, 1109.278
326.8832, 1093.508
327.3653, 1058.900
327.8474, 1023.423
328.3296, 995.5272
328.8117, 975.0300
329.2938, 960.2711
329.7759, 950.8326
330.2580, 945.1996
330.7401, 936.8062
331.2223, 922.0880
331.7044, 908.9617
332.1865, 900.6552
332.6686, 893.1987
333.1507, 881.6148
333.6328, 864.6417
334.1150, 845.7916
334.5971, 830.2759
335.0792, 819.5965
335.5613, 808.4337
336.0434, 793.2148
336.5255, 780.6870
337.0077, 776.7686
337.4898, 779.2606
337.9719, 780.7456
338.4540, 775.2308
338.9361, 763.4380
339.4182, 751.7534
339.9004, 740.1514
340.3825, 728.8348
340.8646, 719.2703
341.3467, 709.4566
341.8288, 696.4440
342.3109, 678.6823
342.7931, 659.2874
343.2752, 641.8356
343.7573, 625.8770
344.2394, 615.3684
344.7215, 617.9629
345.2036, 620.9531
345.6858, 612.6750
346.1679, 592.8663
346.6500, 573.3394
347.1321, 561.0620
347.6142, 554.7482
348.0963, 551.7770
348.5785, 553.1395
349.0606, 553.9526
349.5427, 548.8331
350.0248, 539.8720
350.5069, 533.3389
350.9890, 533.8983
351.4712, 534.4221
351.9533, 526.7270
352.4354, 512.7638
352.9175, 503.3911
353.3996, 504.9402
353.8817, 512.8209
354.3639, 514.6912
354.8460, 507.9228
355.3281, 502.1440
355.8102, 499.6076
356.2923, 499.1187
356.7744, 500.5648
357.2566, 503.5938
357.7387, 504.7343
358.2208, 499.2453
358.7029, 484.7037
359.1850, 477.3888
359.6671, 484.1072
360.1493, 490.1946
360.6314, 487.4846
361.1135, 479.0422
361.5956, 472.5070
362.0777, 472.5118
362.5598, 477.1971
363.0420, 479.8369
363.5241, 479.9487
364.0062, 478.5553
364.4883, 473.3323
364.9704, 468.3492
365.4525, 467.2824
365.9347, 470.7830
366.4168, 476.3991
366.8989, 481.8032
367.3810, 487.0661
367.8631, 491.5854
368.3452, 495.0486
368.8274, 498.0741
369.3095, 501.0474
369.7916, 503.8867
370.2737, 503.7660
370.7558, 509.3563
371.2379, 513.6081
371.7201, 516.5934
372.2022, 514.5172
372.6843, 518.9763
373.1664, 520.8165
373.6485, 522.5491
374.1306, 527.9283
374.6128, 526.5886
375.0949, 531.9100
375.5770, 531.8466
376.0591, 529.2156
376.5412, 526.6087
377.0233, 524.6183
377.5055, 523.1824
377.9876, 522.4929
378.4697, 522.6646
378.9518, 521.8361
379.4339, 517.5376
379.9160, 514.4384
380.3982, 515.7061
380.8803, 520.5487
381.3624, 526.8260
381.8445, 533.6097
382.3266, 540.2188
382.8087, 544.5846
383.2909, 540.4236
383.7730, 542.5179
384.2551, 556.8151
384.7372, 573.7071
385.2193, 584.9088
385.7014, 589.4603
386.1836, 592.5109
386.6657, 599.5031
387.1478, 610.6378
387.6299, 621.3849
388.1120, 633.0434
388.5941, 642.7111
389.0763, 646.3856
389.5584, 648.2288
390.0405, 655.0496
390.5226, 670.5716
391.0047, 690.0833
391.4868, 706.3326
391.9690, 718.8983
392.4511, 731.5400
392.9332, 744.4125
393.4153, 758.4943
393.8974, 774.9042
394.3795, 793.6702
394.8617, 812.2918
395.3438, 829.5402
395.8259, 845.8514
396.3080, 861.8562
396.7901, 877.5364
397.2722, 893.8298
397.7544, 913.0868
398.2365, 933.3549
398.7186, 946.0528
399.2007, 943.2833
399.6828, 941.8406
400.1649, 950.5807
400.6471, 964.3533
401.1292, 975.0276
401.6113, 979.9733
402.0934, 980.6158
402.5755, 978.9643
403.0576, 974.6899
403.5398, 968.8375
404.0219, 960.2317
404.5040, 951.3142
404.9861, 943.7321
405.4682, 936.8851
405.9503, 928.4687
406.4325, 916.3758
406.9146, 903.0896
407.3967, 899.0341
407.8788, 912.3784
408.3609, 917.9955
408.8430, 903.3895
409.3252, 884.8625
409.8073, 876.1000
410.2894, 878.8252
410.7715, 883.1023
411.2536, 878.4791
411.7357, 867.4517
412.2179, 863.6191
412.7000, 869.7560
413.1821, 878.5273
413.6642, 882.7916
414.1463, 886.2458
414.6284, 897.0431
415.1106, 920.2833
415.5927, 946.9534
416.0748, 971.5737
416.5569, 994.3989
417.0390, 1015.548
417.5211, 1034.539
418.0033, 1053.545
418.4854, 1075.849
418.9675, 1102.192
419.4496, 1129.578
419.9317, 1157.207
420.4138, 1186.260
420.8960, 1215.501
421.3781, 1246.678
421.8602, 1285.451
422.3423, 1336.598
422.8244, 1396.368
423.3065, 1448.166
423.7887, 1486.091
424.2708, 1525.166
424.7529, 1572.167
425.2350, 1617.464
425.7171, 1650.895
426.1992, 1672.334
426.6814, 1691.961
427.1635, 1721.387
427.6456, 1759.460
428.1277, 1790.865
428.6098, 1818.985
429.0919, 1833.455
429.5741, 1827.270
430.0562, 1805.116
430.5383, 1772.142
431.0204, 1728.698
431.5025, 1676.518
431.9846, 1615.367
432.4668, 1546.383
432.9489, 1471.941
433.4310, 1390.886
433.9131, 1310.506
434.3952, 1239.396
434.8773, 1178.705
435.3595, 1120.928
435.8416, 1066.522
436.3237, 1014.471
436.8058, 962.3945
437.2879, 912.0186
437.7701, 866.8629
438.2522, 828.7554
438.7343, 797.1205
439.2164, 771.0138
439.6985, 753.2896
440.1806, 736.4020
440.6628, 720.2907
441.1449, 704.5822
441.6270, 689.1075
442.1091, 673.8193
442.5912, 658.4079
443.0733, 642.0804
443.5555, 625.7592
444.0376, 613.0280
444.5197, 604.1929
445.0018, 598.0911
445.4839, 595.1856
445.9660, 594.4047
446.4482, 595.9437
446.9303, 600.4337
447.4124, 602.3637
447.8945, 595.7514
448.3766, 584.6853
448.8587, 578.0266
449.3409, 577.1165
449.8230, 577.7157
450.3051, 576.3497
450.7872, 573.4496
451.2693, 573.0801
451.7514, 576.7712
452.2336, 580.9908
452.7157, 586.3678
453.1978, 590.9331
453.6799, 590.5180
454.1620, 584.3792
454.6441, 578.1171
455.1263, 579.9277
455.6084, 592.3825
456.0905, 598.3070
456.5726, 589.4091
457.0547, 582.2293
457.5368, 581.6275
458.0190, 586.0967
458.5011, 593.6833
458.9832, 604.2726
459.4653, 614.2951
459.9474, 617.5413
460.4295, 613.8721
460.9117, 612.1689
461.3938, 614.5660
461.8759, 618.8328
462.3580, 623.0982
462.8401, 627.4396
463.3222, 632.4263
463.8044, 637.9531
464.2865, 644.4221
464.7686, 651.9294
465.2507, 660.6160
465.7328, 670.6478
466.2149, 681.8090
466.6971, 695.3796
467.1792, 713.9527
467.6613, 741.4656
468.1434, 765.8835
468.6255, 782.9513
469.1076, 800.6970
469.5898, 823.4103
470.0719, 851.1162
470.5540, 882.5231
471.0361, 917.5354
471.5182, 954.1965
472.0003, 986.3115
472.4825, 1009.515
472.9646, 1039.572
473.4467, 1083.790
473.9288, 1133.209
474.4109, 1181.117
474.8930, 1227.882
475.3752, 1280.991
475.8573, 1346.602
476.3394, 1420.413
476.8215, 1496.997
477.3036, 1576.097
477.7857, 1653.374
478.2679, 1723.461
478.7500, 1792.820
479.2321, 1880.636
479.7142, 1996.148
480.1963, 2102.479
480.6784, 2189.360
481.1606, 2266.243
481.6427, 2344.323
482.1248, 2422.393
482.6069, 2490.418
483.0890, 2543.025
483.5711, 2577.642
484.0533, 2580.542
484.5354, 2544.492
485.0175, 2485.844
485.4996, 2398.783
485.9817, 2299.128
486.4638, 2198.085
486.9460, 2097.282
487.4281, 1995.555
487.9102, 1888.009
488.3923, 1778.889
488.8744, 1681.324
489.3565, 1596.248
489.8387, 1518.776
490.3208, 1447.914
490.8029, 1383.240
491.2850, 1322.498
491.7671, 1264.213
492.2492, 1213.562
492.7314, 1175.346
493.2135, 1144.454
493.6956, 1115.404
494.1777, 1087.740
494.6598, 1063.563
495.1419, 1044.753
495.6241, 1030.693
496.1062, 1016.872
496.5883, 1002.244
497.0704, 989.5448
497.5525, 980.7339
498.0346, 972.6389
498.5168, 962.7027
498.9989, 950.6614
499.4810, 937.8458
499.9631, 924.7027
500.4452, 911.6629
500.9273, 900.6840
501.4095, 892.0013
501.8916, 884.3104
502.3737, 876.6962
502.8558, 870.0125
503.3379, 866.0323
503.8200, 865.8073
504.3022, 864.0047
504.7843, 856.1204
505.2664, 847.0557
505.7485, 843.1375
506.2306, 844.3214
506.7127, 845.9604
507.1949, 844.7145
507.6770, 841.7723
508.1591, 842.4597
508.6412, 851.8120
509.1233, 857.3970
509.6054, 854.5653
510.0876, 850.9879
510.5697, 852.2416
511.0518, 858.3932
511.5339, 866.3365
512.0161, 874.5685
512.4982, 882.5167
512.9803, 887.7923
513.4624, 889.5037
513.9445, 893.8255
514.4266, 903.5101
514.9088, 916.4509
515.3909, 929.6954
515.8730, 943.1807
516.3551, 957.8518
516.8372, 972.8069
517.3193, 989.9613
517.8015, 1014.230
518.2836, 1043.143
518.7657, 1066.647
519.2478, 1078.657
519.7299, 1085.046
520.2120, 1099.788
520.6942, 1126.240
521.1763, 1155.135
521.6584, 1189.530
522.1405, 1223.138
522.6226, 1250.739
523.1047, 1274.870
523.5869, 1301.851
524.0690, 1335.586
524.5511, 1372.874
525.0332, 1408.974
525.5153, 1443.889
525.9974, 1477.542
526.4796, 1508.178
526.9617, 1540.450
527.4438, 1581.370
527.9259, 1629.755
528.4080, 1674.095
528.8901, 1708.796
529.3723, 1743.053
529.8544, 1787.112
530.3365, 1833.852
530.8186, 1867.159
531.3007, 1881.988
531.7828, 1889.741
532.2650, 1906.835
532.7471, 1935.964
533.2292, 1957.940
533.7113, 1966.443
534.1934, 1974.888
534.6755, 1990.774
535.1577, 2007.696
535.6398, 2016.942
536.1219, 2015.870
536.6040, 2008.654
537.0861, 1997.987
537.5682, 1984.286
538.0504, 1969.455
538.5325, 1954.154
539.0146, 1935.072
539.4967, 1909.997
539.9788, 1879.214
540.4609, 1845.051
540.9431, 1799.821
541.4252, 1761.623
541.9073, 1740.609
542.3894, 1724.073
542.8715, 1697.094
543.3536, 1660.396
543.8358, 1628.286
544.3179, 1613.441
544.8000, 1611.050
545.2821, 1599.686
545.7642, 1576.579
546.2463, 1552.064
546.7285, 1524.695
547.2106, 1500.084
547.6927, 1484.382
548.1748, 1476.907
548.6569, 1467.998
549.1390, 1448.122
549.6211, 1428.593
550.1032, 1424.128
550.5853, 1431.860
551.0674, 1439.112
551.5496, 1441.113
552.0317, 1438.960
552.5138, 1433.709
552.9959, 1422.540
553.4780, 1417.989
553.9601, 1423.238
554.4423, 1430.659
554.9244, 1439.872
555.4065, 1448.409
555.8886, 1450.881
556.3707, 1445.040
556.8528, 1441.056
557.3350, 1453.631
557.8171, 1480.545
558.2992, 1503.291
558.7813, 1519.082
559.2634, 1534.074
559.7455, 1550.789
560.2277, 1570.196
560.7098, 1593.993
561.1919, 1621.562
561.6740, 1654.717
562.1561, 1697.071
562.6382, 1743.422
563.1204, 1788.662
563.6025, 1832.292
564.0846, 1876.647
564.5667, 1924.067
565.0488, 1973.476
565.5309, 2020.115
566.0131, 2059.258
566.4952, 2107.481
566.9773, 2172.090
567.4594, 2243.756
567.9415, 2320.675
568.4236, 2400.637
568.9058, 2475.378
569.3879, 2533.053
569.8700, 2591.951
570.3521, 2675.572
570.8342, 2777.041
571.3163, 2872.621
571.7985, 2954.734
572.2806, 3032.201
572.7627, 3113.844
573.2448, 3199.339
573.7269, 3295.154
574.2090, 3419.228
574.6912, 3532.981
575.1733, 3615.201
575.6554, 3688.095
576.1375, 3781.899
576.6196, 3901.288
577.1017, 4016.755
577.5839, 4102.550
578.0660, 4163.162
578.5481, 4213.075
579.0302, 4252.463
579.5123, 4281.114
579.9944, 4299.252
580.4766, 4306.070
580.9587, 4301.162
581.4408, 4289.341
581.9229, 4251.822
582.4050, 4168.873
582.8871, 4075.179
583.3693, 3998.778
583.8514, 3929.741
584.3335, 3839.793
584.8156, 3716.450
585.2977, 3576.275
585.7798, 3444.741
586.2620, 3323.351
586.7441, 3195.562
587.2262, 3054.064
587.7083, 2914.872
588.1904, 2792.665
588.6725, 2676.934
589.1547, 2547.823
589.6368, 2392.887
590.1189, 2249.093
590.6010, 2138.243
591.0831, 2046.027
591.5652, 1955.606
592.0474, 1865.614
592.5295, 1782.489
593.0116, 1711.226
593.4937, 1648.877
593.9758, 1585.292
594.4579, 1519.468
594.9401, 1455.533
595.4222, 1392.642
595.9043, 1333.341
596.3864, 1279.698
596.8685, 1230.939
597.3506, 1185.069
597.8328, 1141.036
598.3149, 1100.713
598.7970, 1066.677
599.2791, 1037.464
599.7612, 1009.278
600.2433, 981.2747
600.7255, 954.1889
601.2076, 928.2469
601.6897, 903.7564
602.1718, 883.2717
602.6539, 870.3897
603.1360, 856.7469
603.6182, 840.1648
604.1003, 823.8449
604.5824, 811.1802
605.0645, 801.2761
605.5466, 789.9579
606.0287, 774.4708
606.5109, 756.6576
606.9930, 738.4355
607.4751, 719.9758
607.9572, 703.1017
608.4393, 688.3800
608.9214, 674.4802
609.4036, 659.5689
609.8857, 643.6355
610.3678, 631.7017
610.8499, 625.5443
611.3320, 620.7567
611.8141, 619.9102
612.2963, 617.6895
612.7784, 605.7802
613.2605, 585.5480
613.7426, 569.1837
614.2247, 567.5022
614.7068, 574.8734
615.1890, 577.8619
615.6711, 576.3411
616.1532, 573.0858
616.6353, 568.4260
617.1174, 563.1765
617.5995, 558.5801
618.0817, 554.6392
618.5638, 548.7512
619.0459, 537.1599
619.5280, 527.8408
620.0101, 525.4923
620.4922, 526.3508
620.9744, 525.8435
621.4565, 523.0184
621.9386, 519.4109
622.4207, 515.9347
622.9028, 512.9749
623.3849, 513.0382
623.8671, 517.1527
