##NAMES=Hydroxylapatite
##RRUFFID=R130713
##IDEAL CHEMISTRY=Ca_5_(P^5+^O_4_)_3_OH
##LOCALITY=Wessels mine, Kalahari manganese field, Northern Cape Province, South Africa
##OWNER=RRUFF
##SOURCE=Robert Lavinsky
##DESCRIPTION=Transparent pale green hexagonal tablets
##STATUS=The identification of this mineral has been confirmed only by single crystal X-ray diffraction.
##URL=rruff.info/R130713
9.059570e+001, 5.358006e+002
9.107782e+001, 5.330641e+002
9.155994e+001, 5.321172e+002
9.204205e+001, 5.346718e+002
9.252417e+001, 5.378344e+002
9.300629e+001, 5.404001e+002
9.348840e+001, 5.393151e+002
9.397052e+001, 5.317672e+002
9.445264e+001, 5.177279e+002
9.493475e+001, 5.047145e+002
9.541687e+001, 4.920781e+002
9.589898e+001, 4.801360e+002
9.638110e+001, 4.688473e+002
9.686321e+001, 4.580501e+002
9.734533e+001, 4.473233e+002
9.782745e+001, 4.360504e+002
9.830956e+001, 4.264759e+002
9.879168e+001, 4.188022e+002
9.927380e+001, 4.120483e+002
9.975591e+001, 4.060812e+002
1.002380e+002, 4.007101e+002
1.007201e+002, 3.956769e+002
1.012023e+002, 3.909311e+002
1.016844e+002, 3.863237e+002
1.021665e+002, 3.814118e+002
1.026486e+002, 3.753610e+002
1.031307e+002, 3.694521e+002
1.036128e+002, 3.649891e+002
1.040950e+002, 3.620816e+002
1.045771e+002, 3.597182e+002
1.050592e+002, 3.573059e+002
1.055413e+002, 3.548525e+002
1.060234e+002, 3.523954e+002
1.065055e+002, 3.497207e+002
1.069877e+002, 3.469879e+002
1.074698e+002, 3.450078e+002
1.079519e+002, 3.448529e+002
1.084340e+002, 3.440562e+002
1.089161e+002, 3.414031e+002
1.093982e+002, 3.372827e+002
1.098804e+002, 3.327222e+002
1.103625e+002, 3.284930e+002
1.108446e+002, 3.245612e+002
1.113267e+002, 3.212358e+002
1.118088e+002, 3.187806e+002
1.122909e+002, 3.166372e+002
1.127731e+002, 3.145063e+002
1.132552e+002, 3.123771e+002
1.137373e+002, 3.104615e+002
1.142194e+002, 3.091111e+002
1.147015e+002, 3.088026e+002
1.151836e+002, 3.082159e+002
1.156658e+002, 3.071490e+002
1.161479e+002, 3.059082e+002
1.166300e+002, 3.048305e+002
1.171121e+002, 3.040439e+002
1.175942e+002, 3.033566e+002
1.180763e+002, 3.022853e+002
1.185584e+002, 3.006943e+002
1.190406e+002, 2.991035e+002
1.195227e+002, 2.975043e+002
1.200048e+002, 2.959930e+002
1.204869e+002, 2.948427e+002
1.209690e+002, 2.942402e+002
1.214511e+002, 2.940755e+002
1.219333e+002, 2.939662e+002
1.224154e+002, 2.938339e+002
1.228975e+002, 2.938817e+002
1.233796e+002, 2.945406e+002
1.238617e+002, 2.959420e+002
1.243438e+002, 2.968354e+002
1.248260e+002, 2.960324e+002
1.253081e+002, 2.946016e+002
1.257902e+002, 2.934335e+002
1.262723e+002, 2.928505e+002
1.267544e+002, 2.926884e+002
1.272365e+002, 2.925926e+002
1.277187e+002, 2.925229e+002
1.282008e+002, 2.926113e+002
1.286829e+002, 2.927928e+002
1.291650e+002, 2.931440e+002
1.296471e+002, 2.938098e+002
1.301292e+002, 2.949443e+002
1.306114e+002, 2.964962e+002
1.310935e+002, 2.976869e+002
1.315756e+002, 2.979877e+002
1.320577e+002, 2.984282e+002
1.325398e+002, 2.994416e+002
1.330219e+002, 3.008401e+002
1.335041e+002, 3.020941e+002
1.339862e+002, 3.026890e+002
1.344683e+002, 3.024371e+002
1.349504e+002, 3.028402e+002
1.354325e+002, 3.043101e+002
1.359146e+002, 3.059669e+002
1.363968e+002, 3.074350e+002
1.368789e+002, 3.086302e+002
1.373610e+002, 3.095128e+002
1.378431e+002, 3.099984e+002
1.383252e+002, 3.100212e+002
1.388073e+002, 3.098310e+002
1.392895e+002, 3.098141e+002
1.397716e+002, 3.094458e+002
1.402537e+002, 3.079869e+002
1.407358e+002, 3.051714e+002
1.412179e+002, 3.016840e+002
1.417000e+002, 2.983296e+002
1.421821e+002, 2.951062e+002
1.426643e+002, 2.918094e+002
1.431464e+002, 2.882858e+002
1.436285e+002, 2.846082e+002
1.441106e+002, 2.809780e+002
1.445927e+002, 2.772798e+002
1.450748e+002, 2.738755e+002
1.455570e+002, 2.709425e+002
1.460391e+002, 2.684936e+002
1.465212e+002, 2.665031e+002
1.470033e+002, 2.650962e+002
1.474854e+002, 2.643377e+002
1.479675e+002, 2.635091e+002
1.484497e+002, 2.623223e+002
1.489318e+002, 2.611127e+002
1.494139e+002, 2.600797e+002
1.498960e+002, 2.592645e+002
1.503781e+002, 2.585302e+002
1.508602e+002, 2.576512e+002
1.513424e+002, 2.564397e+002
1.518245e+002, 2.554954e+002
1.523066e+002, 2.550576e+002
1.527887e+002, 2.547480e+002
1.532708e+002, 2.543556e+002
1.537529e+002, 2.537894e+002
1.542351e+002, 2.529667e+002
1.547172e+002, 2.516624e+002
1.551993e+002, 2.491350e+002
1.556814e+002, 2.470024e+002
1.561635e+002, 2.458884e+002
1.566456e+002, 2.450467e+002
1.571278e+002, 2.434816e+002
1.576099e+002, 2.406542e+002
1.580920e+002, 2.369504e+002
1.585741e+002, 2.340300e+002
1.590562e+002, 2.323635e+002
1.595383e+002, 2.308135e+002
1.600205e+002, 2.290751e+002
1.605026e+002, 2.272536e+002
1.609847e+002, 2.256024e+002
1.614668e+002, 2.242826e+002
1.619489e+002, 2.232591e+002
1.624310e+002, 2.223185e+002
1.629131e+002, 2.214688e+002
1.633953e+002, 2.206866e+002
1.638774e+002, 2.200182e+002
1.643595e+002, 2.194469e+002
1.648416e+002, 2.188158e+002
1.653237e+002, 2.180075e+002
1.658058e+002, 2.170688e+002
1.662880e+002, 2.161226e+002
1.667701e+002, 2.151786e+002
1.672522e+002, 2.142291e+002
1.677343e+002, 2.132380e+002
1.682164e+002, 2.121792e+002
1.686985e+002, 2.112115e+002
1.691807e+002, 2.105696e+002
1.696628e+002, 2.100478e+002
1.701449e+002, 2.093619e+002
1.706270e+002, 2.082808e+002
1.711091e+002, 2.070473e+002
1.715912e+002, 2.062800e+002
1.720734e+002, 2.062867e+002
1.725555e+002, 2.062036e+002
1.730376e+002, 2.057067e+002
1.735197e+002, 2.049218e+002
1.740018e+002, 2.039917e+002
1.744839e+002, 2.029458e+002
1.749661e+002, 2.018329e+002
1.754482e+002, 2.009661e+002
1.759303e+002, 2.004595e+002
1.764124e+002, 2.001102e+002
1.768945e+002, 1.999586e+002
1.773766e+002, 1.999160e+002
1.778588e+002, 1.998572e+002
1.783409e+002, 1.997031e+002
1.788230e+002, 1.994533e+002
1.793051e+002, 1.990381e+002
1.797872e+002, 1.982150e+002
1.802693e+002, 1.974636e+002
1.807515e+002, 1.969581e+002
1.812336e+002, 1.966527e+002
1.817157e+002, 1.964072e+002
1.821978e+002, 1.961027e+002
1.826799e+002, 1.957292e+002
1.831620e+002, 1.953866e+002
1.836441e+002, 1.952059e+002
1.841263e+002, 1.949356e+002
1.846084e+002, 1.943704e+002
1.850905e+002, 1.935557e+002
1.855726e+002, 1.927491e+002
1.860547e+002, 1.921931e+002
1.865368e+002, 1.919299e+002
1.870190e+002, 1.916701e+002
1.875011e+002, 1.914160e+002
1.879832e+002, 1.911665e+002
1.884653e+002, 1.908922e+002
1.889474e+002, 1.905965e+002
1.894296e+002, 1.903629e+002
1.899117e+002, 1.902884e+002
1.903938e+002, 1.903743e+002
1.908759e+002, 1.904889e+002
1.913580e+002, 1.908149e+002
1.918401e+002, 1.910740e+002
1.923223e+002, 1.908289e+002
1.928044e+002, 1.899375e+002
1.932865e+002, 1.890312e+002
1.937686e+002, 1.888518e+002
1.942507e+002, 1.891875e+002
1.947328e+002, 1.894444e+002
1.952150e+002, 1.892603e+002
1.956971e+002, 1.889042e+002
1.961792e+002, 1.890009e+002
1.966613e+002, 1.898371e+002
1.971434e+002, 1.905959e+002
1.976255e+002, 1.905359e+002
1.981077e+002, 1.899143e+002
1.985898e+002, 1.893697e+002
1.990719e+002, 1.892635e+002
1.995540e+002, 1.895110e+002
2.000361e+002, 1.897594e+002
2.005182e+002, 1.900258e+002
2.010004e+002, 1.902554e+002
2.014825e+002, 1.903985e+002
2.019646e+002, 1.904843e+002
2.024467e+002, 1.905815e+002
2.029288e+002, 1.907276e+002
2.034109e+002, 1.909236e+002
2.038930e+002, 1.911878e+002
2.043752e+002, 1.917272e+002
2.048573e+002, 1.921085e+002
2.053394e+002, 1.920624e+002
2.058215e+002, 1.917160e+002
2.063036e+002, 1.913905e+002
2.067857e+002, 1.914088e+002
2.072679e+002, 1.918066e+002
2.077500e+002, 1.918468e+002
2.082321e+002, 1.912753e+002
2.087142e+002, 1.905524e+002
2.091963e+002, 1.897226e+002
2.096784e+002, 1.888457e+002
2.101606e+002, 1.880145e+002
2.106427e+002, 1.873209e+002
2.111248e+002, 1.867912e+002
2.116069e+002, 1.861980e+002
2.120890e+002, 1.853998e+002
2.125711e+002, 1.846744e+002
2.130533e+002, 1.841598e+002
2.135354e+002, 1.838280e+002
2.140175e+002, 1.835500e+002
2.144996e+002, 1.832080e+002
2.149817e+002, 1.827839e+002
2.154638e+002, 1.824224e+002
2.159460e+002, 1.821103e+002
2.164281e+002, 1.818548e+002
2.169102e+002, 1.816866e+002
2.173923e+002, 1.815894e+002
2.178744e+002, 1.814905e+002
2.183565e+002, 1.813103e+002
2.188387e+002, 1.810289e+002
2.193208e+002, 1.809035e+002
2.198029e+002, 1.810302e+002
2.202850e+002, 1.812129e+002
2.207671e+002, 1.813466e+002
2.212492e+002, 1.814231e+002
2.217314e+002, 1.814671e+002
2.222135e+002, 1.814774e+002
2.226956e+002, 1.814565e+002
2.231777e+002, 1.815624e+002
2.236598e+002, 1.819232e+002
2.241419e+002, 1.823157e+002
2.246240e+002, 1.825724e+002
2.251062e+002, 1.826869e+002
2.255883e+002, 1.827444e+002
2.260704e+002, 1.827839e+002
2.265525e+002, 1.828190e+002
2.270346e+002, 1.829279e+002
2.275167e+002, 1.832899e+002
2.279989e+002, 1.836192e+002
2.284810e+002, 1.835113e+002
2.289631e+002, 1.829297e+002
2.294452e+002, 1.825257e+002
2.299273e+002, 1.830133e+002
2.304094e+002, 1.840502e+002
2.308916e+002, 1.846774e+002
2.313737e+002, 1.844686e+002
2.318558e+002, 1.839288e+002
2.323379e+002, 1.835683e+002
2.328200e+002, 1.833876e+002
2.333021e+002, 1.833848e+002
2.337843e+002, 1.837743e+002
2.342664e+002, 1.843060e+002
2.347485e+002, 1.845824e+002
2.352306e+002, 1.844290e+002
2.357127e+002, 1.840401e+002
2.361948e+002, 1.835752e+002
2.366770e+002, 1.829443e+002
2.371591e+002, 1.826085e+002
2.376412e+002, 1.832207e+002
2.381233e+002, 1.841341e+002
2.386054e+002, 1.846236e+002
2.390875e+002, 1.843942e+002
2.395697e+002, 1.837508e+002
2.400518e+002, 1.831858e+002
2.405339e+002, 1.827655e+002
2.410160e+002, 1.821971e+002
2.414981e+002, 1.810848e+002
2.419802e+002, 1.798919e+002
2.424624e+002, 1.791011e+002
2.429445e+002, 1.789246e+002
2.434266e+002, 1.790702e+002
2.439087e+002, 1.790901e+002
2.443908e+002, 1.790257e+002
2.448729e+002, 1.787019e+002
2.453550e+002, 1.778288e+002
2.458372e+002, 1.768225e+002
2.463193e+002, 1.760488e+002
2.468014e+002, 1.756360e+002
2.472835e+002, 1.754146e+002
2.477656e+002, 1.750927e+002
2.482477e+002, 1.746377e+002
2.487299e+002, 1.741545e+002
2.492120e+002, 1.736783e+002
2.496941e+002, 1.731783e+002
2.501762e+002, 1.725835e+002
2.506583e+002, 1.718792e+002
2.511404e+002, 1.712005e+002
2.516226e+002, 1.708106e+002
2.521047e+002, 1.709288e+002
2.525868e+002, 1.708407e+002
2.530689e+002, 1.702141e+002
2.535510e+002, 1.695654e+002
2.540331e+002, 1.693118e+002
2.545153e+002, 1.695381e+002
2.549974e+002, 1.699590e+002
2.554795e+002, 1.701319e+002
2.559616e+002, 1.699027e+002
2.564437e+002, 1.697514e+002
2.569258e+002, 1.695138e+002
2.574080e+002, 1.694591e+002
2.578901e+002, 1.699473e+002
2.583722e+002, 1.709512e+002
2.588543e+002, 1.719634e+002
2.593364e+002, 1.722228e+002
2.598185e+002, 1.711834e+002
2.603007e+002, 1.707855e+002
2.607828e+002, 1.714924e+002
2.612649e+002, 1.723389e+002
2.617470e+002, 1.727277e+002
2.622291e+002, 1.726049e+002
2.627112e+002, 1.722937e+002
2.631934e+002, 1.721594e+002
2.636755e+002, 1.722551e+002
2.641576e+002, 1.723450e+002
2.646397e+002, 1.724868e+002
2.651218e+002, 1.725767e+002
2.656039e+002, 1.726125e+002
2.660861e+002, 1.725598e+002
2.665682e+002, 1.723031e+002
2.670503e+002, 1.716760e+002
2.675324e+002, 1.705591e+002
2.680145e+002, 1.698835e+002
2.684966e+002, 1.699980e+002
2.689788e+002, 1.701411e+002
2.694609e+002, 1.698918e+002
2.699430e+002, 1.693109e+002
2.704251e+002, 1.687424e+002
2.709072e+002, 1.684814e+002
2.713893e+002, 1.685457e+002
2.718715e+002, 1.684444e+002
2.723536e+002, 1.680616e+002
2.728357e+002, 1.676658e+002
2.733178e+002, 1.673945e+002
2.737999e+002, 1.672094e+002
2.742820e+002, 1.669906e+002
2.747642e+002, 1.666552e+002
2.752463e+002, 1.662110e+002
2.757284e+002, 1.657592e+002
2.762105e+002, 1.650427e+002
2.766926e+002, 1.645854e+002
2.771747e+002, 1.648168e+002
2.776568e+002, 1.654459e+002
2.781389e+002, 1.658064e+002
2.786211e+002, 1.655060e+002
2.791032e+002, 1.647090e+002
2.795853e+002, 1.641104e+002
2.800674e+002, 1.636749e+002
2.805495e+002, 1.634251e+002
2.810316e+002, 1.634750e+002
2.815138e+002, 1.637029e+002
2.819959e+002, 1.638962e+002
2.824780e+002, 1.639632e+002
2.829601e+002, 1.639486e+002
2.834422e+002, 1.639620e+002
2.839243e+002, 1.640176e+002
2.844065e+002, 1.640711e+002
2.848886e+002, 1.642943e+002
2.853707e+002, 1.644643e+002
2.858528e+002, 1.641224e+002
2.863349e+002, 1.630587e+002
2.868170e+002, 1.618103e+002
2.872992e+002, 1.613504e+002
2.877813e+002, 1.619258e+002
2.882634e+002, 1.623691e+002
2.887455e+002, 1.624700e+002
2.892276e+002, 1.623570e+002
2.897097e+002, 1.621669e+002
2.901919e+002, 1.619293e+002
2.906740e+002, 1.616378e+002
2.911561e+002, 1.612388e+002
2.916382e+002, 1.607011e+002
2.921203e+002, 1.603340e+002
2.926024e+002, 1.603198e+002
2.930846e+002, 1.604040e+002
2.935667e+002, 1.603348e+002
2.940488e+002, 1.600801e+002
2.945309e+002, 1.597787e+002
2.950130e+002, 1.596094e+002
2.954951e+002, 1.595572e+002
2.959773e+002, 1.591890e+002
2.964594e+002, 1.580343e+002
2.969415e+002, 1.568864e+002
2.974236e+002, 1.564614e+002
2.979057e+002, 1.567348e+002
2.983878e+002, 1.570729e+002
2.988700e+002, 1.570401e+002
2.993521e+002, 1.566826e+002
2.998342e+002, 1.564175e+002
3.003163e+002, 1.562996e+002
3.007984e+002, 1.562227e+002
3.012805e+002, 1.561465e+002
3.017627e+002, 1.560647e+002
3.022448e+002, 1.559538e+002
3.027269e+002, 1.558019e+002
3.032090e+002, 1.556092e+002
3.036911e+002, 1.553761e+002
3.041732e+002, 1.550425e+002
3.046554e+002, 1.547672e+002
3.051375e+002, 1.546501e+002
3.056196e+002, 1.546482e+002
3.061017e+002, 1.546637e+002
3.065838e+002, 1.546783e+002
3.070659e+002, 1.546609e+002
3.075481e+002, 1.545304e+002
3.080302e+002, 1.542589e+002
3.085123e+002, 1.540152e+002
3.089944e+002, 1.538816e+002
3.094765e+002, 1.538058e+002
3.099586e+002, 1.536676e+002
3.104408e+002, 1.534132e+002
3.109229e+002, 1.531957e+002
3.114050e+002, 1.532444e+002
3.118871e+002, 1.535546e+002
3.123692e+002, 1.539310e+002
3.128513e+002, 1.545255e+002
3.133335e+002, 1.550781e+002
3.138156e+002, 1.552242e+002
3.142977e+002, 1.548990e+002
3.147798e+002, 1.544397e+002
3.152619e+002, 1.540936e+002
3.157440e+002, 1.538718e+002
3.162262e+002, 1.538254e+002
3.167083e+002, 1.540549e+002
3.171904e+002, 1.543936e+002
3.176725e+002, 1.547749e+002
3.181546e+002, 1.551794e+002
3.186367e+002, 1.554370e+002
3.191188e+002, 1.553618e+002
3.196010e+002, 1.550496e+002
3.200831e+002, 1.549760e+002
3.205652e+002, 1.553715e+002
3.210473e+002, 1.557687e+002
3.215294e+002, 1.558638e+002
3.220115e+002, 1.557348e+002
3.224937e+002, 1.556643e+002
3.229758e+002, 1.557982e+002
3.234579e+002, 1.560541e+002
3.239400e+002, 1.562095e+002
3.244221e+002, 1.562052e+002
3.249042e+002, 1.562478e+002
3.253864e+002, 1.564673e+002
3.258685e+002, 1.567760e+002
3.263506e+002, 1.570008e+002
3.268327e+002, 1.570783e+002
3.273148e+002, 1.570937e+002
3.277969e+002, 1.571839e+002
3.282791e+002, 1.573632e+002
3.287612e+002, 1.575184e+002
3.292433e+002, 1.575292e+002
3.297254e+002, 1.575511e+002
3.302075e+002, 1.578527e+002
3.306896e+002, 1.584807e+002
3.311718e+002, 1.590605e+002
3.316539e+002, 1.591889e+002
3.321360e+002, 1.588204e+002
3.326181e+002, 1.585196e+002
3.331002e+002, 1.583507e+002
3.335823e+002, 1.582208e+002
3.340645e+002, 1.580266e+002
3.345466e+002, 1.577854e+002
3.350287e+002, 1.576806e+002
3.355108e+002, 1.579572e+002
3.359929e+002, 1.584709e+002
3.364750e+002, 1.582616e+002
3.369572e+002, 1.566485e+002
3.374393e+002, 1.551116e+002
3.379214e+002, 1.543666e+002
3.384035e+002, 1.541728e+002
3.388856e+002, 1.539591e+002
3.393677e+002, 1.534635e+002
3.398499e+002, 1.527817e+002
3.403320e+002, 1.521682e+002
3.408141e+002, 1.516542e+002
3.412962e+002, 1.511405e+002
3.417783e+002, 1.505430e+002
3.422604e+002, 1.499581e+002
3.427426e+002, 1.495654e+002
3.432247e+002, 1.494184e+002
3.437068e+002, 1.493102e+002
3.441889e+002, 1.489461e+002
3.446710e+002, 1.482084e+002
3.451531e+002, 1.475301e+002
3.456353e+002, 1.469356e+002
3.461174e+002, 1.463917e+002
3.465995e+002, 1.458404e+002
3.470816e+002, 1.452976e+002
3.475637e+002, 1.448707e+002
3.480458e+002, 1.446866e+002
3.485280e+002, 1.447619e+002
3.490101e+002, 1.447064e+002
3.494922e+002, 1.445235e+002
3.499743e+002, 1.442340e+002
3.504564e+002, 1.437953e+002
3.509385e+002, 1.432580e+002
3.514207e+002, 1.427320e+002
3.519028e+002, 1.422887e+002
3.523849e+002, 1.418965e+002
3.528670e+002, 1.414106e+002
3.533491e+002, 1.404818e+002
3.538312e+002, 1.398935e+002
3.543134e+002, 1.400077e+002
3.547955e+002, 1.404074e+002
3.552776e+002, 1.406270e+002
3.557597e+002, 1.405016e+002
3.562418e+002, 1.401451e+002
3.567239e+002, 1.397385e+002
3.572061e+002, 1.392316e+002
3.576882e+002, 1.387774e+002
3.581703e+002, 1.382668e+002
3.586524e+002, 1.378809e+002
3.591345e+002, 1.378397e+002
3.596166e+002, 1.380983e+002
3.600987e+002, 1.383625e+002
3.605808e+002, 1.383366e+002
3.610630e+002, 1.379845e+002
3.615451e+002, 1.376803e+002
3.620272e+002, 1.373590e+002
3.625093e+002, 1.371477e+002
3.629914e+002, 1.371925e+002
3.634735e+002, 1.373716e+002
3.639557e+002, 1.374468e+002
3.644378e+002, 1.372628e+002
3.649199e+002, 1.368972e+002
3.654020e+002, 1.366855e+002
3.658841e+002, 1.367904e+002
3.663662e+002, 1.368328e+002
3.668484e+002, 1.367110e+002
3.673305e+002, 1.365389e+002
3.678126e+002, 1.364256e+002
3.682947e+002, 1.364069e+002
3.687768e+002, 1.364470e+002
3.692589e+002, 1.364900e+002
3.697411e+002, 1.365231e+002
3.702232e+002, 1.365961e+002
3.707053e+002, 1.368934e+002
3.711874e+002, 1.370774e+002
3.716695e+002, 1.368457e+002
3.721516e+002, 1.362828e+002
3.726338e+002, 1.357833e+002
3.731159e+002, 1.357498e+002
3.735980e+002, 1.361623e+002
3.740801e+002, 1.363386e+002
3.745622e+002, 1.360931e+002
3.750443e+002, 1.358233e+002
3.755265e+002, 1.356312e+002
3.760086e+002, 1.355085e+002
3.764907e+002, 1.354421e+002
3.769728e+002, 1.354322e+002
3.774549e+002, 1.354582e+002
3.779370e+002, 1.354764e+002
3.784192e+002, 1.354862e+002
3.789013e+002, 1.354906e+002
3.793834e+002, 1.355168e+002
3.798655e+002, 1.355229e+002
3.803476e+002, 1.355218e+002
3.808297e+002, 1.355126e+002
3.813119e+002, 1.353462e+002
3.817940e+002, 1.347297e+002
3.822761e+002, 1.336772e+002
3.827582e+002, 1.329653e+002
3.832403e+002, 1.328174e+002
3.837224e+002, 1.329118e+002
3.842046e+002, 1.330902e+002
3.846867e+002, 1.333162e+002
3.851688e+002, 1.334734e+002
3.856509e+002, 1.334230e+002
3.861330e+002, 1.332719e+002
3.866151e+002, 1.332709e+002
3.870973e+002, 1.334459e+002
3.875794e+002, 1.336780e+002
3.880615e+002, 1.339802e+002
3.885436e+002, 1.342750e+002
3.890257e+002, 1.344428e+002
3.895078e+002, 1.344426e+002
3.899900e+002, 1.343428e+002
3.904721e+002, 1.341688e+002
3.909542e+002, 1.339303e+002
3.914363e+002, 1.336976e+002
3.919184e+002, 1.334473e+002
3.924005e+002, 1.332751e+002
3.928827e+002, 1.333560e+002
3.933648e+002, 1.337129e+002
3.938469e+002, 1.339907e+002
3.943290e+002, 1.339544e+002
3.948111e+002, 1.337849e+002
3.952932e+002, 1.338188e+002
3.957754e+002, 1.341273e+002
3.962575e+002, 1.343909e+002
3.967396e+002, 1.342775e+002
3.972217e+002, 1.338238e+002
3.977038e+002, 1.335292e+002
3.981859e+002, 1.334229e+002
3.986681e+002, 1.334722e+002
3.991501e+002, 1.337565e+002
3.996323e+002, 1.342012e+002
4.001144e+002, 1.345517e+002
4.005965e+002, 1.346753e+002
4.010786e+002, 1.346302e+002
4.015607e+002, 1.345650e+002
4.020428e+002, 1.343861e+002
4.025250e+002, 1.343471e+002
4.030071e+002, 1.345928e+002
4.034892e+002, 1.349544e+002
4.039713e+002, 1.352516e+002
4.044534e+002, 1.354391e+002
4.049355e+002, 1.355460e+002
4.054177e+002, 1.355736e+002
4.058998e+002, 1.354534e+002
4.063819e+002, 1.356371e+002
4.068640e+002, 1.364387e+002
4.073461e+002, 1.372048e+002
4.078282e+002, 1.375092e+002
4.083104e+002, 1.375074e+002
4.087925e+002, 1.376487e+002
4.092746e+002, 1.382311e+002
4.097567e+002, 1.391445e+002
4.102388e+002, 1.398868e+002
4.107209e+002, 1.402844e+002
4.112031e+002, 1.407244e+002
4.116852e+002, 1.410799e+002
4.121673e+002, 1.415760e+002
4.126494e+002, 1.425259e+002
4.131315e+002, 1.439668e+002
4.136136e+002, 1.455347e+002
4.140958e+002, 1.467339e+002
4.145779e+002, 1.474752e+002
4.150600e+002, 1.482254e+002
4.155421e+002, 1.488295e+002
4.160242e+002, 1.495882e+002
