##NAMES=Hydroxyapophyllite-(K)
##RRUFFID=R050169
##IDEAL CHEMISTRY=KCa_4_Si_8_O_20_(OH)&#183;8H_2_O
##LOCALITY=Christmas mine, Christmas, Gila County, Arizona, USA
##OWNER=RRUFF
##SOURCE=Marcus Origlieri
##DESCRIPTION=Colorless prismatic crystals associated with kinoite, R050168
##STATUS=The identification of this mineral is confirmed by single-crystal X-ray diffraction and chemical analysis.
##URL=rruff.info/R050169
##MEASURED CHEMISTRY=K_1.00_Ca_4.00_Si_8.00_O_20_((OH)_0.98_F_0.02_)_Σ=1_·8H_2_O
153.0366, 13762.65
153.5188, 14034.41
154.0009, 14333.16
154.4830, 14698.05
154.9651, 15067.69
155.4472, 15416.78
155.9293, 15717.18
156.4115, 16031.97
156.8936, 16378.26
157.3757, 16750.68
157.8578, 17135.24
158.3399, 17549.66
158.8221, 17961.73
159.3042, 18354.67
159.7863, 18737.03
160.2684, 19086.92
160.7505, 19427.58
161.2326, 19750.17
161.7148, 19960.34
162.1969, 20019.77
162.6790, 19947.44
163.1611, 19762.32
163.6432, 19430.51
164.1253, 19019.22
164.6075, 18536.43
165.0896, 17981.44
165.5717, 17435.58
166.0538, 16912.29
166.5359, 16432.20
167.0180, 16022.71
167.5002, 15691.99
167.9823, 15433.80
168.4644, 15254.49
168.9465, 15160.44
169.4286, 15104.25
169.9107, 15051.51
170.3929, 15011.41
170.8750, 15002.09
171.3571, 15037.45
171.8392, 15106.45
172.3213, 15198.47
172.8034, 15311.55
173.2856, 15446.67
173.7677, 15606.63
174.2498, 15790.63
174.7319, 15992.57
175.2140, 16204.77
175.6961, 16433.43
176.1783, 16684.88
176.6604, 16951.24
177.1425, 17251.52
177.6246, 17621.22
178.1067, 18050.67
178.5888, 18502.58
179.0710, 18918.15
179.5531, 19329.59
180.0352, 19808.06
180.5173, 20386.11
180.9994, 21018.33
181.4815, 21631.89
181.9637, 22231.68
182.4458, 22801.60
182.9279, 23379.56
183.4100, 23933.69
183.8921, 24356.47
184.3742, 24618.62
184.8564, 24730.12
185.3385, 24702.57
185.8206, 24534.61
186.3027, 24241.41
186.7848, 23767.95
187.2669, 23142.58
187.7491, 22566.42
188.2312, 22121.63
188.7133, 21782.63
189.1954, 21436.84
189.6775, 21076.54
190.1596, 20754.52
190.6418, 20540.67
191.1239, 20434.52
191.6060, 20365.75
192.0881, 20304.63
192.5702, 20254.54
193.0524, 20245.86
193.5345, 20280.19
194.0166, 20351.38
194.4987, 20453.57
194.9808, 20587.50
195.4629, 20741.97
195.9451, 20911.84
196.4272, 21099.10
196.9093, 21296.37
197.3914, 21503.47
197.8735, 21720.52
198.3556, 21948.70
198.8378, 22187.66
199.3199, 22434.57
199.8020, 22686.86
200.2841, 22942.25
200.7662, 23205.21
201.2483, 23478.39
201.7305, 23757.01
202.2126, 24033.62
202.6947, 24312.16
203.1768, 24573.94
203.6589, 24812.39
204.1410, 25027.37
204.6232, 25202.00
205.1053, 25324.90
205.5874, 25410.68
206.0695, 25513.54
206.5516, 25646.80
207.0337, 25762.18
207.5159, 25827.43
207.9980, 25837.73
208.4801, 25815.89
208.9622, 25764.06
209.4443, 25682.15
209.9264, 25567.23
210.4086, 25413.54
210.8907, 25237.63
211.3728, 25052.91
211.8549, 24857.26
212.3370, 24651.37
212.8191, 24418.45
213.3013, 24169.75
213.7834, 23981.37
214.2655, 23853.85
214.7476, 23785.73
215.2297, 23785.61
215.7118, 23876.53
216.1940, 23972.33
216.6761, 24059.33
217.1582, 24138.19
217.6403, 24214.47
218.1224, 24285.62
218.6045, 24356.41
219.0867, 24430.57
219.5688, 24505.76
220.0509, 24589.21
220.5330, 24683.66
221.0151, 24790.73
221.4972, 24888.24
221.9794, 24971.54
222.4615, 25051.40
222.9436, 25145.01
223.4257, 25272.35
223.9078, 25373.59
224.3899, 25437.43
224.8721, 25465.16
225.3542, 25449.30
225.8363, 25383.10
226.3184, 25279.74
226.8005, 25157.21
227.2827, 25035.80
227.7648, 24856.10
228.2469, 24591.11
228.7290, 24229.60
229.2111, 23880.14
229.6932, 23556.80
230.1754, 23238.30
230.6575, 22886.96
231.1396, 22474.20
231.6217, 22083.46
232.1038, 21740.13
232.5859, 21451.79
233.0681, 21170.13
233.5502, 20892.31
234.0323, 20624.31
234.5144, 20369.23
234.9965, 20120.59
235.4786, 19899.32
235.9608, 19714.73
236.4429, 19576.19
236.9250, 19440.95
237.4071, 19307.88
237.8892, 19179.77
238.3713, 19060.11
238.8535, 18945.26
239.3356, 18844.95
239.8177, 18762.53
240.2998, 18699.02
240.7819, 18650.28
241.2640, 18622.51
241.7462, 18605.12
242.2283, 18576.70
242.7104, 18518.88
243.1925, 18480.59
243.6746, 18484.62
244.1567, 18551.28
244.6389, 18589.42
245.1210, 18585.98
245.6031, 18561.86
246.0852, 18552.24
246.5673, 18556.12
247.0494, 18576.38
247.5316, 18616.62
248.0137, 18683.42
248.4958, 18748.42
248.9779, 18810.86
249.4600, 18871.59
249.9421, 18931.80
250.4243, 18996.23
250.9064, 19052.23
251.3885, 19090.88
251.8706, 19100.49
252.3527, 19135.00
252.8348, 19208.38
253.3170, 19297.86
253.7991, 19356.95
254.2812, 19368.19
254.7633, 19381.46
255.2454, 19418.99
255.7275, 19491.97
256.2097, 19547.55
256.6918, 19587.12
257.1739, 19607.79
257.6560, 19598.27
258.1381, 19538.84
258.6202, 19489.91
259.1024, 19475.31
259.5845, 19502.00
260.0666, 19535.84
260.5487, 19580.57
261.0308, 19629.57
261.5129, 19670.20
261.9951, 19694.78
262.4772, 19728.78
262.9593, 19789.81
263.4414, 19892.26
263.9235, 19951.77
264.4056, 19953.81
264.8878, 19927.02
265.3699, 19921.90
265.8520, 19944.21
266.3341, 19971.77
266.8162, 19999.76
267.2983, 20030.40
267.7805, 20046.00
268.2626, 20046.47
268.7447, 20031.68
269.2268, 19997.97
269.7089, 19940.45
270.1910, 19881.82
270.6732, 19832.09
271.1553, 19793.33
271.6374, 19737.01
272.1195, 19645.54
272.6016, 19562.26
273.0837, 19577.66
273.5659, 19714.60
274.0480, 19832.72
274.5301, 19863.85
275.0122, 19803.33
275.4943, 19789.74
275.9764, 19832.31
276.4586, 19904.49
276.9407, 19971.82
277.4228, 20033.83
277.9049, 20087.82
278.3870, 20124.75
278.8691, 20146.29
279.3513, 20196.38
279.8334, 20282.78
280.3155, 20377.70
280.7976, 20439.55
281.2798, 20466.22
281.7619, 20497.46
282.2440, 20555.25
282.7261, 20633.73
283.2082, 20682.28
283.6903, 20694.31
284.1725, 20700.63
284.6546, 20743.96
285.1367, 20822.47
285.6188, 20897.18
286.1009, 20944.24
286.5830, 20975.32
287.0652, 21043.75
287.5473, 21151.91
288.0294, 21279.37
288.5115, 21397.18
288.9936, 21510.04
289.4757, 21652.17
289.9579, 21857.27
290.4400, 22094.96
290.9221, 22281.19
291.4042, 22412.97
291.8863, 22530.80
292.3684, 22669.47
292.8506, 22827.16
293.3327, 23000.67
293.8148, 23216.35
294.2969, 23432.69
294.7790, 23567.84
295.2611, 23621.98
295.7433, 23637.27
296.2254, 23654.31
296.7075, 23662.49
297.1896, 23632.01
297.6717, 23547.81
298.1538, 23425.86
298.6360, 23291.85
299.1181, 23143.76
299.6002, 22972.66
300.0823, 22748.87
300.5644, 22497.96
301.0465, 22267.26
301.5287, 22075.84
302.0108, 21901.39
302.4929, 21725.86
302.9750, 21548.02
303.4571, 21370.82
303.9392, 21183.50
304.4214, 21000.43
304.9035, 20836.20
305.3856, 20696.96
305.8677, 20579.46
306.3498, 20488.11
306.8319, 20419.98
307.3141, 20362.94
307.7962, 20311.72
308.2783, 20268.25
308.7604, 20234.37
309.2425, 20212.99
309.7246, 20197.44
310.2068, 20188.49
310.6889, 20182.63
311.1710, 20170.76
311.6531, 20139.29
312.1352, 20105.69
312.6173, 20084.87
313.0995, 20084.45
313.5816, 20082.20
314.0637, 20058.01
314.5458, 20025.29
315.0279, 20009.00
315.5100, 20028.08
315.9922, 20059.03
316.4743, 20089.13
316.9564, 20115.22
317.4385, 20147.48
317.9206, 20205.37
318.4027, 20267.76
318.8849, 20305.16
319.3670, 20264.95
319.8491, 20237.70
320.3312, 20269.19
320.8133, 20376.82
321.2954, 20457.23
321.7776, 20467.56
322.2597, 20450.24
322.7418, 20450.45
323.2239, 20471.77
323.7060, 20514.11
324.1881, 20592.88
324.6703, 20713.99
325.1524, 20797.92
325.6345, 20807.25
326.1166, 20793.27
326.5987, 20797.42
327.0808, 20839.67
327.5630, 20876.95
328.0451, 20907.87
328.5272, 20931.98
329.0093, 20937.44
329.4914, 20900.57
329.9735, 20866.39
330.4557, 20864.76
330.9378, 20910.60
331.4199, 20964.63
331.9020, 21034.04
332.3841, 21111.21
332.8662, 21157.63
333.3484, 21162.85
333.8305, 21152.46
334.3126, 21138.09
334.7947, 21116.89
335.2768, 21101.56
335.7589, 21095.61
336.2411, 21094.31
336.7232, 21086.22
337.2053, 21071.51
337.6874, 21049.60
338.1695, 21019.65
338.6516, 20981.73
339.1338, 20935.02
339.6159, 20875.13
340.0980, 20814.05
340.5801, 20779.24
341.0622, 20774.07
341.5443, 20759.67
342.0265, 20714.51
342.5086, 20642.79
342.9907, 20577.59
343.4728, 20518.32
343.9549, 20470.09
344.4370, 20446.65
344.9192, 20445.30
345.4013, 20438.11
345.8834, 20402.33
346.3655, 20357.43
346.8476, 20372.61
347.3297, 20450.22
347.8119, 20518.61
348.2940, 20484.57
348.7761, 20383.25
349.2582, 20322.70
349.7403, 20349.95
350.2225, 20413.64
350.7046, 20436.47
351.1867, 20424.24
351.6688, 20420.11
352.1509, 20464.78
352.6331, 20534.96
353.1152, 20596.76
353.5973, 20643.71
354.0794, 20678.50
354.5615, 20695.65
355.0436, 20700.92
355.5258, 20711.80
356.0079, 20737.56
356.4900, 20773.36
356.9721, 20820.82
357.4542, 20888.95
357.9363, 20939.15
358.4185, 20922.79
358.9006, 20876.67
359.3827, 20864.48
359.8648, 20943.99
360.3469, 21037.71
360.8290, 21100.23
361.3112, 21121.59
361.7933, 21158.48
362.2754, 21250.20
362.7575, 21359.10
363.2396, 21444.61
363.7217, 21470.47
364.2039, 21498.05
364.6860, 21538.95
365.1681, 21593.89
365.6502, 21666.65
366.1323, 21776.87
366.6144, 21893.83
367.0966, 21996.77
367.5787, 22081.82
368.0608, 22155.35
368.5429, 22214.68
369.0250, 22261.99
369.5071, 22306.36
369.9893, 22341.14
370.4714, 22380.43
370.9535, 22436.95
371.4356, 22540.71
371.9177, 22588.40
372.3998, 22555.26
372.8820, 22477.16
373.3641, 22438.99
373.8462, 22461.10
374.3283, 22470.69
374.8104, 22439.73
375.2925, 22366.08
375.7747, 22269.91
376.2568, 22145.76
376.7389, 22008.33
377.2210, 21868.99
377.7031, 21725.42
378.1852, 21613.85
378.6674, 21546.42
379.1495, 21519.43
379.6316, 21524.76
380.1137, 21565.96
380.5958, 21606.88
381.0779, 21611.78
381.5601, 21586.05
382.0422, 21555.57
382.5243, 21522.89
383.0064, 21491.69
383.4885, 21464.37
383.9706, 21441.77
384.4528, 21431.95
384.9349, 21447.20
385.4170, 21476.97
385.8991, 21505.54
386.3812, 21532.23
386.8633, 21552.94
387.3455, 21558.20
387.8276, 21554.33
388.3097, 21555.93
388.7918, 21576.34
389.2739, 21601.33
389.7560, 21621.86
390.2382, 21637.62
390.7203, 21643.75
391.2024, 21632.72
391.6845, 21612.32
392.1666, 21591.29
392.6487, 21560.94
393.1309, 21541.49
393.6130, 21548.76
394.0951, 21579.86
394.5772, 21601.26
395.0593, 21589.36
395.5414, 21574.61
396.0236, 21576.19
396.5057, 21618.39
396.9878, 21651.38
397.4699, 21663.92
397.9520, 21662.96
398.4341, 21670.46
398.9163, 21697.32
399.3984, 21721.39
399.8805, 21735.25
400.3626, 21738.24
400.8447, 21730.34
401.3268, 21694.61
401.8090, 21660.56
402.2911, 21677.23
402.7732, 21770.96
403.2553, 21844.55
403.7374, 21860.79
404.2195, 21824.86
404.7017, 21839.52
405.1838, 21921.94
405.6659, 22008.93
406.1480, 22035.43
406.6301, 22000.54
407.1122, 21973.06
407.5944, 21955.76
408.0765, 21963.03
408.5586, 22063.08
409.0407, 22253.85
409.5228, 22398.89
410.0049, 22359.71
410.4871, 22203.18
410.9692, 22121.37
411.4513, 22142.65
411.9334, 22202.31
412.4155, 22225.48
412.8976, 22226.91
413.3798, 22247.84
413.8619, 22324.35
414.3440, 22420.11
414.8261, 22500.74
415.3082, 22565.59
415.7903, 22620.84
416.2725, 22651.01
416.7546, 22681.67
417.2367, 22743.09
417.7188, 22861.58
418.2009, 22992.75
418.6830, 23107.07
419.1652, 23214.89
419.6473, 23349.68
420.1294, 23543.30
420.6115, 23752.66
421.0937, 23957.81
421.5758, 24148.77
422.0579, 24342.71
422.5400, 24527.05
423.0221, 24718.96
423.5042, 24951.16
423.9864, 25248.68
424.4685, 25556.18
424.9506, 25859.85
425.4327, 26152.42
425.9148, 26488.39
426.3969, 26892.33
426.8791, 27311.44
427.3612, 27692.89
427.8433, 28020.36
428.3254, 28364.21
428.8075, 28755.62
429.2896, 29160.32
429.7718, 29474.84
430.2539, 29711.40
430.7360, 29804.59
431.2181, 29695.16
431.7002, 29390.73
432.1823, 28988.73
432.6645, 28481.13
433.1466, 27916.43
433.6287, 27335.04
434.1108, 26749.19
434.5929, 26218.37
435.0750, 25788.40
435.5572, 25425.06
436.0393, 25051.39
436.5214, 24671.05
437.0035, 24360.81
437.4856, 24223.38
437.9677, 24183.51
438.4499, 24141.88
438.9320, 24082.62
439.4141, 23999.88
439.8962, 23863.90
440.3783, 23699.26
440.8604, 23565.29
441.3426, 23517.17
441.8247, 23487.12
442.3068, 23430.38
442.7889, 23330.45
443.2710, 23260.26
443.7531, 23270.82
444.2353, 23308.82
444.7174, 23315.49
445.1995, 23234.82
445.6816, 23174.53
446.1637, 23154.18
446.6458, 23171.48
447.1280, 23205.00
447.6101, 23277.39
448.0922, 23341.15
448.5743, 23365.66
449.0564, 23328.87
449.5385, 23309.44
450.0207, 23302.75
450.5028, 23320.14
450.9849, 23394.67
451.4670, 23538.23
451.9491, 23675.47
452.4312, 23780.27
452.9134, 23853.95
453.3955, 23902.38
453.8776, 23921.12
454.3597, 23944.92
454.8418, 24009.86
455.3239, 24109.58
455.8061, 24218.64
456.2882, 24342.52
456.7703, 24457.68
457.2524, 24524.03
457.7345, 24550.05
458.2166, 24571.78
458.6988, 24619.29
459.1809, 24668.96
459.6630, 24693.04
460.1451, 24686.94
460.6272, 24670.09
461.1093, 24645.64
461.5915, 24620.50
462.0736, 24603.76
462.5557, 24629.79
463.0378, 24634.02
463.5199, 24585.24
464.0020, 24489.15
464.4842, 24387.99
464.9663, 24279.29
465.4484, 24176.80
465.9305, 24086.67
466.4126, 24003.54
466.8947, 23941.51
467.3769, 23914.89
467.8590, 23903.27
468.3411, 23871.32
468.8232, 23806.87
469.3053, 23746.43
469.7874, 23699.15
470.2696, 23664.56
470.7517, 23633.25
471.2338, 23604.34
471.7159, 23581.55
472.1980, 23561.80
472.6801, 23545.80
473.1623, 23569.89
473.6444, 23654.49
474.1265, 23751.47
474.6086, 23765.81
475.0907, 23709.59
475.5728, 23660.91
476.0550, 23666.75
476.5371, 23704.54
477.0192, 23742.47
477.5013, 23779.75
477.9834, 23809.98
478.4655, 23821.04
478.9477, 23824.37
479.4298, 23835.18
479.9119, 23864.97
480.3940, 23894.67
480.8761, 23904.48
481.3582, 23904.86
481.8404, 23925.99
482.3225, 23995.96
482.8046, 24073.85
483.2867, 24147.15
483.7688, 24222.82
484.2509, 24265.72
484.7331, 24248.97
485.2152, 24210.20
485.6973, 24182.35
486.1794, 24161.42
486.6615, 24160.74
487.1436, 24197.69
487.6258, 24257.11
488.1079, 24257.77
488.5900, 24176.68
489.0721, 24100.34
489.5542, 24083.79
490.0363, 24127.55
490.5185, 24151.75
491.0006, 24150.21
491.4827, 24142.28
491.9648, 24151.80
492.4470, 24176.86
492.9291, 24208.67
493.4112, 24252.50
493.8933, 24293.62
494.3754, 24299.69
494.8575, 24276.45
495.3397, 24259.65
495.8218, 24261.54
496.3039, 24287.71
496.7860, 24353.81
497.2681, 24477.17
497.7502, 24583.63
498.2324, 24635.21
498.7145, 24646.49
499.1966, 24638.18
499.6787, 24573.59
500.1608, 24533.16
500.6429, 24555.46
501.1251, 24636.01
501.6072, 24696.94
502.0893, 24719.78
502.5714, 24734.26
503.0535, 24756.29
503.5356, 24800.26
504.0178, 24813.92
504.4999, 24778.55
504.9820, 24729.85
505.4641, 24727.81
505.9462, 24783.32
506.4283, 24828.81
506.9105, 24844.20
507.3926, 24834.70
507.8747, 24815.35
508.3568, 24785.19
508.8389, 24761.70
509.3210, 24759.12
509.8032, 24772.92
510.2853, 24791.09
510.7674, 24812.37
511.2495, 24836.87
511.7316, 24872.77
512.2137, 24911.67
512.6959, 24936.08
513.1780, 24922.68
513.6601, 24906.05
514.1422, 24911.62
514.6243, 24936.22
515.1064, 24956.74
515.5886, 24966.89
516.0707, 24968.24
516.5528, 24960.52
517.0349, 24937.53
517.5170, 24918.27
517.9991, 24905.23
518.4813, 24896.74
518.9634, 24888.73
519.4455, 24864.04
519.9276, 24870.94
520.4097, 24931.40
520.8918, 25033.97
521.3740, 25108.13
521.8561, 25147.74
522.3382, 25179.17
522.8203, 25227.82
523.3024, 25290.41
523.7845, 25305.57
524.2667, 25257.93
524.7488, 25208.98
525.2309, 25247.22
525.7130, 25350.20
526.1951, 25439.07
526.6772, 25484.61
527.1594, 25505.65
527.6415, 25511.07
528.1236, 25506.45
528.6057, 25516.63
529.0878, 25557.23
529.5699, 25617.10
530.0521, 25698.68
530.5342, 25816.29
531.0163, 25894.32
531.4984, 25881.95
531.9805, 25829.94
532.4626, 25792.42
532.9448, 25783.67
533.4269, 25781.34
533.9090, 25784.65
534.3911, 25792.77
534.8732, 25803.56
535.3553, 25822.43
535.8375, 25833.87
536.3196, 25828.45
536.8017, 25804.99
537.2838, 25791.11
537.7659, 25790.64
538.2480, 25786.64
538.7302, 25751.45
539.2123, 25691.29
539.6944, 25655.22
540.1765, 25664.12
540.6586, 25682.74
541.1407, 25647.89
541.6229, 25576.51
542.1050, 25528.91
542.5871, 25563.95
543.0692, 25619.86
543.5513, 25643.53
544.0334, 25631.92
544.5156, 25605.21
544.9977, 25563.16
545.4798, 25515.38
545.9619, 25468.03
546.4440, 25396.37
546.9261, 25363.66
547.4083, 25413.44
547.8904, 25500.95
548.3725, 25543.21
548.8546, 25508.65
549.3367, 25481.25
549.8188, 25483.05
550.3010, 25511.45
550.7831, 25539.25
551.2652, 25570.00
551.7473, 25588.29
552.2294, 25566.85
552.7115, 25513.11
553.1937, 25512.18
553.6758, 25580.38
554.1579, 25661.72
554.6400, 25673.03
555.1221, 25639.83
555.6042, 25636.65
556.0864, 25718.56
556.5685, 25813.13
557.0506, 25839.44
557.5327, 25815.64
558.0148, 25808.65
558.4969, 25872.42
558.9791, 25947.15
559.4612, 25991.23
559.9433, 25991.11
560.4254, 26007.97
560.9075, 26066.27
561.3896, 26138.84
561.8718, 26201.47
562.3539, 26239.94
562.8360, 26293.23
563.3181, 26367.36
563.8002, 26455.89
564.2823, 26544.60
564.7645, 26631.52
565.2466, 26724.70
565.7287, 26830.40
566.2108, 26944.67
566.6929, 27041.62
567.1750, 27119.53
567.6572, 27201.94
568.1393, 27307.81
568.6214, 27431.12
569.1035, 27555.72
569.5856, 27678.92
570.0677, 27808.69
570.5499, 27959.85
571.0320, 28121.75
571.5141, 28278.52
571.9962, 28400.17
572.4783, 28539.60
572.9604, 28731.62
573.4426, 28963.64
573.9247, 29175.55
574.4068, 29337.96
574.8889, 29494.65
575.3710, 29665.58
575.8531, 29857.17
576.3353, 30015.24
576.8174, 30122.06
577.2995, 30219.42
577.7816, 30358.41
578.2637, 30545.57
578.7458, 30693.57
579.2280, 30782.62
579.7101, 30840.28
580.1922, 30925.77
580.6743, 31029.31
581.1564, 31095.69
581.6385, 31084.01
582.1207, 31029.04
582.6028, 30981.09
583.0849, 30935.94
583.5670, 30857.41
584.0491, 30689.88
584.5313, 30502.42
585.0134, 30359.08
585.4955, 30297.96
585.9776, 30188.60
586.4597, 29950.36
586.9418, 29666.99
587.4240, 29436.30
587.9061, 29288.44
588.3882, 29148.88
588.8703, 29014.92
589.3524, 28882.77
589.8345, 28739.18
590.3167, 28580.27
590.7988, 28423.75
591.2809, 28283.15
591.7630, 28153.39
592.2451, 28010.20
592.7272, 27852.74
593.2094, 27701.89
593.6915, 27561.28
594.1736, 27442.39
594.6557, 27378.58
595.1378, 27390.31
595.6199, 27397.65
596.1021, 27325.98
596.5842, 27216.23
597.0663, 27126.41
597.5485, 27080.47
598.0306, 27054.00
598.5127, 27052.61
598.9948, 27068.12
599.4769, 27065.26
599.9590, 27026.85
600.4412, 26987.98
600.9233, 26957.48
601.4054, 26934.64
601.8875, 26932.04
602.3696, 26957.68
602.8517, 26983.96
603.3339, 26984.23
603.8160, 26960.71
604.2981, 26938.48
604.7802, 26917.31
605.2623, 26909.33
605.7444, 26940.15
606.2266, 26997.86
606.7087, 27048.67
607.1908, 27072.99
607.6729, 27094.20
608.1550, 27138.35
608.6371, 27196.24
609.1193, 27239.45
609.6014, 27252.10
610.0835, 27250.77
610.5656, 27229.26
611.0477, 27178.31
611.5298, 27184.40
612.0120, 27300.25
612.4941, 27423.11
612.9762, 27482.48
613.4583, 27461.38
613.9404, 27434.80
614.4225, 27399.99
614.9047, 27370.42
615.3868, 27364.47
615.8689, 27381.50
616.3510, 27415.60
616.8331, 27472.93
617.3152, 27535.94
617.7974, 27576.43
618.2795, 27598.59
618.7616, 27620.91
619.2437, 27653.07
619.7258, 27689.40
620.2079, 27730.83
620.6901, 27776.84
621.1722, 27809.50
621.6543, 27814.15
622.1364, 27809.36
622.6185, 27807.38
623.1006, 27813.81
623.5828, 27809.33
624.0649, 27771.58
624.5470, 27743.42
625.0291, 27789.45
625.5112, 27929.91
625.9933, 28035.96
626.4755, 28081.08
626.9576, 28082.64
627.4397, 28059.35
627.9218, 28016.32
628.4039, 27992.69
628.8860, 28033.09
629.3682, 28090.75
629.8503, 28088.79
630.3324, 28036.38
630.8145, 28003.83
631.2966, 28066.68
631.7787, 28140.25
632.2609, 28157.00
632.7430, 28088.82
633.2251, 28041.08
633.7072, 28049.21
634.1893, 28077.13
634.6714, 28094.38
635.1536, 28090.18
635.6357, 28100.46
636.1178, 28133.27
636.5999, 28175.76
637.0820, 28205.48
637.5641, 28222.09
638.0463, 28228.98
638.5284, 28219.43
639.0105, 28207.75
639.4926, 28226.38
639.9747, 28271.36
640.4568, 28318.78
640.9390, 28357.96
641.4211, 28390.97
641.9032, 28416.18
642.3853, 28433.41
642.8674, 28458.15
643.3495, 28499.73
643.8317, 28548.81
644.3138, 28600.61
644.7959, 28662.27
645.2780, 28708.09
645.7601, 28712.07
646.2422, 28722.74
646.7244, 28814.24
647.2065, 29011.43
