##NAMES=Iranite
##RRUFFID=R060781
##IDEAL CHEMISTRY=Pb^2+^_10_Cu^2+^(Cr^6+^O_4_)_6_(SiO_4_)_2_(OH)_2_
##LOCALITY=Chapacase mine, Sierra Cerillos district, Tocopilla, Chile
##OWNER=RRUFF
##SOURCE=Michael Scott
##DESCRIPTION=Corroded aggregate of orange platy crystals associated with red wulfenite; structure type sample.
##STATUS=The identification of this mineral is confirmed by single-crystal X-ray diffraction and chemical analysis.
##URL=rruff.info/R060781
##MEASURED CHEMISTRY=Cu_1.00_Pb_10.00_((Cr_0.99_[box]_0.01_)_Σ=1_(O_3.82_(OH)_0.18_)_Σ=4_)_6_(Si_1.00_O_4_)_2_(OH)_2_
87.59052, 6621.415
88.07263, 7247.981
88.55475, 7850.123
89.03687, 8517.969
89.51898, 9275.592
90.00110, 10102.49
90.48322, 10966.66
90.96533, 11851.43
91.44745, 12754.01
91.92957, 13715.98
92.41168, 14760.43
92.89380, 15844.73
93.37592, 16951.60
93.85803, 18083.34
94.34015, 19250.79
94.82227, 20474.35
95.30438, 21763.63
95.78650, 23091.88
96.26862, 24462.60
96.75073, 25864.23
97.23285, 27284.47
97.71497, 28719.07
98.19708, 30178.31
98.67920, 31699.03
99.16132, 33356.41
99.64343, 34936.71
100.1255, 36419.39
100.6077, 37798.72
101.0898, 38929.31
101.5719, 39342.08
102.0540, 39310.20
102.5361, 39124.59
103.0182, 38812.69
103.5004, 38350.93
103.9825, 37707.38
104.4646, 36881.68
104.9467, 35924.40
105.4288, 34815.24
105.9109, 33603.70
106.3931, 32335.90
106.8752, 30984.82
107.3573, 29582.13
107.8394, 28262.16
108.3215, 27004.43
108.8036, 25851.24
109.2858, 24847.31
109.7679, 23960.34
110.2500, 23096.95
110.7321, 22148.87
111.2142, 21049.38
111.6964, 20102.91
112.1785, 19316.27
112.6606, 18644.27
113.1427, 18091.76
113.6248, 17648.28
114.1069, 17280.19
114.5891, 16931.88
115.0712, 16636.84
115.5533, 16316.14
116.0354, 15979.51
116.5175, 15615.75
116.9996, 15177.73
117.4818, 14631.98
117.9639, 13945.70
118.4460, 13851.53
118.9281, 13713.21
119.4102, 13533.48
119.8923, 13167.66
120.3745, 13057.90
120.8566, 12855.21
121.3387, 12655.32
121.8208, 12601.37
122.3029, 12298.10
122.7850, 12255.74
123.2672, 12118.85
123.7493, 12035.29
124.2314, 11858.14
124.7135, 11718.93
125.1956, 11687.12
125.6777, 11606.56
126.1599, 11445.42
126.6420, 11406.19
127.1241, 11168.39
127.6062, 11211.91
128.0883, 11283.03
128.5704, 11350.29
129.0526, 11362.15
129.5347, 11321.81
130.0168, 11257.12
130.4989, 11182.36
130.9810, 11093.59
131.4631, 11021.59
131.9453, 10980.56
132.4274, 10951.25
132.9095, 10936.77
133.3916, 10934.96
133.8737, 10921.40
134.3558, 10846.50
134.8380, 10648.92
135.3201, 10503.21
135.8022, 10448.16
136.2843, 10434.35
136.7664, 10415.29
137.2485, 10368.28
137.7307, 10307.18
138.2128, 10288.07
138.6949, 10374.79
139.1770, 10437.79
139.6591, 10443.34
140.1412, 10412.42
140.6234, 10382.20
141.1055, 10376.88
141.5876, 10396.56
142.0697, 10423.62
142.5518, 10469.19
143.0339, 10510.88
143.5161, 10535.43
143.9982, 10543.86
144.4803, 10547.67
144.9624, 10555.55
145.4445, 10568.11
145.9266, 10586.47
146.4088, 10610.06
146.8909, 10639.74
147.3730, 10678.12
147.8551, 10726.84
148.3372, 10778.83
148.8193, 10826.08
149.3015, 10869.16
149.7836, 10912.77
150.2657, 10961.51
150.7478, 11012.40
151.2299, 11058.67
151.7120, 11101.25
152.1942, 11134.22
152.6763, 11154.13
153.1584, 11160.96
153.6405, 11159.48
154.1226, 11153.30
154.6047, 11142.42
155.0869, 11124.25
155.5690, 11094.25
156.0511, 11058.14
156.5332, 11019.11
157.0153, 10977.87
157.4974, 10933.06
157.9796, 10884.85
158.4617, 10837.37
158.9438, 10773.30
159.4259, 10690.36
159.9080, 10591.28
160.3901, 10473.15
160.8723, 10333.24
161.3544, 10182.40
161.8365, 10054.46
162.3186, 9970.458
162.8007, 9884.328
163.2828, 9793.984
163.7650, 9696.256
164.2471, 9584.846
164.7292, 9454.840
165.2113, 9308.974
165.6934, 9182.447
166.1755, 9118.843
166.6577, 9029.407
167.1398, 8866.046
167.6219, 8656.753
168.1040, 8464.890
168.5861, 8345.028
169.0682, 8305.270
169.5504, 8235.020
170.0325, 8115.025
170.5146, 7988.070
170.9967, 7874.884
171.4788, 7776.488
171.9609, 7683.000
172.4431, 7583.750
172.9252, 7476.717
173.4073, 7378.263
173.8894, 7298.510
174.3715, 7222.027
174.8536, 7134.889
175.3358, 7034.439
175.8179, 6928.080
176.3000, 6819.719
176.7821, 6707.589
177.2642, 6614.399
177.7463, 6560.637
178.2285, 6525.475
178.7106, 6473.415
179.1927, 6392.799
179.6748, 6302.195
180.1569, 6225.795
180.6390, 6162.869
181.1212, 6102.863
181.6033, 6035.050
182.0854, 5964.136
182.5675, 5912.201
183.0496, 5895.391
183.5317, 5889.303
184.0139, 5866.607
184.4960, 5825.602
184.9781, 5779.585
185.4602, 5740.030
185.9423, 5707.123
186.4244, 5667.871
186.9066, 5606.978
187.3887, 5546.238
187.8708, 5503.475
188.3529, 5482.907
188.8350, 5473.408
189.3171, 5464.877
189.7993, 5459.711
190.2814, 5445.922
190.7635, 5420.798
191.2456, 5386.145
191.7277, 5338.537
192.2098, 5275.675
192.6920, 5208.391
193.1741, 5157.410
193.6562, 5127.742
194.1383, 5106.231
194.6204, 5099.332
195.1025, 5093.995
195.5847, 5076.851
196.0668, 5041.319
196.5489, 4991.709
197.0310, 4939.957
197.5131, 4871.025
197.9952, 4821.718
198.4774, 4814.388
198.9595, 4824.633
199.4416, 4819.330
199.9237, 4777.271
200.4058, 4706.384
200.8879, 4660.437
201.3701, 4672.856
201.8522, 4663.223
202.3343, 4653.040
202.8164, 4636.854
203.2985, 4615.090
203.7806, 4565.357
204.2628, 4556.083
204.7449, 4533.256
205.2270, 4511.693
205.7091, 4513.544
206.1912, 4477.644
206.6733, 4482.949
207.1555, 4474.458
207.6376, 4475.049
208.1197, 4461.986
208.6018, 4455.624
209.0839, 4466.715
209.5660, 4471.091
210.0482, 4463.829
210.5303, 4476.261
211.0124, 4463.332
211.4945, 4473.293
211.9766, 4490.724
212.4588, 4503.389
212.9409, 4510.162
213.4230, 4513.537
213.9051, 4513.109
214.3872, 4509.521
214.8693, 4507.119
215.3515, 4509.356
215.8336, 4516.968
216.3157, 4529.798
216.7978, 4559.326
217.2799, 4587.348
217.7620, 4591.633
218.2442, 4569.271
218.7263, 4547.088
219.2084, 4555.017
219.6905, 4592.846
220.1726, 4625.425
220.6547, 4644.909
221.1369, 4644.715
221.6190, 4682.662
222.1011, 4712.709
222.5832, 4735.280
223.0653, 4727.985
223.5474, 4759.255
224.0296, 4775.075
224.5117, 4790.257
224.9938, 4826.956
225.4759, 4824.005
225.9580, 4860.362
226.4401, 4881.028
226.9223, 4908.880
227.4044, 4921.177
227.8865, 4938.277
228.3686, 4970.933
228.8507, 4962.258
229.3328, 4977.080
229.8150, 5006.992
230.2971, 5040.175
230.7792, 5072.143
231.2613, 5101.359
231.7434, 5114.531
232.2255, 5096.735
232.7077, 5056.366
233.1898, 5020.822
233.6719, 4993.572
234.1540, 4972.143
234.6361, 4953.222
235.1182, 4937.040
235.6004, 4925.250
236.0825, 4924.139
236.5646, 4930.417
237.0467, 4925.490
237.5288, 4902.970
238.0109, 4873.360
238.4931, 4840.284
238.9752, 4805.605
239.4573, 4777.812
239.9394, 4768.824
240.4215, 4776.071
240.9036, 4772.216
241.3858, 4751.205
241.8679, 4721.436
242.3500, 4686.833
242.8321, 4648.307
243.3142, 4608.305
243.7963, 4566.840
244.2785, 4524.089
244.7606, 4487.464
245.2427, 4458.262
245.7248, 4435.472
246.2069, 4422.556
246.6890, 4416.972
247.1712, 4408.346
247.6533, 4384.456
248.1354, 4344.423
248.6175, 4313.554
249.0996, 4300.774
249.5817, 4290.403
250.0639, 4271.768
250.5460, 4247.340
251.0281, 4229.138
251.5102, 4232.358
251.9923, 4259.563
252.4744, 4275.244
252.9566, 4268.722
253.4387, 4258.484
253.9208, 4250.311
254.4029, 4244.912
254.8850, 4241.615
255.3671, 4237.607
255.8493, 4231.607
256.3314, 4237.947
256.8135, 4280.939
257.2956, 4316.025
257.7777, 4319.303
258.2598, 4296.673
258.7419, 4272.869
259.2241, 4273.020
259.7062, 4300.376
260.1883, 4316.071
260.6704, 4310.630
261.1525, 4300.459
261.6346, 4281.868
262.1168, 4261.262
262.5989, 4254.844
263.0810, 4282.939
263.5631, 4350.021
264.0452, 4395.211
264.5273, 4385.558
265.0095, 4381.930
265.4916, 4412.793
265.9737, 4468.996
266.4558, 4521.301
266.9379, 4529.390
267.4200, 4581.552
267.9022, 4625.819
268.3843, 4662.606
268.8664, 4669.524
269.3485, 4715.011
269.8306, 4745.040
270.3127, 4774.437
270.7949, 4825.356
271.2770, 4836.621
271.7591, 4887.192
272.2412, 4922.074
272.7233, 4964.136
273.2054, 4990.648
273.6876, 5021.969
274.1697, 5068.841
274.6518, 5107.097
275.1339, 5131.820
275.6160, 5174.338
276.0981, 5185.060
276.5803, 5223.689
277.0624, 5274.354
277.5445, 5299.856
278.0266, 5342.661
278.5087, 5387.710
278.9908, 5465.183
279.4730, 5527.142
279.9551, 5552.668
280.4372, 5583.730
280.9193, 5626.427
281.4014, 5680.981
281.8835, 5748.624
282.3657, 5832.514
282.8478, 5927.945
283.3299, 6004.857
283.8120, 6041.910
284.2941, 6084.156
284.7762, 6139.410
285.2584, 6204.680
285.7405, 6276.127
286.2226, 6352.366
286.7047, 6431.311
287.1868, 6506.821
287.6689, 6575.827
288.1511, 6644.268
288.6332, 6705.377
289.1153, 6768.679
289.5974, 6849.042
290.0795, 6954.359
290.5616, 7072.532
291.0438, 7164.409
291.5259, 7200.837
292.0080, 7254.775
292.4901, 7339.304
292.9722, 7442.551
293.4543, 7555.875
293.9365, 7675.790
294.4186, 7797.494
294.9007, 7910.208
295.3828, 8010.827
295.8649, 8108.146
296.3470, 8198.897
296.8292, 8289.802
297.3113, 8386.392
297.7934, 8490.943
298.2755, 8599.795
298.7576, 8705.253
299.2397, 8802.279
299.7219, 8908.642
300.2040, 9043.546
300.6861, 9175.387
301.1682, 9276.812
301.6503, 9343.896
302.1324, 9401.434
302.6146, 9485.515
303.0967, 9609.664
303.5788, 9718.426
304.0609, 9803.304
304.5430, 9877.892
305.0251, 9946.468
305.5073, 10010.76
305.9894, 10072.62
306.4715, 10133.22
306.9536, 10191.26
307.4357, 10254.00
307.9178, 10313.58
308.4000, 10384.54
308.8821, 10480.54
309.3642, 10596.83
309.8463, 10713.27
310.3284, 10803.17
310.8105, 10863.57
311.2927, 10970.15
311.7748, 11151.67
312.2569, 11356.86
312.7390, 11567.40
313.2211, 11785.94
313.7032, 12024.38
314.1854, 12288.41
314.6675, 12578.40
315.1496, 12892.41
315.6317, 13209.52
316.1138, 13584.12
316.5959, 14035.88
317.0781, 14551.62
317.5602, 15106.46
318.0423, 15688.51
318.5244, 16299.25
319.0065, 16941.15
319.4886, 17604.83
319.9708, 18321.36
320.4529, 19083.64
320.9350, 19901.01
321.4171, 20786.51
321.8992, 21761.03
322.3813, 22792.57
322.8635, 23806.92
323.3456, 24782.30
323.8277, 25820.58
324.3098, 26988.46
324.7919, 28220.99
325.2740, 29464.63
325.7562, 30697.48
326.2383, 31957.50
326.7204, 33304.64
327.2025, 34740.19
327.6846, 36209.41
328.1667, 37677.31
328.6489, 39186.37
329.1310, 40759.96
329.6131, 42398.69
330.0952, 44099.04
330.5773, 45901.54
331.0594, 47797.86
331.5416, 49575.37
332.0237, 51169.66
332.5058, 52655.17
332.9879, 54156.02
333.4700, 55662.30
333.9521, 57008.05
334.4343, 58091.57
334.9164, 58940.69
335.3985, 59635.23
335.8806, 60172.84
336.3628, 60582.29
336.8449, 60899.44
337.3270, 61125.33
337.8091, 61236.85
338.2912, 61126.21
338.7733, 60923.89
339.2555, 60849.93
339.7376, 60924.85
340.2197, 61086.08
340.7018, 61299.02
341.1839, 61566.11
341.6660, 61900.67
342.1482, 62358.33
342.6303, 62850.63
343.1124, 63301.36
343.5945, 63709.71
344.0766, 64090.98
344.5587, 64488.45
345.0409, 64843.10
345.5230, 65029.99
346.0051, 65039.78
346.4872, 64894.11
346.9693, 64579.08
347.4514, 64111.57
347.9336, 63543.34
348.4157, 62869.05
348.8978, 62136.68
349.3799, 61446.13
349.8620, 60791.98
350.3441, 60175.29
350.8263, 59616.31
351.3084, 59089.06
351.7905, 58554.17
352.2726, 57995.51
352.7547, 57437.17
353.2368, 56931.78
353.7190, 56536.77
354.2011, 56006.10
354.6832, 55296.86
355.1653, 54453.35
355.6474, 53519.24
356.1295, 52499.99
356.6117, 51365.48
357.0938, 50074.97
357.5759, 48600.72
358.0580, 47097.50
358.5401, 45532.61
359.0222, 43972.25
359.5044, 42426.88
359.9865, 40915.53
360.4686, 39442.24
360.9507, 38024.42
361.4328, 36657.86
361.9149, 35377.34
362.3971, 34141.57
362.8792, 33020.58
363.3613, 32054.44
363.8434, 31214.99
364.3255, 30453.70
364.8076, 29745.90
365.2898, 29107.90
365.7719, 28601.11
366.2540, 28263.76
366.7361, 28021.94
367.2182, 27906.71
367.7003, 27856.28
368.1825, 27825.83
368.6646, 27799.29
369.1467, 27773.83
369.6288, 27758.69
370.1109, 27792.86
370.5930, 27724.43
371.0752, 27512.76
371.5573, 27233.17
372.0394, 26918.39
372.5215, 26573.26
373.0036, 26191.52
373.4857, 25751.63
373.9679, 25252.58
374.4500, 24783.88
374.9321, 24322.89
375.4142, 23926.60
375.8963, 23612.37
376.3784, 23375.98
376.8606, 23205.77
377.3427, 23098.53
377.8248, 23050.88
378.3069, 23062.02
378.7890, 23150.04
379.2711, 23251.16
379.7533, 23364.87
380.2354, 23466.31
380.7175, 23530.31
381.1996, 23558.32
381.6817, 23526.81
382.1638, 23404.77
382.6460, 23192.60
383.1281, 22917.79
383.6102, 22551.50
384.0923, 22157.08
384.5744, 21804.46
385.0565, 21490.21
385.5387, 21239.19
386.0208, 21071.62
386.5029, 20977.03
386.9850, 20941.90
387.4671, 20978.16
387.9492, 21032.47
388.4314, 21058.70
388.9135, 21058.99
389.3956, 21012.98
389.8777, 20917.41
390.3598, 20772.93
390.8419, 20566.54
391.3241, 20301.73
391.8062, 20017.55
392.2883, 19732.17
392.7704, 19450.48
393.2525, 19203.27
393.7346, 18995.29
394.2168, 18814.92
394.6989, 18653.52
395.1810, 18516.14
395.6631, 18415.27
396.1452, 18359.65
396.6273, 18335.93
397.1095, 18309.42
397.5916, 18307.18
398.0737, 18265.18
398.5558, 18166.41
399.0379, 18034.41
399.5201, 17901.23
400.0022, 17770.11
400.4843, 17607.32
400.9664, 17370.31
401.4485, 17053.87
401.9306, 16676.02
402.4128, 16198.97
402.8949, 15700.58
403.3770, 15216.61
403.8591, 14744.29
404.3412, 14266.31
404.8233, 13770.46
405.3055, 13255.42
405.7876, 12737.09
406.2697, 12206.54
406.7518, 11682.61
407.2339, 11156.26
407.7160, 10641.87
408.1982, 10155.07
408.6803, 9704.087
409.1624, 9284.015
409.6445, 8894.276
410.1266, 8539.678
410.6087, 8196.231
411.0909, 7861.871
411.5730, 7538.282
412.0551, 7222.362
412.5372, 6915.052
413.0193, 6631.921
413.5014, 6394.866
413.9836, 6194.637
414.4657, 5991.325
414.9478, 5773.296
415.4299, 5567.773
415.9120, 5398.588
416.3941, 5259.230
416.8763, 5135.469
417.3584, 5038.286
417.8405, 4944.718
418.3226, 4825.175
418.8047, 4680.286
419.2868, 4543.496
419.7690, 4431.193
420.2511, 4341.878
420.7332, 4265.752
421.2153, 4214.847
421.6974, 4158.782
422.1795, 4079.050
422.6617, 3988.527
423.1438, 3909.095
423.6259, 3848.079
424.1080, 3796.932
424.5901, 3743.132
425.0722, 3684.248
425.5544, 3628.953
426.0365, 3575.204
426.5186, 3526.493
427.0007, 3488.285
427.4828, 3458.667
427.9649, 3430.063
428.4471, 3397.228
428.9292, 3360.075
429.4113, 3313.433
429.8934, 3241.491
430.3755, 3177.182
430.8576, 3129.815
431.3398, 3092.735
431.8219, 3057.866
432.3040, 3021.949
432.7861, 2983.407
433.2682, 2937.175
433.7503, 2879.267
434.2325, 2826.884
434.7146, 2782.155
435.1967, 2744.113
435.6788, 2718.951
436.1609, 2704.425
436.6430, 2682.014
437.1252, 2629.458
437.6073, 2554.303
438.0894, 2495.990
438.5715, 2460.508
439.0536, 2433.607
439.5357, 2406.197
440.0179, 2379.975
440.5000, 2344.477
440.9821, 2339.886
441.4642, 2327.906
441.9463, 2308.963
442.4284, 2260.664
442.9106, 2251.438
443.3927, 2227.274
443.8748, 2202.988
444.3569, 2200.729
444.8390, 2159.332
445.3211, 2157.755
445.8033, 2140.995
446.2854, 2131.932
446.7675, 2107.830
447.2496, 2089.041
447.7317, 2086.321
448.2138, 2075.498
448.6960, 2051.648
449.1781, 2046.111
449.6602, 2009.286
450.1423, 2000.876
450.6244, 2005.018
451.1065, 1984.510
451.5887, 1981.812
452.0708, 1973.039
452.5529, 1934.835
453.0350, 1949.215
453.5171, 1941.588
453.9992, 1911.348
454.4814, 1925.477
454.9635, 1899.448
455.4456, 1888.448
455.9277, 1888.885
456.4098, 1878.444
456.8919, 1886.471
457.3741, 1877.709
457.8562, 1870.277
458.3383, 1839.581
458.8204, 1850.667
459.3025, 1853.853
459.7846, 1849.563
460.2668, 1815.405
460.7489, 1819.815
461.2310, 1808.770
461.7131, 1797.090
462.1952, 1806.928
462.6773, 1777.115
463.1595, 1786.611
463.6416, 1780.416
464.1237, 1781.403
464.6058, 1766.838
465.0879, 1757.077
465.5700, 1745.761
466.0522, 1725.620
466.5343, 1716.345
467.0164, 1720.936
467.4985, 1732.957
467.9806, 1747.977
468.4627, 1766.658
468.9449, 1776.771
469.4270, 1774.917
469.9091, 1769.513
470.3912, 1761.070
470.8733, 1751.832
471.3554, 1744.625
471.8376, 1740.747
472.3197, 1740.341
472.8018, 1744.173
473.2839, 1754.745
473.7660, 1764.201
474.2481, 1770.941
474.7303, 1777.420
475.2124, 1783.176
475.6945, 1789.426
476.1766, 1800.572
476.6587, 1822.584
477.1408, 1853.152
477.6230, 1879.785
478.1051, 1885.422
478.5872, 1916.798
479.0693, 1940.276
479.5514, 1956.276
480.0335, 1942.411
480.5157, 1967.114
480.9978, 1976.360
481.4799, 1984.971
481.9620, 2015.100
482.4441, 2005.578
482.9262, 2035.366
483.4084, 2049.464
483.8905, 2070.742
484.3726, 2076.469
484.8547, 2086.999
485.3368, 2113.084
485.8189, 2111.302
486.3011, 2118.254
486.7832, 2123.433
487.2653, 2125.031
487.7474, 2122.100
488.2295, 2114.274
488.7116, 2099.991
489.1938, 2069.965
489.6759, 2044.770
490.1580, 2029.266
490.6401, 2017.059
491.1222, 2002.773
491.6043, 1985.103
492.0865, 1965.317
492.5686, 1944.460
493.0507, 1922.626
493.5328, 1899.644
494.0149, 1876.036
494.4970, 1850.486
494.9792, 1820.440
495.4613, 1788.595
495.9434, 1760.281
496.4255, 1739.742
496.9076, 1719.388
497.3897, 1688.317
497.8719, 1647.136
498.3540, 1606.635
498.8361, 1568.340
499.3182, 1534.328
499.8003, 1508.604
500.2824, 1491.002
500.7646, 1474.797
501.2467, 1459.281
501.7288, 1443.614
502.2109, 1429.790
502.6930, 1416.399
503.1751, 1393.528
503.6573, 1351.823
504.1394, 1296.540
504.6215, 1258.475
505.1036, 1253.842
505.5857, 1245.858
506.0678, 1224.037
506.5500, 1200.499
507.0321, 1187.990
507.5142, 1188.894
507.9963, 1196.115
508.4784, 1204.183
508.9605, 1214.036
509.4427, 1211.655
509.9248, 1186.073
510.4069, 1161.899
510.8890, 1152.967
511.3711, 1150.795
511.8532, 1139.474
512.3353, 1109.287
512.8174, 1076.854
513.2996, 1062.852
513.7817, 1066.211
514.2638, 1075.501
514.7459, 1092.906
515.2280, 1107.195
515.7101, 1098.930
516.1923, 1068.711
516.6744, 1048.199
517.1565, 1050.296
517.6386, 1060.321
518.1207, 1067.175
518.6028, 1070.475
519.0850, 1072.837
519.5671, 1075.577
520.0492, 1078.835
520.5313, 1083.095
521.0134, 1088.446
521.4955, 1094.815
521.9777, 1104.104
522.4598, 1113.104
522.9419, 1118.167
523.4240, 1119.675
523.9061, 1121.876
524.3882, 1129.865
524.8704, 1142.567
525.3525, 1148.420
525.8346, 1142.880
526.3167, 1138.818
526.7988, 1144.141
527.2809, 1152.408
527.7631, 1128.031
528.2452, 1140.833
528.7273, 1145.734
529.2094, 1143.159
529.6915, 1110.718
530.1736, 1116.844
530.6558, 1107.513
531.1379, 1097.549
531.6200, 1109.103
532.1021, 1081.006
532.5842, 1092.218
533.0663, 1087.739
533.5485, 1090.440
534.0306, 1077.592
534.5127, 1069.547
534.9948, 1077.057
535.4769, 1075.954
535.9590, 1061.403
536.4412, 1047.057
536.9233, 1011.023
537.4054, 983.0013
537.8875, 970.1442
538.3696, 958.0664
538.8517, 937.9737
539.3339, 913.5679
539.8160, 894.7074
540.2981, 887.5759
540.7802, 887.5599
541.2623, 888.6448
541.7444, 891.7953
542.2266, 885.1925
542.7087, 857.9605
543.1908, 826.6292
543.6729, 811.5240
544.1550, 813.0764
544.6371, 813.4639
545.1193, 803.7736
545.6014, 791.9517
546.0835, 786.7920
546.5656, 788.0424
547.0477, 791.1190
547.5298, 794.2634
548.0120, 795.8700
548.4941, 790.3990
548.9762, 764.2252
549.4583, 748.7265
549.9404, 755.9556
550.4225, 765.8035
550.9047, 760.4331
551.3868, 740.2568
551.8689, 719.0680
552.3510, 708.0822
552.8331, 705.9142
553.3152, 705.9005
553.7974, 710.6033
554.2795, 711.5302
554.7616, 699.5536
555.2437, 685.2851
555.7258, 680.5992
556.2079, 688.3806
556.6901, 695.3034
557.1722, 691.6378
557.6543, 681.9959
558.1364, 673.4435
558.6185, 666.8365
559.1006, 666.0793
559.5828, 676.4695
560.0649, 695.6307
560.5470, 704.4781
561.0291, 697.5142
561.5112, 688.8577
561.9933, 678.4369
562.4755, 669.4370
562.9576, 668.0860
563.4397, 674.1811
563.9218, 677.5216
564.4039, 664.2930
564.8860, 634.5165
565.3682, 620.9899
565.8503, 633.2813
566.3324, 647.7919
566.8145, 661.4484
567.2966, 670.2266
567.7787, 667.0315
568.2609, 648.3482
568.7430, 627.9879
569.2251, 617.5242
569.7072, 614.3290
570.1893, 609.8763
570.6714, 602.0459
571.1536, 598.9316
571.6357, 611.0130
572.1178, 635.9726
572.5999, 643.9207
573.0820, 618.7065
573.5641, 596.7831
574.0463, 592.3565
574.5284, 596.7989
575.0105, 598.2676
575.4926, 593.9697
575.9747, 590.1027
576.4568, 595.4060
576.9390, 610.9133
577.4211, 618.3547
577.9032, 614.6333
578.3853, 606.6236
578.8674, 591.5906
579.3495, 576.1524
579.8317, 570.1207
580.3138, 577.4009
580.7959, 587.8328
581.2781, 594.8334
581.7602, 597.9655
582.2423, 593.6758
582.7244, 580.0989
583.2065, 568.0100
583.6887, 567.5112
584.1708, 577.6151
584.6529, 582.9190
585.1350, 582.1639
585.6171, 578.5183
586.0992, 569.2693
586.5814, 559.2889
587.0635, 555.6813
587.5456, 559.6061
588.0277, 564.8866
588.5098, 563.5855
588.9919, 555.4820
589.4741, 555.6936
589.9562, 572.1274
590.4383, 584.6160
590.9204, 582.6365
591.4025, 574.6370
591.8846, 570.8988
592.3668, 574.0896
592.8489, 578.9253
593.3310, 583.2163
593.8131, 586.0234
594.2952, 584.6366
594.7773, 578.5928
595.2595, 570.3135
595.7416, 559.7058
596.2237, 548.2145
596.7058, 547.5935
597.1879, 569.8329
597.6700, 585.8597
598.1522, 586.8991
598.6343, 581.4940
599.1164, 577.9709
599.5985, 577.5519
600.0806, 576.0085
600.5627, 567.8709
601.0449, 555.0779
601.5270, 551.6506
602.0091, 560.8557
602.4912, 571.7128
602.9733, 584.4169
603.4554, 594.4104
603.9376, 594.4675
604.4197, 582.5084
604.9018, 574.8871
605.3839, 588.1996
605.8660, 606.1895
606.3481, 601.9995
606.8303, 576.7321
607.3124, 558.4954
607.7945, 566.0807
608.2766, 590.3399
608.7587, 601.1711
609.2408, 586.4954
609.7230, 575.5729
610.2051, 569.6948
610.6872, 566.7953
611.1693, 566.0115
611.6514, 566.9672
612.1335, 569.5375
612.6157, 574.6427
613.0978, 579.9942
613.5799, 579.0095
614.0620, 570.8531
614.5441, 566.6046
615.0262, 570.7210
615.5084, 578.4896
615.9905, 584.1483
616.4726, 587.7178
616.9547, 593.4690
617.4368, 606.8318
617.9189, 618.5347
618.4011, 619.4959
618.8832, 613.7574
619.3653, 612.3625
619.8474, 619.9170
620.3295, 629.4885
620.8116, 629.0132
621.2938, 615.9996
621.7759, 602.5375
622.2580, 583.0276
622.7401, 569.2883
623.2222, 566.8047
623.7043, 572.7430
624.1865, 582.9061
624.6686, 597.1616
625.1507, 596.9227
625.6328, 616.2381
626.1149, 627.6533
626.5970, 631.5926
627.0792, 605.6661
627.5613, 618.3052
628.0434, 615.4890
628.5255, 612.0390
629.0076, 630.1063
629.4897, 608.5234
629.9719, 626.2498
630.4540, 628.2843
630.9361, 637.5005
631.4182, 631.1658
631.9003, 629.6343
632.3824, 643.6585
632.8646, 649.0698
633.3467, 640.9448
633.8288, 650.6175
634.3109, 628.4915
634.7930, 634.2693
635.2751, 652.0862
635.7573, 644.7436
636.2394, 654.7005
636.7215, 637.4911
637.2036, 633.6870
637.6857, 632.9268
638.1678, 632.8300
638.6500, 629.6446
639.1321, 625.0495
639.6142, 625.7117
640.0963, 635.1791
640.5784, 647.8925
641.0605, 651.3680
641.5427, 638.6804
642.0248, 636.3997
642.5069, 654.8401
642.9890, 673.9190
643.4711, 689.3687
643.9532, 698.9544
644.4354, 697.5479
644.9175, 679.6472
645.3996, 660.9323
645.8817, 655.4334
646.3638, 660.8481
646.8459, 671.8038
647.3281, 687.6555
647.8102, 704.6242
648.2923, 720.2869
648.7744, 734.3546
649.2565, 743.9760
649.7386, 742.2947
650.2208, 745.2700
650.7029, 761.2220
651.1850, 778.7087
651.6671, 787.3265
652.1492, 786.3830
652.6313, 781.5748
653.1135, 775.2994
653.5956, 769.4263
654.0777, 770.2896
654.5598, 778.6886
655.0419, 785.2386
655.5240, 785.3116
656.0062, 784.0399
656.4883, 790.2037
656.9704, 804.4277
657.4525, 813.1923
657.9346, 808.7825
658.4167, 804.3231
658.8989, 808.7372
659.3810, 818.6062
659.8631, 827.2556
660.3452, 832.1924
660.8273, 834.5925
661.3094, 835.3239
661.7916, 834.1368
662.2737, 835.3444
662.7558, 840.7358
663.2379, 845.3504
663.7200, 846.6563
664.2021, 845.8181
664.6843, 844.1354
665.1664, 841.7054
665.6485, 838.7043
666.1306, 833.3510
666.6127, 828.5637
667.0948, 826.8402
667.5770, 828.9041
668.0591, 838.0032
668.5412, 857.4125
669.0233, 880.3876
669.5054, 886.8391
669.9875, 866.6994
670.4697, 854.2488
670.9518, 856.7952
671.4339, 862.6806
671.9160, 868.8707
672.3981, 873.9765
672.8802, 875.1446
673.3624, 869.2360
673.8445, 863.2564
674.3266, 864.5165
674.8087, 870.5626
675.2908, 874.6154
675.7729, 875.3561
676.2551, 877.5046
676.7372, 886.2587
677.2193, 900.2484
677.7014, 905.7612
678.1835, 888.3428
678.6656, 882.1729
679.1478, 901.1854
679.6299, 924.3706
680.1120, 933.9286
680.5941, 930.6863
681.0762, 928.7656
681.5583, 939.9095
682.0405, 954.4100
682.5226, 953.7878
683.0047, 940.3791
683.4868, 934.0295
683.9689, 941.6060
684.4510, 954.2443
684.9332, 961.6234
685.4153, 948.8392
685.8974, 972.8828
686.3795, 989.0262
686.8616, 997.6932
687.3438, 976.4962
687.8259, 993.8636
688.3080, 995.7749
688.7901, 997.0532
689.2722, 1019.849
689.7543, 1002.993
690.2365, 1025.449
690.7186, 1032.212
691.2007, 1046.156
691.6828, 1044.550
692.1649, 1047.746
692.6470, 1066.498
693.1292, 1076.639
693.6113, 1073.243
694.0934, 1087.643
694.5755, 1070.245
695.0576, 1080.751
695.5397, 1103.296
696.0219, 1100.683
696.5040, 1115.368
696.9861, 1123.464
697.4682, 1101.845
697.9503, 1106.199
698.4324, 1118.002
698.9146, 1124.244
699.3967, 1123.072
699.8788, 1124.373
700.3609, 1133.623
700.8430, 1147.384
701.3251, 1159.409
701.8073, 1169.542
702.2894, 1178.855
702.7715, 1187.300
703.2536, 1195.164
703.7357, 1203.177
704.2178, 1210.690
704.7000, 1215.828
705.1821, 1217.843
705.6642, 1220.086
706.1463, 1227.426
706.6284, 1239.552
707.1105, 1251.658
707.5927, 1263.628
708.0748, 1275.416
708.5569, 1287.959
709.0390, 1299.809
709.5211, 1306.949
710.0032, 1306.366
710.4854, 1310.174
710.9675, 1326.483
711.4496, 1342.850
711.9317, 1346.433
712.4138, 1342.918
712.8959, 1347.935
713.3781, 1368.917
713.8602, 1395.105
714.3423, 1410.727
714.8244, 1416.030
715.3065, 1421.704
715.7886, 1428.640
716.2708, 1434.849
716.7529, 1419.657
717.2350, 1449.925
717.7171, 1472.294
718.1992, 1487.188
718.6813, 1472.213
719.1635, 1495.810
719.6456, 1503.947
720.1277, 1511.450
720.6098, 1540.471
721.0919, 1529.842
721.5740, 1558.520
722.0562, 1571.512
722.5383, 1591.682
723.0204, 1596.300
723.5025, 1604.314
723.9846, 1610.975
724.4667, 1617.624
724.9489, 1625.311
725.4310, 1635.294
725.9131, 1651.291
726.3952, 1677.228
726.8773, 1700.062
727.3594, 1712.249
727.8416, 1725.291
728.3237, 1752.214
728.8058, 1786.365
729.2879, 1810.071
729.7700, 1814.740
730.2521, 1811.890
730.7343, 1813.075
731.2164, 1819.444
731.6985, 1845.360
732.1806, 1897.041
732.6627, 1945.435
733.1448, 1972.984
733.6270, 1985.520
734.1091, 1998.626
734.5912, 2012.063
735.0733, 2026.362
735.5554, 2039.174
736.0375, 2055.009
736.5197, 2078.596
737.0018, 2107.006
737.4839, 2135.071
737.9660, 2161.059
738.4481, 2182.561
738.9302, 2190.898
739.4124, 2191.626
739.8945, 2210.252
740.3766, 2250.012
740.8587, 2293.262
741.3408, 2331.879
741.8229, 2366.031
742.3051, 2395.187
742.7872, 2414.713
743.2693, 2439.491
743.7514, 2474.907
744.2335, 2509.861
744.7156, 2535.867
745.1978, 2558.856
745.6799, 2588.357
746.1620, 2627.214
746.6441, 2673.094
747.1262, 2730.823
747.6083, 2791.884
748.0905, 2832.542
748.5726, 2853.085
749.0547, 2876.726
749.5368, 2914.883
750.0189, 2961.655
750.5010, 3005.854
750.9832, 3045.548
751.4653, 3089.352
751.9474, 3141.088
752.4295, 3192.943
752.9116, 3239.870
753.3937, 3286.900
753.8759, 3340.794
754.3580, 3403.134
754.8401, 3468.154
755.3222, 3530.677
755.8043, 3594.654
756.2864, 3668.197
756.7686, 3748.274
757.2507, 3820.480
757.7328, 3879.016
758.2149, 3936.642
758.6970, 4012.178
759.1791, 4106.578
759.6613, 4198.779
760.1434, 4285.374
760.6255, 4375.938
761.1076, 4476.659
761.5897, 4580.745
762.0718, 4684.440
762.5540, 4787.017
763.0361, 4881.245
763.5182, 4947.715
764.0003, 5021.351
764.4824, 5134.516
764.9645, 5270.875
765.4467, 5397.477
765.9288, 5507.316
766.4109, 5617.876
766.8930, 5747.472
767.3751, 5892.251
767.8572, 6036.596
768.3394, 6178.804
768.8215, 6327.468
769.3036, 6491.181
769.7857, 6653.656
770.2678, 6793.821
770.7499, 6914.578
771.2321, 7042.700
771.7142, 7195.567
772.1963, 7336.825
772.6784, 7435.096
773.1605, 7530.433
773.6426, 7668.251
774.1248, 7846.744
774.6069, 8031.598
775.0890, 8206.396
775.5711, 8365.055
776.0532, 8486.827
776.5353, 8578.323
777.0175, 8685.141
777.4996, 8816.700
777.9817, 8954.170
778.4638, 9083.605
778.9459, 9207.898
779.4280, 9340.471
779.9102, 9488.626
780.3923, 9633.970
780.8744, 9764.202
781.3565, 9903.479
781.8386, 10070.29
782.3207, 10256.37
782.8029, 10441.01
783.2850, 10615.48
783.7671, 10795.61
784.2492, 10994.83
784.7313, 11207.40
785.2134, 11426.14
785.6956, 11649.95
786.1777, 11877.80
786.6598, 12108.60
787.1419, 12344.60
787.6240, 12586.68
788.1061, 12832.05
788.5883, 13094.46
789.0704, 13368.95
789.5525, 13669.75
790.0346, 14013.61
790.5167, 14382.25
790.9988, 14747.77
791.4810, 15101.56
791.9631, 15500.02
792.4452, 15986.63
792.9273, 16488.62
793.4094, 16942.86
793.8915, 17388.14
794.3737, 17882.59
794.8558, 18442.01
795.3379, 19056.25
795.8200, 19724.61
796.3021, 20436.31
796.7842, 21155.44
797.2664, 21884.72
797.7485, 22655.59
798.2306, 23475.24
798.7127, 24331.09
799.1948, 25214.89
799.6769, 26122.23
800.1591, 27066.33
800.6412, 28088.60
801.1233, 29092.92
801.6054, 30065.17
802.0875, 31030.94
802.5696, 32000.96
803.0518, 32984.98
803.5339, 33994.18
804.0160, 35049.17
804.4981, 36107.06
804.9802, 37168.89
805.4623, 38191.65
805.9445, 39101.18
806.4266, 39892.87
806.9087, 40609.36
807.3908, 41273.38
807.8729, 41873.44
808.3550, 42384.18
808.8372, 42800.55
809.3193, 43158.79
809.8014, 43482.53
810.2835, 43696.85
810.7656, 43745.30
811.2477, 43669.20
811.7299, 43550.18
812.2120, 43393.80
812.6941, 43173.73
813.1762, 42846.22
813.6583, 42495.86
814.1404, 42172.11
814.6226, 41849.42
815.1047, 41486.74
815.5868, 41075.12
816.0689, 40631.01
816.5510, 40135.83
817.0331, 39631.45
817.5153, 39202.21
817.9974, 38834.77
818.4795, 38458.78
818.9616, 38055.08
819.4437, 37649.48
819.9258, 37270.37
820.4080, 36915.79
820.8901, 36573.13
821.3722, 36232.56
821.8543, 35929.39
822.3364, 35658.23
822.8185, 35441.72
823.3007, 35296.59
823.7828, 35216.76
824.2649, 35187.47
824.7470, 35217.01
825.2291, 35276.25
825.7112, 35341.11
826.1934, 35440.81
826.6755, 35596.45
827.1576, 35811.45
827.6397, 36086.95
828.1218, 36423.53
828.6039, 36816.94
829.0861, 37276.04
829.5682, 37788.77
830.0503, 38287.35
830.5324, 38769.59
831.0145, 39323.84
831.4966, 39991.28
831.9788, 40736.60
832.4609, 41505.84
832.9430, 42303.83
833.4251, 43101.32
833.9072, 43870.93
834.3893, 44684.18
834.8715, 45577.38
835.3536, 46501.34
835.8357, 47416.53
836.3178, 48324.75
836.7999, 49245.63
837.2820, 50210.13
837.7642, 51155.00
838.2463, 52004.36
838.7284, 52840.13
839.2105, 53779.14
839.6926, 54809.80
840.1747, 55819.37
840.6569, 56746.84
841.1390, 57621.70
841.6211, 58504.86
842.1032, 59382.95
842.5853, 60196.34
843.0674, 60938.85
843.5496, 61644.16
844.0317, 62347.50
844.5138, 63004.28
844.9959, 63539.43
845.4780, 63941.38
845.9601, 64259.09
846.4423, 64518.21
846.9244, 64656.63
847.4065, 64603.56
847.8886, 64459.66
848.3707, 64321.63
848.8528, 64195.70
849.3350, 64045.55
849.8171, 63852.29
850.2992, 63639.03
850.7813, 63396.43
851.2634, 63154.79
851.7455, 62944.68
852.2277, 62778.06
852.7098, 62679.02
853.1919, 62673.41
853.6740, 62710.73
854.1561, 62693.52
854.6382, 62639.15
855.1204, 62656.55
855.6025, 62761.39
856.0846, 62883.91
856.5667, 63001.83
857.0488, 63076.40
857.5309, 63019.88
858.0131, 62800.70
858.4952, 62578.37
858.9773, 62409.81
859.4594, 62152.71
859.9415, 61731.80
860.4236, 61217.48
860.9058, 60699.67
861.3879, 60178.57
861.8700, 59546.48
862.3521, 58745.44
862.8342, 57860.83
863.3163, 56932.38
863.7985, 55947.20
864.2806, 54895.86
864.7627, 53778.58
865.2448, 52626.45
865.7269, 51464.97
866.2090, 50240.39
866.6912, 48847.53
867.1733, 47335.37
867.6554, 45850.09
868.1375, 44406.76
868.6196, 42925.07
869.1017, 41352.65
869.5839, 39756.13
870.0660, 38257.74
870.5481, 36869.87
871.0302, 35476.53
871.5123, 34044.41
871.9944, 32667.08
872.4766, 31383.88
872.9587, 30172.56
873.4408, 28995.62
873.9229, 27851.34
874.4050, 26828.38
874.8871, 25995.15
875.3693, 25203.07
875.8514, 24423.11
876.3335, 23650.57
876.8156, 22844.58
877.2977, 22037.45
877.7798, 21325.69
878.2620, 20758.77
878.7441, 20259.10
879.2262, 19760.34
879.7083, 19292.18
880.1904, 18913.75
880.6725, 18610.25
881.1547, 18317.29
881.6368, 18006.83
882.1189, 17704.25
882.6010, 17443.78
883.0831, 17222.75
883.5652, 17016.15
884.0474, 16826.23
884.5295, 16628.22
885.0116, 16410.64
885.4937, 16198.03
885.9758, 16017.24
886.4579, 15865.38
886.9401, 15712.70
887.4222, 15568.82
887.9043, 15406.64
888.3864, 15210.45
888.8685, 15007.96
889.3506, 14804.43
889.8328, 14606.55
890.3149, 14432.02
890.7970, 14295.19
891.2791, 14135.39
891.7612, 13919.18
892.2433, 13684.87
892.7255, 13436.42
893.2076, 13197.59
893.6897, 13009.21
894.1718, 12877.66
894.6539, 12771.83
895.1360, 12674.93
895.6182, 12584.01
896.1003, 12489.16
896.5824, 12397.70
897.0645, 12333.00
897.5466, 12298.37
898.0287, 12277.81
898.5109, 12257.31
898.9930, 12252.42
899.4751, 12305.18
899.9572, 12419.20
900.4393, 12538.82
900.9214, 12659.41
901.4036, 12795.03
901.8857, 12955.52
902.3678, 13131.15
902.8499, 13303.53
903.3320, 13469.78
903.8141, 13658.15
904.2963, 13880.81
904.7784, 14110.37
905.2605, 14343.79
905.7426, 14579.83
906.2247, 14812.52
906.7068, 15044.54
907.1890, 15288.45
907.6711, 15569.07
908.1532, 15819.37
908.6353, 16013.31
909.1174, 16160.68
909.5995, 16261.52
910.0817, 16325.35
910.5638, 16374.71
911.0459, 16416.57
911.5280, 16423.19
912.0101, 16375.74
912.4922, 16272.82
912.9744, 16095.51
913.4565, 15859.59
913.9386, 15621.79
914.4207, 15397.08
914.9028, 15161.84
915.3849, 14892.91
915.8671, 14601.93
916.3492, 14322.58
916.8313, 14056.30
917.3134, 13765.12
917.7955, 13434.29
918.2776, 13113.08
918.7598, 12837.42
919.2419, 12576.28
919.7240, 12269.95
920.2061, 11906.47
920.6882, 11548.33
921.1703, 11202.46
921.6525, 10853.82
922.1346, 10493.02
922.6167, 10131.76
923.0988, 9783.356
923.5809, 9446.153
924.0630, 9106.879
924.5452, 8765.271
925.0273, 8420.928
925.5094, 8066.008
925.9915, 7716.344
926.4736, 7389.208
926.9557, 7077.660
927.4379, 6760.551
927.9200, 6429.500
928.4021, 6125.633
928.8842, 5893.990
929.3663, 5690.912
929.8484, 5458.694
930.3306, 5213.836
930.8127, 4999.338
931.2948, 4823.203
931.7769, 4664.694
932.2590, 4510.343
932.7411, 4358.024
933.2233, 4196.574
933.7054, 4032.153
934.1875, 3907.498
934.6696, 3827.416
935.1517, 3752.176
935.6339, 3661.753
936.1160, 3563.617
936.5981, 3467.712
937.0802, 3373.670
937.5623, 3291.708
938.0444, 3224.249
938.5266, 3161.443
939.0087, 3101.983
939.4908, 3043.744
939.9729, 2983.330
940.4550, 2921.711
940.9371, 2866.406
941.4193, 2820.529
941.9014, 2776.400
942.3835, 2734.102
942.8656, 2693.094
943.3477, 2647.940
943.8298, 2606.236
944.3120, 2584.579
944.7941, 2586.660
945.2762, 2573.301
945.7583, 2517.499
946.2404, 2461.266
946.7225, 2426.604
947.2047, 2401.923
947.6868, 2375.590
948.1689, 2346.268
948.6510, 2316.508
949.1331, 2285.752
949.6152, 2259.941
950.0974, 2248.207
950.5795, 2241.575
951.0616, 2226.217
951.5437, 2204.868
952.0258, 2188.971
952.5079, 2181.843
952.9901, 2174.400
953.4722, 2156.306
953.9543, 2133.244
954.4364, 2120.156
954.9185, 2114.615
955.4006, 2102.262
955.8828, 2080.778
956.3649, 2058.134
956.8470, 2039.239
957.3291, 2022.371
957.8112, 2002.686
958.2933, 1979.583
958.7755, 1964.373
959.2576, 1958.603
959.7397, 1953.889
960.2218, 1948.781
960.7039, 1940.999
961.1860, 1930.301
961.6682, 1915.329
962.1503, 1879.634
962.6324, 1801.510
963.1145, 1748.037
963.5966, 1737.803
964.0787, 1737.576
964.5609, 1734.165
965.0430, 1727.432
965.5251, 1717.517
966.0072, 1704.992
966.4893, 1686.174
966.9714, 1657.466
967.4536, 1626.528
967.9357, 1590.051
968.4178, 1556.876
968.8999, 1537.238
969.3820, 1528.317
969.8641, 1517.753
970.3463, 1500.931
970.8284, 1484.642
971.3105, 1472.864
971.7926, 1462.086
972.2747, 1447.661
972.7568, 1432.753
973.2390, 1424.783
973.7211, 1424.460
974.2032, 1422.297
974.6853, 1411.647
975.1674, 1396.587
975.6495, 1377.751
976.1317, 1359.139
976.6138, 1333.464
977.0959, 1344.977
977.5780, 1348.589
978.0601, 1344.726
978.5422, 1310.998
979.0244, 1315.833
979.5065, 1305.215
979.9886, 1293.962
980.4707, 1304.227
980.9528, 1274.842
981.4349, 1284.766
981.9171, 1278.996
982.3992, 1280.411
982.8813, 1266.273
983.3634, 1256.939
983.8455, 1263.161
984.3276, 1260.770
984.8098, 1244.841
985.2919, 1246.712
985.7740, 1216.783
986.2561, 1214.759
986.7382, 1224.773
987.2203, 1209.628
987.7025, 1211.781
988.1846, 1207.348
988.6667, 1172.970
989.1488, 1190.667
989.6309, 1185.843
990.1130, 1157.896
990.5952, 1173.807
991.0773, 1149.048
991.5594, 1138.806
992.0415, 1139.490
992.5236, 1128.783
993.0057, 1136.035
993.4879, 1125.985
993.9700, 1114.392
994.4521, 1109.543
994.9342, 1085.581
995.4163, 1085.210
995.8984, 1089.431
996.3806, 1090.641
996.8627, 1083.274
997.3448, 1075.764
997.8269, 1073.447
998.3090, 1072.586
998.7911, 1066.588
999.2733, 1055.437
999.7554, 1049.356
1000.237, 1055.728
1000.720, 1061.874
1001.202, 1068.251
1001.684, 1067.629
1002.166, 1046.412
1002.648, 1015.306
1003.130, 997.9510
1003.612, 1001.370
1004.094, 1006.801
1004.577, 1001.278
1005.059, 996.2884
1005.541, 1006.235
1006.023, 1019.271
1006.505, 1016.517
1006.987, 999.7496
1007.469, 985.5682
1007.951, 982.4766
1008.433, 980.7283
1008.916, 971.6525
1009.398, 958.5911
1009.880, 941.8893
1010.362, 925.8791
1010.844, 922.3321
1011.326, 932.1236
1011.808, 941.7220
1012.290, 940.7006
1012.773, 936.0462
1013.255, 939.6620
1013.737, 947.0858
1014.219, 946.1646
1014.701, 937.7902
1015.183, 931.3171
1015.665, 930.2802
1016.147, 930.2958
1016.629, 926.2805
1017.112, 920.4030
1017.594, 920.1450
1018.076, 923.6934
1018.558, 919.1678
1019.040, 905.3634
1019.522, 891.9063
1020.004, 883.9346
1020.486, 879.3235
1020.969, 874.6563
1021.451, 870.3513
1021.933, 869.8882
1022.415, 873.2836
1022.897, 881.3214
1023.379, 895.5551
1023.861, 899.4788
1024.343, 878.4750
1024.825, 846.3633
1025.307, 839.0004
1025.790, 859.6970
1026.272, 860.3086
1026.754, 835.8484
1027.236, 816.9051
1027.718, 813.3162
1028.200, 816.7625
1028.682, 820.3143
1029.164, 823.8394
1029.647, 826.7571
1030.129, 828.9595
1030.611, 831.0922
1031.093, 833.6582
1031.575, 834.6851
1032.057, 832.4976
1032.539, 829.7623
1033.021, 829.7500
1033.504, 832.2754
1033.986, 834.9031
1034.468, 839.6711
1034.950, 839.3627
1035.432, 829.9690
1035.914, 821.0798
1036.396, 818.4373
1036.878, 818.2715
1037.360, 813.8247
1037.843, 804.2406
1038.325, 800.8920
1038.807, 810.2810
1039.289, 815.2784
1039.771, 813.3499
1040.253, 806.7775
1040.735, 792.4210
1041.217, 775.7609
1041.699, 768.3424
1042.182, 771.7397
1042.664, 777.4991
1043.146, 788.9413
1043.628, 798.0070
1044.110, 805.8242
1044.592, 807.9932
1045.074, 798.5786
1045.556, 781.2878
1046.039, 764.8373
1046.521, 746.0919
1047.003, 740.0493
1047.485, 765.7992
1047.967, 782.4163
1048.449, 767.2998
1048.931, 744.1208
1049.413, 734.8406
1049.896, 737.1904
1050.378, 737.7298
1050.860, 734.1486
1051.342, 729.6140
1051.824, 722.9357
1052.306, 717.5272
1052.788, 718.6160
1053.270, 719.2956
1053.752, 708.7482
1054.234, 689.3164
1054.717, 678.2256
1055.199, 685.8282
1055.681, 689.6747
1056.163, 682.3708
1056.645, 671.0363
1057.127, 654.2428
1057.609, 639.3231
1058.091, 640.1992
1058.574, 655.1386
1059.056, 657.6246
1059.538, 629.4529
1060.020, 603.7646
1060.502, 591.3967
1060.984, 585.6413
1061.466, 583.2571
1061.948, 583.6418
1062.431, 588.3849
1062.913, 597.0275
1063.395, 600.8988
1063.877, 590.0670
1064.359, 583.0043
1064.841, 591.5715
1065.323, 602.6102
1065.805, 608.9214
1066.287, 608.5394
1066.770, 596.0840
1067.252, 571.1630
1067.734, 554.8162
1068.216, 561.8984
1068.698, 571.3282
1069.180, 575.2755
1069.662, 575.3080
1070.144, 571.1351
1070.626, 564.7573
1071.109, 559.6866
1071.591, 556.7225
1072.073, 554.0875
1072.555, 552.0920
1073.037, 548.9171
1073.519, 541.1757
1074.001, 533.8303
1074.483, 532.3348
1074.966, 534.9322
1075.448, 537.6472
1075.930, 539.6926
1076.412, 537.6494
1076.894, 524.2789
1077.376, 513.2148
1077.858, 515.8698
1078.340, 521.6957
1078.823, 519.6322
1079.305, 511.6192
1079.787, 505.5451
1080.269, 503.7944
1080.751, 500.7064
1081.233, 489.6189
1081.715, 481.3401
1082.197, 484.8410
1082.679, 492.1608
1083.162, 496.3615
1083.644, 496.8036
1084.126, 493.1191
1084.608, 484.0062
1085.090, 480.1755
1085.572, 494.0040
1086.054, 505.2043
1086.536, 497.8385
1087.019, 485.6623
1087.501, 485.9310
1087.983, 494.1331
1088.465, 492.5700
1088.947, 474.8260
1089.429, 458.1543
1089.911, 446.5122
1090.393, 441.4663
1090.875, 450.2564
1091.358, 461.1172
1091.840, 458.9321
1092.322, 448.5645
1092.804, 448.3499
1093.286, 465.8445
1093.768, 477.7259
1094.250, 471.1243
1094.732, 462.3901
1095.214, 459.9440
1095.697, 459.0524
1096.179, 452.9737
1096.661, 444.2985
1097.143, 442.7161
1097.625, 452.8099
1098.107, 458.3842
1098.589, 447.8826
1099.071, 440.1261
1099.554, 448.1548
1100.036, 458.9125
1100.518, 460.2840
1101.000, 453.8591
1101.482, 445.2795
1101.964, 432.1062
1102.446, 431.1630
1102.928, 464.6994
1103.411, 487.4439
1103.893, 472.5199
1104.375, 447.6837
1104.857, 433.2450
1105.339, 429.5989
1105.821, 435.1685
1106.303, 453.5089
1106.785, 466.1870
1107.267, 469.4118
1107.750, 468.1215
1108.232, 460.4192
1108.714, 451.8299
1109.196, 446.6418
1109.678, 444.0013
1110.160, 440.8583
1110.642, 435.5750
1111.124, 435.4438
1111.606, 443.7449
1112.089, 453.2734
1112.571, 468.7732
1113.053, 478.9240
1113.535, 471.0084
1114.017, 453.0350
1114.499, 443.6005
1114.981, 444.7900
1115.463, 445.1829
1115.946, 444.1787
1116.428, 443.3842
1116.910, 443.1565
1117.392, 443.2504
1117.874, 445.2051
1118.356, 446.2483
1118.838, 439.3423
1119.320, 422.4584
1119.802, 414.1199
1120.285, 417.3424
1120.767, 422.5454
1121.249, 429.8065
1121.731, 435.3902
1122.213, 436.5890
1122.695, 435.2475
1123.177, 434.4643
1123.659, 434.2318
1124.141, 434.4420
1124.624, 434.2015
1125.106, 439.2152
1125.588, 453.6629
1126.070, 461.5326
1126.552, 452.0287
1127.034, 436.2399
1127.516, 430.7149
1127.998, 434.6327
1128.481, 439.9581
1128.963, 447.3687
1129.445, 446.4935
1129.927, 434.2148
1130.409, 430.1353
1130.891, 445.0758
1131.373, 463.8590
1131.855, 467.0834
1132.338, 458.3434
1132.820, 451.9334
1133.302, 447.9374
1133.784, 448.3373
1134.266, 453.1750
1134.748, 457.7875
1135.230, 460.3629
1135.712, 459.3141
1136.194, 451.7297
1136.677, 441.8022
1137.159, 440.7124
1137.641, 446.2574
1138.123, 449.1263
1138.605, 449.4484
1139.087, 454.0137
1139.569, 464.3669
1140.051, 471.1233
1140.533, 465.6579
1141.016, 455.5682
1141.498, 453.6130
1141.980, 455.3369
1142.462, 448.2698
1142.944, 436.9165
1143.426, 438.3779
1143.908, 454.3372
1144.390, 468.6008
1144.873, 471.4378
1145.355, 467.7047
1145.837, 458.4449
1146.319, 448.7146
1146.801, 442.5731
1147.283, 441.7961
1147.765, 453.4715
1148.247, 473.8334
1148.729, 484.7632
1149.212, 476.8338
1149.694, 466.8215
1150.176, 466.5397
1150.658, 467.6052
1151.140, 460.2543
1151.622, 452.7020
1152.104, 457.9455
1152.586, 471.9295
1153.068, 479.1441
1153.551, 474.4175
1154.033, 471.2904
1154.515, 477.6330
1154.997, 483.0731
1155.479, 479.8175
1155.961, 476.7221
1156.443, 486.0370
1156.925, 499.4064
1157.408, 496.7949
1157.890, 473.8269
1158.372, 459.9523
1158.854, 466.6496
1159.336, 471.4929
1159.818, 469.3949
1160.300, 465.8530
1160.782, 463.1672
1161.265, 461.2334
1161.747, 459.9757
1162.229, 459.3799
1162.711, 458.6360
1163.193, 454.6476
1163.675, 459.2225
1164.157, 481.2639
1164.639, 492.3216
1165.121, 475.1237
1165.604, 453.9325
1166.086, 455.3798
1166.568, 473.7320
1167.050, 485.8487
1167.532, 491.3558
1168.014, 492.8745
1168.496, 490.0624
1168.978, 487.3829
1169.460, 486.4398
1169.943, 482.1920
1170.425, 469.1536
1170.907, 455.9932
1171.389, 464.7204
1171.871, 490.0955
1172.353, 497.5107
1172.835, 489.2477
1173.317, 482.6658
1173.800, 481.2583
1174.282, 483.4760
1174.764, 474.2157
1175.246, 492.2073
1175.728, 502.2987
1176.210, 504.9144
1176.692, 477.6639
1177.174, 488.9794
1177.656, 484.8394
1178.139, 480.0655
1178.621, 496.8090
1179.103, 473.9024
1179.585, 490.3047
1180.067, 491.0157
1180.549, 498.9081
1181.031, 491.2496
1181.513, 488.3943
1181.995, 501.0950
1182.478, 505.1820
1182.960, 495.7334
1183.442, 504.0823
1183.924, 480.6325
1184.406, 485.0866
1184.888, 501.5799
1185.370, 492.9131
1185.852, 501.5464
1186.335, 503.5908
1186.817, 475.6918
1187.299, 499.8675
1187.781, 501.5226
1188.263, 480.0540
1188.745, 502.4453
1189.227, 484.1646
1189.709, 480.4013
1190.192, 487.5632
1190.674, 483.3360
1191.156, 497.0652
1191.638, 493.4957
1192.120, 488.3806
1192.602, 490.0105
1193.084, 472.5273
1193.566, 487.8387
1194.048, 478.7003
1194.531, 474.3911
1195.013, 477.9296
1195.495, 477.9124
1195.977, 468.2899
1196.459, 459.1559
1196.941, 462.8894
1197.423, 473.6979
1197.905, 472.9001
1198.387, 463.2339
1198.870, 460.1733
1199.352, 463.4453
1199.834, 464.4877
1200.316, 461.4677
1200.798, 461.0837
1201.280, 468.3933
1201.762, 477.1354
1202.244, 481.5262
1202.727, 481.0912
1203.209, 470.2641
1203.691, 456.5921
1204.173, 455.3415
1204.655, 464.4463
1205.137, 470.4799
1205.619, 468.7273
1206.101, 463.2107
1206.583, 453.0390
1207.066, 443.7981
1207.548, 436.9714
1208.030, 434.1114
1208.512, 439.7156
1208.994, 448.6481
1209.476, 451.4694
1209.958, 447.5995
1210.440, 446.6629
1210.922, 452.3580
1211.405, 457.4195
1211.887, 462.1969
1212.369, 464.9715
1212.851, 465.4009
1213.333, 463.1121
1213.815, 456.1090
1214.297, 447.0575
1214.779, 444.7772
1215.262, 450.4849
1215.744, 453.6883
1216.226, 453.7473
1216.708, 456.3087
1217.190, 463.3769
1217.672, 464.4957
1218.154, 452.7897
1218.636, 438.7914
1219.119, 437.3364
1219.601, 444.5865
1220.083, 451.5200
1220.565, 456.5048
1221.047, 450.9094
1221.529, 436.8190
1222.011, 425.0837
1222.493, 419.4340
1222.975, 420.1224
1223.458, 428.2961
1223.940, 439.7790
1224.422, 457.8456
1224.904, 470.2287
1225.386, 453.6743
1225.868, 428.3961
1226.350, 427.9485
1226.832, 448.0405
1227.314, 459.4977
1227.797, 452.9156
1228.279, 447.3260
1228.761, 452.2492
1229.243, 454.7165
1229.725, 449.3947
1230.207, 441.1296
1230.689, 426.8890
1231.171, 415.6922
1231.654, 427.1074
1232.136, 458.2156
1232.618, 458.0850
1233.100, 408.9633
1233.582, 383.7444
1234.064, 391.1526
1234.546, 402.9362
1235.028, 411.2439
1235.510, 417.4431
1235.993, 422.8047
1236.475, 426.1145
1236.957, 423.8647
1237.439, 417.1797
1237.921, 412.3379
1238.403, 409.3243
1238.885, 408.0291
1239.367, 408.5285
1239.849, 412.0451
1240.332, 418.8787
1240.814, 425.0213
1241.296, 425.5481
1241.778, 426.2151
1242.260, 438.5106
1242.742, 449.9339
1243.224, 441.8389
1243.706, 424.1584
1244.189, 416.2098
1244.671, 417.9861
1245.153, 412.3719
1245.635, 387.2247
1246.117, 379.6165
1246.599, 428.2597
1247.081, 458.1451
1247.563, 422.3035
1248.046, 379.6085
1248.528, 372.4018
1249.010, 384.5511
1249.492, 390.0949
1249.974, 389.3957
1250.456, 395.9158
1250.938, 414.9339
1251.420, 412.6987
1251.902, 382.2322
1252.385, 361.3633
1252.867, 363.4422
1253.349, 373.5294
1253.831, 380.2123
1254.313, 383.7837
1254.795, 384.2632
1255.277, 382.2392
1255.759, 378.7737
1256.241, 374.3864
1256.724, 367.1551
1257.206, 360.1564
1257.688, 367.6814
1258.170, 393.7588
1258.652, 413.9631
1259.134, 407.4601
1259.616, 396.7693
1260.098, 396.2027
1260.581, 398.0914
1261.063, 398.8204
1261.545, 396.5142
1262.027, 385.5528
1262.509, 369.2910
1262.991, 363.9345
1263.473, 375.2964
1263.955, 385.3969
1264.438, 396.6988
1264.920, 400.7428
1265.402, 392.9134
1265.884, 384.7834
##END=



