##NAMES=Jacobsite
##RRUFFID=R060780
##IDEAL CHEMISTRY=Mn^2+^Fe^3+^_2_O_4_
##LOCALITY=Jakobsberg, Sweden
##OWNER=RRUFF
##SOURCE=Michael Scott
##DESCRIPTION=Black grains
##STATUS=The identification of this mineral is confirmed by single-crystal X-ray diffraction and chemical analysis.
##URL=rruff.info/R060780
##MEASURED CHEMISTRY=(Mn^2+^_0.75_Mg_0.25_)_Σ=1_(Fe^3+^_1.92_Mn^3+^_0.08_)_Σ=2_O_4_
126.831, 1284.008
127.313, 1312.276
127.795, 1357.875
128.277, 1429.521
128.760, 1525.318
129.242, 1633.789
129.724, 1741.738
130.206, 1848.499
130.688, 1959.224
131.170, 2086.888
131.652, 2210.599
132.134, 2311.402
132.616, 2386.501
133.098, 2451.570
133.581, 2526.690
134.063, 2618.318
134.545, 2701.631
135.027, 2776.860
135.509, 2842.917
135.991, 2903.801
136.473, 2961.302
136.955, 2999.554
137.438, 2988.735
137.920, 2922.135
138.402, 2841.742
138.884, 2747.596
139.366, 2645.698
139.848, 2541.360
140.330, 2434.548
140.812, 2332.329
141.294, 2243.350
141.777, 2161.236
142.259, 2108.487
142.741, 2097.855
143.223, 2122.095
143.705, 2168.118
144.187, 2237.075
144.669, 2319.184
145.151, 2401.724
145.633, 2487.144
146.116, 2563.024
146.598, 2620.316
147.080, 2662.516
147.562, 2701.039
148.044, 2733.612
148.526, 2771.432
149.008, 2827.804
149.490, 2904.827
149.973, 2990.585
150.455, 3092.655
150.937, 3205.893
151.419, 3285.561
151.901, 3313.340
152.383, 3301.356
152.865, 3263.758
153.347, 3196.362
153.829, 3125.370
154.312, 3075.282
154.794, 3046.067
155.276, 3008.437
155.758, 2949.563
156.240, 2880.168
156.722, 2806.681
157.204, 2727.540
157.686, 2656.564
158.169, 2609.257
158.651, 2586.985
159.133, 2574.534
159.615, 2577.700
160.097, 2583.373
160.579, 2583.765
161.061, 2578.168
161.543, 2561.696
162.025, 2522.992
162.508, 2456.507
162.990, 2397.758
163.472, 2354.543
163.954, 2324.891
164.436, 2310.129
164.918, 2311.229
165.400, 2322.689
165.882, 2340.590
166.365, 2369.292
166.847, 2388.300
167.329, 2385.222
167.811, 2374.849
168.293, 2368.901
168.775, 2371.203
169.257, 2373.964
169.739, 2363.916
170.221, 2336.279
170.704, 2309.345
171.186, 2287.000
171.668, 2266.640
172.150, 2246.059
172.632, 2224.461
173.114, 2203.601
173.596, 2186.948
174.078, 2176.564
174.561, 2165.394
175.043, 2151.662
175.525, 2137.000
176.007, 2123.932
176.489, 2113.180
176.971, 2101.170
177.453, 2079.653
177.935, 2041.096
178.417, 2009.652
178.900, 1992.207
179.382, 1979.985
179.864, 1966.344
180.346, 1949.013
180.828, 1929.621
181.310, 1910.819
181.792, 1890.793
182.274, 1875.476
182.757, 1866.421
183.239, 1860.865
183.721, 1856.477
184.203, 1852.492
184.685, 1849.960
185.167, 1851.863
185.649, 1864.001
186.131, 1868.835
186.613, 1860.751
187.096, 1848.475
187.578, 1838.203
188.060, 1832.080
188.542, 1829.117
189.024, 1828.150
189.506, 1832.551
189.988, 1832.146
190.470, 1828.672
190.952, 1819.812
191.435, 1800.781
191.917, 1771.031
192.399, 1738.407
192.881, 1716.884
193.363, 1713.048
193.845, 1707.989
194.327, 1698.808
194.809, 1689.513
195.292, 1683.613
195.774, 1681.841
196.256, 1681.715
196.738, 1680.347
197.220, 1682.451
197.702, 1672.676
198.184, 1639.347
198.666, 1603.874
199.148, 1581.772
199.631, 1576.219
200.113, 1579.229
200.595, 1579.997
201.077, 1579.795
201.559, 1573.992
202.041, 1559.838
202.523, 1543.250
203.005, 1528.258
203.488, 1515.478
203.970, 1502.619
204.452, 1485.476
204.934, 1458.501
205.416, 1442.120
205.898, 1444.166
206.380, 1448.783
206.862, 1446.881
207.344, 1437.354
207.827, 1424.750
208.309, 1413.562
208.791, 1402.413
209.273, 1397.781
209.755, 1407.333
210.237, 1416.207
210.719, 1415.541
211.201, 1405.723
211.684, 1393.355
212.166, 1385.051
212.648, 1381.256
213.130, 1379.636
213.612, 1379.019
214.094, 1381.350
214.576, 1391.135
215.058, 1405.738
215.540, 1417.188
216.023, 1417.598
216.505, 1405.850
216.987, 1393.403
217.469, 1373.885
217.951, 1359.622
218.433, 1358.329
218.915, 1366.693
219.397, 1375.338
219.880, 1375.841
220.362, 1367.975
220.844, 1368.536
221.326, 1392.197
221.808, 1410.153
222.290, 1412.533
222.772, 1403.349
223.254, 1390.835
223.736, 1379.698
224.219, 1370.375
224.701, 1368.077
225.183, 1379.356
225.665, 1391.180
226.147, 1402.047
226.629, 1411.407
227.111, 1418.698
227.593, 1423.475
228.076, 1426.163
228.558, 1428.678
229.040, 1428.860
229.522, 1431.956
230.004, 1444.672
230.486, 1458.838
230.968, 1463.261
231.450, 1451.701
231.932, 1430.776
232.415, 1419.488
232.897, 1424.017
233.379, 1428.420
233.861, 1430.077
234.343, 1430.330
234.825, 1430.479
235.307, 1431.018
235.789, 1431.644
236.271, 1431.568
236.754, 1429.836
237.236, 1429.618
237.718, 1431.795
238.200, 1435.162
238.682, 1439.294
239.164, 1443.998
239.646, 1448.391
240.128, 1450.427
240.611, 1448.343
241.093, 1450.170
241.575, 1460.703
242.057, 1472.598
242.539, 1482.401
243.021, 1489.379
243.503, 1493.798
243.985, 1495.448
244.467, 1494.058
244.950, 1492.250
245.432, 1486.644
245.914, 1483.907
246.396, 1489.432
246.878, 1501.901
247.360, 1514.207
247.842, 1519.217
248.324, 1517.275
248.807, 1518.958
249.289, 1526.249
249.771, 1535.391
250.253, 1544.806
250.735, 1554.422
251.217, 1564.423
251.699, 1577.052
252.181, 1590.379
252.663, 1595.107
253.146, 1584.770
253.628, 1577.282
254.110, 1584.292
254.592, 1599.610
255.074, 1612.733
255.556, 1617.601
256.038, 1618.386
256.520, 1624.428
257.003, 1638.172
257.485, 1649.157
257.967, 1647.802
258.449, 1642.046
258.931, 1641.551
259.413, 1650.525
259.895, 1663.043
260.377, 1673.296
260.859, 1681.381
261.341, 1685.535
261.824, 1679.003
262.306, 1671.717
262.788, 1677.637
263.270, 1702.467
263.752, 1727.305
264.234, 1734.463
264.716, 1726.769
265.198, 1724.395
265.681, 1735.877
266.163, 1752.494
266.645, 1761.366
267.127, 1761.155
267.609, 1763.482
268.091, 1776.599
268.573, 1796.265
269.055, 1811.986
269.538, 1820.441
270.020, 1827.205
270.502, 1839.564
270.984, 1856.923
271.466, 1874.062
271.948, 1890.244
272.430, 1905.135
272.912, 1916.545
273.394, 1923.829
273.877, 1934.527
274.359, 1958.764
274.841, 1995.985
275.323, 2021.218
275.805, 2025.132
276.287, 2022.684
276.769, 2019.979
277.251, 2019.033
277.733, 2028.907
278.216, 2058.872
278.698, 2105.522
279.180, 2138.373
279.662, 2148.081
280.144, 2155.914
280.626, 2169.659
281.108, 2187.938
281.590, 2207.480
282.073, 2226.721
282.555, 2245.943
283.037, 2265.842
283.519, 2284.367
284.001, 2306.007
284.483, 2335.133
284.965, 2366.089
285.447, 2392.125
285.930, 2410.974
286.412, 2424.888
286.894, 2437.482
287.376, 2447.708
287.858, 2458.515
288.340, 2468.129
288.822, 2479.469
289.304, 2496.950
289.786, 2519.685
290.268, 2540.764
290.751, 2551.361
291.233, 2547.671
291.715, 2554.703
292.197, 2579.101
292.679, 2607.019
293.161, 2638.984
293.643, 2670.434
294.125, 2691.759
294.608, 2693.822
295.090, 2679.769
295.572, 2677.866
296.054, 2698.178
296.536, 2718.688
297.018, 2733.250
297.500, 2745.267
297.982, 2760.648
298.465, 2782.805
298.947, 2806.116
299.429, 2816.358
299.911, 2806.462
300.393, 2801.886
300.875, 2812.514
301.357, 2827.884
301.839, 2839.670
302.321, 2846.000
302.804, 2851.978
303.286, 2865.654
303.768, 2887.525
304.250, 2900.868
304.732, 2897.727
305.214, 2890.337
305.696, 2884.529
306.178, 2881.264
306.660, 2885.278
307.143, 2906.937
307.625, 2938.319
308.107, 2953.195
308.589, 2943.708
309.071, 2933.233
309.553, 2943.723
310.035, 2966.925
310.517, 2983.853
311.000, 2985.262
311.482, 2980.555
311.964, 2978.398
312.446, 2978.843
312.928, 2983.363
313.410, 2995.492
313.892, 3011.178
314.374, 3018.540
314.857, 3007.436
315.339, 3002.928
315.821, 3025.590
316.303, 3063.989
316.785, 3089.500
317.267, 3090.249
317.749, 3079.691
318.231, 3082.901
318.713, 3106.714
319.195, 3124.717
319.678, 3128.402
320.160, 3127.724
320.642, 3130.985
321.124, 3140.033
321.606, 3155.180
322.088, 3178.196
322.570, 3211.749
323.052, 3235.966
323.535, 3238.573
324.017, 3244.761
324.499, 3268.509
324.981, 3305.760
325.463, 3344.681
325.945, 3377.840
326.427, 3405.690
326.909, 3430.940
327.392, 3449.376
327.874, 3470.319
328.356, 3498.588
328.838, 3528.285
329.320, 3551.467
329.802, 3565.317
330.284, 3576.831
330.766, 3599.558
331.248, 3639.577
331.731, 3671.713
332.213, 3687.487
332.695, 3699.550
333.177, 3715.357
333.659, 3734.921
334.141, 3753.260
334.623, 3766.321
335.105, 3774.334
335.587, 3778.817
336.070, 3776.425
336.552, 3775.957
337.034, 3785.649
337.516, 3800.304
337.998, 3809.929
338.480, 3812.908
338.962, 3806.925
339.444, 3784.801
339.927, 3745.088
340.409, 3706.887
340.891, 3676.062
341.373, 3653.599
341.855, 3641.397
342.337, 3644.542
342.819, 3645.520
343.301, 3634.337
343.784, 3613.629
344.266, 3590.083
344.748, 3565.734
345.230, 3537.741
345.712, 3501.387
346.194, 3455.228
346.676, 3408.432
347.158, 3354.161
347.640, 3304.729
348.122, 3275.281
348.605, 3263.834
349.087, 3252.318
349.569, 3226.988
350.051, 3188.223
350.533, 3145.979
351.015, 3090.637
351.497, 3042.990
351.979, 3012.517
352.462, 2992.778
352.944, 2976.237
353.426, 2959.668
353.908, 2940.065
354.390, 2909.617
354.872, 2857.879
355.354, 2815.363
355.836, 2787.937
356.319, 2765.335
356.801, 2741.821
357.283, 2716.278
357.765, 2689.976
358.247, 2663.876
358.729, 2638.032
359.211, 2611.879
359.693, 2584.561
360.175, 2557.998
360.658, 2532.012
361.140, 2507.473
361.622, 2486.325
362.104, 2470.653
362.586, 2456.942
363.068, 2440.562
363.550, 2421.732
364.032, 2397.472
364.514, 2360.164
364.997, 2321.398
365.479, 2297.901
365.961, 2293.920
366.443, 2287.729
366.925, 2264.229
367.407, 2230.538
367.889, 2201.639
368.371, 2180.513
368.853, 2163.705
369.336, 2148.795
369.818, 2135.963
370.300, 2120.490
370.782, 2097.341
371.264, 2075.488
371.746, 2062.576
372.228, 2056.550
372.711, 2050.072
373.193, 2039.102
373.675, 2024.006
374.157, 2006.169
374.639, 1979.096
375.121, 1957.447
375.603, 1944.479
376.085, 1936.221
376.567, 1930.143
377.049, 1925.007
377.532, 1918.507
378.014, 1907.829
378.496, 1892.599
378.978, 1874.635
379.460, 1842.207
379.942, 1818.301
380.424, 1818.915
380.906, 1834.737
381.389, 1844.312
381.871, 1833.034
382.353, 1809.846
382.835, 1798.573
383.317, 1803.751
383.799, 1804.785
384.281, 1787.299
384.763, 1765.593
385.246, 1754.208
385.728, 1756.331
386.210, 1760.526
386.692, 1757.020
387.174, 1749.020
387.656, 1748.728
388.138, 1761.084
388.620, 1772.025
389.102, 1763.474
389.585, 1737.141
390.067, 1719.980
390.549, 1718.453
391.031, 1724.215
391.513, 1734.180
391.995, 1746.749
392.477, 1757.728
392.959, 1764.606
393.441, 1768.591
393.924, 1773.661
394.406, 1785.995
394.888, 1791.246
395.370, 1777.701
395.852, 1763.313
396.334, 1768.652
396.816, 1794.977
397.298, 1822.733
397.780, 1828.843
398.263, 1810.373
398.745, 1800.356
399.227, 1807.867
399.709, 1814.491
400.191, 1812.385
400.673, 1805.946
401.155, 1803.441
401.638, 1809.732
402.120, 1818.890
402.602, 1818.883
403.084, 1807.861
403.566, 1802.368
404.048, 1808.777
404.530, 1821.352
405.012, 1836.730
405.494, 1854.966
405.977, 1867.024
406.459, 1864.243
406.941, 1853.929
407.423, 1846.613
407.905, 1843.195
408.387, 1847.618
408.869, 1867.047
409.351, 1897.936
409.833, 1913.432
410.316, 1896.326
410.798, 1883.800
411.280, 1895.914
411.762, 1920.205
412.244, 1934.076
412.726, 1929.732
413.208, 1920.763
413.690, 1929.850
414.172, 1966.314
414.655, 1996.573
415.137, 2018.019
415.619, 2036.944
416.101, 2056.855
416.583, 2077.085
417.065, 2094.946
417.547, 2108.401
418.029, 2118.692
418.512, 2129.286
418.994, 2138.803
419.476, 2152.186
419.958, 2171.215
420.440, 2194.681
420.922, 2223.499
421.404, 2258.063
421.886, 2291.510
422.368, 2317.958
422.851, 2339.337
423.333, 2361.116
423.815, 2383.551
424.297, 2407.625
424.779, 2435.178
425.261, 2465.344
425.743, 2493.482
426.225, 2515.350
426.708, 2538.988
427.190, 2571.197
427.672, 2608.315
428.154, 2641.015
428.636, 2665.687
429.118, 2687.697
429.600, 2717.089
430.082, 2758.909
430.565, 2796.729
431.047, 2829.266
431.529, 2859.773
432.011, 2889.544
432.493, 2918.934
432.975, 2948.187
433.457, 2976.817
433.939, 3005.692
434.421, 3038.597
434.904, 3078.406
435.386, 3115.558
435.868, 3147.232
436.350, 3175.317
436.832, 3199.814
437.314, 3220.594
437.796, 3242.878
438.278, 3272.471
438.760, 3306.558
439.243, 3334.366
439.725, 3352.422
440.207, 3376.037
440.689, 3420.817
441.171, 3482.365
441.653, 3532.571
442.135, 3564.466
442.617, 3591.726
443.099, 3620.730
443.582, 3649.461
444.064, 3673.419
444.546, 3691.085
445.028, 3705.450
445.510, 3720.685
445.992, 3736.977
446.474, 3753.470
446.957, 3767.882
447.439, 3784.581
447.921, 3807.828
448.403, 3834.752
448.885, 3859.275
449.367, 3877.852
449.849, 3892.754
450.331, 3910.252
450.813, 3932.246
451.296, 3948.682
451.778, 3956.998
452.260, 3958.891
452.742, 3950.427
453.224, 3932.995
453.706, 3926.410
454.188, 3951.122
454.670, 3988.351
455.152, 4008.661
455.635, 4010.704
456.117, 4007.321
456.599, 4004.947
457.081, 4003.217
457.563, 4000.559
458.045, 3991.482
458.527, 3989.565
459.009, 4006.350
459.491, 4026.559
459.974, 4032.739
460.456, 4022.999
460.938, 4009.117
461.420, 4003.354
461.902, 4005.690
462.384, 3999.311
462.866, 3978.190
463.348, 3955.592
463.831, 3935.703
464.313, 3915.989
464.795, 3891.580
465.277, 3860.714
465.759, 3831.949
466.241, 3817.698
466.723, 3815.637
467.205, 3805.313
467.687, 3781.131
468.170, 3754.764
468.652, 3740.167
469.134, 3732.269
469.616, 3711.691
470.098, 3661.446
470.580, 3611.414
471.062, 3581.411
471.544, 3565.358
472.026, 3550.238
472.509, 3531.733
472.991, 3509.280
473.473, 3481.219
473.955, 3442.157
474.437, 3414.491
474.919, 3405.933
475.401, 3399.196
475.883, 3386.702
476.366, 3370.067
476.848, 3354.890
477.330, 3344.888
477.812, 3334.318
478.294, 3309.024
478.776, 3265.381
479.258, 3230.550
479.740, 3212.835
480.223, 3203.181
480.705, 3197.295
481.187, 3193.900
481.669, 3184.240
482.151, 3157.573
482.633, 3128.067
483.115, 3115.114
483.597, 3115.714
484.079, 3107.752
484.561, 3078.237
485.044, 3040.115
485.526, 3021.752
486.008, 3039.928
486.490, 3047.802
486.972, 3036.741
487.454, 3021.938
487.936, 3015.606
488.418, 3015.328
488.901, 3009.402
489.383, 2988.785
489.865, 2958.943
490.347, 2938.104
490.829, 2929.196
491.311, 2920.777
491.793, 2909.425
492.275, 2898.043
492.758, 2888.443
493.240, 2880.732
493.722, 2874.836
494.204, 2875.404
494.686, 2875.544
495.168, 2860.759
495.650, 2831.790
496.132, 2809.965
496.614, 2810.605
497.097, 2822.290
497.579, 2811.709
498.061, 2756.479
498.543, 2720.300
499.025, 2728.516
499.507, 2743.721
499.989, 2733.696
500.471, 2699.977
500.953, 2664.821
501.436, 2644.473
501.918, 2635.843
502.400, 2624.996
502.882, 2609.034
503.364, 2597.750
503.846, 2597.980
504.328, 2600.904
504.810, 2600.262
505.293, 2595.506
505.775, 2589.152
506.257, 2581.282
506.739, 2573.241
507.221, 2567.839
507.703, 2565.063
508.185, 2560.615
508.667, 2550.993
509.150, 2539.384
509.632, 2535.640
510.114, 2550.122
510.596, 2553.734
511.078, 2531.427
511.560, 2506.736
512.042, 2499.625
512.524, 2508.720
513.006, 2520.308
513.489, 2525.079
513.971, 2524.090
514.453, 2519.487
514.935, 2506.961
515.417, 2503.042
515.899, 2523.823
516.381, 2546.060
516.863, 2548.504
517.346, 2531.414
517.828, 2519.226
518.310, 2529.926
518.792, 2548.658
519.274, 2555.035
519.756, 2549.888
520.238, 2545.042
520.720, 2545.707
521.202, 2551.424
521.685, 2561.781
522.167, 2584.101
522.649, 2597.236
523.131, 2593.369
523.613, 2587.202
524.095, 2586.342
524.577, 2591.282
525.059, 2601.132
525.541, 2616.425
526.024, 2633.194
526.506, 2641.314
526.988, 2638.920
527.470, 2639.147
527.952, 2645.034
528.434, 2654.222
528.916, 2665.348
529.398, 2678.114
529.880, 2690.092
530.363, 2700.334
530.845, 2709.785
531.327, 2720.596
531.809, 2731.433
532.291, 2736.534
532.773, 2733.028
533.255, 2729.433
533.737, 2740.486
534.219, 2773.339
534.702, 2795.951
535.184, 2792.900
535.666, 2796.466
536.148, 2825.916
536.630, 2868.699
537.112, 2904.058
537.594, 2923.499
538.076, 2933.232
538.559, 2937.145
539.041, 2936.464
539.523, 2943.950
540.005, 2963.186
540.487, 2986.440
540.969, 3009.280
541.451, 3031.263
541.933, 3050.505
542.416, 3063.628
542.898, 3078.053
543.380, 3095.671
543.862, 3116.759
544.344, 3143.313
544.826, 3174.938
545.308, 3206.885
545.790, 3233.767
546.273, 3255.846
546.755, 3280.321
547.237, 3308.096
547.719, 3336.917
548.201, 3366.107
548.683, 3396.002
549.165, 3427.033
549.647, 3459.087
550.129, 3492.047
550.612, 3526.131
551.094, 3560.710
551.576, 3592.614
552.058, 3622.156
552.540, 3659.934
553.022, 3713.646
553.504, 3777.109
553.986, 3834.436
554.468, 3882.208
554.951, 3928.435
555.433, 3974.039
555.915, 4017.558
556.397, 4055.420
556.879, 4090.348
557.361, 4129.480
557.843, 4177.260
558.325, 4230.433
558.807, 4284.511
559.290, 4340.013
559.772, 4387.361
560.254, 4421.880
560.736, 4451.276
561.218, 4479.556
561.700, 4507.557
562.182, 4542.555
562.664, 4585.622
563.146, 4635.813
563.629, 4705.108
564.111, 4777.464
564.593, 4819.847
565.075, 4824.584
565.557, 4819.736
566.039, 4839.249
566.521, 4884.409
567.003, 4922.393
567.486, 4951.854
567.968, 4975.684
568.450, 4988.774
568.932, 5000.399
569.414, 5020.765
569.896, 5051.811
570.378, 5088.541
570.860, 5134.366
571.343, 5180.860
571.825, 5211.822
572.307, 5227.197
572.789, 5240.059
573.271, 5256.675
573.753, 5277.797
574.235, 5305.990
574.717, 5347.347
575.200, 5385.395
575.682, 5412.007
576.164, 5443.319
576.646, 5493.189
577.128, 5555.271
577.610, 5612.239
578.092, 5653.175
578.574, 5692.298
579.056, 5754.427
579.539, 5837.436
580.021, 5912.495
580.503, 5970.478
580.985, 6029.938
581.467, 6108.528
581.949, 6204.959
582.431, 6295.119
582.913, 6368.347
583.395, 6447.959
583.878, 6541.269
584.360, 6644.887
584.842, 6759.397
585.324, 6882.005
585.806, 7002.683
586.288, 7110.150
586.770, 7208.579
587.252, 7317.986
587.734, 7437.458
588.217, 7570.920
588.699, 7728.979
589.181, 7896.330
589.663, 8054.238
590.145, 8202.319
590.627, 8360.417
591.109, 8542.461
591.591, 8730.926
592.073, 8913.545
592.556, 9090.742
593.038, 9264.146
593.520, 9434.022
594.002, 9611.144
594.484, 9811.836
594.966, 10041.950
595.448, 10261.630
595.930, 10461.110
596.413, 10664.050
596.895, 10868.720
597.377, 11085.700
597.859, 11333.710
598.341, 11620.780
598.823, 11911.330
599.305, 12179.050
599.787, 12436.420
600.269, 12710.350
600.752, 12998.850
601.234, 13267.980
601.716, 13494.810
602.198, 13701.620
602.680, 13951.280
603.162, 14275.060
603.644, 14578.590
604.127, 14855.450
604.609, 15122.450
605.091, 15380.330
605.573, 15635.260
606.055, 15899.110
606.537, 16180.520
607.019, 16459.949
607.501, 16710.939
607.983, 16942.539
608.466, 17180.420
608.948, 17429.520
609.430, 17680.619
609.912, 17926.061
610.394, 18166.420
610.876, 18405.480
611.358, 18653.240
611.840, 18887.340
612.322, 19094.900
612.805, 19297.221
613.287, 19517.330
613.769, 19748.721
614.251, 19962.340
614.733, 20143.260
615.215, 20294.740
615.697, 20408.480
616.179, 20489.520
616.661, 20599.551
617.144, 20762.250
617.626, 20921.910
618.108, 21020.900
618.590, 21060.141
619.072, 21108.240
619.554, 21202.461
620.036, 21258.070
620.518, 21237.561
621.000, 21180.270
621.483, 21119.430
621.965, 21062.211
622.447, 21005.070
622.929, 20951.100
623.411, 20890.430
623.893, 20796.609
624.375, 20668.420
624.857, 20531.461
625.340, 20393.529
625.822, 20248.400
626.304, 20090.660
626.786, 19918.631
627.268, 19734.820
627.750, 19551.830
628.232, 19344.029
628.714, 19075.740
629.196, 18790.910
629.679, 18546.590
630.161, 18352.199
630.643, 18169.680
631.125, 17968.600
631.607, 17750.670
632.089, 17510.350
632.571, 17243.141
633.054, 16998.801
633.536, 16801.180
634.018, 16623.250
634.500, 16426.410
634.982, 16208.480
635.464, 16000.720
635.946, 15812.800
636.428, 15628.590
636.910, 15448.750
637.393, 15264.060
637.875, 15057.260
638.357, 14826.850
638.839, 14592.360
639.321, 14371.240
639.803, 14162.670
640.285, 13973.500
640.767, 13804.800
641.250, 13643.610
641.732, 13484.670
642.214, 13330.190
642.696, 13189.780
643.178, 13068.040
643.660, 12923.050
644.142, 12731.220
644.624, 12537.840
645.106, 12357.690
645.589, 12193.870
646.071, 12054.560
646.553, 11939.560
647.035, 11827.450
647.517, 11691.720
647.999, 11540.040
648.481, 11410.410
648.963, 11306.420
649.445, 11198.650
649.928, 11076.300
650.410, 10943.620
650.892, 10804.430
651.374, 10655.140
651.856, 10518.830
652.338, 10409.030
652.820, 10299.480
653.302, 10172.440
653.784, 10041.240
654.267, 9928.065
654.749, 9836.830
655.231, 9746.027
655.713, 9628.289
656.195, 9494.073
656.677, 9382.722
657.159, 9295.170
657.641, 9209.982
658.123, 9118.960
658.606, 9026.405
659.088, 8938.521
659.570, 8856.571
660.052, 8770.547
660.534, 8690.233
661.016, 8594.426
661.498, 8457.438
661.981, 8309.625
662.463, 8193.658
662.945, 8115.910
663.427, 8044.301
663.909, 7948.933
664.391, 7841.126
664.873, 7749.816
665.355, 7674.336
665.837, 7593.162
666.320, 7497.358
666.802, 7397.508
667.284, 7305.537
667.766, 7221.519
668.248, 7146.854
668.730, 7093.738
669.212, 7034.229
669.694, 6950.912
670.177, 6864.119
670.659, 6801.250
671.141, 6761.844
671.623, 6713.667
672.105, 6620.372
672.587, 6515.007
673.069, 6456.776
673.551, 6433.764
674.033, 6387.592
674.516, 6300.042
674.998, 6199.985
675.480, 6120.348
675.962, 6060.980
676.444, 5994.794
676.926, 5910.669
677.408, 5836.540
677.890, 5784.852
678.372, 5738.550
678.855, 5683.189
679.337, 5619.636
679.819, 5558.830
680.301, 5508.220
680.783, 5459.955
681.265, 5408.248
681.747, 5353.497
682.229, 5296.859
682.711, 5238.528
683.194, 5177.652
683.676, 5113.965
684.158, 5047.015
684.640, 4973.522
685.122, 4883.608
685.604, 4812.516
686.086, 4781.869
686.568, 4755.977
687.050, 4707.706
687.533, 4643.139
688.015, 4584.787
688.497, 4543.739
688.979, 4500.569
689.461, 4442.164
689.943, 4378.609
690.425, 4322.243
690.907, 4273.716
691.390, 4228.256
691.872, 4183.297
692.354, 4136.813
692.836, 4082.439
693.318, 4019.481
693.800, 3965.134
694.282, 3924.824
694.764, 3885.739
695.247, 3839.135
695.729, 3787.484
696.211, 3739.049
696.693, 3690.250
697.175, 3651.637
697.657, 3639.761
698.139, 3625.128
698.621, 3582.261
699.104, 3521.256
699.586, 3466.149
700.068, 3427.148
700.550, 3393.383
701.032, 3353.904
701.514, 3309.626
701.996, 3260.947
702.478, 3207.808
702.960, 3162.889
703.443, 3134.377
703.925, 3113.245
704.407, 3082.329
704.889, 3038.231
705.371, 2996.275
705.853, 2953.612
706.335, 2916.545
706.817, 2890.828
707.299, 2869.851
707.782, 2846.090
708.264, 2818.277
708.746, 2790.781
709.228, 2766.244
709.710, 2743.112
710.192, 2723.548
710.674, 2703.945
711.156, 2671.899
711.638, 2624.156
712.121, 2574.264
712.603, 2536.288
713.085, 2509.647
713.567, 2487.766
714.049, 2471.885
714.531, 2457.396
715.013, 2443.183
715.495, 2430.001
715.977, 2420.699
716.460, 2413.966
716.942, 2400.948
717.424, 2373.848
717.906, 2348.117
718.388, 2331.006
718.870, 2317.192
719.352, 2303.135
719.834, 2287.052
720.317, 2265.177
720.799, 2233.475
721.281, 2200.428
721.763, 2181.779
722.245, 2175.412
722.727, 2165.516
723.209, 2149.358
723.691, 2134.596
724.174, 2127.036
724.656, 2123.886
725.138, 2117.162
725.620, 2109.028
726.102, 2092.846
726.584, 2057.543
727.066, 2026.896
727.548, 2013.967
728.031, 2011.471
728.513, 2008.670
728.995, 2003.306
729.477, 1994.624
729.959, 1977.838
730.441, 1960.516
730.923, 1954.343
731.405, 1955.626
731.887, 1950.787
732.370, 1935.187
732.852, 1918.052
733.334, 1912.063
733.816, 1915.782
734.298, 1909.734
734.780, 1890.586
735.262, 1873.891
735.744, 1866.981
736.226, 1860.991
736.709, 1843.641
737.191, 1815.883
737.673, 1796.880
738.155, 1790.941
738.637, 1789.759
739.119, 1796.324
739.601, 1802.761
740.083, 1800.830
740.565, 1791.583
741.048, 1782.024
741.530, 1775.805
742.012, 1771.078
742.494, 1769.758
742.976, 1767.817
743.458, 1749.375
743.940, 1713.549
744.422, 1681.846
744.904, 1667.502
745.387, 1664.897
745.869, 1660.580
746.351, 1652.541
746.833, 1649.696
747.315, 1654.126
747.797, 1660.829
748.279, 1671.477
748.761, 1681.258
749.244, 1682.667
749.726, 1674.171
750.208, 1666.810
750.690, 1664.964
751.172, 1663.957
751.654, 1662.768
752.136, 1659.643
752.618, 1651.784
753.101, 1638.891
753.583, 1623.403
754.065, 1605.682
754.547, 1588.315
755.029, 1576.373
755.511, 1569.838
755.993, 1569.906
756.475, 1577.658
756.958, 1586.180
757.440, 1590.772
757.922, 1590.770
758.404, 1581.848
758.886, 1554.143
759.368, 1536.801
759.850, 1540.429
760.332, 1546.169
760.814, 1544.971
761.297, 1539.589
761.779, 1536.362
762.261, 1537.815
762.743, 1535.912
763.225, 1520.055
763.707, 1505.453
764.189, 1509.018
764.671, 1523.903
765.153, 1534.251
765.636, 1534.667
766.118, 1530.435
766.600, 1527.317
767.082, 1524.008
767.564, 1515.532
768.046, 1502.010
768.528, 1486.665
769.010, 1469.147
769.492, 1455.914
769.975, 1454.364
770.457, 1463.564
770.939, 1470.790
771.421, 1474.663
771.903, 1478.978
772.385, 1487.899
772.867, 1493.887
773.349, 1490.809
773.831, 1481.438
774.314, 1472.274
774.796, 1462.484
775.278, 1458.810
775.760, 1473.726
776.242, 1488.471
776.724, 1483.368
777.206, 1463.514
777.688, 1442.349
778.171, 1425.395
778.653, 1414.615
779.135, 1414.489
779.617, 1422.145
780.099, 1429.937
780.581, 1437.582
781.063, 1438.881
781.545, 1431.028
782.028, 1420.626
782.510, 1414.459
782.992, 1412.463
783.474, 1414.002
783.956, 1422.290
784.438, 1427.841
784.920, 1430.141
785.402, 1428.273
785.885, 1418.393
786.367, 1404.068
786.849, 1394.828
787.331, 1392.653
787.813, 1394.719
788.295, 1405.708
788.777, 1415.599
789.259, 1415.763
789.741, 1408.530
790.224, 1399.138
790.706, 1389.487
791.188, 1380.880
791.670, 1374.980
792.152, 1370.732
792.634, 1366.760
793.116, 1362.600
793.598, 1353.617
794.080, 1338.228
794.563, 1328.508
795.045, 1338.714
795.527, 1364.125
796.009, 1375.380
796.491, 1369.102
796.973, 1360.474
797.455, 1351.246
797.937, 1340.730
798.419, 1324.954
798.902, 1307.985
799.384, 1303.205
799.866, 1321.430
800.348, 1327.584
800.830, 1304.385
801.312, 1281.371
801.794, 1275.260
802.276, 1279.445
802.758, 1282.601
803.241, 1282.262
803.723, 1284.218
804.205, 1294.218
804.687, 1306.664
805.169, 1318.246
805.651, 1326.857
806.133, 1325.120
806.615, 1313.381
807.098, 1304.868
807.580, 1310.938
808.062, 1324.455
808.544, 1327.487
809.026, 1320.249
809.508, 1314.990
809.990, 1313.691
810.472, 1311.330
810.955, 1304.435
811.437, 1295.398
811.919, 1288.936
812.401, 1284.555
812.883, 1284.706
813.365, 1293.898
813.847, 1301.775
814.329, 1307.191
814.812, 1308.951
815.294, 1304.218
815.776, 1293.662
816.258, 1285.117
816.740, 1281.518
817.222, 1279.244
817.704, 1277.544
818.186, 1275.747
818.668, 1273.153
819.151, 1269.812
819.633, 1265.212
820.115, 1258.398
820.597, 1255.019
821.079, 1265.595
821.561, 1282.322
822.043, 1288.984
822.525, 1285.612
823.007, 1276.168
823.490, 1262.069
823.972, 1250.922
824.454, 1253.027
824.936, 1266.440
825.418, 1277.951
825.900, 1288.742
826.382, 1289.512
826.864, 1275.292
827.346, 1256.678
827.829, 1239.888
828.311, 1226.152
828.793, 1221.051
829.275, 1231.655
829.757, 1239.183
830.239, 1243.482
830.721, 1244.990
831.203, 1243.474
831.685, 1239.472
832.168, 1232.140
832.650, 1221.080
833.132, 1214.952
833.614, 1219.675
834.096, 1227.088
834.578, 1235.614
835.060, 1241.818
835.542, 1239.363
836.024, 1229.543
836.507, 1221.408
836.989, 1220.780
837.471, 1222.450
837.953, 1218.923
838.435, 1213.197
838.917, 1212.841
839.399, 1217.818
839.881, 1223.358
840.364, 1227.303
840.846, 1229.212
841.328, 1226.813
841.810, 1221.082
842.292, 1226.500
842.774, 1245.955
843.256, 1255.676
843.738, 1247.692
844.221, 1231.857
844.703, 1215.411
845.185, 1199.162
845.667, 1187.882
846.149, 1181.665
846.631, 1180.241
847.113, 1184.984
847.595, 1193.107
848.078, 1208.563
848.560, 1224.464
849.042, 1228.778
849.524, 1218.818
850.006, 1210.677
850.488, 1211.422
850.970, 1211.232
851.452, 1203.194
851.934, 1193.028
852.417, 1185.742
852.899, 1182.879
853.381, 1186.876
853.863, 1202.025
854.345, 1216.891
854.827, 1221.019
855.309, 1218.616
855.791, 1215.259
856.273, 1211.352
856.756, 1204.534
857.238, 1194.035
857.720, 1185.985
858.202, 1190.674
858.684, 1202.650
859.166, 1201.833
859.648, 1189.301
860.130, 1177.723
860.612, 1169.993
861.095, 1164.301
861.577, 1158.423
862.059, 1154.692
862.541, 1162.633
863.023, 1186.595
863.505, 1201.389
863.987, 1203.688
864.469, 1201.320
864.951, 1195.910
865.434, 1189.630
865.916, 1186.203
866.398, 1186.252
866.880, 1183.965
867.362, 1177.167
867.844, 1171.121
868.326, 1169.330
868.808, 1166.348
869.291, 1153.624
869.773, 1136.633
870.255, 1132.111
870.737, 1148.333
871.219, 1163.179
871.701, 1169.302
872.183, 1170.805
872.665, 1167.703
873.148, 1163.279
873.630, 1163.715
874.112, 1169.253
874.594, 1171.137
875.076, 1159.611
875.558, 1147.084
876.040, 1147.809
876.522, 1155.745
877.005, 1162.297
877.487, 1165.603
877.969, 1163.928
878.451, 1156.186
878.933, 1147.329
879.415, 1144.188
879.897, 1145.288
880.379, 1146.170
880.861, 1146.664
881.344, 1145.153
881.826, 1141.011
882.308, 1140.311
882.790, 1150.013
883.272, 1165.701
883.754, 1169.782
884.236, 1160.513
884.718, 1155.287
885.200, 1157.353
885.683, 1157.603
886.165, 1150.084
886.647, 1140.014
887.129, 1136.570
887.611, 1140.959
888.093, 1141.486
888.575, 1135.194
889.057, 1129.973
889.539, 1124.166
890.022, 1123.101
890.504, 1135.419
890.986, 1155.656
891.468, 1165.430
891.950, 1157.001
892.432, 1153.048
892.914, 1162.705
893.396, 1170.717
893.878, 1168.474
894.361, 1161.031
894.843, 1154.004
895.325, 1148.459
895.807, 1144.918
896.289, 1146.464
896.771, 1146.533
897.253, 1140.439
897.735, 1132.174
898.218, 1123.888
898.700, 1117.339
899.182, 1112.448
899.664, 1108.906
900.146, 1120.352
900.628, 1184.445
901.110, 1248.330
901.592, 1232.692
902.075, 1169.777
902.557, 1129.421
903.039, 1124.000
903.521, 1130.098
904.003, 1133.432
904.485, 1135.403
904.967, 1138.152
905.449, 1141.265
905.932, 1144.178
906.414, 1146.431
906.896, 1144.335
907.378, 1136.469
907.860, 1127.925
908.342, 1123.329
908.824, 1123.376
909.306, 1135.359
909.788, 1159.784
910.271, 1165.353
910.753, 1144.983
911.235, 1122.881
911.717, 1111.600
912.199, 1109.825
912.681, 1116.547
913.163, 1132.770
913.645, 1144.677
914.127, 1155.192
914.610, 1150.829
915.092, 1117.726
915.574, 1087.280
916.056, 1088.452
916.538, 1113.007
917.020, 1127.598
917.502, 1129.931
917.984, 1127.146
918.466, 1112.476
918.949, 1101.509
919.431, 1100.148
919.913, 1105.012
920.395, 1115.957
920.877, 1132.041
921.359, 1138.826
921.841, 1130.407
922.323, 1119.232
922.805, 1098.894
923.288, 1085.065
923.770, 1092.291
924.252, 1110.641
924.734, 1122.532
925.216, 1124.834
925.698, 1127.273
926.180, 1137.321
926.662, 1143.080
927.145, 1134.658
927.627, 1122.146
928.109, 1114.143
928.591, 1111.484
929.073, 1113.789
929.555, 1122.238
930.037, 1128.075
930.519, 1122.164
931.002, 1114.827
931.484, 1117.619
931.966, 1124.458
932.448, 1122.933
932.930, 1113.160
933.412, 1107.510
933.894, 1113.939
934.376, 1124.700
934.859, 1137.543
935.341, 1146.410
935.823, 1137.076
936.305, 1116.151
936.787, 1104.636
937.269, 1108.298
937.751, 1113.853
938.233, 1109.515
938.715, 1101.120
939.198, 1098.289
939.680, 1099.471
940.162, 1101.491
940.644, 1103.390
941.126, 1102.416
941.608, 1097.283
942.090, 1091.136
942.572, 1087.889
943.054, 1086.730
943.537, 1084.578
944.019, 1081.805
944.501, 1081.166
944.983, 1083.147
945.465, 1087.149
945.947, 1093.006
946.429, 1099.320
946.911, 1104.487
947.393, 1108.246
947.876, 1104.932
948.358, 1094.058
948.840, 1089.073
949.322, 1094.394
949.804, 1100.548
950.286, 1099.631
950.768, 1093.764
951.250, 1088.153
951.732, 1082.203
952.215, 1083.861
952.697, 1096.006
953.179, 1102.918
953.661, 1097.557
954.143, 1088.667
954.625, 1085.446
955.107, 1087.020
955.589, 1087.819
956.072, 1086.857
956.554, 1089.018
957.036, 1095.902
957.518, 1103.177
958.000, 1110.169
958.482, 1114.604
958.964, 1112.266
959.446, 1103.258
959.929, 1098.997
960.411, 1103.186
960.893, 1103.737
961.375, 1096.511
961.857, 1089.707
962.339, 1089.054
962.821, 1090.818
963.303, 1087.348
963.786, 1076.870
964.268, 1073.718
964.750, 1084.125
965.232, 1092.047
965.714, 1090.805
966.196, 1090.561
966.678, 1102.840
967.160, 1119.881
967.642, 1121.765
968.125, 1101.672
968.607, 1091.027
969.089, 1103.278
969.571, 1108.372
970.053, 1086.614
970.535, 1065.852
971.017, 1074.005
971.499, 1100.926
971.981, 1113.936
972.464, 1105.683
972.946, 1096.738
973.428, 1087.851
973.910, 1080.786
974.392, 1077.115
974.874, 1074.809
975.356, 1070.716
975.838, 1065.981
976.320, 1066.534
976.803, 1078.078
977.285, 1084.144
977.767, 1075.684
978.249, 1067.586
978.731, 1068.002
979.213, 1071.991
979.695, 1075.855
980.177, 1078.077
980.659, 1073.057
981.142, 1052.019
981.624, 1037.349
982.106, 1039.599
982.588, 1045.408
983.070, 1047.688
983.552, 1048.115
984.034, 1050.334
984.516, 1054.217
984.999, 1054.856
985.481, 1048.040
985.963, 1042.010
986.445, 1038.000
986.927, 1037.378
987.409, 1045.278
987.891, 1055.119
988.373, 1056.619
988.856, 1048.640
989.338, 1039.008
989.820, 1025.746
990.302, 1017.845
990.784, 1025.244
991.266, 1033.419
991.748, 1029.303
992.230, 1018.178
992.713, 1010.292
993.195, 1007.483
993.677, 1005.763
994.159, 1000.912
994.641, 1000.154
995.123, 1010.642
995.605, 1023.265
996.087, 1032.277
996.569, 1036.447
997.052, 1031.458
997.534, 1016.838
998.016, 1012.278
998.498, 1038.460
998.980, 1061.793
999.462, 1065.334
999.944, 1057.869
1000.426, 1039.884
1000.908, 1019.824
1001.391, 1013.809
1001.873, 1025.764
1002.355, 1039.499
1002.837, 1050.979
1003.319, 1058.628
1003.801, 1062.706
1004.283, 1061.603
1004.765, 1049.273
1005.247, 1031.706
1005.730, 1022.098
1006.212, 1023.986
1006.694, 1027.675
1007.176, 1030.302
1007.658, 1031.900
1008.140, 1034.130
1008.622, 1033.955
1009.104, 1026.875
1009.587, 1015.392
1010.069, 1003.747
1010.551, 992.568
1011.033, 989.511
1011.515, 1005.725
1011.997, 1021.224
1012.479, 1025.949
1012.961, 1024.601
1013.443, 1019.726
1013.926, 1013.225
1014.408, 1007.836
1014.890, 1004.111
1015.372, 1002.059
1015.854, 1001.480
1016.336, 1002.831
1016.818, 1007.523
1017.300, 1013.227
1017.783, 1020.294
1018.265, 1026.022
1018.747, 1022.953
1019.229, 1008.160
1019.711, 999.799
1020.193, 1012.953
1020.675, 1022.610
1021.157, 1015.315
1021.639, 1001.837
1022.122, 987.015
1022.604, 974.956
1023.086, 975.103
1023.568, 991.250
1024.050, 999.058
1024.532, 985.419
1025.014, 970.107
1025.496, 955.238
1025.979, 946.709
1026.461, 953.307
1026.943, 968.504
1027.425, 977.454
1027.907, 976.898
1028.389, 980.643
1028.871, 998.339
1029.353, 1011.627
1029.835, 1010.097
1030.318, 1006.771
1030.800, 1014.673
1031.282, 1026.497
1031.764, 1025.546
1032.246, 1008.330
1032.728, 995.728
1033.210, 988.994
1033.692, 989.280
1034.175, 1004.526
1034.657, 1019.079
1035.139, 1021.681
1035.621, 1017.259
1036.103, 1014.097
1036.585, 1012.296
1037.067, 1014.277
1037.549, 1022.905
1038.031, 1031.285
1038.514, 1044.288
1038.996, 1050.430
1039.478, 1035.676
1039.960, 1014.633
1040.442, 1012.293
1040.924, 1030.263
1041.406, 1038.607
1041.888, 1032.262
1042.370, 1025.136
1042.853, 1013.799
1043.335, 1009.429
1043.817, 1023.037
1044.299, 1041.418
1044.781, 1044.439
1045.263, 1032.716
1045.745, 1030.747
1046.227, 1044.850
1046.710, 1052.120
1047.192, 1048.889
1047.674, 1042.210
1048.156, 1033.578
1048.638, 1025.657
1049.120, 1021.695
1049.602, 1021.491
1050.084, 1023.705
1050.567, 1028.901
1051.049, 1034.497
1051.531, 1041.197
1052.013, 1044.613
1052.495, 1042.528
1052.977, 1038.029
1053.459, 1034.298
1053.941, 1030.954
1054.423, 1025.301
1054.906, 1016.807
1055.388, 1017.629
1055.870, 1029.814
1056.352, 1033.389
1056.834, 1020.770
1057.316, 1005.469
1057.798, 999.005
1058.280, 999.371
1058.762, 1001.059
1059.245, 1004.510
1059.727, 1016.944
1060.209, 1037.540
1060.691, 1049.726
1061.173, 1049.231
1061.655, 1043.752
1062.137, 1038.431
1062.619, 1033.893
1063.102, 1032.919
1063.584, 1033.316
1064.066, 1025.093
1064.548, 1011.242
1065.030, 1005.196
1065.512, 1009.124
1065.994, 1017.605
1066.476, 1027.849
1066.958, 1036.626
1067.441, 1039.855
1067.923, 1038.902
1068.405, 1033.434
1068.887, 1026.630
1069.369, 1026.218
1069.851, 1031.876
1070.333, 1037.636
1070.815, 1040.954
1071.297, 1044.510
1071.780, 1054.317
1072.262, 1061.774
1072.744, 1054.872
1073.226, 1042.048
1073.708, 1033.551
1074.190, 1029.852
1074.672, 1027.917
1075.154, 1026.998
1075.637, 1029.643
1076.119, 1041.609
1076.601, 1052.151
1077.083, 1052.566
1077.565, 1050.599
1078.047, 1054.779
1078.529, 1060.865
1079.011, 1060.201
1079.493, 1052.098
1079.976, 1044.357
1080.458, 1035.478
1080.940, 1033.856
1081.422, 1049.285
1081.904, 1064.468
1082.386, 1067.544
1082.868, 1066.368
1083.350, 1072.462
1083.833, 1084.158
1084.315, 1087.687
1084.797, 1078.739
1085.279, 1067.917
1085.761, 1046.652
1086.243, 1036.124
1086.725, 1050.800
1087.207, 1069.391
1087.689, 1075.541
1088.172, 1072.150
1088.654, 1066.483
1089.136, 1056.413
1089.618, 1056.026
1090.100, 1072.224
1090.582, 1077.232
1091.064, 1059.666
1091.546, 1045.694
1092.028, 1053.991
1092.511, 1070.889
1092.993, 1071.609
1093.475, 1057.805
1093.957, 1058.832
1094.439, 1075.924
1094.921, 1084.448
1095.403, 1080.669
1095.885, 1077.718
1096.368, 1081.626
1096.850, 1088.370
1097.332, 1093.929
1097.814, 1098.005
1098.296, 1100.052
1098.778, 1099.860
1099.260, 1095.518
1099.742, 1087.791
1100.224, 1080.055
1100.707, 1073.793
1101.189, 1072.273
1101.671, 1078.796
1102.153, 1087.599
1102.635, 1093.444
1103.117, 1094.979
1103.599, 1084.031
1104.081, 1069.350
1104.563, 1073.308
1105.046, 1093.970
1105.528, 1105.591
1106.010, 1095.219
1106.492, 1087.468
1106.974, 1106.075
1107.456, 1126.771
1107.938, 1130.056
1108.420, 1125.969
1108.903, 1125.507
1109.385, 1127.686
1109.867, 1126.017
1110.349, 1118.884
1110.831, 1116.263
1111.313, 1127.431
1111.795, 1134.554
1112.277, 1129.296
1112.760, 1121.717
1113.242, 1114.470
1113.724, 1110.652
1114.206, 1118.085
1114.688, 1135.430
1115.170, 1140.091
1115.652, 1120.560
1116.134, 1112.224
1116.616, 1121.798
1117.099, 1130.571
1117.581, 1132.359
1118.063, 1131.880
1118.545, 1133.087
1119.027, 1135.152
1119.509, 1135.986
1119.991, 1135.646
1120.473, 1133.524
1120.955, 1129.721
1121.438, 1120.048
1121.920, 1102.757
1122.402, 1097.840
1122.884, 1117.661
1123.366, 1143.168
1123.848, 1148.034
1124.330, 1138.605
1124.812, 1129.854
1125.295, 1123.296
1125.777, 1126.509
1126.259, 1137.551
1126.741, 1145.892
1127.223, 1147.860
1127.705, 1143.891
1128.187, 1130.893
1128.669, 1121.086
1129.151, 1136.372
1129.634, 1154.812
1130.116, 1138.839
1130.598, 1112.453
1131.080, 1127.000
1131.562, 1175.543
1132.044, 1199.674
1132.526, 1175.072
1133.008, 1149.064
1133.490, 1141.302
1133.973, 1138.531
1134.455, 1133.592
1134.937, 1131.867
1135.419, 1142.799
1135.901, 1158.542
1136.383, 1162.067
1136.865, 1151.170
1137.347, 1144.564
1137.830, 1143.954
1138.312, 1145.732
1138.794, 1153.699
1139.276, 1156.128
1139.758, 1145.844
1140.240, 1131.919
1140.722, 1121.522
1141.204, 1116.799
1141.687, 1129.129
1142.169, 1160.677
1142.651, 1172.154
1143.133, 1162.248
1143.615, 1156.305
1144.097, 1160.085
1144.579, 1166.308
1145.061, 1170.960
1145.543, 1171.064
1146.026, 1156.463
1146.508, 1139.091
1146.990, 1153.553
1147.472, 1185.352
1147.954, 1198.722
1148.436, 1194.989
1148.918, 1192.976
1149.400, 1197.779
1149.882, 1198.791
1150.365, 1186.114
1150.847, 1175.208
1151.329, 1181.457
1151.811, 1190.797
1152.293, 1188.613
1152.775, 1183.862
1153.257, 1192.500
1153.739, 1210.137
1154.222, 1216.503
1154.704, 1205.286
1155.186, 1193.845
1155.668, 1175.792
1156.150, 1171.272
1156.632, 1203.421
1157.114, 1227.842
1157.596, 1213.560
1158.078, 1185.835
1158.561, 1180.661
1159.043, 1195.192
1159.525, 1202.883
1160.007, 1201.977
1160.489, 1206.185
1160.971, 1217.496
1161.453, 1221.209
1161.935, 1212.106
1162.417, 1205.935
1162.900, 1215.312
1163.382, 1229.738
1163.864, 1233.004
1164.346, 1226.528
1164.828, 1206.695
1165.310, 1182.342
1165.792, 1183.164
1166.274, 1205.328
1166.757, 1219.613
1167.239, 1216.428
1167.721, 1211.351
1168.203, 1213.953
1168.685, 1220.144
1169.167, 1230.541
1169.649, 1239.465
1170.131, 1242.623
1170.614, 1240.633
1171.096, 1232.731
1171.578, 1220.779
1172.060, 1210.747
1172.542, 1202.812
1173.024, 1199.939
1173.506, 1205.666
1173.988, 1212.031
1174.470, 1220.392
1174.953, 1224.806
1175.435, 1220.908
1175.917, 1212.597
1176.399, 1204.083
1176.881, 1196.396
1177.363, 1197.310
1177.845, 1207.176
1178.327, 1216.670
1178.809, 1225.113
1179.292, 1221.880
1179.774, 1204.729
1180.256, 1191.391
1180.738, 1193.843
1181.220, 1203.162
1181.702, 1210.268
1182.184, 1214.546
1182.666, 1211.996
1183.149, 1207.559
1183.631, 1212.662
1184.113, 1222.927
1184.595, 1223.764
1185.077, 1212.683
1185.559, 1203.129
1186.041, 1199.696
1186.523, 1201.614
1187.005, 1215.925
1187.488, 1226.545
1187.970, 1221.596
1188.452, 1211.841
1188.934, 1206.925
1189.416, 1206.018
1189.898, 1206.950
1190.380, 1210.294
1190.862, 1209.036
1191.344, 1201.219
1191.827, 1195.874
1192.309, 1193.807
1192.791, 1195.906
1193.273, 1202.733
1193.755, 1213.627
1194.237, 1229.781
1194.719, 1243.680
1195.201, 1236.784
1195.684, 1216.045
1196.166, 1197.464
1196.648, 1184.030
1197.130, 1187.088
1197.612, 1202.164
1198.094, 1205.990
1198.576, 1190.024
1199.058, 1172.032
1199.541, 1158.439
1200.023, 1153.119
1200.505, 1166.071
1200.987, 1179.774
1201.469, 1179.333
1201.951, 1172.999
1202.433, 1173.609
1202.915, 1179.076
1203.397, 1174.217
1203.880, 1153.120
1204.362, 1145.901
1204.844, 1160.601
1205.326, 1167.897
1205.808, 1162.146
1206.290, 1150.780
1206.772, 1136.146
1207.254, 1123.385
1207.736, 1118.354
1208.219, 1119.518
1208.701, 1123.257
1209.183, 1129.659
1209.665, 1141.441
1210.147, 1155.793
1210.629, 1162.461
1211.111, 1161.421
1211.593, 1161.305
1212.076, 1165.739
1212.558, 1172.637
1213.040, 1185.639
1213.522, 1193.965
1214.004, 1188.517
1214.486, 1178.176
1214.968, 1168.452
1215.450, 1159.095
1215.932, 1147.710
1216.415, 1135.515
1216.897, 1128.426
1217.379, 1124.731
1217.861, 1134.626
1218.343, 1165.869
1218.825, 1185.839
1219.307, 1187.029
1219.789, 1185.321
1220.271, 1188.234
1220.754, 1192.994
1221.236, 1197.358
1221.718, 1199.353
1222.200, 1193.453
1222.682, 1182.068
1223.164, 1168.702
1223.646, 1156.433
1224.128, 1154.183
1224.611, 1160.401
1225.093, 1163.677
1225.575, 1159.840
1226.057, 1158.193
1226.539, 1166.448
1227.021, 1174.421
1227.503, 1180.056
1227.985, 1181.197
1228.468, 1173.816
1228.950, 1163.340
1229.432, 1154.573
1229.914, 1148.024
1230.396, 1144.934
1230.878, 1145.170
1231.360, 1151.469
1231.842, 1165.288
1232.324, 1175.101
1232.807, 1179.487
1233.289, 1174.224
1233.771, 1157.688
1234.253, 1141.121
1234.735, 1134.422
1235.217, 1132.108
1235.699, 1125.664
1236.181, 1119.150
1236.663, 1122.649
1237.146, 1127.802
1237.628, 1120.049
1238.110, 1102.264
1238.592, 1082.908
1239.074, 1064.474
1239.556, 1056.754
1240.038, 1075.018
1240.520, 1083.880
1241.003, 1061.015
1241.485, 1054.123
1241.967, 1086.981
1242.449, 1122.012
1242.931, 1132.840
1243.413, 1128.630
1243.895, 1124.154
1244.377, 1119.418
1244.859, 1114.616
1245.342, 1109.616
1245.824, 1101.845
1246.306, 1092.665
1246.788, 1088.587
1247.270, 1091.184
1247.752, 1101.058
1248.234, 1120.089
1248.716, 1131.495
1249.198, 1115.520
1249.681, 1097.242
1250.163, 1094.666
1250.645, 1094.653
1251.127, 1082.385
1251.609, 1068.132
1252.091, 1070.448
1252.573, 1085.460
1253.055, 1092.254
1253.538, 1089.607
1254.020, 1083.605
1254.502, 1072.490
1254.984, 1069.855
1255.466, 1078.276
1255.948, 1090.229
1256.430, 1102.490
1256.912, 1104.468
1257.395, 1082.254
1257.877, 1059.028
1258.359, 1077.509
1258.841, 1107.026
1259.323, 1100.339
1259.805, 1078.595
1260.287, 1077.086
1260.769, 1089.935
1261.251, 1091.873
1261.734, 1078.453
1262.216, 1069.336
1262.698, 1068.054
1263.180, 1072.695
1263.662, 1091.207
1264.144, 1097.721
1264.626, 1080.601
1265.108, 1063.725
1265.590, 1062.225
1266.073, 1070.018
1266.555, 1081.628
1267.037, 1091.227
1267.519, 1074.075
##END=



