##NAMES=Jamesonite
##RRUFFID=R050430
##IDEAL CHEMISTRY=Pb^2+^_4_Fe^2+^Sb^3+^_6_S^2-^_14_
##LOCALITY=Zacatecas, Mexico
##OWNER=RRUFF
##SOURCE=University of Arizona Mineral Museum
##DESCRIPTION=Grayish black coarsely acicular crystals
##STATUS=The identification of this mineral has been confirmed by X-ray diffraction and chemical analysis
##URL=rruff.info/R050430
##MEASURED CHEMISTRY=Pb_4.02_Fe_1.00_Sb_5.98_S_14.00_
95.22955, 107.9057
95.71167, 86.01203
96.19379, 78.21502
96.67590, 89.78766
97.15802, 97.02437
97.64014, 94.24688
98.12225, 85.48094
98.60437, 77.54222
99.08649, 72.78535
99.56861, 69.76830
100.0507, 66.03100
100.5328, 61.24695
101.0150, 56.63107
101.4971, 53.04203
101.9792, 50.44794
102.4613, 48.43980
102.9434, 47.04877
103.4255, 46.07553
103.9077, 45.49385
104.3898, 45.34609
104.8719, 45.42628
105.3540, 45.29255
105.8361, 44.70092
106.3182, 44.31632
106.8004, 44.57941
107.2825, 45.02132
107.7646, 45.07195
108.2467, 44.36237
108.7288, 42.94854
109.2109, 41.57055
109.6931, 40.04226
110.1752, 38.71572
110.6573, 37.70262
111.1394, 36.97626
111.6215, 36.45250
112.1037, 36.07607
112.5858, 35.86744
113.0679, 35.68745
113.5500, 35.48642
114.0321, 35.34228
114.5142, 35.34890
114.9964, 35.52033
115.4785, 35.72017
115.9606, 35.79552
116.4427, 35.75506
116.9248, 35.65035
117.4069, 35.36037
117.8891, 35.02184
118.3712, 34.96354
118.8533, 35.40126
119.3354, 35.89597
119.8175, 35.93913
120.2996, 35.57762
120.7818, 35.32255
121.2639, 35.69050
121.7460, 36.71426
122.2281, 37.44873
122.7102, 37.43765
123.1923, 37.26546
123.6745, 37.19325
124.1566, 37.27379
124.6387, 37.43982
125.1208, 37.63435
125.6029, 37.99344
126.0850, 38.06187
126.5672, 37.68377
127.0493, 37.13067
127.5314, 36.58769
128.0135, 36.13064
128.4956, 35.76418
128.9777, 35.49461
129.4599, 35.48491
129.9420, 35.39824
130.4241, 35.20417
130.9062, 34.91920
131.3883, 34.54641
131.8705, 34.06789
132.3526, 33.52485
132.8347, 33.14624
133.3168, 32.98526
133.7989, 32.88999
134.2810, 32.83557
134.7632, 32.80863
135.2453, 32.73897
135.7274, 32.53790
136.2095, 32.26603
136.6916, 32.12887
137.1737, 32.22063
137.6559, 32.40013
138.1380, 32.57323
138.6201, 32.76894
139.1022, 32.81657
139.5843, 32.43351
140.0664, 31.85111
140.5486, 31.40881
141.0307, 31.34306
141.5128, 31.50136
141.9949, 31.41120
142.4770, 30.87918
142.9591, 30.37745
143.4413, 30.14248
143.9234, 30.07939
144.4055, 29.99833
144.8876, 29.71454
145.3697, 29.22512
145.8518, 29.02637
146.3340, 29.63028
146.8161, 30.08657
147.2982, 29.99969
147.7803, 29.47194
148.2624, 28.87011
148.7445, 28.54992
149.2267, 28.57070
149.7088, 28.66515
150.1909, 28.86718
150.6730, 29.09706
151.1551, 29.39330
151.6372, 29.72337
152.1194, 29.91046
152.6015, 29.69384
153.0836, 28.78774
153.5657, 28.27877
154.0478, 28.49562
154.5299, 28.95140
155.0121, 29.14768
155.4942, 28.94963
155.9763, 28.59119
156.4584, 28.40908
156.9405, 28.40092
157.4227, 28.44910
157.9048, 28.53167
158.3869, 28.64853
158.8690, 28.82287
159.3511, 29.11546
159.8332, 29.37533
160.3154, 29.42056
160.7975, 29.25215
161.2796, 29.02042
161.7617, 28.75041
162.2438, 28.45462
162.7259, 28.32386
163.2081, 28.53455
163.6902, 28.82910
164.1723, 29.01297
164.6544, 29.06917
165.1365, 29.08839
165.6186, 29.20809
166.1008, 29.48829
166.5829, 29.59047
167.0650, 29.14682
167.5471, 28.71145
168.0292, 28.69572
168.5113, 29.18691
168.9935, 29.88175
169.4756, 30.26244
169.9577, 30.11548
170.4398, 30.05100
170.9219, 30.32382
171.4040, 30.57751
171.8862, 30.43633
172.3683, 29.77657
172.8504, 28.86465
173.3325, 28.32965
173.8146, 28.52632
174.2967, 28.72900
174.7789, 28.97137
175.2610, 29.19242
175.7431, 29.28740
176.2252, 29.20182
176.7073, 29.02638
177.1894, 29.07052
177.6716, 29.66543
178.1537, 30.05369
178.6358, 29.92690
179.1179, 29.50181
179.6000, 29.20969
180.0822, 29.29001
180.5643, 29.60674
181.0464, 29.72794
181.5285, 29.56151
182.0106, 29.37587
182.4927, 29.31454
182.9749, 29.34948
183.4570, 29.36161
183.9391, 29.32205
184.4212, 29.19400
184.9033, 28.91344
185.3854, 28.34924
185.8676, 27.84684
186.3497, 27.75410
186.8318, 28.08325
187.3139, 28.39076
187.7960, 28.46050
188.2781, 28.40769
188.7603, 28.33846
189.2424, 28.25505
189.7245, 28.19960
190.2066, 28.25446
190.6887, 28.46569
191.1708, 28.61775
191.6530, 28.59385
192.1351, 28.49747
192.6172, 28.40739
193.0993, 28.35041
193.5814, 28.31619
194.0635, 28.27685
194.5457, 28.19650
195.0278, 28.18985
195.5099, 28.33384
195.9920, 28.52586
196.4741, 28.67143
196.9562, 28.72881
197.4384, 28.71295
197.9205, 28.65952
198.4026, 28.48835
198.8847, 28.39466
199.3668, 28.48942
199.8489, 28.64013
200.3311, 28.70708
200.8132, 28.62020
201.2953, 28.39530
201.7774, 28.09620
202.2595, 27.51004
202.7416, 27.08753
203.2238, 26.88227
203.7059, 26.86460
204.1880, 27.02551
204.6701, 27.37505
205.1522, 27.84611
205.6344, 28.13051
206.1165, 28.09539
206.5986, 28.05260
207.0807, 28.06530
207.5628, 28.11566
208.0449, 28.17671
208.5271, 28.24294
209.0092, 28.29719
209.4913, 28.26609
209.9734, 28.16364
210.4555, 27.98502
210.9376, 27.67004
211.4198, 27.26839
211.9019, 26.89417
212.3840, 26.56726
212.8661, 26.35556
213.3482, 26.43221
213.8303, 27.01838
214.3125, 27.52016
214.7946, 27.49217
215.2767, 27.03474
215.7588, 26.70127
216.2409, 26.78420
216.7230, 27.11021
217.2052, 27.32447
217.6873, 27.38775
218.1694, 27.41232
218.6515, 27.55442
219.1336, 27.80264
219.6157, 27.80555
220.0979, 27.07296
220.5800, 26.26667
221.0621, 26.20863
221.5442, 27.13952
222.0263, 28.19319
222.5084, 28.45476
222.9906, 27.84792
223.4727, 27.29319
223.9548, 27.05709
224.4369, 27.00186
224.9190, 27.06650
225.4011, 27.24464
225.8833, 27.47470
226.3654, 27.74030
226.8475, 28.09171
227.3296, 28.22567
227.8117, 27.83503
228.2938, 27.35988
228.7760, 27.06782
229.2581, 27.01276
229.7402, 27.07371
230.2223, 27.07290
230.7044, 26.94668
231.1866, 26.96880
231.6687, 27.37288
232.1508, 27.77974
232.6329, 27.94905
233.1150, 27.83998
233.5971, 27.58025
234.0793, 27.31480
234.5614, 26.96887
235.0435, 26.81841
235.5256, 27.03540
236.0077, 27.29645
236.4898, 27.38425
236.9720, 27.27136
237.4541, 27.09498
237.9362, 27.03101
238.4183, 27.07926
238.9004, 27.26274
239.3825, 27.84150
239.8647, 28.33976
240.3468, 28.38040
240.8289, 27.95217
241.3110, 27.37333
241.7931, 27.02933
242.2752, 26.99889
242.7574, 27.01588
243.2395, 27.17076
243.7216, 27.29898
244.2037, 27.25044
244.6858, 27.03116
245.1679, 26.81526
245.6501, 26.83008
246.1322, 27.21287
246.6143, 27.20915
247.0964, 26.33044
247.5785, 25.47262
248.0606, 25.33055
248.5428, 25.90687
249.0249, 26.62841
249.5070, 26.94738
249.9891, 26.78926
250.4712, 26.65577
250.9533, 26.54318
251.4355, 26.45580
251.9176, 26.38520
252.3997, 26.33544
252.8818, 26.33487
253.3639, 26.41014
253.8461, 26.56868
254.3282, 26.75544
254.8103, 27.06900
255.2924, 27.33379
255.7745, 27.40718
256.2566, 27.29693
256.7387, 27.11165
257.2209, 26.86137
257.7030, 26.60476
258.1851, 26.60187
258.6672, 27.06007
259.1493, 27.60284
259.6314, 28.03490
260.1136, 28.34762
260.5957, 28.47127
261.0778, 28.23698
261.5599, 27.82169
262.0420, 27.75621
262.5241, 28.25730
263.0063, 28.85696
263.4884, 29.31369
263.9705, 29.61994
264.4526, 29.67591
264.9347, 29.26955
265.4168, 28.68407
265.8990, 28.46524
266.3811, 28.73276
266.8632, 29.11727
267.3453, 29.42039
267.8275, 29.63696
268.3096, 29.72555
268.7917, 29.66322
269.2738, 29.45342
269.7559, 29.08722
270.2380, 28.52413
270.7202, 28.02522
271.2023, 27.77912
271.6844, 27.76285
272.1665, 27.84894
272.6486, 28.15617
273.1307, 28.37958
273.6129, 28.18987
274.0950, 27.58991
274.5771, 26.97614
275.0592, 26.64126
275.5413, 26.53102
276.0234, 26.34029
276.5056, 26.03082
276.9877, 25.60868
277.4698, 25.00148
277.9519, 24.26443
278.4340, 23.67042
278.9161, 23.47780
279.3983, 23.58979
279.8804, 23.55574
280.3625, 23.27251
280.8446, 22.96030
281.3267, 22.83742
281.8088, 22.80001
282.2910, 22.58854
282.7731, 21.90122
283.2552, 20.94027
283.7373, 20.43801
284.2194, 20.68364
284.7015, 20.84829
285.1837, 20.47811
285.6658, 19.80053
286.1479, 19.12371
286.6300, 18.54025
287.1121, 18.09184
287.5942, 17.95329
288.0764, 18.34343
288.5585, 18.51902
289.0406, 18.05035
289.5227, 17.31271
290.0048, 16.67232
290.4869, 16.24640
290.9691, 15.98824
291.4512, 15.83043
291.9333, 15.79337
292.4154, 15.79480
292.8975, 15.81198
293.3796, 15.85847
293.8618, 15.97197
294.3439, 16.16165
294.8260, 16.34204
295.3081, 16.37230
295.7902, 16.20289
296.2723, 16.11926
296.7545, 16.19827
297.2366, 16.35843
297.7187, 16.62276
298.2008, 16.96516
298.6829, 17.24453
299.1650, 17.26852
299.6472, 17.00087
300.1293, 16.82148
300.6114, 16.80482
301.0935, 16.83937
301.5756, 16.89036
302.0577, 16.95243
302.5399, 17.02092
303.0220, 17.04927
303.5041, 17.04769
303.9862, 17.27795
304.4683, 18.00353
304.9504, 18.66418
305.4326, 19.08500
305.9147, 19.29776
306.3968, 19.35683
306.8789, 19.25042
307.3610, 19.04227
307.8431, 19.01841
308.3253, 19.29055
308.8074, 19.58303
309.2895, 19.80806
309.7716, 20.01049
310.2537, 20.23495
310.7358, 20.49908
311.2180, 20.80970
311.7001, 21.20085
312.1822, 21.76056
312.6643, 22.20705
313.1464, 22.38455
313.6285, 22.50318
314.1107, 22.78301
314.5928, 23.27429
315.0749, 23.76001
315.5570, 23.84075
316.0392, 23.31079
316.5213, 23.13286
317.0034, 23.78316
317.4855, 24.51969
317.9676, 24.95282
318.4497, 25.05048
318.9319, 25.00657
319.4140, 24.96471
319.8961, 24.91068
320.3782, 25.00249
320.8603, 25.48758
321.3424, 25.88699
321.8246, 26.02649
322.3067, 25.93156
322.7888, 25.69160
323.2709, 25.34446
323.7530, 24.90420
324.2351, 24.48264
324.7173, 24.06187
325.1994, 23.68885
325.6815, 23.38866
326.1636, 23.13424
326.6457, 22.90625
327.1278, 22.71599
327.6100, 22.49638
328.0921, 22.03748
328.5742, 21.14620
329.0563, 20.43676
329.5384, 20.23217
330.0205, 20.14886
330.5027, 19.82875
330.9848, 19.16884
331.4669, 18.40470
331.9490, 17.91908
332.4311, 17.82944
332.9132, 17.50088
333.3954, 16.51554
333.8775, 15.50007
334.3596, 14.78174
334.8417, 14.38366
335.3238, 14.15819
335.8059, 14.00178
336.2881, 13.91469
336.7702, 13.86396
337.2523, 14.04427
337.7344, 14.02310
338.2165, 13.46302
338.6986, 12.55721
339.1808, 11.74230
339.6629, 11.25975
340.1450, 11.07965
340.6271, 11.13296
341.1092, 11.59479
341.5913, 11.94892
342.0735, 11.98646
342.5556, 11.82400
343.0377, 11.57655
343.5198, 11.26824
344.0019, 10.94709
344.4840, 10.67493
344.9662, 10.43699
345.4483, 10.30402
345.9304, 10.43950
346.4125, 10.60792
346.8946, 10.65002
347.3767, 10.54055
347.8589, 10.33964
348.3410, 10.07080
348.8231, 9.735785
349.3052, 9.442170
349.7873, 9.163727
350.2694, 8.986197
350.7516, 9.053126
351.2337, 9.292830
351.7158, 9.408129
352.1979, 9.060369
352.6800, 8.439634
353.1621, 8.222296
353.6443, 8.580235
354.1264, 8.974792
354.6085, 9.117280
355.0906, 9.084253
355.5727, 8.963221
356.0548, 8.731506
356.5370, 8.486095
357.0191, 8.387775
357.5012, 8.455167
357.9833, 8.460282
358.4654, 8.174765
358.9475, 7.863900
359.4297, 7.890592
359.9118, 8.356886
360.3939, 8.822813
360.8760, 8.912878
361.3581, 8.701687
361.8402, 8.580768
362.3224, 8.675726
362.8045, 8.829599
363.2866, 8.925487
363.7687, 8.961621
364.2508, 8.847462
364.7329, 8.345996
365.2151, 7.733027
365.6972, 7.564515
366.1793, 7.964622
366.6614, 8.322048
367.1436, 8.041311
367.6257, 7.344710
368.1078, 6.926917
368.5899, 7.025275
369.0720, 7.307416
369.5541, 7.556342
370.0363, 7.769634
370.5184, 7.927266
371.0005, 8.021031
371.4826, 8.048188
371.9647, 8.000631
372.4468, 7.844986
372.9290, 7.708501
373.4111, 7.654443
373.8932, 7.650289
374.3753, 7.629027
374.8574, 7.567882
375.3395, 7.521911
375.8217, 7.585918
376.3038, 7.781436
376.7859, 7.884671
377.2680, 7.833132
377.7501, 7.708817
378.2322, 7.556966
378.7144, 7.389911
379.1965, 7.237675
379.6786, 7.111444
380.1607, 7.019515
380.6428, 7.026872
381.1249, 7.205283
381.6071, 7.387476
382.0892, 7.557190
382.5713, 7.684611
383.0534, 7.692439
383.5355, 7.538478
384.0176, 7.315885
384.4998, 7.229265
384.9819, 7.436266
385.4640, 7.522545
385.9461, 7.383891
386.4282, 7.180334
386.9103, 7.033241
387.3925, 6.967661
387.8746, 6.955881
388.3567, 6.965833
388.8388, 6.988177
389.3209, 7.107189
389.8030, 7.477464
390.2852, 7.772422
390.7673, 7.817131
391.2494, 7.694358
391.7315, 7.605670
392.2136, 7.681010
392.6957, 7.831076
393.1779, 7.688125
393.6600, 6.759622
394.1421, 6.250249
394.6242, 6.585378
395.1063, 7.172895
395.5884, 7.516225
396.0706, 7.479730
396.5527, 7.199921
397.0348, 6.765380
397.5169, 6.036001
397.9990, 5.723092
398.4811, 6.221907
398.9633, 6.792295
399.4454, 7.218866
399.9275, 7.477278
400.4096, 7.584326
400.8917, 7.515573
401.3738, 7.320913
401.8560, 7.220197
402.3381, 7.262160
402.8202, 7.308149
403.3023, 7.384131
403.7844, 7.411486
404.2665, 7.250726
404.7487, 6.844078
405.2308, 6.450854
405.7129, 6.461604
406.1950, 6.906474
406.6771, 7.186709
407.1592, 7.098459
407.6414, 6.909781
408.1235, 6.826707
408.6056, 6.830517
409.0877, 6.793340
409.5698, 6.522221
410.0519, 6.175643
410.5341, 6.178043
411.0162, 6.621465
411.4983, 7.098470
411.9804, 7.420768
412.4625, 7.595743
412.9446, 7.593214
413.4268, 7.292980
413.9089, 7.009215
414.3910, 7.079559
414.8731, 7.416521
415.3553, 7.577231
415.8374, 7.369727
416.3195, 7.012076
416.8016, 6.847295
417.2837, 6.888326
417.7658, 6.846499
418.2480, 6.483208
418.7301, 6.083115
419.2122, 6.049302
419.6943, 6.405478
420.1764, 6.739326
420.6585, 6.703571
421.1407, 6.336357
421.6228, 6.130782
422.1049, 6.210974
422.5870, 6.296912
423.0691, 6.196803
423.5512, 6.038686
424.0334, 6.113442
424.5155, 6.548536
424.9976, 7.101627
425.4797, 7.314438
425.9618, 6.994613
426.4439, 6.687571
426.9261, 6.300351
427.4082, 5.994570
427.8903, 5.913861
428.3724, 6.038813
428.8545, 6.244646
429.3366, 6.446257
429.8188, 6.638519
430.3009, 6.688188
430.7830, 6.453378
431.2651, 6.223079
431.7472, 5.995452
432.2293, 5.814708
432.7115, 5.740651
433.1936, 5.793422
433.6757, 5.925954
434.1578, 6.060527
434.6399, 6.184032
435.1220, 6.354381
435.6042, 6.755060
436.0863, 7.047508
436.5684, 6.961800
437.0505, 6.598483
437.5326, 6.309618
438.0147, 6.376048
438.4969, 6.690325
438.9790, 6.879095
439.4611, 6.926839
439.9432, 6.885915
440.4253, 6.718890
440.9074, 6.501423
441.3896, 6.298130
441.8717, 6.115539
442.3538, 5.982887
442.8359, 5.916086
443.3180, 5.918035
443.8001, 6.044726
444.2823, 6.399926
444.7644, 6.710608
445.2465, 6.628195
445.7286, 6.243204
446.2107, 5.949132
446.6928, 5.861960
447.1750, 5.907607
447.6571, 6.063836
448.1392, 6.312113
448.6213, 6.530614
449.1034, 6.681106
449.5855, 6.733659
450.0677, 6.561994
450.5498, 5.961199
451.0319, 5.600678
451.5140, 5.852569
451.9961, 6.344785
452.4782, 6.630395
452.9604, 6.624943
453.4425, 6.486295
453.9246, 6.348704
454.4067, 6.196633
454.8888, 6.230304
455.3709, 6.709534
455.8531, 7.059827
456.3352, 6.983418
456.8173, 6.654757
457.2994, 6.378639
457.7815, 6.296917
458.2636, 6.319467
458.7458, 6.249681
459.2279, 6.010182
459.7100, 5.840533
460.1921, 5.664247
460.6742, 5.618022
461.1563, 5.939571
461.6385, 6.504916
462.1206, 6.875089
462.6027, 6.642095
463.0848, 5.948372
463.5670, 5.542187
464.0491, 5.525691
464.5312, 5.601077
465.0133, 5.675519
465.4954, 5.780562
465.9775, 6.001464
466.4597, 6.374085
466.9418, 6.655856
467.4239, 6.488851
467.9060, 5.968788
468.3881, 5.798198
468.8702, 6.255455
469.3524, 6.729443
469.8345, 6.574464
470.3166, 6.002804
470.7987, 5.625383
471.2808, 5.722784
471.7629, 5.975908
472.2451, 6.145081
472.7272, 6.232644
473.2093, 6.250653
473.6914, 6.201282
474.1735, 6.089463
474.6556, 5.879606
475.1378, 5.475420
475.6199, 5.302636
476.1020, 5.630607
476.5841, 6.075222
477.0662, 6.324824
477.5483, 6.348948
478.0305, 6.238444
478.5126, 6.044753
478.9947, 5.782718
479.4768, 5.591306
479.9589, 5.442733
480.4410, 5.400376
480.9232, 5.580708
481.4053, 5.815466
481.8874, 5.907060
482.3695, 5.820711
482.8516, 5.706532
483.3337, 5.778295
483.8159, 6.079267
484.2980, 6.192754
484.7801, 5.954715
485.2622, 5.705747
485.7443, 5.519061
486.2264, 5.410363
486.7086, 5.407202
487.1907, 5.534925
487.6728, 5.722012
488.1549, 5.885942
488.6370, 6.029028
489.1191, 6.098322
489.6013, 6.033943
490.0834, 5.944979
490.5655, 5.938161
491.0476, 6.001050
491.5297, 6.047900
492.0118, 6.016868
492.4940, 5.966635
492.9761, 6.001637
493.4582, 6.115897
493.9403, 6.151248
494.4224, 5.990155
494.9045, 5.731912
495.3867, 5.636313
495.8688, 5.740215
496.3509, 5.874511
496.8330, 6.091950
497.3151, 6.268611
497.7972, 6.212251
498.2794, 5.934691
498.7615, 5.670583
499.2436, 5.625027
499.7257, 5.785820
500.2078, 5.929753
500.6899, 6.116126
501.1721, 6.212695
501.6542, 6.112595
502.1363, 5.954068
502.6184, 5.910799
503.1005, 6.016780
503.5826, 6.133433
504.0648, 6.082718
504.5469, 5.848725
505.0290, 5.602594
505.5111, 5.282050
505.9932, 5.030135
506.4753, 4.836836
506.9575, 4.759417
507.4396, 4.937407
507.9217, 5.490983
508.4038, 6.081342
508.8859, 6.190677
509.3680, 5.856540
509.8502, 5.800004
510.3323, 6.346846
510.8144, 6.942178
511.2965, 6.971953
511.7786, 6.536861
512.2607, 6.150765
512.7429, 5.943782
513.2250, 5.833776
513.7071, 5.799855
514.1892, 5.812670
514.6713, 5.734863
515.1534, 5.477775
515.6356, 5.178758
516.1177, 5.120811
516.5998, 5.459061
517.0819, 5.696038
517.5640, 5.763323
518.0461, 5.771384
518.5283, 5.782825
519.0104, 5.803267
519.4925, 5.829783
519.9746, 5.868119
520.4567, 5.889672
520.9388, 5.767426
521.4210, 5.339993
521.9031, 5.074986
522.3852, 5.075725
522.8673, 5.197121
523.3494, 5.415184
523.8315, 5.679826
524.3137, 5.833429
524.7958, 5.679121
525.2779, 5.326961
525.7600, 5.178843
526.2421, 5.279101
526.7242, 5.418656
527.2064, 5.543184
527.6885, 5.636645
528.1706, 5.677100
528.6527, 5.657776
529.1348, 5.613355
529.6169, 5.480349
530.0991, 5.362140
530.5812, 5.507234
531.0633, 5.938819
531.5454, 6.276628
532.0275, 6.205245
532.5096, 5.798560
532.9918, 5.573359
533.4739, 5.654341
533.9560, 5.726191
534.4381, 5.737612
534.9202, 5.701241
535.4023, 5.625561
535.8845, 5.515585
536.3666, 5.371599
536.8487, 5.171877
537.3308, 4.916474
537.8130, 4.860686
538.2951, 5.277865
538.7772, 5.534817
539.2593, 5.314963
539.7415, 4.960045
540.2236, 4.873680
540.7057, 5.152692
541.1878, 5.483176
541.6699, 5.497219
542.1520, 5.254756
542.6342, 5.215226
543.1163, 5.513739
543.5984, 5.759972
544.0805, 5.599740
544.5626, 5.232057
545.0447, 5.019980
545.5269, 5.024214
546.0090, 5.164941
546.4911, 5.590517
546.9732, 6.078401
547.4553, 6.089377
547.9374, 5.504547
548.4196, 4.897999
548.9017, 4.849041
549.3838, 5.373169
549.8659, 5.708760
550.3480, 5.711340
550.8301, 5.734812
551.3123, 5.996288
551.7944, 6.278102
552.2765, 6.248297
552.7586, 5.848541
553.2407, 5.384734
553.7228, 5.250544
554.2050, 5.470519
554.6871, 5.561882
555.1692, 5.418692
555.6513, 5.294703
556.1334, 5.281957
556.6155, 5.338800
557.0977, 5.443891
557.5798, 5.608841
558.0619, 5.688054
558.5440, 5.421172
559.0261, 4.942616
559.5082, 4.816280
559.9904, 5.197402
560.4725, 5.573499
560.9546, 5.508586
561.4367, 5.094934
561.9188, 4.856573
562.4009, 4.914683
562.8831, 5.002490
563.3652, 5.007650
563.8473, 4.988995
564.3294, 5.041678
564.8115, 5.179564
565.2936, 5.325192
565.7758, 5.398534
566.2579, 5.399552
566.7400, 5.421858
567.2221, 5.537076
567.7042, 5.584439
568.1863, 5.534675
568.6685, 5.406246
569.1506, 5.177657
569.6327, 4.862279
570.1148, 4.580422
570.5969, 4.450238
571.0790, 4.458199
571.5612, 4.535875
572.0433, 4.706751
572.5254, 4.876499
573.0075, 4.969724
573.4896, 5.044991
573.9717, 5.214814
574.4539, 5.536066
574.9360, 5.773348
575.4181, 5.759587
575.9002, 5.621341
576.3823, 5.551291
576.8644, 5.561982
577.3466, 5.505895
577.8287, 5.246948
578.3108, 4.859114
578.7929, 4.708072
579.2750, 5.140033
579.7571, 5.355439
580.2393, 5.162611
580.7214, 4.850771
581.2035, 4.583827
581.6856, 4.413105
582.1677, 4.387401
582.6498, 4.592448
583.1320, 4.920838
583.6141, 4.973911
584.0962, 4.671927
584.5783, 4.362760
585.0604, 4.024627
585.5425, 3.814004
586.0247, 3.954333
586.5068, 4.412313
586.9889, 4.749619
587.4710, 4.645827
587.9531, 4.408427
588.4352, 4.424653
588.9174, 4.655818
589.3995, 4.826701
589.8816, 4.810558
590.3637, 4.698132
590.8458, 4.640701
591.3279, 4.646598
591.8101, 4.694451
592.2922, 4.824480
592.7743, 4.956117
593.2564, 5.090066
593.7385, 5.185606
594.2206, 5.144757
594.7028, 4.921220
595.1849, 4.652027
595.6670, 4.603457
596.1491, 4.823035
596.6312, 4.905943
597.1133, 4.765540
597.5955, 4.559185
598.0776, 4.331381
598.5597, 4.111950
599.0418, 3.954292
599.5239, 3.863224
600.0060, 3.856381
600.4882, 4.046853
600.9703, 4.322247
601.4524, 4.343442
601.9345, 4.032848
602.4166, 3.764231
602.8987, 3.905156
603.3809, 4.414869
603.8630, 4.679020
604.3451, 4.425578
604.8272, 4.312390
605.3093, 4.637659
605.7914, 5.049616
606.2736, 5.190090
606.7557, 5.026909
607.2378, 4.774757
607.7199, 4.605029
608.2020, 4.502524
608.6841, 4.367259
609.1663, 4.127040
609.6484, 4.065480
610.1305, 4.438050
610.6126, 4.905037
611.0947, 5.250298
611.5768, 5.451118
612.0590, 5.380224
612.5411, 4.657155
613.0232, 3.859349
613.5053, 3.716839
613.9874, 4.123858
614.4695, 4.517273
614.9517, 4.676210
615.4338, 4.668935
615.9159, 4.586367
616.3980, 4.362092
616.8801, 4.300733
617.3622, 4.574737
617.8444, 4.809107
618.3265, 4.842890
618.8086, 4.732489
619.2907, 4.543033
619.7728, 4.301940
620.2549, 4.110398
620.7371, 4.132557
621.2192, 4.358254
621.7013, 4.526300
622.1834, 4.616416
622.6655, 4.666529
623.1476, 4.701486
623.6298, 4.707341
624.1119, 4.644810
624.5940, 4.474653
625.0761, 4.346883
625.5582, 4.324107
626.0403, 4.385159
626.5225, 4.564373
627.0046, 4.828632
627.4867, 4.992006
627.9688, 4.926014
628.4509, 4.697097
628.9330, 4.514787
629.4152, 4.348248
629.8973, 4.292371
630.3794, 4.497521
630.8615, 4.662645
631.3436, 4.529649
631.8257, 4.219632
632.3079, 4.065423
632.7900, 4.260791
633.2721, 4.587923
633.7542, 4.752666
634.2363, 4.768568
634.7184, 4.755225
635.2006, 4.738079
635.6827, 4.684781
636.1648, 4.540902
636.6470, 4.325436
637.1291, 4.188087
637.6112, 4.139875
638.0933, 4.158650
638.5754, 4.325204
639.0576, 4.507334
639.5397, 4.538857
640.0218, 4.409225
640.5039, 4.215228
640.9860, 3.999889
641.4681, 3.820869
641.9503, 4.022141
642.4324, 4.871338
642.9145, 5.427757
643.3966, 5.177162
643.8787, 4.814924
644.3608, 4.918278
644.8430, 5.376895
645.3251, 5.543883
645.8072, 4.864322
646.2893, 4.034902
646.7714, 3.789910
647.2535, 3.990091
647.7357, 4.218091
648.2178, 4.358776
648.6999, 4.410080
649.1820, 4.331970
649.6641, 4.106679
650.1462, 4.126178
650.6284, 4.771916
651.1105, 5.174872
651.5926, 4.968419
652.0747, 4.553487
652.5568, 4.328740
653.0389, 4.347144
653.5211, 4.405682
654.0032, 4.307782
654.4853, 4.142727
654.9674, 4.203879
655.4495, 4.517789
655.9316, 4.749491
656.4138, 4.749177
656.8959, 4.663837
657.3780, 4.722465
657.8601, 4.922183
658.3422, 4.966016
658.8243, 4.710838
659.3065, 4.396718
659.7886, 4.076304
660.2707, 3.811827
660.7528, 3.697281
661.2349, 3.756904
661.7170, 3.936759
662.1992, 4.230553
662.6813, 4.620985
663.1634, 4.649713
663.6455, 4.064786
664.1276, 3.614991
664.6097, 3.705129
665.0919, 3.928483
665.5740, 3.897569
666.0561, 3.598640
666.5382, 3.379229
667.0203, 3.397070
667.5024, 3.569801
667.9846, 3.906928
668.4667, 4.333419
668.9488, 4.619265
669.4309, 4.679411
669.9130, 4.563546
670.3951, 4.314632
670.8773, 3.904936
671.3594, 3.588931
671.8415, 3.328001
672.3236, 3.213478
672.8057, 3.349365
673.2878, 3.592892
673.7700, 3.815323
674.2521, 3.987752
674.7342, 4.126275
675.2163, 4.249652
675.6984, 4.344097
676.1805, 4.406842
676.6627, 4.434213
677.1448, 4.267874
677.6269, 3.746091
678.1090, 3.251875
678.5911, 3.390470
679.0732, 4.343763
679.5554, 4.891021
680.0375, 4.859076
680.5196, 4.635985
681.0017, 4.156126
681.4838, 3.670007
681.9659, 3.516565
682.4481, 3.748129
682.9302, 4.095120
683.4123, 4.349732
683.8944, 4.506549
684.3765, 4.522137
684.8586, 4.370002
685.3408, 4.233791
685.8229, 4.185811
686.3050, 4.169692
686.7871, 4.096384
687.2692, 3.967794
687.7513, 3.911962
688.2335, 4.027823
688.7156, 4.136286
689.1977, 4.116967
689.6798, 4.036247
690.1619, 4.031436
690.6440, 4.119151
691.1262, 4.147348
691.6083, 3.938458
692.0904, 3.537276
692.5725, 3.237799
693.0546, 2.996071
693.5367, 2.997701
694.0189, 3.512753
694.5010, 4.107385
694.9831, 4.375237
695.4652, 4.347423
695.9473, 4.318756
696.4294, 4.392654
696.9116, 4.474520
697.3937, 4.519389
697.8758, 4.520764
698.3579, 4.464818
698.8400, 4.350182
699.3221, 4.183589
699.8043, 3.955039
700.2864, 3.686879
700.7685, 3.554887
701.2506, 3.605272
701.7327, 3.693917
702.2148, 3.827595
702.6970, 3.963440
703.1791, 4.094605
703.6612, 4.206865
704.1433, 4.251311
704.6254, 4.139311
705.1075, 4.046674
705.5897, 4.185430
706.0718, 4.434328
706.5539, 4.522499
707.0360, 4.405794
707.5181, 4.248106
708.0002, 4.187175
708.4824, 4.191854
708.9645, 4.093008
709.4466, 3.768353
709.9287, 3.574915
710.4108, 3.556196
710.8929, 3.658615
711.3751, 3.966038
711.8572, 4.366125
712.3393, 4.581906
712.8214, 4.471548
713.3035, 4.267442
713.7856, 4.164110
714.2678, 4.116292
714.7499, 3.996563
715.2320, 3.797712
715.7141, 3.684446
716.1962, 3.788007
716.6783, 4.011950
717.1605, 4.055489
717.6426, 3.736090
718.1247, 3.594464
718.6068, 3.769023
719.0889, 3.967901
719.5710, 4.112462
720.0532, 4.176329
720.5353, 4.103890
721.0174, 3.862160
721.4995, 3.629195
721.9816, 3.534549
722.4637, 3.553148
722.9459, 3.661355
723.4280, 3.848781
723.9101, 4.048821
724.3922, 4.246806
724.8743, 4.381766
725.3564, 4.323535
725.8386, 3.992289
726.3207, 3.754511
726.8028, 3.687128
727.2849, 3.619073
727.7670, 3.374856
728.2491, 3.164711
728.7313, 3.308999
729.2134, 3.846382
729.6955, 4.363809
730.1776, 4.585836
730.6597, 4.603068
731.1418, 4.479604
731.6240, 4.256522
732.1061, 4.174548
732.5882, 4.333602
733.0703, 4.538569
733.5524, 4.544532
734.0345, 4.340734
734.5167, 4.197139
734.9988, 4.114137
735.4810, 4.095692
735.9631, 4.279388
736.4452, 4.424773
736.9273, 4.228010
737.4094, 3.767934
737.8915, 3.498309
738.3737, 3.772511
738.8558, 4.178834
739.3379, 4.227450
739.8200, 4.031010
740.3021, 3.960432
740.7842, 4.089084
741.2664, 4.186444
741.7485, 4.051955
742.2306, 3.746092
742.7127, 3.559924
743.1948, 3.479081
743.6769, 3.550623
744.1591, 3.935920
744.6412, 4.307736
745.1233, 4.488263
745.6054, 4.527571
746.0875, 4.542991
746.5696, 4.567725
747.0518, 4.587725
747.5339, 4.596179
748.0160, 4.590885
748.4981, 4.570580
748.9802, 4.533746
749.4623, 4.464833
749.9445, 4.350097
750.4266, 4.228116
750.9087, 4.163537
751.3908, 4.150102
751.8729, 4.231599
752.3550, 4.587709
752.8372, 4.797732
753.3193, 4.649012
753.8014, 4.343956
754.2835, 4.042600
754.7656, 3.772762
755.2477, 3.691780
755.7299, 4.124937
756.2120, 4.565154
756.6941, 4.353874
757.1762, 3.785309
757.6583, 3.657423
758.1404, 4.164151
758.6226, 4.756408
759.1047, 4.890819
759.5868, 4.630445
760.0689, 4.383615
760.5510, 4.093876
761.0331, 3.979074
761.5153, 4.216014
761.9974, 4.504847
762.4795, 4.654320
762.9616, 4.680055
763.4437, 4.633547
763.9258, 4.495163
764.4080, 4.339686
764.8901, 4.142941
765.3722, 3.986986
765.8543, 3.999423
766.3364, 4.151180
766.8185, 4.314166
767.3007, 4.422235
767.7828, 4.461011
768.2649, 4.372666
768.7470, 4.149765
769.2291, 4.023798
769.7112, 4.042293
770.1934, 4.049029
770.6755, 3.910512
771.1576, 3.755145
771.6397, 3.827712
772.1218, 4.168597
772.6039, 4.429569
773.0861, 4.621905
773.5682, 4.649614
774.0503, 4.270097
774.5324, 3.782525
775.0145, 3.662987
775.4966, 3.964487
775.9788, 4.274007
776.4609, 4.211176
776.9430, 3.953145
777.4251, 3.949069
777.9072, 4.192071
778.3893, 4.383780
778.8715, 4.451057
779.3536, 4.473492
779.8357, 4.514827
780.3178, 4.571605
780.7999, 4.619432
781.2820, 4.704682
781.7642, 4.713923
782.2463, 4.546052
782.7284, 4.390195
783.2105, 4.426955
783.6926, 4.554760
784.1747, 4.522929
784.6569, 4.223205
785.1390, 3.942249
785.6211, 3.957416
786.1032, 4.160591
786.5853, 4.435321
787.0674, 4.731250
787.5496, 4.730736
788.0317, 4.267653
788.5138, 3.675660
788.9959, 3.435677
789.4780, 3.572317
789.9601, 3.719870
790.4423, 3.955591
790.9244, 4.075498
791.4065, 3.900807
791.8886, 3.698580
792.3707, 3.700518
792.8528, 3.882893
793.3350, 4.046739
793.8171, 4.160460
794.2992, 4.197061
794.7813, 4.080491
795.2634, 3.907799
795.7455, 3.774071
796.2277, 3.715563
796.7098, 3.827558
797.1919, 4.188259
797.6740, 4.607627
798.1561, 4.690150
798.6382, 4.422284
799.1204, 4.166653
799.6025, 3.915938
800.0846, 3.758515
800.5667, 3.779474
801.0488, 3.889725
801.5309, 3.908685
802.0131, 3.804835
802.4952, 3.817987
802.9773, 4.130962
803.4594, 4.379001
803.9415, 4.349742
804.4236, 4.201728
804.9058, 4.113433
805.3879, 4.117226
805.8700, 4.158171
806.3521, 4.186392
806.8342, 4.250226
807.3163, 4.518049
807.7985, 4.901196
808.2806, 4.960635
808.7627, 4.611524
809.2448, 4.272803
809.7269, 4.243325
810.2090, 4.439455
810.6912, 4.621457
811.1733, 4.870950
811.6554, 4.910855
812.1375, 4.482555
812.6196, 4.141364
813.1017, 4.207829
813.5839, 4.427409
814.0660, 4.436815
814.5481, 4.179881
815.0302, 3.967412
815.5123, 3.914052
815.9944, 3.972144
816.4766, 4.155843
816.9587, 4.406402
817.4408, 4.681487
817.9229, 4.936243
818.4050, 4.978238
818.8871, 4.584371
819.3693, 3.981134
819.8514, 3.817411
820.3335, 4.114570
820.8156, 4.344971
821.2977, 4.407007
821.7798, 4.464419
822.2620, 4.659823
822.7441, 4.917183
823.2262, 5.008071
823.7083, 4.862565
824.1904, 4.713493
824.6725, 4.559541
825.1547, 4.410722
825.6368, 4.221277
826.1189, 4.065748
826.6010, 4.090265
827.0831, 4.298585
827.5652, 4.437661
828.0474, 4.229673
828.5295, 3.955145
829.0116, 4.029741
829.4937, 4.300612
829.9758, 4.294196
830.4579, 3.942025
830.9401, 3.720281
831.4222, 4.029112
831.9043, 4.651618
832.3864, 4.927361
832.8685, 4.789167
833.3506, 4.627213
833.8328, 4.463336
834.3149, 4.288443
834.7971, 4.029744
835.2792, 3.792481
835.7613, 3.788666
836.2434, 4.070801
836.7255, 4.288492
837.2076, 4.361001
837.6898, 4.385030
838.1719, 4.362186
838.6540, 4.343120
839.1361, 4.397242
839.6182, 4.523057
840.1003, 4.659867
840.5825, 4.805968
841.0646, 4.878850
841.5467, 4.702863
842.0288, 4.360556
842.5109, 4.116905
842.9930, 4.007742
843.4752, 3.965374
843.9573, 3.958552
844.4394, 3.953913
844.9215, 3.846646
845.4036, 3.560854
845.8857, 3.596045
846.3679, 4.269382
846.8500, 4.698130
847.3321, 4.306287
847.8142, 3.693253
848.2963, 3.489827
848.7784, 3.688778
849.2606, 3.921314
849.7427, 4.181311
850.2248, 4.386602
850.7069, 4.520801
851.1890, 4.573225
851.6711, 4.472709
852.1533, 4.279690
852.6354, 4.172553
853.1175, 4.243643
853.5996, 4.381851
854.0817, 4.486200
854.5638, 4.553782
855.0460, 4.563384
855.5281, 4.519534
856.0102, 4.485391
856.4923, 4.491453
856.9744, 4.460189
857.4565, 4.262469
857.9387, 3.911464
858.4208, 3.825673
858.9029, 4.174560
859.3850, 4.375222
859.8671, 4.214458
860.3492, 3.984313
860.8314, 3.892638
861.3135, 3.900606
861.7956, 3.907505
862.2777, 3.915349
862.7598, 3.895611
863.2419, 3.752409
863.7241, 3.666124
864.2062, 3.793677
864.6883, 4.051421
865.1704, 4.343453
865.6525, 4.622631
866.1346, 4.746797
866.6168, 4.466657
867.0989, 4.075822
867.5810, 4.079682
868.0631, 4.373441
868.5452, 4.641947
869.0273, 4.813426
869.5095, 4.800416
869.9916, 4.509828
870.4737, 4.085784
870.9558, 3.922496
871.4379, 4.075261
871.9200, 4.182622
872.4022, 4.262965
872.8843, 4.222291
873.3664, 3.923111
873.8485, 3.553193
874.3306, 3.398230
874.8127, 3.460483
875.2949, 3.544216
875.7770, 3.670745
876.2591, 3.773676
876.7412, 3.783363
877.2233, 3.801378
877.7054, 3.962449
878.1876, 4.208022
878.6697, 4.365477
879.1518, 4.367694
879.6339, 4.259119
880.1160, 3.970520
880.5981, 3.658573
881.0803, 3.547486
881.5624, 3.614756
882.0445, 3.768259
882.5266, 3.965667
883.0087, 4.106304
883.4908, 4.066347
883.9730, 3.898368
884.4551, 3.808350
884.9372, 3.799384
885.4193, 3.825572
885.9014, 3.888130
886.3835, 3.954306
886.8657, 4.013164
887.3478, 4.049510
887.8299, 4.015958
888.3120, 3.868922
888.7941, 3.769236
889.2762, 3.786435
889.7584, 3.765590
890.2405, 3.568936
890.7226, 3.374344
891.2047, 3.423768
891.6868, 3.689345
892.1689, 3.827466
892.6511, 3.640378
893.1332, 3.418926
893.6153, 3.309539
894.0974, 3.239941
894.5795, 3.075185
895.0616, 2.882602
895.5438, 2.895951
896.0259, 3.211129
896.5080, 3.575971
896.9901, 3.700208
897.4722, 3.680735
897.9543, 3.761906
898.4365, 3.918159
898.9186, 3.969119
899.4007, 3.863673
899.8828, 3.716494
900.3649, 3.618819
900.8470, 3.573493
901.3292, 3.617907
901.8113, 3.800172
902.2934, 3.798504
902.7755, 3.441703
903.2576, 3.240979
903.7397, 3.595430
904.2219, 4.144351
904.7040, 4.274748
905.1861, 3.916089
905.6682, 3.665526
906.1503, 3.591688
906.6324, 3.547212
907.1146, 3.513233
907.5967, 3.480360
908.0788, 3.382587
908.5609, 3.284185
909.0430, 3.409292
909.5251, 3.930299
910.0073, 4.263594
910.4894, 3.901047
910.9715, 3.329503
911.4536, 2.940243
911.9357, 2.756244
912.4178, 2.830693
912.9000, 3.127655
913.3821, 3.350675
913.8642, 3.222570
914.3463, 2.932496
914.8284, 2.767756
915.3105, 2.746506
915.7927, 3.067023
916.2748, 3.735723
916.7569, 4.179507
917.2390, 4.066142
917.7211, 3.652062
918.2032, 3.339659
918.6854, 3.131498
919.1675, 3.013954
919.6496, 3.016481
920.1317, 3.012866
920.6138, 2.924706
921.0959, 2.893870
921.5781, 3.120538
922.0602, 3.517107
922.5423, 3.641311
923.0244, 3.267947
923.5065, 3.055204
923.9886, 3.143305
924.4708, 3.266523
924.9529, 3.290580
925.4350, 3.293126
925.9171, 3.418360
926.3992, 3.660650
926.8813, 3.787261
927.3635, 3.698964
927.8456, 3.480439
928.3277, 3.017802
928.8098, 2.566045
929.2919, 2.442442
929.7740, 2.587630
930.2562, 2.783085
930.7383, 2.938923
931.2204, 3.010232
931.7025, 2.880830
932.1846, 2.674716
932.6668, 2.626346
933.1489, 2.709047
933.6310, 2.823065
934.1132, 2.942585
934.5953, 3.072616
935.0774, 3.224594
935.5595, 3.358401
936.0416, 3.367180
936.5237, 3.250081
937.0059, 3.118080
937.4880, 2.964061
937.9701, 2.872588
938.4522, 2.895769
938.9343, 2.949449
939.4164, 2.924046
939.8986, 2.828259
940.3807, 2.821896
940.8628, 2.989826
941.3449, 3.080081
941.8270, 3.056838
942.3091, 2.965819
942.7913, 2.664980
943.2734, 2.383416
943.7555, 2.615198
944.2376, 3.497155
944.7197, 3.909779
945.2018, 3.211288
945.6840, 2.588603
946.1661, 2.496417
946.6482, 2.667319
947.1303, 2.957138
947.6124, 3.272757
948.0945, 3.450137
948.5767, 3.421454
949.0588, 3.318966
949.5409, 3.171977
950.0230, 3.036521
950.5051, 2.951795
950.9872, 2.925926
951.4694, 3.022119
951.9515, 3.212093
952.4336, 3.280688
952.9157, 3.043716
953.3978, 2.718815
953.8799, 2.639722
954.3621, 2.718877
954.8442, 2.702416
955.3263, 2.591704
955.8084, 2.561763
956.2905, 2.682164
956.7726, 2.821866
957.2548, 2.821311
957.7369, 2.724239
958.2190, 2.730310
958.7011, 2.844589
959.1832, 2.974758
959.6653, 3.125577
960.1475, 3.195961
960.6296, 3.111773
961.1117, 2.936893
961.5938, 2.753904
962.0759, 2.527679
962.5580, 2.670973
963.0402, 3.504361
963.5223, 4.022483
964.0044, 3.847684
964.4865, 3.491297
964.9686, 3.327677
965.4507, 3.288061
965.9329, 3.133090
966.4150, 2.734632
966.8971, 2.568422
967.3792, 2.910049
967.8613, 3.191045
968.3434, 3.119570
968.8256, 2.952179
969.3077, 2.946397
969.7898, 3.094735
970.2719, 3.252321
970.7540, 3.392768
971.2361, 3.510140
971.7183, 3.710452
972.2004, 3.783189
972.6825, 3.384386
973.1646, 2.824013
973.6467, 2.669009
974.1288, 2.970032
974.6110, 3.178487
975.0931, 2.871450
975.5752, 2.516205
976.0573, 2.617314
976.5394, 2.905972
977.0215, 2.961778
977.5037, 2.824983
977.9858, 2.730748
978.4679, 2.772009
978.9500, 2.968870
979.4321, 3.490407
979.9142, 4.033852
980.3964, 3.845238
980.8785, 3.146485
981.3606, 2.749976
981.8427, 2.757036
982.3248, 2.862521
982.8069, 2.908310
983.2891, 2.895770
983.7712, 2.810921
984.2533, 2.667279
984.7354, 2.530735
985.2175, 2.396833
985.6996, 2.483330
986.1818, 2.882771
986.6639, 3.190243
987.1460, 3.091762
987.6281, 2.775850
988.1102, 2.669288
988.5923, 2.798461
989.0745, 2.949373
989.5566, 3.145601
990.0387, 3.298489
990.5208, 3.398064
991.0029, 3.416054
991.4850, 3.288024
991.9672, 3.067100
992.4493, 2.959435
992.9314, 3.002481
993.4135, 3.072789
993.8956, 3.273237
994.3777, 3.361408
994.8599, 3.156634
995.3420, 2.887781
995.8241, 2.726167
996.3062, 2.681710
996.7883, 2.793420
997.2704, 3.319478
997.7526, 3.544795
998.2347, 3.094729
998.7168, 2.637489
999.1989, 2.452571
999.6810, 2.479866
1000.163, 2.717143
1000.645, 3.111550
1001.127, 3.338964
1001.609, 3.200797
1002.092, 3.046551
1002.574, 3.003399
1003.056, 3.009631
1003.538, 3.056195
1004.020, 3.101410
1004.502, 3.084555
1004.984, 2.996594
1005.466, 2.872648
1005.949, 2.635048
1006.431, 2.505921
1006.913, 2.758912
1007.395, 3.128762
1007.877, 3.351735
1008.359, 3.408443
1008.841, 3.324806
1009.323, 3.116240
1009.805, 2.826514
1010.288, 2.403655
1010.770, 2.022659
1011.252, 1.945711
1011.734, 2.043238
1012.216, 2.078054
1012.698, 2.049486
1013.180, 2.059055
1013.662, 2.151957
1014.145, 2.363159
1014.627, 2.847386
1015.109, 3.370893
1015.591, 3.375830
1016.073, 3.020425
1016.555, 2.792171
1017.037, 2.760696
1017.519, 2.882926
1018.001, 3.141577
1018.484, 3.329346
1018.966, 3.077545
1019.448, 2.576008
1019.930, 2.594311
1020.412, 3.064163
1020.894, 3.354645
1021.376, 3.357072
1021.858, 3.249325
1022.341, 3.124869
1022.823, 2.996011
1023.305, 2.851785
1023.787, 2.713331
1024.269, 2.863750
1024.751, 3.331670
1025.233, 3.487699
1025.715, 3.163972
1026.198, 2.849349
1026.680, 2.872319
1027.162, 3.032192
1027.644, 2.916935
1028.126, 2.514565
1028.608, 2.422194
1029.090, 2.721635
1029.572, 2.935699
1030.054, 2.942975
1030.536, 2.907038
1031.019, 2.939912
1031.501, 3.001510
1031.983, 2.984979
1032.465, 2.854550
1032.947, 2.973646
1033.429, 3.562560
1033.911, 3.812644
1034.393, 3.447818
1034.876, 2.864841
1035.358, 2.199123
1035.840, 1.616686
1036.322, 1.555557
1036.804, 2.159021
1037.286, 2.598881
1037.768, 2.851128
1038.250, 2.978055
1038.733, 2.911689
1039.215, 2.823031
1039.697, 2.886827
1040.179, 3.002952
1040.661, 2.873384
1041.143, 2.338769
1041.625, 2.149210
1042.107, 2.638413
1042.589, 3.013973
1043.072, 3.118313
1043.554, 3.065048
1044.036, 2.845014
1044.518, 2.542052
1045.000, 2.347359
1045.482, 2.270350
1045.964, 2.290357
1046.446, 2.502541
1046.928, 2.681988
1047.411, 2.791897
1047.893, 2.830729
1048.375, 2.795351
1048.857, 2.689491
1049.339, 2.470032
1049.821, 2.053792
1050.303, 1.935303
1050.785, 2.522934
1051.268, 2.979072
1051.750, 2.870265
1052.232, 2.681473
1052.714, 2.890420
1053.196, 3.298052
1053.678, 3.380941
1054.160, 3.004988
1054.642, 2.716349
1055.125, 2.703127
1055.607, 2.717689
1056.089, 2.690465
1056.571, 2.635788
1057.053, 2.518097
1057.535, 2.398325
1058.017, 2.422054
1058.499, 2.632291
1058.981, 2.787818
1059.464, 2.814936
1059.946, 2.773962
1060.428, 2.604522
1060.910, 2.453330
1061.392, 2.483484
1061.874, 2.613364
1062.356, 2.633919
1062.838, 2.497222
1063.320, 2.471695
1063.803, 2.873399
1064.285, 3.121023
1064.767, 2.785914
1065.249, 2.341788
1065.731, 2.150088
1066.213, 2.178752
1066.695, 2.351454
1067.177, 2.645677
1067.660, 2.811590
1068.142, 2.591385
1068.624, 2.426307
1069.106, 2.694892
1069.588, 2.944176
1070.070, 2.654419
1070.552, 2.118414
1071.034, 1.913296
1071.516, 2.135755
1071.999, 2.418389
1072.481, 2.769742
1072.963, 2.935660
1073.445, 2.534900
1073.927, 2.152797
1074.409, 2.424573
1074.891, 2.985329
1075.373, 3.152201
1075.855, 2.852971
1076.338, 2.632807
1076.820, 2.783622
1077.302, 2.934711
1077.784, 3.012209
1078.266, 2.916727
1078.748, 2.319879
1079.230, 1.629989
1079.712, 1.538923
1080.195, 2.045306
1080.677, 2.475125
1081.159, 2.558734
1081.641, 2.558722
1082.123, 2.512440
1082.605, 2.514491
1083.087, 2.731238
1083.569, 2.979024
1084.052, 2.973462
1084.534, 2.740106
1085.016, 2.563975
1085.498, 2.539526
1085.980, 2.585662
1086.462, 2.825959
1086.944, 2.948784
1087.426, 2.610058
1087.908, 2.137232
1088.391, 1.856077
1088.873, 1.816835
1089.355, 2.060902
1089.837, 2.696670
1090.319, 3.186590
1090.801, 3.306597
1091.283, 3.234528
1091.765, 2.930526
1092.248, 2.594557
1092.730, 2.435728
1093.212, 2.412663
1093.694, 2.358660
1094.176, 2.227375
1094.658, 2.136050
1095.140, 2.145468
1095.622, 2.179487
1096.104, 2.160580
1096.587, 2.190390
1097.069, 2.474505
1097.551, 2.837770
1098.033, 2.860415
1098.515, 2.454047
1098.997, 2.208341
1099.479, 2.470761
1099.961, 2.676165
1100.443, 2.603660
1100.926, 2.439209
1101.408, 2.259789
1101.890, 2.105823
1102.372, 1.988803
1102.854, 1.920062
1103.336, 2.053772
1103.818, 2.714083
1104.300, 3.151215
1104.783, 3.046631
1105.265, 2.854286
1105.747, 2.758039
1106.229, 2.754261
1106.711, 2.927045
1107.193, 3.213406
1107.675, 3.166183
1108.157, 2.393658
1108.640, 1.936693
1109.122, 2.160395
1109.604, 2.429718
1110.086, 2.561488
1110.568, 2.573531
1111.050, 2.427583
1111.532, 2.178990
1112.014, 2.029715
1112.496, 2.018106
1112.979, 2.024879
1113.461, 2.089765
1113.943, 2.112114
1114.425, 2.008713
1114.907, 1.914613
1115.389, 1.925007
1115.871, 2.013735
1116.353, 2.135277
1116.835, 2.306779
1117.318, 2.411306
1117.800, 2.472032
1118.282, 2.406956
1118.764, 1.989942
1119.246, 1.787483
1119.728, 2.322625
1120.210, 3.048253
1120.692, 3.068794
1121.175, 2.403549
1121.657, 2.052761
1122.139, 2.116296
1122.621, 2.216897
1123.103, 2.331192
1123.585, 2.467529
1124.067, 2.637855
1124.549, 2.819143
1125.031, 3.004902
1125.514, 3.168625
1125.996, 3.176031
1126.478, 3.002426
1126.960, 2.775231
1127.442, 2.446414
1127.924, 2.335474
1128.406, 2.598088
1128.888, 2.860330
1129.370, 2.815733
1129.853, 2.584149
1130.335, 2.437433
1130.817, 2.374982
1131.299, 2.320754
1131.781, 2.273681
1132.263, 2.233747
1132.745, 2.195102
1133.227, 2.293661
1133.710, 2.630500
1134.192, 2.965491
1134.674, 2.904374
1135.156, 2.576814
1135.638, 2.571112
1136.120, 2.828533
1136.602, 2.859025
1137.084, 2.629752
1137.567, 2.439775
1138.049, 2.407060
1138.531, 2.441937
1139.013, 2.469938
1139.495, 2.483680
1139.977, 2.443570
1140.459, 2.384284
1140.941, 2.446407
1141.423, 2.584762
1141.906, 2.589554
1142.388, 2.423977
1142.870, 2.224715
1143.352, 2.068022
1143.834, 1.968209
1144.316, 1.975231
1144.798, 2.024032
1145.280, 2.035087
1145.762, 2.002529
1146.245, 1.867866
1146.727, 1.683194
1147.209, 1.645622
1147.691, 1.830302
1148.173, 2.048943
1148.655, 2.163728
1149.137, 2.247132
1149.619, 2.404433
1150.102, 2.531309
1150.584, 2.436780
1151.066, 2.239317
1151.548, 2.203536
1152.030, 2.365025
1152.512, 2.528996
1152.994, 2.625168
1153.476, 2.676514
1153.958, 2.663595
1154.441, 2.642622
1154.923, 2.644683
1155.405, 2.665219
1155.887, 2.760266
1156.369, 2.867037
1156.851, 2.739303
1157.333, 2.231270
1157.815, 1.880890
1158.297, 1.845808
1158.780, 1.928563
1159.262, 2.131389
1159.744, 2.366484
1160.226, 2.639156
1160.708, 2.874554
1161.190, 2.923731
1161.672, 2.774173
1162.154, 2.611339
1162.637, 2.371731
1163.119, 2.248287
1163.601, 2.384246
1164.083, 2.395328
1164.565, 1.994783
1165.047, 1.597739
1165.529, 1.679183
1166.011, 2.108407
1166.494, 2.351042
1166.976, 2.365666
1167.458, 2.411853
1167.940, 2.506694
1168.422, 2.507480
1168.904, 2.328584
1169.386, 2.395472
1169.868, 3.082922
1170.350, 3.789790
1170.833, 3.393879
1171.315, 2.155782
1171.797, 1.620557
1172.279, 1.737684
1172.761, 1.971311
1173.243, 2.243781
1173.725, 2.485631
1174.207, 2.669270
1174.689, 2.766077
1175.172, 2.744952
1175.654, 2.638701
1176.136, 2.412887
1176.618, 2.186000
1177.100, 2.352585
1177.582, 2.735796
1178.064, 2.758305
1178.546, 2.387903
1179.029, 2.079082
1179.511, 2.053530
1179.993, 2.135469
1180.475, 2.285065
1180.957, 2.353084
1181.439, 2.110055
1181.921, 1.760897
1182.403, 1.514344
1182.885, 1.396156
1183.368, 1.436188
1183.850, 1.618958
1184.332, 1.746009
1184.814, 1.649585
1185.296, 1.641482
1185.778, 1.906568
1186.260, 2.231430
1186.742, 2.687847
1187.225, 2.979679
1187.707, 2.568656
1188.189, 1.724875
1188.671, 1.471967
1189.153, 2.107115
1189.635, 2.542133
1190.117, 2.633593
1190.599, 2.636669
1191.082, 2.516267
1191.564, 2.419286
1192.046, 2.430141
1192.528, 2.503468
1193.010, 2.600044
1193.492, 2.704197
1193.974, 2.659183
1194.456, 2.406865
1194.938, 2.339006
1195.421, 2.518384
1195.903, 2.620350
1196.385, 2.545300
1196.867, 2.369704
1197.349, 2.123262
1197.831, 1.929092
1198.313, 2.053906
1198.795, 2.421486
1199.277, 2.663590
1199.760, 2.804388
1200.242, 3.012868
1200.724, 3.266488
1201.206, 3.244117
1201.688, 2.848855
1202.170, 2.449178
1202.652, 2.337590
1203.134, 2.400371
1203.617, 2.613754
1204.099, 2.818074
1204.581, 2.714344
1205.063, 2.458571
1205.545, 2.340163
1206.027, 2.387603
1206.509, 2.528404
1206.991, 2.754258
1207.474, 2.841156
1207.956, 2.464385
1208.438, 2.187820
1208.920, 2.468361
1209.402, 2.798450
1209.884, 2.695803
1210.366, 2.417025
1210.848, 2.380369
1211.330, 2.599592
1211.813, 2.863998
1212.295, 3.480804
1212.777, 3.451887
1213.259, 2.025753
1213.741, 1.168915
1214.223, 1.650010
1214.705, 2.417414
1215.187, 2.867415
1215.669, 2.981564
1216.152, 2.622944
1216.634, 1.850204
1217.116, 1.774909
1217.598, 2.479906
1218.080, 2.808394
1218.562, 2.629007
1219.044, 2.526778
1219.526, 2.709816
1220.009, 2.892887
1220.491, 2.852250
1220.973, 2.636047
1221.455, 2.120331
1221.937, 1.586002
1222.419, 1.977072
1222.901, 2.902536
1223.383, 3.302095
1223.865, 3.129283
1224.348, 2.807586
1224.830, 2.504739
1225.312, 2.288407
1225.794, 2.163634
1226.276, 2.217643
1226.758, 2.762424
1227.240, 3.264622
1227.722, 3.172439
1228.204, 2.794791
1228.687, 2.495639
1229.169, 2.322788
1229.651, 2.283367
1230.133, 2.427094
1230.615, 2.414483
1231.097, 1.917569
1231.579, 1.659399
1232.061, 1.906417
1232.544, 2.269544
1233.026, 2.684283
1233.508, 3.000773
1233.990, 3.017940
1234.472, 2.809487
1234.954, 2.684940
1235.436, 2.661559
1235.918, 2.584403
1236.401, 2.439061
1236.883, 2.421240
1237.365, 2.579004
1237.847, 2.652268
1238.329, 2.495404
1238.811, 2.362720
1239.293, 2.607371
1239.775, 2.966326
1240.257, 2.786549
1240.740, 2.341280
1241.222, 2.272827
1241.704, 2.507648
1242.186, 2.795866
1242.668, 3.039731
1243.150, 3.113790
1243.632, 2.954718
1244.114, 2.748280
1244.596, 2.559030
1245.079, 2.436372
1245.561, 2.425783
1246.043, 2.481086
1246.525, 2.647350
1247.007, 2.802663
1247.489, 2.733901
1247.971, 2.468641
1248.453, 2.304095
1248.936, 2.334945
1249.418, 2.299749
1249.900, 2.099950
1250.382, 2.032557
1250.864, 2.240630
1251.346, 2.404647
1251.828, 2.323955
1252.310, 2.155202
1252.792, 2.097746
1253.275, 2.138134
1253.757, 2.255080
1254.239, 2.433392
1254.721, 2.437608
1255.203, 2.289762
1255.685, 2.285944
1256.167, 2.469822
1256.649, 2.620603
1257.131, 2.624120
1257.614, 2.524874
1258.096, 2.274350
1258.578, 2.061258
1259.060, 2.213242
1259.542, 2.441241
1260.024, 2.291751
1260.506, 2.001017
1260.988, 2.100318
1261.471, 2.524734
1261.953, 2.660127
1262.435, 2.254903
1262.917, 1.987853
1263.399, 2.183775
1263.881, 2.314675
1264.363, 2.067867
1264.845, 1.941081
1265.328, 2.320872
1265.810, 2.789396
1266.292, 2.873539
1266.774, 2.647765
1267.256, 2.347338
1267.738, 1.926997
1268.220, 2.029706
1268.702, 2.682321
1269.184, 2.930538
1269.667, 2.611511
1270.149, 2.206135
1270.631, 1.936313
1271.113, 1.834332
1271.595, 1.970167
1272.077, 2.186572
1272.559, 2.218451
1273.041, 2.202504
1273.523, 2.382890
1274.006, 2.648500
1274.488, 2.842931
1274.970, 2.910680
1275.452, 2.725935
1275.934, 2.255468
1276.416, 1.987523
1276.898, 2.275301
1277.380, 2.530678
1277.863, 2.557266
1278.345, 2.564880
1278.827, 2.714820
1279.309, 2.815279
1279.791, 2.615332
1280.273, 2.329385
1280.755, 2.491584
1281.237, 3.092321
1281.719, 3.256948
1282.202, 2.951557
1282.684, 2.695751
1283.166, 2.539597
1283.648, 2.382456
1284.130, 2.195884
1284.612, 2.106749
1285.094, 2.210182
1285.576, 2.372797
1286.059, 2.428146
1286.541, 2.438730
1287.023, 2.476701
1287.505, 2.543396
##END=



