##NAMES=Jonesite
##RRUFFID=R080005
##IDEAL CHEMISTRY=KBa_2_Ti^4+^_2_(Si_5_Al)O_18_&#183;nH_2_O
##LOCALITY=Langban, Filipstad, Varmland, Sweden
##OWNER=RRUFF
##SOURCE=Michael Scott
##DESCRIPTION=Colorless blades associated with metallic haussmanite and calcite.
##STATUS=The identification of this mineral has been confirmed by single-crystal X-ray diffraction.
##URL=rruff.info/R080005
94.51007, 0.0000000E+00
94.99219, 366.4238
95.47430, 369.3193
95.95642, 370.6556
96.43854, 370.5464
96.92065, 369.6544
97.40277, 367.5562
97.88489, 364.6848
98.36700, 361.7087
98.84912, 359.3041
99.33124, 356.4223
99.81335, 351.9727
100.2955, 345.7410
100.7776, 338.9503
101.2597, 333.8814
101.7418, 330.1153
102.2239, 326.4646
102.7061, 322.2925
103.1882, 318.0041
103.6703, 314.5765
104.1524, 312.4985
104.6345, 311.3701
105.1166, 310.4890
105.5988, 310.1583
106.0809, 309.3799
106.5630, 307.2292
107.0451, 303.5861
107.5272, 299.2562
108.0093, 293.5652
108.4915, 287.6906
108.9736, 282.8270
109.4557, 279.6546
109.9378, 277.3708
110.4199, 273.6120
110.9020, 266.5906
111.3842, 260.5261
111.8663, 256.5832
112.3484, 254.1583
112.8305, 252.4440
113.3126, 250.9521
113.7947, 249.6826
114.2769, 248.1425
114.7590, 246.4471
115.2411, 244.4013
115.7232, 241.6729
116.2053, 238.4176
116.6874, 235.1902
117.1696, 232.5216
117.6517, 230.5664
118.1338, 228.7542
118.6159, 226.9738
119.0980, 225.3853
119.5801, 224.3355
120.0623, 223.9414
120.5444, 223.4696
121.0265, 221.5431
121.5086, 218.1009
121.9907, 215.2763
122.4728, 214.4260
122.9550, 214.7015
123.4371, 213.8498
123.9192, 210.8009
124.4013, 206.9966
124.8834, 204.0530
125.3655, 201.9804
125.8476, 200.3687
126.3298, 198.9358
126.8119, 197.6876
127.2940, 196.6372
127.7761, 196.1829
128.2582, 195.7126
128.7404, 194.6901
129.2225, 192.9691
129.7046, 191.1272
130.1867, 190.3382
130.6688, 191.8426
131.1509, 191.9711
131.6331, 189.4845
132.1152, 185.9819
132.5973, 182.7518
133.0794, 180.4214
133.5615, 178.9741
134.0436, 178.4100
134.5258, 180.2634
135.0079, 181.3871
135.4900, 180.5038
135.9721, 178.6480
136.4542, 177.7924
136.9363, 179.4244
137.4185, 183.2740
137.9006, 184.9187
138.3827, 183.0230
138.8648, 180.7052
139.3469, 179.4324
139.8290, 179.1512
140.3112, 178.9653
140.7933, 178.1344
141.2754, 176.7335
141.7575, 175.6150
142.2396, 174.8512
142.7217, 174.3809
143.2039, 174.2476
143.6860, 174.5288
144.1681, 174.8006
144.6502, 174.7307
145.1323, 174.3945
145.6144, 173.8800
146.0966, 173.2135
146.5787, 172.3967
147.0608, 171.3637
147.5429, 169.8130
148.0250, 168.4901
148.5071, 167.8799
148.9893, 167.8227
149.4714, 167.8580
149.9535, 167.6237
150.4356, 167.0948
150.9177, 166.6267
151.3998, 166.1702
151.8820, 165.8276
152.3641, 165.6979
152.8462, 165.7519
153.3283, 165.8612
153.8104, 165.9506
154.2925, 166.2384
154.7747, 165.8265
155.2568, 164.0267
155.7389, 162.1701
156.2210, 160.9324
156.7031, 160.5133
157.1852, 160.8737
157.6673, 162.0541
158.1495, 165.4040
158.6316, 167.1461
159.1137, 166.1755
159.5958, 164.1426
160.0779, 162.5625
160.5600, 161.9343
161.0422, 162.0710
161.5243, 162.8146
162.0064, 164.8121
162.4885, 165.8960
162.9706, 164.9697
163.4527, 162.8289
163.9349, 160.9033
164.4170, 159.5531
164.8991, 159.0168
165.3812, 159.8556
165.8633, 162.6273
166.3454, 165.0014
166.8276, 165.4030
167.3097, 164.0610
167.7918, 162.6494
168.2739, 161.3315
168.7560, 160.6605
169.2381, 161.2856
169.7203, 163.4782
170.2024, 166.3143
170.6845, 169.0890
171.1666, 171.8706
171.6487, 174.1157
172.1308, 175.9589
172.6130, 177.0020
173.0951, 176.2934
173.5772, 173.2711
174.0593, 169.8585
174.5414, 169.7572
175.0235, 174.8816
175.5057, 179.4264
175.9878, 182.1869
176.4699, 183.8883
176.9520, 185.1893
177.4341, 186.3749
177.9162, 187.3463
178.3984, 187.7468
178.8805, 186.3685
179.3626, 186.0113
179.8447, 187.3810
180.3268, 189.8120
180.8089, 192.6479
181.2911, 195.5577
181.7732, 198.4105
182.2553, 200.4485
182.7374, 200.7121
183.2195, 201.2293
183.7016, 202.6946
184.1838, 204.6702
184.6659, 206.2905
185.1480, 206.9753
185.6301, 206.8553
186.1122, 207.2708
186.5943, 208.3218
187.0765, 209.6523
187.5586, 211.3710
188.0407, 213.3173
188.5228, 215.0396
189.0049, 216.2591
189.4870, 216.9412
189.9692, 217.2796
190.4513, 217.1316
190.9334, 216.7821
191.4155, 216.0219
191.8976, 214.9332
192.3797, 214.6675
192.8619, 216.4418
193.3440, 219.6161
193.8261, 222.2665
194.3082, 224.7182
194.7903, 226.2111
195.2724, 225.2228
195.7546, 221.2917
196.2367, 217.9284
196.7188, 218.2240
197.2009, 220.3630
197.6830, 222.1031
198.1651, 222.6950
198.6473, 222.5789
199.1294, 222.4887
199.6115, 222.4699
200.0936, 222.3556
200.5757, 222.1205
201.0578, 221.7441
201.5400, 221.1526
202.0221, 220.2344
202.5042, 219.1339
202.9863, 218.3265
203.4684, 218.2141
203.9505, 217.7133
204.4327, 216.1451
204.9148, 214.1094
205.3969, 212.4375
205.8790, 211.6273
206.3611, 211.5176
206.8432, 211.2836
207.3254, 210.9897
207.8075, 210.4569
208.2896, 209.3834
208.7717, 208.1045
209.2538, 207.1692
209.7359, 206.9987
210.2181, 207.4407
210.7002, 207.0815
211.1823, 205.8208
211.6644, 203.7807
212.1465, 200.3709
212.6286, 196.2262
213.1108, 192.3123
213.5929, 189.2440
214.0750, 187.0002
214.5571, 185.4024
215.0392, 184.5100
215.5213, 184.1039
216.0035, 184.5755
216.4856, 185.5224
216.9677, 186.1922
217.4498, 186.1357
217.9319, 185.3493
218.4140, 183.6896
218.8962, 180.1779
219.3783, 177.0055
219.8604, 175.1506
220.3425, 174.3643
220.8246, 173.7605
221.3067, 172.7232
221.7889, 171.4069
222.2710, 170.7912
222.7531, 171.9208
223.2352, 172.6848
223.7173, 171.5779
224.1994, 168.9713
224.6816, 166.6852
225.1637, 165.8101
225.6458, 166.1774
226.1279, 166.6811
226.6100, 167.9106
227.0921, 168.7044
227.5743, 168.1524
228.0564, 166.3429
228.5385, 164.0852
229.0206, 161.3893
229.5027, 158.7365
229.9848, 157.1344
230.4670, 157.0478
230.9491, 157.4678
231.4312, 157.6046
231.9133, 157.4572
232.3954, 157.2663
232.8775, 157.1365
233.3597, 157.0281
233.8418, 156.9306
234.3239, 156.9193
234.8060, 156.7528
235.2881, 155.9087
235.7702, 154.2489
236.2524, 153.2240
236.7345, 154.0934
237.2166, 155.5273
237.6987, 156.4585
238.1808, 156.6876
238.6629, 156.3200
239.1451, 155.0676
239.6272, 152.5560
240.1093, 151.1507
240.5914, 152.6193
241.0735, 154.9012
241.5556, 156.7701
242.0378, 157.9478
242.5199, 158.5255
243.0020, 158.4309
243.4841, 157.3658
243.9662, 156.7438
244.4483, 156.9710
244.9305, 157.6147
245.4126, 158.3906
245.8947, 159.2444
246.3768, 160.3837
246.8589, 162.3494
247.3410, 165.7612
247.8232, 168.0111
248.3053, 167.8475
248.7874, 167.2710
249.2695, 167.4578
249.7516, 168.6204
250.2337, 170.2282
250.7159, 171.4856
251.1980, 171.9609
251.6801, 173.3120
252.1622, 176.3253
252.6443, 179.5276
253.1264, 181.8164
253.6086, 183.2140
254.0907, 184.7897
254.5728, 188.0748
255.0549, 194.1625
255.5370, 198.6231
256.0191, 200.2889
256.5013, 201.5861
256.9834, 203.5145
257.4655, 206.3108
257.9476, 209.9549
258.4297, 214.6298
258.9118, 221.0200
259.3940, 225.5791
259.8761, 226.9755
260.3582, 228.0903
260.8403, 230.3033
261.3224, 233.6650
261.8045, 237.5503
262.2867, 241.4198
262.7688, 245.2635
263.2509, 249.0898
263.7330, 253.2397
264.2151, 257.0471
264.6972, 259.9324
265.1794, 262.1090
265.6615, 264.4217
266.1436, 267.5829
266.6257, 271.6563
267.1078, 275.3857
267.5899, 278.6884
268.0721, 281.8543
268.5542, 285.1486
269.0363, 288.4373
269.5184, 291.2711
270.0005, 293.2006
270.4826, 294.3506
270.9648, 296.4770
271.4469, 300.2154
271.9290, 304.0268
272.4111, 307.4890
272.8932, 310.5837
273.3753, 313.3861
273.8575, 315.9458
274.3396, 318.2145
274.8217, 319.9039
275.3038, 320.5643
275.7859, 321.2911
276.2680, 322.9995
276.7502, 325.0030
277.2323, 325.8240
277.7144, 324.6840
278.1965, 322.1043
278.6786, 319.4337
279.1607, 316.1576
279.6429, 313.6661
280.1250, 313.3907
280.6071, 314.0147
281.0892, 312.9651
281.5713, 309.1016
282.0534, 303.7828
282.5356, 299.6351
283.0177, 296.8400
283.4998, 294.1964
283.9819, 291.2589
284.4640, 288.3441
284.9461, 286.1558
285.4283, 285.0171
285.9104, 283.9611
286.3925, 281.3047
286.8746, 276.8735
287.3567, 273.0496
287.8388, 270.3336
288.3210, 268.4620
288.8031, 267.3633
289.2852, 267.0995
289.7673, 266.8452
290.2494, 265.5783
290.7315, 263.3579
291.2137, 261.3858
291.6958, 259.9378
292.1779, 258.7629
292.6600, 257.6603
293.1421, 256.6165
293.6242, 255.4898
294.1064, 253.9291
294.5885, 252.1403
295.0706, 251.1791
295.5527, 251.8901
296.0348, 252.9551
296.5169, 253.4248
296.9991, 253.2696
297.4812, 252.3633
297.9633, 250.2125
298.4454, 247.3096
298.9275, 245.2323
299.4096, 244.5351
299.8918, 244.1040
300.3739, 243.1192
300.8560, 241.6622
301.3381, 240.3522
301.8202, 239.5691
302.3023, 239.0192
302.7845, 238.0547
303.2666, 236.4989
303.7487, 234.9787
304.2308, 233.9003
304.7129, 233.1659
305.1950, 232.3561
305.6772, 231.1719
306.1593, 230.1148
306.6414, 229.9638
307.1235, 230.7697
307.6056, 231.6765
308.0877, 232.3568
308.5699, 232.8705
309.0520, 233.4312
309.5341, 234.1927
310.0162, 234.7279
310.4983, 234.1952
310.9804, 232.7824
311.4626, 231.9318
311.9447, 232.7768
312.4268, 234.2302
312.9089, 234.4507
313.3910, 233.0472
313.8731, 231.4864
314.3553, 231.1329
314.8374, 231.6383
315.3195, 231.9157
315.8016, 231.9082
316.2837, 231.4836
316.7658, 230.4167
317.2480, 228.6934
317.7301, 226.6883
318.2122, 224.4518
318.6943, 222.1204
319.1764, 220.0072
319.6585, 218.0286
320.1407, 216.4119
320.6228, 215.7581
321.1049, 215.8699
321.5870, 215.1340
322.0691, 212.3344
322.5512, 208.7648
323.0334, 206.8667
323.5155, 207.1692
323.9976, 207.4321
324.4797, 206.0794
324.9618, 203.6998
325.4439, 202.1691
325.9261, 202.1753
326.4082, 202.8625
326.8903, 203.0300
327.3724, 202.6622
327.8545, 202.6681
328.3366, 203.9621
328.8188, 205.6690
329.3009, 206.1919
329.7830, 205.1253
330.2651, 203.6544
330.7472, 202.9475
331.2293, 202.8549
331.7115, 202.5715
332.1936, 201.1038
332.6757, 199.8799
333.1578, 200.8683
333.6399, 204.1524
334.1220, 207.2643
334.6042, 208.5246
335.0863, 208.2854
335.5684, 208.2318
336.0505, 208.6266
336.5326, 208.9959
337.0147, 208.8095
337.4969, 208.2485
337.9790, 208.1948
338.4611, 209.2001
338.9432, 210.7973
339.4253, 211.8523
339.9074, 211.9713
340.3896, 212.5815
340.8717, 214.3570
341.3538, 216.9999
341.8359, 220.0573
342.3180, 223.5251
342.8001, 226.9693
343.2823, 229.6460
343.7644, 231.4627
344.2465, 233.6033
344.7286, 236.1273
345.2107, 239.1647
345.6928, 243.2209
346.1750, 248.3601
346.6571, 253.2205
347.1392, 256.2614
347.6213, 257.4559
348.1034, 260.1021
348.5855, 265.1322
349.0677, 270.8453
349.5498, 276.7342
350.0319, 282.5353
350.5140, 287.1131
350.9961, 289.4154
351.4782, 290.1964
351.9604, 293.0265
352.4425, 299.8372
352.9246, 305.9971
353.4067, 309.9178
353.8888, 312.2819
354.3709, 313.9649
354.8531, 315.1754
355.3352, 316.6290
355.8173, 319.9165
356.2994, 326.5265
356.7815, 331.5269
357.2636, 333.6082
357.7458, 334.3904
358.2279, 335.2704
358.7100, 336.5403
359.1921, 338.0092
359.6742, 339.5665
360.1563, 341.3550
360.6385, 342.1063
361.1206, 341.1600
361.6027, 339.8934
362.0848, 339.2362
362.5669, 338.9557
363.0490, 338.1819
363.5312, 336.3360
364.0133, 333.4781
364.4954, 330.0581
364.9775, 326.0087
365.4596, 321.5322
365.9417, 316.4067
366.4239, 310.9614
366.9060, 305.8191
367.3881, 301.2024
367.8702, 296.5174
368.3523, 290.4478
368.8344, 281.4003
369.3166, 273.5667
369.7987, 267.8889
370.2808, 262.6334
370.7629, 256.6100
371.2450, 249.6136
371.7271, 241.9644
372.2093, 233.8648
372.6914, 224.9441
373.1735, 217.6917
373.6556, 213.5047
374.1377, 209.4972
374.6198, 204.6891
375.1020, 199.2612
375.5841, 193.7583
376.0662, 188.4449
376.5483, 183.4644
377.0304, 179.6766
377.5125, 178.1658
377.9947, 176.3418
378.4768, 173.8159
378.9589, 170.8173
379.4410, 167.2828
379.9231, 163.2496
380.4052, 159.4997
380.8874, 157.5346
381.3695, 158.2403
381.8516, 157.8223
382.3337, 154.4236
382.8158, 151.1290
383.2979, 149.8952
383.7801, 150.4531
384.2622, 150.9588
384.7443, 149.6354
385.2264, 146.6926
385.7085, 144.7141
386.1906, 144.0530
386.6728, 143.9369
387.1549, 144.6024
387.6370, 145.4108
388.1191, 145.2824
388.6012, 143.5258
389.0833, 141.0878
389.5655, 139.7265
390.0476, 139.6776
390.5297, 139.6280
391.0118, 139.0866
391.4939, 138.4196
391.9760, 137.8363
392.4582, 137.3617
392.9403, 137.1607
393.4224, 137.6197
393.9045, 138.5775
394.3866, 138.9849
394.8687, 138.4693
395.3509, 137.7486
395.8330, 137.2009
396.3151, 136.8802
396.7972, 137.0449
397.2793, 138.3055
397.7614, 139.8712
398.2436, 140.5932
398.7257, 140.4194
399.2078, 139.9307
399.6899, 139.2988
400.1720, 138.6192
400.6541, 138.0276
401.1363, 137.3247
401.6184, 137.1029
402.1005, 138.3140
402.5826, 140.3248
403.0647, 141.2426
403.5468, 140.3105
404.0290, 138.5938
404.5111, 137.4789
404.9932, 136.9405
405.4753, 136.8320
405.9574, 137.5769
406.4395, 138.4647
406.9217, 138.6540
407.4038, 138.1430
407.8859, 137.7558
408.3680, 138.1808
408.8501, 139.3425
409.3322, 140.1651
409.8144, 140.8324
410.2965, 141.0315
410.7786, 140.2180
411.2607, 138.9421
411.7428, 138.1809
412.2249, 138.3496
412.7071, 139.0589
413.1892, 139.5713
413.6713, 139.9533
414.1534, 139.9568
414.6355, 139.0882
415.1176, 138.2206
415.5998, 138.0722
416.0819, 138.6237
416.5640, 139.3900
417.0461, 140.0426
417.5282, 140.5956
418.0103, 140.0716
418.4925, 136.9130
418.9746, 134.3519
419.4567, 133.6599
419.9388, 133.8205
420.4209, 133.2067
420.9030, 131.0728
421.3852, 128.4435
421.8673, 127.5949
422.3494, 129.4519
422.8315, 130.7205
423.3136, 130.9630
423.7957, 130.6610
424.2779, 129.8507
424.7600, 128.6767
425.2421, 127.5953
425.7242, 127.0702
426.2063, 127.0288
426.6884, 126.7440
427.1706, 125.9596
427.6527, 125.3708
428.1348, 125.3159
428.6169, 125.6070
429.0990, 126.0664
429.5811, 126.7662
430.0633, 127.2820
430.5454, 126.8933
431.0275, 125.5771
431.5096, 124.4471
431.9917, 123.5064
432.4738, 123.2466
432.9560, 124.5141
433.4381, 127.2807
433.9202, 129.2518
434.4023, 128.7509
434.8844, 126.9131
435.3665, 125.7577
435.8487, 125.5181
436.3308, 125.3993
436.8129, 124.6361
437.2950, 123.5378
437.7771, 123.3411
438.2592, 125.3841
438.7414, 126.9259
439.2235, 125.8337
439.7056, 123.1097
440.1877, 121.2566
440.6698, 121.2553
441.1519, 122.1454
441.6341, 122.3860
442.1162, 121.7360
442.5983, 121.1078
443.0804, 120.6240
443.5625, 120.1174
444.0446, 119.3586
444.5268, 118.4148
445.0089, 117.6577
445.4910, 117.4375
445.9731, 117.6412
446.4552, 117.1576
446.9373, 114.2980
447.4195, 112.7781
447.9016, 114.7780
448.3837, 117.6403
448.8658, 117.9958
449.3479, 114.9949
449.8300, 111.0067
450.3122, 109.5939
450.7943, 111.6435
451.2764, 112.9428
451.7585, 113.2141
452.2406, 112.9646
452.7227, 111.8573
453.2049, 110.3757
453.6870, 109.5239
454.1691, 110.0014
454.6512, 111.3379
455.1333, 112.3673
455.6154, 113.0396
456.0976, 113.5449
456.5797, 114.0150
457.0618, 114.2891
457.5439, 114.1839
458.0260, 113.6756
458.5081, 113.0058
458.9903, 112.2938
459.4724, 111.5632
459.9545, 110.7647
460.4366, 109.6769
460.9187, 109.1273
461.4008, 110.2581
461.8830, 112.4240
462.3651, 114.0625
462.8472, 114.8273
463.3293, 115.0836
463.8114, 114.6669
464.2935, 113.8790
464.7756, 114.0274
465.2578, 115.8537
465.7399, 118.1376
466.2220, 118.5818
466.7041, 116.5617
467.1862, 115.4312
467.6683, 116.2321
468.1505, 117.5751
468.6326, 118.5293
469.1147, 118.9626
469.5968, 118.8547
470.0789, 118.1097
470.5610, 116.8701
471.0432, 116.1086
471.5253, 115.8766
472.0074, 116.0818
472.4895, 117.1278
472.9716, 118.3890
473.4537, 119.2081
473.9359, 119.4548
474.4180, 119.5121
474.9001, 119.8799
475.3822, 120.6354
475.8643, 121.0446
476.3464, 120.7290
476.8286, 120.4577
477.3107, 120.3839
477.7928, 120.5392
478.2749, 121.0436
478.7570, 122.0403
479.2391, 123.0715
479.7213, 123.3468
480.2034, 122.7996
480.6855, 122.0557
481.1676, 121.0476
481.6497, 120.0717
482.1318, 119.0421
482.6140, 118.0836
483.0961, 118.1044
483.5782, 120.8903
484.0603, 124.3505
484.5424, 124.6667
485.0245, 121.6129
485.5067, 118.8013
485.9888, 118.2204
486.4709, 119.2213
486.9530, 120.0359
487.4351, 120.7459
487.9172, 121.1195
488.3994, 120.9249
488.8815, 120.4155
489.3636, 119.8661
489.8457, 119.3431
490.3278, 118.9479
490.8099, 118.8376
491.2921, 119.0439
491.7742, 118.7656
492.2563, 117.5391
492.7384, 116.4456
493.2205, 115.9322
493.7026, 115.7155
494.1848, 115.3874
494.6669, 114.7959
495.1490, 114.0744
495.6311, 113.4098
496.1132, 112.7865
496.5953, 112.2801
497.0775, 111.7175
497.5596, 111.4431
498.0417, 111.7836
498.5238, 112.5157
499.0059, 113.2110
499.4880, 113.7225
499.9702, 113.9240
500.4523, 113.4040
500.9344, 112.0044
501.4165, 110.9061
501.8986, 110.7860
502.3807, 110.7912
502.8629, 109.8697
503.3450, 108.0767
503.8271, 106.9264
504.3092, 107.9256
504.7913, 109.6740
505.2734, 109.6871
505.7556, 107.8487
506.2377, 106.3927
506.7198, 106.8332
507.2019, 108.4481
507.6840, 108.9555
508.1661, 107.9643
508.6483, 106.7890
509.1304, 105.3875
509.6125, 104.1770
510.0946, 103.6532
510.5767, 103.8858
511.0588, 104.7203
511.5410, 106.1727
512.0231, 108.2320
512.5052, 109.1366
512.9873, 107.3860
513.4694, 106.2561
513.9515, 107.3585
514.4337, 108.9449
514.9158, 108.6622
515.3979, 105.9642
515.8800, 102.8160
516.3621, 101.8411
516.8442, 103.2916
517.3264, 104.2845
517.8085, 104.6883
518.2906, 104.7471
518.7727, 104.1520
519.2548, 103.4194
519.7369, 103.5988
520.2191, 105.4481
520.7012, 107.2693
521.1833, 106.7238
521.6654, 104.1746
522.1475, 102.5595
522.6296, 102.8380
523.1118, 103.6805
523.5939, 103.5613
524.0760, 102.6345
524.5581, 102.0436
525.0402, 102.1134
525.5223, 102.4573
526.0045, 103.1858
526.4866, 103.9872
526.9687, 103.8463
527.4508, 102.2360
527.9329, 100.0649
528.4150, 99.12962
528.8972, 100.6077
529.3793, 100.5356
529.8614, 97.70184
530.3435, 94.54874
530.8256, 92.24619
531.3077, 90.77197
531.7899, 89.71680
532.2720, 88.86307
532.7541, 88.17608
533.2362, 87.57106
533.7183, 87.04563
534.2004, 86.60201
534.6826, 86.21983
535.1647, 85.94023
535.6468, 86.06218
536.1289, 86.40470
536.6110, 86.15950
537.0931, 83.87702
537.5753, 81.18211
538.0574, 81.91015
538.5395, 86.27779
539.0216, 89.18233
539.5037, 87.90775
539.9858, 84.53500
540.4680, 82.61949
540.9501, 82.37526
541.4322, 81.96109
541.9143, 80.76001
542.3964, 79.21397
542.8785, 77.33500
543.3607, 75.38610
543.8428, 74.57808
544.3249, 75.90774
544.8070, 78.56694
545.2891, 79.54056
545.7712, 76.37015
546.2534, 74.88976
546.7355, 77.31425
547.2176, 79.89329
547.6997, 79.26565
548.1818, 75.82614
548.6639, 72.61162
549.1461, 72.06199
549.6282, 73.57510
550.1103, 74.72475
550.5924, 75.50878
551.0745, 75.94279
551.5566, 75.81807
552.0388, 75.46886
552.5209, 75.18715
553.0030, 74.98827
553.4851, 74.57505
553.9672, 73.60079
554.4493, 72.35847
554.9315, 71.23207
555.4136, 70.24068
555.8957, 69.81463
556.3778, 70.35876
556.8599, 71.49931
557.3420, 72.21321
557.8242, 72.36759
558.3063, 72.50566
558.7884, 72.92282
559.2705, 73.23586
559.7526, 73.06078
560.2347, 72.41140
560.7169, 71.44674
561.1990, 70.18594
561.6811, 68.87987
562.1632, 68.80671
562.6453, 71.25665
563.1274, 72.71229
563.6096, 72.19949
564.0917, 71.14965
564.5738, 70.45615
565.0559, 70.21853
565.5380, 70.19176
566.0201, 70.27254
566.5023, 70.40536
566.9844, 70.47945
567.4665, 70.51637
567.9486, 70.33452
568.4307, 69.68208
568.9128, 68.93230
569.3950, 68.58607
569.8771, 68.66167
570.3592, 68.87060
570.8413, 69.25720
571.3234, 69.63786
571.8055, 69.77663
572.2877, 69.70977
572.7698, 69.69501
573.2519, 69.89693
573.7340, 70.16854
574.2161, 70.12306
574.6982, 69.46545
575.1804, 68.99584
575.6625, 68.86774
576.1446, 68.78156
576.6267, 68.56928
577.1088, 68.24126
577.5909, 67.77336
578.0731, 67.05212
578.5552, 66.50517
579.0373, 67.41518
579.5194, 70.22263
580.0015, 72.02788
580.4836, 72.06921
580.9658, 71.07118
581.4479, 69.06492
581.9300, 66.42403
582.4121, 64.73488
582.8942, 65.11971
583.3763, 66.25331
583.8585, 66.85141
584.3406, 67.08866
584.8227, 67.76080
585.3048, 69.24033
585.7869, 70.74352
586.2690, 71.14115
586.7512, 70.15042
587.2333, 69.36968
587.7154, 69.12337
588.1975, 68.72311
588.6796, 67.59564
589.1617, 66.20134
589.6439, 65.19261
590.1260, 64.82854
590.6081, 65.07057
591.0902, 66.16122
591.5723, 68.28459
592.0544, 69.41760
592.5366, 69.07629
593.0187, 68.37942
593.5008, 67.59284
593.9829, 66.89894
594.4650, 66.63564
594.9471, 66.98938
595.4293, 67.37151
595.9114, 67.06120
596.3935, 66.48676
596.8756, 66.83041
597.3577, 68.30056
597.8398, 69.84473
598.3220, 70.79678
598.8041, 71.12981
599.2862, 70.61626
599.7683, 68.56945
600.2504, 66.72883
600.7325, 64.94537
601.2147, 63.75234
601.6968, 63.98018
602.1789, 65.44044
602.6610, 67.01317
603.1431, 67.88348
603.6252, 68.06205
604.1074, 67.38273
604.5895, 65.28855
605.0716, 63.79681
605.5537, 63.99986
606.0358, 64.55077
606.5179, 64.32668
607.0001, 63.41594
607.4822, 62.93681
607.9643, 63.96719
608.4464, 65.35817
608.9285, 65.55145
609.4106, 64.73669
609.8928, 64.10913
610.3749, 64.14957
610.8570, 64.49524
611.3391, 64.63020
611.8212, 64.52068
612.3033, 64.29166
612.7855, 63.40701
613.2676, 62.97176
613.7497, 64.20296
614.2318, 66.00318
614.7139, 66.36650
615.1960, 64.62582
615.6782, 62.31898
616.1603, 61.56447
616.6424, 62.43233
617.1245, 63.30444
617.6066, 64.35316
618.0887, 65.05410
618.5709, 64.87542
619.0530, 64.30317
619.5351, 64.01064
620.0172, 64.16051
620.4993, 64.33658
620.9814, 64.20506
621.4636, 63.99007
621.9457, 64.10944
622.4278, 64.57362
622.9099, 65.00439
623.3920, 65.16271
623.8741, 65.09506
624.3563, 64.96162
624.8384, 64.75848
625.3205, 64.48802
625.8026, 64.00371
626.2847, 63.58118
626.7668, 63.37631
627.2490, 63.38895
627.7311, 63.58759
628.2132, 63.98771
628.6953, 64.45954
629.1774, 64.76170
629.6595, 64.88489
630.1417, 65.00069
630.6238, 65.00774
631.1059, 65.22768
631.5880, 66.24449
632.0701, 67.75330
632.5522, 68.74737
633.0344, 68.83622
633.5165, 68.66856
633.9986, 68.47675
634.4807, 68.26979
634.9628, 68.02547
635.4449, 67.75499
635.9271, 67.59711
636.4092, 67.73225
636.8913, 68.09635
637.3734, 67.95906
637.8555, 66.72366
638.3376, 65.95628
638.8198, 66.15767
639.3019, 66.65893
639.7840, 67.07017
640.2661, 67.30473
640.7482, 67.27720
641.2303, 66.60027
641.7125, 65.88313
642.1946, 66.33867
642.6767, 67.84383
643.1588, 68.96962
643.6409, 69.21404
644.1230, 69.03389
644.6052, 68.90825
645.0873, 68.82945
645.5694, 68.98732
646.0515, 69.61207
646.5336, 70.21212
647.0157, 70.22195
647.4979, 70.25418
647.9800, 71.42924
648.4621, 73.86774
648.9442, 76.21596
649.4263, 76.96698
649.9084, 76.31154
650.3906, 75.98680
650.8727, 75.97088
651.3548, 76.35241
651.8369, 77.50274
652.3190, 78.84747
652.8011, 79.69221
653.2833, 80.00836
653.7654, 80.59030
654.2475, 81.90279
654.7296, 83.48607
655.2117, 85.13071
655.6938, 86.68807
656.1760, 87.68368
656.6581, 87.92064
657.1402, 87.79771
657.6223, 87.87237
658.1044, 88.16074
658.5865, 88.54855
659.0687, 88.70900
659.5508, 89.36760
660.0329, 91.02708
660.5150, 93.11223
660.9971, 95.08472
661.4792, 96.79200
661.9614, 98.12303
662.4435, 98.69726
662.9256, 98.88783
663.4077, 99.73570
663.8898, 101.2669
664.3719, 102.2435
664.8541, 101.9304
665.3362, 101.0577
665.8183, 100.9791
666.3004, 102.1146
666.7825, 102.5244
667.2646, 101.1370
667.7468, 100.0922
668.2289, 101.0078
668.7110, 102.8060
669.1931, 103.6704
669.6752, 103.0180
670.1573, 101.7260
670.6395, 100.7302
671.1216, 100.0208
671.6037, 99.57941
672.0858, 99.57599
672.5679, 99.30595
673.0500, 98.15351
673.5322, 96.73826
674.0143, 96.10584
674.4964, 96.41966
674.9785, 96.33110
675.4606, 95.24599
675.9427, 93.78222
676.4249, 92.39298
676.9070, 91.04987
677.3891, 89.59858
677.8712, 87.97060
678.3533, 86.20240
678.8354, 84.18639
679.3176, 81.78182
679.7997, 80.60088
680.2818, 81.80098
680.7639, 82.46077
681.2460, 81.27073
681.7281, 79.23470
682.2103, 77.23858
682.6924, 75.39293
683.1745, 74.09653
683.6566, 73.81963
684.1387, 74.03600
684.6208, 74.23067
685.1030, 74.33631
685.5851, 74.15667
686.0672, 73.58380
686.5493, 72.88426
687.0314, 72.43566
687.5135, 72.23199
687.9957, 72.32297
688.4778, 73.52616
688.9599, 74.06227
689.4420, 72.98009
689.9241, 71.26882
690.4063, 69.94124
690.8884, 69.21727
691.3705, 68.90749
691.8526, 69.20976
692.3347, 69.69594
692.8168, 69.18451
693.2990, 67.78789
693.7811, 67.61395
694.2632, 69.82951
694.7453, 72.46726
695.2274, 72.58360
695.7095, 69.53011
696.1917, 67.88927
696.6738, 68.02399
697.1559, 68.99608
697.6380, 71.63340
698.1201, 74.34473
698.6022, 75.06421
699.0844, 73.63092
699.5665, 71.92087
700.0486, 71.44606
700.5307, 71.84755
701.0128, 72.29405
701.4949, 72.79288
701.9771, 73.05185
702.4592, 72.80879
702.9413, 72.63251
703.4234, 73.40126
703.9055, 75.18968
704.3876, 76.06757
704.8698, 75.29750
705.3519, 74.47462
705.8340, 74.18980
706.3161, 74.12038
706.7982, 73.80339
707.2803, 73.23683
707.7625, 72.86314
708.2446, 73.08606
708.7267, 73.69366
709.2088, 74.18504
709.6909, 74.58932
710.1730, 74.44983
710.6552, 73.21989
711.1373, 72.15806
711.6194, 72.95309
712.1015, 75.14023
712.5836, 75.94987
713.0657, 73.81293
713.5479, 72.00954
714.0300, 71.62761
714.5121, 72.13261
714.9942, 73.50220
715.4763, 75.30264
715.9584, 76.15811
716.4406, 75.03717
716.9227, 72.77283
717.4048, 71.17263
717.8869, 70.21623
718.3690, 70.16319
718.8511, 71.46074
719.3333, 72.96117
719.8154, 73.92495
720.2975, 74.45854
720.7796, 74.79623
721.2617, 74.86861
721.7438, 74.91969
722.2260, 74.95180
722.7081, 75.05668
723.1902, 75.55046
723.6723, 76.21373
724.1544, 76.33823
724.6365, 75.53954
725.1187, 74.27610
725.6008, 73.06705
726.0829, 71.83284
726.5650, 72.11700
727.0471, 74.86555
727.5292, 77.29443
728.0114, 77.52946
728.4935, 76.77074
728.9756, 76.97880
729.4577, 78.44673
729.9398, 79.76643
730.4219, 80.59681
730.9041, 81.08561
731.3862, 80.94065
731.8683, 80.62164
732.3504, 81.33104
732.8325, 83.40826
733.3146, 85.44268
733.7968, 85.34477
734.2789, 83.33344
734.7610, 83.12185
735.2431, 85.43338
735.7252, 87.28738
736.2073, 86.88892
736.6895, 86.22166
737.1716, 87.94771
737.6537, 91.94247
738.1358, 94.96254
738.6179, 95.75812
739.1000, 96.05489
739.5822, 96.67974
740.0643, 97.44319
740.5464, 98.12914
741.0285, 98.64458
741.5106, 98.81600
741.9927, 98.38744
742.4749, 97.66505
742.9570, 97.87115
743.4391, 99.27056
743.9212, 99.84055
744.4033, 98.60777
744.8854, 97.35866
745.3676, 97.93629
745.8497, 99.71656
746.3318, 100.6353
746.8139, 100.2159
747.2960, 99.43437
747.7781, 98.48332
748.2603, 97.38441
748.7424, 95.82021
749.2245, 94.11951
749.7066, 93.35628
750.1887, 94.13816
750.6708, 95.40093
751.1530, 95.32790
751.6351, 93.96452
752.1172, 93.05779
752.5993, 92.86439
753.0814, 92.60256
753.5635, 91.78551
754.0457, 90.69650
754.5278, 89.88254
755.0099, 89.36523
755.4920, 88.96716
755.9741, 88.91976
756.4562, 88.71811
756.9384, 87.87965
757.4205, 86.78836
757.9026, 86.11037
758.3847, 85.96364
758.8668, 85.82555
759.3489, 85.23351
759.8311, 84.26990
760.3132, 83.04897
760.7953, 81.56487
761.2774, 80.34490
761.7595, 79.44585
762.2416, 79.15965
762.7238, 80.02406
763.2059, 81.99217
763.6880, 83.20589
764.1701, 83.28157
764.6522, 83.19501
765.1343, 83.17487
765.6165, 83.00150
766.0986, 82.50624
766.5807, 81.69270
767.0628, 80.57826
767.5449, 79.10295
768.0270, 77.62660
768.5092, 76.25101
768.9913, 75.23927
769.4734, 75.97388
769.9555, 78.63144
770.4376, 80.70231
770.9197, 80.69604
771.4019, 79.22395
771.8840, 77.52885
772.3661, 75.05046
772.8482, 73.96431
773.3303, 75.82149
773.8124, 77.20602
774.2946, 76.70709
774.7767, 75.23689
775.2588, 73.71327
775.7409, 72.34685
776.2230, 71.54649
776.7051, 71.76596
777.1873, 72.52802
777.6694, 73.64926
778.1515, 74.82768
778.6336, 75.10592
779.1157, 74.23463
779.5978, 72.74471
780.0800, 70.99403
780.5621, 69.16212
781.0442, 68.50679
781.5263, 69.66817
782.0084, 70.49210
782.4905, 70.45229
782.9727, 70.21281
783.4548, 70.24407
783.9369, 70.38612
784.4190, 70.15251
784.9011, 69.12903
785.3832, 68.52234
785.8654, 69.36326
786.3475, 70.57385
786.8296, 70.95627
787.3117, 70.65627
787.7938, 70.52065
788.2759, 70.91791
788.7581, 71.24689
789.2402, 70.37437
789.7223, 68.39753
790.2044, 67.59628
790.6865, 68.15543
791.1686, 69.18675
791.6508, 70.75621
792.1329, 72.20307
792.6150, 72.54008
793.0971, 71.76067
793.5792, 71.22339
794.0613, 71.19949
794.5435, 71.18079
795.0256, 70.79568
795.5077, 70.48897
795.9898, 70.80048
796.4719, 71.64354
796.9540, 72.52564
797.4362, 73.24062
797.9183, 73.64357
798.4004, 73.17751
798.8825, 72.18761
799.3646, 72.23253
799.8467, 73.52224
800.3289, 74.69826
800.8110, 74.89395
801.2931, 74.69542
801.7752, 75.47983
802.2573, 77.88033
802.7394, 79.12385
803.2216, 77.94009
803.7037, 77.07228
804.1858, 77.53223
804.6679, 78.52649
805.1500, 78.97402
805.6321, 78.85891
806.1143, 79.44516
806.5964, 82.07082
807.0785, 84.92662
807.5606, 86.39391
808.0427, 87.02129
808.5248, 87.67786
809.0070, 88.61172
809.4891, 90.06984
809.9712, 92.31979
810.4533, 94.95728
810.9354, 96.82869
811.4175, 97.81466
811.8997, 99.01197
812.3818, 100.6541
812.8639, 102.2192
813.3460, 103.2155
813.8281, 104.0401
814.3102, 105.5652
814.7924, 107.9707
815.2745, 110.3133
815.7566, 112.6100
816.2387, 114.6651
816.7208, 115.8774
817.2029, 117.0250
817.6851, 119.4469
818.1672, 123.1779
818.6493, 126.5484
819.1314, 127.8766
819.6135, 128.6413
820.0956, 131.7373
820.5778, 136.5388
821.0599, 140.2186
821.5420, 142.1933
822.0241, 143.2741
822.5062, 143.8827
822.9883, 144.3449
823.4705, 145.8189
823.9526, 148.8927
824.4347, 151.5079
824.9168, 153.3531
825.3989, 155.0528
825.8810, 156.6389
826.3632, 158.3356
826.8453, 160.6418
827.3274, 163.6580
827.8095, 166.0538
828.2916, 167.2452
828.7737, 167.7333
829.2559, 167.2565
829.7380, 166.5870
830.2201, 167.0677
830.7022, 168.8161
831.1843, 170.8437
831.6664, 172.5198
832.1486, 173.7093
832.6307, 173.6930
833.1128, 172.5755
833.5949, 172.9698
834.0770, 175.6092
834.5591, 177.7350
835.0413, 177.3413
835.5233, 175.5957
836.0054, 175.2907
836.4875, 176.9615
836.9697, 178.5535
837.4518, 179.2423
837.9339, 180.8373
838.4160, 184.6405
838.8981, 189.1933
839.3802, 192.5734
839.8624, 194.8264
840.3445, 198.0877
840.8266, 204.0536
841.3087, 210.6462
841.7908, 215.3459
842.2729, 219.8113
842.7551, 227.4567
843.2372, 238.1676
843.7193, 248.4838
844.2014, 256.1834
844.6835, 263.0844
845.1656, 272.6283
845.6478, 284.8853
846.1299, 298.1533
846.6120, 312.7291
847.0941, 327.0544
847.5762, 340.4887
848.0583, 353.4055
848.5405, 366.1415
849.0226, 378.5940
849.5047, 391.6532
849.9868, 404.5603
850.4689, 418.9733
850.9510, 437.7848
851.4332, 456.1366
851.9153, 469.5943
852.3974, 478.9796
852.8795, 487.7009
853.3616, 496.5558
853.8438, 506.6523
854.3259, 520.3663
854.8080, 534.9056
855.2901, 546.3495
855.7722, 554.7643
856.2543, 561.9123
856.7365, 568.5165
857.2186, 574.4055
857.7007, 579.7050
858.1828, 584.1520
858.6649, 585.5720
859.1470, 583.6942
859.6292, 580.5635
860.1113, 576.9101
860.5934, 571.6481
861.0755, 563.8729
861.5576, 553.7343
862.0397, 541.8032
862.5219, 527.5939
863.0040, 512.4994
863.4861, 497.8943
863.9682, 481.0148
864.4503, 458.4465
864.9324, 433.6199
865.4146, 411.4149
865.8967, 392.9602
866.3788, 375.4432
866.8609, 357.5024
867.3430, 339.6893
867.8251, 322.3326
868.3073, 305.5627
868.7894, 289.4695
869.2715, 274.1690
869.7536, 260.7138
870.2357, 249.9785
870.7178, 240.5388
871.2000, 228.7423
871.6821, 214.7445
872.1642, 203.5015
872.6463, 195.5717
873.1284, 189.2389
873.6105, 184.0872
874.0927, 179.4190
874.5748, 174.0638
875.0569, 167.7691
875.5390, 162.7577
876.0211, 160.0437
876.5032, 157.2861
876.9854, 153.9562
877.4675, 150.6028
877.9496, 147.5219
878.4317, 144.7897
878.9138, 142.5195
879.3959, 140.6444
879.8781, 139.5218
880.3602, 140.2442
880.8423, 141.0790
881.3244, 139.8076
881.8065, 137.4003
882.2886, 136.1731
882.7708, 136.8125
883.2529, 138.2975
883.7350, 140.0777
884.2171, 141.6782
884.6992, 141.7278
885.1813, 140.4285
885.6635, 139.1502
886.1456, 138.0947
886.6277, 138.2078
887.1098, 140.3501
887.5919, 143.6747
888.0740, 146.0130
888.5562, 147.2087
889.0383, 147.9673
889.5204, 148.2189
890.0025, 148.1398
890.4846, 147.5234
890.9667, 146.7948
891.4489, 146.2749
891.9310, 145.9907
892.4131, 146.2414
892.8952, 148.4297
893.3773, 149.3516
893.8594, 147.0511
894.3416, 143.9592
894.8237, 141.8594
895.3058, 140.6826
895.7879, 139.8585
896.2700, 139.2012
896.7521, 138.4568
897.2343, 137.5822
897.7164, 136.3864
898.1985, 134.1211
898.6806, 131.3324
899.1627, 129.8796
899.6448, 130.0580
900.1270, 129.9735
900.6091, 128.0314
901.0912, 124.8694
901.5733, 121.9466
902.0554, 119.2560
902.5375, 117.4724
903.0197, 116.7425
903.5018, 116.6212
903.9839, 117.1170
904.4660, 117.7163
904.9481, 117.4801
905.4302, 116.2365
905.9124, 115.8367
906.3945, 116.7946
906.8766, 117.8630
907.3587, 118.8868
907.8408, 119.9153
908.3229, 121.0717
908.8051, 122.2523
909.2872, 123.1865
909.7693, 123.7314
910.2514, 124.3053
910.7335, 124.4629
911.2156, 125.2898
911.6978, 128.6301
912.1799, 132.7143
912.6620, 134.1994
913.1441, 132.9117
913.6262, 132.3551
914.1083, 135.2079
914.5905, 139.4190
915.0726, 142.6057
915.5547, 144.9746
916.0368, 146.7625
916.5189, 148.1442
917.0010, 149.9648
917.4832, 152.6494
917.9653, 155.7558
918.4474, 158.8144
918.9295, 161.7434
919.4116, 163.3728
919.8937, 163.4328
920.3759, 164.0470
920.8580, 165.7611
921.3401, 168.1266
921.8222, 171.0846
922.3043, 174.2900
922.7864, 176.4504
923.2686, 177.1240
923.7507, 177.7185
924.2328, 178.0313
924.7149, 178.5069
925.1970, 179.4917
925.6791, 180.5785
926.1613, 181.3625
926.6434, 181.8260
927.1255, 182.0606
927.6076, 181.5293
928.0897, 181.5130
928.5718, 183.5405
929.0540, 185.3798
929.5361, 184.6530
930.0182, 182.2546
930.5003, 180.4795
930.9824, 180.0534
931.4645, 179.6578
931.9467, 177.7239
932.4288, 175.7027
932.9109, 176.3973
933.3930, 178.2106
933.8751, 176.8538
934.3572, 172.0892
934.8394, 167.6189
935.3215, 165.7957
935.8036, 165.6883
936.2857, 166.3214
936.7678, 167.4107
937.2499, 166.5902
937.7321, 163.7259
938.2142, 160.9481
938.6963, 159.0006
939.1784, 157.4396
939.6605, 155.8864
940.1426, 154.3028
940.6248, 152.3155
941.1069, 149.3387
941.5890, 147.8706
942.0711, 149.1529
942.5532, 150.1630
943.0353, 149.0119
943.5175, 146.9292
943.9996, 145.9715
944.4817, 146.2563
944.9638, 146.1182
945.4459, 145.8353
945.9280, 144.6647
946.4102, 141.2688
946.8923, 137.9942
947.3744, 136.6925
947.8565, 136.8479
948.3386, 137.1550
948.8207, 137.3634
949.3029, 137.3419
949.7850, 136.8036
950.2671, 136.2480
950.7492, 136.5130
951.2313, 136.7352
951.7134, 135.2411
952.1956, 132.2955
952.6777, 129.9662
953.1598, 129.4161
953.6419, 129.7225
954.1240, 130.2880
954.6061, 130.8086
955.0883, 130.6424
955.5704, 129.9027
956.0525, 129.0067
956.5346, 128.1321
957.0167, 127.7045
957.4988, 128.3544
957.9810, 129.2749
958.4631, 128.0059
958.9452, 124.7689
959.4273, 122.5158
959.9094, 121.6099
960.3915, 121.1470
960.8737, 120.7798
961.3558, 120.3024
961.8379, 119.4461
962.3200, 118.2069
962.8021, 116.4901
963.2842, 114.0306
963.7664, 111.8945
964.2485, 110.2890
964.7306, 108.9929
965.2127, 108.0330
965.6948, 107.1895
966.1769, 105.9626
966.6591, 104.2194
967.1412, 102.6116
967.6233, 101.2604
968.1054, 99.88840
968.5875, 98.33994
969.0696, 96.83787
969.5518, 95.65312
970.0339, 94.65757
970.5160, 93.46749
970.9981, 92.08372
971.4802, 90.32024
971.9623, 87.17058
972.4445, 84.69232
972.9266, 84.85349
973.4087, 85.87873
973.8908, 85.51967
974.3729, 83.70442
974.8550, 81.73943
975.3372, 80.11303
975.8193, 78.69347
976.3014, 77.83674
976.7835, 76.78223
977.2656, 74.27045
977.7477, 70.95541
978.2299, 68.11729
978.7120, 66.20458
979.1941, 65.41515
979.6762, 66.22202
980.1583, 67.58026
980.6404, 68.33364
981.1226, 68.35847
981.6047, 66.82349
982.0868, 64.09236
982.5689, 62.44034
983.0510, 62.74841
983.5331, 63.08713
984.0153, 61.01601
984.4974, 60.82736
984.9795, 60.14862
985.4616, 58.41148
985.9437, 58.78409
986.4258, 57.39935
986.9080, 56.33851
987.3901, 56.80822
987.8722, 57.72673
988.3543, 57.30668
988.8364, 55.62994
989.3185, 54.81554
989.8007, 55.03206
990.2828, 55.33547
990.7649, 55.57827
991.2470, 55.83501
991.7291, 56.25671
992.2112, 56.61714
992.6934, 56.38110
993.1755, 55.41778
993.6576, 54.60569
994.1397, 54.12704
994.6218, 53.47065
995.1039, 52.26637
995.5861, 51.13137
996.0682, 50.68631
996.5503, 50.65263
997.0324, 50.15873
997.5145, 48.72917
997.9966, 48.27650
998.4788, 50.19687
998.9609, 51.48249
999.4430, 50.37023
999.9251, 48.86872
1000.407, 49.00947
1000.889, 50.34614
1001.371, 50.99973
1001.854, 50.46139
1002.336, 49.68889
1002.818, 48.14510
1003.300, 47.37817
1003.782, 49.10632
1004.264, 51.56456
1004.746, 52.59193
1005.228, 52.19831
1005.711, 51.71240
1006.193, 51.54468
1006.675, 51.63971
1007.157, 52.27634
1007.639, 52.87362
1008.121, 52.84486
1008.603, 52.42324
1009.085, 52.07914
1009.567, 51.84841
1010.050, 51.29966
1010.532, 49.95218
1011.014, 48.92206
1011.496, 49.76292
1011.978, 51.25281
1012.460, 51.80066
1012.942, 51.46056
1013.424, 50.39887
1013.906, 48.85006
1014.389, 47.79008
1014.871, 48.07022
1015.353, 48.84874
1015.835, 48.86440
1016.317, 48.46442
1016.799, 48.48196
1017.281, 48.89897
1017.763, 49.32658
1018.246, 49.64006
1018.728, 50.01004
1019.210, 50.63081
1019.692, 51.29806
1020.174, 51.55287
1020.656, 51.45702
1021.138, 51.21022
1021.620, 50.86596
1022.102, 50.91272
1022.585, 51.54692
1023.067, 52.13189
1023.549, 51.95229
1024.031, 51.29731
1024.513, 51.27036
1024.995, 51.84101
1025.477, 51.39875
1025.959, 49.69145
1026.442, 48.75336
1026.924, 49.53112
1027.406, 50.91903
1027.888, 51.69118
1028.370, 51.93999
1028.852, 52.07543
1029.334, 52.04225
1029.816, 52.36610
1030.298, 53.19630
1030.781, 53.93332
1031.263, 54.28981
1031.745, 54.46909
1032.227, 54.68496
1032.709, 54.95073
1033.191, 55.49175
1033.673, 56.61127
1034.155, 56.87665
1034.638, 55.78262
1035.120, 54.74073
1035.602, 54.33557
1036.084, 54.36541
1036.566, 54.66527
1037.048, 55.20371
1037.530, 55.46604
1038.012, 55.34422
1038.495, 55.18732
1038.977, 55.00142
1039.459, 54.81673
1039.941, 54.76293
1040.423, 54.60762
1040.905, 53.84505
1041.387, 53.88840
1041.869, 53.99551
1042.351, 53.53691
1042.833, 54.36892
1043.316, 54.34062
1043.798, 53.95757
1044.280, 53.00665
1044.762, 52.08525
1045.244, 51.86366
1045.726, 52.33738
1046.208, 53.32256
1046.690, 56.07085
1047.173, 57.38840
1047.655, 55.74160
1048.137, 54.10781
1048.619, 54.05430
1049.101, 54.58698
1049.583, 54.38849
1050.065, 53.51720
1050.547, 53.18134
1051.030, 54.33643
1051.512, 54.72178
1051.994, 53.03295
1052.476, 51.62989
1052.958, 52.07994
1053.440, 53.19450
1053.922, 53.55906
1054.404, 53.16435
1054.886, 52.74848
1055.369, 52.55236
1055.851, 52.15350
1056.333, 50.78806
1056.815, 49.95575
1057.297, 51.07333
1057.779, 52.75232
1058.261, 53.31400
1058.743, 52.80326
1059.225, 52.31208
1059.708, 52.05173
1060.190, 51.94843
1060.672, 52.07775
1061.154, 52.24783
1061.636, 52.49856
1062.118, 52.62981
1062.600, 52.31880
1063.082, 51.66439
1063.565, 51.15807
1064.047, 50.95134
1064.529, 50.82109
1065.011, 50.77104
1065.493, 50.67492
1065.975, 50.03217
1066.457, 49.61350
1066.939, 50.41137
1067.422, 52.23275
1067.904, 54.31173
1068.386, 56.75805
1068.868, 58.04858
1069.350, 56.51893
1069.832, 54.85708
1070.314, 54.81371
1070.796, 55.31853
1071.278, 55.06695
1071.760, 54.27833
1072.243, 54.05259
1072.725, 54.79974
1073.207, 55.30619
1073.689, 54.96606
1074.171, 54.33147
1074.653, 53.33637
1075.135, 52.50985
1075.617, 52.50779
1076.100, 53.08733
1076.582, 53.53891
1077.064, 53.66671
1077.546, 53.95700
1078.028, 55.14860
1078.510, 55.91735
1078.992, 54.97459
1079.474, 53.75690
1079.957, 53.86218
1080.439, 54.71252
1080.921, 54.81894
1081.403, 53.87034
1081.885, 53.01919
1082.367, 52.63044
1082.849, 52.63508
1083.331, 53.59679
1083.813, 54.38665
1084.296, 53.51972
1084.778, 52.00145
1085.260, 51.94755
1085.742, 53.54404
1086.224, 54.34494
1086.706, 52.77988
1087.188, 51.13877
1087.670, 50.41099
1088.152, 50.04762
1088.635, 49.57776
1089.117, 49.21916
1089.599, 49.65951
1090.081, 50.71593
1090.563, 50.79963
1091.045, 48.59620
1091.527, 47.05118
1092.009, 48.07835
1092.491, 49.41534
1092.974, 49.78632
1093.456, 49.45838
1093.938, 48.72202
1094.420, 47.71033
1094.902, 46.56811
1095.384, 45.05079
1095.866, 44.37901
1096.348, 46.25061
1096.831, 47.59415
1097.313, 46.00050
1097.795, 43.67561
1098.277, 42.95187
1098.759, 43.51299
1099.241, 43.77872
1099.723, 43.28498
1100.205, 43.36312
1100.688, 45.22061
1101.170, 46.68419
1101.652, 46.30999
1102.134, 45.69655
1102.616, 46.60046
1103.098, 48.11687
1103.580, 48.14857
1104.062, 46.32696
1104.544, 44.77552
1105.026, 43.92190
1105.509, 43.49552
1105.991, 43.68952
1106.473, 44.00426
1106.955, 44.32246
1107.437, 44.45528
1107.919, 44.05037
1108.401, 43.12494
1108.883, 42.36621
1109.366, 41.69114
1109.848, 41.46726
1110.330, 42.25006
1110.812, 42.89141
1111.294, 42.78769
1111.776, 42.33255
1112.258, 41.76673
1112.740, 41.20851
1113.223, 41.23738
1113.705, 42.47073
1114.187, 43.00649
1114.669, 42.00152
1115.151, 41.27495
1115.633, 41.73786
1116.115, 42.31911
1116.597, 41.99060
1117.079, 41.15345
1117.562, 40.92078
1118.044, 41.47238
1118.526, 41.84793
1119.008, 41.83424
1119.490, 42.03531
1119.972, 42.95743
1120.454, 43.54415
1120.936, 43.04695
1121.418, 41.91164
1121.901, 40.76292
1122.383, 39.58478
1122.865, 39.14681
1123.347, 39.84098
1123.829, 40.24665
1124.311, 40.14444
1124.793, 39.93774
1125.275, 39.82378
1125.758, 39.62200
1126.240, 38.98800
1126.722, 38.12681
1127.204, 38.37448
1127.686, 40.29145
1128.168, 40.21850
1128.650, 37.16380
1129.132, 36.01433
1129.615, 38.80023
1130.097, 41.88554
1130.579, 42.27582
1131.061, 40.94644
1131.543, 40.22599
1132.025, 40.12212
1132.507, 39.57878
1132.989, 38.51383
1133.471, 38.39567
1133.953, 39.58628
1134.436, 40.80258
1134.918, 41.30431
1135.400, 41.50187
1135.882, 41.95376
1136.364, 42.61335
1136.846, 43.45200
1137.328, 44.37853
1137.810, 44.49743
1138.293, 43.76255
1138.775, 42.83409
1139.257, 41.97158
1139.739, 41.37078
1140.221, 41.27284
1140.703, 41.34661
1141.185, 40.85445
1141.667, 40.02074
1142.150, 39.27428
1142.632, 38.81852
1143.114, 39.63164
1143.596, 41.67281
1144.078, 43.20610
1144.560, 43.19053
1145.042, 42.54659
1145.524, 42.34752
1146.006, 42.22719
1146.489, 41.42449
1146.971, 40.34046
1147.453, 39.85502
1147.935, 39.90310
1148.417, 39.81356
1148.899, 39.36502
1149.381, 39.03374
1149.863, 39.02691
1150.345, 39.48501
1150.828, 41.44130
1151.310, 43.17906
1151.792, 41.99290
1152.274, 39.37315
1152.756, 38.35951
1153.238, 39.23412
1153.720, 40.02756
1154.202, 39.89248
1154.685, 39.65778
1155.167, 39.71401
1155.649, 39.85098
1156.131, 40.12813
1156.613, 40.26087
1157.095, 39.78225
1157.577, 38.93578
1158.059, 38.40702
1158.542, 38.33433
1159.024, 38.43325
1159.506, 38.69532
1159.988, 39.03737
1160.470, 39.45289
1160.952, 39.92181
1161.434, 40.89616
1161.916, 41.64782
1162.398, 40.84489
1162.880, 38.57360
1163.363, 37.04757
1163.845, 36.28741
1164.327, 36.29710
1164.809, 37.64735
1165.291, 38.79980
1165.773, 39.35809
1166.255, 39.40946
1166.737, 38.79583
1167.220, 37.91724
1167.702, 37.80534
1168.184, 38.52335
1168.666, 39.44328
1169.148, 40.75435
1169.630, 41.30134
1170.112, 40.76139
1170.594, 40.14552
1171.077, 40.03330
1171.559, 39.71745
1172.041, 38.08499
1172.523, 35.82748
1173.005, 35.86203
1173.487, 37.97371
1173.969, 39.53612
1174.451, 40.38032
1174.933, 40.57610
1175.416, 40.17920
1175.898, 39.78091
1176.380, 39.80549
1176.862, 39.93543
1177.344, 39.71151
1177.826, 39.24387
1178.308, 38.60374
1178.790, 37.98511
1179.272, 38.13241
1179.755, 38.82261
1180.237, 38.65072
1180.719, 37.22639
1181.201, 36.42087
1181.683, 38.11214
1182.165, 40.10542
1182.647, 39.99712
1183.129, 41.02936
1183.612, 39.87000
1184.094, 40.98551
1184.576, 40.88036
1185.058, 39.73562
1185.540, 39.53241
1186.022, 41.22189
1186.504, 42.43161
1186.986, 41.75650
1187.469, 40.81938
1187.951, 40.36900
1188.433, 40.02195
1188.915, 39.32981
1189.397, 38.55219
1189.879, 38.22710
1190.361, 38.39233
1190.843, 38.46072
1191.325, 38.39850
1191.807, 38.19913
1192.290, 37.66875
1192.772, 37.29298
1193.254, 37.26240
1193.736, 37.38232
1194.218, 37.34945
1194.700, 37.46151
1195.182, 38.71268
1195.664, 41.33458
1196.147, 42.04469
1196.629, 40.48690
1197.111, 38.72912
1197.593, 36.89009
1198.075, 36.37241
1198.557, 38.04120
1199.039, 39.97210
1199.521, 39.98478
1200.004, 38.77890
1200.486, 38.04417
1200.968, 37.80717
1201.450, 38.58502
1201.932, 40.09507
1202.414, 40.65717
1202.896, 40.03358
1203.378, 39.31204
1203.860, 39.08161
1204.343, 39.08749
1204.825, 39.25521
1205.307, 39.31616
1205.789, 38.69958
1206.271, 38.69227
1206.753, 37.68394
1207.235, 37.86042
1207.717, 37.47308
1208.199, 36.56301
1208.682, 36.80191
1209.164, 39.70666
1209.646, 41.42127
1210.128, 38.35759
1210.610, 35.55944
1211.092, 36.75174
1211.574, 38.91920
1212.056, 39.10691
1212.539, 37.99020
1213.021, 37.42953
1213.503, 37.63457
1213.985, 37.76609
1214.467, 37.19950
1214.949, 37.56210
1215.431, 39.89142
1215.913, 41.52572
1216.396, 41.29159
1216.878, 40.35905
1217.360, 39.70773
1217.842, 39.19806
1218.324, 38.29168
1218.806, 36.94911
1219.288, 37.70089
1219.770, 40.78669
1220.252, 41.16605
1220.734, 38.02750
1221.217, 35.79332
1221.699, 36.39542
1222.181, 38.21091
1222.663, 39.85599
1223.145, 41.07880
1223.627, 41.28677
1224.109, 40.76851
1224.591, 39.81101
1225.074, 38.82100
1225.556, 39.04031
1226.038, 40.27879
1226.520, 41.04598
1227.002, 40.74904
1227.484, 39.97216
1227.966, 38.36237
1228.448, 37.41191
1228.931, 38.89502
1229.413, 40.78519
1229.895, 41.41702
1230.377, 41.20866
1230.859, 40.64347
1231.341, 39.95436
1231.823, 39.73479
1232.305, 40.27348
1232.787, 40.58075
1233.270, 40.35363
1233.752, 40.13919
1234.234, 39.79076
1234.716, 39.87211
1235.198, 41.11533
1235.680, 42.33866
1236.162, 41.87744
1236.644, 40.18957
1237.126, 39.54885
1237.609, 40.09417
1238.091, 40.32285
1238.573, 40.21124
1239.055, 39.46833
1239.537, 38.02926
1240.019, 37.07842
1240.501, 37.26514
1240.983, 38.21331
1241.466, 39.83267
1241.948, 41.34321
1242.430, 40.75672
1242.912, 39.19912
1243.394, 39.18174
1243.876, 40.17234
1244.358, 40.32000
1244.840, 39.55854
1245.323, 39.44798
1245.805, 40.73178
1246.287, 41.51585
1246.769, 40.13173
1247.251, 38.65441
1247.733, 37.86146
1248.215, 37.83730
1248.697, 39.40400
1249.179, 41.27247
1249.661, 41.58930
1250.144, 40.46207
1250.626, 39.30985
1251.108, 38.01014
1251.590, 37.29502
1252.072, 37.20993
1252.554, 37.71993
1253.036, 39.24601
1253.518, 40.15128
1254.001, 39.40743
1254.483, 38.22001
1254.965, 38.05760
1255.447, 38.54532
1255.929, 38.42846
1256.411, 37.84317
1256.893, 37.79492
1257.375, 38.23759
1257.858, 38.71144
1258.340, 39.14657
1258.822, 39.85449
1259.304, 40.94485
1259.786, 41.60303
1260.268, 40.84868
1260.750, 39.88664
1261.232, 40.09554
1261.714, 40.54906
1262.197, 40.15586
1262.679, 39.44421
1263.161, 39.24659
1263.643, 39.50460
1264.125, 39.65191
1264.607, 39.53577
1265.089, 39.69306
1265.571, 40.85084
1266.053, 41.29638
1266.536, 40.27003
1267.018, 39.22578
1267.500, 38.53945
1267.982, 38.37811
1268.464, 39.17582
1268.946, 40.24219
1269.428, 39.75236
1269.910, 37.79609
1270.393, 36.37153
1270.875, 35.49031
1271.357, 35.61642
1271.839, 36.73892
1272.321, 38.36475
1272.803, 40.23507
1273.285, 41.38190
1273.767, 41.05022
1274.250, 40.04298
1274.732, 39.02181
1275.214, 38.10004
1275.696, 37.33860
1276.178, 36.81000
1276.660, 36.55125
1277.142, 36.62214
1277.624, 37.29334
1278.106, 38.48920
1278.589, 39.37628
1279.071, 39.85367
1279.553, 39.71909
1280.035, 37.82246
1280.517, 36.94951
1280.999, 38.55105
1281.481, 40.27163
1281.963, 40.78111
1282.445, 40.63899
1282.928, 40.58575
1283.410, 40.54554
1283.892, 40.01827
1284.374, 40.13301
1284.856, 40.09680
1285.338, 39.86163
1285.820, 40.14508
1286.302, 39.63355
1286.785, 39.27601
1287.267, 39.48927
1287.749, 39.68945
1288.231, 39.45870
##END=



