##NAMES=Joseite-A
##RRUFFID=R060963
##IDEAL CHEMISTRY=Bi_4_TeS_2_
##LOCALITY=Tanza mine, Potosi deptmartment, Bolivia
##OWNER=RRUFF
##SOURCE=Michael Scott
##DESCRIPTION=Hexagonal, metallic gray single crystal
##STATUS=The identification of this mineral is not yet confirmed.
##URL=rruff.info/R060963
108.9930, 233.8337
109.4751, 229.1431
109.9573, 228.5851
110.4394, 241.1601
110.9215, 263.6827
111.4036, 285.1064
111.8857, 297.6441
112.3678, 302.6238
112.8500, 311.7824
113.3321, 327.2926
113.8142, 344.9115
114.2963, 361.6382
114.7784, 377.4058
115.2605, 394.8873
115.7427, 417.9742
116.2248, 444.5954
116.7069, 465.6243
117.1890, 475.3848
117.6711, 481.3920
118.1532, 491.8972
118.6354, 507.8122
119.1175, 525.1052
119.5996, 541.5740
120.0817, 557.0815
120.5638, 570.8480
121.0459, 576.7645
121.5281, 581.7547
122.0102, 599.5692
122.4923, 633.0435
122.9744, 675.1620
123.4565, 722.6520
123.9386, 774.4688
124.4208, 828.1688
124.9029, 876.8445
125.3850, 925.0999
125.8671, 994.0944
126.3492, 1100.126
126.8313, 1208.468
127.3135, 1293.741
127.7956, 1362.148
128.2777, 1434.430
128.7598, 1524.015
129.2419, 1631.433
129.7240, 1749.708
130.2061, 1892.306
130.6883, 2033.220
131.1704, 2161.887
131.6525, 2277.954
132.1346, 2382.518
132.6167, 2470.487
133.0988, 2536.958
133.5810, 2620.337
134.0631, 2741.157
134.5452, 2865.211
135.0273, 2995.145
135.5094, 3121.947
135.9915, 3214.760
136.4737, 3239.181
136.9558, 3190.888
137.4379, 3081.627
137.9200, 2865.614
138.4021, 2629.167
138.8842, 2406.336
139.3664, 2209.222
139.8485, 2040.339
140.3306, 1902.671
140.8127, 1791.815
141.2948, 1728.422
141.7769, 1732.322
142.2591, 1759.886
142.7412, 1781.698
143.2233, 1790.306
143.7054, 1796.935
144.1875, 1819.976
144.6696, 1866.898
145.1517, 1920.355
145.6339, 1982.992
146.1160, 2049.733
146.5981, 2109.158
147.0802, 2159.512
147.5623, 2218.488
148.0444, 2321.661
148.5266, 2535.662
149.0087, 2702.228
149.4908, 2819.030
149.9729, 2891.470
150.4550, 2918.437
150.9371, 2900.138
151.4193, 2849.215
151.9014, 2791.616
152.3835, 2738.733
152.8656, 2662.404
153.3477, 2543.206
153.8298, 2405.022
154.3120, 2274.977
154.7941, 2163.198
155.2762, 2067.236
155.7583, 1984.123
156.2404, 1914.218
156.7225, 1854.365
157.2047, 1797.138
157.6868, 1751.131
158.1689, 1730.109
158.6510, 1740.257
159.1331, 1775.682
159.6152, 1825.287
160.0974, 1899.627
160.5795, 1967.293
161.0616, 2030.437
161.5437, 2080.930
162.0258, 2101.469
162.5079, 2082.182
162.9901, 2034.088
163.4722, 1982.279
163.9543, 1928.793
164.4364, 1869.895
164.9185, 1800.545
165.4007, 1724.900
165.8828, 1652.891
166.3649, 1587.591
166.8470, 1529.079
167.3291, 1476.385
167.8112, 1429.788
168.2933, 1387.292
168.7755, 1350.064
169.2576, 1316.753
169.7397, 1282.785
170.2218, 1244.562
170.7039, 1206.937
171.1860, 1179.333
171.6682, 1164.335
172.1503, 1151.658
172.6324, 1138.109
173.1145, 1123.247
173.5966, 1104.645
174.0787, 1079.954
174.5609, 1052.452
175.0430, 1027.664
175.5251, 1005.311
176.0072, 985.8821
176.4893, 970.9963
176.9714, 959.7401
177.4536, 947.8209
177.9357, 933.9941
178.4178, 918.3243
178.8999, 900.6503
179.3820, 879.7635
179.8641, 860.8306
180.3463, 847.8862
180.8284, 840.1285
181.3105, 832.5441
181.7926, 822.4302
182.2747, 812.9717
182.7568, 809.0456
183.2390, 812.2516
183.7211, 814.3932
184.2032, 808.5828
184.6853, 796.0878
185.1674, 785.6043
185.6495, 781.1873
186.1317, 778.5116
186.6138, 772.1539
187.0959, 761.5572
187.5780, 750.0980
188.0601, 739.7814
188.5422, 730.5520
189.0244, 721.7169
189.5065, 714.2173
189.9886, 705.9119
190.4707, 693.4297
190.9528, 676.0508
191.4349, 661.2181
191.9170, 656.4977
192.3992, 660.2941
192.8813, 660.6153
193.3634, 652.5314
193.8455, 642.2131
194.3276, 635.5436
194.8097, 632.6946
195.2919, 631.3663
195.7740, 629.7857
196.2561, 628.2246
196.7382, 628.8726
197.2203, 633.9992
197.7024, 639.3881
198.1846, 641.2003
198.6667, 639.4893
199.1488, 636.9746
199.6309, 636.3248
200.1130, 636.8130
200.5951, 633.3162
201.0773, 620.8634
201.5594, 609.5677
202.0415, 608.2662
202.5236, 616.1200
203.0057, 624.9018
203.4878, 630.8095
203.9700, 633.7571
204.4521, 633.0842
204.9342, 627.2082
205.4163, 619.5867
205.8984, 613.0288
206.3805, 607.3244
206.8627, 601.3906
207.3448, 593.8623
207.8269, 585.4606
208.3090, 579.4802
208.7911, 578.5226
209.2732, 576.1735
209.7554, 567.2841
210.2375, 553.2959
210.7196, 538.8276
211.2017, 525.5829
211.6838, 513.6733
212.1659, 503.6967
212.6480, 496.2794
213.1302, 489.8168
213.6123, 480.4860
214.0944, 470.8623
214.5765, 467.8472
215.0586, 480.9212
215.5407, 502.1017
216.0229, 511.4172
216.5050, 504.5623
216.9871, 495.9047
217.4692, 495.2101
217.9513, 498.9584
218.4334, 500.8152
218.9156, 495.6894
219.3977, 488.3740
219.8798, 488.8780
220.3619, 499.8490
220.8440, 509.7863
221.3261, 509.8940
221.8083, 505.2078
222.2904, 502.7764
222.7725, 505.9772
223.2546, 511.3203
223.7367, 513.6508
224.2188, 512.4245
224.7010, 511.2512
225.1831, 512.6288
225.6652, 514.9299
226.1473, 515.9808
226.6294, 514.8010
227.1115, 513.0110
227.5937, 512.9741
228.0758, 514.8901
228.5579, 515.2025
229.0400, 511.3743
229.5221, 505.5110
230.0042, 500.5122
230.4864, 497.1968
230.9685, 493.6099
231.4506, 488.3538
231.9327, 481.4449
232.4148, 472.5559
232.8969, 459.6469
233.3791, 446.2545
233.8612, 437.0859
234.3433, 433.0931
234.8254, 429.9919
235.3075, 425.8907
235.7896, 420.5517
236.2717, 412.2390
236.7539, 398.4704
237.2360, 383.9819
237.7181, 374.7285
238.2002, 371.1709
238.6823, 367.7690
239.1644, 362.2970
239.6466, 354.8734
240.1287, 344.8369
240.6108, 329.9637
241.0929, 316.6070
241.5750, 314.2013
242.0571, 321.8733
242.5393, 326.6857
243.0214, 321.1061
243.5035, 310.3237
243.9856, 303.3176
244.4677, 301.6464
244.9498, 302.6793
245.4320, 306.4058
245.9141, 311.9727
246.3962, 311.9116
246.8783, 298.5790
247.3604, 281.7874
247.8425, 273.3426
248.3247, 274.3842
248.8068, 278.9818
249.2889, 284.3514
249.7710, 289.7211
250.2531, 290.8980
250.7352, 284.7245
251.2174, 276.2977
251.6995, 268.3671
252.1816, 261.2946
252.6637, 256.9590
253.1458, 256.9874
253.6279, 260.9738
254.1101, 265.3838
254.5922, 273.2055
255.0743, 278.5668
255.5564, 276.6503
256.0385, 269.4942
256.5206, 263.4643
257.0027, 261.9557
257.4849, 263.5344
257.9670, 263.5071
258.4491, 261.7528
258.9312, 259.0092
259.4133, 254.2441
259.8954, 248.8171
260.3776, 245.2538
260.8597, 244.5679
261.3418, 245.6819
261.8239, 246.7554
262.3060, 249.3247
262.7881, 248.7641
263.2703, 240.2097
263.7524, 230.2809
264.2345, 227.1840
264.7166, 232.7991
265.1987, 241.1495
265.6808, 244.2206
266.1630, 239.4929
266.6451, 235.7843
267.1272, 234.3796
267.6093, 233.0093
268.0914, 228.6377
268.5735, 221.7842
269.0557, 217.0828
269.5378, 219.6234
270.0199, 231.1335
270.5020, 237.5682
270.9841, 235.6330
271.4662, 232.9216
271.9484, 233.0918
272.4305, 235.3637
272.9126, 236.8743
273.3947, 235.4631
273.8768, 231.4152
274.3589, 228.3700
274.8411, 230.8202
275.3232, 229.3013
275.8053, 216.7707
276.2874, 200.2863
276.7695, 190.3292
277.2516, 192.3130
277.7338, 202.8539
278.2159, 211.9105
278.6980, 221.4619
279.1801, 225.9189
279.6622, 222.7103
280.1443, 215.8055
280.6265, 207.5878
281.1086, 199.0757
281.5907, 192.0303
282.0728, 190.0047
282.5549, 195.5335
283.0370, 198.7638
283.5192, 196.6275
284.0013, 193.9542
284.4834, 193.3014
284.9655, 194.9732
285.4476, 197.9311
285.9297, 202.3408
286.4119, 208.5864
286.8940, 210.4552
287.3761, 202.5373
287.8582, 195.7856
288.3403, 196.9806
288.8224, 203.4884
289.3046, 207.9331
289.7867, 204.5973
290.2688, 195.6041
290.7509, 188.7232
291.2330, 183.8766
291.7151, 181.4145
292.1972, 181.9191
292.6794, 184.5550
293.1615, 188.8092
293.6436, 196.2148
294.1257, 202.7829
294.6078, 201.5979
295.0899, 191.6118
295.5721, 182.1938
296.0542, 175.6232
296.5363, 172.5837
297.0184, 175.2263
297.5005, 185.8369
297.9826, 194.9533
298.4648, 193.1593
298.9469, 182.8819
299.4290, 176.5816
299.9111, 178.7963
300.3932, 184.4962
300.8753, 187.4257
301.3575, 187.5833
301.8396, 187.2852
302.3217, 186.5920
302.8038, 186.1923
303.2859, 187.5620
303.7680, 191.0982
304.2502, 194.8540
304.7323, 197.0975
305.2144, 197.7875
305.6965, 197.8642
306.1786, 196.1002
306.6607, 194.7404
307.1429, 196.2839
307.6250, 200.2079
308.1071, 203.1049
308.5892, 202.3946
309.0713, 198.8060
309.5534, 197.6063
310.0356, 201.1751
310.5177, 203.9478
310.9998, 203.6466
311.4819, 201.5604
311.9640, 200.2782
312.4461, 200.9713
312.9283, 201.9729
313.4104, 199.5165
313.8925, 188.7525
314.3746, 181.4793
314.8567, 180.9847
315.3388, 181.8265
315.8210, 178.2934
316.3031, 169.9838
316.7852, 162.1165
317.2673, 161.5260
317.7494, 170.8867
318.2315, 175.6785
318.7137, 173.3930
319.1958, 169.2540
319.6779, 163.6459
320.1600, 157.8253
320.6421, 154.0502
321.1242, 154.1609
321.6064, 157.6192
322.0885, 161.1986
322.5706, 165.9369
323.0527, 169.1371
323.5348, 169.4918
324.0169, 168.3443
324.4991, 167.3280
324.9812, 167.1282
325.4633, 166.9338
325.9454, 164.4548
326.4275, 158.4820
326.9096, 156.5460
327.3918, 166.6094
327.8739, 176.9738
328.3560, 177.5424
328.8381, 167.6011
329.3202, 157.9301
329.8023, 158.7690
330.2845, 167.2747
330.7666, 169.6432
331.2487, 161.1330
331.7308, 152.3662
332.2129, 154.0151
332.6950, 163.0318
333.1772, 169.2550
333.6593, 166.3584
334.1414, 160.9629
334.6235, 161.8942
335.1056, 169.2850
335.5877, 176.0292
336.0698, 178.3478
336.5519, 176.6180
337.0341, 173.0930
337.5162, 164.8070
337.9983, 158.6284
338.4804, 159.2469
338.9625, 163.9715
339.4446, 167.4266
339.9268, 167.7093
340.4089, 165.8486
340.8910, 163.0810
341.3731, 156.5742
341.8552, 156.0175
342.3373, 168.8744
342.8195, 183.1159
343.3016, 187.9126
343.7837, 182.9650
344.2658, 175.7499
344.7479, 173.3116
345.2300, 176.0761
345.7122, 177.1460
346.1943, 173.2212
346.6764, 171.1973
347.1585, 176.0909
347.6406, 183.8086
348.1227, 187.0418
348.6049, 181.6924
349.0870, 171.0891
349.5691, 164.4203
350.0512, 164.1547
350.5333, 163.0112
351.0154, 157.3947
351.4976, 152.2321
351.9797, 152.3912
352.4618, 158.3991
352.9439, 164.9112
353.4260, 165.3269
353.9081, 159.7142
354.3903, 157.4277
354.8724, 161.4242
355.3545, 165.9652
355.8366, 169.3262
356.3187, 170.6462
356.8008, 167.3542
357.2830, 152.7585
357.7651, 135.5740
358.2472, 132.1610
358.7293, 144.0142
359.2114, 154.5569
359.6935, 154.1841
360.1757, 147.5208
360.6578, 145.0493
361.1399, 150.1069
361.6220, 153.4641
362.1041, 146.1894
362.5862, 133.9078
363.0684, 130.6277
363.5505, 141.5220
364.0326, 156.7638
364.5147, 162.9054
364.9968, 157.4605
365.4789, 152.5258
365.9611, 147.5700
366.4432, 144.1732
366.9253, 143.9264
367.4074, 146.5340
367.8895, 150.7315
368.3716, 156.1031
368.8538, 162.1796
369.3359, 163.5956
369.8180, 152.4845
370.3001, 145.8866
370.7822, 150.5141
371.2643, 159.5520
371.7465, 164.5919
372.2286, 162.6332
372.7107, 157.5078
373.1928, 155.7542
373.6749, 159.1265
374.1570, 160.1921
374.6392, 157.4715
375.1213, 153.1594
375.6034, 145.7310
376.0855, 136.9516
376.5676, 132.5301
377.0497, 139.1434
377.5319, 153.1669
378.0140, 161.0050
378.4961, 161.0050
378.9782, 159.0967
379.4603, 157.2805
379.9424, 155.6312
380.4246, 154.1057
380.9066, 152.2796
381.3888, 151.4844
381.8709, 154.0577
382.3530, 158.9771
382.8351, 161.9851
383.3172, 162.2632
383.7993, 159.4068
384.2815, 150.1271
384.7636, 133.1939
385.2457, 123.9093
385.7278, 129.8117
386.2099, 141.2192
386.6920, 151.7365
387.1742, 159.9984
387.6563, 163.1648
388.1384, 158.0350
388.6205, 146.0600
389.1026, 140.5044
389.5847, 146.2299
390.0669, 152.0690
390.5490, 158.2710
391.0311, 162.5172
391.5132, 161.1133
391.9953, 153.1183
392.4774, 142.6694
392.9596, 135.8092
393.4417, 132.9942
393.9238, 132.3014
394.4059, 135.9376
394.8880, 139.7375
395.3701, 142.1286
395.8523, 143.1602
396.3344, 143.4744
396.8165, 143.5580
397.2986, 143.1426
397.7807, 141.5375
398.2628, 138.7417
398.7450, 134.6783
399.2271, 126.3444
399.7092, 118.2348
400.1913, 116.4143
400.6734, 123.0970
401.1555, 129.4817
401.6377, 127.9053
402.1198, 121.6371
402.6019, 119.5067
403.0840, 123.6825
403.5661, 130.1880
404.0482, 135.3279
404.5304, 139.0669
405.0125, 142.9174
405.4946, 148.9994
405.9767, 153.3537
406.4588, 152.4527
406.9409, 147.7320
407.4231, 143.3094
407.9052, 141.3459
408.3873, 140.6607
408.8694, 137.8061
409.3515, 126.5815
409.8336, 122.5926
410.3158, 134.0661
410.7979, 146.7989
411.2800, 148.7212
411.7621, 139.7821
412.2442, 129.3257
412.7263, 125.3196
413.2085, 127.6240
413.6906, 133.5126
414.1727, 148.4586
414.6548, 158.3845
415.1369, 156.5780
415.6190, 148.0998
416.1012, 138.5811
416.5833, 128.7826
417.0654, 122.1082
417.5475, 124.3486
418.0296, 134.5068
418.5117, 142.2828
418.9939, 144.8042
419.4760, 145.1040
419.9581, 147.3557
420.4402, 151.2988
420.9223, 151.4464
421.4044, 141.7038
421.8866, 131.0309
422.3687, 128.4175
422.8508, 132.9961
423.3329, 138.5586
423.8150, 141.8327
424.2971, 143.0173
424.7793, 142.8045
425.2614, 140.8213
425.7435, 137.9085
426.2256, 130.8181
426.7077, 124.8395
427.1898, 126.6226
427.6719, 136.0104
428.1541, 145.4063
428.6362, 146.1976
429.1183, 138.1039
429.6004, 135.4044
430.0825, 144.1231
430.5646, 150.4688
431.0468, 148.8115
431.5289, 142.8107
432.0110, 137.2099
432.4931, 133.4585
432.9752, 131.4608
433.4573, 132.1730
433.9395, 135.3651
434.4216, 136.3019
434.9037, 133.1308
435.3858, 128.7424
435.8679, 126.1653
436.3500, 125.1378
436.8322, 123.6893
437.3143, 119.9008
437.7964, 116.5385
438.2785, 115.9450
438.7606, 118.0332
439.2427, 122.5797
439.7249, 130.2838
440.2070, 138.7925
440.6891, 141.4954
441.1712, 132.9882
441.6533, 126.2178
442.1354, 121.1128
442.6176, 118.1835
443.0997, 118.5894
443.5818, 121.8981
444.0639, 126.0966
444.5460, 129.7011
445.0281, 132.6311
445.5103, 133.7277
445.9924, 130.7246
446.4745, 129.6323
446.9566, 135.4612
447.4387, 142.2959
447.9208, 142.5415
448.4030, 133.8805
448.8851, 124.5061
449.3672, 121.8756
449.8493, 125.0637
450.3314, 130.8561
450.8135, 140.3761
451.2957, 147.7735
451.7778, 146.0790
452.2599, 137.1201
452.7420, 131.3268
453.2241, 130.9045
453.7062, 132.7629
454.1884, 137.5424
454.6705, 143.0951
455.1526, 143.7163
455.6347, 137.0185
456.1168, 128.2986
456.5989, 126.6936
457.0811, 136.4978
457.5632, 142.3228
458.0453, 142.7154
458.5274, 141.0927
459.0095, 137.5077
459.4916, 133.3372
459.9738, 131.2793
460.4559, 133.2569
460.9380, 137.4998
461.4201, 140.2200
461.9022, 141.6761
462.3843, 140.4692
462.8665, 134.0547
463.3486, 126.4836
463.8307, 120.2044
464.3128, 115.4658
464.7949, 113.7095
465.2770, 117.6519
465.7592, 124.1015
466.2413, 128.9619
466.7234, 131.9837
467.2055, 132.7428
467.6876, 129.9744
468.1697, 125.4496
468.6519, 125.5574
469.1340, 132.7908
469.6161, 140.0437
470.0982, 151.3290
470.5803, 159.1164
471.0624, 152.8961
471.5445, 133.7472
472.0266, 114.6062
472.5088, 106.9680
472.9909, 110.1298
473.4730, 114.3339
473.9551, 120.7747
474.4372, 126.4036
474.9193, 131.8525
475.4015, 135.5327
475.8836, 134.7887
476.3657, 128.9557
476.8478, 123.0584
477.3299, 121.3163
477.8120, 123.0486
478.2942, 126.4503
478.7763, 131.9817
479.2584, 136.4564
479.7405, 137.2839
480.2226, 134.9648
480.7047, 132.6095
481.1869, 130.1741
481.6690, 127.8438
482.1511, 123.7703
482.6332, 120.4874
483.1153, 123.4277
483.5974, 133.5296
484.0796, 144.2415
484.5617, 147.6698
485.0438, 143.0326
485.5259, 137.6147
486.0080, 128.5336
486.4901, 121.8420
486.9723, 119.3981
487.4544, 120.2357
487.9365, 123.8709
488.4186, 130.4022
488.9007, 136.3366
489.3828, 136.3469
489.8650, 130.9964
490.3471, 127.9945
490.8292, 129.2491
491.3113, 131.3070
491.7934, 130.8057
492.2755, 128.6485
492.7577, 128.0563
493.2398, 131.3790
493.7219, 134.5287
494.2040, 134.3728
494.6861, 132.3598
495.1682, 131.2652
495.6504, 131.9784
496.1325, 134.3260
496.6146, 138.4069
497.0967, 145.0719
497.5788, 149.5915
498.0609, 152.0862
498.5431, 152.4640
499.0252, 149.3213
499.5073, 144.3461
499.9894, 140.1847
500.4715, 137.9806
500.9536, 136.4310
501.4358, 133.5478
501.9179, 129.3494
502.4000, 125.8244
502.8821, 123.4755
503.3642, 121.5078
503.8463, 118.3916
504.3285, 114.8839
504.8106, 113.9761
505.2927, 118.5258
505.7748, 123.6522
506.2569, 126.2933
506.7390, 127.1268
507.2212, 127.5680
507.7033, 128.0816
508.1854, 128.5040
508.6675, 128.6417
509.1496, 128.5340
509.6317, 127.9359
510.1139, 126.1717
510.5960, 124.6749
511.0781, 124.4762
511.5602, 124.6992
512.0423, 123.5881
512.5244, 120.3090
513.0065, 117.1420
513.4886, 117.8625
513.9708, 122.1990
514.4529, 124.3742
514.9350, 122.9218
515.4171, 120.5497
515.8992, 118.3196
516.3813, 116.7619
516.8635, 118.0176
517.3456, 126.6199
517.8277, 133.6434
518.3098, 132.5479
518.7919, 127.1427
519.2740, 124.2349
519.7562, 125.6750
520.2383, 128.8534
520.7204, 130.8098
521.2025, 131.4676
521.6846, 131.6457
522.1667, 130.6811
522.6489, 129.9563
523.1310, 130.1428
523.6131, 130.6043
524.0952, 130.5819
524.5773, 129.8495
525.0594, 128.6178
525.5416, 126.7895
526.0237, 124.5771
526.5058, 122.9034
526.9879, 121.8055
527.4700, 121.5699
527.9521, 123.5607
528.4343, 126.5015
528.9164, 125.4277
529.3985, 115.7308
529.8806, 108.4279
530.3627, 108.7733
530.8448, 112.4023
531.3270, 114.6569
531.8091, 114.6280
532.2912, 113.2983
532.7733, 111.2534
533.2554, 108.7001
533.7375, 107.6753
534.2197, 107.6992
534.7018, 110.2178
535.1839, 117.6609
535.6660, 126.2133
536.1481, 133.1813
536.6302, 138.0466
537.1124, 140.1993
537.5945, 137.6519
538.0766, 132.6900
538.5587, 129.7813
539.0408, 129.0030
539.5229, 126.7682
540.0051, 120.3513
540.4872, 112.3273
540.9693, 109.3305
541.4514, 113.9188
541.9335, 118.7052
542.4156, 123.8977
542.8978, 128.7323
543.3799, 133.5615
543.8620, 137.6168
544.3441, 139.0821
544.8262, 136.6976
545.3083, 131.5605
545.7905, 125.7782
546.2726, 119.1937
546.7547, 112.8314
547.2368, 105.7326
547.7189, 100.2797
548.2010, 97.83762
548.6832, 98.41566
549.1653, 102.2965
549.6474, 114.2159
550.1295, 125.2012
550.6116, 127.6919
551.0938, 124.2907
551.5759, 120.7151
552.0580, 118.8515
552.5401, 118.4648
553.0222, 119.4330
553.5043, 122.0133
553.9865, 124.2707
554.4686, 128.0480
554.9507, 129.3562
555.4328, 125.5349
555.9149, 119.3292
556.3970, 113.4896
556.8792, 108.7286
557.3613, 106.7299
557.8434, 110.5313
558.3255, 118.3841
558.8076, 125.5029
559.2897, 131.7583
559.7719, 134.5145
560.2540, 130.9609
560.7361, 122.9746
561.2182, 117.4329
561.7003, 114.4283
562.1824, 113.2774
562.6646, 115.3545
563.1467, 118.1532
563.6288, 119.8845
564.1109, 120.2862
564.5930, 119.6902
565.0751, 118.3193
565.5573, 116.1130
566.0394, 112.1734
566.5215, 105.4531
567.0036, 102.1162
567.4857, 106.0646
567.9678, 111.1956
568.4500, 111.4131
568.9321, 107.5690
569.4142, 105.5637
569.8963, 108.6910
570.3784, 112.6994
570.8605, 113.3536
571.3427, 112.5695
571.8248, 116.3073
572.3069, 126.3910
572.7890, 135.6711
573.2711, 133.6811
573.7532, 118.2784
574.2354, 111.6537
574.7175, 123.7876
575.1996, 132.3862
575.6817, 128.4102
576.1638, 119.3068
576.6459, 113.6806
577.1281, 113.5253
577.6102, 115.0681
578.0923, 115.7292
578.5744, 116.0155
579.0565, 117.4872
579.5386, 120.1904
580.0208, 121.4898
580.5029, 119.5924
580.9850, 115.6992
581.4671, 113.0077
581.9492, 112.5528
582.4313, 111.6099
582.9134, 107.5872
583.3955, 105.3854
583.8776, 110.0599
584.3597, 118.9861
584.8419, 125.6025
585.3240, 126.5237
585.8061, 124.1220
586.2882, 121.0329
586.7703, 117.3924
587.2524, 117.0519
587.7346, 122.0698
588.2167, 126.8947
588.6988, 126.1611
589.1809, 120.8705
589.6630, 117.7844
590.1451, 118.6246
590.6273, 119.7757
591.1094, 120.6509
591.5915, 120.9196
592.0736, 119.1885
592.5557, 115.9520
593.0378, 114.8497
593.5200, 120.0448
594.0021, 128.9557
594.4842, 128.7567
594.9663, 115.6034
595.4484, 106.7104
595.9305, 108.9418
596.4127, 115.2484
596.8948, 119.5906
597.3769, 121.9189
597.8590, 122.4062
598.3411, 117.7129
598.8232, 114.3106
599.3054, 118.8747
599.7875, 128.1212
600.2696, 134.5510
600.7517, 135.7802
601.2338, 135.1426
601.7159, 137.3370
602.1981, 142.8100
602.6802, 142.9056
603.1623, 133.2540
603.6444, 124.8208
604.1265, 121.7040
604.6086, 121.0864
605.0908, 119.1268
605.5729, 115.1178
606.0550, 115.0282
606.5371, 128.4091
607.0192, 143.8053
607.5013, 143.6758
607.9835, 130.3783
608.4656, 120.5468
608.9477, 122.4885
609.4298, 129.4075
609.9119, 127.6902
610.3940, 111.6569
610.8762, 105.0054
611.3583, 119.0266
611.8404, 130.6057
612.3225, 130.7509
612.8046, 123.5773
613.2867, 114.4615
613.7689, 104.2773
614.2510, 97.63739
614.7331, 101.0952
615.2152, 110.1283
615.6973, 114.3392
616.1794, 112.9938
616.6616, 113.5292
617.1437, 121.2871
617.6258, 132.6522
618.1079, 137.3786
618.5900, 130.7591
619.0721, 125.5264
619.5543, 121.9089
620.0364, 119.3693
620.5185, 117.5811
621.0006, 116.6408
621.4827, 116.8942
621.9648, 118.5937
622.4470, 121.0596
622.9291, 123.7463
623.4112, 126.5974
623.8933, 130.2281
624.3754, 134.9509
624.8575, 136.7902
625.3397, 131.8676
625.8218, 122.2275
626.3039, 116.9525
626.7860, 119.0471
627.2681, 121.5855
627.7502, 125.4136
628.2324, 128.7584
628.7145, 130.5125
629.1966, 130.7552
629.6787, 129.7355
630.1608, 126.9220
630.6429, 124.7047
631.1251, 127.9806
631.6072, 135.3226
632.0893, 138.2587
632.5714, 134.7701
633.0535, 129.5627
633.5356, 125.9573
634.0178, 123.8927
634.4999, 123.0551
634.9820, 124.6439
635.4641, 125.7480
635.9462, 127.0099
636.4283, 126.9536
636.9105, 122.3345
637.3926, 115.0738
637.8747, 111.8682
638.3568, 117.9693
638.8389, 127.1251
639.3210, 129.0036
639.8032, 124.6894
640.2853, 122.5343
640.7674, 124.5545
641.2495, 127.3415
641.7316, 128.0615
642.2137, 126.8830
642.6959, 125.5186
643.1780, 122.7748
643.6601, 121.4727
644.1422, 122.7419
644.6243, 125.0213
645.1064, 128.2077
645.5886, 131.3611
646.0707, 131.7445
646.5528, 126.5081
647.0349, 119.8861
647.5170, 118.8722
647.9991, 122.6959
648.4813, 126.8771
648.9634, 131.2074
649.4455, 131.5999
649.9276, 122.2126
650.4097, 104.7280
650.8918, 98.27806
651.3740, 112.6171
651.8561, 124.3841
652.3382, 131.2046
652.8203, 134.4265
653.3024, 133.5200
653.7845, 129.8634
654.2667, 127.5182
654.7488, 129.7108
655.2309, 132.5254
655.7130, 129.2915
656.1951, 121.6204
656.6772, 117.1911
657.1594, 117.7455
657.6415, 120.2641
658.1236, 122.5543
658.6057, 124.5445
659.0878, 125.6638
659.5699, 124.6255
660.0521, 124.4931
660.5342, 126.3334
661.0163, 128.3880
661.4984, 129.2917
661.9805, 129.3045
662.4626, 129.6065
662.9448, 130.7615
663.4269, 132.4025
663.9090, 135.8761
664.3911, 139.4853
664.8732, 136.7387
665.3553, 126.5519
665.8375, 116.6080
666.3196, 112.6607
666.8017, 114.0725
667.2838, 118.1211
667.7659, 129.6491
668.2480, 135.0845
668.7302, 127.5660
669.2123, 119.7529
669.6944, 120.1566
670.1765, 126.0586
670.6586, 129.4378
671.1407, 126.6739
671.6229, 122.6315
672.1050, 119.2921
672.5870, 118.0161
673.0692, 123.3788
673.5513, 134.8665
674.0334, 143.9869
674.5155, 144.7737
674.9976, 140.0942
675.4797, 138.4736
675.9619, 141.5232
676.4440, 142.9500
676.9261, 143.3055
677.4082, 140.7540
677.8903, 130.8328
678.3724, 118.2916
678.8546, 112.5723
679.3367, 117.0001
679.8188, 124.1286
680.3009, 133.3927
680.7830, 141.2580
681.2651, 143.2110
681.7473, 139.7609
682.2294, 133.7045
682.7115, 126.2842
683.1936, 119.3415
683.6757, 116.1329
684.1578, 116.8285
684.6400, 120.1579
685.1221, 128.6683
685.6042, 134.2215
686.0863, 129.3536
686.5684, 120.2346
687.0505, 119.0329
687.5327, 129.1924
688.0148, 135.0615
688.4969, 128.1712
688.9790, 120.4036
689.4611, 120.8702
689.9432, 126.5216
690.4254, 130.7084
690.9075, 131.0267
691.3896, 129.3582
691.8717, 127.0490
692.3538, 124.4721
692.8359, 123.9695
693.3181, 125.8780
693.8002, 126.8414
694.2823, 124.7404
694.7644, 122.2388
695.2465, 123.7322
695.7286, 130.5334
696.2108, 134.8189
696.6929, 135.7496
697.1750, 135.3147
697.6571, 133.0796
698.1392, 130.4703
698.6213, 128.2730
699.1035, 126.9965
699.5856, 128.4083
700.0677, 137.6420
700.5498, 147.6974
701.0319, 145.6585
701.5140, 134.2998
701.9962, 126.9355
702.4783, 127.5064
702.9604, 128.8232
703.4425, 122.6547
703.9246, 109.9291
704.4067, 106.3235
704.8889, 120.6123
705.3710, 128.5307
705.8531, 117.1480
706.3352, 106.0680
706.8173, 111.0853
707.2994, 128.6101
707.7816, 142.2871
708.2637, 145.7499
708.7458, 145.9799
709.2279, 146.9734
709.7100, 147.5999
710.1921, 145.8504
710.6743, 141.8416
711.1564, 137.2171
711.6385, 132.7868
712.1206, 129.4492
712.6027, 130.6996
713.0848, 137.4085
713.5670, 137.6983
714.0491, 126.8293
714.5312, 117.4185
715.0133, 118.6457
715.4954, 126.5602
715.9775, 130.2826
716.4597, 127.8631
716.9418, 126.2045
717.4239, 124.7935
717.9060, 125.9193
718.3881, 133.4059
718.8702, 143.8267
719.3524, 151.4870
719.8345, 154.4344
720.3166, 153.6322
720.7987, 147.7312
721.2808, 139.3549
721.7629, 135.6194
722.2451, 136.3656
722.7272, 136.0013
723.2093, 132.2770
723.6914, 126.6035
724.1735, 120.1309
724.6556, 112.2556
725.1378, 110.7139
725.6199, 121.7568
726.1020, 130.0915
726.5841, 131.7381
727.0662, 129.9885
727.5483, 125.1394
728.0305, 118.5428
728.5126, 117.9949
728.9947, 134.6560
729.4768, 149.6586
729.9589, 147.7480
730.4410, 136.9176
730.9232, 128.7154
731.4053, 125.0943
731.8874, 122.2816
732.3695, 117.0371
732.8516, 111.9256
733.3337, 114.8740
733.8159, 126.4962
734.2980, 132.8708
734.7801, 130.8182
735.2622, 126.6719
735.7443, 123.7912
736.2264, 122.3315
736.7086, 123.1120
737.1907, 128.4910
737.6728, 131.4213
738.1549, 128.8342
738.6370, 126.4311
739.1191, 127.1156
739.6013, 130.2538
740.0834, 135.2963
740.5655, 142.1777
741.0476, 146.9178
741.5297, 145.6268
742.0118, 140.7364
742.4940, 133.5282
742.9761, 125.7382
743.4582, 125.7551
743.9403, 136.7832
744.4224, 148.0295
744.9045, 145.5619
745.3867, 130.1485
745.8688, 118.2927
746.3509, 109.3364
746.8330, 105.9490
747.3151, 111.6625
747.7972, 120.4107
748.2794, 127.5586
748.7615, 133.0297
749.2436, 135.8590
749.7257, 133.0440
750.2078, 131.3210
750.6899, 135.8199
751.1721, 140.0594
751.6542, 135.5307
752.1363, 124.8924
752.6184, 118.5619
753.1005, 122.2719
753.5826, 129.9221
754.0648, 136.3165
754.5469, 140.4679
755.0290, 136.9874
755.5111, 126.0020
755.9932, 119.7473
756.4753, 125.3292
756.9575, 136.2115
757.4396, 139.7784
757.9217, 134.1503
758.4038, 131.4453
758.8859, 133.7215
759.3680, 135.6433
759.8502, 135.0690
760.3323, 133.3949
760.8144, 132.0366
761.2965, 131.0482
761.7786, 129.4883
762.2607, 125.1571
762.7428, 122.4298
763.2249, 125.0013
763.7070, 129.6295
764.1891, 133.4880
764.6713, 135.3525
765.1534, 132.8943
765.6355, 123.0075
766.1176, 111.4112
766.5997, 107.9702
767.0818, 111.0665
767.5640, 113.0687
768.0461, 112.8302
768.5282, 113.8132
769.0103, 118.8619
769.4924, 125.3443
769.9745, 125.7037
770.4567, 115.3323
770.9388, 113.1884
771.4209, 126.0524
771.9030, 137.9944
772.3851, 142.4587
772.8672, 142.4652
773.3494, 140.6077
773.8315, 136.7447
774.3136, 135.3748
774.7957, 143.3271
775.2778, 148.0336
775.7599, 135.8915
776.2421, 119.2743
776.7242, 117.8772
777.2063, 132.6136
777.6884, 146.6386
778.1705, 148.0871
778.6526, 142.0866
779.1348, 133.9619
779.6169, 125.3845
780.0990, 124.9192
780.5811, 133.9289
781.0632, 142.9916
781.5453, 145.5704
782.0275, 143.4567
782.5096, 141.2822
782.9917, 138.8819
783.4738, 137.0072
783.9559, 135.5923
784.4380, 134.8694
784.9202, 136.7658
785.4023, 138.4954
785.8844, 134.6316
786.3665, 123.5477
786.8486, 118.2888
787.3307, 126.6634
787.8129, 135.2463
788.2950, 138.3483
788.7771, 137.5633
789.2592, 133.1653
789.7413, 126.6596
790.2234, 123.6297
790.7056, 129.2292
791.1877, 137.5800
791.6698, 142.5526
792.1519, 144.2161
792.6340, 141.7073
793.1161, 135.3683
793.5983, 129.0007
794.0804, 124.9375
794.5625, 122.6597
795.0446, 120.6580
795.5267, 118.5488
796.0089, 121.0144
796.4910, 130.8790
796.9731, 137.8519
797.4552, 136.9086
797.9373, 130.9547
798.4194, 123.0142
798.9016, 111.7178
799.3837, 107.3957
799.8658, 115.5981
800.3479, 123.8085
800.8300, 130.4510
801.3121, 134.1980
801.7943, 132.3218
802.2764, 126.1816
802.7585, 121.7848
803.2406, 122.6177
803.7227, 124.2428
804.2048, 123.9944
804.6870, 122.2069
805.1691, 117.1041
805.6512, 110.5966
806.1333, 110.1254
806.6154, 119.5094
807.0975, 131.6020
807.5797, 135.2540
808.0618, 132.4196
808.5439, 135.0262
809.0260, 143.6051
809.5081, 149.6253
809.9902, 150.0328
810.4724, 146.3857
810.9545, 139.4921
811.4366, 129.5503
811.9187, 125.6795
812.4008, 132.3590
812.8829, 136.5391
813.3651, 133.7608
813.8472, 130.2247
814.3293, 130.6231
814.8114, 133.3549
815.2935, 133.7221
815.7756, 129.6205
816.2578, 126.7089
816.7399, 125.8516
817.2220, 127.4017
817.7041, 134.3070
818.1862, 142.8289
818.6683, 147.0453
819.1505, 145.3578
819.6326, 139.9878
820.1147, 128.9400
820.5968, 117.7971
821.0789, 115.7456
821.5610, 119.7523
822.0432, 120.7934
822.5253, 117.3256
823.0074, 115.5530
823.4895, 120.9298
823.9716, 129.6391
824.4537, 130.5464
824.9359, 123.2687
825.4180, 123.0604
825.9001, 133.5660
826.3822, 141.1526
826.8643, 137.3972
827.3464, 127.9947
827.8286, 123.6032
828.3107, 125.5244
828.7928, 126.2756
829.2749, 123.7442
829.7570, 122.9013
830.2391, 127.4043
830.7213, 132.1461
831.2034, 131.9750
831.6855, 127.5395
832.1676, 123.9864
832.6497, 121.3628
833.1318, 121.4676
833.6140, 127.2769
834.0961, 134.2156
834.5782, 139.1313
835.0603, 141.6080
835.5424, 141.2512
836.0245, 137.7927
836.5067, 134.6813
836.9888, 134.4624
837.4709, 136.7263
837.9530, 143.6489
838.4351, 152.4840
838.9172, 153.1203
839.3994, 143.3817
839.8815, 132.8382
840.3636, 130.4043
840.8457, 133.6903
841.3278, 135.9185
841.8099, 137.0952
842.2921, 136.4845
842.7742, 133.6140
843.2563, 130.8275
843.7384, 129.6235
844.2205, 129.3076
844.7026, 128.2412
845.1848, 125.9346
845.6669, 124.7448
846.1490, 124.2861
846.6311, 125.5271
847.1132, 130.9242
847.5953, 136.6335
848.0775, 138.5919
848.5596, 137.1269
849.0417, 136.4417
849.5238, 139.0357
850.0059, 139.8688
850.4880, 135.3801
850.9702, 130.5522
851.4523, 129.3444
851.9343, 130.9756
852.4164, 133.2201
852.8986, 135.5034
853.3807, 137.0276
853.8628, 136.8649
854.3449, 135.9937
854.8270, 136.3310
855.3091, 136.5777
855.7913, 132.0608
856.2734, 122.8835
856.7555, 117.6638
857.2376, 124.7163
857.7197, 136.8982
858.2018, 140.2607
858.6840, 136.5672
859.1661, 133.8659
859.6482, 133.1839
860.1303, 133.3973
860.6124, 134.1136
861.0945, 134.1640
861.5767, 130.5773
862.0588, 122.9832
862.5409, 122.2826
863.0230, 130.9467
863.5051, 137.1318
863.9872, 136.0890
864.4694, 134.0155
864.9515, 138.5559
865.4336, 147.9605
865.9157, 148.0396
866.3978, 126.5388
866.8799, 115.6917
867.3621, 125.0584
867.8442, 135.7287
868.3263, 139.6321
868.8084, 138.9095
869.2905, 136.4628
869.7726, 132.3448
870.2548, 129.4742
870.7369, 128.1372
871.2190, 128.7648
871.7011, 132.5257
872.1832, 137.7078
872.6653, 144.1759
873.1475, 150.4155
873.6296, 151.6097
874.1117, 143.7035
874.5938, 135.9482
875.0759, 138.3784
875.5580, 143.2438
876.0402, 138.8804
876.5223, 128.3257
877.0044, 121.4053
877.4865, 121.3884
877.9686, 125.4455
878.4507, 132.8346
878.9329, 140.7250
879.4150, 142.0569
879.8971, 138.2623
880.3792, 135.3148
880.8613, 134.3295
881.3434, 135.7085
881.8256, 140.1552
882.3077, 144.9886
882.7898, 144.1932
883.2719, 137.5621
883.7540, 132.9742
884.2361, 130.4631
884.7183, 130.4404
885.2004, 133.4931
885.6825, 138.1139
886.1646, 143.4128
886.6467, 148.9323
887.1288, 149.6975
887.6110, 143.6864
888.0931, 137.3542
888.5752, 129.1303
889.0573, 123.5802
889.5394, 124.2450
890.0215, 128.7992
890.5037, 133.2253
890.9858, 137.5948
891.4679, 141.4005
891.9500, 145.5151
892.4321, 147.8911
892.9142, 147.0035
893.3964, 144.8831
893.8785, 143.4700
894.3606, 142.4741
894.8427, 140.2300
895.3248, 135.6129
895.8069, 131.3734
896.2891, 126.3620
896.7712, 124.3804
897.2533, 132.3381
897.7354, 143.8083
898.2175, 147.2742
898.6996, 140.9690
899.1818, 133.9884
899.6639, 131.2089
900.1460, 131.2339
900.6281, 133.8380
901.1102, 137.7907
901.5923, 141.7029
902.0745, 145.0503
902.5566, 147.1071
903.0387, 147.5151
903.5208, 146.5200
904.0029, 143.3309
904.4850, 139.3542
904.9672, 138.7898
905.4493, 140.6150
905.9314, 139.5169
906.4135, 134.4040
906.8956, 129.2021
907.3777, 126.9609
907.8599, 126.5768
908.3420, 125.1525
908.8241, 122.8996
909.3062, 123.6468
909.7883, 127.7591
910.2704, 133.2232
910.7526, 139.7939
911.2347, 144.5432
911.7168, 143.2072
912.1989, 136.6991
912.6810, 134.5707
913.1631, 138.6178
913.6453, 138.7618
914.1274, 130.2543
914.6095, 126.3457
915.0916, 139.1104
915.5737, 158.0173
916.0558, 160.1557
916.5380, 141.0192
917.0201, 127.6526
917.5022, 121.4539
917.9843, 119.0364
918.4664, 123.2544
918.9485, 127.6069
919.4307, 125.2500
919.9128, 118.4558
920.3949, 115.9386
920.8770, 119.2456
921.3591, 124.3526
921.8412, 136.9420
922.3234, 144.3151
922.8055, 135.4944
923.2876, 121.7960
923.7697, 116.8109
924.2518, 121.0862
924.7339, 126.3892
925.2161, 133.1978
925.6982, 137.0565
926.1803, 133.4123
926.6624, 129.0455
927.1445, 130.0224
927.6266, 134.0847
928.1088, 136.4135
928.5909, 135.8272
929.0730, 133.7306
929.5551, 127.5040
930.0372, 123.6627
930.5193, 131.0123
931.0015, 140.9472
931.4836, 140.9387
931.9657, 132.8511
932.4478, 127.9055
932.9299, 131.1870
933.4120, 136.3082
933.8942, 136.6839
934.3763, 136.8047
934.8584, 146.4089
935.3405, 159.1049
935.8226, 158.1156
936.3047, 142.7761
936.7869, 130.1696
937.2690, 132.0272
937.7511, 139.7155
938.2332, 143.4926
938.7153, 143.7841
939.1974, 139.8372
939.6796, 133.0661
940.1617, 129.0802
940.6438, 129.6305
941.1259, 131.6677
941.6080, 132.2813
942.0901, 132.5398
942.5722, 136.1153
943.0543, 141.7484
943.5364, 142.1324
944.0186, 136.9296
944.5007, 132.9065
944.9828, 133.2271
945.4649, 137.3701
945.9470, 147.2646
946.4291, 159.7806
946.9113, 153.4478
947.3934, 128.7497
947.8755, 119.1564
948.3576, 132.0091
948.8397, 145.6319
949.3218, 146.2861
949.8040, 139.6557
950.2861, 135.9753
950.7682, 135.2711
951.2503, 137.5661
951.7324, 143.9409
952.2145, 145.3780
952.6967, 137.6998
953.1788, 131.8289
953.6609, 138.0733
954.1430, 151.2478
954.6251, 154.3089
955.1072, 143.1896
955.5894, 141.6824
956.0715, 155.1459
956.5536, 162.6274
957.0357, 154.1724
957.5178, 142.3275
957.9999, 140.4147
958.4821, 146.4296
958.9642, 147.2465
959.4463, 139.5839
959.9284, 135.3649
960.4105, 137.5551
960.8926, 138.6892
961.3748, 133.4381
961.8569, 127.7529
962.3390, 130.0310
962.8211, 140.1349
963.3032, 146.8862
963.7853, 147.9475
964.2675, 149.7720
964.7496, 154.8106
965.2317, 158.3442
965.7138, 158.1400
966.1959, 154.8892
966.6780, 147.8429
967.1602, 135.8432
967.6423, 131.6851
968.1244, 144.6512
968.6065, 152.5342
969.0886, 147.3402
969.5707, 140.9928
970.0529, 141.6029
970.5350, 145.8753
971.0171, 146.5140
971.4992, 141.9592
971.9813, 140.1825
972.4634, 144.9374
972.9456, 148.6254
973.4277, 147.8882
973.9098, 146.5246
974.3919, 148.6588
974.8740, 152.3546
975.3561, 152.0766
975.8383, 146.0109
976.3204, 140.4571
976.8025, 132.4902
977.2846, 130.2808
977.7667, 146.0567
978.2488, 161.7129
978.7310, 156.9379
979.2131, 137.1147
979.6952, 123.6450
980.1773, 120.9307
980.6594, 123.8237
981.1415, 135.9115
981.6237, 147.5027
982.1058, 155.9227
982.5879, 159.7438
983.0700, 154.8154
983.5521, 143.6172
984.0342, 137.2904
984.5164, 141.4738
984.9985, 144.0372
985.4806, 136.1052
985.9627, 130.6285
986.4448, 139.6849
986.9269, 153.0444
987.4091, 157.1121
987.8912, 151.7174
988.3733, 146.1550
988.8554, 142.8824
989.3375, 140.7470
989.8196, 141.1628
990.3018, 140.6205
990.7839, 134.4206
991.2660, 126.9599
991.7481, 125.4068
992.2302, 129.8807
992.7123, 133.1920
993.1945, 132.2209
993.6766, 130.4175
994.1587, 126.4985
994.6408, 125.0674
995.1229, 133.8385
995.6050, 145.5093
996.0872, 146.8996
996.5693, 137.1166
997.0514, 130.2562
997.5335, 134.8555
998.0156, 139.4626
998.4977, 136.1340
998.9799, 133.0139
999.4620, 139.8353
999.9441, 150.4160
1000.426, 152.2168
1000.908, 143.7358
1001.390, 137.7809
1001.873, 140.6873
1002.355, 146.4640
1002.837, 155.4165
1003.319, 163.0490
1003.801, 166.2665
1004.283, 164.9621
1004.765, 157.0585
1005.247, 142.9170
1005.729, 134.8337
1006.212, 146.3210
1006.694, 154.6231
1007.176, 143.1267
1007.658, 128.4805
1008.140, 125.7782
1008.622, 130.9704
1009.104, 134.8209
1009.586, 135.3336
1010.069, 134.6284
1010.551, 131.3725
1011.033, 129.9669
1011.515, 136.3306
1011.997, 142.0332
1012.479, 137.0698
1012.961, 126.8095
1013.443, 123.1005
1013.925, 128.2261
1014.408, 132.6917
1014.890, 132.6715
1015.372, 131.2406
1015.854, 127.0687
1016.336, 124.5789
1016.818, 128.6393
1017.300, 136.7664
1017.782, 145.6579
1018.265, 154.5887
1018.747, 156.1918
1019.229, 141.1015
1019.711, 127.0289
1020.193, 121.6816
1020.675, 119.8709
1021.157, 116.9521
1021.639, 114.6175
1022.121, 117.8393
1022.604, 127.5285
1023.086, 133.8236
1023.568, 130.0107
1024.050, 127.4938
1024.532, 134.3699
1025.014, 139.9331
1025.496, 130.5997
1025.978, 116.6674
1026.460, 120.3561
1026.943, 145.2085
1027.425, 157.9935
1027.907, 136.2376
1028.389, 122.1894
1028.871, 135.3116
1029.353, 152.1952
1029.835, 159.5284
1030.317, 159.0257
1030.800, 153.9913
1031.282, 144.6741
1031.764, 134.4016
1032.246, 116.7502
1032.728, 108.2001
1033.210, 119.7987
1033.692, 133.1133
1034.174, 136.3988
1034.656, 135.0332
1035.139, 137.9348
1035.621, 145.6734
1036.103, 151.8013
1036.585, 157.0259
1037.067, 158.8106
1037.549, 151.1402
1038.031, 146.4170
1038.513, 155.7073
1038.995, 168.7084
1039.478, 169.6558
1039.960, 158.5471
1040.442, 152.6389
1040.924, 154.8808
1041.406, 157.2765
1041.888, 160.9282
1042.370, 162.3551
1042.852, 158.8556
1043.335, 153.3976
1043.817, 148.6743
1044.299, 145.0111
1044.781, 147.1512
1045.263, 160.4719
1045.745, 166.0721
1046.227, 158.7687
1046.709, 152.3608
1047.192, 153.1140
1047.674, 155.9919
1048.156, 155.4631
1048.638, 152.0488
1049.120, 148.6281
1049.602, 144.5706
1050.084, 143.1296
1050.566, 144.7707
1051.048, 148.2725
1051.531, 154.0663
1052.013, 159.2213
1052.495, 161.1236
1052.977, 159.8309
1053.459, 154.3409
1053.941, 143.7864
1054.423, 139.2183
1054.905, 141.6621
1055.387, 143.6416
1055.870, 142.2694
1056.352, 145.0445
1056.834, 159.8714
1057.316, 178.6340
1057.798, 180.0651
1058.280, 165.4106
1058.762, 153.6805
1059.244, 145.2801
1059.727, 142.1157
1060.209, 144.5971
1060.691, 145.0750
1061.173, 137.4458
1061.655, 129.6572
1062.137, 138.3512
1062.619, 157.9662
1063.101, 166.3679
1063.583, 165.1237
1064.066, 162.3102
1064.548, 159.8314
1065.030, 158.6757
1065.512, 159.4602
1065.994, 160.2510
1066.476, 157.2739
1066.958, 153.4401
1067.440, 156.0829
1067.922, 162.1363
1068.405, 164.0392
1068.887, 161.4593
1069.369, 157.4444
1069.851, 153.3569
1070.333, 151.1884
1070.815, 154.5507
1071.297, 158.9681
1071.779, 159.4534
1072.262, 157.4660
1072.744, 153.9522
1073.226, 150.1678
1073.708, 149.0042
1074.190, 151.0321
1074.672, 152.0070
1075.154, 148.3538
1075.636, 144.1962
1076.118, 141.9021
1076.601, 140.8140
1077.083, 141.0282
1077.565, 141.6243
1078.047, 140.1092
1078.529, 136.7986
1079.011, 137.5530
1079.493, 149.4245
1079.975, 156.6051
1080.458, 147.5703
1080.940, 138.6384
1081.422, 140.5391
1081.904, 147.4762
1082.386, 154.1578
1082.868, 159.1008
1083.350, 157.7943
1083.832, 143.7749
1084.314, 136.7090
1084.797, 144.0967
1085.279, 151.8048
1085.761, 156.4450
1086.243, 158.4642
1086.725, 157.0077
1087.207, 153.6041
1087.689, 153.1100
1088.171, 157.3532
1088.653, 156.2277
1089.136, 145.6079
1089.618, 139.0296
1090.100, 139.8977
1090.582, 144.3910
1091.064, 152.1892
1091.546, 158.6162
1092.028, 153.8543
1092.510, 138.4044
1092.993, 133.9232
1093.475, 142.2550
1093.957, 145.4692
1094.439, 140.3708
1094.921, 137.3196
1095.403, 141.5491
1095.885, 147.4145
1096.367, 147.9504
1096.849, 145.1369
1097.332, 145.4080
1097.814, 148.2691
1098.296, 150.7479
1098.778, 152.5597
1099.260, 154.1742
1099.742, 155.5779
1100.224, 154.0214
1100.706, 146.3626
1101.188, 138.1564
1101.671, 139.1712
1102.153, 144.6541
1102.635, 145.4439
1103.117, 142.8890
1103.599, 141.1680
1104.081, 141.0691
1104.563, 141.7738
1105.045, 143.0285
1105.528, 143.7938
1106.010, 141.0705
1106.492, 139.7472
1106.974, 147.8677
1107.456, 157.4645
1107.938, 156.9446
1108.420, 149.1839
1108.902, 144.5119
1109.385, 145.6930
1109.867, 146.4706
1110.349, 140.6759
1110.831, 139.1385
1111.313, 153.7200
1111.795, 166.0346
1112.277, 160.5076
1112.759, 145.7899
1113.241, 133.2835
1113.724, 124.0412
1114.206, 124.1565
1114.688, 143.9080
1115.170, 156.6521
1115.652, 158.2238
1116.134, 158.5623
1116.616, 161.5594
1117.098, 163.9570
1117.580, 162.6420
1118.063, 158.3330
1118.545, 152.5892
1119.027, 144.2309
1119.509, 143.2902
1119.991, 151.5751
1120.473, 155.9423
1120.955, 153.0225
1121.437, 148.6697
1121.920, 146.5005
1122.402, 144.9356
1122.884, 140.6881
1123.366, 135.3238
1123.848, 137.0484
1124.330, 144.0260
1124.812, 145.5005
1125.294, 141.4839
1125.776, 141.5492
1126.259, 148.9569
1126.741, 155.5251
1127.223, 152.9438
1127.705, 148.6447
1128.187, 155.1701
1128.669, 164.3826
1129.151, 163.9512
1129.633, 156.4425
1130.115, 146.0793
1130.598, 135.7070
1131.080, 132.5667
1131.562, 141.4036
1132.044, 150.8002
1132.526, 155.7351
1133.008, 157.5809
1133.490, 154.6977
1133.972, 151.2378
1134.455, 151.8604
1134.937, 155.0224
1135.419, 156.4606
1135.901, 155.5590
1136.383, 153.6669
1136.865, 150.7404
1137.347, 147.0631
1137.829, 141.5210
1138.312, 136.8432
1138.794, 134.0456
1139.276, 133.0088
1139.758, 133.8307
1140.240, 136.2623
1140.722, 138.8441
1141.204, 141.4387
1141.686, 144.9722
1142.168, 149.5291
1142.651, 155.1148
1143.133, 162.0293
1143.615, 166.8993
1144.097, 167.1350
1144.579, 165.1544
1145.061, 166.2818
1145.543, 168.3745
1146.025, 161.2937
1146.507, 148.6111
1146.990, 143.6306
1147.472, 146.5339
1147.954, 149.2560
1148.436, 148.6969
1148.918, 147.6160
1149.400, 149.3370
1149.882, 149.4909
1150.364, 138.6157
1150.847, 128.5195
1151.329, 136.2831
1151.811, 151.9975
1152.293, 158.1165
1152.775, 153.9241
1153.257, 150.1164
1153.739, 150.5872
1154.221, 149.0480
1154.703, 138.4475
1155.186, 132.4571
1155.668, 141.5981
1156.150, 152.0816
1156.632, 151.8551
1157.114, 146.3410
1157.596, 145.5889
1158.078, 149.7913
1158.560, 150.2025
1159.042, 144.6044
1159.525, 143.5314
1160.007, 149.6008
1160.489, 152.8957
1160.971, 148.9693
1161.453, 144.3074
1161.935, 145.2824
1162.417, 149.0377
1162.899, 147.8889
1163.382, 143.4913
1163.864, 144.7861
1164.346, 150.5628
1164.828, 155.9922
1165.310, 159.2112
1165.792, 154.5576
1166.274, 139.5012
1166.756, 127.7271
1167.238, 136.7110
1167.721, 149.4068
1168.203, 146.1534
1168.685, 138.9616
1169.167, 141.9273
1169.649, 151.2506
1170.131, 158.3082
1170.613, 161.9932
1171.095, 166.3606
1171.578, 174.3673
1172.060, 178.8229
1172.542, 178.3020
1173.024, 173.6543
1173.506, 159.5744
1173.988, 147.3423
1174.470, 147.0755
1174.952, 152.7733
1175.434, 152.8765
1175.917, 147.3746
1176.399, 141.0921
1176.881, 132.8705
1177.363, 132.1839
1177.845, 140.8256
1178.327, 148.8075
1178.809, 152.4223
1179.291, 153.1090
1179.773, 151.9293
1180.256, 149.4382
1180.738, 146.2837
1181.220, 142.7548
1181.702, 139.1742
1182.184, 135.9128
1182.666, 133.8585
1183.148, 132.9755
1183.630, 132.0540
1184.113, 130.6867
1184.595, 131.8985
1185.077, 142.2364
1185.559, 149.6849
1186.041, 142.5545
1186.523, 134.5982
1187.005, 138.3643
1187.487, 146.5953
1187.969, 148.6405
1188.452, 144.9099
1188.934, 142.9981
1189.416, 146.1616
1189.898, 141.9989
1190.380, 121.3896
1190.862, 115.9465
1191.344, 139.2994
1191.826, 157.7043
1192.308, 149.8919
1192.791, 134.5791
1193.273, 138.3019
1193.755, 154.8199
1194.237, 160.6280
1194.719, 157.5186
1195.201, 154.6973
1195.683, 153.0291
1196.165, 153.9022
1196.648, 156.9438
1197.130, 157.3261
1197.612, 151.9541
1198.094, 146.6709
1198.576, 148.4654
1199.058, 150.8025
1199.540, 146.1598
1200.022, 140.2156
1200.505, 140.9248
1200.987, 144.4505
1201.469, 141.0424
1201.951, 130.3636
1202.433, 126.1061
1202.915, 136.5345
1203.397, 142.5558
1203.879, 142.2633
1204.361, 138.8646
1204.844, 130.9600
1205.326, 124.5005
1205.808, 123.8136
1206.290, 126.7401
1206.772, 129.2251
1207.254, 131.8742
1207.736, 140.9424
1208.218, 155.0236
1208.700, 160.0636
1209.183, 155.7822
1209.665, 148.2951
1210.147, 140.2919
1210.629, 137.5473
1211.111, 145.2290
1211.593, 152.0506
1212.075, 143.6646
1212.557, 132.4286
1213.040, 130.2963
1213.522, 132.3723
1214.004, 130.7670
1214.486, 128.8492
1214.968, 137.8287
1215.450, 158.7565
1215.932, 169.6405
1216.414, 156.9210
1216.896, 151.2073
1217.379, 160.8024
1217.861, 163.5973
1218.343, 148.2082
1218.825, 135.7859
1219.307, 143.7141
1219.789, 159.3517
1220.271, 158.7794
1220.753, 145.6789
1221.235, 140.2440
1221.718, 141.5897
1222.200, 146.5945
1222.682, 153.7064
1223.164, 157.3728
1223.646, 156.5684
1224.128, 156.6670
1224.610, 161.6727
1225.092, 164.5861
1225.575, 156.1061
1226.057, 147.4960
1226.539, 148.5612
1227.021, 152.8125
1227.503, 152.7778
1227.985, 151.1359
1228.467, 155.4521
1228.949, 166.0415
1229.432, 169.5562
1229.914, 161.5667
1230.396, 156.6119
1230.878, 156.1087
1231.360, 154.4525
1231.842, 149.4237
1232.324, 146.8442
1232.806, 150.7611
1233.288, 157.4185
1233.771, 162.4355
1234.253, 164.9940
1234.735, 161.5882
1235.217, 154.5537
1235.699, 149.1684
1236.181, 145.6123
1236.663, 143.0071
1237.145, 141.1229
1237.627, 139.6493
1238.110, 138.1025
1238.592, 139.2579
1239.074, 147.9491
1239.556, 154.8229
1240.038, 155.3337
1240.520, 153.3428
1241.002, 149.1396
1241.484, 145.8419
1241.967, 147.7511
1242.449, 153.4267
1242.931, 156.2415
1243.413, 155.7060
1243.895, 157.1093
1244.377, 160.5156
1244.859, 162.8588
1245.341, 163.4725
1245.823, 160.1402
1246.306, 152.0535
1246.788, 145.1227
1247.270, 144.9253
1247.752, 148.0248
1248.234, 152.6804
1248.716, 156.3231
1249.198, 154.4283
1249.680, 150.8353
1250.162, 151.3964
1250.645, 155.0556
1251.127, 156.9055
1251.609, 155.9427
1252.091, 156.2939
1252.573, 160.9303
1253.055, 161.1417
1253.537, 152.9151
1254.019, 149.9075
1254.502, 158.0317
1254.984, 167.5939
1255.466, 171.6895
1255.948, 170.5890
1256.430, 162.5533
1256.912, 151.0488
##END=



