##NAMES=Kamaishilite
##RRUFFID=R070297
##IDEAL CHEMISTRY=Ca_2_(SiAl_2_)O_6_(OH)_2_
##LOCALITY=Kamaishi mine, Iwate Prefecture, Tohoku Region, Honshu Island, Japan
##OWNER=RRUFF
##SOURCE=Michael Scott
##DESCRIPTION=Colorless crystalline massive
##STATUS=The identification of this mineral is not yet confirmed.
##URL=rruff.info/R070297
142.1829, 4896.310
142.6650, 4913.396
143.1471, 4939.090
143.6293, 4947.616
144.1114, 4942.403
144.5935, 4936.836
145.0756, 4933.116
145.5577, 4932.644
146.0398, 4941.384
146.5220, 4966.444
147.0041, 4994.049
147.4862, 5013.342
147.9683, 5024.449
148.4504, 5032.535
148.9325, 5042.811
149.4147, 5056.048
149.8968, 5063.970
150.3789, 5059.749
150.8610, 5052.792
151.3431, 5045.768
151.8252, 5039.603
152.3074, 5037.728
152.7895, 5044.923
153.2716, 5060.766
153.7537, 5088.357
154.2358, 5143.049
154.7179, 5200.187
155.2001, 5237.356
155.6822, 5245.029
156.1643, 5231.729
156.6464, 5223.491
157.1285, 5213.882
157.6106, 5218.565
158.0928, 5253.962
158.5749, 5301.588
159.0570, 5335.053
159.5391, 5337.364
160.0212, 5312.346
160.5033, 5302.552
160.9855, 5329.861
161.4676, 5348.031
161.9497, 5341.808
162.4318, 5314.074
162.9139, 5273.357
163.3960, 5221.980
163.8782, 5160.149
164.3603, 5124.325
164.8424, 5137.545
165.3245, 5156.011
165.8066, 5151.224
166.2887, 5121.318
166.7709, 5081.701
167.2530, 5044.004
167.7351, 5008.322
168.2172, 4976.528
168.6993, 4944.562
169.1814, 4918.284
169.6636, 4907.248
170.1457, 4915.188
170.6278, 4929.031
171.1099, 4938.831
171.5920, 4944.911
172.0741, 4942.651
172.5563, 4926.119
173.0384, 4899.462
173.5205, 4874.524
174.0026, 4852.788
174.4847, 4833.651
174.9668, 4815.542
175.4490, 4798.522
175.9311, 4784.179
176.4132, 4773.420
176.8953, 4766.182
177.3774, 4762.684
177.8595, 4771.066
178.3417, 4776.470
178.8238, 4767.249
179.3059, 4742.730
179.7880, 4714.539
180.2701, 4695.731
180.7522, 4688.314
181.2344, 4681.661
181.7165, 4670.386
182.1986, 4661.673
182.6807, 4662.413
183.1628, 4674.097
183.6449, 4689.250
184.1271, 4694.108
184.6092, 4679.785
185.0913, 4672.890
185.5734, 4681.243
186.0555, 4694.267
186.5376, 4704.369
187.0198, 4708.409
187.5019, 4706.158
187.9840, 4696.468
188.4661, 4667.645
188.9482, 4646.084
189.4303, 4636.458
189.9125, 4634.078
190.3946, 4634.238
190.8767, 4634.671
191.3588, 4634.941
191.8409, 4632.913
192.3230, 4617.263
192.8052, 4611.841
193.2873, 4630.141
193.7694, 4661.080
194.2515, 4684.998
194.7336, 4689.521
195.2157, 4676.968
195.6979, 4670.093
196.1800, 4672.243
196.6621, 4675.144
197.1442, 4676.599
197.6263, 4676.460
198.1084, 4675.275
198.5906, 4674.203
199.0727, 4672.304
199.5548, 4662.641
200.0369, 4628.974
200.5190, 4601.930
201.0011, 4607.708
201.4833, 4643.146
201.9654, 4673.088
202.4475, 4665.610
202.9296, 4626.034
203.4117, 4610.715
203.8938, 4642.133
204.3760, 4685.507
204.8581, 4709.155
205.3402, 4710.706
205.8223, 4708.072
206.3044, 4716.973
206.7865, 4733.621
207.2686, 4744.036
207.7508, 4733.429
208.2329, 4719.829
208.7150, 4732.625
209.1971, 4780.116
209.6792, 4827.928
210.1613, 4842.561
210.6435, 4835.758
211.1256, 4833.216
211.6077, 4847.824
212.0898, 4872.625
212.5719, 4893.264
213.0540, 4909.694
213.5362, 4920.282
214.0183, 4924.222
214.5004, 4922.292
214.9825, 4915.434
215.4646, 4898.686
215.9467, 4876.013
216.4289, 4865.214
216.9110, 4872.927
217.3931, 4884.668
217.8752, 4893.482
218.3573, 4899.431
218.8394, 4902.763
219.3216, 4903.097
219.8037, 4900.629
220.2858, 4898.265
220.7679, 4903.867
221.2500, 4900.081
221.7321, 4870.994
222.2143, 4824.140
222.6964, 4782.622
223.1785, 4769.393
223.6606, 4786.136
224.1427, 4792.908
224.6248, 4777.890
225.1070, 4762.581
225.5891, 4756.143
226.0712, 4757.305
226.5533, 4759.276
227.0354, 4756.728
227.5175, 4749.854
227.9997, 4736.772
228.4818, 4710.083
228.9639, 4683.167
229.4460, 4660.333
229.9281, 4642.240
230.4102, 4627.875
230.8924, 4615.957
231.3745, 4605.570
231.8566, 4601.991
232.3387, 4614.168
232.8208, 4625.123
233.3029, 4627.311
233.7851, 4620.337
234.2672, 4607.420
234.7493, 4589.466
235.2314, 4559.304
235.7135, 4551.876
236.1956, 4593.180
236.6778, 4632.282
237.1599, 4637.087
237.6420, 4608.400
238.1241, 4571.598
238.6062, 4556.908
239.0883, 4574.610
239.5705, 4580.842
240.0526, 4565.089
240.5347, 4548.221
241.0168, 4542.805
241.4989, 4549.897
241.9810, 4562.725
242.4632, 4574.077
242.9453, 4584.756
243.4274, 4590.480
243.9095, 4586.237
244.3916, 4581.461
244.8737, 4583.311
245.3559, 4592.104
245.8380, 4601.613
246.3201, 4603.637
246.8022, 4592.378
247.2843, 4593.710
247.7664, 4617.338
248.2486, 4645.478
248.7307, 4665.599
249.2128, 4676.169
249.6949, 4683.446
250.1770, 4695.064
250.6591, 4714.305
251.1413, 4724.991
251.6234, 4720.414
252.1055, 4712.360
252.5876, 4707.580
253.0697, 4707.630
253.5518, 4713.660
254.0340, 4728.361
254.5161, 4755.690
254.9982, 4774.705
255.4803, 4782.431
255.9624, 4784.008
256.4445, 4783.925
256.9267, 4782.588
257.4088, 4776.012
257.8909, 4758.002
258.3730, 4724.419
258.8551, 4702.566
259.3372, 4694.533
259.8194, 4696.893
260.3015, 4710.840
260.7836, 4735.555
261.2657, 4761.163
261.7478, 4777.764
262.2299, 4783.599
262.7121, 4791.382
263.1942, 4804.865
263.6763, 4817.965
264.1584, 4826.045
264.6405, 4828.621
265.1227, 4826.661
265.6048, 4818.098
266.0869, 4802.584
266.5690, 4800.341
267.0511, 4821.890
267.5332, 4850.093
268.0154, 4870.655
268.4975, 4882.700
268.9796, 4894.593
269.4617, 4915.151
269.9438, 4943.866
270.4259, 4961.667
270.9081, 4958.436
271.3902, 4950.865
271.8723, 4953.835
272.3544, 4967.495
272.8365, 4979.657
273.3186, 4982.483
273.8008, 4974.936
274.2829, 4960.074
274.7650, 4928.061
275.2471, 4896.105
275.7292, 4878.116
276.2113, 4873.758
276.6935, 4872.605
277.1756, 4867.906
277.6577, 4860.488
278.1398, 4856.052
278.6219, 4859.747
279.1040, 4862.302
279.5862, 4856.879
280.0683, 4844.036
280.5504, 4828.212
281.0325, 4809.843
281.5146, 4791.271
281.9967, 4780.208
282.4789, 4785.981
282.9610, 4790.538
283.4431, 4782.578
283.9252, 4763.260
284.4073, 4739.065
284.8894, 4712.020
285.3716, 4682.888
285.8537, 4653.649
286.3358, 4618.915
286.8179, 4590.725
287.3000, 4581.709
287.7821, 4586.900
288.2643, 4585.800
288.7464, 4566.919
289.2285, 4537.438
289.7106, 4516.610
290.1927, 4510.852
290.6748, 4501.689
291.1570, 4477.423
291.6391, 4442.265
292.1212, 4407.429
292.6033, 4373.964
293.0854, 4348.014
293.5675, 4344.326
294.0497, 4371.435
294.5318, 4393.889
295.0139, 4396.519
295.4960, 4384.168
295.9781, 4365.672
296.4602, 4341.252
296.9424, 4317.291
297.4245, 4305.448
297.9066, 4305.173
298.3887, 4312.086
298.8708, 4333.763
299.3529, 4360.093
299.8351, 4373.016
300.3172, 4367.036
300.7993, 4349.316
301.2814, 4323.471
301.7635, 4286.442
302.2456, 4266.264
302.7278, 4284.090
303.2099, 4317.290
303.6920, 4335.421
304.1741, 4332.117
304.6562, 4318.220
305.1383, 4302.680
305.6205, 4285.124
306.1026, 4273.537
306.5847, 4269.726
307.0668, 4272.009
307.5489, 4279.056
308.0310, 4290.719
308.5132, 4306.945
308.9953, 4330.770
309.4774, 4362.266
309.9595, 4381.951
310.4416, 4380.874
310.9237, 4373.535
311.4059, 4369.814
311.8880, 4370.472
312.3701, 4373.923
312.8522, 4379.445
313.3343, 4387.024
313.8164, 4394.894
314.2986, 4406.064
314.7807, 4414.812
315.2628, 4416.451
315.7449, 4412.214
316.2270, 4406.830
316.7091, 4401.835
317.1913, 4398.621
317.6734, 4404.370
318.1555, 4436.792
318.6376, 4458.125
319.1197, 4440.810
319.6018, 4401.122
320.0840, 4380.417
320.5661, 4402.480
321.0482, 4450.375
321.5303, 4466.515
322.0124, 4429.357
322.4945, 4395.616
322.9767, 4372.339
323.4588, 4360.742
323.9409, 4367.520
324.4230, 4396.672
324.9051, 4433.487
325.3872, 4447.884
325.8694, 4424.437
326.3515, 4405.475
326.8336, 4395.659
327.3157, 4390.942
327.7978, 4388.812
328.2799, 4388.322
328.7621, 4386.533
329.2441, 4378.975
329.7263, 4362.223
330.2084, 4348.020
330.6905, 4331.068
331.1726, 4320.185
331.6547, 4326.542
332.1368, 4348.748
332.6190, 4371.642
333.1011, 4379.591
333.5832, 4370.037
334.0653, 4358.587
334.5474, 4338.288
335.0295, 4322.704
335.5117, 4323.523
335.9938, 4335.972
336.4759, 4344.759
336.9580, 4337.480
337.4401, 4314.443
337.9222, 4295.302
338.4044, 4281.595
338.8865, 4270.008
339.3686, 4259.891
339.8507, 4251.252
340.3328, 4245.125
340.8149, 4242.446
341.2971, 4241.449
341.7792, 4234.017
342.2613, 4204.084
342.7434, 4188.600
343.2255, 4199.718
343.7076, 4223.491
344.1898, 4246.008
344.6719, 4261.724
345.1540, 4272.478
345.6361, 4282.970
346.1182, 4299.413
346.6003, 4302.345
347.0825, 4281.460
347.5646, 4255.279
348.0467, 4234.285
348.5288, 4221.851
349.0109, 4218.300
349.4930, 4229.810
349.9752, 4266.204
350.4573, 4278.339
350.9394, 4237.305
351.4215, 4194.729
351.9036, 4174.023
352.3857, 4174.254
352.8679, 4181.657
353.3500, 4184.978
353.8321, 4184.421
354.3142, 4187.480
354.7963, 4196.768
355.2784, 4206.719
355.7606, 4217.014
356.2427, 4226.216
356.7248, 4232.034
357.2069, 4233.807
357.6890, 4230.897
358.1711, 4217.846
358.6533, 4184.080
359.1354, 4164.498
359.6175, 4193.820
360.0996, 4236.427
360.5817, 4247.166
361.0638, 4203.217
361.5460, 4144.040
362.0281, 4126.651
362.5102, 4156.185
362.9923, 4180.387
363.4744, 4177.798
363.9565, 4165.159
364.4387, 4158.755
364.9208, 4160.818
365.4029, 4164.066
365.8850, 4163.240
366.3671, 4158.928
366.8492, 4154.190
367.3314, 4149.550
367.8135, 4144.885
368.2956, 4137.232
368.7777, 4127.052
369.2598, 4125.247
369.7419, 4145.558
370.2241, 4174.527
370.7062, 4188.378
371.1883, 4183.173
371.6704, 4170.555
372.1525, 4157.077
372.6346, 4143.512
373.1168, 4134.434
373.5989, 4128.796
374.0810, 4128.986
374.5631, 4143.556
375.0452, 4169.739
375.5273, 4185.440
376.0095, 4175.285
376.4916, 4144.885
376.9737, 4120.472
377.4558, 4100.931
377.9379, 4087.543
378.4200, 4081.206
378.9022, 4081.262
379.3843, 4088.292
379.8664, 4103.344
380.3485, 4121.272
380.8306, 4130.895
381.3127, 4126.581
381.7949, 4124.383
382.2770, 4131.211
382.7591, 4137.333
383.2412, 4131.580
383.7233, 4112.667
384.2054, 4089.746
384.6876, 4073.631
385.1697, 4066.322
385.6518, 4057.375
386.1339, 4043.706
386.6160, 4031.503
387.0981, 4022.695
387.5803, 4017.847
388.0624, 4018.825
388.5445, 4028.536
389.0266, 4045.058
389.5087, 4047.362
389.9908, 4020.599
390.4730, 3995.665
390.9551, 3973.414
391.4372, 3957.423
391.9193, 3953.469
392.4014, 3964.343
392.8835, 3982.977
393.3657, 3995.876
393.8478, 4003.166
394.3299, 4003.635
394.8120, 3988.312
395.2941, 3972.698
395.7762, 3968.763
396.2584, 3977.665
396.7405, 3989.505
397.2226, 3998.339
397.7047, 4004.232
398.1868, 3993.639
398.6689, 3949.862
399.1511, 3908.172
399.6332, 3889.438
400.1153, 3888.953
400.5974, 3892.274
401.0795, 3893.832
401.5616, 3893.564
402.0438, 3890.832
402.5259, 3885.056
403.0080, 3879.242
403.4901, 3876.298
403.9722, 3873.969
404.4543, 3868.517
404.9365, 3857.776
405.4186, 3846.312
405.9007, 3836.684
406.3828, 3829.167
406.8649, 3826.522
407.3470, 3832.564
407.8292, 3840.142
408.3113, 3835.564
408.7934, 3815.880
409.2755, 3800.967
409.7576, 3801.832
410.2397, 3809.144
410.7219, 3810.897
411.2040, 3804.919
411.6861, 3793.492
412.1682, 3776.815
412.6503, 3753.611
413.1324, 3740.661
413.6146, 3746.136
414.0967, 3753.898
414.5788, 3752.978
415.0609, 3746.302
415.5430, 3744.478
416.0251, 3754.586
416.5073, 3773.745
416.9894, 3788.481
417.4715, 3802.603
417.9536, 3807.412
418.4357, 3797.403
418.9178, 3779.842
419.4000, 3758.653
419.8821, 3736.159
420.3642, 3719.329
420.8463, 3723.500
421.3284, 3766.526
421.8105, 3780.709
422.2927, 3728.299
422.7748, 3736.830
423.2569, 3741.085
423.7390, 3741.294
424.2211, 3725.339
424.7032, 3730.257
425.1854, 3726.810
425.6675, 3723.020
426.1496, 3730.875
426.6317, 3717.271
427.1138, 3724.942
427.5959, 3724.120
428.0781, 3727.185
428.5602, 3721.833
429.0423, 3719.081
429.5244, 3724.749
430.0065, 3725.754
430.4886, 3719.434
430.9708, 3722.746
431.4529, 3708.848
431.9350, 3710.052
432.4171, 3717.772
432.8992, 3711.875
433.3813, 3715.341
433.8635, 3715.240
434.3456, 3698.934
434.8277, 3710.812
435.3098, 3710.501
435.7919, 3692.205
436.2740, 3676.627
436.7562, 3667.350
437.2383, 3665.762
437.7204, 3669.675
438.2025, 3682.423
438.6846, 3700.152
439.1667, 3710.126
439.6489, 3704.264
440.1310, 3691.900
440.6131, 3698.780
441.0952, 3751.353
441.5773, 3786.058
442.0594, 3789.597
442.5416, 3780.233
443.0237, 3770.930
443.5058, 3765.686
443.9879, 3766.301
444.4700, 3775.456
444.9521, 3794.261
445.4343, 3813.454
445.9164, 3839.000
446.3985, 3858.754
446.8806, 3866.397
447.3627, 3865.491
447.8448, 3860.808
448.3270, 3852.895
448.8091, 3847.848
449.2912, 3865.614
449.7733, 3919.777
450.2554, 3958.537
450.7375, 3954.736
451.2197, 3938.916
451.7018, 3934.214
452.1839, 3944.281
452.6660, 3954.104
453.1481, 3948.683
453.6302, 3931.933
454.1124, 3923.257
454.5945, 3928.032
455.0766, 3933.996
455.5587, 3930.232
456.0408, 3919.342
456.5229, 3908.104
457.0051, 3896.516
457.4872, 3886.243
457.9693, 3881.368
458.4514, 3880.278
458.9335, 3872.468
459.4156, 3849.996
459.8978, 3821.336
460.3799, 3811.126
460.8620, 3831.491
461.3441, 3844.059
461.8262, 3836.197
462.3083, 3820.481
462.7905, 3810.437
463.2726, 3808.283
463.7547, 3807.262
464.2368, 3799.985
464.7189, 3785.415
465.2010, 3773.604
465.6832, 3768.578
466.1653, 3761.918
466.6474, 3747.733
467.1295, 3730.756
467.6116, 3719.558
468.0938, 3719.016
468.5759, 3723.492
469.0580, 3720.403
469.5401, 3707.868
470.0222, 3693.028
470.5043, 3671.809
470.9865, 3652.596
471.4686, 3643.277
471.9507, 3643.320
472.4328, 3641.817
472.9149, 3630.399
473.3970, 3610.880
473.8792, 3586.754
474.3613, 3553.453
474.8434, 3529.821
475.3255, 3535.980
475.8076, 3559.921
476.2897, 3577.325
476.7719, 3582.648
477.2540, 3583.167
477.7361, 3582.261
478.2182, 3580.429
478.7003, 3579.447
479.1824, 3580.197
479.6646, 3581.030
480.1467, 3578.781
480.6288, 3571.146
481.1109, 3568.086
481.5930, 3571.429
482.0751, 3578.470
482.5573, 3591.007
483.0394, 3606.380
483.5215, 3615.496
484.0036, 3610.668
484.4857, 3594.944
484.9678, 3588.854
485.4500, 3602.417
485.9321, 3612.606
486.4142, 3616.266
486.8963, 3615.380
487.3784, 3609.821
487.8605, 3600.275
488.3427, 3592.348
488.8248, 3592.898
489.3069, 3602.230
489.7890, 3613.284
490.2711, 3624.409
490.7532, 3639.366
491.2354, 3666.358
491.7175, 3698.327
492.1996, 3718.724
492.6817, 3716.545
493.1638, 3704.714
493.6459, 3699.225
494.1280, 3699.319
494.6101, 3693.360
495.0923, 3673.500
495.5744, 3649.472
496.0565, 3640.191
496.5386, 3641.115
497.0207, 3649.612
497.5028, 3653.833
497.9850, 3654.007
498.4671, 3638.018
498.9492, 3642.901
499.4313, 3639.419
499.9134, 3635.595
500.3955, 3643.416
500.8777, 3629.777
501.3598, 3637.413
501.8419, 3636.557
502.3240, 3639.587
502.8061, 3633.871
503.2882, 3642.240
503.7704, 3659.155
504.2525, 3678.385
504.7346, 3691.332
505.2167, 3696.678
505.6988, 3704.980
506.1809, 3717.354
506.6631, 3731.992
507.1452, 3748.615
507.6273, 3766.654
508.1094, 3784.759
508.5915, 3801.157
509.0736, 3818.828
509.5558, 3841.516
510.0379, 3869.085
510.5200, 3900.970
511.0021, 3938.665
511.4842, 3978.577
511.9663, 4016.587
512.4485, 4053.652
512.9306, 4084.204
513.4127, 4098.791
513.8948, 4111.208
514.3770, 4136.393
514.8591, 4174.122
515.3412, 4213.625
515.8233, 4247.429
516.3054, 4276.607
516.7875, 4307.072
517.2697, 4337.243
517.7518, 4371.019
518.2339, 4420.477
518.7160, 4467.229
519.1981, 4493.165
519.6802, 4495.106
520.1624, 4482.818
520.6445, 4462.510
521.1266, 4433.689
521.6087, 4418.511
522.0908, 4430.135
522.5729, 4435.931
523.0551, 4424.284
523.5372, 4397.687
524.0193, 4358.147
524.5014, 4302.170
524.9835, 4242.952
525.4656, 4190.820
525.9478, 4146.164
526.4299, 4112.443
526.9120, 4094.702
527.3941, 4078.117
527.8762, 4043.010
528.3583, 3988.572
528.8405, 3939.334
529.3226, 3900.962
529.8047, 3865.289
530.2868, 3823.661
530.7689, 3779.922
531.2510, 3745.729
531.7332, 3727.496
532.2153, 3719.116
532.6974, 3706.192
533.1795, 3690.566
533.6616, 3666.367
534.1437, 3621.291
534.6259, 3578.979
535.1080, 3559.076
535.5901, 3556.858
536.0722, 3551.189
536.5543, 3524.729
537.0364, 3485.098
537.5186, 3455.714
538.0007, 3437.140
538.4828, 3426.719
538.9649, 3431.786
539.4470, 3439.645
539.9291, 3434.560
540.4113, 3413.849
540.8934, 3392.346
541.3755, 3379.093
541.8576, 3368.977
542.3397, 3352.549
542.8218, 3329.009
543.3040, 3307.329
543.7861, 3293.767
544.2682, 3287.900
544.7503, 3286.639
545.2324, 3297.355
545.7145, 3302.853
546.1967, 3290.616
546.6788, 3276.253
547.1609, 3280.719
547.6430, 3306.379
548.1251, 3333.987
548.6072, 3343.468
549.0894, 3334.585
549.5715, 3313.054
550.0536, 3263.308
550.5357, 3223.450
551.0178, 3211.225
551.4999, 3214.514
551.9821, 3217.220
552.4642, 3214.878
552.9463, 3210.923
553.4284, 3205.430
553.9105, 3200.360
554.3926, 3206.616
554.8748, 3229.631
555.3569, 3250.962
555.8390, 3249.880
556.3211, 3226.931
556.8032, 3217.589
557.2853, 3237.686
557.7675, 3255.517
558.2496, 3251.049
558.7317, 3235.427
559.2138, 3229.483
559.6959, 3240.499
560.1780, 3257.735
560.6602, 3265.193
561.1423, 3261.260
561.6244, 3254.147
562.1065, 3233.311
562.5886, 3220.028
563.0707, 3232.477
563.5529, 3255.932
564.0350, 3261.063
564.5171, 3230.416
564.9992, 3191.335
565.4813, 3183.518
565.9634, 3204.833
566.4456, 3220.440
566.9277, 3221.425
567.4098, 3216.686
567.8919, 3212.809
568.3740, 3210.036
568.8561, 3214.669
569.3383, 3240.958
569.8204, 3262.664
570.3025, 3254.379
570.7846, 3228.302
571.2667, 3215.107
571.7488, 3227.632
572.2310, 3254.689
572.7131, 3276.757
573.1952, 3292.943
573.6773, 3306.612
574.1594, 3317.122
574.6415, 3325.922
575.1237, 3329.018
575.6058, 3331.331
576.0879, 3343.956
576.5699, 3375.005
577.0521, 3411.452
577.5342, 3431.815
578.0163, 3435.944
578.4984, 3442.565
578.9805, 3458.993
579.4626, 3474.670
579.9448, 3475.001
580.4269, 3462.133
580.9090, 3455.610
581.3911, 3463.958
581.8732, 3475.427
582.3553, 3480.529
582.8375, 3482.240
583.3196, 3491.614
583.8017, 3513.700
584.2838, 3536.437
584.7659, 3537.635
585.2480, 3508.288
585.7302, 3482.835
586.2123, 3459.324
586.6944, 3441.287
587.1765, 3436.914
587.6586, 3438.155
588.1407, 3427.311
588.6229, 3392.725
589.1050, 3354.266
589.5871, 3346.547
590.0692, 3367.923
590.5513, 3373.065
591.0334, 3347.956
591.5156, 3312.775
591.9977, 3285.915
592.4798, 3266.389
592.9619, 3248.363
593.4440, 3227.724
593.9261, 3211.764
594.4083, 3209.532
594.8904, 3214.335
595.3725, 3212.333
595.8546, 3198.720
596.3367, 3180.204
596.8188, 3165.618
597.3010, 3154.109
597.7831, 3150.632
598.2652, 3168.931
598.7473, 3180.864
599.2294, 3174.649
599.7115, 3157.181
600.1937, 3138.377
600.6758, 3121.241
601.1579, 3106.732
601.6400, 3095.706
602.1221, 3088.185
602.6042, 3084.255
603.0864, 3083.934
603.5685, 3087.622
604.0506, 3098.884
604.5327, 3115.831
605.0148, 3121.728
605.4969, 3105.268
605.9791, 3091.157
606.4612, 3089.952
606.9433, 3095.049
607.4254, 3099.030
607.9075, 3099.706
608.3896, 3096.859
608.8718, 3088.070
609.3539, 3073.725
609.8360, 3073.641
610.3181, 3096.125
610.8002, 3119.301
611.2823, 3143.349
611.7645, 3160.610
612.2466, 3158.654
612.7287, 3133.934
613.2108, 3111.364
613.6929, 3106.604
614.1750, 3115.286
614.6572, 3133.019
615.1393, 3158.990
615.6214, 3181.890
616.1035, 3194.907
616.5856, 3199.618
617.0677, 3201.932
617.5499, 3200.481
618.0320, 3198.511
618.5141, 3193.409
618.9962, 3189.933
619.4783, 3192.211
619.9604, 3199.705
620.4426, 3209.631
620.9247, 3221.332
621.4068, 3232.278
621.8889, 3232.397
622.3710, 3217.952
622.8531, 3215.372
623.3353, 3238.318
623.8174, 3269.088
624.2995, 3290.022
624.7816, 3301.689
625.2637, 3311.821
625.7458, 3324.611
626.2280, 3334.780
626.7101, 3334.740
627.1922, 3328.757
627.6743, 3328.322
628.1564, 3338.010
628.6385, 3353.061
629.1207, 3365.383
629.6028, 3372.828
630.0849, 3386.150
630.5670, 3415.226
631.0491, 3439.947
631.5313, 3453.028
632.0134, 3457.819
632.4955, 3458.347
632.9776, 3454.892
633.4597, 3453.558
633.9418, 3463.567
634.4240, 3480.718
634.9061, 3489.242
635.3882, 3485.886
635.8703, 3482.927
636.3524, 3489.277
636.8345, 3503.850
637.3167, 3519.824
637.7988, 3544.643
638.2809, 3560.817
638.7630, 3560.869
639.2451, 3554.079
639.7272, 3547.895
640.2094, 3543.629
640.6915, 3540.393
641.1736, 3538.941
641.6557, 3536.718
642.1378, 3522.635
642.6199, 3492.932
643.1021, 3468.121
643.5842, 3457.553
644.0663, 3451.014
644.5484, 3435.916
645.0305, 3412.630
645.5126, 3394.841
645.9948, 3390.251
646.4769, 3389.181
646.9590, 3388.980
647.4411, 3385.912
647.9232, 3369.984
648.4053, 3337.335
648.8875, 3297.007
649.3696, 3260.748
649.8517, 3227.093
650.3338, 3206.456
650.8159, 3209.155
651.2980, 3213.228
651.7802, 3213.807
652.2623, 3210.396
652.7444, 3201.219
653.2265, 3184.787
653.7086, 3169.679
654.1907, 3165.952
654.6729, 3167.558
655.1550, 3160.427
655.6371, 3143.155
656.1192, 3124.281
656.6013, 3109.674
657.0834, 3097.445
657.5656, 3080.853
658.0477, 3051.977
658.5298, 3029.637
659.0119, 3018.965
659.4940, 3010.565
659.9761, 2994.459
660.4583, 2974.450
660.9404, 2964.760
661.4225, 2976.756
661.9046, 2996.056
662.3867, 2997.036
662.8688, 2980.229
663.3510, 2962.389
663.8331, 2947.706
664.3152, 2931.354
664.7973, 2904.122
665.2794, 2867.655
665.7615, 2849.459
666.2437, 2870.899
666.7258, 2886.529
667.2079, 2873.662
667.6900, 2848.640
668.1721, 2832.315
668.6542, 2828.506
669.1364, 2826.562
669.6185, 2814.960
670.1006, 2796.623
670.5827, 2790.973
671.0648, 2802.772
671.5469, 2811.183
672.0291, 2804.185
672.5112, 2794.798
672.9933, 2802.464
673.4754, 2828.272
673.9575, 2839.022
674.4396, 2808.911
674.9218, 2774.343
675.4039, 2766.894
675.8860, 2777.874
676.3681, 2783.527
676.8502, 2774.682
677.3323, 2760.238
677.8145, 2753.586
678.2966, 2756.080
678.7787, 2755.561
679.2608, 2750.812
679.7429, 2744.826
680.2250, 2739.557
680.7072, 2733.502
681.1893, 2723.713
681.6714, 2708.901
682.1535, 2696.319
682.6356, 2691.366
683.1177, 2690.349
683.5999, 2687.854
684.0820, 2684.134
684.5641, 2683.795
685.0462, 2689.799
685.5283, 2698.698
686.0104, 2702.958
686.4926, 2703.877
686.9747, 2696.973
687.4568, 2670.410
687.9389, 2647.803
688.4210, 2639.025
688.9031, 2641.158
689.3853, 2649.590
689.8674, 2665.175
690.3495, 2678.207
690.8316, 2678.644
691.3137, 2670.913
691.7958, 2664.089
692.2780, 2659.474
692.7601, 2656.458
693.2422, 2654.797
693.7243, 2654.292
694.2064, 2654.178
694.6885, 2654.417
695.1707, 2655.167
695.6528, 2657.662
696.1349, 2659.542
696.6170, 2658.314
697.0991, 2655.291
697.5812, 2654.911
698.0634, 2661.573
698.5455, 2666.186
699.0276, 2653.816
699.5097, 2630.100
699.9918, 2617.367
700.4739, 2620.690
700.9561, 2624.262
701.4382, 2613.592
701.9203, 2591.495
702.4024, 2580.378
702.8845, 2588.769
703.3666, 2597.123
703.8488, 2606.771
704.3309, 2613.793
704.8130, 2610.573
705.2951, 2601.274
705.7772, 2602.055
706.2593, 2628.229
706.7415, 2659.140
707.2236, 2660.877
707.7057, 2638.730
708.1878, 2626.496
708.6699, 2633.297
709.1520, 2642.147
709.6342, 2635.705
710.1163, 2615.003
710.5984, 2605.177
711.0805, 2612.930
711.5626, 2622.089
712.0447, 2632.485
712.5269, 2641.799
713.0090, 2651.261
713.4911, 2658.598
713.9732, 2655.214
714.4553, 2630.853
714.9374, 2598.560
715.4196, 2580.374
715.9017, 2574.603
716.3838, 2566.674
716.8659, 2551.886
717.3480, 2539.081
717.8301, 2538.604
718.3123, 2550.395
718.7944, 2553.650
719.2765, 2538.549
719.7586, 2528.369
720.2407, 2533.191
720.7228, 2540.428
721.2050, 2535.700
721.6871, 2520.497
722.1692, 2510.699
722.6513, 2520.101
723.1334, 2537.029
723.6155, 2542.561
724.0977, 2537.742
724.5798, 2529.647
725.0619, 2519.573
725.5440, 2509.120
726.0261, 2498.860
726.5082, 2488.790
726.9904, 2486.789
727.4725, 2502.532
727.9546, 2513.510
728.4367, 2507.990
728.9188, 2502.005
729.4009, 2514.703
729.8831, 2543.029
730.3652, 2563.209
730.8473, 2556.401
731.3294, 2538.301
731.8115, 2532.753
732.2936, 2536.844
732.7758, 2534.778
733.2579, 2521.834
733.7400, 2507.734
734.2221, 2502.482
734.7042, 2505.669
735.1863, 2506.167
735.6685, 2505.234
736.1506, 2499.657
736.6327, 2479.876
737.1148, 2462.436
737.5969, 2462.510
738.0790, 2478.295
738.5612, 2495.913
739.0433, 2511.747
739.5254, 2521.879
740.0075, 2519.476
740.4896, 2507.608
740.9717, 2494.332
741.4539, 2481.450
741.9360, 2472.784
742.4181, 2471.285
742.9002, 2477.153
743.3823, 2493.798
743.8644, 2540.046
744.3466, 2564.258
744.8287, 2545.998
745.3108, 2517.423
745.7929, 2496.335
746.2750, 2483.297
746.7571, 2474.471
747.2393, 2470.030
747.7214, 2466.803
748.2035, 2459.866
748.6856, 2452.990
749.1677, 2455.491
749.6498, 2467.995
750.1320, 2480.550
750.6141, 2485.360
751.0962, 2484.515
751.5783, 2486.530
752.0604, 2493.094
752.5425, 2497.754
753.0247, 2500.094
753.5068, 2499.838
753.9889, 2497.856
754.4710, 2493.267
754.9531, 2482.851
755.4352, 2459.407
755.9174, 2442.001
756.3995, 2441.473
756.8816, 2451.625
757.3637, 2469.819
757.8458, 2492.236
758.3279, 2507.850
758.8101, 2509.388
759.2922, 2502.403
759.7743, 2497.436
760.2564, 2494.256
760.7385, 2496.821
761.2206, 2510.200
761.7028, 2520.076
762.1849, 2516.158
762.6670, 2502.323
763.1491, 2488.276
763.6312, 2471.565
764.1133, 2460.743
764.5955, 2460.099
765.0776, 2463.975
765.5597, 2469.065
766.0418, 2475.011
766.5239, 2483.037
767.0060, 2493.783
767.4882, 2503.204
767.9703, 2506.634
768.4524, 2504.287
768.9345, 2494.353
769.4166, 2475.141
769.8987, 2463.417
770.3809, 2470.469
770.8630, 2486.300
771.3451, 2491.466
771.8272, 2482.503
772.3093, 2472.448
772.7914, 2450.906
773.2736, 2439.807
773.7557, 2461.004
774.2378, 2492.007
774.7199, 2498.899
775.2020, 2474.924
775.6841, 2451.832
776.1663, 2459.390
776.6484, 2479.349
777.1305, 2481.258
777.6126, 2467.755
778.0947, 2454.756
778.5768, 2417.184
779.0590, 2458.127
779.5411, 2481.966
780.0232, 2489.622
780.5053, 2432.622
780.9874, 2459.112
781.4695, 2452.142
781.9517, 2443.802
782.4338, 2482.042
782.9159, 2434.446
783.3980, 2471.948
783.8801, 2475.480
784.3622, 2494.560
784.8444, 2479.974
785.3265, 2475.785
785.8086, 2505.274
786.2907, 2516.115
786.7728, 2497.654
787.2549, 2517.721
787.7371, 2468.949
788.2192, 2480.585
788.7013, 2518.284
789.1834, 2501.515
789.6655, 2522.198
790.1476, 2513.598
790.6298, 2533.428
791.1119, 2530.901
791.5940, 2510.382
792.0761, 2492.987
792.5582, 2474.392
793.0403, 2465.678
793.5225, 2471.268
794.0046, 2484.924
794.4867, 2509.565
794.9688, 2537.609
795.4509, 2552.976
795.9330, 2547.753
796.4152, 2537.197
796.8973, 2536.973
797.3794, 2543.785
797.8615, 2550.269
798.3436, 2555.713
798.8257, 2557.676
799.3079, 2553.884
799.7900, 2550.100
800.2721, 2558.178
800.7542, 2583.027
801.2363, 2596.886
801.7184, 2591.638
802.2006, 2586.242
802.6827, 2584.776
803.1648, 2587.341
803.6469, 2596.496
804.1290, 2612.400
804.6111, 2623.131
805.0933, 2613.075
805.5754, 2607.095
806.0575, 2634.194
806.5396, 2675.018
807.0217, 2691.973
807.5038, 2678.876
807.9860, 2662.092
808.4681, 2665.267
808.9502, 2682.592
809.4323, 2696.077
809.9144, 2705.494
810.3965, 2714.065
810.8787, 2720.927
811.3608, 2731.263
811.8429, 2751.953
812.3250, 2780.621
812.8071, 2800.349
813.2892, 2810.776
813.7714, 2813.186
814.2535, 2797.214
814.7356, 2782.840
815.2177, 2785.842
815.6998, 2800.589
816.1819, 2812.211
816.6641, 2815.000
817.1462, 2815.371
817.6283, 2818.353
818.1104, 2822.397
818.5925, 2824.163
819.0746, 2824.196
819.5568, 2825.520
820.0389, 2829.371
820.5210, 2837.838
821.0031, 2857.148
821.4852, 2888.821
821.9673, 2903.731
822.4495, 2893.746
822.9316, 2887.769
823.4137, 2897.544
823.8958, 2915.624
824.3779, 2934.255
824.8600, 2953.639
825.3422, 2968.513
825.8243, 2977.624
826.3064, 2982.942
826.7885, 2979.733
827.2706, 2976.645
827.7527, 2982.469
828.2349, 2998.038
828.7170, 3020.226
829.1991, 3050.566
829.6812, 3080.471
830.1633, 3096.719
830.6454, 3102.961
831.1276, 3108.919
831.6097, 3116.455
832.0918, 3130.170
832.5739, 3154.255
833.0560, 3184.082
833.5381, 3205.836
834.0203, 3215.132
834.5024, 3232.381
834.9845, 3268.344
835.4666, 3297.757
835.9487, 3298.014
836.4308, 3288.126
836.9130, 3296.379
837.3951, 3327.011
837.8772, 3360.664
838.3593, 3400.840
838.8414, 3434.080
839.3235, 3447.344
839.8057, 3450.469
840.2878, 3455.705
840.7699, 3467.100
841.2520, 3487.318
841.7341, 3523.822
842.2162, 3566.240
842.6984, 3594.742
843.1805, 3611.505
843.6626, 3627.187
844.1447, 3644.300
844.6268, 3657.499
845.1089, 3661.448
845.5911, 3658.540
846.0732, 3659.320
846.5553, 3662.513
847.0374, 3673.420
847.5195, 3702.410
848.0016, 3727.254
848.4838, 3728.691
848.9659, 3718.889
849.4480, 3723.535
849.9301, 3752.945
850.4122, 3770.841
850.8943, 3754.789
851.3765, 3736.248
851.8586, 3738.962
852.3407, 3753.762
852.8228, 3763.951
853.3049, 3764.629
853.7870, 3760.228
854.2692, 3749.736
854.7513, 3739.171
855.2334, 3745.824
855.7155, 3764.303
856.1976, 3764.241
856.6797, 3737.220
857.1619, 3710.718
857.6440, 3712.300
858.1261, 3734.053
858.6082, 3730.842
859.0903, 3691.239
859.5724, 3664.340
860.0546, 3666.987
860.5367, 3668.626
861.0188, 3646.954
861.5009, 3609.631
861.9830, 3573.507
862.4651, 3533.625
862.9473, 3508.436
863.4294, 3515.586
863.9115, 3524.041
864.3936, 3511.861
864.8757, 3489.698
865.3578, 3478.142
865.8400, 3481.688
866.3221, 3483.156
866.8042, 3465.574
867.2863, 3441.536
867.7684, 3428.285
868.2505, 3423.277
868.7327, 3421.485
869.2148, 3420.616
869.6969, 3409.910
870.1790, 3377.939
870.6611, 3331.985
871.1432, 3298.379
871.6254, 3278.995
872.1075, 3255.193
872.5896, 3219.172
873.0717, 3192.250
873.5538, 3194.102
874.0359, 3212.240
874.5181, 3212.118
875.0002, 3183.199
875.4823, 3158.980
875.9644, 3142.113
876.4465, 3127.224
876.9286, 3113.007
877.4108, 3099.060
877.8929, 3083.433
878.3750, 3066.263
878.8571, 3055.317
879.3392, 3063.836
879.8214, 3070.452
880.3035, 3051.392
880.7856, 3021.603
881.2677, 3007.128
881.7498, 3009.940
882.2319, 3013.473
882.7141, 3006.565
883.1962, 2993.538
883.6783, 2981.934
884.1604, 2971.301
884.6425, 2956.560
885.1246, 2936.644
885.6068, 2923.976
886.0889, 2926.881
886.5710, 2936.233
887.0531, 2933.943
887.5352, 2916.470
888.0173, 2908.343
888.4995, 2919.038
888.9816, 2922.703
889.4637, 2900.625
889.9458, 2876.064
890.4279, 2874.108
890.9100, 2893.077
891.3922, 2908.574
891.8743, 2923.745
892.3564, 2926.498
892.8385, 2895.967
893.3206, 2865.259
893.8027, 2870.251
894.2849, 2900.157
894.7670, 2918.826
895.2491, 2910.825
895.7312, 2893.393
896.2133, 2876.919
896.6954, 2862.609
897.1776, 2851.359
897.6597, 2844.053
898.1418, 2844.235
898.6239, 2852.953
899.1060, 2865.900
899.5881, 2881.323
900.0703, 2895.881
900.5524, 2892.377
901.0345, 2870.034
901.5166, 2846.921
901.9987, 2826.402
902.4808, 2807.568
902.9630, 2787.071
903.4451, 2768.979
903.9272, 2772.475
904.4093, 2822.841
904.8914, 2841.915
905.3735, 2802.450
905.8556, 2761.550
906.3377, 2739.839
906.8198, 2732.683
907.3019, 2738.278
907.7841, 2758.785
908.2662, 2766.959
908.7483, 2750.658
909.2304, 2727.227
909.7125, 2699.265
910.1946, 2672.492
910.6768, 2652.432
911.1589, 2639.670
911.6410, 2632.625
912.1231, 2631.330
912.6052, 2633.492
913.0873, 2639.668
913.5695, 2646.422
914.0516, 2650.554
914.5337, 2649.808
915.0158, 2633.719
915.4979, 2597.178
915.9800, 2560.404
916.4622, 2555.915
916.9443, 2577.408
917.4264, 2581.038
917.9085, 2565.971
918.3906, 2553.853
918.8727, 2550.912
919.3549, 2553.361
919.8370, 2558.517
920.3191, 2565.590
920.8012, 2569.235
921.2833, 2569.549
921.7654, 2566.114
922.2476, 2556.295
922.7297, 2546.095
923.2118, 2542.068
923.6939, 2538.700
924.1760, 2523.627
924.6581, 2490.706
925.1403, 2471.747
925.6224, 2478.521
926.1045, 2491.348
926.5866, 2510.134
927.0687, 2525.229
927.5508, 2523.779
928.0330, 2507.422
928.5151, 2492.282
928.9972, 2486.851
929.4793, 2482.709
929.9614, 2473.471
930.4435, 2462.052
930.9257, 2450.884
931.4078, 2441.012
931.8899, 2434.515
932.3720, 2432.266
932.8541, 2431.595
933.3362, 2433.139
933.8184, 2432.914
934.3005, 2414.240
934.7826, 2381.548
935.2647, 2366.917
935.7468, 2379.199
936.2289, 2392.591
936.7111, 2382.184
937.1932, 2357.797
937.6753, 2358.604
938.1574, 2389.764
938.6395, 2400.200
939.1216, 2378.251
939.6038, 2356.221
940.0859, 2352.668
940.5680, 2357.843
941.0501, 2352.453
941.5322, 2331.517
942.0143, 2326.408
942.4965, 2355.925
942.9786, 2374.375
943.4607, 2365.419
943.9428, 2347.493
944.4249, 2331.834
944.9070, 2319.744
945.3892, 2314.558
945.8713, 2319.588
946.3534, 2326.523
946.8355, 2336.939
947.3176, 2344.909
947.7997, 2346.010
948.2819, 2341.931
948.7640, 2333.321
949.2461, 2320.800
949.7282, 2315.302
950.2103, 2332.680
950.6924, 2350.652
951.1746, 2345.099
951.6567, 2328.495
952.1388, 2320.352
952.6209, 2323.164
953.1030, 2331.295
953.5851, 2342.237
954.0673, 2352.687
954.5494, 2357.778
955.0315, 2359.040
955.5136, 2361.029
955.9957, 2363.486
956.4778, 2361.936
956.9600, 2354.702
957.4421, 2347.247
957.9242, 2313.158
958.4063, 2353.956
958.8884, 2377.652
959.3705, 2385.164
959.8527, 2328.020
960.3348, 2354.366
960.8169, 2347.253
961.2990, 2338.768
961.7811, 2376.864
962.2632, 2329.124
962.7454, 2366.482
963.2275, 2369.871
963.7096, 2388.806
964.1917, 2374.076
964.6738, 2369.744
965.1559, 2399.088
965.6381, 2409.786
966.1202, 2391.181
966.6023, 2411.104
967.0844, 2362.188
967.5665, 2373.680
968.0486, 2411.235
968.5308, 2394.323
969.0129, 2387.286
969.4950, 2395.370
969.9771, 2395.791
970.4592, 2386.002
970.9413, 2380.241
971.4235, 2388.008
971.9056, 2395.290
972.3877, 2393.218
972.8698, 2387.901
973.3519, 2385.641
973.8340, 2386.907
974.3162, 2389.703
974.7983, 2393.439
975.2804, 2397.607
975.7625, 2405.441
976.2446, 2410.771
976.7267, 2400.822
977.2089, 2383.457
977.6910, 2378.278
978.1731, 2389.775
978.6552, 2405.848
979.1373, 2420.182
979.6194, 2428.477
980.1016, 2415.592
980.5837, 2392.061
981.0658, 2388.111
981.5479, 2406.529
982.0300, 2437.140
982.5121, 2475.119
982.9943, 2517.107
983.4764, 2561.488
983.9585, 2605.859
984.4406, 2630.165
984.9227, 2635.112
985.4048, 2658.079
985.8870, 2709.996
986.3691, 2767.030
986.8512, 2809.218
987.3333, 2843.562
987.8154, 2895.017
988.2975, 2968.262
988.7797, 3026.356
989.2618, 3065.445
989.7439, 3099.046
990.2260, 3136.686
990.7081, 3164.755
991.1902, 3165.599
991.6724, 3139.639
992.1545, 3105.846
992.6366, 3067.255
993.1187, 3014.183
993.6008, 2934.328
994.0829, 2853.612
994.5651, 2788.580
995.0472, 2732.857
995.5293, 2671.937
996.0114, 2602.170
996.4935, 2543.599
996.9756, 2501.799
997.4578, 2465.311
997.9399, 2429.321
998.4220, 2398.938
998.9041, 2383.841
999.3862, 2378.459
999.8683, 2361.231
1000.350, 2319.773
1000.833, 2286.697
1001.315, 2273.785
1001.797, 2268.524
1002.279, 2269.528
1002.761, 2270.045
1003.243, 2260.951
1003.725, 2241.885
1004.207, 2221.395
1004.690, 2197.646
1005.172, 2181.427
1005.654, 2185.750
1006.136, 2195.237
1006.618, 2193.876
1007.100, 2184.637
1007.582, 2177.601
1008.064, 2175.856
1008.546, 2174.594
1009.029, 2169.845
1009.511, 2164.371
1009.993, 2160.077
1010.475, 2157.518
1010.957, 2160.340
1011.439, 2166.247
1011.921, 2164.875
1012.403, 2150.569
1012.885, 2132.742
1013.368, 2117.711
1013.850, 2108.445
1014.332, 2117.273
1014.814, 2136.218
1015.296, 2137.229
1015.778, 2115.898
1016.260, 2094.297
1016.742, 2088.726
1017.225, 2092.912
1017.707, 2098.275
1018.189, 2103.915
1018.671, 2107.136
1019.153, 2107.523
1019.635, 2102.706
1020.117, 2091.796
1020.599, 2081.225
1021.081, 2078.122
1021.564, 2079.894
1022.046, 2077.227
1022.528, 2070.620
1023.010, 2068.210
1023.492, 2071.220
1023.974, 2072.955
1024.456, 2069.960
1024.938, 2064.238
1025.421, 2058.373
1025.903, 2052.472
1026.385, 2046.960
1026.867, 2041.357
1027.349, 2041.379
1027.831, 2049.051
1028.313, 2058.917
1028.795, 2068.551
1029.277, 2075.559
1029.760, 2074.069
1030.242, 2063.135
1030.724, 2049.748
1031.206, 2029.598
1031.688, 2024.417
1032.170, 2048.418
1032.652, 2070.382
1033.134, 2060.392
1033.617, 2027.794
1034.099, 2007.725
1034.581, 2002.351
1035.063, 2004.292
1035.545, 2018.898
1036.027, 2029.976
1036.509, 2031.067
1036.991, 2026.765
1037.474, 2019.926
1037.956, 2011.436
1038.438, 2010.572
1038.920, 2020.636
1039.402, 2032.378
1039.884, 2054.505
1040.366, 2065.681
1040.848, 2048.622
1041.330, 2020.395
1041.813, 2001.848
1042.295, 1992.928
1042.777, 1994.847
1043.259, 2023.199
1043.741, 2039.321
1044.223, 2030.559
1044.705, 2018.310
1045.187, 2013.165
1045.669, 2012.673
1046.152, 2012.922
1046.634, 2014.066
1047.116, 2013.599
1047.598, 2006.466
1048.080, 2004.373
1048.562, 2017.145
1049.044, 2029.026
1049.526, 2026.782
1050.009, 2015.601
1050.491, 2007.756
1050.973, 2004.434
1051.455, 2004.863
1051.937, 2016.929
1052.419, 2022.460
1052.901, 2007.777
1053.383, 1989.925
1053.865, 1983.448
1054.348, 1986.818
1054.830, 1992.698
1055.312, 2009.320
1055.794, 2018.975
1056.276, 2024.355
1056.758, 2025.690
1057.240, 2010.860
1057.722, 2016.902
1058.204, 2014.580
1058.687, 2011.915
1059.169, 2020.895
1059.651, 2008.416
1060.133, 2017.212
1060.615, 2017.515
1061.097, 2021.705
1061.579, 2017.478
1062.061, 2015.851
1062.544, 2004.862
1063.026, 2004.383
1063.508, 2009.814
1063.990, 2026.687
1064.472, 2046.409
1064.954, 2076.602
1065.436, 2097.285
1065.918, 2081.278
1066.401, 2054.034
1066.883, 2055.924
1067.365, 2089.214
1067.847, 2118.203
1068.329, 2125.978
1068.811, 2133.229
1069.293, 2151.268
1069.775, 2169.943
1070.257, 2181.245
1070.740, 2187.675
1071.222, 2194.180
1071.704, 2201.579
1072.186, 2207.443
1072.668, 2211.979
1073.150, 2213.216
1073.632, 2208.567
1074.114, 2201.708
1074.596, 2192.764
1075.078, 2185.138
1075.561, 2188.966
1076.043, 2205.157
1076.525, 2206.455
1077.007, 2163.188
1077.489, 2124.741
1077.971, 2116.675
1078.453, 2123.641
1078.935, 2137.910
1079.418, 2153.958
1079.900, 2163.521
1080.382, 2164.732
1080.864, 2166.168
1081.346, 2168.193
1081.828, 2175.704
1082.310, 2199.886
1082.792, 2223.450
1083.275, 2221.682
1083.757, 2208.139
1084.239, 2216.357
1084.721, 2255.057
1085.203, 2294.130
1085.685, 2328.945
1086.167, 2350.495
1086.649, 2350.277
1087.131, 2337.709
1087.614, 2324.145
1088.096, 2305.140
1088.578, 2263.801
1089.060, 2193.704
1089.542, 2134.884
1090.024, 2106.298
1090.506, 2089.446
1090.988, 2084.587
1091.470, 2078.534
1091.953, 2053.759
1092.435, 2018.707
1092.917, 1997.180
1093.399, 1996.266
1093.881, 1993.696
1094.363, 1974.661
1094.845, 1960.254
1095.327, 1963.812
1095.810, 1973.890
1096.292, 1984.763
1096.774, 1992.142
1097.256, 1985.906
1097.738, 1960.979
1098.220, 1944.352
1098.702, 1951.443
1099.184, 1960.033
1099.667, 1961.249
1100.149, 1959.234
1100.631, 1957.359
1101.113, 1955.617
1101.595, 1952.393
1102.077, 1946.463
1102.559, 1944.701
1103.041, 1952.191
1103.523, 1959.744
1104.005, 1968.266
1104.488, 1971.649
1104.970, 1961.146
1105.452, 1942.320
1105.934, 1927.615
1106.416, 1917.604
1106.898, 1916.933
1107.380, 1939.615
1107.862, 1954.092
1108.345, 1943.516
1108.827, 1928.035
1109.309, 1923.878
1109.791, 1926.641
1110.273, 1922.636
1110.755, 1906.887
1111.237, 1903.614
1111.719, 1929.788
1112.202, 1948.174
1112.684, 1942.932
1113.166, 1934.402
1113.648, 1939.699
1114.130, 1951.331
1114.612, 1950.952
1115.094, 1934.744
1115.576, 1923.162
1116.058, 1916.281
1116.541, 1913.979
1117.023, 1919.975
1117.505, 1926.162
1117.987, 1928.188
1118.469, 1926.513
1118.951, 1919.974
1119.433, 1905.955
1119.915, 1907.696
1120.397, 1939.583
1120.880, 1956.677
1121.362, 1945.278
1121.844, 1928.291
1122.326, 1917.676
1122.808, 1911.401
1123.290, 1903.578
1123.772, 1893.022
1124.254, 1894.867
1124.737, 1904.033
1125.219, 1908.925
1125.701, 1909.771
1126.183, 1894.452
1126.665, 1900.007
1127.147, 1897.196
1127.629, 1894.042
1128.111, 1902.534
1128.594, 1889.566
1129.076, 1897.873
1129.558, 1897.688
1130.040, 1901.389
1130.522, 1896.675
1131.004, 1894.559
1131.486, 1906.368
1131.968, 1897.961
1132.450, 1881.497
1132.932, 1876.551
1133.415, 1883.050
1133.897, 1893.810
1134.379, 1908.194
1134.861, 1912.787
1135.343, 1900.979
1135.825, 1889.774
1136.307, 1900.286
1136.789, 1921.990
1137.272, 1921.250
1137.754, 1903.196
1138.236, 1899.385
1138.718, 1910.290
1139.200, 1915.677
1139.682, 1908.619
1140.164, 1898.104
1140.646, 1890.585
1141.129, 1888.530
1141.611, 1902.395
1142.093, 1923.279
1142.575, 1925.887
1143.057, 1913.504
1143.539, 1903.481
1144.021, 1900.494
1144.503, 1899.064
1144.985, 1894.767
1145.468, 1892.342
1145.950, 1903.214
1146.432, 1915.548
1146.914, 1909.053
1147.396, 1890.231
1147.878, 1870.219
1148.360, 1854.498
1148.842, 1855.282
1149.324, 1883.835
1149.807, 1908.566
1150.289, 1895.623
1150.771, 1876.263
1151.253, 1882.776
1151.735, 1899.996
1152.217, 1906.067
1152.699, 1899.813
1153.181, 1889.392
1153.664, 1876.683
1154.146, 1864.671
1154.628, 1852.655
1155.110, 1844.327
1155.592, 1838.030
1156.074, 1839.534
1156.556, 1862.303
1157.038, 1895.931
1157.521, 1914.678
1158.003, 1913.213
1158.485, 1903.284
1158.967, 1877.374
1159.449, 1857.061
1159.931, 1848.003
1160.413, 1847.106
1160.895, 1860.505
1161.377, 1877.341
1161.859, 1874.469
1162.342, 1848.758
1162.824, 1836.576
1163.306, 1849.761
1163.788, 1854.641
1164.270, 1841.005
1164.752, 1830.062
1165.234, 1832.000
1165.716, 1841.828
1166.199, 1855.337
1166.681, 1871.139
1167.163, 1874.955
1167.645, 1862.891
1168.127, 1857.380
1168.609, 1862.393
1169.091, 1861.293
1169.573, 1845.825
1170.056, 1831.295
1170.538, 1833.440
1171.020, 1846.387
1171.502, 1852.975
1171.984, 1853.555
1172.466, 1853.953
1172.948, 1854.470
1173.430, 1857.313
1173.912, 1862.958
1174.395, 1868.588
1174.877, 1872.263
1175.359, 1874.566
1175.841, 1877.200
1176.323, 1878.905
1176.805, 1874.513
1177.287, 1866.559
1177.769, 1865.909
1178.251, 1871.305
1178.734, 1864.757
1179.216, 1837.292
1179.698, 1816.693
1180.180, 1839.795
1180.662, 1872.870
1181.144, 1878.380
1181.626, 1868.876
1182.108, 1856.932
1182.591, 1847.647
1183.073, 1848.988
1183.555, 1862.394
1184.037, 1875.210
1184.519, 1883.721
1185.001, 1886.096
1185.483, 1874.238
1185.965, 1863.149
1186.448, 1868.723
1186.930, 1880.189
1187.412, 1880.656
1187.894, 1869.369
1188.376, 1856.946
1188.858, 1838.635
1189.340, 1831.541
1189.822, 1848.393
1190.304, 1863.617
1190.786, 1867.811
1191.269, 1865.963
1191.751, 1859.389
1192.233, 1850.917
1192.715, 1850.925
1193.197, 1863.668
1193.679, 1864.751
1194.161, 1848.549
1194.643, 1837.428
1195.126, 1836.163
1195.608, 1841.243
1196.090, 1851.878
1196.572, 1864.084
1197.054, 1871.717
1197.536, 1874.849
1198.018, 1872.855
1198.500, 1866.031
1198.983, 1861.599
1199.465, 1860.271
1199.947, 1857.295
1200.429, 1850.683
1200.911, 1843.156
1201.393, 1836.256
1201.875, 1832.518
1202.357, 1839.360
1202.839, 1851.675
1203.322, 1859.687
1203.804, 1862.665
1204.286, 1859.989
1204.768, 1852.438
1205.250, 1844.264
1205.732, 1837.759
1206.214, 1831.437
1206.696, 1820.213
1207.178, 1812.659
1207.661, 1820.014
1208.143, 1833.076
1208.625, 1839.665
1209.107, 1841.108
1209.589, 1846.160
1210.071, 1857.802
1210.553, 1865.137
1211.035, 1861.530
1211.518, 1858.171
1212.000, 1863.222
1212.482, 1864.535
1212.964, 1847.087
1213.446, 1825.143
1213.928, 1822.560
1214.410, 1838.202
1214.892, 1846.417
1215.375, 1846.798
1215.857, 1839.160
1216.339, 1817.417
1216.821, 1806.899
1217.303, 1819.673
1217.785, 1835.931
1218.267, 1837.124
1218.749, 1830.768
1219.231, 1837.207
1219.714, 1855.176
1220.196, 1866.032
1220.678, 1869.911
1221.160, 1869.566
1221.642, 1865.680
1222.124, 1858.179
1222.606, 1846.933
1223.088, 1836.309
1223.570, 1832.279
1224.053, 1830.812
1224.535, 1821.347
1225.017, 1812.280
1225.499, 1824.047
1225.981, 1847.794
1226.463, 1857.560
1226.945, 1848.005
1227.427, 1833.602
1227.910, 1816.410
1228.392, 1807.441
1228.874, 1820.262
1229.356, 1834.791
1229.838, 1836.249
1230.320, 1833.194
1230.802, 1837.839
1231.284, 1847.413
1231.766, 1849.009
1232.249, 1839.517
1232.731, 1828.268
1233.213, 1805.999
1233.695, 1800.164
1234.177, 1827.441
1234.659, 1849.446
1235.141, 1841.707
1235.623, 1822.530
1236.105, 1817.972
1236.588, 1825.915
1237.070, 1833.126
1237.552, 1839.716
1238.034, 1839.574
1238.516, 1832.501
1238.998, 1835.045
1239.480, 1851.784
1239.962, 1856.808
1240.445, 1827.071
1240.927, 1794.571
1241.409, 1818.566
1241.891, 1865.128
1242.373, 1870.231
1242.855, 1848.514
1243.337, 1827.635
1243.819, 1813.833
1244.302, 1809.496
1244.784, 1815.400
1245.266, 1823.909
1245.748, 1838.028
1246.230, 1843.726
1246.712, 1823.855
1247.194, 1803.316
1247.676, 1801.540
1248.158, 1810.328
1248.641, 1819.883
1249.123, 1828.595
1249.605, 1830.655
1250.087, 1821.261
1250.569, 1816.741
1251.051, 1821.438
1251.533, 1820.539
1252.015, 1805.782
1252.497, 1796.947
1252.980, 1809.004
1253.462, 1829.934
1253.944, 1840.675
1254.426, 1841.817
1254.908, 1833.918
1255.390, 1818.757
1255.872, 1815.231
1256.354, 1823.251
1256.837, 1826.020
1257.319, 1818.594
1257.801, 1812.158
1258.283, 1815.313
1258.765, 1822.130
1259.247, 1830.853
1259.729, 1834.888
1260.211, 1818.792
1260.693, 1797.256
1261.176, 1794.713
1261.658, 1807.676
1262.140, 1816.948
1262.622, 1817.453
1263.104, 1816.771
1263.586, 1814.622
1264.068, 1815.428
1264.550, 1824.857
1265.032, 1832.245
1265.515, 1831.006
1265.997, 1825.688
1266.479, 1820.252
1266.961, 1815.234
1267.443, 1813.812
1267.925, 1817.411
1268.407, 1813.811
1268.889, 1801.149
1269.372, 1801.580
1269.854, 1820.416
1270.336, 1840.561
1270.818, 1852.682
1271.300, 1857.112
1271.782, 1851.152
1272.264, 1841.550
1272.746, 1846.970
1273.229, 1855.712
1273.711, 1838.940
1274.193, 1806.978
1274.675, 1787.718
1275.157, 1787.109
1275.639, 1798.583
1276.121, 1824.364
1276.603, 1843.638
1277.085, 1846.533
##END=



