##NAMES=Kamarizaite
##RRUFFID=R090020
##IDEAL CHEMISTRY=Fe^3+^_3_(As^5+^O_4_)_2_(OH)_3_&#183;3H_2_O
##LOCALITY=Kamareza Mines, Laurion, Greece
##OWNER=RRUFF
##SOURCE=William W. Pinch
##DESCRIPTION=Tan colored massive on brown matrix.
##STATUS=The identification of this mineral is not yet confirmed.
##URL=rruff.info/R090020
90.92609, 0.0000000E+00
91.40820, 23.89180
91.89032, 23.95848
92.37244, 23.94888
92.85455, 23.86879
93.33667, 23.75313
93.81879, 23.52691
94.30090, 23.26977
94.78302, 23.23934
95.26514, 23.57035
95.74725, 24.09494
96.22937, 24.42816
96.71149, 24.55319
97.19360, 24.64375
97.67572, 24.94788
98.15784, 25.45388
98.63995, 25.71741
99.12207, 25.48955
99.60419, 24.85687
100.0863, 24.63053
100.5684, 24.93366
101.0505, 25.39734
101.5327, 25.41457
102.0148, 24.71642
102.4969, 24.49106
102.9790, 25.31263
103.4611, 27.46554
103.9432, 28.99313
104.4253, 29.51715
104.9075, 29.61248
105.3896, 30.41459
105.8717, 32.21024
106.3538, 34.33626
106.8359, 36.59264
107.3180, 38.97622
107.8002, 41.45146
108.2823, 43.86894
108.7644, 46.34322
109.2465, 49.40556
109.7286, 53.07317
110.2107, 57.27922
110.6929, 62.06507
111.1750, 67.65768
111.6571, 73.51877
112.1392, 79.21371
112.6213, 84.91806
113.1034, 92.06806
113.5856, 101.0480
114.0677, 111.5784
114.5498, 123.3620
115.0319, 136.2917
115.5140, 150.6042
115.9961, 166.4009
116.4783, 183.6751
116.9604, 201.8925
117.4425, 221.4532
117.9246, 241.9094
118.4067, 262.5851
118.8888, 284.3445
119.3710, 305.6585
119.8531, 325.7108
120.3352, 344.3488
120.8173, 361.9957
121.2994, 378.4135
121.7815, 393.8818
122.2637, 408.9506
122.7458, 423.2135
123.2279, 437.3690
123.7100, 451.8876
124.1921, 466.7162
124.6742, 482.3376
125.1564, 498.8655
125.6385, 516.4658
126.1206, 535.7485
126.6027, 556.5787
127.0848, 579.2560
127.5669, 604.4142
128.0491, 632.5657
128.5312, 662.3596
129.0133, 692.2966
129.4954, 722.1315
129.9775, 752.1044
130.4596, 782.6890
130.9418, 813.4193
131.4239, 843.6311
131.9060, 873.1593
132.3881, 902.2254
132.8702, 930.5063
133.3523, 958.0536
133.8345, 985.8574
134.3166, 1015.150
134.7987, 1046.164
135.2808, 1076.150
135.7629, 1104.597
136.2450, 1132.024
136.7272, 1160.637
137.2093, 1191.192
137.6914, 1221.127
138.1735, 1247.808
138.6556, 1270.746
139.1377, 1292.086
139.6199, 1312.462
140.1020, 1331.701
140.5841, 1350.002
141.0662, 1367.148
141.5483, 1383.360
142.0304, 1398.137
142.5126, 1409.270
142.9947, 1423.164
143.4768, 1437.557
143.9589, 1449.966
144.4410, 1462.662
144.9231, 1475.459
145.4053, 1488.736
145.8874, 1503.411
146.3695, 1519.848
146.8516, 1537.064
147.3337, 1554.270
147.8158, 1571.029
148.2980, 1589.659
148.7801, 1610.860
149.2622, 1633.866
149.7443, 1656.572
150.2264, 1678.466
150.7085, 1700.945
151.1907, 1724.284
151.6728, 1750.272
152.1549, 1774.880
152.6370, 1797.471
153.1191, 1818.723
153.6012, 1839.713
154.0834, 1863.197
154.5655, 1884.313
155.0476, 1901.237
155.5297, 1911.665
156.0118, 1920.276
156.4939, 1929.810
156.9761, 1938.608
157.4582, 1940.659
157.9403, 1933.969
158.4224, 1920.777
158.9045, 1902.235
159.3866, 1876.339
159.8688, 1848.167
160.3509, 1818.866
160.8330, 1788.486
161.3151, 1757.192
161.7972, 1723.261
162.2793, 1689.373
162.7615, 1657.563
163.2436, 1628.421
163.7257, 1601.394
164.2078, 1575.751
164.6899, 1551.587
165.1720, 1529.800
165.6541, 1510.373
166.1363, 1493.630
166.6184, 1479.890
167.1005, 1470.970
167.5826, 1463.690
168.0647, 1455.998
168.5468, 1447.960
169.0290, 1440.650
169.5111, 1434.590
169.9932, 1429.673
170.4753, 1425.754
170.9574, 1423.023
171.4395, 1421.154
171.9217, 1419.890
172.4038, 1419.233
172.8859, 1419.184
173.3680, 1420.209
173.8501, 1421.819
174.3322, 1423.161
174.8144, 1423.743
175.2965, 1423.949
175.7786, 1424.060
176.2607, 1424.061
176.7428, 1424.373
177.2249, 1425.969
177.7071, 1428.217
178.1892, 1429.616
178.6713, 1428.636
179.1534, 1426.605
179.6355, 1426.285
180.1176, 1428.008
180.5998, 1429.031
181.0819, 1425.393
181.5640, 1418.299
182.0461, 1411.938
182.5282, 1409.160
183.0103, 1408.474
183.4925, 1406.617
183.9746, 1403.449
184.4567, 1399.300
184.9388, 1394.228
185.4209, 1388.339
185.9030, 1382.550
186.3852, 1377.189
186.8673, 1372.271
187.3494, 1367.593
187.8315, 1363.132
188.3136, 1359.099
188.7957, 1355.807
189.2779, 1353.249
189.7600, 1350.795
190.2421, 1347.861
190.7242, 1344.674
191.2063, 1342.458
191.6884, 1341.308
192.1706, 1341.027
192.6527, 1341.601
193.1348, 1343.028
193.6169, 1344.241
194.0990, 1344.841
194.5811, 1344.794
195.0633, 1343.661
195.5454, 1341.047
196.0275, 1338.021
196.5096, 1336.925
196.9917, 1337.929
197.4738, 1338.833
197.9560, 1338.544
198.4381, 1337.084
198.9202, 1335.212
199.4023, 1332.905
199.8844, 1330.355
200.3665, 1328.141
200.8487, 1326.427
201.3308, 1324.178
201.8129, 1320.714
202.2950, 1315.954
202.7771, 1311.104
203.2592, 1305.893
203.7414, 1300.887
204.2235, 1297.696
204.7056, 1296.954
205.1877, 1295.623
205.6698, 1291.802
206.1519, 1284.978
206.6341, 1278.800
207.1162, 1273.311
207.5983, 1268.626
208.0804, 1265.287
208.5625, 1263.686
209.0446, 1262.299
209.5268, 1260.271
210.0089, 1257.321
210.4910, 1254.981
210.9731, 1253.045
211.4552, 1251.922
211.9373, 1252.903
212.4195, 1256.761
212.9016, 1260.786
213.3837, 1263.637
213.8658, 1264.978
214.3479, 1266.338
214.8300, 1267.456
215.3121, 1268.780
215.7943, 1271.843
216.2764, 1277.886
216.7585, 1282.956
217.2406, 1284.924
217.7227, 1282.439
218.2048, 1281.225
218.6870, 1282.160
219.1691, 1283.929
219.6512, 1283.248
220.1333, 1278.843
220.6154, 1274.295
221.0975, 1271.188
221.5797, 1270.291
222.0618, 1268.799
222.5439, 1267.027
223.0260, 1264.555
223.5081, 1260.188
223.9902, 1253.206
224.4724, 1245.701
224.9545, 1238.523
225.4366, 1231.274
225.9187, 1225.336
226.4008, 1221.105
226.8829, 1217.971
227.3651, 1214.725
227.8472, 1211.708
228.3293, 1207.927
228.8114, 1202.677
229.2935, 1194.987
229.7757, 1188.746
230.2578, 1183.849
230.7399, 1180.475
231.2220, 1179.272
231.7041, 1181.906
232.1862, 1183.993
232.6684, 1183.661
233.1505, 1179.690
233.6326, 1177.179
234.1147, 1176.311
234.5968, 1176.789
235.0789, 1178.252
235.5611, 1181.486
236.0432, 1184.428
236.5253, 1186.336
237.0074, 1186.800
237.4895, 1187.645
237.9716, 1188.993
238.4538, 1190.659
238.9359, 1192.407
239.4180, 1194.578
239.9001, 1196.307
240.3822, 1197.156
240.8643, 1196.774
241.3465, 1197.117
241.8286, 1198.289
242.3107, 1200.107
242.7928, 1202.438
243.2749, 1205.866
243.7570, 1208.752
244.2392, 1210.331
244.7213, 1210.169
245.2034, 1211.518
245.6855, 1215.395
246.1676, 1219.954
246.6497, 1222.709
247.1319, 1222.314
247.6140, 1222.584
248.0961, 1224.360
248.5782, 1227.705
249.0603, 1232.349
249.5424, 1238.960
250.0246, 1246.296
250.5067, 1253.005
250.9888, 1258.485
251.4709, 1264.575
251.9530, 1272.012
252.4351, 1280.971
252.9173, 1288.396
253.3994, 1293.313
253.8815, 1297.891
254.3636, 1304.334
254.8457, 1313.293
255.3278, 1322.491
255.8100, 1331.786
256.2921, 1341.167
256.7742, 1348.998
257.2563, 1353.740
257.7384, 1358.971
258.2205, 1368.220
258.7026, 1384.061
259.1848, 1397.580
259.6669, 1406.694
260.1490, 1412.053
260.6311, 1418.441
261.1132, 1426.118
261.5953, 1434.428
262.0775, 1442.842
262.5596, 1451.517
263.0417, 1460.058
263.5238, 1468.401
264.0059, 1476.568
264.4880, 1485.302
264.9702, 1495.084
265.4523, 1504.320
265.9344, 1511.487
266.4165, 1515.566
266.8986, 1521.777
267.3807, 1531.859
267.8629, 1543.916
268.3450, 1551.613
268.8271, 1553.930
269.3092, 1554.641
269.7913, 1555.547
270.2734, 1556.536
270.7556, 1558.603
271.2377, 1562.419
271.7198, 1566.933
272.2019, 1569.592
272.6840, 1570.053
273.1661, 1569.977
273.6483, 1570.704
274.1304, 1572.707
274.6125, 1571.368
275.0946, 1565.742
275.5767, 1557.880
276.0588, 1551.498
276.5410, 1546.932
277.0231, 1541.959
277.5052, 1535.924
277.9873, 1528.776
278.4694, 1520.030
278.9515, 1509.419
279.4337, 1497.672
279.9158, 1485.764
280.3979, 1473.762
280.8800, 1461.236
281.3621, 1448.090
281.8442, 1434.376
282.3264, 1421.099
282.8085, 1408.391
283.2906, 1395.792
283.7727, 1382.516
284.2548, 1368.568
284.7369, 1355.397
285.2191, 1343.491
285.7012, 1332.745
286.1833, 1322.313
286.6654, 1312.218
287.1475, 1302.262
287.6296, 1292.154
288.1118, 1281.930
288.5939, 1272.554
289.0760, 1264.429
289.5581, 1257.141
290.0402, 1249.495
290.5223, 1241.441
291.0045, 1233.299
291.4866, 1225.434
291.9687, 1217.684
292.4508, 1209.132
292.9329, 1199.227
293.4150, 1189.039
293.8972, 1180.039
294.3793, 1172.184
294.8614, 1164.824
295.3435, 1157.083
295.8256, 1149.536
296.3077, 1144.273
296.7899, 1142.142
297.2720, 1140.763
297.7541, 1136.575
298.2362, 1130.198
298.7183, 1124.315
299.2004, 1121.332
299.6826, 1119.670
300.1647, 1116.083
300.6468, 1110.127
301.1289, 1103.602
301.6110, 1097.849
302.0931, 1092.909
302.5753, 1088.740
303.0574, 1086.677
303.5395, 1084.813
304.0216, 1080.271
304.5037, 1072.906
304.9858, 1065.244
305.4680, 1059.207
305.9501, 1054.341
306.4322, 1049.903
306.9143, 1046.166
307.3964, 1042.322
307.8785, 1037.145
308.3607, 1030.837
308.8428, 1025.047
309.3249, 1021.034
309.8070, 1018.092
310.2891, 1015.495
310.7712, 1013.608
311.2534, 1011.213
311.7355, 1006.811
312.2176, 1000.937
312.6997, 995.7607
313.1818, 993.4406
313.6639, 991.7730
314.1461, 988.7542
314.6282, 983.1396
315.1103, 978.0054
315.5924, 975.3691
316.0745, 974.3311
316.5566, 972.9775
317.0388, 970.0712
317.5209, 967.0046
318.0030, 964.5159
318.4851, 962.7452
318.9672, 961.3830
319.4493, 960.3998
319.9315, 959.7578
320.4136, 959.3942
320.8957, 959.1279
321.3778, 959.3024
321.8599, 960.2192
322.3420, 961.9642
322.8242, 963.5126
323.3063, 964.7128
323.7884, 965.5917
324.2705, 966.1739
324.7526, 965.8554
325.2347, 965.8831
325.7169, 966.3846
326.1990, 967.3750
326.6811, 969.0643
327.1632, 972.3370
327.6453, 975.7179
328.1274, 978.3818
328.6096, 978.1906
329.0917, 979.9474
329.5738, 984.6586
330.0559, 991.4622
330.5380, 997.7281
331.0201, 1003.714
331.5023, 1008.880
331.9844, 1012.746
332.4665, 1013.995
332.9486, 1017.090
333.4307, 1022.256
333.9128, 1029.139
334.3950, 1037.267
334.8771, 1047.754
335.3592, 1057.507
335.8413, 1065.275
336.3234, 1070.851
336.8055, 1076.909
337.2877, 1083.473
337.7698, 1090.393
338.2519, 1097.408
338.7340, 1104.148
339.2161, 1112.278
339.6982, 1122.453
340.1803, 1134.365
340.6624, 1145.427
341.1446, 1155.598
341.6267, 1165.491
342.1088, 1175.916
342.5909, 1186.809
343.0730, 1197.523
343.5551, 1207.908
344.0373, 1218.007
344.5194, 1227.450
345.0015, 1236.279
345.4836, 1245.226
345.9657, 1254.596
346.4478, 1264.426
346.9300, 1275.075
347.4121, 1286.836
347.8942, 1298.779
348.3763, 1309.977
348.8584, 1320.443
349.3405, 1330.488
349.8227, 1340.129
350.3048, 1349.502
350.7869, 1359.161
351.2690, 1369.111
351.7511, 1378.365
352.2332, 1385.660
352.7154, 1391.499
353.1975, 1397.005
353.6796, 1403.001
354.1617, 1408.314
354.6438, 1411.598
355.1259, 1412.960
355.6081, 1413.051
356.0902, 1411.791
356.5723, 1409.641
357.0544, 1407.049
357.5365, 1403.984
358.0186, 1400.762
358.5008, 1397.997
358.9829, 1395.230
359.4650, 1391.492
359.9471, 1386.228
360.4292, 1379.941
360.9113, 1372.472
361.3935, 1363.628
361.8756, 1355.632
362.3577, 1350.546
362.8398, 1346.437
363.3219, 1341.108
363.8040, 1332.364
364.2862, 1323.907
364.7683, 1316.707
365.2504, 1310.781
365.7325, 1306.131
366.2146, 1303.451
366.6967, 1301.551
367.1789, 1299.691
367.6610, 1298.075
368.1431, 1296.159
368.6252, 1293.806
369.1073, 1291.093
369.5894, 1288.311
370.0716, 1284.718
370.5537, 1281.789
371.0358, 1280.180
371.5179, 1280.512
372.0000, 1280.246
372.4821, 1279.204
372.9643, 1277.673
373.4464, 1275.973
373.9285, 1273.917
374.4106, 1272.101
374.8927, 1270.828
375.3748, 1270.036
375.8570, 1268.549
376.3391, 1266.469
376.8212, 1263.418
377.3033, 1258.514
377.7854, 1251.365
378.2675, 1245.593
378.7497, 1242.008
379.2318, 1239.741
379.7139, 1236.512
380.1960, 1232.306
380.6781, 1227.766
381.1602, 1223.487
381.6424, 1219.332
382.1245, 1214.129
382.6066, 1207.572
383.0887, 1200.914
383.5708, 1195.073
384.0529, 1190.266
384.5351, 1187.353
385.0172, 1188.535
385.4993, 1190.992
385.9814, 1189.299
386.4635, 1183.624
386.9456, 1177.290
387.4278, 1172.390
387.9099, 1168.795
388.3920, 1166.421
388.8741, 1165.854
389.3562, 1165.461
389.8383, 1163.597
390.3205, 1160.684
390.8026, 1157.983
391.2847, 1155.449
391.7668, 1153.830
392.2489, 1154.224
392.7310, 1157.272
393.2132, 1159.525
393.6953, 1158.668
394.1774, 1156.263
394.6595, 1154.183
395.1416, 1152.617
395.6237, 1151.865
396.1059, 1152.299
396.5880, 1153.854
397.0701, 1155.471
397.5522, 1157.495
398.0343, 1159.138
398.5164, 1159.912
398.9986, 1158.296
399.4807, 1157.757
399.9628, 1158.733
400.4449, 1160.829
400.9270, 1163.204
401.4091, 1166.254
401.8913, 1169.049
402.3734, 1171.342
402.8555, 1173.148
403.3376, 1174.232
403.8197, 1174.027
404.3018, 1173.747
404.7840, 1174.955
405.2661, 1178.325
405.7482, 1180.665
406.2303, 1180.749
406.7124, 1179.462
407.1945, 1180.970
407.6767, 1185.746
408.1588, 1190.901
408.6409, 1194.580
409.1230, 1196.819
409.6051, 1198.362
410.0872, 1198.979
410.5694, 1199.762
411.0515, 1202.604
411.5336, 1207.246
412.0157, 1212.011
412.4978, 1215.850
412.9799, 1219.428
413.4621, 1224.532
413.9442, 1231.173
414.4263, 1237.332
414.9084, 1240.380
415.3905, 1242.135
415.8727, 1245.732
416.3548, 1252.775
416.8369, 1260.619
417.3190, 1266.830
417.8011, 1272.022
418.2832, 1277.953
418.7654, 1286.339
419.2475, 1295.105
419.7296, 1302.598
420.2117, 1308.508
420.6938, 1314.383
421.1759, 1320.300
421.6581, 1326.668
422.1402, 1334.002
422.6223, 1343.615
423.1044, 1352.862
423.5865, 1360.502
424.0686, 1366.809
424.5508, 1374.303
425.0329, 1384.245
425.5150, 1394.538
425.9971, 1404.194
426.4792, 1412.523
426.9613, 1421.646
427.4435, 1431.809
427.9256, 1442.597
428.4077, 1453.310
428.8898, 1464.027
429.3719, 1474.835
429.8540, 1485.921
430.3362, 1497.202
430.8183, 1508.158
431.3004, 1518.605
431.7825, 1529.078
432.2646, 1539.995
432.7467, 1551.307
433.2289, 1562.979
433.7110, 1574.845
434.1931, 1586.935
434.6752, 1599.564
435.1573, 1612.620
435.6394, 1624.945
436.1216, 1635.449
436.6036, 1644.913
437.0858, 1654.968
437.5679, 1665.700
438.0500, 1676.407
438.5321, 1687.670
439.0142, 1698.275
439.4963, 1705.977
439.9785, 1708.866
440.4606, 1710.427
440.9427, 1713.941
441.4248, 1718.522
441.9069, 1721.457
442.3890, 1722.071
442.8712, 1720.196
443.3533, 1715.271
443.8354, 1706.764
444.3175, 1697.679
444.7996, 1689.273
445.2817, 1680.764
445.7639, 1671.257
446.2460, 1659.958
446.7281, 1648.264
447.2102, 1636.832
447.6923, 1625.388
448.1744, 1612.491
448.6566, 1596.442
449.1387, 1580.612
449.6208, 1566.807
450.1029, 1556.294
450.5850, 1543.470
451.0671, 1527.402
451.5493, 1510.148
452.0314, 1494.801
452.5135, 1481.979
452.9956, 1468.931
453.4777, 1454.777
453.9598, 1440.031
454.4420, 1426.563
454.9241, 1414.547
455.4062, 1403.296
455.8883, 1392.354
456.3704, 1381.828
456.8525, 1372.571
457.3347, 1365.079
457.8168, 1357.984
458.2989, 1349.507
458.7810, 1340.090
459.2631, 1331.314
459.7452, 1324.285
460.2274, 1317.863
460.7095, 1310.640
461.1916, 1302.694
461.6737, 1295.390
462.1558, 1290.034
462.6379, 1285.346
463.1201, 1280.024
463.6022, 1273.240
464.0843, 1267.014
464.5664, 1262.856
465.0485, 1259.625
465.5306, 1255.504
466.0128, 1249.030
466.4949, 1242.629
466.9770, 1236.912
467.4591, 1231.912
467.9412, 1227.670
468.4233, 1225.053
468.9055, 1222.399
469.3876, 1218.709
469.8697, 1213.599
470.3518, 1208.242
470.8339, 1202.113
471.3160, 1196.136
471.7982, 1192.264
472.2803, 1191.055
472.7624, 1189.747
473.2445, 1187.484
473.7266, 1184.356
474.2087, 1180.761
474.6909, 1176.630
475.1730, 1172.617
475.6551, 1169.684
476.1372, 1167.449
476.6193, 1164.273
477.1014, 1159.805
477.5836, 1154.731
478.0657, 1149.054
478.5478, 1143.330
479.0299, 1139.252
479.5120, 1140.305
479.9941, 1141.512
480.4763, 1137.594
480.9584, 1128.930
481.4405, 1119.901
481.9226, 1112.672
482.4047, 1106.228
482.8868, 1099.669
483.3690, 1092.517
483.8511, 1086.040
484.3332, 1081.015
484.8153, 1076.838
485.2974, 1072.415
485.7795, 1067.702
486.2617, 1062.665
486.7438, 1056.672
487.2259, 1049.764
487.7080, 1045.286
488.1901, 1044.850
488.6722, 1044.703
489.1544, 1042.343
489.6365, 1036.948
490.1186, 1032.630
490.6007, 1029.589
491.0828, 1027.546
491.5649, 1026.313
492.0471, 1025.949
492.5292, 1025.190
493.0113, 1023.367
493.4934, 1020.992
493.9755, 1019.397
494.4576, 1018.570
494.9398, 1018.146
495.4219, 1017.564
495.9040, 1017.268
496.3861, 1018.389
496.8682, 1021.329
497.3503, 1024.177
497.8325, 1025.013
498.3146, 1024.807
498.7967, 1025.080
499.2788, 1026.911
499.7609, 1028.930
500.2430, 1030.420
500.7252, 1031.520
501.2073, 1032.851
501.6894, 1035.096
502.1715, 1037.224
502.6536, 1038.676
503.1357, 1039.017
503.6179, 1039.812
504.1000, 1041.371
504.5821, 1043.219
505.0642, 1044.908
505.5463, 1046.450
506.0284, 1047.750
506.5106, 1048.705
506.9927, 1049.403
507.4748, 1050.177
507.9569, 1051.043
508.4390, 1051.828
508.9211, 1052.760
509.4033, 1053.673
509.8854, 1053.002
510.3675, 1050.612
510.8496, 1047.730
511.3317, 1045.391
511.8138, 1043.509
512.2960, 1042.091
512.7781, 1041.597
513.2602, 1040.532
513.7423, 1036.870
514.2244, 1031.386
514.7065, 1025.962
515.1887, 1021.605
515.6708, 1017.522
516.1529, 1013.407
516.6350, 1009.211
517.1171, 1004.583
517.5992, 998.6092
518.0814, 992.7416
518.5635, 988.0374
519.0456, 986.0533
519.5277, 982.8411
520.0098, 977.4589
520.4919, 971.1094
520.9741, 965.6226
521.4562, 961.6697
521.9383, 957.2787
522.4204, 951.6752
522.9025, 945.2054
523.3846, 940.2307
523.8668, 937.0291
524.3489, 934.2460
524.8310, 931.1061
525.3131, 927.6188
525.7952, 923.9367
526.2773, 919.9846
526.7595, 916.1876
527.2416, 913.6232
527.7237, 911.6599
528.2058, 908.5173
528.6879, 903.1443
529.1700, 897.2213
529.6522, 892.0109
530.1343, 887.5861
530.6164, 883.9772
531.0985, 882.1868
531.5806, 880.5052
532.0627, 877.8666
532.5449, 874.1647
533.0270, 870.2971
533.5091, 866.3929
533.9912, 862.5019
534.4733, 858.7184
534.9554, 855.3824
535.4376, 851.5947
535.9197, 847.5894
536.4018, 843.0258
536.8839, 837.1620
537.3660, 829.0779
537.8481, 822.0656
538.3303, 817.2672
538.8124, 814.2082
539.2945, 810.2179
539.7766, 805.2196
540.2587, 799.9572
540.7408, 795.0208
541.2230, 790.2346
541.7051, 785.0147
542.1872, 779.2756
542.6693, 773.5577
543.1514, 768.5709
543.6335, 763.9388
544.1157, 758.7895
544.5978, 752.5629
545.0799, 746.1866
545.5620, 739.9705
546.0441, 734.1340
546.5262, 729.2180
547.0084, 726.6946
547.4905, 723.9961
547.9726, 719.5496
548.4547, 713.0873
548.9368, 707.8100
549.4189, 705.0121
549.9011, 702.6229
550.3832, 699.4450
550.8653, 695.0115
551.3474, 690.8771
551.8295, 687.2823
552.3116, 683.7705
552.7938, 679.5123
553.2759, 674.3776
553.7580, 669.8066
554.2401, 666.4290
554.7222, 663.6495
555.2043, 659.7677
555.6865, 654.9272
556.1686, 650.3114
556.6507, 646.7623
557.1328, 643.8806
557.6149, 641.1346
558.0970, 638.5039
558.5792, 635.6884
559.0613, 632.2941
559.5434, 628.7377
560.0255, 625.4320
560.5076, 622.5252
560.9897, 619.8654
561.4719, 617.9669
561.9540, 616.1674
562.4361, 613.3982
562.9182, 607.7134
563.4003, 603.0770
563.8824, 600.4069
564.3646, 599.4664
564.8467, 598.5643
565.3288, 597.9368
565.8109, 596.8242
566.2930, 594.6559
566.7751, 591.3890
567.2573, 588.2539
567.7394, 585.1771
568.2215, 582.4261
568.7036, 580.2455
569.1857, 578.6039
569.6678, 577.4153
570.1500, 576.8806
570.6321, 576.2909
571.1142, 574.9322
571.5963, 572.9099
572.0784, 570.4670
572.5605, 567.0679
573.0427, 563.8352
573.5248, 561.5704
574.0069, 560.1619
574.4890, 558.6273
574.9711, 556.4274
575.4532, 554.2665
575.9354, 552.6135
576.4175, 551.7814
576.8996, 550.3969
577.3817, 547.9823
577.8638, 545.5003
578.3459, 543.8808
578.8281, 543.4312
579.3102, 542.5789
579.7923, 540.9269
580.2744, 539.1230
580.7565, 538.6246
581.2386, 539.3514
581.7208, 539.9728
582.2029, 540.1136
582.6850, 539.7391
583.1671, 538.6984
583.6492, 537.0468
584.1313, 535.1183
584.6134, 532.9611
585.0955, 530.7103
585.5776, 528.1849
586.0598, 525.2468
586.5419, 523.4188
587.0240, 524.8058
587.5061, 526.7259
587.9882, 526.9298
588.4703, 523.0486
588.9525, 520.2609
589.4346, 519.2130
589.9167, 519.1716
590.3988, 519.0674
590.8809, 519.0949
591.3630, 518.4666
591.8452, 516.6837
592.3273, 514.2042
592.8094, 512.9021
593.2915, 512.8324
593.7736, 512.9866
594.2557, 513.0572
594.7379, 512.8812
595.2200, 511.7686
595.7021, 509.7223
596.1842, 507.8085
596.6663, 507.3672
597.1484, 507.3488
597.6306, 506.2790
598.1127, 503.4025
598.5948, 500.9471
599.0769, 500.1323
599.5590, 500.2835
600.0411, 500.5519
600.5233, 501.6847
601.0054, 501.8291
601.4875, 500.1665
601.9696, 497.3284
602.4517, 495.1906
602.9338, 493.9101
603.4160, 492.9756
603.8981, 492.3551
604.3802, 491.9738
604.8623, 490.9525
605.3444, 489.1835
605.8265, 487.5523
606.3087, 486.9013
606.7908, 486.9039
607.2729, 486.6800
607.7550, 486.1504
608.2371, 485.3625
608.7192, 484.1217
609.2014, 482.7199
609.6835, 481.5053
610.1656, 480.4435
610.6477, 479.8583
611.1298, 480.4838
611.6119, 481.5806
612.0941, 481.8361
612.5762, 479.9435
613.0583, 478.3796
613.5404, 478.0094
614.0225, 478.4830
614.5046, 477.6440
614.9868, 474.7063
615.4689, 472.2745
615.9510, 471.8845
616.4331, 473.3924
616.9152, 473.6030
617.3973, 472.4164
617.8795, 470.8281
618.3616, 469.6306
618.8437, 468.7343
619.3258, 467.9169
619.8079, 467.1183
620.2900, 466.5316
620.7722, 466.6469
621.2543, 466.9828
621.7364, 466.8511
622.2185, 465.5685
622.7006, 464.3745
623.1827, 463.6967
623.6649, 463.3962
624.1470, 463.1381
624.6291, 463.1132
625.1112, 462.8244
625.5933, 462.0068
626.0754, 460.7743
626.5576, 460.0096
627.0397, 459.7492
627.5218, 459.8182
628.0039, 460.5083
628.4860, 461.6288
628.9681, 461.2416
629.4503, 459.2395
629.9324, 457.1175
630.4145, 456.3549
630.8966, 456.3311
631.3787, 455.9858
631.8608, 455.1241
632.3430, 454.0109
632.8251, 452.2785
633.3072, 450.6091
633.7893, 449.8142
634.2714, 451.1400
634.7535, 452.1752
635.2357, 452.3420
635.7178, 451.8991
636.1999, 451.4308
636.6820, 450.9454
637.1641, 450.3829
637.6462, 449.5652
638.1284, 448.6503
638.6105, 448.6912
639.0926, 449.7850
639.5747, 450.8608
640.0568, 451.4346
640.5389, 451.4887
641.0211, 450.6703
641.5032, 449.0064
641.9853, 447.5836
642.4674, 447.6281
642.9495, 448.2002
643.4316, 448.2105
643.9138, 447.3370
644.3959, 446.5041
644.8780, 446.0222
645.3601, 445.8307
645.8422, 445.8810
646.3243, 446.3800
646.8065, 446.8698
647.2886, 447.5031
647.7707, 448.0352
648.2528, 448.0054
648.7349, 447.3242
649.2170, 446.3864
649.6992, 445.0783
650.1813, 443.7428
650.6634, 443.4154
651.1455, 444.0059
651.6276, 444.5828
652.1097, 444.7197
652.5919, 444.5079
653.0740, 443.8994
653.5561, 442.9648
654.0382, 442.2173
654.5203, 441.8994
655.0024, 441.9023
655.4846, 442.2886
655.9667, 443.2213
656.4488, 443.7230
656.9309, 443.6723
657.4130, 443.1254
657.8951, 441.9042
658.3773, 439.3453
658.8594, 438.2039
659.3415, 438.9227
659.8236, 440.4273
660.3057, 441.4409
660.7878, 441.9658
661.2700, 442.0684
661.7521, 441.6734
662.2342, 441.0683
662.7163, 440.4716
663.1984, 439.9638
663.6805, 439.7324
664.1627, 440.2794
664.6448, 440.7528
665.1269, 440.5254
665.6090, 439.7793
666.0911, 439.2201
666.5732, 439.0099
667.0554, 439.0247
667.5375, 439.1924
668.0196, 439.5165
668.5017, 440.2651
668.9838, 441.7767
669.4659, 442.9168
669.9481, 442.7805
670.4302, 441.4618
670.9123, 440.6613
671.3944, 440.4266
671.8765, 440.2941
672.3586, 439.5809
672.8408, 438.7396
673.3229, 438.6756
673.8050, 439.6885
674.2871, 440.7476
674.7692, 441.3874
675.2513, 441.6104
675.7335, 441.4024
676.2156, 439.8415
676.6977, 439.0640
677.1798, 440.0814
677.6619, 441.7505
678.1440, 442.2984
678.6262, 441.2740
679.1083, 440.3456
679.5904, 439.8875
680.0725, 439.6826
680.5546, 438.8736
681.0367, 437.5224
681.5189, 437.0001
682.0010, 438.5265
682.4831, 440.8511
682.9652, 442.2137
683.4473, 442.6870
683.9294, 442.7586
684.4116, 442.1442
684.8937, 441.6485
685.3758, 441.9709
685.8579, 443.1927
686.3400, 443.9759
686.8221, 443.6427
687.3043, 443.2074
687.7864, 443.1256
688.2685, 443.4481
688.7506, 443.9697
689.2327, 444.8847
689.7148, 445.5040
690.1970, 444.8237
690.6791, 443.1240
691.1612, 442.3011
691.6433, 442.6598
692.1254, 443.4278
692.6075, 444.1895
693.0897, 444.7461
693.5718, 444.6978
694.0539, 443.4055
694.5360, 442.4920
695.0181, 443.0682
695.5002, 444.3735
695.9824, 445.2228
696.4645, 444.9844
696.9466, 444.9361
697.4287, 445.3214
697.9108, 445.9446
698.3929, 446.3353
698.8751, 446.4902
699.3572, 446.4219
699.8393, 445.9851
700.3214, 445.4481
700.8035, 445.5287
701.2856, 446.1430
701.7678, 446.8107
702.2499, 447.6469
702.7320, 448.1226
703.2141, 447.2633
703.6962, 445.3170
704.1783, 444.2377
704.6605, 445.8864
705.1426, 447.5878
705.6247, 447.8026
706.1068, 446.2832
706.5889, 445.4207
707.0710, 445.3239
707.5532, 445.7019
708.0353, 446.6742
708.5174, 448.2424
708.9995, 448.6050
709.4816, 447.5827
709.9637, 446.4352
710.4459, 446.4789
710.9280, 447.2407
711.4101, 447.8966
711.8922, 448.3459
712.3743, 448.5698
712.8564, 448.3895
713.3386, 448.0665
713.8207, 447.8734
714.3028, 447.9663
714.7849, 448.0416
715.2670, 447.8210
715.7491, 447.7215
716.2313, 448.3949
716.7134, 450.0831
717.1955, 451.4700
717.6776, 452.3228
718.1597, 452.7848
718.6418, 453.0105
719.1240, 453.0490
719.6061, 453.1815
720.0882, 453.6359
720.5703, 454.0635
721.0524, 454.0074
721.5345, 453.6441
722.0167, 453.3991
722.4988, 453.3756
722.9809, 453.5705
723.4630, 454.0421
723.9451, 454.7623
724.4272, 455.6237
724.9094, 456.9256
725.3915, 457.7760
725.8736, 457.6489
726.3557, 456.8085
726.8378, 456.7534
727.3199, 457.4953
727.8021, 458.3836
728.2842, 458.7153
728.7663, 459.0526
729.2484, 460.6523
729.7305, 463.3785
730.2126, 465.6542
730.6948, 466.1241
731.1769, 466.1722
731.6590, 466.8250
732.1411, 468.3652
732.6232, 469.1440
733.1053, 468.1439
733.5875, 467.4043
734.0696, 468.3297
734.5517, 471.2333
735.0338, 473.4352
735.5159, 474.9295
735.9980, 475.8583
736.4802, 475.8351
736.9623, 475.4009
737.4444, 476.2387
737.9265, 478.7166
738.4086, 481.2319
738.8907, 482.1688
739.3729, 482.6889
739.8550, 484.1292
740.3371, 487.6010
740.8192, 490.3268
741.3013, 491.3167
741.7834, 491.6294
742.2656, 492.1373
742.7477, 492.7046
743.2298, 493.9269
743.7119, 495.8879
744.1940, 498.4201
744.6761, 501.4626
745.1583, 504.9192
745.6404, 508.3735
746.1225, 511.9821
746.6046, 514.9186
747.0867, 515.5327
747.5688, 515.0843
748.0510, 515.7088
748.5331, 519.1699
749.0152, 522.6183
749.4973, 525.1999
749.9794, 527.2950
750.4615, 529.5742
750.9437, 531.8630
751.4258, 534.8234
751.9079, 538.9727
752.3900, 543.5335
752.8721, 546.3259
753.3542, 547.5248
753.8364, 549.2359
754.3185, 552.4901
754.8006, 556.5246
755.2827, 560.5394
755.7648, 564.5839
756.2469, 568.6968
756.7291, 573.1267
757.2112, 577.3786
757.6933, 581.1509
758.1754, 584.5243
758.6575, 588.1816
759.1396, 592.1680
759.6218, 596.2687
760.1039, 600.3923
760.5860, 604.5698
761.0681, 609.2415
761.5502, 614.3973
762.0323, 620.1212
762.5145, 627.1114
762.9966, 634.4086
763.4787, 640.6021
763.9608, 645.8497
764.4429, 651.2200
764.9250, 657.3620
765.4072, 663.6413
765.8893, 669.5300
766.3714, 675.0446
766.8535, 681.4742
767.3356, 689.3748
767.8177, 697.2120
768.2999, 704.0393
768.7820, 709.9757
769.2641, 716.1625
769.7462, 722.5536
770.2283, 729.7112
770.7104, 738.4783
771.1926, 748.0446
771.6747, 757.7255
772.1568, 767.3359
772.6389, 775.7682
773.1210, 780.6852
773.6031, 785.6740
774.0853, 793.4259
774.5674, 804.8495
775.0495, 814.2354
775.5316, 820.6810
776.0137, 826.7170
776.4958, 833.9688
776.9780, 842.4047
777.4601, 851.2799
777.9422, 860.6532
778.4243, 870.0321
778.9064, 879.5048
779.3885, 888.5977
779.8707, 896.5430
780.3528, 903.1468
780.8349, 910.1063
781.3170, 918.4338
781.7991, 927.1271
782.2812, 935.4632
782.7633, 943.3541
783.2454, 951.1632
783.7275, 958.6866
784.2097, 966.2067
784.6918, 973.7720
785.1739, 981.3862
785.6560, 989.9869
786.1381, 999.7691
786.6202, 1009.337
787.1024, 1016.852
787.5845, 1023.721
788.0666, 1031.553
788.5487, 1040.767
789.0308, 1050.528
789.5129, 1060.531
789.9951, 1071.115
790.4772, 1082.576
790.9593, 1095.773
791.4414, 1107.520
791.9235, 1117.613
792.4056, 1127.078
792.8878, 1136.490
793.3699, 1146.104
793.8520, 1158.001
794.3341, 1172.802
794.8162, 1187.207
795.2983, 1198.147
795.7805, 1207.569
796.2626, 1217.728
796.7447, 1228.952
797.2268, 1241.021
797.7089, 1255.293
798.1910, 1269.581
798.6732, 1282.022
799.1553, 1292.327
799.6374, 1302.515
800.1195, 1312.550
800.6016, 1322.734
801.0837, 1333.851
801.5659, 1345.465
802.0480, 1356.536
802.5301, 1366.886
803.0122, 1376.120
803.4943, 1382.953
803.9764, 1389.135
804.4586, 1396.425
804.9407, 1405.404
805.4228, 1414.822
805.9049, 1424.703
806.3870, 1434.749
806.8691, 1444.655
807.3513, 1454.155
807.8334, 1465.688
808.3155, 1479.604
808.7976, 1494.328
809.2797, 1507.729
809.7618, 1520.911
810.2440, 1535.308
810.7261, 1550.914
811.2082, 1569.893
811.6903, 1595.036
812.1724, 1623.214
812.6545, 1651.374
813.1367, 1678.498
813.6188, 1708.178
814.1009, 1740.850
814.5830, 1774.863
815.0651, 1808.586
815.5472, 1842.122
816.0294, 1876.620
816.5115, 1911.763
816.9936, 1949.294
817.4757, 1992.049
817.9578, 2036.997
818.4399, 2080.179
818.9221, 2120.207
819.4042, 2160.795
819.8863, 2203.702
820.3684, 2247.195
820.8505, 2290.747
821.3326, 2335.181
821.8148, 2377.079
822.2969, 2416.365
822.7790, 2452.931
823.2611, 2486.214
823.7432, 2516.274
824.2253, 2543.781
824.7075, 2568.640
825.1896, 2587.593
825.6717, 2596.684
826.1538, 2599.876
826.6359, 2601.058
827.1180, 2601.700
827.6002, 2593.994
828.0823, 2576.446
828.5644, 2552.127
829.0465, 2522.604
829.5286, 2488.325
830.0107, 2448.177
830.4929, 2402.333
830.9750, 2353.231
831.4571, 2303.358
831.9392, 2251.726
832.4213, 2196.716
832.9034, 2139.047
833.3856, 2081.265
833.8677, 2023.280
834.3498, 1967.602
834.8319, 1915.504
835.3140, 1867.132
835.7961, 1820.100
836.2783, 1774.485
836.7604, 1729.914
837.2425, 1685.631
837.7246, 1642.199
838.2067, 1601.740
838.6888, 1563.989
839.1710, 1529.826
839.6531, 1500.891
840.1352, 1474.691
840.6173, 1449.608
841.0994, 1425.508
841.5815, 1403.372
842.0637, 1383.930
842.5458, 1365.459
843.0279, 1347.229
843.5100, 1329.490
843.9921, 1313.378
844.4742, 1298.975
844.9564, 1287.580
845.4385, 1281.623
845.9206, 1277.879
846.4027, 1270.729
846.8848, 1261.457
847.3669, 1254.402
847.8491, 1252.955
848.3312, 1252.652
848.8133, 1251.553
849.2954, 1250.180
849.7775, 1250.232
850.2596, 1251.668
850.7418, 1254.620
851.2239, 1259.062
851.7060, 1265.103
852.1881, 1274.017
852.6702, 1284.948
853.1523, 1294.175
853.6345, 1298.713
854.1166, 1302.927
854.5987, 1309.754
855.0808, 1318.301
855.5629, 1327.072
856.0450, 1336.890
856.5272, 1345.084
857.0093, 1350.831
857.4914, 1355.312
857.9735, 1360.450
858.4556, 1366.197
858.9377, 1372.225
859.4199, 1378.706
859.9020, 1384.410
860.3841, 1387.392
860.8662, 1388.895
861.3483, 1390.806
861.8304, 1393.998
862.3126, 1396.958
862.7947, 1399.560
863.2768, 1401.571
863.7589, 1402.475
864.2410, 1401.855
864.7231, 1402.159
865.2053, 1403.459
865.6874, 1405.841
866.1695, 1409.881
866.6516, 1414.947
867.1337, 1419.749
867.6158, 1423.999
868.0980, 1428.618
868.5801, 1433.866
869.0622, 1439.899
869.5443, 1446.887
870.0264, 1454.914
870.5085, 1463.733
870.9907, 1473.161
871.4728, 1483.687
871.9549, 1495.888
872.4370, 1509.436
872.9191, 1522.789
873.4012, 1536.076
873.8834, 1549.970
874.3655, 1564.549
874.8476, 1580.254
875.3297, 1598.303
875.8118, 1618.559
876.2939, 1637.152
876.7761, 1652.912
877.2582, 1668.294
877.7403, 1684.627
878.2224, 1701.294
878.7045, 1715.156
879.1866, 1726.278
879.6688, 1734.720
880.1509, 1740.840
880.6330, 1744.032
881.1151, 1744.152
881.5972, 1740.864
882.0793, 1733.273
882.5615, 1718.441
883.0436, 1702.485
883.5257, 1687.575
884.0078, 1671.989
884.4899, 1650.994
884.9720, 1624.270
885.4542, 1598.407
885.9363, 1574.962
886.4184, 1553.159
886.9005, 1531.749
887.3826, 1511.175
887.8647, 1492.425
888.3469, 1476.456
888.8290, 1461.133
889.3111, 1445.569
889.7932, 1430.708
890.2753, 1417.211
890.7574, 1404.798
891.2396, 1395.156
891.7217, 1388.701
892.2038, 1383.370
892.6859, 1376.647
893.1680, 1369.469
893.6501, 1363.985
894.1323, 1360.601
894.6144, 1356.982
895.0965, 1351.908
895.5786, 1346.170
896.0607, 1340.345
896.5428, 1334.564
897.0250, 1327.923
897.5071, 1320.549
897.9892, 1311.994
898.4713, 1301.747
898.9534, 1290.121
899.4355, 1277.553
899.9177, 1264.179
900.3998, 1250.053
900.8819, 1236.197
901.3640, 1221.012
901.8461, 1203.414
902.3282, 1183.664
902.8104, 1163.324
903.2925, 1142.344
903.7746, 1121.335
904.2567, 1100.666
904.7388, 1080.119
905.2209, 1059.011
905.7031, 1037.540
906.1852, 1016.538
906.6673, 995.9061
907.1494, 976.1236
907.6315, 957.9247
908.1136, 940.6264
908.5958, 923.0997
909.0779, 904.1097
909.5600, 887.0309
910.0421, 872.4814
910.5242, 859.2468
911.0063, 845.5584
911.4885, 831.6902
911.9706, 818.8002
912.4527, 807.2134
912.9348, 796.1075
913.4169, 784.5153
913.8990, 773.3411
914.3812, 763.4841
914.8633, 755.3190
915.3454, 747.4006
915.8275, 739.5647
916.3096, 732.0886
916.7917, 724.9990
917.2739, 718.3196
917.7560, 712.6507
918.2381, 707.8620
918.7202, 702.4481
919.2023, 693.7984
919.6844, 685.5134
920.1666, 681.1426
920.6487, 679.8927
921.1308, 677.1570
921.6129, 671.3277
922.0950, 665.5905
922.5771, 660.6194
923.0593, 656.3178
923.5414, 652.5008
924.0235, 649.2060
924.5056, 646.4865
924.9877, 644.6744
925.4698, 642.8870
925.9520, 640.3027
926.4341, 637.2893
926.9162, 634.3816
927.3983, 631.8105
927.8804, 629.1712
928.3625, 626.4125
928.8447, 623.6913
929.3268, 621.0534
929.8089, 618.5668
930.2910, 616.7869
930.7731, 615.7794
931.2552, 614.7239
931.7374, 612.5469
932.2195, 610.2819
932.7016, 609.0648
933.1837, 609.1448
933.6658, 608.2073
934.1479, 605.6635
934.6301, 602.8219
935.1122, 600.0452
935.5943, 597.4631
936.0764, 595.9039
936.5585, 595.2052
937.0406, 594.2404
937.5228, 592.4436
938.0049, 590.1049
938.4870, 587.0354
938.9691, 583.6220
939.4512, 580.8255
939.9333, 579.2339
940.4155, 577.4142
940.8976, 575.2994
941.3797, 572.7355
941.8618, 569.3389
942.3439, 565.2443
942.8260, 561.1237
943.3082, 556.9352
943.7903, 553.2831
944.2724, 551.3569
944.7545, 549.7199
945.2366, 546.9547
945.7188, 542.4775
946.2009, 538.1063
946.6830, 533.5133
947.1651, 529.6981
947.6472, 527.9620
948.1293, 527.5919
948.6115, 525.4843
949.0936, 521.7914
949.5757, 517.6258
950.0578, 513.0659
950.5399, 508.8774
951.0220, 505.9028
951.5042, 503.7783
951.9863, 500.7988
952.4684, 496.3970
952.9505, 492.6877
953.4326, 490.3691
953.9147, 488.5857
954.3969, 485.5921
954.8790, 481.8404
955.3611, 478.5655
955.8432, 476.2137
956.3253, 474.2041
956.8074, 472.4296
957.2896, 470.7368
957.7717, 469.0146
958.2538, 467.4331
958.7359, 465.0071
959.2180, 461.5407
959.7001, 458.0861
960.1823, 455.4638
960.6644, 453.4594
961.1465, 451.8185
961.6286, 450.4707
962.1107, 449.1700
962.5928, 448.1378
963.0750, 446.7663
963.5571, 444.7481
964.0392, 442.1860
964.5213, 439.3689
965.0034, 436.2711
965.4855, 433.2284
965.9677, 430.2122
966.4498, 427.5385
966.9319, 425.5987
967.4140, 424.3573
967.8961, 423.9120
968.3782, 425.4000
968.8604, 425.5400
969.3425, 422.6669
969.8246, 419.1987
970.3067, 417.1589
970.7888, 416.6197
971.2709, 415.5196
971.7531, 413.7579
972.2352, 412.1909
972.7173, 411.8037
973.1994, 411.7357
973.6815, 410.9636
974.1636, 409.5314
974.6458, 408.6337
975.1279, 409.3024
975.6100, 409.2441
976.0921, 407.4415
976.5742, 404.7726
977.0563, 403.8503
977.5385, 404.4067
978.0206, 404.8702
978.5027, 404.7054
978.9848, 404.2750
979.4669, 403.8510
979.9490, 403.3348
980.4311, 402.5717
980.9132, 401.3032
981.3953, 400.3965
981.8774, 400.0134
982.3596, 399.5987
982.8417, 398.5024
983.3238, 396.9955
983.8059, 395.9389
984.2880, 395.3364
984.7701, 394.7721
985.2523, 393.9496
985.7344, 393.1552
986.2165, 392.7323
986.6986, 392.4923
987.1807, 391.4165
987.6628, 389.2379
988.1450, 387.9366
988.6271, 388.3758
989.1092, 389.4041
989.5913, 389.2512
990.0734, 388.4644
990.5555, 388.1103
991.0377, 388.9808
991.5198, 389.2759
992.0019, 388.2642
992.4840, 386.8254
992.9661, 385.3232
993.4482, 383.7166
993.9304, 383.7646
994.4125, 385.5334
994.8946, 387.1360
995.3767, 387.1571
995.8588, 386.4350
996.3409, 385.3594
996.8231, 384.1292
997.3052, 383.7167
997.7873, 384.8470
998.2694, 385.6621
998.7515, 385.5862
999.2336, 385.2007
999.7158, 385.9502
1000.198, 387.4465
1000.680, 388.2900
1001.162, 388.1365
1001.644, 387.1577
1002.126, 384.2744
1002.608, 381.4300
1003.091, 380.6402
1003.573, 382.3712
1004.055, 383.4488
1004.537, 383.8454
1005.019, 383.7708
1005.501, 383.2344
1005.983, 382.3962
1006.465, 381.2335
1006.948, 379.9560
1007.430, 379.2848
1007.912, 380.5001
1008.394, 381.1230
1008.876, 380.1680
1009.358, 378.5425
1009.840, 377.9137
1010.322, 378.2486
1010.804, 378.4927
1011.287, 378.5271
1011.769, 378.1027
1012.251, 376.0998
1012.733, 374.0761
1013.215, 373.9851
1013.697, 376.6056
1014.179, 377.4332
1014.661, 375.4619
1015.143, 373.6310
1015.626, 373.5571
1016.108, 374.5914
1016.590, 374.7490
1017.072, 374.2599
1017.554, 373.9817
1018.036, 374.8534
1018.518, 375.3951
1019.000, 374.8512
1019.483, 373.6681
1019.965, 372.3813
1020.447, 370.8961
1020.929, 369.8510
1021.411, 369.3202
1021.893, 368.9734
1022.375, 368.3236
1022.857, 367.7676
1023.339, 368.1281
1023.822, 369.3932
1024.304, 369.7773
1024.786, 367.7106
1025.268, 366.3878
1025.750, 367.2094
1026.232, 369.0518
1026.714, 368.3106
1027.196, 365.5802
1027.679, 364.0064
1028.161, 365.1230
1028.643, 366.4712
1029.125, 366.2749
1029.607, 365.5669
1030.089, 365.5402
1030.571, 366.5527
1031.053, 366.9455
1031.536, 366.6452
1032.018, 366.0569
1032.500, 365.1121
1032.982, 364.2607
1033.464, 364.6013
1033.946, 365.7960
1034.428, 366.4089
1034.910, 364.8393
1035.392, 364.0797
1035.875, 365.2337
1036.357, 367.0742
1036.839, 367.2655
1037.321, 366.0290
1037.803, 365.4100
1038.285, 365.8190
1038.767, 366.2740
1039.249, 366.2150
1039.731, 365.6943
1040.214, 364.3784
1040.696, 362.1844
1041.178, 361.5833
1041.660, 362.9872
1042.142, 364.4705
1042.624, 365.2378
1043.106, 365.5370
1043.588, 365.7558
1044.071, 365.8956
1044.553, 365.9735
1045.035, 366.3621
1045.517, 366.0931
1045.999, 364.4510
1046.481, 362.6757
1046.963, 362.0149
1047.445, 362.3908
1047.927, 362.5953
1048.410, 362.5944
1048.892, 362.6593
1049.374, 363.0523
1049.856, 363.5174
1050.338, 364.1994
1050.820, 364.8192
1051.302, 364.0833
1051.784, 361.1948
1052.266, 359.7975
1052.749, 360.8550
1053.231, 362.9936
1053.713, 365.0359
1054.195, 366.5665
1054.677, 366.6423
1055.159, 364.7257
1055.641, 363.5264
1056.123, 364.4882
1056.606, 365.5273
1057.088, 365.8086
1057.570, 365.3805
1058.052, 364.0433
1058.534, 362.0556
1059.016, 361.0921
1059.498, 362.5881
1059.980, 364.4678
1060.463, 365.8066
1060.945, 366.5650
1061.427, 366.5652
1061.909, 365.3027
1062.391, 365.3439
1062.873, 366.9368
1063.355, 368.8055
1063.837, 370.1457
1064.319, 370.9088
1064.802, 370.6656
1065.284, 369.6322
1065.766, 369.1079
1066.248, 369.5678
1066.730, 370.4883
1067.212, 372.0326
1067.694, 373.6832
1068.176, 374.3207
1068.658, 374.2188
1069.141, 374.3523
1069.623, 374.9164
1070.105, 375.6563
1070.587, 376.5576
1071.069, 377.4746
1071.551, 378.3301
1072.033, 379.1201
1072.515, 379.9359
1072.998, 380.7754
1073.480, 381.2879
1073.962, 381.0534
1074.444, 380.8020
1074.926, 381.4920
1075.408, 382.6324
1075.890, 383.4383
1076.372, 383.4175
1076.854, 383.8134
1077.337, 384.8389
1077.819, 385.7081
1078.301, 385.4886
1078.783, 384.7143
1079.265, 384.7432
1079.747, 385.4491
1080.229, 386.0136
1080.711, 386.1148
1081.193, 385.9791
1081.676, 385.8008
1082.158, 385.3418
1082.640, 383.7464
1083.122, 381.2530
1083.604, 380.6002
1084.086, 382.3315
1084.568, 383.7445
1085.050, 382.4246
1085.532, 380.3227
1086.015, 378.8820
1086.497, 378.0595
1086.979, 376.8228
1087.461, 375.0910
1087.943, 373.4785
1088.425, 372.0909
1088.907, 371.1420
1089.389, 371.5193
1089.872, 372.2711
1090.354, 371.9374
1090.836, 369.7018
1091.318, 367.7958
1091.800, 366.4313
1092.282, 365.1841
1092.764, 363.6040
1093.246, 362.0000
1093.729, 361.6898
1094.211, 362.2541
1094.693, 362.1718
1095.175, 359.9323
1095.657, 358.0329
1096.139, 357.2969
1096.621, 357.0806
1097.103, 356.7990
1097.585, 356.4473
1098.068, 355.8347
1098.550, 354.9643
1099.032, 354.2941
1099.514, 354.2807
1099.996, 354.4703
1100.478, 354.6758
1100.960, 354.8311
1101.442, 354.7210
1101.924, 354.2835
1102.407, 353.9002
1102.889, 353.5888
1103.371, 353.5585
1103.853, 354.3401
1104.335, 355.3571
1104.817, 356.1037
1105.299, 356.5503
1105.781, 355.8047
1106.264, 353.1458
1106.746, 350.9407
1107.228, 349.9172
1107.710, 350.0644
1108.192, 352.4563
1108.674, 355.8187
1109.156, 357.1222
1109.638, 354.3881
1110.120, 352.1774
1110.603, 351.6999
1111.085, 352.0120
1111.567, 352.8715
1112.049, 354.0956
1112.531, 354.2867
1113.013, 353.5687
1113.495, 352.7476
1113.977, 351.9757
1114.459, 351.5078
1114.942, 351.7067
1115.424, 352.1552
1115.906, 352.2669
1116.388, 351.9873
1116.870, 352.0143
1117.352, 352.3914
1117.834, 352.8969
1118.316, 353.5020
1118.799, 354.0373
1119.281, 354.4483
1119.763, 354.6647
1120.245, 354.4186
1120.727, 353.5406
1121.209, 352.8229
1121.691, 352.3921
1122.173, 352.1492
1122.656, 351.8654
1123.138, 351.7545
1123.620, 352.4150
1124.102, 353.9508
1124.584, 354.2768
1125.066, 352.4798
1125.548, 350.9487
1126.030, 350.3920
1126.512, 350.5759
1126.995, 351.4869
1127.477, 352.6996
1127.959, 353.1463
1128.441, 352.3867
1128.923, 351.5735
1129.405, 350.8234
1129.887, 350.4063
1130.369, 350.6502
1130.851, 351.3178
1131.334, 351.1169
1131.816, 350.2547
1132.298, 349.7438
1132.780, 350.4695
1133.262, 350.9048
1133.744, 349.6982
1134.226, 348.3453
1134.708, 348.4484
1135.191, 350.1563
1135.673, 350.6367
1136.155, 349.9194
1136.637, 348.9590
1137.119, 347.9952
1137.601, 347.3746
1138.083, 347.7831
1138.565, 348.5928
1139.047, 348.4650
1139.530, 347.1966
1140.012, 346.0085
1140.494, 344.9692
1140.976, 344.3023
1141.458, 344.6168
1141.940, 345.1046
1142.422, 344.7751
1142.904, 343.7932
1143.386, 343.3864
1143.869, 343.9234
1144.351, 344.0348
1144.833, 343.3833
1145.315, 342.5483
1145.797, 342.0626
1146.279, 341.9792
1146.761, 342.5696
1147.243, 343.8819
1147.726, 344.7440
1148.208, 344.9461
1148.690, 344.7872
1149.172, 344.2122
1149.654, 343.5494
1150.136, 343.5644
1150.618, 343.9333
1151.100, 343.9222
1151.583, 343.2148
1152.065, 342.8419
1152.547, 343.4323
1153.029, 343.8580
1153.511, 343.4526
1153.993, 342.5759
1154.475, 342.5309
1154.957, 343.0569
1155.439, 343.2527
1155.922, 342.5753
1156.404, 342.0059
1156.886, 342.0479
1157.368, 342.1955
1157.850, 342.1268
1158.332, 341.8682
1158.814, 341.7418
1159.296, 341.6891
1159.778, 341.3224
1160.261, 339.9279
1160.743, 338.7586
1161.225, 338.3573
1161.707, 338.5500
1162.189, 339.3798
1162.671, 340.8722
1163.153, 341.6566
1163.635, 341.7028
1164.118, 341.3008
1164.600, 340.1500
1165.082, 339.1271
1165.564, 338.9213
1166.046, 339.1973
1166.528, 339.4096
1167.010, 339.6124
1167.492, 339.0493
1167.974, 337.5913
1168.457, 336.3410
1168.939, 336.2127
1169.421, 336.6490
1169.903, 337.5960
1170.385, 338.7425
1170.867, 338.8775
1171.349, 337.7931
1171.831, 336.8724
1172.313, 336.3137
1172.796, 336.1992
1173.278, 337.4616
1173.760, 338.6021
1174.242, 337.7399
1174.724, 334.8818
1175.206, 333.1675
1175.688, 332.7921
1176.170, 333.0221
1176.653, 333.7830
1177.135, 334.7390
1177.617, 335.7031
1178.099, 336.4707
1178.581, 336.6469
1179.063, 336.0887
1179.545, 335.9821
1180.027, 336.5032
1180.510, 336.9441
1180.992, 337.0471
1181.474, 336.9229
1181.956, 336.5243
1182.438, 336.0946
1182.920, 336.0554
1183.402, 336.6215
1183.884, 337.0712
1184.366, 337.4066
1184.849, 337.5454
1185.331, 337.4560
1185.813, 337.1429
1186.295, 336.1658
1186.777, 335.0956
1187.259, 335.1206
1187.741, 337.5392
1188.223, 338.6945
1188.705, 338.0634
1189.188, 337.0211
1189.670, 336.4115
1190.152, 336.0265
1190.634, 335.0979
1191.116, 334.0460
1191.598, 333.8891
1192.080, 336.0725
1192.562, 337.3889
1193.045, 337.4503
1193.527, 337.1061
1194.009, 336.8428
1194.491, 336.7616
1194.973, 337.4118
1195.455, 338.4898
1195.937, 338.9788
1196.419, 337.4883
1196.901, 337.0328
1197.384, 338.4920
1197.866, 339.9552
1198.348, 339.0776
1198.830, 336.9688
1199.312, 336.5139
1199.794, 337.4820
1200.276, 338.1746
1200.758, 337.7510
1201.240, 337.2085
1201.723, 336.5717
1202.205, 336.1171
1202.687, 336.3006
1203.169, 336.8986
1203.651, 337.4078
1204.133, 337.7929
1204.615, 338.0955
1205.097, 338.2829
1205.580, 338.4367
1206.062, 338.5086
1206.544, 338.6575
1207.026, 339.4648
1207.508, 340.4454
1207.990, 340.0481
1208.472, 338.2137
1208.954, 336.9961
1209.437, 337.6798
1209.919, 338.4009
1210.401, 338.8128
1210.883, 338.9496
1211.365, 338.6200
1211.847, 338.1280
1212.329, 338.3630
1212.811, 339.4714
1213.293, 340.1562
1213.776, 339.7367
1214.258, 339.1196
1214.740, 338.3929
1215.222, 337.7978
1215.704, 337.7885
1216.186, 338.2730
1216.668, 339.2726
1217.150, 340.8994
1217.632, 341.6786
1218.115, 340.5961
1218.597, 339.5074
1219.079, 338.9592
1219.561, 338.8156
1220.043, 338.7449
1220.525, 338.8629
1221.007, 339.6236
1221.489, 341.3531
1221.972, 342.2036
1222.454, 341.3655
1222.936, 340.3439
1223.418, 339.5589
1223.900, 339.1117
1224.382, 339.5040
1224.864, 340.3226
1225.346, 340.6429
1225.828, 340.0814
1226.311, 339.7695
1226.793, 339.9698
1227.275, 340.2324
1227.757, 340.3799
1228.239, 340.4382
1228.721, 340.3946
1229.203, 340.3199
1229.685, 340.3877
1230.167, 340.7522
1230.650, 340.8836
1231.132, 340.7205
1231.614, 340.3695
1232.096, 339.6738
1232.578, 339.0584
1233.060, 339.6074
1233.542, 340.7832
1234.024, 341.5533
1234.507, 341.5167
1234.989, 341.4243
1235.471, 341.2701
1235.953, 341.1841
1236.435, 341.3283
1236.917, 341.4910
1237.399, 341.2179
1237.881, 340.7340
1238.364, 340.4646
1238.846, 340.6560
1239.328, 340.6565
1239.810, 340.4102
1240.292, 340.2014
1240.774, 340.0233
1241.256, 340.1677
1241.738, 341.5693
1242.220, 343.4085
1242.703, 344.1456
1243.185, 343.0912
1243.667, 342.3004
1244.149, 341.7552
1244.631, 341.5980
1245.113, 342.3867
1245.595, 343.1623
1246.077, 342.4784
1246.559, 341.1564
1247.042, 340.7187
1247.524, 341.6088
1248.006, 341.9266
1248.488, 341.6259
1248.970, 341.3472
1249.452, 341.8073
1249.934, 342.1942
1250.416, 341.6860
1250.899, 340.7005
1251.381, 339.7770
1251.863, 338.7612
1252.345, 339.2280
1252.827, 341.1871
1253.309, 342.7365
1253.791, 342.1234
1254.273, 341.1876
1254.755, 341.0576
1255.238, 341.4234
1255.720, 341.8423
1256.202, 342.3121
1256.684, 342.6676
1257.166, 342.9132
1257.648, 343.2808
1258.130, 344.5541
1258.612, 345.2415
1259.094, 343.8605
1259.577, 341.9969
1260.059, 341.2545
1260.541, 341.5840
1261.023, 342.5653
1261.505, 344.0625
1261.987, 345.1303
1262.469, 345.1295
1262.951, 344.7325
1263.434, 343.8026
1263.916, 342.9965
1264.398, 343.2841
1264.880, 344.2646
1265.362, 343.7631
1265.844, 342.0851
1266.326, 341.1766
1266.808, 342.7412
1267.291, 343.9492
1267.773, 344.1765
1268.255, 344.1674
1268.737, 344.7693
1269.219, 345.6714
1269.701, 346.1129
1270.183, 346.1459
1270.665, 346.0750
1271.147, 345.9317
1271.630, 345.8039
1272.112, 345.7074
1272.594, 345.6151
1273.076, 345.6319
1273.558, 345.5551
1274.040, 344.6839
1274.522, 343.4380
1275.004, 343.2150
1275.486, 344.5831
1275.969, 346.0721
1276.451, 347.6771
1276.933, 348.9031
1277.415, 349.0704
1277.897, 348.8260
1278.379, 348.9264
1278.861, 349.1219
1279.343, 348.6543
1279.825, 347.1710
1280.308, 346.9428
1280.790, 348.1591
1281.272, 348.9657
1281.754, 347.0214
1282.236, 345.1488
1282.718, 345.6656
1283.200, 347.4668
1283.682, 348.7457
1284.165, 349.5068
1284.647, 349.8507
1285.129, 349.7969
1285.611, 349.5278
1286.093, 349.0971
1286.575, 348.5351
1287.057, 347.5059
1287.539, 346.6621
1288.021, 346.9082
1288.504, 348.0143
1288.986, 348.6395
1289.468, 348.8174
1289.950, 349.0441
1290.432, 349.6644
1290.914, 350.2217
1291.396, 350.6950
1291.878, 350.9815
1292.360, 350.8402
1292.843, 350.4948
1293.325, 350.5686
1293.807, 350.9436
1294.289, 351.1653
1294.771, 351.2954
1295.253, 350.7198
1295.735, 349.0884
1296.217, 347.8186
1296.700, 348.4300
1297.182, 349.8910
1297.664, 351.0661
1298.146, 351.8626
1298.628, 352.0830
1299.110, 351.4337
1299.592, 351.7746
1300.074, 353.3051
1300.557, 354.1528
1301.039, 352.1222
1301.521, 349.7491
1302.003, 348.9960
1302.485, 349.4040
1302.967, 350.1589
1303.449, 351.4642
##END=



