##NAMES=Karibibite
##RRUFFID=R060307
##IDEAL CHEMISTRY=Fe^3+^_3_(As^3+^O_2_)_4_(As^3+^_2_O_5_)(OH)
##LOCALITY=Urucum, Municipio de Galilea, Minas Gerais, Brazil
##OWNER=RRUFF
##SOURCE=Michael Scott
##DESCRIPTION=Yellowish-brown acicular crystals lining cavities
##STATUS=The identification of this mineral is not yet confirmed.
##URL=rruff.info/R060307
93.36774, 3733.954
93.84985, 3714.826
94.33197, 3654.509
94.81409, 3611.025
95.29620, 3558.739
95.77832, 3500.902
96.26044, 3439.023
96.74255, 3374.268
97.22467, 3304.703
97.70679, 3224.645
98.18890, 3154.406
98.67102, 3096.434
99.15314, 3046.568
99.63525, 3001.259
100.1174, 2958.652
100.5995, 2919.142
101.0816, 2884.598
101.5637, 2856.275
102.0458, 2831.292
102.5280, 2809.596
103.0101, 2790.189
103.4922, 2771.767
103.9743, 2753.524
104.4564, 2735.269
104.9385, 2718.148
105.4207, 2703.681
105.9028, 2688.343
106.3849, 2669.636
106.8670, 2647.640
107.3491, 2624.594
107.8312, 2601.395
108.3134, 2578.357
108.7955, 2560.413
109.2776, 2548.969
109.7597, 2542.683
110.2418, 2539.968
110.7239, 2540.981
111.2061, 2544.906
111.6882, 2551.498
112.1703, 2560.311
112.6524, 2569.528
113.1345, 2582.539
113.6166, 2598.413
114.0988, 2600.650
114.5809, 2578.220
115.0630, 2547.663
115.5451, 2515.121
116.0272, 2481.884
116.5093, 2450.134
116.9915, 2422.278
117.4736, 2398.515
117.9557, 2378.741
118.4378, 2362.833
118.9199, 2350.113
119.4020, 2340.399
119.8842, 2333.559
120.3663, 2329.251
120.8484, 2326.712
121.3305, 2326.742
121.8126, 2327.938
122.2947, 2331.942
122.7769, 2336.676
123.2590, 2339.714
123.7411, 2339.892
124.2232, 2337.301
124.7053, 2332.030
125.1874, 2323.979
125.6696, 2314.251
126.1517, 2301.889
126.6338, 2287.675
127.1159, 2274.532
127.5980, 2264.663
128.0801, 2257.408
128.5623, 2249.648
129.0444, 2240.030
129.5265, 2230.764
130.0086, 2224.286
130.4907, 2221.055
130.9728, 2218.454
131.4550, 2213.945
131.9371, 2209.090
132.4192, 2206.213
132.9013, 2205.985
133.3834, 2208.427
133.8655, 2213.750
134.3477, 2222.789
134.8298, 2233.927
135.3119, 2249.383
135.7940, 2266.121
136.2761, 2278.724
136.7582, 2283.265
137.2404, 2279.660
137.7225, 2271.535
138.2046, 2253.707
138.6867, 2235.827
139.1688, 2219.425
139.6509, 2205.454
140.1331, 2194.929
140.6152, 2188.861
141.0973, 2187.865
141.5794, 2190.269
142.0615, 2194.697
142.5436, 2202.655
143.0258, 2216.126
143.5079, 2235.043
143.9900, 2256.741
144.4721, 2278.021
144.9542, 2299.598
145.4363, 2318.217
145.9185, 2338.199
146.4006, 2353.564
146.8827, 2357.351
147.3648, 2347.326
147.8469, 2326.316
148.3290, 2295.342
148.8112, 2254.001
149.2933, 2212.788
149.7754, 2173.711
150.2575, 2137.469
150.7396, 2105.630
151.2217, 2079.235
151.7039, 2057.702
152.1860, 2039.503
152.6681, 2024.668
153.1502, 2012.260
153.6323, 2001.951
154.1144, 1993.837
154.5966, 1986.357
155.0787, 1978.844
155.5608, 1972.105
156.0429, 1967.067
156.5250, 1963.935
157.0071, 1961.602
157.4893, 1958.241
157.9714, 1952.878
158.4535, 1949.208
158.9356, 1948.267
159.4177, 1948.770
159.8998, 1950.051
160.3820, 1951.836
160.8641, 1953.841
161.3462, 1955.384
161.8283, 1956.199
162.3104, 1956.840
162.7925, 1957.451
163.2747, 1957.902
163.7568, 1958.072
164.2389, 1957.904
164.7210, 1957.405
165.2031, 1956.563
165.6852, 1953.820
166.1674, 1952.515
166.6495, 1952.831
167.1316, 1954.987
167.6137, 1959.417
168.0958, 1966.533
168.5779, 1976.073
169.0601, 1986.380
169.5422, 1996.827
170.0243, 2008.402
170.5064, 2021.191
170.9885, 2035.348
171.4706, 2051.430
171.9528, 2069.565
172.4349, 2090.340
172.9170, 2114.064
173.3991, 2141.930
173.8812, 2171.811
174.3633, 2200.947
174.8455, 2229.277
175.3276, 2262.095
175.8097, 2302.612
176.2918, 2350.524
176.7739, 2405.821
177.2560, 2470.245
177.7382, 2540.773
178.2203, 2615.463
178.7024, 2697.344
179.1845, 2772.416
179.6666, 2842.104
180.1487, 2898.890
180.6309, 2929.906
181.1130, 2927.682
181.5951, 2897.610
182.0772, 2852.276
182.5593, 2784.931
183.0414, 2712.241
183.5236, 2636.918
184.0057, 2561.665
184.4878, 2489.818
184.9699, 2422.814
185.4520, 2360.972
185.9341, 2306.448
186.4163, 2262.094
186.8984, 2223.171
187.3805, 2188.804
187.8626, 2158.589
188.3447, 2132.059
188.8268, 2108.615
189.3090, 2088.393
189.7911, 2073.231
190.2732, 2064.527
190.7553, 2059.414
191.2374, 2058.023
191.7195, 2059.743
192.2017, 2063.369
192.6838, 2067.805
193.1659, 2072.967
193.6480, 2082.736
194.1301, 2097.533
194.6122, 2115.247
195.0944, 2136.076
195.5765, 2159.295
196.0586, 2183.242
196.5407, 2206.553
197.0228, 2229.209
197.5049, 2251.673
197.9871, 2275.968
198.4692, 2298.554
198.9513, 2319.798
199.4334, 2338.717
199.9155, 2349.563
200.3976, 2347.447
200.8798, 2331.283
201.3619, 2307.385
201.8440, 2273.440
202.3261, 2233.400
202.8082, 2189.013
203.2903, 2140.384
203.7725, 2092.073
204.2546, 2046.966
204.7367, 2005.429
205.2188, 1969.038
205.7009, 1938.434
206.1830, 1912.854
206.6652, 1891.843
207.1473, 1875.764
207.6294, 1862.892
208.1115, 1852.604
208.5936, 1844.621
209.0757, 1839.034
209.5579, 1836.193
210.0400, 1835.682
210.5221, 1836.492
211.0042, 1838.168
211.4863, 1842.412
211.9685, 1850.141
212.4506, 1860.609
212.9327, 1872.932
213.4148, 1886.793
213.8969, 1902.245
214.3790, 1919.197
214.8612, 1937.271
215.3433, 1957.954
215.8254, 1983.633
216.3075, 2011.238
216.7896, 2037.123
217.2717, 2059.598
217.7539, 2078.416
218.2360, 2091.858
218.7181, 2097.504
219.2002, 2100.225
219.6823, 2099.634
220.1644, 2097.455
220.6466, 2095.667
221.1287, 2095.315
221.6108, 2096.490
222.0929, 2099.727
222.5750, 2104.021
223.0571, 2112.022
223.5393, 2126.133
224.0214, 2143.782
224.5035, 2162.480
224.9856, 2181.096
225.4677, 2198.500
225.9498, 2206.979
226.4320, 2207.126
226.9141, 2197.073
227.3962, 2172.474
227.8783, 2137.963
228.3604, 2099.229
228.8425, 2059.044
229.3247, 2018.292
229.8068, 1981.834
230.2889, 1949.539
230.7710, 1921.251
231.2531, 1897.828
231.7352, 1878.374
232.2174, 1861.613
232.6995, 1847.064
233.1816, 1834.292
233.6637, 1821.480
234.1458, 1807.854
234.6279, 1795.022
235.1101, 1782.914
235.5922, 1771.893
236.0743, 1762.871
236.5564, 1756.578
237.0385, 1752.197
237.5206, 1747.210
238.0028, 1740.379
238.4849, 1734.878
238.9670, 1732.065
239.4491, 1731.395
239.9312, 1731.849
240.4133, 1733.342
240.8955, 1735.241
241.3776, 1736.002
241.8597, 1735.071
242.3418, 1734.570
242.8239, 1735.676
243.3060, 1737.929
243.7882, 1739.895
244.2703, 1740.656
244.7524, 1741.551
245.2345, 1744.789
245.7166, 1750.599
246.1987, 1756.929
246.6809, 1762.942
247.1630, 1768.688
247.6451, 1774.422
248.1272, 1780.189
248.6093, 1785.901
249.0914, 1792.456
249.5736, 1800.005
250.0557, 1804.593
250.5378, 1803.907
251.0199, 1798.378
251.5020, 1789.572
251.9841, 1776.858
252.4663, 1761.910
252.9484, 1745.163
253.4305, 1727.036
253.9126, 1710.745
254.3947, 1698.684
254.8768, 1690.187
255.3590, 1682.471
255.8411, 1675.485
256.3232, 1668.919
256.8053, 1662.169
257.2874, 1655.470
257.7695, 1649.656
258.2516, 1645.542
258.7338, 1642.843
259.2159, 1640.131
259.6980, 1637.130
260.1801, 1634.498
260.6622, 1632.547
261.1443, 1631.161
261.6265, 1630.081
262.1086, 1629.157
262.5907, 1628.413
263.0728, 1627.929
263.5549, 1627.442
264.0370, 1627.699
264.5192, 1629.557
265.0013, 1632.152
265.4834, 1634.097
265.9655, 1634.607
266.4476, 1633.957
266.9297, 1632.970
267.4119, 1630.905
267.8940, 1629.811
268.3761, 1630.349
268.8582, 1632.024
269.3403, 1634.124
269.8224, 1636.205
270.3046, 1638.765
270.7867, 1643.394
271.2688, 1651.635
271.7509, 1659.255
272.2330, 1665.213
272.7151, 1670.307
273.1973, 1675.299
273.6794, 1680.489
274.1615, 1685.823
274.6436, 1691.154
275.1257, 1696.032
275.6078, 1701.865
276.0900, 1710.261
276.5721, 1718.651
277.0542, 1724.935
277.5363, 1728.507
278.0184, 1730.108
278.5005, 1731.161
278.9827, 1732.800
279.4648, 1731.059
279.9469, 1724.465
280.4290, 1715.982
280.9111, 1707.011
281.3932, 1698.075
281.8754, 1689.535
282.3575, 1681.961
282.8396, 1675.793
283.3217, 1669.386
283.8038, 1662.505
284.2859, 1655.623
284.7681, 1648.998
285.2502, 1642.643
285.7323, 1636.436
286.2144, 1630.121
286.6965, 1623.426
287.1786, 1618.219
287.6608, 1615.582
288.1429, 1613.246
288.6250, 1610.306
289.1071, 1606.862
289.5892, 1603.520
290.0714, 1600.818
290.5535, 1598.784
291.0356, 1596.154
291.5177, 1592.426
291.9998, 1588.656
292.4819, 1584.597
292.9641, 1580.734
293.4462, 1577.960
293.9283, 1576.920
294.4104, 1577.329
294.8925, 1577.198
295.3746, 1576.195
295.8568, 1574.967
296.3389, 1573.484
296.8210, 1571.842
297.3031, 1570.033
297.7852, 1568.028
298.2673, 1566.090
298.7495, 1565.035
299.2316, 1566.135
299.7137, 1566.521
300.1958, 1565.389
300.6779, 1563.815
301.1600, 1562.940
301.6422, 1563.121
302.1243, 1563.802
302.6064, 1563.940
303.0885, 1562.764
303.5706, 1562.445
304.0527, 1563.999
304.5349, 1565.661
305.0170, 1566.119
305.4991, 1565.151
305.9812, 1563.347
306.4633, 1561.354
306.9454, 1559.025
307.4276, 1557.089
307.9097, 1555.998
308.3918, 1554.876
308.8739, 1553.377
309.3560, 1551.425
309.8381, 1548.983
310.3203, 1545.889
310.8024, 1542.081
311.2845, 1538.994
311.7666, 1536.703
312.2487, 1534.931
312.7308, 1533.901
313.2130, 1533.311
313.6951, 1532.626
314.1772, 1531.520
314.6593, 1529.996
315.1414, 1528.128
315.6235, 1524.285
316.1057, 1521.956
316.5878, 1522.634
317.0699, 1524.896
317.5520, 1526.810
318.0341, 1527.494
318.5162, 1527.491
318.9984, 1528.195
319.4805, 1530.767
319.9626, 1532.531
320.4447, 1532.638
320.9268, 1532.390
321.4089, 1533.315
321.8911, 1535.703
322.3732, 1538.182
322.8553, 1538.617
323.3374, 1535.640
323.8195, 1533.985
324.3016, 1534.674
324.7838, 1535.708
325.2659, 1535.927
325.7480, 1535.225
326.2301, 1534.099
326.7122, 1533.045
327.1943, 1532.134
327.6765, 1530.647
328.1586, 1527.376
328.6407, 1524.787
329.1228, 1524.228
329.6049, 1525.094
330.0870, 1525.940
330.5692, 1525.792
331.0513, 1524.772
331.5334, 1523.858
332.0155, 1522.743
332.4976, 1522.099
332.9797, 1522.342
333.4619, 1523.027
333.9440, 1523.554
334.4261, 1523.660
334.9082, 1523.605
335.3904, 1524.016
335.8725, 1525.372
336.3546, 1526.499
336.8367, 1527.060
337.3188, 1527.598
337.8009, 1528.578
338.2831, 1530.085
338.7652, 1531.827
339.2473, 1533.229
339.7294, 1533.603
340.2115, 1535.916
340.6936, 1541.889
341.1758, 1547.995
341.6579, 1551.828
342.1400, 1554.018
342.6221, 1557.083
343.1042, 1563.311
343.5863, 1572.689
344.0685, 1581.742
344.5506, 1589.771
345.0327, 1598.118
345.5148, 1607.107
345.9969, 1616.592
346.4790, 1626.172
346.9612, 1635.644
347.4433, 1645.224
347.9254, 1655.898
348.4075, 1668.030
348.8896, 1680.647
349.3717, 1695.081
349.8539, 1708.976
350.3360, 1720.485
350.8181, 1728.956
351.3002, 1735.019
351.7823, 1739.644
352.2644, 1743.081
352.7466, 1744.184
353.2287, 1743.902
353.7108, 1740.520
354.1929, 1732.382
354.6750, 1719.909
355.1571, 1705.128
355.6393, 1689.404
356.1214, 1672.687
356.6035, 1656.318
357.0856, 1640.511
357.5677, 1624.955
358.0498, 1609.000
358.5320, 1593.290
359.0141, 1578.911
359.4962, 1566.605
359.9783, 1555.877
360.4604, 1545.469
360.9425, 1534.817
361.4247, 1525.793
361.9068, 1519.843
362.3889, 1515.154
362.8710, 1510.148
363.3531, 1504.376
363.8352, 1498.658
364.3174, 1494.078
364.7995, 1490.753
365.2816, 1487.265
365.7637, 1482.917
366.2458, 1478.762
366.7279, 1475.485
367.2101, 1473.055
367.6922, 1471.033
368.1743, 1469.413
368.6564, 1468.022
369.1385, 1466.079
369.6206, 1463.448
370.1028, 1460.423
370.5849, 1456.545
371.0670, 1452.494
371.5491, 1449.660
372.0312, 1449.013
372.5133, 1449.291
372.9955, 1448.615
373.4776, 1446.867
373.9597, 1445.313
374.4418, 1444.611
374.9239, 1444.312
375.4060, 1443.907
375.8882, 1443.391
376.3703, 1442.614
376.8524, 1440.962
377.3345, 1438.828
377.8166, 1437.948
378.2987, 1439.076
378.7809, 1440.906
379.2630, 1442.052
379.7451, 1442.603
380.2272, 1443.101
380.7093, 1443.686
381.1914, 1444.332
381.6736, 1444.980
382.1557, 1445.618
382.6378, 1446.324
383.1199, 1446.864
383.6020, 1447.564
384.0841, 1449.543
384.5663, 1454.363
385.0484, 1458.919
385.5305, 1460.947
386.0126, 1461.158
386.4947, 1461.724
386.9768, 1463.445
387.4590, 1466.169
387.9411, 1469.924
388.4232, 1475.340
388.9053, 1479.741
389.3874, 1481.255
389.8695, 1482.117
390.3517, 1485.336
390.8338, 1491.392
391.3159, 1497.696
391.7980, 1501.532
392.2801, 1502.494
392.7622, 1504.294
393.2444, 1507.549
393.7265, 1510.974
394.2086, 1514.035
394.6907, 1516.729
395.1728, 1519.217
395.6549, 1521.560
396.1371, 1523.790
396.6192, 1525.942
397.1013, 1528.023
397.5834, 1530.013
398.0655, 1531.963
398.5476, 1533.784
399.0298, 1535.545
399.5119, 1537.197
399.9940, 1538.346
400.4761, 1538.389
400.9582, 1536.961
401.4403, 1535.677
401.9225, 1535.214
402.4046, 1534.249
402.8867, 1532.020
403.3688, 1528.762
403.8509, 1525.180
404.3330, 1521.757
404.8152, 1518.375
405.2973, 1514.335
405.7794, 1508.961
406.2615, 1503.907
406.7436, 1499.653
407.2257, 1495.738
407.7079, 1491.894
408.1900, 1487.991
408.6721, 1483.687
409.1542, 1478.105
409.6363, 1470.712
410.1184, 1464.838
410.6006, 1462.286
411.0827, 1460.066
411.5648, 1456.522
412.0469, 1451.941
412.5290, 1447.636
413.0111, 1444.469
413.4933, 1442.219
413.9754, 1440.157
414.4575, 1438.222
414.9396, 1436.664
415.4217, 1436.012
415.9038, 1435.661
416.3860, 1434.820
416.8681, 1433.128
417.3502, 1431.509
417.8323, 1430.758
418.3144, 1430.844
418.7965, 1431.717
419.2787, 1433.933
419.7608, 1436.093
420.2429, 1436.414
420.7250, 1435.061
421.2071, 1433.930
421.6892, 1433.490
422.1714, 1433.719
422.6535, 1434.949
423.1356, 1437.204
423.6177, 1439.026
424.0998, 1439.102
424.5819, 1438.000
425.0641, 1438.240
425.5462, 1441.013
426.0283, 1443.607
426.5104, 1444.632
426.9925, 1444.702
427.4746, 1444.971
427.9568, 1445.832
428.4389, 1447.012
428.9210, 1448.082
429.4031, 1448.869
429.8852, 1450.136
430.3673, 1452.531
430.8495, 1454.909
431.3316, 1456.273
431.8137, 1456.808
432.2958, 1457.530
432.7779, 1459.195
433.2600, 1461.682
433.7422, 1463.995
434.2243, 1466.311
434.7064, 1468.208
435.1885, 1469.821
435.6706, 1470.881
436.1527, 1470.957
436.6349, 1469.967
437.1170, 1468.410
437.5991, 1466.890
438.0812, 1465.283
438.5633, 1464.168
439.0454, 1463.719
439.5276, 1463.615
440.0097, 1464.229
440.4918, 1465.093
440.9739, 1465.137
441.4560, 1463.426
441.9381, 1460.804
442.4203, 1459.838
442.9024, 1461.152
443.3845, 1462.496
443.8666, 1463.475
444.3487, 1464.041
444.8308, 1463.928
445.3130, 1463.099
445.7951, 1462.376
446.2772, 1462.862
446.7593, 1464.191
447.2414, 1464.202
447.7235, 1462.006
448.2057, 1459.842
448.6878, 1459.920
449.1699, 1461.351
449.6520, 1462.037
450.1341, 1460.650
450.6162, 1459.048
451.0984, 1459.190
451.5805, 1460.799
452.0626, 1462.195
452.5447, 1462.733
453.0268, 1462.648
453.5089, 1462.398
453.9911, 1462.119
454.4732, 1461.227
454.9553, 1458.973
455.4374, 1456.394
455.9195, 1454.727
456.4016, 1454.010
456.8838, 1453.304
457.3659, 1451.880
457.8480, 1449.760
458.3301, 1447.331
458.8122, 1444.055
459.2943, 1441.141
459.7765, 1439.153
460.2586, 1437.591
460.7407, 1435.919
461.2228, 1433.935
461.7049, 1431.480
462.1870, 1428.120
462.6692, 1423.182
463.1513, 1419.578
463.6334, 1418.612
464.1155, 1417.660
464.5976, 1415.459
465.0797, 1412.398
465.5619, 1409.440
466.0440, 1407.124
466.5261, 1405.413
467.0082, 1404.361
467.4903, 1404.306
467.9724, 1403.980
468.4546, 1402.531
468.9367, 1401.056
469.4188, 1400.445
469.9009, 1400.745
470.3830, 1401.197
470.8651, 1401.201
471.3473, 1400.877
471.8294, 1400.692
472.3115, 1400.705
472.7936, 1400.704
473.2757, 1399.987
473.7578, 1399.266
474.2400, 1400.063
474.7221, 1403.385
475.2042, 1406.974
475.6863, 1409.198
476.1684, 1410.460
476.6505, 1411.977
477.1327, 1414.179
477.6148, 1416.414
478.0969, 1417.771
478.5790, 1418.066
479.0611, 1418.836
479.5432, 1420.890
480.0254, 1422.805
480.5075, 1423.843
480.9896, 1423.992
481.4717, 1423.258
481.9538, 1421.568
482.4359, 1419.354
482.9181, 1417.886
483.4002, 1418.605
483.8823, 1417.909
484.3644, 1415.122
484.8465, 1411.463
485.3286, 1407.484
485.8108, 1403.434
486.2929, 1399.648
486.7750, 1396.458
487.2571, 1393.793
487.7392, 1390.942
488.2213, 1387.766
488.7035, 1384.603
489.1856, 1381.849
489.6677, 1378.983
490.1498, 1375.190
490.6319, 1370.265
491.1140, 1365.531
491.5962, 1362.615
492.0783, 1361.256
492.5604, 1359.325
493.0425, 1356.305
493.5246, 1353.298
494.0067, 1351.252
494.4889, 1349.818
494.9710, 1348.218
495.4531, 1346.024
495.9352, 1343.911
496.4173, 1342.499
496.8994, 1341.641
497.3816, 1340.863
497.8637, 1340.098
498.3458, 1339.074
498.8279, 1337.193
499.3100, 1334.097
499.7921, 1332.016
500.2743, 1331.852
500.7564, 1332.086
501.2385, 1331.973
501.7206, 1331.410
502.2027, 1330.185
502.6848, 1328.087
503.1670, 1325.702
503.6491, 1324.862
504.1312, 1327.166
504.6133, 1328.430
505.0954, 1328.018
505.5775, 1327.043
506.0597, 1325.932
506.5418, 1324.920
507.0239, 1324.441
507.5060, 1325.054
507.9881, 1326.392
508.4702, 1326.541
508.9524, 1324.859
509.4345, 1323.455
509.9166, 1322.928
510.3987, 1323.050
510.8808, 1323.950
511.3629, 1325.655
511.8451, 1327.035
512.3271, 1326.891
512.8093, 1325.783
513.2914, 1325.471
513.7735, 1326.301
514.2556, 1326.925
514.7377, 1326.254
515.2198, 1324.627
515.7020, 1323.305
516.1841, 1322.140
516.6662, 1321.537
517.1483, 1322.305
517.6304, 1323.565
518.1125, 1323.671
518.5947, 1322.241
519.0768, 1320.527
519.5589, 1319.935
520.0410, 1320.629
520.5231, 1320.805
521.0052, 1320.354
521.4874, 1319.598
521.9695, 1318.312
522.4516, 1316.889
522.9337, 1316.048
523.4158, 1316.012
523.8979, 1316.030
524.3801, 1314.729
524.8622, 1311.676
525.3443, 1309.655
525.8264, 1309.425
526.3085, 1309.548
526.7906, 1309.680
527.2728, 1309.668
527.7549, 1309.253
528.2370, 1308.275
528.7191, 1306.974
529.2012, 1305.485
529.6833, 1303.840
530.1655, 1302.654
530.6476, 1302.258
531.1297, 1302.060
531.6118, 1301.368
532.0939, 1300.252
532.5760, 1299.167
533.0582, 1297.757
533.5403, 1296.787
534.0224, 1297.290
534.5045, 1298.779
534.9866, 1299.697
535.4688, 1299.329
535.9509, 1298.312
536.4330, 1297.840
536.9151, 1298.306
537.3972, 1298.407
537.8793, 1298.029
538.3615, 1297.432
538.8436, 1296.733
539.3257, 1295.936
539.8078, 1294.909
540.2899, 1293.521
540.7720, 1292.150
541.2542, 1291.793
541.7363, 1292.838
542.2184, 1293.572
542.7005, 1293.496
543.1826, 1293.217
543.6647, 1293.341
544.1469, 1293.629
544.6290, 1293.119
545.1111, 1290.790
545.5932, 1287.780
546.0753, 1286.028
546.5574, 1285.482
547.0396, 1284.285
547.5217, 1281.382
548.0038, 1278.012
548.4859, 1276.321
548.9680, 1276.466
549.4501, 1276.192
549.9323, 1275.118
550.4144, 1273.468
550.8965, 1270.994
551.3786, 1268.043
551.8607, 1265.702
552.3428, 1264.610
552.8250, 1264.199
553.3071, 1263.029
553.7892, 1260.425
554.2713, 1258.272
554.7534, 1256.770
555.2355, 1255.481
555.7177, 1254.224
556.1998, 1252.973
556.6819, 1251.702
557.1640, 1250.355
557.6461, 1249.088
558.1282, 1248.318
558.6104, 1248.122
559.0925, 1247.932
559.5746, 1247.800
560.0567, 1247.424
560.5388, 1246.397
561.0209, 1244.830
561.5031, 1243.486
561.9852, 1242.818
562.4673, 1242.391
562.9494, 1241.611
563.4315, 1240.614
563.9136, 1240.305
564.3958, 1241.290
564.8779, 1242.355
565.3600, 1241.189
565.8421, 1236.266
566.3242, 1233.596
566.8063, 1234.902
567.2885, 1236.775
567.7706, 1237.657
568.2527, 1237.567
568.7348, 1236.689
569.2169, 1235.077
569.6990, 1233.438
570.1812, 1233.469
570.6633, 1235.901
571.1454, 1237.017
571.6275, 1235.484
572.1096, 1233.634
572.5917, 1232.265
573.0739, 1231.505
573.5560, 1231.640
574.0381, 1233.175
574.5202, 1234.938
575.0023, 1235.717
575.4844, 1235.580
575.9666, 1234.697
576.4487, 1232.863
576.9308, 1231.097
577.4129, 1230.530
577.8950, 1231.207
578.3771, 1231.836
578.8593, 1233.230
579.3414, 1233.664
579.8235, 1231.221
580.3056, 1227.646
580.7877, 1225.927
581.2698, 1226.901
581.7520, 1228.825
582.2341, 1229.488
582.7162, 1228.729
583.1984, 1228.303
583.6805, 1228.774
584.1626, 1228.867
584.6447, 1227.855
585.1268, 1226.455
585.6089, 1225.399
586.0911, 1224.873
586.5732, 1225.109
587.0553, 1227.103
587.5374, 1230.135
588.0195, 1231.137
588.5016, 1229.537
588.9838, 1227.601
589.4659, 1226.847
589.9480, 1226.769
590.4301, 1225.774
590.9122, 1223.212
591.3943, 1221.056
591.8765, 1220.074
592.3586, 1219.694
592.8407, 1219.348
593.3228, 1218.965
593.8049, 1218.817
594.2870, 1219.210
594.7692, 1219.833
595.2513, 1219.164
595.7334, 1216.431
596.2155, 1213.736
596.6976, 1210.582
597.1797, 1208.107
597.6619, 1207.459
598.1440, 1208.311
598.6261, 1209.162
599.1082, 1209.215
599.5903, 1208.601
600.0724, 1207.283
600.5546, 1205.251
601.0367, 1203.727
601.5188, 1203.261
602.0009, 1203.188
602.4830, 1202.589
602.9651, 1201.475
603.4473, 1200.676
603.9294, 1200.719
604.4115, 1200.707
604.8936, 1199.949
605.3757, 1198.751
605.8578, 1197.817
606.3400, 1197.402
606.8221, 1197.093
607.3042, 1196.257
607.7863, 1194.776
608.2684, 1193.627
608.7505, 1193.270
609.2327, 1192.744
609.7148, 1191.302
610.1969, 1189.759
610.6790, 1189.341
611.1611, 1190.417
611.6432, 1191.547
612.1254, 1191.242
612.6075, 1189.977
613.0896, 1189.197
613.5717, 1189.006
614.0538, 1189.328
614.5359, 1190.342
615.0181, 1191.718
615.5002, 1192.467
615.9823, 1192.385
616.4644, 1192.207
616.9465, 1191.848
617.4286, 1191.611
617.9108, 1192.035
618.3929, 1192.872
618.8750, 1193.183
619.3571, 1192.328
619.8392, 1190.823
620.3214, 1190.104
620.8035, 1190.543
621.2856, 1190.627
621.7677, 1189.492
622.2498, 1188.671
622.7319, 1189.678
623.2141, 1191.632
623.6962, 1192.222
624.1783, 1190.265
624.6604, 1187.232
625.1425, 1183.902
625.6246, 1180.623
626.1068, 1178.863
626.5889, 1179.070
627.0710, 1179.551
627.5531, 1178.587
628.0352, 1176.284
628.5173, 1175.140
628.9995, 1176.177
629.4816, 1176.894
629.9637, 1176.604
630.4458, 1175.861
630.9279, 1175.263
631.4100, 1174.837
631.8922, 1174.088
632.3743, 1172.384
632.8564, 1170.197
633.3385, 1169.499
633.8206, 1170.711
634.3027, 1171.661
634.7849, 1171.744
635.2670, 1171.297
635.7491, 1170.488
636.2312, 1169.377
636.7133, 1168.634
637.1954, 1169.019
637.6776, 1169.357
638.1597, 1168.517
638.6418, 1166.903
639.1239, 1165.678
639.6060, 1165.232
640.0881, 1164.685
640.5703, 1162.801
641.0524, 1159.387
641.5345, 1157.029
642.0166, 1156.508
642.4987, 1156.205
642.9808, 1155.681
643.4630, 1155.302
643.9451, 1155.775
644.4272, 1157.084
644.9093, 1157.922
645.3914, 1156.825
645.8735, 1154.591
646.3557, 1153.245
646.8378, 1152.824
647.3199, 1152.366
647.8020, 1151.375
648.2841, 1150.271
648.7662, 1149.826
649.2484, 1150.219
649.7305, 1150.202
650.2126, 1149.233
650.6947, 1148.267
651.1768, 1147.507
651.6589, 1147.204
652.1411, 1148.092
652.6232, 1150.324
653.1053, 1152.500
653.5874, 1152.730
654.0695, 1150.998
654.5516, 1148.946
655.0338, 1146.001
655.5159, 1143.916
655.9980, 1144.389
656.4801, 1145.673
656.9622, 1145.800
657.4443, 1144.487
657.9265, 1143.157
658.4086, 1142.657
658.8907, 1142.311
659.3728, 1140.991
659.8549, 1139.039
660.3370, 1138.263
660.8192, 1139.590
661.3013, 1141.539
661.7834, 1141.341
662.2655, 1138.042
662.7476, 1136.179
663.2297, 1136.667
663.7119, 1137.617
664.1940, 1139.295
664.6761, 1140.759
665.1582, 1140.652
665.6403, 1138.617
666.1224, 1136.008
666.6046, 1133.253
667.0867, 1130.906
667.5688, 1130.732
668.0509, 1132.847
668.5330, 1134.780
669.0151, 1135.409
669.4973, 1134.990
669.9794, 1133.922
670.4615, 1131.832
670.9436, 1130.119
671.4257, 1128.633
671.9078, 1127.701
672.3900, 1127.766
672.8721, 1128.415
673.3542, 1129.070
673.8363, 1129.502
674.3184, 1129.603
674.8005, 1128.959
675.2827, 1127.705
675.7648, 1127.432
676.2469, 1128.549
676.7290, 1129.289
677.2111, 1128.611
677.6932, 1127.164
678.1754, 1126.098
678.6575, 1125.477
679.1396, 1124.882
679.6217, 1124.113
680.1038, 1123.430
680.5859, 1123.110
681.0681, 1123.032
681.5502, 1122.907
682.0323, 1122.623
682.5144, 1122.264
682.9965, 1121.889
683.4786, 1121.479
683.9608, 1121.503
684.4429, 1122.435
684.9250, 1122.942
685.4071, 1122.154
685.8892, 1120.833
686.3713, 1119.521
686.8535, 1118.230
687.3356, 1117.823
687.8177, 1119.755
688.2998, 1121.935
688.7819, 1122.019
689.2640, 1120.444
689.7462, 1118.833
690.2283, 1117.803
690.7104, 1117.231
691.1925, 1116.970
691.6746, 1117.048
692.1567, 1117.217
692.6389, 1117.937
693.1210, 1118.109
693.6031, 1116.869
694.0852, 1115.347
694.5673, 1114.853
695.0494, 1115.481
695.5316, 1115.960
696.0137, 1115.207
696.4958, 1114.099
696.9779, 1113.897
697.4600, 1114.427
697.9421, 1114.903
698.4243, 1115.092
698.9064, 1114.738
699.3885, 1113.332
699.8706, 1110.706
700.3527, 1109.259
700.8348, 1110.248
701.3170, 1110.894
701.7991, 1110.161
702.2812, 1109.247
702.7633, 1109.451
703.2454, 1110.753
703.7275, 1111.934
704.2097, 1112.095
704.6918, 1111.805
705.1739, 1111.849
705.6560, 1112.216
706.1381, 1112.937
706.6202, 1114.111
707.1024, 1115.098
707.5845, 1115.082
708.0666, 1114.092
708.5487, 1114.057
709.0308, 1115.768
709.5129, 1117.321
709.9951, 1118.814
710.4772, 1119.755
710.9593, 1119.213
711.4414, 1117.623
711.9235, 1116.760
712.4056, 1117.971
712.8878, 1119.801
713.3699, 1119.761
713.8520, 1118.147
714.3341, 1117.163
714.8162, 1117.335
715.2983, 1117.611
715.7805, 1117.120
716.2626, 1116.017
716.7447, 1115.170
717.2268, 1114.644
717.7089, 1114.274
718.1910, 1113.898
718.6732, 1113.811
719.1553, 1114.637
719.6374, 1115.902
720.1195, 1116.325
720.6016, 1115.175
721.0837, 1113.738
721.5659, 1114.050
722.0480, 1115.695
722.5301, 1116.080
723.0122, 1114.677
723.4943, 1113.791
723.9764, 1115.143
724.4586, 1117.659
724.9407, 1118.508
725.4228, 1116.722
725.9049, 1115.688
726.3870, 1115.854
726.8691, 1116.539
727.3513, 1117.768
727.8334, 1119.138
728.3155, 1120.024
728.7976, 1120.230
729.2797, 1120.163
729.7618, 1120.285
730.2440, 1120.484
730.7261, 1120.123
731.2082, 1119.108
731.6903, 1118.841
732.1724, 1120.103
732.6545, 1122.020
733.1367, 1123.325
733.6188, 1123.860
734.1009, 1124.652
734.5830, 1126.308
735.0651, 1127.501
735.5472, 1127.312
736.0294, 1126.678
736.5115, 1126.716
736.9936, 1127.541
737.4757, 1128.420
737.9578, 1128.619
738.4399, 1128.697
738.9221, 1129.913
739.4042, 1132.197
739.8863, 1134.593
740.3684, 1136.928
740.8505, 1139.068
741.3326, 1140.913
741.8148, 1142.450
742.2969, 1143.515
742.7790, 1143.813
743.2611, 1144.090
743.7432, 1143.808
744.2253, 1144.055
744.7075, 1146.456
745.1896, 1150.071
745.6717, 1152.240
746.1538, 1151.533
746.6359, 1149.729
747.1180, 1148.630
747.6002, 1148.212
748.0823, 1148.721
748.5644, 1150.251
749.0465, 1151.100
749.5286, 1150.169
750.0107, 1148.055
750.4929, 1146.163
750.9750, 1144.674
751.4571, 1142.935
751.9392, 1139.389
752.4213, 1137.341
752.9034, 1140.397
753.3856, 1144.687
753.8677, 1144.449
754.3498, 1138.540
754.8319, 1131.878
755.3140, 1127.595
755.7961, 1125.134
756.2783, 1124.207
756.7604, 1124.462
757.2425, 1123.926
757.7246, 1121.900
758.2067, 1119.367
758.6888, 1117.492
759.1710, 1116.258
759.6531, 1114.782
760.1352, 1112.898
760.6173, 1111.015
761.0994, 1108.767
761.5815, 1106.881
762.0637, 1106.278
762.5458, 1106.556
763.0279, 1106.201
763.5100, 1104.310
763.9921, 1102.197
764.4742, 1100.982
764.9564, 1100.281
765.4385, 1099.375
765.9206, 1098.203
766.4027, 1097.170
766.8848, 1096.550
767.3669, 1096.181
767.8491, 1095.623
768.3312, 1094.699
768.8133, 1094.320
769.2954, 1095.196
769.7775, 1095.637
770.2596, 1094.593
770.7418, 1092.850
771.2239, 1091.286
771.7060, 1089.951
772.1881, 1089.189
772.6702, 1089.564
773.1523, 1090.167
773.6345, 1090.496
774.1166, 1090.432
774.5987, 1089.635
775.0808, 1088.102
775.5629, 1086.553
776.0450, 1085.664
776.5272, 1085.391
777.0093, 1085.669
777.4914, 1086.696
777.9735, 1087.207
778.4556, 1086.807
778.9377, 1085.979
779.4199, 1084.856
779.9020, 1083.607
780.3841, 1083.045
780.8662, 1083.620
781.3483, 1084.252
781.8304, 1085.138
782.3126, 1085.604
782.7947, 1084.551
783.2768, 1082.638
783.7589, 1081.568
784.2410, 1082.116
784.7231, 1083.421
785.2053, 1084.794
785.6874, 1086.058
786.1695, 1086.303
786.6516, 1085.433
787.1337, 1084.874
787.6158, 1085.443
788.0980, 1086.185
788.5801, 1085.536
789.0622, 1083.184
789.5443, 1081.528
790.0264, 1080.569
790.5085, 1080.298
790.9907, 1081.115
791.4728, 1082.339
791.9549, 1083.657
792.4370, 1084.838
792.9191, 1085.236
793.4012, 1083.991
793.8834, 1082.654
794.3655, 1083.167
794.8476, 1084.601
795.3297, 1084.924
795.8118, 1083.905
796.2939, 1082.411
796.7761, 1080.905
797.2582, 1079.702
797.7403, 1079.788
798.2224, 1081.703
798.7045, 1082.592
799.1866, 1082.048
799.6688, 1081.039
800.1509, 1079.468
800.6330, 1077.956
801.1151, 1077.193
801.5972, 1077.227
802.0793, 1078.093
802.5615, 1081.044
803.0436, 1083.550
803.5257, 1083.402
804.0078, 1082.088
804.4899, 1081.930
804.9720, 1083.255
805.4542, 1084.792
805.9363, 1085.640
806.4184, 1085.866
806.9005, 1085.278
807.3826, 1083.942
807.8647, 1083.705
808.3469, 1085.150
808.8290, 1086.328
809.3111, 1085.612
809.7932, 1083.802
810.2753, 1083.423
810.7574, 1085.780
811.2396, 1086.898
811.7217, 1085.491
812.2038, 1084.321
812.6859, 1084.905
813.1680, 1086.273
813.6501, 1087.185
814.1323, 1087.378
814.6144, 1087.024
815.0965, 1085.735
815.5786, 1084.346
816.0607, 1083.912
816.5428, 1084.156
817.0250, 1084.384
817.5071, 1084.415
817.9892, 1084.288
818.4713, 1083.973
818.9534, 1083.628
819.4355, 1084.070
819.9177, 1085.752
820.3998, 1085.944
820.8819, 1083.306
821.3640, 1080.898
821.8461, 1081.020
822.3282, 1082.483
822.8104, 1082.817
823.2925, 1081.548
823.7746, 1080.832
824.2567, 1081.706
824.7388, 1082.606
825.2209, 1082.751
825.7031, 1082.310
826.1852, 1081.528
826.6673, 1080.499
827.1494, 1079.267
827.6315, 1077.570
828.1136, 1076.029
828.5958, 1076.204
829.0779, 1077.592
829.5600, 1077.428
830.0421, 1075.125
830.5242, 1073.004
831.0063, 1072.810
831.4885, 1073.960
831.9706, 1074.658
832.4527, 1074.626
832.9348, 1074.866
833.4169, 1075.594
833.8990, 1076.321
834.3812, 1077.315
834.8633, 1077.958
835.3454, 1077.142
835.8275, 1074.727
836.3096, 1072.984
836.7917, 1073.123
837.2739, 1073.667
837.7560, 1073.814
838.2381, 1073.728
838.7202, 1073.680
839.2023, 1073.698
839.6844, 1073.670
840.1666, 1073.569
840.6487, 1073.228
841.1308, 1072.033
841.6129, 1070.204
842.0950, 1069.467
842.5771, 1070.083
843.0593, 1070.727
843.5414, 1070.704
844.0235, 1070.239
844.5056, 1069.653
844.9877, 1068.769
845.4698, 1068.705
845.9520, 1070.600
846.4341, 1071.818
846.9162, 1071.678
847.3983, 1070.710
847.8804, 1068.835
848.3625, 1066.421
848.8447, 1065.101
849.3268, 1065.980
849.8089, 1067.133
850.2910, 1067.617
850.7731, 1067.705
851.2552, 1067.796
851.7374, 1067.796
852.2195, 1067.155
852.7016, 1065.615
853.1837, 1063.997
853.6658, 1063.452
854.1479, 1063.761
854.6301, 1063.972
855.1122, 1064.077
855.5943, 1063.835
856.0764, 1063.109
856.5585, 1062.195
857.0406, 1061.312
857.5228, 1060.509
858.0049, 1060.394
858.4870, 1061.814
858.9691, 1062.492
859.4512, 1061.340
859.9333, 1060.356
860.4155, 1061.232
860.8976, 1062.842
861.3797, 1062.868
861.8618, 1060.633
862.3439, 1058.501
862.8260, 1057.123
863.3082, 1056.546
863.7903, 1057.683
864.2724, 1059.316
864.7545, 1059.042
865.2366, 1056.636
865.7188, 1054.412
866.2009, 1054.237
866.6830, 1055.191
867.1651, 1055.500
867.6472, 1055.292
868.1293, 1055.447
868.6115, 1056.102
869.0936, 1056.806
869.5757, 1057.361
870.0578, 1057.590
870.5399, 1057.024
871.0220, 1055.359
871.5042, 1054.438
871.9863, 1054.690
872.4684, 1055.009
872.9505, 1055.589
873.4326, 1055.712
873.9147, 1054.298
874.3969, 1051.665
874.8790, 1049.879
875.3611, 1049.657
875.8432, 1049.898
876.3253, 1050.465
876.8074, 1051.139
877.2896, 1051.815
877.7717, 1052.426
878.2538, 1052.921
878.7359, 1053.275
879.2180, 1053.317
879.7001, 1052.747
880.1823, 1051.817
880.6644, 1050.666
881.1465, 1049.523
881.6286, 1049.711
882.1107, 1051.513
882.5928, 1052.770
883.0750, 1051.261
883.5571, 1048.389
884.0392, 1049.839
884.5213, 1057.058
885.0034, 1059.761
885.4855, 1055.244
885.9677, 1050.360
886.4498, 1048.446
886.9319, 1048.364
887.4140, 1048.338
887.8961, 1048.380
888.3782, 1048.446
888.8604, 1049.004
889.3425, 1049.004
889.8246, 1047.533
890.3067, 1045.903
890.7888, 1045.513
891.2709, 1046.013
891.7531, 1045.900
892.2352, 1044.436
892.7173, 1042.959
893.1994, 1042.511
893.6815, 1042.449
894.1636, 1041.894
894.6458, 1041.079
895.1279, 1040.774
895.6100, 1041.205
896.0921, 1042.003
896.5742, 1042.980
897.0563, 1043.891
897.5385, 1043.955
898.0206, 1043.239
898.5027, 1042.764
898.9848, 1042.743
899.4669, 1042.561
899.9490, 1041.853
900.4312, 1040.617
900.9133, 1038.595
901.3954, 1035.093
901.8775, 1034.159
902.3596, 1037.636
902.8417, 1040.548
903.3239, 1040.981
903.8060, 1040.515
904.2881, 1040.571
904.7702, 1041.073
905.2523, 1041.451
905.7344, 1042.166
906.2166, 1041.976
906.6987, 1039.675
907.1808, 1037.240
907.6629, 1035.877
908.1450, 1035.510
908.6271, 1036.004
909.1093, 1037.263
909.5914, 1038.325
910.0735, 1038.589
910.5556, 1038.254
911.0377, 1037.278
911.5198, 1035.948
912.0020, 1034.695
912.4841, 1033.690
912.9662, 1033.222
913.4483, 1033.475
913.9304, 1034.365
914.4125, 1036.293
914.8947, 1038.948
915.3768, 1039.585
915.8589, 1038.016
916.3410, 1036.132
916.8231, 1034.506
917.3052, 1033.290
917.7874, 1032.714
918.2695, 1032.715
918.7516, 1032.684
919.2337, 1032.709
919.7158, 1032.468
920.1979, 1031.505
920.6801, 1030.823
921.1622, 1031.274
921.6443, 1032.234
922.1264, 1032.844
922.6085, 1033.133
923.0906, 1032.646
923.5728, 1030.222
924.0549, 1028.368
924.5370, 1028.096
925.0191, 1028.751
925.5012, 1030.303
925.9833, 1032.169
926.4655, 1032.729
926.9476, 1030.923
927.4297, 1029.621
927.9118, 1031.919
928.3939, 1034.882
928.8760, 1035.034
929.3582, 1033.170
929.8403, 1031.475
930.3224, 1030.511
930.8045, 1029.421
931.2866, 1027.358
931.7687, 1025.088
932.2509, 1023.957
932.7330, 1023.896
933.2151, 1024.936
933.6972, 1027.001
934.1793, 1028.528
934.6614, 1028.748
935.1436, 1028.026
935.6257, 1026.744
936.1078, 1024.958
936.5899, 1023.762
937.0720, 1023.284
937.5541, 1022.882
938.0363, 1022.360
938.5184, 1022.028
939.0005, 1022.225
939.4826, 1022.720
939.9647, 1022.858
940.4468, 1022.445
940.9290, 1022.176
941.4111, 1022.183
941.8932, 1022.146
942.3753, 1022.069
942.8574, 1021.834
943.3395, 1021.247
943.8217, 1020.384
944.3038, 1019.576
944.7859, 1018.561
945.2680, 1018.280
945.7501, 1020.028
946.2322, 1021.726
946.7144, 1021.427
947.1965, 1020.124
947.6786, 1019.744
948.1607, 1020.596
948.6428, 1021.205
949.1249, 1020.380
949.6071, 1019.232
950.0892, 1018.905
950.5713, 1019.023
951.0534, 1019.037
951.5355, 1018.868
952.0176, 1018.464
952.4998, 1017.811
952.9819, 1017.354
953.4640, 1017.967
953.9461, 1019.058
954.4282, 1018.446
954.9103, 1016.423
955.3925, 1015.295
955.8746, 1015.541
956.3567, 1016.680
956.8388, 1018.578
957.3209, 1020.425
957.8030, 1020.130
958.2852, 1017.385
958.7673, 1016.188
959.2494, 1016.951
959.7315, 1017.717
960.2136, 1018.106
960.6957, 1017.799
961.1779, 1016.127
961.6600, 1013.526
962.1421, 1012.405
962.6242, 1013.762
963.1063, 1014.634
963.5884, 1015.009
964.0706, 1014.883
964.5527, 1013.594
965.0348, 1012.251
965.5169, 1012.420
965.9990, 1013.972
966.4811, 1014.625
966.9633, 1013.248
967.4454, 1012.094
967.9275, 1011.897
968.4096, 1011.841
968.8917, 1011.173
969.3738, 1010.341
969.8560, 1010.324
970.3381, 1011.267
970.8202, 1011.815
971.3023, 1010.975
971.7844, 1009.932
972.2665, 1009.345
972.7487, 1009.088
973.2308, 1009.024
973.7129, 1009.148
974.1950, 1009.737
974.6771, 1010.892
975.1592, 1011.402
975.6414, 1009.224
976.1235, 1006.458
976.6056, 1006.421
977.0877, 1008.123
977.5698, 1009.260
978.0519, 1009.429
978.5341, 1009.127
979.0162, 1008.611
979.4983, 1008.138
979.9804, 1008.127
980.4625, 1008.472
980.9446, 1008.514
981.4268, 1008.369
981.9089, 1009.843
982.3910, 1013.438
982.8731, 1015.589
983.3552, 1013.113
983.8373, 1008.186
984.3195, 1006.462
984.8016, 1008.115
985.2837, 1009.224
985.7658, 1009.737
986.2479, 1009.135
986.7300, 1006.807
987.2122, 1004.553
987.6943, 1004.261
988.1764, 1005.576
988.6585, 1006.625
989.1406, 1007.553
989.6227, 1007.702
990.1049, 1006.326
990.5870, 1005.536
991.0691, 1006.979
991.5512, 1008.666
992.0333, 1007.653
992.5154, 1004.088
992.9976, 1002.713
993.4797, 1005.558
993.9618, 1007.492
994.4439, 1007.976
994.9260, 1007.825
995.4081, 1006.915
995.8903, 1005.886
996.3724, 1005.744
996.8545, 1006.525
997.3366, 1006.823
997.8187, 1006.051
998.3008, 1005.201
998.7830, 1004.211
999.2651, 1003.561
999.7472, 1003.811
1000.229, 1004.560
1000.711, 1005.155
1001.194, 1005.460
1001.676, 1005.579
1002.158, 1005.298
1002.640, 1005.160
1003.122, 1005.769
1003.604, 1006.460
1004.086, 1006.613
1004.568, 1006.237
1005.050, 1005.365
1005.533, 1004.032
1006.015, 1003.056
1006.497, 1003.224
1006.979, 1003.804
1007.461, 1004.396
1007.943, 1004.755
1008.425, 1004.226
1008.907, 1003.079
1009.390, 1002.350
1009.872, 1002.476
1010.354, 1003.058
1010.836, 1004.000
1011.318, 1004.948
1011.800, 1005.298
1012.282, 1005.187
1012.764, 1004.861
1013.246, 1004.423
1013.729, 1004.122
1014.211, 1004.089
1014.693, 1004.138
1015.175, 1004.076
1015.657, 1003.887
1016.139, 1003.279
1016.621, 1002.446
1017.103, 1002.552
1017.586, 1003.752
1018.068, 1004.998
1018.550, 1005.675
1019.032, 1005.751
1019.514, 1004.898
1019.996, 1003.319
1020.478, 1002.406
1020.960, 1002.160
1021.442, 1002.957
1021.925, 1004.996
1022.407, 1006.011
1022.889, 1004.213
1023.371, 1001.225
1023.853, 1000.439
1024.335, 1001.879
1024.817, 1002.627
1025.299, 1002.596
1025.781, 1002.395
1026.264, 1002.050
1026.746, 1002.134
1027.228, 1003.280
1027.710, 1004.756
1028.192, 1004.643
1028.674, 1002.614
1029.156, 1001.690
1029.638, 1002.329
1030.120, 1002.467
1030.603, 1001.302
1031.085, 1000.146
1031.567, 1000.093
1032.049, 1000.735
1032.531, 1000.955
1033.013, 1000.583
1033.495, 1000.659
1033.977, 1001.769
1034.460, 1002.041
1034.942, 1000.409
1035.424, 998.6898
1035.906, 998.5182
1036.388, 999.2730
1036.870, 999.1107
1037.352, 997.6223
1037.834, 996.6599
1038.317, 996.4388
1038.799, 996.4235
1039.281, 996.5516
1039.763, 996.7839
1040.245, 997.3707
1040.727, 998.0049
1041.209, 997.7000
1041.691, 995.9133
1042.173, 994.9152
1042.656, 995.2803
1043.138, 995.6918
1043.620, 995.6147
1044.102, 995.6630
1044.584, 996.4915
1045.066, 997.7734
1045.548, 998.6483
1046.030, 998.9709
1046.512, 999.2340
1046.995, 999.5914
1047.477, 999.7601
1047.959, 999.7512
1048.441, 999.4385
1048.923, 998.4293
1049.405, 997.1075
1049.887, 996.3681
1050.369, 996.3764
1050.852, 996.6642
1051.334, 997.6940
1051.816, 998.2725
1052.298, 997.6832
1052.780, 996.7640
1053.262, 995.9850
1053.744, 995.4697
1054.226, 995.3076
1054.708, 995.4795
1055.191, 996.2653
1055.673, 998.2223
1056.155, 1000.173
1056.637, 1002.386
1057.119, 1003.750
1057.601, 1002.887
1058.083, 1000.621
1058.565, 998.6222
1059.047, 997.2099
1059.530, 996.0844
1060.012, 994.7102
1060.494, 994.1904
1060.976, 995.9710
1061.458, 997.9033
1061.940, 998.0948
1062.422, 997.1385
1062.904, 996.3007
1063.387, 995.8370
1063.869, 995.8236
1064.351, 996.7202
1064.833, 997.5208
1065.315, 998.1097
1065.797, 998.1149
1066.279, 996.6220
1066.761, 994.5793
1067.244, 993.7404
1067.726, 994.3601
1068.208, 995.0360
1068.690, 995.4121
1069.172, 995.4420
1069.654, 994.5549
1070.136, 993.8356
1070.618, 994.5234
1071.100, 995.8221
1071.583, 996.2364
1072.065, 995.6465
1072.547, 995.3957
1073.029, 996.4364
1073.511, 997.1883
1073.993, 996.6266
1074.475, 995.7601
1074.957, 995.3420
1075.439, 995.1487
1075.922, 994.4665
1076.404, 993.4631
1076.886, 993.6865
1077.368, 996.6957
1077.850, 998.7606
1078.332, 997.4074
1078.814, 995.2607
1079.297, 993.7120
1079.779, 992.8632
1080.261, 992.9910
1080.743, 993.8249
1081.225, 994.3124
1081.707, 994.0320
1082.189, 993.6121
1082.671, 993.0084
1083.153, 992.7267
1083.635, 993.5065
1084.118, 994.4982
1084.600, 994.7463
1085.082, 994.2885
1085.564, 993.5511
1086.046, 992.5626
1086.528, 991.8386
1087.010, 991.8047
1087.492, 991.8535
1087.975, 991.3375
1088.457, 990.9923
1088.939, 992.0576
1089.421, 993.8212
1089.903, 994.3275
1090.385, 993.0304
1090.867, 991.8451
1091.349, 991.3854
1091.832, 991.3450
1092.314, 991.8574
1092.796, 992.4797
1093.278, 992.8257
1093.760, 993.0028
1094.242, 993.3404
1094.724, 993.8822
1095.206, 994.1066
1095.688, 993.1545
1096.171, 992.8117
1096.653, 994.5770
1097.135, 996.2510
1097.617, 996.0812
1098.099, 994.9597
1098.581, 994.2490
1099.063, 994.0867
1099.545, 994.0145
1100.027, 994.3111
1100.510, 994.0234
1100.992, 991.9703
1101.474, 990.3444
1101.956, 990.8522
1102.438, 992.0624
1102.920, 992.0112
1103.402, 990.9944
1103.884, 991.2363
1104.367, 994.0863
1104.849, 995.6871
1105.331, 994.2693
1105.813, 992.8780
1106.295, 992.7331
1106.777, 993.0728
1107.259, 993.7048
1107.741, 994.1787
1108.224, 993.0026
1108.706, 989.1728
1109.188, 987.3218
1109.670, 989.6956
1110.152, 991.5306
1110.634, 991.6705
1111.116, 991.0050
1111.598, 989.6793
1112.080, 988.1312
1112.563, 987.2443
1113.045, 987.1286
1113.527, 986.7564
1114.009, 985.5129
1114.491, 985.0351
1114.973, 986.0931
1115.455, 987.1396
1115.937, 987.4898
1116.419, 987.4109
1116.902, 987.2156
1117.384, 986.9043
1117.866, 986.3873
1118.348, 985.2034
1118.830, 984.9266
1119.312, 985.9592
1119.794, 987.2766
1120.276, 989.0136
1120.759, 990.0517
1121.241, 988.9795
1121.723, 986.5434
1122.205, 985.4282
1122.687, 985.8883
1123.169, 986.5855
1123.651, 987.8957
1124.133, 988.0025
1124.615, 985.9834
1125.098, 984.0706
1125.580, 983.8146
1126.062, 984.6417
1126.544, 985.5475
1127.026, 986.5226
1127.508, 987.1550
1127.990, 987.4557
1128.472, 987.2256
1128.954, 986.3287
1129.437, 985.6777
1129.919, 985.7164
1130.401, 986.2325
1130.883, 987.0361
1131.365, 988.0181
1131.847, 988.8690
1132.329, 989.5613
1132.811, 989.4081
1133.294, 988.3824
1133.776, 987.4708
1134.258, 986.9998
1134.740, 986.9106
1135.222, 987.2489
1135.704, 987.5417
1136.186, 986.4774
1136.668, 984.6006
1137.151, 984.2773
1137.633, 985.2497
1138.115, 986.0160
1138.597, 986.2551
1139.079, 986.2051
1139.561, 985.9909
1140.043, 985.7756
1140.525, 985.6510
1141.007, 985.7288
1141.490, 986.6124
1141.972, 987.7150
1142.454, 987.2486
1142.936, 985.6681
1143.418, 985.4055
1143.900, 987.1450
1144.382, 988.8901
1144.864, 989.1315
1145.346, 988.7001
1145.829, 988.2887
1146.311, 987.8816
1146.793, 987.4299
1147.275, 986.9810
1147.757, 986.6465
1148.239, 986.4244
1148.721, 986.1941
1149.203, 985.8914
1149.686, 985.6602
1150.168, 985.6073
1150.650, 985.6631
1151.132, 986.0013
1151.614, 986.2546
1152.096, 985.7436
1152.578, 984.8617
1153.060, 984.7127
1153.542, 985.5667
1154.025, 986.2501
1154.507, 986.3696
1154.989, 986.2227
1155.471, 985.5944
1155.953, 985.0565
1156.435, 985.1487
1156.917, 985.4411
1157.399, 985.1469
1157.881, 984.3486
1158.364, 984.2327
1158.846, 985.3716
1159.328, 986.3132
1159.810, 987.3231
1160.292, 987.6301
1160.774, 986.4725
1161.256, 985.1368
1161.738, 984.5320
1162.221, 984.5432
1162.703, 984.9503
1163.185, 985.8312
1163.667, 986.4803
1164.149, 986.7839
1164.631, 987.2757
1165.113, 988.3060
1165.595, 988.6412
1166.078, 987.3440
1166.560, 985.8969
1167.042, 986.2717
1167.524, 987.9688
1168.006, 988.5640
1168.488, 988.0121
1168.970, 987.6882
1169.452, 987.6609
1169.934, 987.8874
1170.417, 988.3629
1170.899, 988.8733
1171.381, 989.2986
1171.863, 989.4365
1172.345, 988.7641
1172.827, 987.5605
1173.309, 986.8679
1173.791, 986.5372
1174.273, 985.9064
1174.756, 984.9843
1175.238, 984.2548
1175.720, 983.9232
1176.202, 984.0383
1176.684, 984.6611
1177.166, 985.7084
1177.648, 987.8232
1178.130, 989.7663
1178.613, 989.1349
1179.095, 987.1229
1179.577, 986.4544
1180.059, 987.2753
1180.541, 987.6772
1181.023, 986.7498
1181.505, 985.9046
1181.987, 986.0707
1182.469, 986.5223
1182.952, 987.1750
1183.434, 987.5284
1183.916, 986.8346
1184.398, 985.5859
1184.880, 984.7192
1185.362, 984.3808
1185.844, 984.3882
1186.326, 985.2924
1186.808, 985.6170
1187.291, 984.2230
1187.773, 983.2860
1188.255, 984.6141
1188.737, 986.0779
1189.219, 985.1720
1189.701, 982.8821
1190.183, 982.3400
1190.665, 983.9847
1191.148, 985.1105
1191.630, 985.6751
1192.112, 985.7679
1192.594, 985.1353
1193.076, 984.9565
1193.558, 986.1273
1194.040, 987.1592
1194.522, 985.9202
1195.005, 983.1945
1195.487, 982.4238
1195.969, 983.5233
1196.451, 984.1248
1196.933, 984.1207
1197.415, 983.7437
1197.897, 983.1283
1198.379, 984.0336
1198.861, 987.7770
1199.344, 991.2241
1199.826, 989.1774
1200.308, 984.4862
1200.790, 982.8584
1201.272, 983.2733
1201.754, 983.8541
1202.236, 984.2479
1202.718, 984.1443
1203.200, 983.5829
1203.683, 983.5023
1204.165, 984.6993
1204.647, 985.8863
1205.129, 986.3759
1205.611, 986.1523
1206.093, 984.3719
1206.575, 982.4857
1207.057, 982.5977
1207.540, 984.0793
1208.022, 984.7117
1208.504, 983.9697
1208.986, 983.4492
1209.468, 983.7416
1209.950, 983.9613
1210.432, 983.8531
1210.914, 983.6922
1211.396, 983.2425
1211.879, 983.1478
1212.361, 984.5255
1212.843, 986.7534
1213.325, 987.1661
1213.807, 985.1594
1214.289, 984.3126
1214.771, 984.9217
1215.253, 985.6430
1215.735, 986.3913
1216.218, 986.2473
1216.700, 984.5798
1217.182, 982.4135
1217.664, 980.8347
1218.146, 980.0359
1218.628, 981.2282
1219.110, 983.7759
1219.592, 984.0706
1220.075, 982.4178
1220.557, 981.5447
1221.039, 981.9775
1221.521, 982.4376
1222.003, 982.2269
1222.485, 981.6670
1222.967, 980.6186
1223.449, 979.8596
1223.932, 980.8390
1224.414, 982.2302
1224.896, 982.0635
1225.378, 981.0001
1225.860, 980.6370
1226.342, 981.1815
1226.824, 981.8593
1227.306, 982.6038
1227.788, 982.8858
1228.271, 981.7522
1228.753, 981.1326
1229.235, 982.5869
1229.717, 984.1533
1230.199, 984.2736
1230.681, 983.4091
1231.163, 982.2253
1231.645, 980.7523
1232.127, 980.4991
1232.610, 982.0588
1233.092, 982.9662
1233.574, 982.8953
1234.056, 983.0374
1234.538, 983.9097
1235.020, 984.1761
1235.502, 982.6038
1235.984, 980.9683
1236.467, 983.0253
1236.949, 987.3461
1237.431, 987.3538
1237.913, 984.0438
1238.395, 981.3272
1238.877, 979.7976
1239.359, 980.1547
1239.841, 982.2872
1240.323, 983.9305
1240.806, 983.5168
1241.288, 982.6962
1241.770, 983.1845
1242.252, 983.8747
1242.734, 983.8562
1243.216, 983.2431
1243.698, 981.6981
1244.180, 979.9154
1244.662, 979.3622
1245.145, 980.1999
1245.627, 980.9708
1246.109, 981.5018
1246.591, 981.5897
1247.073, 980.3940
1247.555, 979.8751
1248.037, 981.3414
1248.519, 982.9325
1249.002, 983.4854
1249.484, 983.1628
1249.966, 982.0352
1250.448, 980.2175
1250.930, 979.8173
1251.412, 981.0058
1251.894, 981.6300
1252.376, 981.4951
1252.859, 981.8312
1253.341, 982.9991
1253.823, 983.8074
1254.305, 983.3880
1254.787, 982.7136
1255.269, 983.2029
1255.751, 984.2966
1256.233, 985.2988
1256.715, 985.9440
1257.198, 985.1179
1257.680, 983.6916
1258.162, 984.3522
1258.644, 987.0957
1259.126, 988.3806
1259.608, 986.1259
1260.090, 984.5689
1260.572, 986.5574
1261.054, 988.5562
1261.537, 989.2204
1262.019, 988.9139
1262.501, 987.2325
1262.983, 985.2145
1263.465, 984.3294
1263.947, 984.5480
1264.429, 985.7339
1264.911, 988.6611
1265.394, 989.6453
1265.876, 988.0588
1266.358, 987.4075
1266.840, 988.6301
1267.322, 989.6368
1267.804, 989.2399
1268.286, 988.3878
1268.768, 988.0942
1269.250, 988.4320
1269.733, 990.1961
1270.215, 992.4561
1270.697, 992.6329
1271.179, 991.3389
1271.661, 990.4004
1272.143, 990.0887
1272.625, 989.8336
1273.107, 989.4238
1273.589, 989.3337
1274.072, 990.2885
1274.554, 991.0202
1275.036, 990.8620
1275.518, 990.3055
1276.000, 989.1238
1276.482, 988.1335
1276.964, 988.4723
1277.446, 989.8555
1277.929, 990.9554
1278.411, 991.8102
1278.893, 991.9421
1279.375, 991.0480
1279.857, 990.6389
1280.339, 990.9123
1280.821, 991.6036
1281.303, 992.7520
1281.786, 993.9520
1282.268, 994.7917
##END=



