##NAMES=Khanneshite
##RRUFFID=R070672
##IDEAL CHEMISTRY=(Na,Ca)_3_(Ba,Sr,Ce,Ca)_3_(CO_3_)_5_
##LOCALITY=Tuliylukht Bay, Khibiny Massif, Kola Peninsula, Murmanskaja Oblast', Northern Region, Russia
##OWNER=RRUFF
##SOURCE=Michael Scott
##DESCRIPTION=Vitreous orange massive on single grain
##STATUS=The identification of this mineral is not yet confirmed.
##URL=rruff.info/R070672
200.2855, 5131.283
200.7676, 5104.478
201.2497, 5089.188
201.7318, 5088.337
202.2139, 5099.553
202.6961, 5120.087
203.1782, 5153.112
203.6603, 5183.036
204.1424, 5195.783
204.6245, 5187.680
205.1066, 5188.618
205.5888, 5207.877
206.0709, 5239.054
206.5530, 5247.840
207.0351, 5228.063
207.5172, 5201.125
207.9993, 5185.361
208.4815, 5182.809
208.9636, 5183.676
209.4457, 5187.058
209.9278, 5192.844
210.4099, 5196.696
210.8920, 5197.312
211.3742, 5198.076
211.8563, 5203.626
212.3384, 5216.148
212.8205, 5226.663
213.3026, 5232.537
213.7847, 5233.344
214.2669, 5233.657
214.7490, 5234.664
215.2311, 5233.865
215.7132, 5227.359
216.1953, 5214.606
216.6774, 5197.484
217.1596, 5174.335
217.6417, 5141.217
218.1238, 5120.203
218.6059, 5115.395
219.0880, 5120.396
219.5701, 5122.140
220.0523, 5120.579
220.5344, 5115.923
221.0165, 5106.896
221.4986, 5089.136
221.9807, 5078.625
222.4628, 5076.177
222.9450, 5080.910
223.4271, 5091.717
223.9092, 5114.398
224.3913, 5133.750
224.8734, 5142.008
225.3555, 5140.593
225.8377, 5123.565
226.3198, 5084.349
226.8019, 5027.715
227.2840, 4979.796
227.7661, 4941.893
228.2482, 4911.574
228.7303, 4889.364
229.2125, 4883.033
229.6946, 4868.147
230.1767, 4837.446
230.6588, 4792.114
231.1409, 4760.756
231.6230, 4752.033
232.1052, 4747.959
232.5873, 4732.002
233.0694, 4697.025
233.5515, 4664.727
234.0336, 4639.684
234.5157, 4622.282
234.9979, 4605.546
235.4800, 4590.046
235.9621, 4574.585
236.4442, 4557.510
236.9263, 4537.174
237.4084, 4518.284
237.8906, 4502.705
238.3727, 4491.765
238.8548, 4474.886
239.3369, 4444.732
239.8190, 4413.918
240.3011, 4401.488
240.7833, 4420.979
241.2654, 4436.745
241.7475, 4437.444
242.2296, 4418.261
242.7117, 4402.607
243.1938, 4391.608
243.6760, 4383.456
244.1581, 4376.200
244.6402, 4375.726
245.1223, 4366.546
245.6044, 4339.218
246.0865, 4278.928
246.5687, 4243.748
247.0508, 4246.254
247.5329, 4269.100
248.0150, 4273.068
248.4971, 4248.246
248.9792, 4219.118
249.4614, 4196.567
249.9435, 4183.765
250.4256, 4168.963
250.9077, 4150.475
251.3898, 4130.300
251.8719, 4114.059
252.3541, 4101.747
252.8362, 4093.466
253.3183, 4091.212
253.8004, 4102.380
254.2825, 4100.868
254.7646, 4079.987
255.2468, 4046.128
255.7289, 4024.707
256.2110, 4024.567
256.6931, 4023.613
257.1752, 4006.902
257.6573, 3964.582
258.1395, 3931.998
258.6216, 3912.887
259.1037, 3905.617
259.5858, 3903.691
260.0679, 3912.126
260.5500, 3917.809
261.0322, 3909.343
261.5143, 3878.445
261.9964, 3857.326
262.4785, 3854.666
262.9606, 3865.887
263.4427, 3858.225
263.9249, 3819.742
264.4070, 3781.760
264.8891, 3771.112
265.3712, 3799.352
265.8533, 3819.639
266.3354, 3822.772
266.8176, 3811.343
267.2997, 3808.687
267.7818, 3820.747
268.2639, 3830.924
268.7460, 3821.718
269.2281, 3786.303
269.7103, 3757.399
270.1924, 3743.032
270.6745, 3741.442
271.1566, 3735.444
271.6387, 3724.816
272.1208, 3710.400
272.6030, 3691.961
273.0851, 3668.217
273.5672, 3646.274
274.0493, 3626.920
274.5314, 3610.380
275.0135, 3602.380
275.4957, 3608.018
275.9778, 3610.083
276.4599, 3585.835
276.9420, 3530.349
277.4241, 3480.560
277.9063, 3447.788
278.3884, 3429.725
278.8705, 3409.748
279.3526, 3387.730
279.8347, 3364.133
280.3168, 3337.917
280.7990, 3308.529
281.2811, 3283.575
281.7632, 3268.749
282.2453, 3261.435
282.7274, 3240.687
283.2095, 3202.778
283.6917, 3164.554
284.1738, 3148.303
284.6559, 3154.313
285.1380, 3159.176
285.6201, 3155.299
286.1022, 3143.976
286.5844, 3130.048
287.0665, 3112.384
287.5486, 3096.937
288.0307, 3094.240
288.5128, 3103.310
288.9949, 3107.058
289.4771, 3096.962
289.9591, 3076.467
290.4413, 3058.057
290.9234, 3041.721
291.4055, 3028.289
291.8876, 3019.841
292.3697, 3015.826
292.8518, 3012.451
293.3340, 3010.799
293.8161, 3008.569
294.2982, 2997.152
294.7803, 2975.433
295.2624, 2952.725
295.7445, 2940.349
296.2267, 2936.009
296.7088, 2930.014
297.1909, 2916.904
297.6730, 2899.655
298.1551, 2884.362
298.6372, 2870.813
299.1194, 2860.250
299.6015, 2857.936
300.0836, 2860.437
300.5657, 2857.821
301.0478, 2844.210
301.5299, 2823.571
302.0121, 2800.497
302.4942, 2774.651
302.9763, 2749.897
303.4584, 2726.811
303.9405, 2707.141
304.4226, 2694.142
304.9048, 2697.665
305.3869, 2704.499
305.8690, 2696.688
306.3511, 2673.382
306.8332, 2650.218
307.3153, 2647.551
307.7975, 2652.457
308.2796, 2643.214
308.7617, 2591.610
309.2438, 2533.879
309.7259, 2504.840
310.2080, 2505.086
310.6902, 2509.271
311.1723, 2506.921
311.6544, 2496.931
312.1365, 2477.776
312.6186, 2436.264
313.1007, 2394.900
313.5829, 2370.797
314.0650, 2364.711
314.5471, 2359.042
315.0292, 2344.273
315.5113, 2325.121
315.9934, 2306.915
316.4756, 2288.141
316.9577, 2273.515
317.4398, 2268.893
317.9219, 2274.229
318.4040, 2273.616
318.8861, 2256.144
319.3683, 2231.850
319.8504, 2210.286
320.3325, 2193.865
320.8146, 2180.719
321.2967, 2172.889
321.7788, 2170.237
322.2610, 2162.655
322.7431, 2142.825
323.2252, 2119.676
323.7073, 2100.323
324.1894, 2084.785
324.6715, 2074.383
325.1537, 2073.469
325.6358, 2081.511
326.1179, 2081.707
326.6000, 2059.242
327.0821, 2035.994
327.5642, 2026.911
328.0464, 2055.818
328.5285, 2073.067
329.0106, 2068.612
329.4927, 2044.292
329.9748, 2025.824
330.4569, 2018.485
330.9391, 2012.641
331.4212, 2001.943
331.9033, 1981.019
332.3854, 1964.077
332.8675, 1954.500
333.3496, 1950.696
333.8318, 1940.995
334.3139, 1918.400
334.7960, 1899.190
335.2781, 1895.859
335.7602, 1919.820
336.2423, 1930.559
336.7245, 1919.473
337.2066, 1893.672
337.6887, 1880.431
338.1708, 1883.845
338.6529, 1891.107
339.1350, 1895.949
339.6172, 1898.712
340.0993, 1895.922
340.5814, 1884.040
341.0635, 1868.971
341.5456, 1867.140
342.0277, 1881.087
342.5099, 1896.619
342.9920, 1906.981
343.4741, 1912.262
343.9562, 1911.091
344.4383, 1901.795
344.9204, 1888.773
345.4026, 1879.321
345.8847, 1873.494
346.3668, 1869.817
346.8489, 1869.286
347.3310, 1870.680
347.8131, 1868.141
348.2953, 1836.602
348.7774, 1864.089
349.2595, 1878.299
349.7416, 1879.948
350.2237, 1831.272
350.7058, 1847.688
351.1880, 1838.083
351.6701, 1827.457
352.1522, 1853.168
352.6343, 1812.053
353.1164, 1837.283
353.5985, 1836.095
354.0807, 1847.065
354.5628, 1831.856
355.0449, 1824.794
355.5270, 1844.016
356.0091, 1848.757
356.4912, 1830.716
356.9734, 1842.739
357.4555, 1801.178
357.9376, 1806.726
358.4197, 1832.626
358.9018, 1816.139
359.3839, 1828.876
359.8661, 1830.548
360.3482, 1781.766
360.8303, 1820.857
361.3124, 1822.013
361.7945, 1784.217
362.2766, 1820.440
362.7588, 1788.115
363.2409, 1780.320
363.7230, 1790.999
364.2051, 1782.517
364.6872, 1804.366
365.1693, 1797.086
365.6515, 1787.247
366.1336, 1788.831
366.6157, 1758.226
367.0978, 1787.471
367.5799, 1775.913
368.0620, 1784.708
368.5442, 1798.152
369.0263, 1776.401
369.5084, 1792.007
369.9905, 1749.801
370.4726, 1756.055
370.9547, 1757.143
371.4369, 1789.222
371.9190, 1747.486
372.4011, 1752.583
372.8832, 1777.648
373.3653, 1774.885
373.8474, 1783.824
374.3295, 1758.309
374.8116, 1765.252
375.2938, 1763.309
375.7759, 1792.283
376.2580, 1796.933
376.7401, 1772.238
377.2222, 1747.715
377.7043, 1779.099
378.1865, 1757.585
378.6686, 1764.681
379.1507, 1742.325
379.6328, 1745.486
380.1149, 1748.291
380.5970, 1764.199
381.0792, 1740.562
381.5613, 1768.330
382.0434, 1766.461
382.5255, 1773.383
383.0076, 1779.379
383.4897, 1745.591
383.9719, 1744.502
384.4540, 1790.182
384.9361, 1764.656
385.4182, 1753.557
385.9003, 1752.730
386.3824, 1800.198
386.8646, 1802.867
387.3467, 1751.976
387.8288, 1797.460
388.3109, 1783.728
388.7930, 1787.654
389.2751, 1791.334
389.7573, 1791.451
390.2394, 1781.410
390.7215, 1773.931
391.2036, 1778.492
391.6857, 1787.542
392.1678, 1794.758
392.6500, 1799.425
393.1321, 1801.043
393.6142, 1793.651
394.0963, 1783.135
394.5784, 1781.177
395.0605, 1805.182
395.5427, 1828.047
396.0248, 1835.329
396.5069, 1821.197
396.9890, 1807.900
397.4711, 1797.185
397.9532, 1791.006
398.4354, 1791.660
398.9175, 1809.351
399.3996, 1823.956
399.8817, 1829.951
400.3638, 1826.421
400.8459, 1823.171
401.3281, 1817.254
401.8102, 1813.783
402.2923, 1817.893
402.7744, 1836.556
403.2565, 1850.007
403.7386, 1854.480
404.2208, 1851.168
404.7029, 1848.091
405.1850, 1844.994
405.6671, 1842.632
406.1492, 1840.792
406.6313, 1838.786
407.1135, 1842.257
407.5956, 1853.610
408.0777, 1868.914
408.5598, 1878.928
409.0419, 1883.305
409.5240, 1885.435
410.0062, 1888.375
410.4883, 1891.200
410.9704, 1887.110
411.4525, 1874.691
411.9346, 1859.232
412.4167, 1844.809
412.8989, 1832.464
413.3810, 1826.413
413.8631, 1835.031
414.3452, 1848.912
414.8273, 1853.450
415.3094, 1848.237
415.7916, 1837.848
416.2737, 1821.163
416.7558, 1802.717
417.2379, 1789.343
417.7200, 1786.593
418.2021, 1787.346
418.6843, 1787.324
419.1664, 1786.680
419.6485, 1786.198
420.1306, 1784.603
420.6127, 1784.300
421.0948, 1787.863
421.5770, 1803.176
422.0591, 1811.646
422.5412, 1802.418
423.0233, 1781.822
423.5054, 1767.436
423.9875, 1763.326
424.4697, 1765.208
424.9518, 1773.567
425.4339, 1797.659
425.9160, 1806.435
426.3981, 1788.406
426.8802, 1759.652
427.3624, 1742.186
427.8445, 1738.444
428.3266, 1742.429
428.8087, 1757.027
429.2908, 1783.026
429.7729, 1791.133
430.2551, 1773.355
430.7372, 1751.198
431.2193, 1745.819
431.7014, 1759.853
432.1835, 1773.928
432.6656, 1785.989
433.1478, 1794.868
433.6299, 1794.763
434.1120, 1785.037
434.5941, 1775.296
435.0762, 1773.111
435.5583, 1776.783
436.0405, 1779.104
436.5226, 1779.495
437.0047, 1777.389
437.4868, 1769.092
437.9689, 1756.788
438.4510, 1748.589
438.9332, 1756.014
439.4153, 1766.490
439.8974, 1760.854
440.3795, 1736.536
440.8616, 1716.410
441.3438, 1720.367
441.8259, 1737.618
442.3080, 1753.560
442.7901, 1768.899
443.2722, 1776.289
443.7543, 1765.991
444.2365, 1740.555
444.7186, 1723.166
445.2007, 1724.484
445.6828, 1734.358
446.1649, 1746.544
446.6470, 1769.602
447.1292, 1782.307
447.6113, 1774.994
448.0934, 1755.582
448.5755, 1745.702
449.0576, 1754.148
449.5397, 1761.991
450.0219, 1761.403
450.5040, 1748.285
450.9861, 1744.784
451.4682, 1755.967
451.9503, 1771.133
452.4324, 1774.955
452.9146, 1764.174
453.3967, 1756.698
453.8788, 1759.369
454.3609, 1769.238
454.8430, 1768.789
455.3251, 1756.320
455.8072, 1745.434
456.2893, 1748.880
456.7715, 1764.562
457.2536, 1783.159
457.7357, 1806.396
458.2178, 1825.424
458.6999, 1820.341
459.1820, 1797.058
459.6642, 1781.406
460.1463, 1802.955
460.6284, 1834.224
461.1105, 1836.965
461.5926, 1803.724
462.0747, 1770.554
462.5569, 1764.090
463.0390, 1772.401
463.5211, 1779.030
464.0032, 1778.518
464.4853, 1774.556
464.9674, 1767.620
465.4496, 1758.062
465.9317, 1748.671
466.4138, 1733.806
466.8959, 1723.606
467.3780, 1724.287
467.8601, 1753.365
468.3423, 1772.429
468.8244, 1777.818
469.3065, 1772.961
469.7886, 1765.613
470.2707, 1751.213
470.7528, 1741.605
471.2350, 1742.964
471.7171, 1757.544
472.1992, 1764.856
472.6813, 1761.999
473.1634, 1756.756
473.6455, 1761.077
474.1277, 1775.819
474.6098, 1782.458
475.0919, 1772.307
475.5740, 1753.141
476.0561, 1748.980
476.5382, 1759.665
477.0204, 1769.398
477.5025, 1763.374
477.9846, 1748.058
478.4667, 1736.622
478.9488, 1730.739
479.4309, 1730.418
479.9131, 1740.080
480.3952, 1755.523
480.8773, 1767.069
481.3594, 1764.891
481.8415, 1760.828
482.3236, 1764.755
482.8058, 1777.636
483.2879, 1786.745
483.7700, 1783.708
484.2521, 1776.133
484.7342, 1770.761
485.2163, 1764.860
485.6985, 1765.894
486.1806, 1780.968
486.6627, 1805.879
487.1448, 1820.277
487.6269, 1817.674
488.1090, 1811.746
488.5912, 1807.657
489.0733, 1805.653
489.5554, 1805.493
490.0375, 1809.605
490.5196, 1812.685
491.0017, 1804.487
491.4839, 1782.341
491.9660, 1766.615
492.4481, 1764.380
492.9302, 1772.736
493.4123, 1779.247
493.8944, 1783.755
494.3766, 1791.666
494.8587, 1816.236
495.3408, 1847.643
495.8229, 1857.434
496.3050, 1834.204
496.7871, 1804.184
497.2693, 1796.760
497.7514, 1804.701
498.2335, 1809.934
498.7156, 1793.834
499.1977, 1778.719
499.6798, 1786.420
500.1620, 1819.962
500.6441, 1843.459
501.1262, 1834.180
501.6083, 1812.278
502.0904, 1795.371
502.5725, 1792.111
503.0547, 1788.410
503.5368, 1781.031
504.0189, 1771.304
504.5010, 1764.405
504.9831, 1760.653
505.4652, 1759.447
505.9474, 1761.086
506.4295, 1766.399
506.9116, 1770.846
507.3937, 1774.541
507.8758, 1777.246
508.3579, 1779.053
508.8401, 1780.078
509.3222, 1777.844
509.8043, 1768.984
510.2864, 1757.926
510.7685, 1758.715
511.2506, 1771.034
511.7328, 1784.775
512.2148, 1795.638
512.6970, 1802.165
513.1791, 1800.201
513.6612, 1787.305
514.1433, 1773.519
514.6254, 1765.166
515.1075, 1762.254
515.5897, 1764.793
516.0718, 1781.770
516.5539, 1796.546
517.0360, 1796.409
517.5181, 1782.141
518.0002, 1774.762
518.4824, 1789.425
518.9645, 1806.760
519.4466, 1814.444
519.9287, 1801.083
520.4108, 1792.033
520.8929, 1789.278
521.3751, 1790.375
521.8572, 1790.973
522.3393, 1791.390
522.8214, 1790.620
523.3035, 1788.176
523.7856, 1784.122
524.2678, 1778.420
524.7499, 1769.869
525.2320, 1764.471
525.7141, 1771.163
526.1962, 1787.672
526.6783, 1798.104
527.1605, 1797.870
527.6426, 1793.510
528.1247, 1796.375
528.6068, 1803.812
529.0889, 1806.144
529.5710, 1787.702
530.0532, 1767.856
530.5353, 1770.966
531.0174, 1799.734
531.4995, 1819.714
531.9816, 1800.222
532.4637, 1769.218
532.9459, 1752.514
533.4280, 1771.647
533.9101, 1788.590
534.3922, 1793.948
534.8743, 1791.316
535.3564, 1792.653
535.8386, 1804.048
536.3207, 1812.642
536.8028, 1812.999
537.2849, 1803.464
537.7670, 1798.140
538.2491, 1798.078
538.7313, 1800.333
539.2134, 1803.022
539.6955, 1806.363
540.1776, 1805.069
540.6597, 1795.618
541.1418, 1784.116
541.6240, 1785.335
542.1061, 1797.828
542.5882, 1809.053
543.0703, 1809.959
543.5524, 1805.549
544.0345, 1803.755
544.5167, 1805.348
544.9988, 1805.303
545.4809, 1793.341
545.9630, 1780.216
546.4451, 1778.436
546.9272, 1805.499
547.4094, 1829.966
547.8915, 1842.000
548.3736, 1843.165
548.8557, 1839.380
549.3378, 1827.702
549.8199, 1814.622
550.3021, 1800.749
550.7842, 1783.641
551.2663, 1778.452
551.7484, 1792.313
552.2305, 1809.235
552.7126, 1810.104
553.1948, 1790.862
553.6769, 1783.775
554.1590, 1799.137
554.6411, 1824.794
555.1232, 1829.673
555.6053, 1814.846
556.0875, 1801.423
556.5696, 1802.408
557.0517, 1812.448
557.5338, 1824.732
558.0159, 1839.235
558.4980, 1848.526
558.9802, 1845.022
559.4623, 1833.516
559.9444, 1819.654
560.4265, 1796.005
560.9086, 1781.762
561.3907, 1793.997
561.8729, 1822.132
562.3550, 1837.466
562.8371, 1816.300
563.3192, 1799.107
563.8013, 1802.903
564.2834, 1832.163
564.7656, 1846.833
565.2477, 1839.564
565.7298, 1827.032
566.2119, 1824.661
566.6940, 1835.058
567.1761, 1839.292
567.6583, 1833.176
568.1404, 1822.491
568.6225, 1818.283
569.1046, 1820.137
569.5867, 1822.992
570.0688, 1825.479
570.5510, 1827.058
571.0331, 1825.534
571.5152, 1821.154
571.9973, 1818.833
572.4794, 1824.486
572.9615, 1832.953
573.4437, 1838.428
573.9258, 1837.496
574.4079, 1837.872
574.8900, 1844.390
575.3721, 1853.835
575.8542, 1860.327
576.3364, 1858.969
576.8185, 1858.998
577.3006, 1863.416
577.7827, 1871.973
578.2648, 1877.250
578.7469, 1878.960
579.2291, 1877.846
579.7112, 1871.937
580.1933, 1860.315
580.6754, 1859.627
581.1575, 1873.651
581.6396, 1890.674
582.1218, 1893.425
582.6039, 1884.418
583.0860, 1875.301
583.5681, 1869.859
584.0502, 1866.698
584.5323, 1863.548
585.0145, 1860.897
585.4966, 1861.068
585.9787, 1869.430
586.4608, 1878.310
586.9429, 1881.663
587.4250, 1877.577
587.9072, 1872.923
588.3893, 1867.738
588.8714, 1863.655
589.3535, 1862.496
589.8356, 1866.551
590.3177, 1870.015
590.7999, 1871.777
591.2820, 1872.744
591.7641, 1875.979
592.2462, 1882.132
592.7283, 1888.221
593.2104, 1893.388
593.6926, 1897.506
594.1747, 1899.171
594.6568, 1898.216
595.1389, 1896.590
595.6210, 1895.717
596.1031, 1895.513
596.5853, 1895.753
597.0674, 1896.198
597.5495, 1897.576
598.0316, 1902.733
598.5137, 1909.027
598.9958, 1911.439
599.4780, 1898.404
599.9601, 1890.615
600.4422, 1901.749
600.9243, 1930.906
601.4064, 1946.726
601.8885, 1937.375
602.3707, 1923.592
602.8528, 1914.647
603.3349, 1911.082
603.8170, 1911.203
604.2991, 1915.904
604.7813, 1922.727
605.2634, 1928.308
605.7455, 1932.650
606.2276, 1939.407
606.7097, 1951.444
607.1918, 1963.974
607.6740, 1968.632
608.1561, 1966.432
608.6382, 1962.203
609.1203, 1956.427
609.6024, 1951.464
610.0845, 1950.579
610.5667, 1954.135
611.0488, 1956.527
611.5309, 1950.241
612.0130, 1944.747
612.4951, 1947.692
612.9772, 1970.415
613.4594, 1987.223
613.9415, 1996.373
614.4236, 1999.358
614.9057, 1998.228
615.3878, 1991.471
615.8699, 1984.321
616.3521, 1977.439
616.8342, 1971.267
617.3163, 1969.483
617.7984, 1972.375
618.2805, 1973.971
618.7626, 1965.503
619.2448, 1953.536
619.7269, 1956.133
620.2090, 1976.423
620.6911, 1993.947
621.1732, 1988.834
621.6553, 1972.574
622.1375, 1959.991
622.6196, 1958.518
623.1017, 1957.786
623.5838, 1952.057
624.0659, 1944.583
624.5480, 1943.643
625.0302, 1953.101
625.5123, 1965.821
625.9944, 1983.302
626.4765, 2004.947
626.9586, 2011.634
627.4407, 1998.529
627.9229, 1983.580
628.4050, 1979.995
628.8871, 1986.843
629.3692, 1995.469
629.8513, 2006.422
630.3334, 2013.643
630.8156, 2008.305
631.2977, 1994.406
631.7798, 1980.270
632.2619, 1964.865
632.7440, 1954.914
633.2261, 1959.628
633.7083, 1974.196
634.1904, 1984.359
634.6725, 1979.410
635.1546, 1975.084
635.6367, 1979.168
636.1188, 1993.273
636.6010, 2001.668
637.0831, 2002.437
637.5652, 2000.085
638.0473, 1996.137
638.5294, 1989.475
639.0115, 1990.227
639.4937, 2000.924
639.9758, 2014.007
640.4579, 2019.104
640.9400, 2017.386
641.4221, 2014.210
641.9042, 2008.748
642.3864, 2005.759
642.8685, 2013.779
643.3506, 2029.560
643.8327, 2042.384
644.3148, 2043.844
644.7969, 2043.685
645.2791, 2048.441
645.7612, 2059.015
646.2433, 2066.060
646.7254, 2068.768
647.2075, 2066.981
647.6896, 2059.238
648.1718, 2040.106
648.6539, 2030.491
649.1360, 2033.695
649.6181, 2041.601
650.1002, 2041.410
650.5823, 2033.638
651.0645, 2031.146
651.5466, 2039.058
652.0287, 2051.602
652.5108, 2061.960
652.9929, 2069.614
653.4750, 2072.066
653.9572, 2061.135
654.4393, 2049.933
654.9214, 2049.830
655.4035, 2061.131
655.8856, 2069.912
656.3677, 2071.620
656.8499, 2069.676
657.3320, 2065.491
657.8141, 2056.488
658.2962, 2052.550
658.7783, 2056.750
659.2604, 2062.377
659.7426, 2058.236
660.2246, 2042.540
660.7067, 2039.257
661.1888, 2056.595
661.6710, 2083.169
662.1531, 2101.534
662.6352, 2112.094
663.1173, 2116.600
663.5994, 2111.607
664.0815, 2103.970
664.5637, 2100.086
665.0458, 2099.654
665.5279, 2098.787
666.0100, 2091.519
666.4921, 2086.680
666.9742, 2090.637
667.4564, 2109.192
667.9385, 2120.894
668.4206, 2121.782
668.9027, 2119.822
669.3848, 2122.950
669.8669, 2132.310
670.3491, 2139.518
670.8312, 2143.644
671.3133, 2145.148
671.7954, 2143.563
672.2775, 2139.569
672.7596, 2136.559
673.2418, 2133.770
673.7239, 2134.379
674.2060, 2146.039
674.6881, 2165.206
675.1702, 2178.228
675.6523, 2169.814
676.1345, 2161.116
676.6166, 2163.506
677.0987, 2178.994
677.5808, 2197.154
678.0629, 2220.573
678.5450, 2243.295
679.0272, 2261.012
679.5093, 2272.903
679.9914, 2284.158
680.4735, 2294.600
680.9556, 2305.287
681.4377, 2318.162
681.9199, 2332.758
682.4020, 2345.258
682.8841, 2351.308
683.3662, 2360.864
683.8483, 2393.206
684.3304, 2437.562
684.8126, 2469.366
685.2947, 2463.432
685.7768, 2455.852
686.2589, 2465.331
686.7410, 2490.812
687.2231, 2508.107
687.7053, 2505.339
688.1874, 2507.013
688.6695, 2526.464
689.1516, 2566.293
689.6337, 2594.237
690.1158, 2608.956
690.5980, 2617.736
691.0801, 2625.865
691.5622, 2633.765
692.0443, 2643.197
692.5264, 2655.286
693.0085, 2665.688
693.4907, 2669.917
693.9728, 2669.793
694.4549, 2668.273
694.9370, 2658.762
695.4191, 2656.157
695.9012, 2669.021
696.3834, 2692.770
696.8655, 2714.397
697.3476, 2737.685
697.8297, 2751.683
698.3118, 2749.473
698.7939, 2734.268
699.2761, 2733.496
699.7582, 2749.537
700.2403, 2764.051
700.7224, 2758.403
701.2045, 2743.272
701.6866, 2753.088
702.1688, 2789.776
702.6509, 2822.221
703.1330, 2822.301
703.6151, 2807.639
704.0972, 2795.614
704.5793, 2787.940
705.0615, 2787.285
705.5436, 2798.417
706.0257, 2815.310
706.5078, 2830.972
706.9899, 2847.136
707.4720, 2857.863
707.9542, 2861.070
708.4363, 2859.597
708.9184, 2858.774
709.4005, 2858.614
709.8826, 2860.358
710.3647, 2865.865
710.8469, 2872.615
711.3290, 2875.528
711.8111, 2875.385
712.2932, 2875.534
712.7753, 2884.345
713.2574, 2889.092
713.7396, 2877.746
714.2217, 2848.068
714.7038, 2824.424
715.1859, 2813.294
715.6680, 2808.141
716.1501, 2808.280
716.6323, 2819.637
717.1144, 2810.842
717.5965, 2774.895
718.0786, 2735.025
718.5607, 2719.872
719.0428, 2724.946
719.5250, 2722.231
720.0071, 2704.951
720.4892, 2683.478
720.9713, 2665.897
721.4534, 2652.743
721.9355, 2645.320
722.4177, 2649.862
722.8998, 2654.093
723.3819, 2654.972
723.8640, 2652.196
724.3461, 2644.986
724.8282, 2634.586
725.3104, 2617.710
725.7925, 2591.291
726.2746, 2557.015
726.7567, 2526.052
727.2388, 2497.969
727.7209, 2479.783
728.2031, 2483.202
728.6852, 2497.944
729.1673, 2499.762
729.6494, 2488.130
730.1315, 2475.310
730.6136, 2474.864
731.0958, 2474.167
731.5779, 2459.612
732.0600, 2420.654
732.5421, 2393.880
733.0242, 2392.355
733.5063, 2402.001
733.9885, 2413.013
734.4706, 2426.796
734.9527, 2436.959
735.4348, 2442.704
735.9169, 2445.233
736.3990, 2446.090
736.8812, 2445.315
737.3633, 2442.919
737.8454, 2438.202
738.3275, 2432.945
738.8096, 2428.351
739.2917, 2424.645
739.7739, 2422.352
740.2560, 2420.682
740.7381, 2421.448
741.2202, 2427.131
741.7023, 2436.820
742.1844, 2442.624
742.6666, 2442.395
743.1487, 2442.237
743.6308, 2445.243
744.1129, 2450.800
744.5950, 2451.280
745.0771, 2446.271
745.5593, 2443.099
746.0414, 2448.738
746.5235, 2459.390
747.0056, 2471.091
747.4877, 2483.913
747.9698, 2490.168
748.4520, 2477.470
748.9341, 2461.269
749.4162, 2455.136
749.8983, 2468.800
750.3804, 2476.793
750.8625, 2474.911
751.3447, 2470.350
751.8268, 2470.407
752.3089, 2475.328
752.7910, 2484.500
753.2731, 2500.554
753.7552, 2513.867
754.2374, 2502.015
754.7195, 2474.705
755.2016, 2459.906
755.6837, 2472.769
756.1658, 2495.205
756.6479, 2521.821
757.1301, 2548.349
757.6122, 2563.635
758.0943, 2555.540
758.5764, 2546.800
759.0585, 2542.255
759.5406, 2541.443
760.0228, 2541.641
760.5049, 2541.927
760.9870, 2547.575
761.4691, 2566.109
761.9512, 2590.946
762.4333, 2596.832
762.9155, 2585.481
763.3976, 2574.186
763.8797, 2574.837
764.3618, 2580.991
764.8439, 2588.067
765.3260, 2595.775
765.8082, 2600.886
766.2903, 2600.292
766.7724, 2598.456
767.2545, 2597.666
767.7366, 2597.576
768.2188, 2600.331
768.7009, 2607.018
769.1830, 2613.891
769.6651, 2615.878
770.1472, 2614.516
770.6293, 2617.316
771.1115, 2625.554
771.5936, 2636.993
772.0757, 2655.841
772.5578, 2674.448
773.0399, 2681.460
773.5220, 2664.077
774.0042, 2650.104
774.4863, 2646.946
774.9684, 2651.278
775.4505, 2658.334
775.9326, 2668.573
776.4147, 2680.972
776.8969, 2697.225
777.3790, 2713.080
777.8611, 2717.243
778.3432, 2711.447
778.8253, 2706.854
779.3074, 2706.882
779.7896, 2711.314
780.2717, 2723.881
780.7538, 2741.159
781.2359, 2752.745
781.7180, 2749.737
782.2001, 2745.697
782.6823, 2744.976
783.1644, 2747.419
783.6465, 2752.698
784.1286, 2762.587
784.6107, 2770.943
785.0928, 2775.616
785.5750, 2776.585
786.0571, 2769.813
786.5392, 2756.038
787.0213, 2749.208
787.5034, 2767.501
787.9855, 2792.470
788.4677, 2803.332
788.9498, 2798.400
789.4319, 2796.998
789.9140, 2809.297
790.3961, 2824.415
790.8782, 2836.234
791.3604, 2844.048
791.8425, 2851.677
792.3246, 2859.109
792.8067, 2866.192
793.2888, 2872.276
793.7709, 2877.718
794.2531, 2884.774
794.7352, 2894.080
795.2173, 2901.547
795.6994, 2901.931
796.1815, 2899.084
796.6636, 2896.644
797.1458, 2892.830
797.6279, 2895.275
798.1100, 2911.177
798.5921, 2931.084
799.0742, 2945.875
799.5563, 2954.597
800.0385, 2960.497
800.5206, 2962.853
801.0027, 2964.931
801.4848, 2971.912
801.9669, 2982.807
802.4490, 2994.481
802.9312, 3007.238
803.4133, 3018.077
803.8954, 3020.359
804.3775, 3020.264
804.8596, 3027.686
805.3417, 3061.173
805.8239, 3082.281
806.3060, 3078.413
806.7881, 3061.759
807.2702, 3057.742
807.7523, 3067.958
808.2344, 3080.606
808.7166, 3092.707
809.1987, 3105.025
809.6808, 3121.005
810.1629, 3138.853
810.6450, 3152.483
811.1271, 3157.733
811.6093, 3158.740
812.0914, 3154.319
812.5735, 3146.927
813.0556, 3145.851
813.5377, 3150.892
814.0198, 3165.387
814.5020, 3197.258
814.9841, 3239.038
815.4662, 3252.526
815.9483, 3236.384
816.4304, 3216.654
816.9125, 3201.494
817.3947, 3194.042
817.8768, 3204.239
818.3589, 3228.924
818.8410, 3251.635
819.3231, 3264.773
819.8052, 3273.064
820.2874, 3277.554
820.7695, 3278.325
821.2516, 3280.280
821.7337, 3281.943
822.2158, 3287.610
822.6979, 3300.360
823.1801, 3319.331
823.6622, 3336.976
824.1443, 3353.411
824.6263, 3369.749
825.1085, 3391.684
825.5906, 3411.400
826.0727, 3414.531
826.5548, 3400.229
827.0369, 3396.646
827.5190, 3431.867
828.0012, 3464.369
828.4833, 3466.999
828.9654, 3432.671
829.4475, 3429.359
829.9296, 3465.971
830.4117, 3504.749
830.8939, 3511.178
831.3760, 3496.541
831.8581, 3497.418
832.3402, 3516.154
832.8223, 3537.648
833.3044, 3551.965
833.7866, 3563.079
834.2687, 3574.466
834.7508, 3586.537
835.2329, 3598.790
835.7150, 3610.966
836.1971, 3623.788
836.6793, 3638.700
837.1614, 3656.129
837.6435, 3669.792
838.1256, 3679.279
838.6077, 3685.625
839.0898, 3684.324
839.5720, 3682.395
840.0541, 3693.084
840.5362, 3720.773
841.0183, 3747.753
841.5004, 3768.979
841.9825, 3783.326
842.4647, 3787.982
842.9468, 3774.193
843.4289, 3774.228
843.9110, 3790.249
844.3931, 3815.603
844.8752, 3848.864
845.3574, 3886.708
845.8395, 3912.703
846.3216, 3923.927
846.8037, 3929.636
847.2858, 3932.396
847.7679, 3936.821
848.2501, 3948.789
848.7322, 3974.252
849.2143, 3996.521
849.6964, 4007.998
850.1785, 4020.671
850.6606, 4048.063
851.1428, 4093.067
851.6249, 4128.513
852.1070, 4152.175
852.5891, 4166.511
853.0712, 4165.784
853.5533, 4159.897
854.0355, 4168.528
854.5176, 4199.867
854.9997, 4232.915
855.4818, 4255.068
855.9639, 4275.536
856.4460, 4304.615
856.9282, 4349.340
857.4103, 4387.521
857.8924, 4419.938
858.3745, 4443.742
858.8566, 4450.949
859.3387, 4445.707
859.8209, 4448.411
860.3030, 4463.338
860.7851, 4482.375
861.2672, 4498.865
861.7493, 4515.700
862.2314, 4536.595
862.7136, 4565.220
863.1957, 4592.915
863.6778, 4621.935
864.1599, 4647.071
864.6420, 4660.674
865.1241, 4661.254
865.6063, 4672.994
866.0884, 4699.907
866.5705, 4730.762
867.0526, 4754.136
867.5347, 4772.767
868.0168, 4791.103
868.4990, 4809.813
868.9811, 4829.227
869.4632, 4847.590
869.9453, 4868.288
870.4274, 4895.497
870.9095, 4934.964
871.3917, 4964.978
871.8738, 4983.656
872.3559, 4995.595
872.8380, 4998.263
873.3201, 4998.454
873.8022, 5022.728
874.2844, 5081.473
874.7665, 5129.983
875.2486, 5122.265
875.7307, 5095.884
876.2128, 5087.626
876.6949, 5113.210
877.1771, 5137.374
877.6592, 5160.037
878.1413, 5181.521
878.6234, 5201.865
879.1055, 5221.242
879.5876, 5240.643
880.0698, 5260.119
880.5519, 5281.131
881.0340, 5305.821
881.5161, 5332.533
881.9982, 5359.806
882.4803, 5388.312
882.9625, 5414.819
883.4446, 5437.188
883.9267, 5459.272
884.4088, 5484.331
884.8909, 5513.196
885.3730, 5538.472
885.8552, 5559.947
886.3373, 5578.415
886.8194, 5590.124
887.3015, 5601.008
887.7836, 5622.527
888.2657, 5657.250
888.7479, 5688.359
889.2300, 5702.204
889.7121, 5714.259
890.1942, 5735.233
890.6763, 5766.729
891.1584, 5796.997
891.6406, 5825.543
892.1227, 5855.273
892.6048, 5893.907
893.0869, 5934.611
893.5690, 5956.358
894.0511, 5958.543
894.5333, 5964.127
895.0154, 5989.633
895.4975, 6021.890
895.9796, 6052.932
896.4617, 6082.083
896.9438, 6112.341
897.4260, 6147.490
897.9081, 6176.296
898.3902, 6185.883
898.8723, 6182.842
899.3544, 6202.867
899.8365, 6244.435
900.3187, 6289.257
900.8008, 6332.748
901.2829, 6368.149
901.7650, 6383.204
902.2471, 6379.031
902.7292, 6387.389
903.2114, 6412.797
903.6935, 6448.651
904.1756, 6497.338
904.6577, 6554.357
905.1398, 6591.593
905.6219, 6609.731
906.1041, 6623.318
906.5862, 6635.839
907.0683, 6651.351
907.5504, 6676.956
908.0325, 6709.839
908.5146, 6737.867
908.9968, 6750.194
909.4789, 6766.469
909.9610, 6794.765
910.4431, 6829.789
910.9252, 6850.558
911.4073, 6856.964
911.8895, 6868.932
912.3716, 6898.104
912.8537, 6932.470
913.3358, 6956.564
913.8179, 6973.183
914.3000, 6988.273
914.7822, 7000.602
915.2643, 7015.988
915.7464, 7036.650
916.2285, 7060.735
916.7106, 7085.458
917.1927, 7110.760
917.6749, 7133.580
918.1570, 7151.032
918.6391, 7170.600
919.1212, 7202.985
919.6033, 7244.812
920.0854, 7290.832
920.5676, 7350.747
921.0497, 7396.215
921.5318, 7405.965
922.0139, 7403.864
922.4960, 7418.014
922.9781, 7453.156
923.4603, 7480.229
923.9424, 7494.703
924.4245, 7507.807
924.9066, 7538.932
925.3887, 7576.570
925.8708, 7595.170
926.3530, 7582.991
926.8351, 7581.277
927.3172, 7619.304
927.7993, 7667.597
928.2814, 7701.149
928.7635, 7716.979
929.2457, 7729.628
929.7278, 7736.862
930.2099, 7749.520
930.6920, 7781.071
931.1741, 7823.602
931.6563, 7863.964
932.1384, 7900.903
932.6205, 7930.107
933.1026, 7945.214
933.5847, 7955.941
934.0668, 7965.935
934.5490, 7975.139
935.0311, 7997.862
935.5132, 8039.631
935.9953, 8072.845
936.4774, 8072.710
936.9595, 8055.862
937.4417, 8064.261
937.9238, 8092.984
938.4059, 8118.437
938.8880, 8096.145
939.3701, 8098.799
939.8522, 8190.708
940.3344, 8341.154
940.8165, 8426.702
941.2986, 8431.353
941.7807, 8428.482
942.2628, 8442.812
942.7449, 8460.150
943.2271, 8448.364
943.7092, 8416.324
944.1913, 8387.356
944.6734, 8367.443
945.1555, 8357.730
945.6376, 8354.858
946.1198, 8364.607
946.6019, 8401.200
947.0840, 8480.922
947.5661, 8524.148
948.0482, 8512.077
948.5303, 8483.547
949.0125, 8493.511
949.4946, 8527.330
949.9767, 8552.633
950.4588, 8559.729
950.9409, 8565.893
951.4230, 8586.559
951.9052, 8604.773
952.3873, 8602.526
952.8694, 8566.498
953.3515, 8560.975
953.8336, 8591.495
954.3157, 8629.592
954.7979, 8652.771
955.2800, 8664.358
955.7621, 8665.887
956.2442, 8657.872
956.7263, 8657.482
957.2084, 8679.649
957.6906, 8705.703
958.1727, 8728.842
958.6548, 8748.191
959.1369, 8750.234
959.6190, 8732.350
960.1011, 8714.128
960.5833, 8705.381
961.0654, 8703.370
961.5475, 8705.184
962.0296, 8709.839
962.5117, 8713.734
962.9938, 8714.300
963.4760, 8714.941
963.9581, 8712.522
964.4402, 8712.172
964.9223, 8731.498
965.4044, 8774.637
965.8865, 8799.601
966.3687, 8793.352
966.8508, 8771.640
967.3329, 8751.771
967.8150, 8732.027
968.2971, 8708.492
968.7792, 8671.399
969.2614, 8645.328
969.7435, 8642.520
970.2256, 8646.621
970.7077, 8639.861
971.1898, 8621.181
971.6719, 8620.688
972.1541, 8642.773
972.6362, 8663.811
973.1183, 8657.920
973.6004, 8640.903
974.0825, 8631.254
974.5646, 8632.521
975.0468, 8628.812
975.5289, 8621.038
976.0110, 8601.688
976.4931, 8558.186
976.9752, 8496.291
977.4573, 8481.098
977.9395, 8509.588
978.4216, 8535.686
978.9037, 8530.698
979.3858, 8512.399
979.8679, 8492.553
980.3500, 8472.066
980.8322, 8453.010
981.3143, 8438.421
981.7964, 8420.479
982.2785, 8395.904
982.7606, 8369.312
983.2427, 8350.134
983.7249, 8337.597
984.2070, 8328.470
984.6891, 8323.773
985.1712, 8317.833
985.6533, 8307.052
986.1354, 8292.520
986.6176, 8275.324
987.0997, 8254.621
987.5818, 8232.666
988.0639, 8207.556
988.5460, 8185.917
989.0281, 8178.220
989.5102, 8178.226
989.9923, 8168.932
990.4744, 8148.822
990.9565, 8127.817
991.4387, 8114.410
991.9208, 8098.941
992.4029, 8073.854
992.8850, 8039.837
993.3671, 8009.278
993.8492, 7981.809
994.3314, 7959.395
994.8135, 7942.750
995.2956, 7931.502
995.7777, 7930.557
996.2598, 7934.925
996.7419, 7930.430
997.2241, 7906.485
997.7062, 7878.679
998.1883, 7847.279
998.6704, 7817.072
999.1525, 7796.363
999.6346, 7785.549
1000.117, 7783.417
1000.599, 7793.496
1001.081, 7797.659
1001.563, 7764.527
1002.045, 7720.583
1002.527, 7699.889
1003.009, 7721.399
1003.492, 7729.461
1003.974, 7717.436
1004.456, 7695.310
1004.938, 7667.652
1005.420, 7635.203
1005.902, 7599.195
1006.384, 7560.423
1006.866, 7530.344
1007.349, 7525.650
1007.831, 7523.954
1008.313, 7508.231
1008.795, 7480.809
1009.277, 7462.946
1009.759, 7459.988
1010.241, 7451.699
1010.723, 7429.521
1011.205, 7403.794
1011.688, 7398.649
1012.170, 7405.352
1012.652, 7401.035
1013.134, 7368.273
1013.616, 7340.177
1014.098, 7339.157
1014.580, 7341.745
1015.062, 7321.326
1015.544, 7273.209
1016.027, 7235.615
1016.509, 7209.540
1016.991, 7196.934
1017.473, 7211.584
1017.955, 7233.243
1018.437, 7238.223
1018.919, 7224.132
1019.401, 7202.280
1019.884, 7163.349
1020.366, 7133.232
1020.848, 7123.006
1021.330, 7128.091
1021.812, 7136.639
1022.294, 7146.243
1022.776, 7140.450
1023.258, 7100.598
1023.740, 7056.011
1024.223, 7024.394
1024.705, 7001.671
1025.187, 6979.476
1025.669, 6954.000
1026.151, 6940.598
1026.633, 6944.827
1027.115, 6949.611
1027.597, 6928.391
1028.080, 6893.754
1028.562, 6875.394
1029.044, 6879.434
1029.526, 6876.246
1030.008, 6846.003
1030.490, 6811.426
1030.972, 6782.171
1031.454, 6758.499
1031.937, 6747.800
1032.419, 6750.333
1032.901, 6752.551
1033.383, 6750.546
1033.865, 6741.464
1034.347, 6711.368
1034.829, 6672.253
1035.311, 6655.316
1035.793, 6683.752
1036.276, 6708.875
1036.758, 6728.796
1037.240, 6737.640
1037.722, 6717.982
1038.204, 6679.079
1038.686, 6656.167
1039.168, 6657.474
1039.650, 6657.986
1040.132, 6637.803
1040.615, 6614.879
1041.097, 6600.976
1041.579, 6596.200
1042.061, 6603.027
1042.543, 6623.104
1043.025, 6641.823
1043.507, 6650.001
1043.989, 6651.833
1044.472, 6648.183
1044.954, 6642.906
1045.436, 6647.428
1045.918, 6669.305
1046.400, 6696.928
1046.882, 6729.419
1047.364, 6765.602
1047.846, 6800.829
1048.328, 6836.694
1048.811, 6878.810
1049.293, 6926.928
1049.775, 6992.208
1050.257, 7107.801
1050.739, 7226.674
1051.221, 7293.645
1051.703, 7296.228
1052.185, 7373.436
1052.667, 7538.043
1053.150, 7717.679
1053.632, 7874.820
1054.114, 8017.028
1054.596, 8149.231
1055.078, 8276.283
1055.560, 8417.188
1056.042, 8607.817
1056.524, 8773.507
1057.007, 8894.730
1057.489, 8991.729
1057.971, 9090.820
1058.453, 9192.886
1058.935, 9304.386
1059.417, 9425.218
1059.899, 9557.327
1060.381, 9711.585
1060.864, 9870.770
1061.346, 10018.61
1061.828, 10153.29
1062.310, 10295.32
1062.792, 10447.07
1063.274, 10592.28
1063.756, 10715.16
1064.238, 10831.40
1064.720, 10969.87
1065.203, 11124.01
1065.685, 11274.80
1066.167, 11415.86
1066.649, 11552.45
1067.131, 11688.53
1067.613, 11821.37
1068.095, 11952.50
1068.577, 12079.06
1069.059, 12166.19
1069.542, 12206.12
1070.024, 12243.17
1070.506, 12320.15
1070.988, 12400.15
1071.470, 12449.79
1071.952, 12468.16
1072.434, 12508.31
1072.916, 12575.13
1073.398, 12637.59
1073.881, 12677.62
1074.363, 12708.62
1074.845, 12761.38
1075.327, 12818.79
1075.809, 12844.05
1076.291, 12833.53
1076.773, 12773.33
1077.255, 12652.07
1077.738, 12497.89
1078.220, 12338.97
1078.702, 12171.26
1079.184, 11986.15
1079.666, 11781.29
1080.148, 11542.24
1080.630, 11255.90
1081.112, 10936.83
1081.594, 10572.91
1082.077, 10177.37
1082.559, 9804.319
1083.041, 9453.592
1083.523, 9100.830
1084.005, 8733.000
1084.487, 8367.900
1084.969, 8031.691
1085.451, 7714.697
1085.933, 7408.419
1086.416, 7094.405
1086.898, 6830.229
1087.380, 6631.047
1087.862, 6453.096
1088.344, 6251.309
1088.826, 6044.577
1089.308, 5894.034
1089.790, 5794.226
1090.273, 5703.768
1090.755, 5592.945
1091.237, 5496.657
1091.719, 5432.573
1092.201, 5390.213
1092.683, 5347.192
1093.165, 5303.910
1093.647, 5263.654
1094.130, 5227.409
1094.612, 5193.558
1095.094, 5155.230
1095.576, 5121.849
1096.058, 5107.767
1096.540, 5120.320
1097.022, 5112.907
1097.504, 5081.757
1097.986, 5044.949
1098.469, 5005.705
1098.951, 4971.966
1099.433, 4966.878
1099.915, 4979.963
1100.397, 4982.448
1100.879, 4955.258
1101.361, 4927.896
1101.843, 4902.366
1102.325, 4880.990
1102.808, 4868.711
1103.290, 4863.636
1103.772, 4855.861
1104.254, 4844.345
1104.736, 4833.076
1105.218, 4823.910
1105.700, 4816.540
1106.182, 4814.443
1106.665, 4814.643
1107.147, 4796.671
1107.629, 4759.860
1108.111, 4729.958
1108.593, 4718.373
1109.075, 4712.942
1109.557, 4704.977
1110.039, 4693.696
1110.521, 4677.208
1111.004, 4647.980
1111.486, 4633.712
1111.968, 4639.256
1112.450, 4644.500
1112.932, 4631.364
1113.414, 4608.363
1113.896, 4590.891
1114.378, 4579.004
1114.860, 4569.942
1115.343, 4566.136
1115.825, 4560.659
1116.307, 4551.689
1116.789, 4540.612
1117.271, 4526.714
1117.753, 4512.142
1118.235, 4510.575
1118.717, 4526.423
1119.200, 4535.561
1119.682, 4507.853
1120.164, 4482.854
1120.646, 4491.804
1121.128, 4530.384
1121.610, 4543.819
1122.092, 4532.011
1122.574, 4501.656
1123.057, 4438.596
1123.539, 4382.915
1124.021, 4383.185
1124.503, 4411.416
1124.985, 4422.155
1125.467, 4402.065
1125.949, 4391.014
1126.431, 4392.051
1126.913, 4392.037
1127.396, 4376.612
1127.878, 4354.655
1128.360, 4338.833
1128.842, 4329.233
1129.324, 4321.688
1129.806, 4316.492
1130.288, 4310.371
1130.770, 4299.527
1131.252, 4292.136
1131.735, 4313.653
1132.217, 4349.900
1132.699, 4355.241
1133.181, 4316.370
1133.663, 4278.620
1134.145, 4261.706
1134.627, 4252.259
1135.109, 4244.479
1135.592, 4237.858
1136.074, 4226.709
1136.556, 4212.318
1137.038, 4204.604
1137.520, 4219.422
1138.002, 4226.423
1138.484, 4191.340
1138.966, 4146.107
1139.448, 4134.550
1139.931, 4166.145
1140.413, 4181.344
1140.895, 4177.853
1141.377, 4169.952
1141.859, 4171.104
1142.341, 4171.531
1142.823, 4156.719
1143.305, 4131.324
1143.787, 4123.217
1144.270, 4145.307
1144.752, 4145.372
1145.234, 4106.542
1145.716, 4063.219
1146.198, 4068.865
1146.680, 4097.831
1147.162, 4111.701
1147.644, 4102.430
1148.127, 4090.781
1148.609, 4078.039
1149.091, 4066.925
1149.573, 4059.187
1150.055, 4053.355
1150.537, 4043.663
1151.019, 4032.880
1151.501, 4029.290
1151.984, 4046.322
1152.466, 4051.702
1152.948, 4025.905
1153.430, 3997.986
1153.912, 3992.029
1154.394, 4005.656
1154.876, 4021.170
1155.358, 4036.972
1155.840, 4040.917
1156.323, 4011.194
1156.805, 3983.747
1157.287, 3982.481
1157.769, 3991.972
1158.251, 3985.331
1158.733, 3962.711
1159.215, 3949.647
1159.697, 3950.137
1160.179, 3954.701
1160.662, 3964.929
1161.144, 3968.524
1161.626, 3944.736
1162.108, 3900.225
1162.590, 3897.634
1163.072, 3943.885
1163.554, 3967.305
1164.036, 3935.485
1164.519, 3892.982
1165.001, 3893.438
1165.483, 3912.500
1165.965, 3918.126
1166.447, 3900.430
1166.929, 3890.832
1167.411, 3890.675
1167.893, 3893.220
1168.375, 3896.321
1168.858, 3898.243
1169.340, 3896.336
1169.822, 3891.117
1170.304, 3883.640
1170.786, 3871.842
1171.268, 3861.378
1171.750, 3851.399
1172.232, 3845.690
1172.714, 3853.281
1173.197, 3865.883
1173.679, 3863.203
1174.161, 3846.606
1174.643, 3836.895
1175.125, 3857.338
1175.607, 3861.064
1176.089, 3828.490
1176.571, 3788.375
1177.054, 3803.765
1177.536, 3851.474
1178.018, 3863.445
1178.500, 3822.554
1178.982, 3787.996
1179.464, 3789.094
1179.946, 3798.790
1180.428, 3809.918
1180.911, 3818.813
1181.393, 3808.107
1181.875, 3782.316
1182.357, 3760.763
1182.839, 3747.358
1183.321, 3745.049
1183.803, 3769.120
1184.285, 3792.934
1184.767, 3793.579
1185.250, 3772.357
1185.732, 3768.208
1186.214, 3779.218
1186.696, 3786.698
1187.178, 3769.207
1187.660, 3756.907
1188.142, 3779.784
1188.624, 3809.468
1189.106, 3797.240
1189.589, 3739.077
1190.071, 3738.319
1190.553, 3803.939
1191.035, 3858.472
1191.517, 3827.631
1191.999, 3779.937
1192.481, 3765.062
1192.963, 3772.637
1193.446, 3763.496
1193.928, 3735.566
1194.410, 3717.914
1194.892, 3717.784
1195.374, 3719.841
1195.856, 3705.274
1196.338, 3689.654
1196.820, 3689.635
1197.302, 3705.209
1197.785, 3716.479
1198.267, 3723.664
1198.749, 3725.128
1199.231, 3719.838
1199.713, 3709.771
1200.195, 3687.496
1200.677, 3666.799
1201.159, 3669.815
1201.641, 3707.643
1202.124, 3718.369
1202.606, 3697.964
1203.088, 3674.654
1203.570, 3663.984
1204.052, 3659.728
1204.534, 3655.582
1205.016, 3651.938
1205.498, 3649.543
1205.981, 3647.194
1206.463, 3651.982
1206.945, 3667.299
1207.427, 3674.792
1207.909, 3646.421
1208.391, 3609.894
1208.873, 3599.749
1209.355, 3613.256
1209.838, 3637.118
1210.320, 3685.497
1210.802, 3697.341
1211.284, 3656.271
1211.766, 3607.840
1212.248, 3609.625
1212.730, 3632.515
1213.212, 3636.953
1213.694, 3620.154
1214.177, 3603.346
1214.659, 3586.290
1215.141, 3576.342
1215.623, 3577.250
1216.105, 3581.420
1216.587, 3578.465
1217.069, 3570.855
1217.551, 3560.822
1218.033, 3547.823
1218.516, 3540.401
1218.998, 3539.294
1219.480, 3543.258
1219.962, 3554.758
1220.444, 3566.887
1220.926, 3565.693
1221.408, 3556.564
1221.890, 3549.270
1222.373, 3548.542
1222.855, 3542.158
1223.337, 3526.285
1223.819, 3513.623
1224.301, 3515.586
1224.783, 3523.579
1225.265, 3522.738
1225.747, 3514.810
1226.229, 3503.910
1226.712, 3489.362
1227.194, 3473.388
1227.676, 3453.115
1228.158, 3439.136
1228.640, 3445.488
1229.122, 3461.516
1229.604, 3470.502
1230.086, 3472.316
1230.568, 3468.668
1231.051, 3454.391
1231.533, 3444.448
1232.015, 3440.703
1232.497, 3440.680
1232.979, 3445.034
1233.461, 3449.490
1233.943, 3447.419
1234.425, 3438.400
1234.908, 3423.326
1235.390, 3392.792
1235.872, 3379.400
1236.354, 3395.471
1236.836, 3417.431
1237.318, 3408.719
1237.800, 3385.058
1238.282, 3372.985
1238.764, 3377.012
1239.247, 3371.859
1239.729, 3350.285
1240.211, 3332.352
1240.693, 3324.469
1241.175, 3323.577
1241.657, 3325.475
1242.139, 3330.598
1242.621, 3341.866
1243.104, 3363.594
1243.586, 3371.690
1244.068, 3362.914
1244.550, 3347.917
1245.032, 3328.486
1245.514, 3310.104
1245.996, 3304.549
1246.478, 3305.796
1246.960, 3303.435
1247.443, 3290.860
1247.925, 3286.942
1248.407, 3292.544
1248.889, 3303.614
1249.371, 3323.104
1249.853, 3341.780
1250.335, 3347.162
1250.817, 3342.098
1251.299, 3331.480
1251.782, 3311.228
1252.264, 3299.120
1252.746, 3297.051
1253.228, 3295.742
1253.710, 3288.919
1254.192, 3278.159
1254.674, 3261.351
1255.156, 3242.323
1255.639, 3231.811
1256.121, 3231.339
1256.603, 3236.817
1257.085, 3249.194
1257.567, 3258.741
1258.049, 3253.829
1258.531, 3244.295
1259.013, 3237.584
1259.495, 3234.597
1259.978, 3236.855
1260.460, 3246.153
1260.942, 3249.423
1261.424, 3244.663
1261.906, 3234.003
1262.388, 3208.075
1262.870, 3186.663
1263.352, 3194.253
1263.834, 3223.073
1264.317, 3230.649
1264.799, 3215.478
1265.281, 3210.911
1265.763, 3226.020
1266.245, 3242.229
1266.727, 3247.010
1267.209, 3243.729
1267.691, 3232.354
1268.174, 3215.260
1268.656, 3200.915
1269.138, 3189.591
1269.620, 3188.576
1270.102, 3204.000
1270.584, 3215.864
1271.066, 3203.971
1271.548, 3189.128
1272.031, 3186.582
1272.513, 3194.403
1272.995, 3202.290
1273.477, 3209.519
1273.959, 3210.878
1274.441, 3201.059
1274.923, 3193.313
1275.405, 3199.841
1275.887, 3204.537
1276.370, 3192.048
1276.852, 3168.916
1277.334, 3178.189
1277.816, 3211.540
1278.298, 3233.542
1278.780, 3223.855
1279.262, 3211.328
1279.744, 3200.863
1280.226, 3193.570
1280.709, 3189.979
1281.191, 3190.314
1281.673, 3197.216
1282.155, 3208.847
1282.637, 3218.980
1283.119, 3227.522
1283.601, 3230.885
1284.083, 3229.902
1284.566, 3222.292
1285.048, 3197.991
1285.530, 3169.237
1286.012, 3164.090
1286.494, 3177.279
1286.976, 3189.797
1287.458, 3200.726
1287.940, 3201.831
1288.422, 3189.989
1288.905, 3176.910
1289.387, 3169.904
1289.869, 3170.925
1290.351, 3190.971
1290.833, 3222.488
1291.315, 3233.969
1291.797, 3217.990
1292.279, 3199.724
1292.761, 3180.445
1293.244, 3166.044
1293.726, 3160.721
1294.208, 3163.754
1294.690, 3180.486
1295.172, 3205.299
1295.654, 3216.044
1296.136, 3210.965
1296.618, 3206.623
1297.101, 3205.385
1297.583, 3203.083
1298.065, 3197.062
1298.547, 3188.027
1299.029, 3169.927
1299.511, 3150.681
1299.993, 3155.239
1300.475, 3181.382
1300.958, 3197.480
1301.440, 3197.876
##END=



