##NAMES=Kottigite
##RRUFFID=R110032
##IDEAL CHEMISTRY=Zn^2+^_3_(As^5+^O_4_)_2_&#183;8H_2_O
##LOCALITY=44 level, Tsumeb mine, Tsumeb, Namibia
##OWNER=RRUFF
##SOURCE=William W Pinch
##DESCRIPTION=Bundles of gray acicular crystals associated with ludlockite
##STATUS=The identification of this mineral has been confirmed only by single crystal X-ray diffraction.
##URL=rruff.info/R110032
179.8309, 277.9771
180.3130, 276.3197
180.7951, 270.3177
181.2772, 266.7905
181.7593, 267.4563
182.2415, 269.1426
182.7236, 269.4593
183.2057, 267.8703
183.6878, 265.5564
184.1699, 264.2856
184.6520, 264.5747
185.1342, 265.0722
185.6163, 266.1490
186.0984, 267.2655
186.5805, 267.7828
187.0626, 267.4937
187.5447, 266.8063
188.0269, 266.5309
188.5090, 267.0126
188.9911, 266.5656
189.4732, 263.1653
189.9553, 258.8367
190.4374, 257.7728
190.9196, 262.1912
191.4017, 267.9610
191.8838, 268.4319
192.3659, 263.2893
192.8480, 258.9764
193.3301, 259.8231
193.8123, 264.2304
194.2944, 265.9522
194.7765, 261.7562
195.2586, 256.3705
195.7407, 255.4303
196.2228, 259.0232
196.7050, 262.1012
197.1871, 259.7344
197.6692, 252.2717
198.1513, 247.7126
198.6334, 249.7236
199.1155, 253.5244
199.5977, 256.5037
200.0798, 258.3619
200.5619, 258.9116
201.0440, 257.7568
201.5261, 254.6922
202.0082, 251.2247
202.4904, 246.2934
202.9725, 241.8886
203.4546, 238.8042
203.9367, 237.2318
204.4188, 237.1635
204.9009, 239.1395
205.3831, 244.4355
205.8652, 247.7819
206.3473, 247.4305
206.8294, 246.4431
207.3115, 246.2567
207.7936, 247.2408
208.2758, 249.1862
208.7579, 252.0022
209.2400, 256.7123
209.7221, 259.9431
210.2042, 261.1910
210.6863, 261.5975
211.1685, 262.0141
211.6506, 262.5744
212.1327, 262.7225
212.6148, 261.5296
213.0969, 257.7280
213.5790, 255.3173
214.0612, 255.4868
214.5433, 256.2068
215.0254, 255.5615
215.5075, 253.1969
215.9896, 250.6278
216.4717, 250.2347
216.9539, 253.9646
217.4360, 254.9788
217.9181, 250.2937
218.4002, 244.2738
218.8823, 241.8254
219.3644, 244.1674
219.8466, 247.5515
220.3287, 246.3286
220.8108, 239.2911
221.2929, 234.6652
221.7750, 235.5197
222.2571, 238.6109
222.7393, 239.6880
223.2214, 237.6639
223.7035, 234.8821
224.1856, 235.0318
224.6677, 237.8945
225.1498, 238.5910
225.6320, 233.4309
226.1141, 225.9231
226.5962, 222.1764
227.0783, 223.8850
227.5604, 227.2849
228.0425, 229.1437
228.5247, 229.6806
229.0068, 229.2434
229.4889, 227.4294
229.9710, 224.7747
230.4531, 222.1924
230.9352, 219.2669
231.4174, 217.5882
231.8995, 218.9979
232.3816, 222.5953
232.8637, 226.0261
233.3458, 228.2871
233.8279, 229.5216
234.3101, 230.2196
234.7922, 230.3954
235.2743, 229.9357
235.7564, 228.6992
236.2385, 226.8902
236.7206, 224.8549
237.2028, 222.4671
237.6849, 219.9961
238.1670, 218.5908
238.6491, 218.6099
239.1312, 219.2872
239.6133, 221.1179
240.0955, 223.1984
240.5776, 223.8914
241.0597, 221.7309
241.5418, 217.5403
242.0239, 215.5094
242.5060, 217.7496
242.9882, 219.3081
243.4703, 217.8177
243.9524, 214.9662
244.4345, 213.3835
244.9166, 214.8042
245.3987, 218.3906
245.8809, 220.1274
246.3630, 218.5978
246.8451, 216.8758
247.3272, 215.3214
247.8093, 214.0339
248.2914, 213.2004
248.7736, 212.9616
249.2557, 213.0852
249.7378, 212.6198
250.2199, 210.9688
250.7020, 209.4227
251.1841, 208.0226
251.6663, 206.8630
252.1484, 206.0201
252.6305, 205.5231
253.1126, 205.4065
253.5947, 205.8042
254.0768, 208.1590
254.5590, 209.2217
255.0411, 207.5291
255.5232, 204.9521
256.0053, 203.5950
256.4874, 204.3489
256.9695, 206.4850
257.4517, 208.2416
257.9338, 209.3622
258.4159, 210.3667
258.8980, 211.9088
259.3801, 213.0598
259.8622, 212.5162
260.3444, 209.8671
260.8265, 206.2861
261.3086, 203.9387
261.7907, 202.7901
262.2728, 203.2358
262.7549, 207.4806
263.2371, 212.2554
263.7192, 214.0084
264.2013, 211.8480
264.6834, 207.8682
265.1655, 205.1270
265.6476, 204.3338
266.1298, 203.1739
266.6119, 200.7560
267.0940, 198.4139
267.5761, 197.3717
268.0582, 197.8657
268.5403, 199.4962
269.0225, 202.2410
269.5046, 206.7547
269.9867, 208.6600
270.4688, 205.6153
270.9509, 201.3123
271.4330, 198.9606
271.9152, 198.9151
272.3973, 199.4512
272.8794, 198.8951
273.3615, 197.1519
273.8436, 196.1658
274.3257, 195.5904
274.8079, 196.0392
275.2900, 199.0145
275.7721, 204.3027
276.2542, 208.4374
276.7363, 208.3391
277.2184, 204.4352
277.7006, 202.1454
278.1827, 203.4766
278.6648, 204.8480
279.1469, 202.9986
279.6290, 198.3734
280.1111, 194.7794
280.5933, 194.8882
281.0754, 197.7130
281.5575, 199.2983
282.0396, 199.0519
282.5217, 198.3118
283.0038, 197.7029
283.4860, 197.2367
283.9681, 196.9525
284.4502, 196.8323
284.9323, 196.9648
285.4144, 197.6245
285.8965, 199.3114
286.3787, 200.3317
286.8608, 199.3097
287.3429, 196.7502
287.8250, 194.5223
288.3071, 193.4093
288.7892, 192.6381
289.2714, 190.8445
289.7535, 187.8292
290.2356, 185.4539
290.7177, 184.7541
291.1998, 185.3537
291.6819, 186.4185
292.1641, 188.0791
292.6462, 189.5462
293.1283, 189.8902
293.6104, 189.2400
294.0925, 188.2801
294.5746, 186.1419
295.0568, 184.0654
295.5389, 185.3450
296.0210, 191.5941
296.5031, 197.5009
296.9852, 197.5415
297.4673, 193.4740
297.9495, 189.6616
298.4316, 187.5862
298.9137, 186.5483
299.3958, 185.2809
299.8779, 183.4980
300.3600, 182.7803
300.8422, 185.5671
301.3243, 189.9638
301.8064, 192.6044
302.2885, 191.9544
302.7706, 190.0598
303.2527, 189.1409
303.7349, 189.2394
304.2170, 189.7015
304.6991, 190.6757
305.1812, 191.6095
305.6633, 191.5854
306.1454, 190.0614
306.6276, 188.6436
307.1097, 189.1385
307.5918, 191.4061
308.0739, 192.9783
308.5560, 192.7856
309.0381, 191.7179
309.5203, 190.9648
310.0024, 190.6188
310.4845, 189.8730
310.9666, 187.2458
311.4487, 183.4182
311.9308, 182.1232
312.4130, 185.4011
312.8951, 189.5188
313.3772, 191.4375
313.8593, 191.3005
314.3414, 189.6008
314.8235, 185.2780
315.3057, 179.6223
315.7878, 175.8599
316.2699, 174.3554
316.7520, 174.5962
317.2341, 177.8308
317.7162, 182.5289
318.1984, 185.1640
318.6805, 182.9035
319.1626, 178.5688
319.6447, 176.8222
320.1268, 178.1560
320.6089, 179.5980
321.0911, 178.8786
321.5732, 177.4053
322.0553, 177.2912
322.5374, 179.6189
323.0195, 182.3298
323.5016, 183.1057
323.9838, 181.9365
324.4659, 180.8928
324.9480, 181.0799
325.4301, 181.5412
325.9122, 180.9598
326.3943, 179.0429
326.8765, 177.2475
327.3586, 176.3651
327.8407, 176.4119
328.3228, 177.8872
328.8049, 182.2785
329.2870, 186.1499
329.7692, 185.4431
330.2513, 180.5799
330.7334, 176.0370
331.2155, 174.2674
331.6976, 174.3416
332.1797, 174.0431
332.6619, 172.9542
333.1440, 172.0295
333.6261, 172.3080
334.1082, 173.3706
334.5903, 174.2823
335.0724, 174.9184
335.5546, 175.1740
336.0367, 175.2039
336.5188, 175.1143
337.0009, 173.5171
337.4830, 167.5992
337.9651, 160.2932
338.4473, 157.1943
338.9294, 160.3048
339.4115, 165.5038
339.8936, 170.3156
340.3757, 174.6722
340.8578, 177.8872
341.3400, 179.6407
341.8221, 180.1103
342.3042, 179.5533
342.7863, 177.7674
343.2684, 176.1402
343.7505, 175.5877
344.2327, 175.6860
344.7148, 175.2207
345.1969, 173.6476
345.6790, 172.2463
346.1611, 172.9208
346.6432, 175.3210
347.1254, 177.4334
347.6075, 179.1059
348.0896, 180.0320
348.5717, 179.2042
349.0538, 176.4492
349.5359, 174.3811
350.0181, 175.6799
350.5002, 179.3666
350.9823, 180.8826
351.4644, 177.1530
351.9465, 173.6080
352.4286, 175.0528
352.9108, 180.3537
353.3929, 183.8868
353.8750, 182.3856
354.3571, 177.9556
354.8392, 175.9375
355.3214, 177.1008
355.8035, 178.4898
356.2856, 179.0249
356.7677, 179.0841
357.2498, 179.3506
357.7319, 180.0325
358.2141, 180.8872
358.6962, 181.6453
359.1783, 182.3368
359.6604, 182.7513
360.1425, 183.3759
360.6246, 183.4001
361.1068, 181.2042
361.5889, 176.9149
362.0710, 173.6556
362.5531, 174.3924
363.0352, 179.0795
363.5173, 181.9713
363.9995, 181.2318
364.4816, 180.7065
364.9637, 182.8865
365.4458, 186.7888
365.9279, 189.8431
366.4100, 190.7302
366.8922, 189.8336
367.3743, 188.2805
367.8564, 185.1603
368.3385, 182.7083
368.8206, 181.1911
369.3027, 180.4937
369.7849, 180.7679
370.2670, 181.9966
370.7491, 183.4702
371.2312, 184.2051
371.7133, 183.9449
372.1954, 183.6212
372.6776, 184.2724
373.1597, 184.0257
373.6418, 180.3659
374.1239, 174.3033
374.6060, 169.9511
375.0881, 170.9426
375.5703, 177.0422
376.0524, 179.9595
376.5345, 176.2039
377.0166, 173.3583
377.4987, 173.8372
377.9808, 176.0963
378.4630, 177.9974
378.9451, 178.5621
379.4272, 177.8774
379.9093, 175.9713
380.3914, 171.0496
380.8735, 167.9655
381.3557, 168.7018
381.8378, 169.8604
382.3199, 168.1036
382.8020, 163.4587
383.2841, 159.3273
383.7662, 160.0333
384.2484, 166.6236
384.7305, 170.7125
385.2126, 169.6163
385.6947, 168.5100
386.1768, 169.3319
386.6589, 171.3657
387.1411, 172.9257
387.6232, 172.9434
388.1053, 171.8463
388.5874, 171.2159
389.0695, 171.5165
389.5516, 171.3937
390.0338, 170.2702
390.5159, 168.7921
390.9980, 167.4561
391.4801, 166.4057
391.9622, 165.6910
392.4443, 165.7060
392.9265, 166.6435
393.4086, 166.3813
393.8907, 162.9347
394.3728, 159.8769
394.8549, 159.7289
395.3370, 161.9138
395.8192, 163.9605
396.3013, 164.0116
396.7834, 162.7262
397.2655, 162.2318
397.7476, 162.5948
398.2297, 163.5853
398.7119, 165.5110
399.1940, 167.8599
399.6761, 170.1439
400.1582, 172.5563
400.6403, 174.1681
401.1224, 173.5474
401.6046, 170.8354
402.0867, 168.5140
402.5688, 167.2732
403.0509, 166.8264
403.5330, 167.0339
404.0151, 167.9275
404.4973, 168.2770
404.9794, 166.4088
405.4615, 163.9657
405.9436, 164.2677
406.4257, 167.9765
406.9078, 172.0713
407.3900, 173.8575
407.8721, 173.8434
408.3542, 174.8741
408.8363, 179.4232
409.3184, 183.0137
409.8005, 182.2872
410.2827, 178.0565
410.7648, 172.5904
411.2469, 166.1799
411.7290, 160.4992
412.2111, 160.0818
412.6932, 167.0053
413.1754, 173.0435
413.6575, 177.0806
414.1396, 179.4087
414.6217, 179.7208
415.1038, 178.1780
415.5859, 176.5003
416.0681, 176.4766
416.5502, 178.3269
417.0323, 179.4297
417.5144, 179.3506
417.9965, 179.1103
418.4786, 179.1934
418.9608, 179.4109
419.4429, 179.2654
419.9250, 178.4770
420.4071, 177.3774
420.8892, 176.8574
421.3713, 176.7756
421.8535, 177.6114
422.3356, 180.3394
422.8177, 183.2542
423.2998, 184.8631
423.7819, 185.1022
424.2640, 185.1053
424.7462, 186.1419
425.2283, 188.3337
425.7104, 189.7861
426.1925, 189.4861
426.6746, 189.5242
427.1567, 191.0229
427.6389, 193.1285
428.1210, 194.6817
428.6031, 195.2432
429.0852, 194.5236
429.5673, 190.9032
430.0494, 182.4839
430.5316, 177.9712
431.0137, 183.8046
431.4958, 191.3349
431.9779, 195.3017
432.4600, 195.3384
432.9421, 194.0122
433.4243, 192.4191
433.9064, 190.8973
434.3885, 191.3665
434.8706, 195.0941
435.3527, 198.0550
435.8348, 196.5737
436.3170, 192.7637
436.7991, 190.0527
437.2812, 189.4715
437.7633, 189.9747
438.2454, 191.1102
438.7275, 192.7063
439.2097, 193.4260
439.6918, 192.5084
440.1739, 190.9582
440.6560, 190.1779
441.1381, 190.1158
441.6202, 190.6136
442.1024, 191.9877
442.5845, 193.7032
443.0666, 195.4067
443.5487, 196.9960
444.0308, 197.7323
444.5129, 196.6278
444.9951, 194.0910
445.4772, 193.9097
445.9593, 199.8441
446.4414, 203.4320
446.9235, 200.2593
447.4056, 193.6637
447.8878, 188.2580
448.3699, 185.6569
448.8520, 185.4716
449.3341, 187.5214
449.8162, 193.8152
450.2983, 196.4197
450.7805, 192.2376
451.2626, 187.8046
451.7447, 186.5493
452.2268, 187.9708
452.7089, 189.9067
453.1910, 190.9550
453.6732, 191.3062
454.1553, 191.8013
454.6374, 192.9700
455.1195, 193.3237
455.6016, 192.6103
456.0837, 191.1311
456.5659, 188.4567
457.0480, 184.7697
457.5301, 182.0076
458.0122, 182.9610
458.4943, 187.5295
458.9764, 190.2458
459.4586, 190.6740
459.9407, 189.5063
460.4228, 186.1892
460.9049, 181.8807
461.3870, 178.6770
461.8691, 177.5002
462.3513, 177.4027
462.8334, 177.5886
463.3155, 178.0283
463.7976, 177.9528
464.2797, 177.1348
464.7618, 175.6563
465.2440, 173.1314
465.7261, 169.4800
466.2082, 167.2600
466.6903, 168.3738
467.1724, 170.8083
467.6545, 172.1763
468.1367, 172.3107
468.6188, 172.0535
469.1009, 171.7901
469.5830, 171.6351
470.0651, 172.1663
470.5472, 174.8030
471.0294, 176.2488
471.5115, 174.3318
471.9936, 171.3195
472.4757, 170.4107
472.9578, 172.3104
473.4399, 174.8010
473.9221, 175.0372
474.4042, 172.2879
474.8863, 171.5727
475.3684, 176.0205
475.8505, 178.9498
476.3326, 176.7393
476.8148, 171.5453
477.2969, 167.1137
477.7790, 165.2870
478.2611, 165.0494
478.7432, 164.0721
479.2253, 161.4331
479.7075, 160.7173
480.1896, 165.0236
480.6717, 169.1171
481.1538, 169.3154
481.6359, 166.3468
482.1180, 164.1736
482.6002, 166.4684
483.0823, 171.1837
483.5644, 172.0241
484.0465, 167.8435
484.5286, 163.9531
485.0107, 162.5815
485.4929, 162.8577
485.9750, 164.0799
486.4571, 166.4318
486.9392, 168.4178
487.4213, 169.3233
487.9034, 169.1814
488.3856, 167.7499
488.8677, 164.8262
489.3498, 161.8571
489.8319, 160.1997
490.3140, 159.7453
490.7961, 158.7261
491.2783, 156.0589
491.7604, 153.9667
492.2425, 153.8465
492.7246, 154.9351
493.2067, 155.7301
493.6888, 155.7000
494.1710, 155.5538
494.6531, 156.5520
495.1352, 159.6922
495.6173, 160.7068
496.0994, 157.7663
496.5815, 154.7982
497.0637, 153.3744
497.5458, 153.4510
498.0279, 154.9128
498.5100, 157.8971
498.9921, 161.1705
499.4742, 161.2854
499.9564, 156.5844
500.4385, 152.9178
500.9206, 151.5965
501.4027, 151.1423
501.8848, 150.8746
502.3669, 150.6978
502.8491, 150.6681
503.3312, 150.6740
503.8133, 150.8866
504.2954, 152.0730
504.7775, 154.5747
505.2596, 156.3943
505.7418, 156.2470
506.2239, 155.0420
506.7060, 154.0257
507.1881, 153.2260
507.6702, 152.7695
508.1523, 153.0922
508.6345, 153.6792
509.1166, 153.5990
509.5987, 152.7115
510.0808, 151.5672
510.5629, 150.4270
511.0450, 149.3856
511.5272, 149.3363
512.0093, 151.5171
512.4914, 153.0831
512.9735, 152.8684
513.4556, 151.7059
513.9377, 150.4257
514.4199, 149.3566
514.9020, 148.9551
515.3841, 150.2230
515.8662, 153.8837
516.3483, 154.2317
516.8304, 146.2814
517.3126, 140.2785
517.7947, 140.5309
518.2768, 144.1151
518.7589, 146.7624
519.2410, 146.7884
519.7231, 145.3264
520.2053, 143.8152
520.6874, 142.2561
521.1695, 140.6106
521.6516, 138.4557
522.1337, 136.7818
522.6158, 135.9762
523.0980, 136.0897
523.5801, 137.3902
524.0622, 141.2119
524.5443, 145.0341
525.0264, 145.7332
525.5085, 143.8188
525.9907, 142.1844
526.4728, 141.7400
526.9549, 142.2318
527.4370, 143.8509
527.9191, 147.1822
528.4012, 147.9843
528.8834, 143.6140
529.3655, 138.4912
529.8476, 135.1208
530.3297, 133.5933
530.8118, 133.7346
531.2939, 135.5629
531.7761, 138.2569
532.2582, 139.7515
532.7403, 139.7734
533.2224, 138.9931
533.7045, 135.8002
534.1866, 133.3243
534.6688, 134.5637
535.1509, 138.3118
535.6330, 140.4797
536.1151, 137.7981
536.5972, 132.5279
537.0793, 131.0627
537.5615, 134.4047
538.0436, 137.4755
538.5257, 139.0331
539.0078, 139.5137
539.4899, 139.0936
539.9720, 137.8363
540.4542, 136.4573
540.9363, 134.8939
541.4184, 133.6207
541.9005, 133.7384
542.3826, 135.1736
542.8647, 135.9662
543.3469, 134.9063
543.8290, 132.7466
544.3111, 131.5153
544.7932, 131.9406
545.2753, 131.4698
545.7574, 128.3656
546.2396, 125.2012
546.7217, 124.5309
547.2038, 126.1028
547.6859, 127.8886
548.1680, 128.5082
548.6501, 128.1212
549.1323, 127.3293
549.6144, 125.2768
550.0965, 124.3629
550.5786, 126.4013
551.0607, 128.3307
551.5428, 127.5191
552.0250, 124.1599
552.5071, 120.6402
552.9892, 118.1094
553.4713, 116.8887
553.9534, 118.6654
554.4355, 124.3105
554.9177, 128.4914
555.3998, 128.5029
555.8819, 126.3123
556.3640, 124.2020
556.8461, 121.9895
557.3282, 121.6362
557.8104, 126.3012
558.2925, 131.8259
558.7746, 132.4163
559.2567, 128.3548
559.7388, 124.9852
560.2209, 125.8463
560.7031, 129.1437
561.1852, 129.1299
561.6673, 120.6554
562.1494, 116.1498
562.6315, 118.4725
563.1136, 122.7005
563.5958, 126.1563
564.0779, 128.2330
564.5600, 128.4870
565.0421, 126.2107
565.5242, 122.5947
566.0063, 122.1622
566.4885, 126.6814
566.9706, 129.2194
567.4527, 126.3589
567.9348, 122.2506
568.4169, 119.3016
568.8990, 117.6851
569.3812, 116.9958
569.8633, 117.6026
570.3454, 118.7281
570.8275, 119.2991
571.3096, 119.3246
571.7917, 119.0915
572.2739, 118.6839
572.7560, 118.1226
573.2381, 117.1472
573.7202, 115.1094
574.2023, 115.1652
574.6844, 120.4239
575.1666, 125.4247
575.6487, 125.9998
576.1308, 123.1505
576.6129, 120.0040
577.0950, 118.1540
577.5771, 117.2074
578.0593, 116.2403
578.5414, 114.9641
579.0235, 114.4612
579.5056, 116.3590
579.9877, 117.5618
580.4698, 115.7896
580.9520, 112.2616
581.4341, 109.7812
581.9162, 109.5425
582.3983, 111.0188
582.8804, 114.6631
583.3625, 120.0827
583.8447, 122.7479
584.3268, 121.1722
584.8089, 117.5530
585.2910, 113.1132
585.7731, 108.1243
586.2552, 105.5994
586.7374, 107.7314
587.2195, 110.3670
587.7016, 111.3756
588.1837, 111.4183
588.6658, 111.7052
589.1479, 112.6040
589.6301, 113.7747
590.1122, 114.9774
590.5943, 116.3759
591.0764, 116.1428
591.5585, 111.9090
592.0406, 108.8025
592.5228, 108.7053
593.0049, 110.0549
593.4870, 111.1044
593.9691, 111.3917
594.4512, 111.3235
594.9333, 111.0249
595.4155, 110.6521
595.8976, 111.0126
596.3797, 112.3143
596.8618, 113.6345
597.3439, 114.6273
597.8260, 115.1702
598.3082, 114.9502
598.7903, 113.4172
599.2724, 112.5141
599.7545, 113.8250
600.2366, 115.4817
600.7188, 115.0477
601.2009, 112.7045
601.6830, 110.7106
602.1651, 110.6026
602.6472, 111.9562
603.1293, 113.3646
603.6115, 116.0030
604.0936, 116.4274
604.5757, 111.5679
605.0578, 107.1553
605.5399, 107.6438
606.0220, 111.8261
606.5042, 114.9807
606.9863, 113.9302
607.4684, 111.2810
607.9505, 111.4262
608.4326, 114.2968
608.9147, 117.2325
609.3969, 120.0803
609.8790, 121.7748
610.3611, 120.3503
610.8432, 116.1291
611.3253, 113.2477
611.8074, 112.3787
612.2896, 112.6956
612.7717, 114.9863
613.2538, 117.8235
613.7359, 118.6206
614.2180, 116.6959
614.7001, 113.7165
615.1823, 111.4947
615.6644, 110.0234
616.1465, 109.4946
616.6286, 110.7021
617.1107, 111.7833
617.5928, 112.5318
618.0750, 112.7802
618.5571, 111.8730
619.0392, 109.7979
619.5213, 108.5394
620.0034, 110.7291
620.4855, 114.5315
620.9677, 115.6609
621.4498, 113.8776
621.9319, 111.2968
622.4140, 108.6673
622.8961, 106.1767
623.3782, 104.0391
623.8604, 101.7015
624.3425, 101.3468
624.8246, 105.4471
625.3067, 109.6366
625.7888, 110.5585
626.2709, 109.1423
626.7531, 108.3646
627.2352, 109.7152
627.7173, 111.6360
628.1994, 110.8168
628.6815, 106.3868
629.1636, 104.0796
629.6458, 105.2657
630.1279, 107.3048
630.6100, 109.6518
631.0921, 111.6796
631.5742, 112.0109
632.0563, 109.7231
632.5385, 107.4751
633.0206, 107.9914
633.5027, 109.7019
633.9848, 108.8136
634.4669, 104.8677
634.9490, 101.8070
635.4312, 102.8189
635.9133, 106.8373
636.3954, 108.8115
636.8775, 105.5436
637.3596, 104.5183
637.8417, 108.3850
638.3239, 112.5932
638.8060, 113.6600
639.2881, 112.0476
639.7702, 110.2376
640.2523, 109.5993
640.7344, 109.8911
641.2166, 111.1266
641.6987, 113.4091
642.1808, 114.1260
642.6629, 111.8756
643.1450, 109.3893
643.6271, 109.4375
644.1093, 111.3588
644.5914, 112.8400
645.0735, 113.9989
645.5556, 114.1595
646.0377, 111.8673
646.5198, 108.8536
647.0020, 108.2222
647.4841, 110.2116
647.9662, 111.6870
648.4483, 109.5940
648.9304, 104.6529
649.4125, 101.9115
649.8947, 102.0079
650.3768, 103.2115
650.8589, 106.4950
651.3410, 109.7089
651.8231, 111.3550
652.3052, 111.4811
652.7874, 110.9859
653.2695, 109.8921
653.7516, 108.8065
654.2337, 108.7385
654.7158, 109.4186
655.1979, 109.6565
655.6801, 109.1412
656.1622, 107.8123
656.6443, 105.0135
657.1264, 100.4835
657.6085, 99.88063
658.0906, 108.1112
658.5728, 113.5706
659.0549, 111.1857
659.5370, 106.1121
660.0191, 103.8224
660.5012, 104.9986
660.9833, 106.6108
661.4655, 105.9173
661.9476, 103.9171
662.4297, 104.0796
662.9118, 106.7667
663.3939, 108.7221
663.8760, 108.7071
664.3582, 107.8277
664.8403, 107.3110
665.3224, 107.1240
665.8045, 106.8753
666.2866, 106.3851
666.7687, 105.9412
667.2509, 105.9981
667.7330, 106.1130
668.2151, 105.3319
668.6972, 103.5123
669.1793, 101.7592
669.6614, 101.3182
670.1436, 102.0606
670.6257, 102.0684
671.1078, 100.8902
671.5899, 99.91152
672.0720, 98.82015
672.5541, 98.57494
673.0363, 101.2471
673.5184, 106.3395
674.0005, 108.6867
674.4826, 103.2990
674.9647, 96.41653
675.4468, 94.38953
675.9290, 96.06869
676.4111, 98.01768
676.8932, 99.18069
677.3753, 99.82765
677.8574, 100.1788
678.3395, 100.2059
678.8217, 100.6832
679.3038, 102.3443
679.7859, 103.5145
680.2680, 103.4063
680.7501, 103.0290
681.2322, 103.3121
681.7144, 104.3114
682.1965, 105.4937
682.6786, 107.1155
683.1607, 108.2808
683.6428, 106.7944
684.1249, 103.0508
684.6071, 100.5345
685.0892, 100.3695
685.5713, 101.5048
686.0534, 102.9679
686.5355, 104.7988
687.0176, 106.0573
687.4998, 106.2623
687.9819, 106.5496
688.4640, 107.7011
688.9461, 108.7590
689.4282, 108.4344
689.9103, 106.8180
690.3925, 105.3143
690.8746, 104.7597
691.3567, 105.2772
691.8388, 108.0077
692.3209, 113.1240
692.8030, 115.8055
693.2852, 114.0856
693.7673, 110.8495
694.2494, 109.0056
694.7315, 108.4312
695.2136, 107.1814
695.6957, 104.0043
696.1779, 101.5640
696.6600, 101.5016
697.1421, 102.2205
697.6242, 101.7333
698.1063, 99.98355
698.5884, 98.54373
699.0706, 98.76476
699.5527, 99.88316
700.0348, 99.26002
700.5169, 96.34050
700.9990, 95.47786
701.4811, 98.75841
701.9633, 102.5680
702.4454, 103.2171
702.9275, 101.7811
703.4096, 101.9717
703.8917, 106.1553
704.3738, 109.4456
704.8560, 109.1264
705.3381, 107.2159
705.8202, 105.9878
706.3023, 105.7141
706.7844, 105.6237
707.2665, 105.1889
707.7487, 105.0472
708.2308, 104.2998
708.7129, 104.5187
709.1950, 104.3995
709.6771, 103.9299
710.1592, 102.9795
710.6414, 100.8130
711.1235, 98.22494
711.6056, 96.97365
712.0877, 97.63257
712.5698, 98.97318
713.0519, 101.1188
713.5341, 103.1845
714.0162, 104.1026
714.4983, 103.8726
714.9804, 102.8885
715.4625, 101.2953
715.9446, 99.62709
716.4268, 99.09566
716.9089, 99.97835
717.3910, 100.7752
717.8731, 101.6757
718.3552, 102.1603
718.8373, 101.7473
719.3195, 100.8960
719.8016, 100.1959
720.2837, 99.69613
720.7658, 99.54218
721.2479, 99.37618
721.7300, 99.88924
722.2122, 102.9801
722.6943, 107.5658
723.1764, 109.8867
723.6585, 108.2925
724.1406, 104.3521
724.6227, 99.91552
725.1049, 94.54465
725.5870, 92.92224
726.0691, 98.21371
726.5512, 102.1245
727.0333, 99.99316
727.5154, 96.30515
727.9976, 95.25771
728.4797, 97.23232
728.9618, 100.8884
729.4439, 108.4714
729.9260, 115.0796
730.4081, 115.0911
730.8903, 110.7107
731.3724, 107.1754
731.8545, 106.0401
732.3366, 106.0609
732.8187, 106.0141
733.3008, 105.9042
733.7830, 105.8738
734.2651, 106.3872
734.7472, 105.9641
735.2293, 102.6250
735.7114, 99.60799
736.1935, 99.71349
736.6757, 102.3266
737.1578, 104.3615
737.6399, 104.3939
738.1220, 104.2197
738.6041, 105.7033
739.0862, 107.4902
739.5684, 107.0785
740.0505, 104.3584
740.5326, 101.1026
741.0147, 98.36742
741.4968, 96.68309
741.9789, 98.17228
742.4611, 104.2178
742.9432, 108.2990
743.4253, 109.0919
743.9074, 108.6633
744.3895, 107.4729
744.8716, 106.1263
745.3538, 105.9510
745.8359, 107.6699
746.3180, 108.8515
746.8001, 107.6340
747.2822, 105.9013
747.7643, 106.0418
748.2465, 107.4785
748.7286, 107.4990
749.2107, 104.8664
749.6928, 102.0719
750.1749, 103.4212
750.6570, 109.2192
751.1392, 112.6933
751.6213, 113.2158
752.1034, 112.8636
752.5855, 112.1462
753.0676, 111.1523
753.5497, 109.8139
754.0319, 108.1088
754.5140, 107.0139
754.9961, 107.0048
755.4782, 107.4165
755.9603, 107.8648
756.4424, 108.4674
756.9246, 109.5873
757.4067, 111.2037
757.8888, 112.7265
758.3709, 113.7017
758.8530, 114.1568
759.3351, 113.8381
759.8173, 112.4934
760.2994, 112.7465
760.7815, 116.0997
761.2636, 119.4692
761.7457, 120.0513
762.2278, 118.3538
762.7100, 117.0042
763.1921, 115.5365
763.6742, 115.2278
764.1563, 118.0226
764.6384, 120.7459
765.1205, 120.1087
765.6027, 117.1486
766.0848, 115.2399
766.5669, 115.9758
767.0490, 117.7270
767.5311, 118.2997
768.0132, 117.9640
768.4954, 118.4658
768.9775, 120.0800
769.4596, 120.6929
769.9417, 118.2983
770.4238, 115.8247
770.9059, 119.1903
771.3881, 131.1742
771.8702, 137.5894
772.3523, 134.4431
772.8344, 130.7208
773.3165, 128.3567
773.7986, 127.7086
774.2808, 130.0356
774.7629, 134.8178
775.2450, 138.2949
775.7271, 136.9412
776.2092, 133.8300
776.6913, 133.9223
777.1735, 136.3474
777.6556, 137.1735
778.1377, 135.4363
778.6198, 133.7180
779.1019, 134.0900
779.5840, 136.4238
780.0662, 140.3161
780.5483, 148.1151
781.0304, 152.9801
781.5125, 151.8569
781.9946, 150.4255
782.4767, 151.5666
782.9589, 154.3460
783.4410, 156.9621
783.9231, 159.1316
784.4052, 160.3558
784.8873, 158.8484
785.3694, 157.2250
785.8516, 159.8196
786.3337, 165.3481
786.8158, 168.5669
787.2979, 167.4063
787.7800, 164.8644
788.2621, 165.0363
788.7443, 167.7944
789.2264, 168.6760
789.7085, 166.3406
790.1906, 166.0680
790.6727, 172.0760
791.1548, 178.1618
791.6370, 177.0696
792.1191, 169.9353
792.6012, 164.7317
793.0833, 162.7657
793.5654, 162.7086
794.0475, 165.1315
794.5297, 168.4894
795.0118, 171.6506
795.4939, 174.2488
795.9760, 175.7482
796.4581, 175.7209
796.9402, 175.3551
797.4224, 177.2837
797.9045, 180.8149
798.3866, 180.3545
798.8687, 174.8574
799.3508, 171.0451
799.8329, 173.1170
800.3151, 177.6651
800.7972, 178.2488
801.2793, 173.5670
801.7614, 170.0293
802.2435, 168.0523
802.7256, 166.5811
803.2078, 165.5894
803.6899, 164.7762
804.1720, 163.7566
804.6541, 162.5641
805.1362, 161.6377
805.6183, 160.9269
806.1005, 160.9299
806.5826, 163.1695
807.0647, 166.3127
807.5468, 166.8557
808.0289, 164.4680
808.5110, 162.2962
808.9932, 162.7227
809.4753, 164.3683
809.9574, 163.3352
810.4395, 158.8547
810.9216, 154.9868
811.4037, 151.2148
811.8859, 149.2895
812.3680, 151.8964
812.8501, 156.0583
813.3322, 156.8526
813.8143, 153.3010
814.2964, 152.1585
814.7786, 157.4286
815.2607, 162.9084
815.7428, 165.9638
816.2249, 166.4904
816.7070, 163.2459
817.1891, 156.9705
817.6713, 152.0596
818.1534, 152.1861
818.6355, 155.2787
819.1176, 157.4974
819.5997, 158.9885
820.0818, 161.4025
820.5640, 165.3033
821.0461, 167.4548
821.5282, 165.0545
822.0103, 159.8081
822.4924, 156.9170
822.9745, 157.1828
823.4567, 157.9939
823.9388, 159.9427
824.4209, 161.7596
824.9030, 163.4441
825.3851, 164.5186
825.8672, 164.1543
826.3494, 162.2736
826.8315, 160.3642
827.3136, 157.6618
827.7957, 156.5919
828.2778, 160.8714
828.7599, 167.7177
829.2421, 172.3205
829.7242, 173.6786
830.2063, 172.8515
830.6884, 170.3049
831.1705, 167.0681
831.6526, 165.6497
832.1348, 166.0809
832.6169, 167.5777
833.0990, 170.3412
833.5811, 173.2784
834.0632, 176.0125
834.5453, 178.3086
835.0275, 179.6268
835.5096, 179.6368
835.9917, 179.5819
836.4738, 177.9319
836.9559, 178.0254
837.4380, 182.5967
837.9202, 188.6248
838.4023, 193.1148
838.8844, 195.5574
839.3665, 196.4790
839.8486, 194.8334
840.3307, 193.4700
840.8129, 196.5897
841.2950, 201.7083
841.7771, 203.2515
842.2592, 200.9274
842.7413, 198.6709
843.2234, 198.8849
843.7056, 201.1376
844.1877, 205.3671
844.6698, 211.9610
845.1519, 214.9436
845.6340, 212.4664
846.1161, 211.1489
846.5983, 214.2358
847.0804, 219.4716
847.5625, 224.4816
848.0446, 229.4539
848.5267, 231.2392
849.0089, 226.8955
849.4910, 222.9783
849.9731, 221.6266
850.4552, 221.2239
850.9373, 220.6948
851.4194, 219.7268
851.9016, 217.9189
852.3837, 214.8493
852.8658, 211.7704
853.3479, 210.1926
853.8300, 209.1920
854.3121, 207.3999
854.7943, 204.6456
855.2764, 200.2964
855.7585, 194.0722
856.2406, 188.2941
856.7227, 186.3929
857.2048, 187.9662
857.6870, 187.4749
858.1691, 184.4832
858.6512, 181.0535
859.1333, 177.3340
859.6154, 173.9027
860.0975, 171.4883
860.5797, 169.8489
861.0618, 167.5484
861.5439, 163.7224
862.0260, 160.7014
862.5081, 159.3826
862.9902, 158.2613
863.4724, 156.2874
863.9545, 153.9613
864.4366, 152.2117
864.9187, 151.2480
865.4008, 150.4350
865.8829, 148.5032
866.3651, 147.1708
866.8472, 149.5880
867.3293, 153.9755
867.8114, 155.9885
868.2935, 154.7917
868.7756, 152.3066
869.2578, 149.8962
869.7399, 147.5423
870.2220, 145.0630
870.7041, 142.4204
871.1862, 140.5039
871.6683, 139.2753
872.1505, 139.3848
872.6326, 142.0909
873.1147, 145.2737
873.5968, 145.1514
874.0789, 140.9546
874.5610, 137.5897
875.0432, 135.4048
875.5253, 133.5817
876.0074, 132.2236
876.4895, 130.9320
876.9716, 128.7894
877.4537, 126.3530
877.9359, 125.7470
878.4180, 128.4777
878.9001, 131.1774
879.3822, 131.6220
879.8643, 131.0608
880.3464, 131.1067
880.8286, 131.4022
881.3107, 130.3583
881.7928, 127.5064
882.2749, 124.6111
882.7570, 123.8191
883.2391, 124.3707
883.7213, 123.6908
884.2034, 121.8806
884.6855, 120.7325
885.1676, 120.7224
885.6497, 121.0521
886.1318, 121.2387
886.6140, 121.1225
887.0961, 119.9486
887.5782, 116.4589
888.0603, 115.2705
888.5424, 118.8224
889.0245, 121.3377
889.5067, 119.8229
889.9888, 116.4783
890.4709, 113.5325
890.9530, 111.0873
891.4351, 109.1785
891.9172, 108.1138
892.3994, 107.1973
892.8815, 105.7279
893.3636, 104.5890
893.8457, 104.8944
894.3278, 106.3181
894.8099, 107.9320
895.2921, 109.4753
895.7742, 109.9770
896.2563, 107.4312
896.7384, 103.7967
897.2205, 102.6845
897.7026, 103.6937
898.1848, 104.6831
898.6669, 104.9751
899.1490, 105.1526
899.6311, 105.9296
900.1132, 106.8597
900.5953, 105.7923
901.0775, 102.4150
901.5596, 100.8780
902.0417, 102.3348
902.5238, 103.7508
903.0059, 103.2980
903.4880, 101.6634
903.9702, 99.99145
904.4523, 97.70289
904.9344, 97.75676
905.4165, 103.9296
905.8986, 107.5415
906.3807, 104.7650
906.8629, 100.1868
907.3450, 97.22426
907.8271, 96.01539
908.3092, 96.00420
908.7913, 97.56292
909.2734, 99.21899
909.7556, 100.6736
910.2377, 101.6400
910.7198, 102.1489
911.2019, 101.8929
911.6840, 99.88020
912.1661, 96.02982
912.6483, 92.39192
913.1304, 90.37080
913.6125, 89.86461
914.0946, 91.27247
914.5767, 94.05663
915.0588, 97.08298
915.5410, 99.92097
916.0231, 100.4300
916.5052, 97.03160
916.9873, 91.82024
917.4694, 88.63956
917.9515, 87.51998
918.4337, 87.89111
918.9158, 90.23026
919.3979, 91.66676
919.8800, 90.61931
920.3621, 89.55276
920.8442, 91.43474
921.3264, 95.86446
921.8085, 98.53417
922.2906, 98.98412
922.7727, 98.40920
923.2548, 95.81250
923.7369, 93.39223
924.2191, 92.25932
924.7012, 91.92101
925.1833, 91.67672
925.6654, 91.44907
926.1475, 91.19789
926.6296, 91.08217
927.1118, 90.73939
927.5939, 89.70253
928.0760, 88.54066
928.5581, 87.78809
929.0402, 87.50760
929.5223, 87.66906
930.0045, 88.32130
930.4866, 88.97706
930.9687, 89.62212
931.4508, 89.73237
931.9329, 87.96865
932.4150, 84.95206
932.8972, 82.44746
933.3793, 81.03369
933.8614, 81.02356
934.3435, 83.09188
934.8256, 85.85905
935.3077, 85.34223
935.7899, 81.85423
936.2720, 79.96324
936.7541, 80.21235
937.2362, 81.83598
937.7183, 84.99523
938.2004, 87.54752
938.6826, 85.65504
939.1647, 79.13050
939.6468, 77.26699
940.1289, 82.60043
940.6110, 86.44978
941.0931, 87.08114
941.5753, 85.94038
942.0574, 82.87742
942.5395, 79.00315
943.0216, 77.37167
943.5037, 78.72347
943.9858, 80.07499
944.4680, 81.89191
944.9501, 82.81972
945.4322, 81.82678
945.9143, 80.07879
946.3964, 78.31978
946.8785, 76.88573
947.3607, 76.72909
947.8428, 79.11773
948.3249, 80.75351
948.8070, 78.39736
949.2891, 75.72906
949.7712, 76.99232
950.2534, 80.44701
950.7355, 82.03896
951.2176, 80.85518
951.6997, 79.46667
952.1818, 80.19933
952.6639, 81.26744
953.1461, 79.44968
953.6282, 76.27663
954.1103, 75.85003
954.5924, 78.12569
955.0745, 79.66702
955.5566, 78.76404
956.0388, 77.09328
956.5209, 77.26073
957.0030, 78.63105
957.4851, 77.27064
957.9672, 73.20361
958.4493, 71.52139
958.9315, 73.60450
959.4136, 76.30599
959.8957, 77.32488
960.3778, 77.32406
960.8599, 78.27648
961.3420, 80.85121
961.8242, 80.54991
962.3063, 75.52109
962.7884, 72.31027
963.2705, 74.22355
963.7526, 77.21662
964.2347, 76.85877
964.7169, 73.79369
965.1990, 72.76649
965.6811, 76.19704
966.1632, 77.95805
966.6453, 76.90362
967.1274, 75.48576
967.6096, 74.49349
968.0917, 73.85107
968.5738, 73.54830
969.0559, 73.54185
969.5380, 73.31252
970.0201, 72.46049
970.5023, 71.72873
970.9844, 70.91638
971.4665, 70.74134
971.9486, 72.28809
972.4307, 74.76871
972.9128, 76.72726
973.3950, 77.76974
973.8771, 78.10101
974.3592, 77.34677
974.8413, 76.43950
975.3234, 76.42970
975.8055, 76.66666
976.2877, 76.29633
976.7698, 75.19511
977.2519, 73.16161
977.7340, 70.04345
978.2161, 67.59176
978.6982, 68.52758
979.1804, 67.27283
979.6625, 67.60321
980.1446, 69.17122
980.6267, 69.74728
981.1088, 73.18349
981.5909, 76.63722
982.0731, 78.25402
982.5552, 78.20003
983.0373, 76.36179
983.5194, 73.00050
984.0015, 69.41000
984.4836, 65.64792
984.9658, 65.13130
985.4479, 69.32701
985.9300, 73.17700
986.4121, 71.47395
986.8942, 66.56662
987.3763, 68.13705
987.8585, 78.15749
988.3406, 80.70798
988.8227, 72.32523
989.3048, 65.76693
989.7869, 66.88171
990.2690, 70.97860
990.7512, 72.62085
991.2333, 72.04185
991.7154, 72.09960
992.1975, 72.79063
992.6796, 74.21676
993.1617, 77.79103
993.6439, 80.14350
994.1260, 79.01542
994.6081, 76.13844
995.0902, 73.79748
995.5723, 71.99552
996.0544, 70.60866
996.5366, 69.37407
997.0187, 68.91525
997.5008, 70.20438
997.9829, 71.40883
998.4650, 71.81429
998.9471, 71.21373
999.4293, 68.49139
999.9114, 63.27922
1000.393, 61.12544
1000.876, 66.95277
1001.358, 71.81528
1001.840, 70.78800
1002.322, 68.18472
1002.804, 67.60056
1003.286, 68.74655
1003.768, 70.48375
1004.250, 72.61253
1004.733, 73.10662
1005.215, 68.31496
1005.697, 64.23578
1006.179, 66.87736
1006.661, 71.96215
1007.143, 73.65776
1007.625, 72.28840
1008.107, 71.68783
1008.589, 73.51630
1009.072, 75.42077
1009.554, 75.19128
1010.036, 74.14928
1010.518, 73.91698
1011.000, 74.07680
1011.482, 73.65611
1011.964, 72.59453
1012.446, 71.40038
1012.929, 70.28829
1013.411, 69.67690
1013.893, 70.92216
1014.375, 69.26477
1014.857, 71.22102
1015.339, 67.67716
1015.821, 65.40934
1016.303, 65.11118
1016.785, 65.14906
1017.268, 64.33467
1017.750, 63.74345
1018.232, 65.90440
1018.714, 65.93262
1019.196, 66.86877
1019.678, 68.94727
1020.160, 68.82762
1020.642, 71.54207
1021.125, 72.97390
1021.607, 69.44014
1022.089, 63.81636
1022.571, 63.15177
1023.053, 67.12258
1023.535, 69.52505
1024.017, 70.10365
1024.499, 70.11584
1024.981, 69.95750
1025.464, 69.20924
1025.946, 67.25779
1026.428, 64.84949
1026.910, 64.70895
1027.392, 67.23775
1027.874, 67.85844
1028.356, 65.84394
1028.838, 64.90261
1029.321, 66.73180
1029.803, 68.71082
1030.285, 67.81300
1030.767, 65.22016
1031.249, 66.99789
1031.731, 75.87074
1032.213, 77.92269
1032.695, 69.22817
1033.177, 63.09473
1033.660, 65.82609
1034.142, 70.67911
1034.624, 70.67684
1035.106, 66.58488
1035.588, 63.02999
1036.070, 59.34044
1036.552, 57.91222
1037.034, 60.06255
1037.516, 62.29790
1037.999, 63.43752
1038.481, 63.92400
1038.963, 63.68633
1039.445, 63.03618
1039.927, 64.47999
1040.409, 71.32674
1040.891, 74.39079
1041.373, 70.39440
1041.855, 66.74851
1042.338, 65.87678
1042.820, 66.85865
1043.302, 70.14737
1043.784, 75.01962
1044.266, 76.01134
1044.748, 69.31075
1045.230, 64.88559
1045.712, 64.30449
1046.195, 64.81432
1046.677, 65.88939
1047.159, 67.10859
1047.641, 68.06627
1048.123, 68.77337
1048.605, 69.51179
1049.087, 71.36880
1049.569, 71.33208
1050.052, 66.17460
1050.534, 62.33244
1051.016, 64.05563
1051.498, 67.70439
1051.980, 69.34988
1052.462, 68.97990
1052.944, 68.43252
1053.426, 68.04280
1053.908, 67.46955
1054.391, 66.36536
1054.873, 65.37600
1055.355, 65.39744
1055.837, 65.31174
1056.319, 63.01974
1056.801, 59.20543
1057.283, 57.76320
1057.765, 60.57763
1058.248, 63.49055
1058.730, 66.19115
1059.212, 67.65940
1059.694, 66.36185
1060.176, 64.20004
1060.658, 63.13875
1061.140, 63.29272
1061.622, 64.08128
1062.104, 65.50607
1062.587, 67.10067
1063.069, 70.28809
1063.551, 71.78355
1064.033, 67.61705
1064.515, 62.15083
1064.997, 60.31879
1065.479, 61.99393
1065.961, 64.75060
1066.443, 68.58182
1066.926, 70.94270
1067.408, 69.35424
1067.890, 67.64135
1068.372, 68.65783
1068.854, 70.37933
1069.336, 70.23412
1069.818, 68.56152
1070.300, 67.48553
1070.782, 67.84460
1071.265, 67.65167
1071.747, 65.34157
1072.229, 63.01217
1072.711, 61.46544
1073.193, 60.91280
1073.675, 62.22701
1074.157, 64.61468
1074.639, 66.02692
1075.122, 65.86967
1075.604, 64.90234
1076.086, 62.49357
1076.568, 60.53764
1077.050, 60.56635
1077.532, 61.26995
1078.014, 60.95064
1078.496, 60.18451
1078.979, 60.98457
1079.461, 63.96931
1079.943, 66.41651
1080.425, 66.94658
1080.907, 66.75506
1081.389, 66.33794
1081.871, 65.64285
1082.353, 64.25386
1082.835, 62.63968
1083.318, 61.69670
1083.800, 61.62990
1084.282, 62.19530
1084.764, 64.07981
1085.246, 65.56060
1085.728, 65.53521
1086.210, 64.96379
1086.692, 64.12231
1087.175, 63.59208
1087.657, 65.09824
1088.139, 68.59035
1088.621, 69.39489
1089.103, 61.74191
1089.585, 56.52993
1090.067, 61.84832
1090.549, 68.02489
1091.031, 66.89427
1091.514, 62.02868
1091.996, 59.20355
1092.478, 59.15183
1092.960, 59.75665
1093.442, 60.82415
1093.924, 61.48951
1094.406, 61.19707
1094.888, 60.65752
1095.370, 59.81852
1095.853, 59.34392
1096.335, 60.09778
1096.817, 62.01548
1097.299, 64.64949
1097.781, 69.53574
1098.263, 70.85864
1098.745, 62.07816
1099.227, 54.82294
1099.709, 57.25045
1100.192, 62.74199
1100.674, 64.16136
1101.156, 62.12875
1101.638, 60.84845
1102.120, 61.23547
1102.602, 61.92120
1103.084, 63.95868
1103.566, 64.45567
1104.049, 60.84806
1104.531, 56.49878
1105.013, 53.92699
1105.495, 52.96797
1105.977, 52.76568
1106.459, 53.19312
1106.941, 54.53362
1107.423, 57.81935
1107.906, 60.65458
1108.388, 62.44530
1108.870, 63.54017
1109.352, 64.96594
1109.834, 65.49601
1110.316, 61.73174
1110.798, 53.10094
1111.280, 49.36071
1111.762, 55.55249
1112.245, 60.18716
1112.727, 60.63525
1113.209, 60.65943
1113.691, 62.36193
1114.173, 64.46802
1114.655, 65.29914
1115.137, 64.93595
1115.619, 64.58829
1116.102, 65.31695
1116.584, 64.10809
1117.066, 58.80277
1117.548, 54.72747
1118.030, 54.32590
1118.512, 55.22116
1118.994, 54.99995
1119.476, 54.21028
1119.958, 55.35315
1120.441, 60.17394
1120.923, 60.97054
1121.405, 54.60382
1121.887, 51.32838
1122.369, 55.25882
1122.851, 60.20520
1123.333, 61.76692
1123.815, 61.00438
1124.297, 60.03729
1124.780, 58.73720
1125.262, 59.18623
1125.744, 62.30969
1126.226, 63.53960
1126.708, 61.56280
1127.190, 59.31865
1127.672, 58.23322
1128.154, 58.33090
1128.636, 60.10604
1129.119, 63.04350
1129.601, 62.08895
1130.083, 56.62005
1130.565, 54.37367
1131.047, 56.41919
1131.529, 59.10425
1132.011, 61.10683
1132.493, 62.21795
1132.976, 62.19386
1133.458, 61.16549
1133.940, 59.10664
1134.422, 56.18697
1134.904, 54.36601
1135.386, 53.78008
1135.868, 56.00828
1136.350, 61.37538
1136.833, 64.95733
1137.315, 63.09110
1137.797, 58.69944
1138.279, 56.40137
1138.761, 55.73063
1139.243, 55.27808
1139.725, 54.99904
1140.207, 54.31617
1140.689, 53.46317
1141.172, 54.96420
1141.654, 59.96796
1142.136, 64.42787
1142.618, 63.38050
1143.100, 59.76555
1143.582, 58.62761
1144.064, 58.66744
1144.546, 56.62022
1145.029, 53.19457
1145.511, 51.37031
1145.993, 52.02229
1146.475, 54.42098
1146.957, 58.91536
1147.439, 62.76963
1147.921, 62.98664
1148.403, 61.29220
1148.885, 58.26703
1149.368, 55.62172
1149.850, 57.56632
1150.332, 62.87337
1150.814, 63.94692
1151.296, 56.70338
1151.778, 50.87294
1152.260, 54.96868
1152.742, 59.37517
1153.224, 56.56860
1153.707, 51.47867
1154.189, 48.66265
1154.671, 48.37241
1155.153, 50.63655
1155.635, 55.51111
1156.117, 57.98647
1156.599, 53.72475
1157.081, 50.77594
1157.563, 52.51040
1158.046, 55.35136
1158.528, 58.02804
1159.010, 59.87940
1159.492, 60.18810
1159.974, 58.98630
1160.456, 56.78106
1160.938, 51.53131
1161.420, 49.33451
1161.903, 52.77269
1162.385, 55.93256
1162.867, 56.98589
1163.349, 57.50323
1163.831, 58.98295
1164.313, 60.65641
1164.795, 60.48929
1165.277, 58.17982
1165.760, 56.38948
1166.242, 54.60471
1166.724, 55.30156
1167.206, 59.74612
1167.688, 63.90090
1168.170, 65.81831
1168.652, 66.03149
1169.134, 65.03899
1169.616, 63.09484
1170.099, 61.30057
1170.581, 59.65091
1171.063, 58.25013
1171.545, 57.09474
1172.027, 57.63019
1172.509, 60.33576
1172.991, 62.14267
1173.473, 60.55334
1173.956, 57.67638
1174.438, 57.29744
1174.920, 58.57029
1175.402, 58.35817
1175.884, 57.35604
1176.366, 59.12608
1176.848, 63.21706
1177.330, 64.17392
1177.813, 59.81807
1178.295, 55.21146
1178.777, 55.20304
1179.259, 52.93325
1179.741, 55.42559
1180.223, 53.64149
1180.705, 54.84108
1181.187, 58.36794
1181.669, 63.35346
1182.151, 68.74323
1182.634, 71.15694
1183.116, 68.46983
1183.598, 64.80276
1184.080, 61.87790
1184.562, 59.58218
1185.044, 57.42265
1185.526, 56.20079
1186.008, 57.23677
1186.490, 59.75415
1186.973, 61.79539
1187.455, 62.98596
1187.937, 64.65281
1188.419, 69.67205
1188.901, 71.28844
1189.383, 65.06936
1189.865, 58.82570
1190.347, 55.87471
1190.830, 55.40829
1191.312, 57.32758
1191.794, 61.02893
1192.276, 63.65883
1192.758, 65.61487
1193.240, 64.94029
1193.722, 60.60155
1194.204, 56.62432
1194.687, 53.75272
1195.169, 51.88757
1195.651, 50.79588
1196.133, 51.30373
1196.615, 55.59573
1197.097, 53.94419
1197.579, 62.01052
1198.061, 55.18783
1198.543, 52.94350
1199.026, 56.00114
1199.508, 58.87756
1199.990, 59.67059
1200.472, 58.96387
1200.954, 56.94069
1201.436, 55.00463
1201.918, 55.87466
1202.400, 55.22065
1202.883, 55.52153
1203.365, 56.80379
1203.847, 57.08379
1204.329, 58.77475
1204.811, 60.42259
1205.293, 61.43046
1205.775, 61.10845
1206.257, 57.62041
1206.740, 54.53563
1207.222, 54.65611
1207.704, 56.13676
1208.186, 58.28706
1208.668, 60.07574
1209.150, 59.57111
1209.632, 57.33020
1210.114, 56.93079
1210.596, 60.18690
1211.078, 61.88620
1211.561, 58.88713
1212.043, 57.12872
1212.525, 60.63861
1213.007, 63.48603
1213.489, 60.73425
1213.971, 55.84438
1214.453, 54.22626
1214.935, 55.69485
1215.417, 56.91091
1215.900, 57.91759
1216.382, 58.40966
1216.864, 58.17680
1217.346, 58.36349
1217.828, 59.45325
1218.310, 60.36008
1218.792, 60.23176
1219.274, 59.53606
1219.757, 59.22472
1220.239, 59.09450
1220.721, 57.32177
1221.203, 54.72018
1221.685, 56.76727
1222.167, 62.73346
1222.649, 64.52479
1223.131, 59.68224
1223.614, 54.41067
1224.096, 53.41418
1224.578, 51.21071
1225.060, 52.81522
1225.542, 51.78716
1226.024, 53.99773
1226.506, 57.34941
1226.988, 58.30079
1227.470, 57.22162
1227.953, 56.93762
1228.435, 58.30907
1228.917, 57.89398
1229.399, 50.94728
1229.881, 46.95256
1230.363, 51.37205
1230.845, 56.90885
1231.327, 60.68907
1231.810, 62.22139
1232.292, 59.84747
1232.774, 54.88939
1233.256, 52.54546
1233.738, 53.42139
1234.220, 54.37496
1234.702, 55.49743
1235.184, 56.47625
1235.667, 57.43293
1236.149, 57.33316
1236.631, 55.37397
1237.113, 53.35421
1237.595, 53.46178
1238.077, 55.12238
1238.559, 57.04612
1239.041, 58.97889
1239.523, 60.19456
1240.005, 60.23993
1240.488, 55.29729
1240.970, 46.20910
1241.452, 42.96265
1241.934, 50.53971
1242.416, 58.65002
1242.898, 56.06973
1243.380, 51.46446
1243.862, 54.36831
1244.344, 59.28878
1244.827, 59.69305
1245.309, 57.67222
1245.791, 57.92433
1246.273, 60.38101
1246.755, 60.89418
1247.237, 57.49646
1247.719, 55.32549
1248.201, 56.36449
1248.684, 57.60616
1249.166, 58.83089
1249.648, 59.18868
1250.130, 57.08584
1250.612, 55.03918
1251.094, 57.03738
1251.576, 62.10002
1252.058, 63.62338
1252.541, 61.03584
1253.023, 58.82071
1253.505, 57.00597
1253.987, 56.89006
1254.469, 58.80700
1254.951, 60.88403
1255.433, 62.09467
1255.915, 62.03183
1256.397, 59.76015
1256.880, 56.49253
1257.362, 54.71342
1257.844, 53.66878
1258.326, 51.29110
1258.808, 48.54779
1259.290, 48.35144
1259.772, 50.62852
1260.254, 52.24154
1260.737, 51.67567
1261.219, 52.37376
1261.701, 58.02449
1262.183, 62.86469
1262.665, 64.15005
1263.147, 63.57882
1263.629, 61.60186
1264.111, 59.08626
1264.594, 56.91587
1265.076, 55.17663
1265.558, 53.93721
1266.040, 52.41840
1266.522, 54.90697
1267.004, 63.75475
1267.486, 67.89700
1267.968, 64.36333
1268.450, 59.89347
1268.932, 57.68671
1269.415, 57.74302
1269.897, 60.67060
1270.379, 64.45564
1270.861, 63.51214
1271.343, 59.63831
1271.825, 58.52211
1272.307, 59.34148
1272.789, 58.50344
1273.271, 56.09797
1273.754, 55.38372
1274.236, 57.52916
1274.718, 59.78912
1275.200, 60.55813
1275.682, 60.64825
1276.164, 60.20494
1276.646, 59.62331
1277.128, 58.59064
1277.611, 58.04544
1278.093, 59.90797
1278.575, 63.07042
1279.057, 63.58997
1279.539, 60.98429
1280.021, 58.89872
1280.503, 57.04771
1280.985, 56.91009
1281.468, 59.71216
1281.950, 59.63285
1282.432, 53.80491
1282.914, 48.78133
1283.396, 50.26855
1283.878, 54.78155
1284.360, 55.60244
1284.842, 54.31481
1285.324, 55.37229
##END=



