##NAMES=Kovdorskite
##RRUFFID=R060579
##IDEAL CHEMISTRY=Mg_2_PO_4_(OH)&#183;3H_2_O
##LOCALITY=Kovdor Massif, Kola Peninsula, Murmanskaja Oblast', Northern Region, Russia
##OWNER=RRUFF
##SOURCE=Michael Scott
##DESCRIPTION=Pale blue prismatic crystals
##STATUS=The identification of this mineral has been confirmed by X-ray diffraction and chemical analysis
##URL=rruff.info/R060579
##MEASURED CHEMISTRY=(Mg_1.98_Fe_0.02_)_Σ=2_P_1.00_O_4_(OH)·3H_2_O; H_2_O by difference; (OH) by charge balance
91.53320, 298.4056
92.01532, 305.5250
92.49744, 307.3500
92.97955, 305.6428
93.46167, 299.6291
93.94379, 292.4843
94.42590, 286.6945
94.90802, 281.5092
95.39014, 275.2876
95.87225, 267.7815
96.35437, 260.4638
96.83649, 254.1853
97.31860, 248.5029
97.80072, 242.8643
98.28284, 236.5156
98.76495, 229.5986
99.24707, 224.2112
99.72919, 221.7300
100.2113, 219.2944
100.6934, 216.1368
101.1755, 212.4017
101.6577, 208.5471
102.1398, 204.8638
102.6219, 201.2529
103.1040, 198.3431
103.5861, 195.9119
104.0682, 194.0576
104.5504, 192.9349
105.0325, 192.5161
105.5146, 192.5301
105.9967, 192.6695
106.4788, 193.1658
106.9609, 193.0695
107.4431, 191.3909
107.9252, 189.3190
108.4073, 188.6619
108.8894, 190.2652
109.3715, 192.8898
109.8536, 194.1672
110.3358, 193.7416
110.8179, 193.7404
111.3000, 195.4739
111.7821, 198.7987
112.2642, 202.3304
112.7463, 205.4855
113.2285, 208.6796
113.7106, 212.3372
114.1927, 216.5616
114.6748, 221.1315
115.1569, 225.5008
115.6390, 229.1984
116.1212, 234.1110
116.6033, 241.2351
117.0854, 249.5025
117.5675, 258.0905
118.0496, 266.7393
118.5317, 275.2610
119.0139, 282.7165
119.4960, 290.4175
119.9781, 295.2542
120.4602, 296.5338
120.9423, 294.5957
121.4244, 289.8954
121.9066, 282.5746
122.3887, 272.3965
122.8708, 262.5920
123.3529, 252.1005
123.8350, 242.7072
124.3171, 235.2275
124.7993, 229.7034
125.2814, 225.7965
125.7635, 223.1852
126.2456, 222.1069
126.7277, 222.2667
127.2098, 223.4100
127.6920, 225.9025
128.1741, 229.9655
128.6562, 235.5272
129.1383, 243.1323
129.6204, 253.8328
130.1025, 267.1961
130.5847, 282.5638
131.0668, 300.4445
131.5489, 320.2932
132.0310, 340.7595
132.5131, 364.6999
132.9952, 385.4593
133.4774, 399.9936
133.9595, 408.1223
134.4416, 407.6242
134.9237, 394.2557
135.4058, 366.1771
135.8879, 337.5410
136.3701, 307.5192
136.8522, 280.0182
137.3343, 257.6681
137.8164, 240.9758
138.2985, 228.8110
138.7806, 219.2011
139.2628, 212.6457
139.7449, 208.1982
140.2270, 205.9286
140.7091, 205.1840
141.1912, 205.6715
141.6733, 207.2504
142.1555, 209.5581
142.6376, 211.3293
143.1197, 212.0692
143.6018, 212.7748
144.0839, 213.4726
144.5660, 214.2066
145.0482, 214.8926
145.5303, 215.3752
146.0124, 215.8586
146.4945, 217.9301
146.9766, 222.0634
147.4587, 226.8853
147.9409, 232.1826
148.4230, 237.8123
148.9051, 243.2108
149.3872, 247.8817
149.8693, 251.9736
150.3514, 256.5879
150.8336, 261.1497
151.3157, 266.5988
151.7978, 273.7600
152.2799, 282.7355
152.7620, 293.1694
153.2441, 305.7042
153.7263, 319.5153
154.2084, 333.6111
154.6905, 347.4611
155.1726, 361.2935
155.6547, 376.1967
156.1368, 393.6834
156.6190, 409.1822
157.1011, 421.6129
157.5832, 430.7353
158.0653, 436.0333
158.5474, 437.2610
159.0295, 434.3964
159.5117, 427.0673
159.9938, 412.6016
160.4759, 395.6026
160.9580, 376.9058
161.4401, 357.0157
161.9222, 336.7255
162.4044, 316.6162
162.8865, 296.4167
163.3686, 277.3996
163.8507, 258.8250
164.3328, 241.7932
164.8149, 226.9624
165.2971, 214.2278
165.7792, 203.3726
166.2613, 194.0988
166.7434, 186.8911
167.2255, 180.2595
167.7076, 174.0722
168.1898, 168.4139
168.6719, 163.2896
169.1540, 158.7016
169.6361, 154.8441
170.1182, 152.0619
170.6003, 150.8327
171.0825, 149.6014
171.5646, 148.2375
172.0467, 146.8717
172.5288, 145.6606
173.0109, 144.6540
173.4930, 143.7737
173.9752, 142.7615
174.4573, 141.4493
174.9394, 140.7997
175.4215, 141.4964
175.9036, 143.0538
176.3857, 144.3515
176.8679, 144.9772
177.3500, 145.4032
177.8321, 146.2473
178.3142, 147.5204
178.7963, 148.9497
179.2784, 150.4553
179.7606, 152.0274
180.2427, 153.4559
180.7248, 154.4446
181.2069, 155.4948
181.6890, 157.0831
182.1711, 159.2678
182.6533, 161.5904
183.1354, 163.9244
183.6175, 166.4165
184.0996, 167.7567
184.5817, 166.0335
185.0638, 164.0144
185.5460, 163.3352
186.0281, 164.3401
186.5102, 166.2108
186.9923, 167.7931
187.4744, 168.8178
187.9565, 170.2963
188.4387, 172.1222
188.9208, 174.5093
189.4029, 177.7306
189.8850, 181.8580
190.3671, 186.5447
190.8492, 191.1740
191.3314, 195.2354
191.8135, 200.1044
192.2956, 206.1128
192.7777, 212.7021
193.2598, 219.2466
193.7419, 225.5049
194.2241, 231.9236
194.7062, 239.5622
195.1883, 249.1884
195.6704, 259.3937
196.1525, 270.4815
196.6346, 281.9958
197.1168, 293.5920
197.5989, 305.1508
198.0810, 316.4156
198.5631, 326.5912
199.0452, 336.8098
199.5273, 344.6383
200.0095, 350.1413
200.4916, 352.9215
200.9737, 352.1819
201.4558, 347.3454
201.9379, 339.1144
202.4200, 329.0782
202.9022, 316.8170
203.3843, 304.1100
203.8664, 290.4940
204.3485, 276.7319
204.8306, 265.0377
205.3127, 256.4603
205.7949, 250.5817
206.2770, 246.0525
206.7591, 242.7855
207.2412, 240.7510
207.7233, 240.1479
208.2054, 240.8669
208.6876, 242.2550
209.1697, 244.0671
209.6518, 246.5100
210.1339, 249.7411
210.6160, 253.8795
211.0981, 258.4442
211.5803, 263.0478
212.0624, 267.6798
212.5445, 272.6040
213.0266, 277.8616
213.5087, 283.4801
213.9908, 289.4606
214.4730, 295.7640
214.9551, 302.4756
215.4372, 309.4983
215.9193, 316.7896
216.4014, 324.8372
216.8836, 334.3187
217.3657, 344.3828
217.8478, 355.1064
218.3299, 366.4971
218.8120, 377.1548
219.2941, 384.9798
219.7763, 389.4393
220.2584, 392.6889
220.7405, 394.5067
221.2226, 395.7314
221.7047, 396.4142
222.1868, 396.6611
222.6690, 397.5267
223.1511, 400.4728
223.6332, 405.1618
224.1153, 413.1542
224.5974, 425.7482
225.0795, 440.2928
225.5617, 455.6088
226.0438, 471.1451
226.5259, 486.0496
227.0080, 499.3241
227.4901, 513.4009
227.9722, 520.4065
228.4544, 520.5055
228.9365, 514.5056
229.4186, 502.4985
229.9007, 484.7317
230.3828, 461.9671
230.8649, 435.3447
231.3471, 400.1701
231.8292, 368.4394
232.3113, 340.3694
232.7934, 315.2928
233.2755, 292.6366
233.7576, 272.3255
234.2398, 254.2299
234.7219, 238.4510
235.2040, 225.5857
235.6861, 214.4400
236.1682, 205.3799
236.6503, 197.7729
237.1325, 191.3819
237.6146, 186.1138
238.0967, 181.4362
238.5788, 176.5877
239.0609, 171.4712
239.5430, 166.4551
240.0252, 161.1579
240.5073, 156.1843
240.9894, 152.3182
241.4715, 149.7233
241.9536, 147.7258
242.4357, 145.3625
242.9179, 142.4226
243.4000, 140.1525
243.8821, 138.9356
244.3642, 138.3323
244.8463, 137.8695
245.3284, 137.4470
245.8106, 137.2581
246.2927, 137.6328
246.7748, 138.5919
247.2569, 139.4927
247.7390, 139.8981
248.2211, 140.3483
248.7033, 141.4854
249.1854, 143.4231
249.6675, 145.9249
250.1496, 148.9178
250.6317, 152.3639
251.1138, 155.9627
251.5960, 159.5448
252.0781, 163.3017
252.5602, 167.7269
253.0423, 172.9804
253.5244, 178.1040
254.0065, 182.6771
254.4887, 186.5028
254.9708, 188.6178
255.4529, 188.7000
255.9350, 186.9528
256.4171, 183.4044
256.8992, 177.8611
257.3813, 171.4258
257.8635, 163.7507
258.3456, 155.7711
258.8277, 149.1946
259.3098, 145.2429
259.7919, 142.5746
260.2740, 139.0812
260.7562, 134.4008
261.2383, 130.4653
261.7204, 129.1823
262.2025, 129.1143
262.6846, 128.4822
263.1667, 126.3899
263.6489, 123.9936
264.1310, 122.9944
264.6131, 123.6353
265.0952, 124.6204
265.5773, 125.4858
266.0594, 126.3632
266.5416, 127.4022
267.0237, 128.6678
267.5058, 130.0443
267.9879, 131.3277
268.4700, 132.4375
268.9521, 133.8229
269.4343, 136.2889
269.9164, 138.7573
270.3985, 140.1447
270.8806, 140.1039
271.3627, 139.8521
271.8448, 141.0749
272.3270, 144.1237
272.8091, 146.8373
273.2912, 148.3232
273.7733, 149.5466
274.2554, 151.1133
274.7375, 153.1308
275.2197, 155.2367
275.7018, 157.0871
276.1839, 158.6703
276.6660, 160.0244
277.1481, 160.9677
277.6302, 161.7950
278.1124, 162.8255
278.5945, 163.9893
279.0766, 164.7283
279.5587, 164.2274
280.0408, 162.2831
280.5229, 160.9428
281.0051, 160.7396
281.4872, 160.8225
281.9693, 160.7398
282.4514, 160.5986
282.9335, 160.8616
283.4156, 162.1505
283.8978, 164.5027
284.3799, 166.1068
284.8620, 166.1538
285.3441, 166.2165
285.8262, 166.6563
286.3083, 167.5279
286.7905, 168.8659
287.2726, 170.7510
287.7547, 173.1335
288.2368, 175.5386
288.7189, 178.3565
289.2010, 180.6877
289.6832, 181.7310
290.1653, 182.2486
290.6474, 183.4094
291.1295, 185.9245
291.6116, 189.4886
292.0938, 192.8249
292.5759, 195.3966
293.0580, 198.5391
293.5401, 202.2155
294.0222, 206.6434
294.5043, 212.1739
294.9865, 218.9919
295.4686, 226.6526
295.9507, 233.9483
296.4328, 239.8259
296.9149, 247.3394
297.3970, 257.3192
297.8792, 268.5368
298.3613, 280.1489
298.8434, 291.8617
299.3255, 303.4160
299.8076, 314.4468
300.2897, 325.1454
300.7719, 334.7998
301.2540, 344.6077
301.7361, 352.7155
302.2182, 358.1613
302.7003, 360.6739
303.1824, 360.4924
303.6646, 357.8491
304.1467, 352.6779
304.6288, 345.1094
305.1109, 333.6134
305.5930, 321.1710
306.0751, 308.5112
306.5573, 296.0521
307.0394, 284.3466
307.5215, 273.9337
308.0036, 264.7987
308.4857, 256.3693
308.9678, 248.2837
309.4500, 241.2930
309.9321, 235.8660
310.4142, 231.7013
310.8963, 228.2030
311.3784, 224.9540
311.8605, 221.9923
312.3427, 219.6608
312.8248, 217.9591
313.3069, 216.9800
313.7890, 217.0365
314.2711, 217.7128
314.7532, 218.4398
315.2354, 218.9197
315.7175, 219.4066
316.1996, 220.6864
316.6817, 223.5732
317.1638, 225.9874
317.6459, 227.4100
318.1281, 228.4747
318.6102, 229.8069
319.0923, 231.5857
319.5744, 233.4237
320.0565, 234.5772
320.5386, 234.4718
321.0208, 235.0233
321.5029, 236.8462
321.9850, 238.8306
322.4671, 239.9396
322.9492, 240.2689
323.4313, 241.0287
323.9135, 243.7997
324.3956, 249.1497
324.8777, 253.6146
325.3598, 256.2360
325.8419, 258.8681
326.3240, 262.0389
326.8062, 265.8326
327.2883, 270.2492
327.7704, 275.3856
328.2525, 281.1956
328.7346, 286.9997
329.2167, 292.4984
329.6989, 298.4044
330.1810, 304.9012
330.6631, 311.9102
331.1452, 319.1694
331.6273, 326.4914
332.1094, 334.1555
332.5916, 343.0683
333.0737, 353.6645
333.5558, 364.8932
334.0379, 376.3661
334.5200, 388.3942
335.0021, 400.9015
335.4843, 413.9406
335.9664, 428.1185
336.4485, 444.6238
336.9306, 464.4411
337.4127, 483.7818
337.8948, 500.4790
338.3770, 518.0141
338.8591, 538.5023
339.3412, 562.1603
339.8233, 587.6226
340.3055, 614.0106
340.7876, 641.3049
341.2697, 668.7185
341.7518, 697.5029
342.2339, 724.9092
342.7160, 751.4842
343.1982, 775.9780
343.6803, 796.0645
344.1624, 810.3954
344.6445, 819.0251
345.1266, 822.2506
345.6087, 820.3685
346.0909, 811.7727
346.5730, 796.5262
347.0551, 775.4146
347.5372, 748.8201
348.0193, 715.9986
348.5014, 679.9647
348.9836, 645.4534
349.4657, 612.6955
349.9478, 581.2352
350.4299, 550.6192
350.9120, 521.4011
351.3941, 493.9905
351.8763, 468.5246
352.3584, 445.3375
352.8405, 425.3143
353.3226, 408.4327
353.8047, 392.6559
354.2868, 377.6354
354.7690, 363.9286
355.2511, 351.8993
355.7332, 341.3872
356.2153, 331.9211
356.6974, 323.1283
357.1795, 315.1137
357.6617, 308.3156
358.1438, 302.9077
358.6259, 298.5046
359.1080, 295.3425
359.5901, 292.9084
360.0722, 290.3235
360.5544, 286.9591
361.0365, 283.6832
361.5186, 281.6417
362.0007, 280.8940
362.4828, 281.0405
362.9649, 282.2516
363.4471, 284.1552
363.9292, 286.3004
364.4113, 288.6157
364.8934, 291.3285
365.3755, 294.5294
365.8576, 298.2481
366.3398, 302.5648
366.8219, 307.2833
367.3040, 313.0408
367.7861, 320.8448
368.2682, 330.4869
368.7503, 340.0274
369.2325, 348.4385
369.7146, 356.3846
370.1967, 365.1604
370.6788, 375.0578
371.1609, 384.8064
371.6430, 393.1463
372.1252, 400.5132
372.6073, 408.1942
373.0894, 417.2523
373.5715, 425.9369
374.0536, 433.5116
374.5357, 439.7430
375.0179, 443.2828
375.5000, 443.2649
375.9821, 440.1381
376.4642, 435.1439
376.9463, 428.2553
377.4284, 420.0161
377.9106, 410.4601
378.3927, 399.7401
378.8748, 388.0021
379.3569, 375.2425
379.8390, 361.8085
380.3211, 347.8536
380.8033, 333.2035
381.2854, 319.2285
381.7675, 306.6299
382.2496, 294.3977
382.7317, 281.2334
383.2138, 267.3263
383.6960, 254.4389
384.1781, 243.8992
384.6602, 235.6213
385.1423, 227.5318
385.6244, 219.3442
386.1065, 211.6016
386.5887, 204.4978
387.0708, 197.9903
387.5529, 191.9541
388.0350, 186.3291
388.5171, 181.1774
388.9992, 176.6134
389.4814, 172.8559
389.9635, 169.4555
390.4456, 166.5955
390.9277, 163.9634
391.4098, 161.2267
391.8919, 158.3943
392.3741, 155.7681
392.8562, 153.6810
393.3383, 152.1723
393.8204, 150.8686
394.3025, 149.9414
394.7846, 149.0256
395.2668, 147.8373
395.7489, 146.5837
396.2310, 145.6469
396.7131, 145.2533
397.1952, 145.3183
397.6773, 145.6010
398.1595, 146.5551
398.6416, 146.9417
399.1237, 145.8465
399.6058, 144.6441
400.0879, 144.5794
400.5700, 145.9056
401.0522, 147.8592
401.5343, 149.6123
402.0164, 151.1438
402.4985, 152.5351
402.9806, 153.3328
403.4627, 154.4394
403.9449, 156.3495
404.4270, 158.8923
404.9091, 161.5899
405.3912, 164.1568
405.8733, 166.6638
406.3554, 169.3118
406.8376, 172.1599
407.3197, 175.0538
407.8018, 178.1150
408.2839, 181.1049
408.7660, 183.8737
409.2481, 186.5010
409.7303, 188.4267
410.2124, 188.8003
410.6945, 187.7240
411.1766, 186.9061
411.6587, 187.1945
412.1408, 187.1730
412.6230, 185.4477
413.1051, 182.2050
413.5872, 178.7049
414.0693, 175.1474
414.5514, 171.7755
415.0335, 169.1450
415.5157, 167.3477
415.9978, 165.5714
416.4799, 163.0133
416.9620, 160.1501
417.4441, 158.4014
417.9262, 158.5871
418.4084, 158.8691
418.8905, 157.9162
419.3726, 156.2438
419.8547, 155.2068
420.3368, 155.2990
420.8189, 156.1010
421.3011, 157.0512
421.7832, 158.2373
422.2653, 159.1930
422.7474, 159.4126
423.2295, 159.6896
423.7116, 160.7103
424.1938, 162.5076
424.6759, 164.7678
425.1580, 167.3271
425.6401, 170.1545
426.1222, 172.7564
426.6043, 174.8370
427.0865, 177.0687
427.5686, 179.5645
428.0507, 182.3356
428.5328, 185.3918
429.0149, 188.7425
429.4970, 192.3625
429.9792, 196.2240
430.4613, 200.3116
430.9434, 204.7603
431.4255, 210.1018
431.9076, 215.2888
432.3897, 219.3181
432.8719, 222.5799
433.3540, 226.4854
433.8361, 232.2832
434.3182, 239.6320
434.8003, 246.1147
435.2824, 251.0916
435.7646, 256.1128
436.2467, 261.2589
436.7288, 266.7642
437.2109, 272.8953
437.6930, 279.7421
438.1751, 286.9969
438.6573, 294.5954
439.1394, 302.6215
439.6215, 309.6889
440.1036, 315.0070
440.5857, 319.9753
441.0678, 325.4824
441.5500, 331.4525
442.0321, 337.5142
442.5142, 344.0184
442.9963, 350.3058
443.4784, 354.8618
443.9605, 357.4249
444.4427, 360.2995
444.9248, 364.7048
445.4069, 370.1164
445.8890, 375.5030
446.3711, 380.8056
446.8532, 386.1840
447.3354, 391.9990
447.8175, 397.9078
448.2996, 403.0696
448.7817, 407.2275
449.2638, 411.0328
449.7459, 415.1542
450.2281, 419.6195
450.7102, 423.8611
451.1923, 428.1543
451.6744, 431.9562
452.1565, 434.6996
452.6386, 436.6237
453.1208, 438.5790
453.6029, 441.1124
454.0850, 443.6541
454.5671, 444.6159
455.0492, 443.1713
455.5313, 441.1225
456.0135, 438.7122
456.4956, 435.5650
456.9777, 431.1879
457.4598, 425.6370
457.9419, 419.4777
458.4240, 413.2287
458.9062, 406.9102
459.3883, 399.9391
459.8704, 391.8074
460.3525, 383.4984
460.8346, 375.2114
461.3167, 366.8744
461.7989, 358.2557
462.2810, 349.2159
462.7631, 340.2948
463.2452, 332.2379
463.7273, 325.0558
464.2094, 318.6933
464.6916, 313.7473
465.1737, 309.0889
465.6558, 303.9238
466.1379, 298.4484
466.6200, 293.3813
467.1021, 289.2108
467.5843, 285.6563
468.0664, 282.2790
468.5485, 279.1016
469.0306, 275.8324
469.5127, 272.2723
469.9948, 268.5751
470.4770, 265.0855
470.9591, 261.9075
471.4412, 258.5914
471.9233, 254.9499
472.4054, 251.0065
472.8875, 246.7587
473.3697, 242.1883
473.8518, 237.5752
474.3339, 233.1545
474.8160, 228.9456
475.2981, 224.8035
475.7802, 220.8909
476.2624, 216.8898
476.7445, 212.6121
477.2266, 208.1268
477.7087, 203.5115
478.1908, 198.7525
478.6729, 194.1187
479.1551, 190.1437
479.6372, 187.2010
480.1193, 184.0258
480.6014, 179.6817
481.0835, 175.9519
481.5656, 174.4616
482.0478, 174.5047
482.5299, 174.0404
483.0120, 171.6681
483.4941, 167.9011
483.9762, 164.7395
484.4583, 162.4226
484.9405, 160.2458
485.4226, 158.0926
485.9047, 155.9913
486.3868, 153.9420
486.8689, 151.9574
487.3510, 150.1599
487.8332, 148.6554
488.3153, 147.4326
488.7974, 146.4763
489.2795, 145.9717
489.7616, 145.2761
490.2437, 143.5128
490.7259, 141.4135
491.2080, 140.2132
491.6901, 140.6071
492.1722, 141.0011
492.6543, 140.0950
493.1364, 138.2673
493.6186, 136.5575
494.1007, 135.1817
494.5828, 134.1362
495.0649, 133.4829
495.5470, 133.2675
496.0291, 132.9809
496.5113, 132.5422
496.9934, 132.0871
497.4755, 131.6355
497.9576, 131.2322
498.4397, 130.9860
498.9218, 130.9563
499.4040, 131.0573
499.8861, 131.0983
500.3682, 131.0182
500.8503, 130.9905
501.3324, 131.1901
501.8145, 131.2876
502.2967, 130.9167
502.7788, 130.2352
503.2609, 129.7359
503.7430, 129.7438
504.2251, 130.2151
504.7072, 131.0516
505.1894, 132.5165
505.6715, 133.7483
506.1536, 134.2805
506.6357, 134.6638
507.1178, 135.3199
507.5999, 136.2994
508.0821, 137.3724
508.5642, 138.3707
509.0463, 139.3306
509.5284, 140.3084
510.0105, 141.2464
510.4926, 142.4751
510.9748, 144.2905
511.4569, 146.5271
511.9390, 148.8036
512.4211, 151.2355
512.9032, 153.4291
513.3853, 154.5605
513.8674, 155.4860
514.3495, 157.9916
514.8317, 162.4905
515.3138, 167.2131
515.7959, 170.2650
516.2780, 171.4875
516.7601, 173.5871
517.2422, 176.9826
517.7244, 180.6428
518.2065, 184.3183
518.6886, 188.0113
519.1707, 191.6879
519.6528, 195.3458
520.1349, 199.1973
520.6171, 203.5931
521.0992, 208.6893
521.5813, 213.6976
522.0634, 218.4702
522.5455, 223.3047
523.0276, 228.0893
523.5098, 233.0558
523.9919, 238.6706
524.4740, 245.3284
524.9561, 252.2514
525.4382, 258.1722
525.9203, 263.0279
526.4025, 268.6317
526.8846, 275.6576
527.3667, 283.1726
527.8488, 290.5283
528.3309, 297.6802
528.8130, 304.4540
529.2952, 310.5715
529.7773, 316.4492
530.2594, 322.7256
530.7415, 329.1981
531.2236, 334.9362
531.7057, 339.4636
532.1879, 343.2294
532.6700, 347.0720
533.1521, 351.1191
533.6342, 354.9962
534.1163, 359.5011
534.5984, 363.1327
535.0806, 364.7108
535.5627, 364.5277
536.0448, 363.5930
536.5269, 362.5191
537.0090, 361.1772
537.4911, 359.1865
537.9733, 356.3984
538.4554, 353.2188
538.9375, 349.4525
539.4196, 345.5321
539.9017, 341.8812
540.3839, 338.3582
540.8660, 334.3444
541.3481, 329.3956
541.8302, 323.7129
542.3123, 317.6013
542.7944, 311.0114
543.2766, 304.5190
543.7587, 298.3077
544.2408, 292.3863
544.7229, 286.8201
545.2050, 281.6523
545.6871, 276.4326
546.1693, 271.0766
546.6514, 265.5771
547.1335, 259.6753
547.6156, 253.4999
548.0977, 247.7010
548.5798, 242.6990
549.0620, 238.3232
549.5441, 234.0387
550.0262, 229.6452
550.5083, 225.6385
550.9904, 222.1991
551.4725, 219.0052
551.9547, 215.8222
552.4368, 212.6481
552.9189, 209.5869
553.4010, 206.7432
553.8831, 204.0714
554.3652, 201.4140
554.8474, 198.7157
555.3295, 196.2068
555.8116, 194.1320
556.2937, 192.1426
556.7758, 189.8327
557.2579, 187.2560
557.7401, 185.1191
558.2222, 184.0686
558.7043, 183.6386
559.1864, 182.9347
559.6685, 181.9359
560.1506, 181.3010
560.6328, 181.5303
561.1149, 182.1503
561.5970, 182.0863
562.0791, 181.1938
562.5612, 180.2500
563.0433, 179.2734
563.5255, 178.3938
564.0076, 177.6748
564.4897, 177.1449
564.9718, 176.8390
565.4539, 176.7794
565.9360, 176.9610
566.4182, 177.3906
566.9003, 178.3020
567.3824, 179.0278
567.8645, 178.9431
568.3466, 179.1694
568.8287, 181.0512
569.3109, 184.0186
569.7930, 185.8659
570.2751, 184.6699
570.7572, 182.0934
571.2393, 181.8516
571.7214, 184.1412
572.2036, 186.4188
572.6857, 188.2707
573.1678, 189.3127
573.6499, 188.9469
574.1320, 187.2219
574.6141, 185.3605
575.0963, 183.4314
575.5784, 181.7134
576.0605, 180.9545
576.5426, 180.6935
577.0247, 179.3475
577.5068, 176.1589
577.9890, 171.7977
578.4711, 167.4757
578.9532, 163.1806
579.4353, 158.9679
579.9174, 154.5687
580.3995, 150.5000
580.8817, 147.3765
581.3638, 144.7192
581.8459, 141.5212
582.3280, 137.2420
582.8101, 132.7223
583.2922, 129.4674
583.7744, 127.6001
584.2565, 125.2501
584.7386, 121.7605
585.2207, 118.2996
585.7029, 115.8215
586.1850, 113.9968
586.6671, 111.9625
587.1492, 109.0523
587.6313, 106.4789
588.1135, 105.4939
588.5956, 105.4778
589.0777, 104.8962
589.5598, 103.3506
590.0419, 101.6552
590.5240, 100.7258
591.0062, 100.6178
591.4883, 100.0644
591.9704, 98.89644
592.4525, 97.54845
592.9346, 95.63757
593.4167, 93.85437
593.8989, 93.16692
594.3810, 93.67897
594.8631, 94.36794
595.3452, 94.09649
595.8273, 92.97224
596.3094, 92.27438
596.7916, 92.19260
597.2737, 92.09884
597.7558, 91.57554
598.2379, 90.97724
598.7200, 90.76567
599.2021, 91.04572
599.6843, 91.15606
600.1664, 90.34618
600.6485, 89.36770
601.1306, 89.53630
601.6127, 90.80223
602.0948, 91.81700
602.5770, 91.77174
603.0591, 91.00520
603.5412, 90.44148
604.0233, 90.10287
604.5054, 89.95769
604.9875, 89.92223
605.4697, 90.14902
605.9518, 90.83171
606.4339, 91.85911
606.9160, 93.08273
607.3981, 94.51540
607.8802, 95.65816
608.3624, 95.16978
608.8445, 92.73368
609.3266, 91.22068
609.8087, 91.45166
610.2908, 92.23925
610.7729, 92.88772
611.2551, 93.37472
611.7372, 93.61345
612.2193, 93.45400
612.7014, 93.19999
613.1835, 93.11533
613.6656, 93.08967
614.1478, 92.82083
614.6299, 92.23801
615.1120, 91.64896
615.5941, 91.36190
616.0762, 91.37741
616.5583, 91.47098
617.0405, 91.84877
617.5226, 92.04461
618.0047, 91.97390
618.4868, 91.69168
618.9689, 91.22421
619.4510, 90.59426
619.9332, 89.86417
620.4153, 89.07931
620.8974, 88.23726
621.3795, 87.27755
621.8616, 86.13503
622.3438, 85.25243
622.8259, 85.00789
623.3080, 84.91790
623.7901, 84.30032
624.2722, 83.12817
624.7543, 82.01385
625.2365, 81.23632
625.7186, 80.47691
626.2007, 79.45103
626.6828, 78.22572
627.1649, 76.96109
627.6470, 75.71098
628.1292, 74.67228
628.6113, 74.23351
629.0934, 74.64893
629.5755, 74.59249
630.0576, 73.67535
630.5397, 72.67736
631.0219, 71.54184
631.5040, 70.56755
631.9861, 70.33202
632.4682, 71.03285
632.9503, 71.58818
633.4324, 70.61917
633.9146, 68.70921
634.3967, 67.92464
634.8788, 68.56107
635.3609, 69.03963
635.8430, 68.32254
636.3251, 66.86511
636.8073, 65.97615
637.2894, 65.71724
637.7715, 65.74911
638.2536, 66.34932
638.7357, 66.95200
639.2178, 67.16629
639.7000, 66.99355
640.1821, 66.51111
640.6642, 65.73404
641.1463, 64.90067
641.6284, 64.49693
642.1105, 64.57693
642.5927, 64.83232
643.0748, 65.51183
643.5569, 66.00604
644.0390, 65.83710
644.5211, 65.28446
645.0032, 64.91348
645.4854, 64.89002
645.9675, 64.98693
646.4496, 65.19254
646.9317, 65.37226
647.4138, 65.18647
647.8959, 64.61545
648.3781, 64.08389
648.8602, 63.90079
649.3423, 64.02297
649.8244, 64.26424
650.3065, 64.98641
650.7886, 65.27028
651.2708, 64.57114
651.7529, 63.88787
652.2350, 64.06818
652.7171, 64.85383
653.1992, 65.29864
653.6813, 64.75972
654.1635, 64.00768
654.6456, 64.47739
655.1277, 66.02944
655.6098, 66.83194
656.0919, 66.36756
656.5740, 65.57655
657.0562, 65.15465
657.5383, 65.10131
658.0204, 65.23814
658.5025, 65.85178
658.9846, 66.29600
659.4667, 66.14787
659.9489, 65.88037
660.4310, 66.16409
660.9131, 66.92600
661.3952, 67.38433
661.8773, 66.89799
662.3594, 65.80870
662.8416, 65.25892
663.3237, 65.37157
663.8058, 65.57234
664.2879, 65.83041
664.7700, 66.07980
665.2521, 66.30869
665.7343, 66.49600
666.2164, 66.56654
666.6985, 66.42506
667.1806, 66.26047
667.6627, 66.07962
668.1448, 66.00259
668.6270, 66.43217
669.1091, 67.38995
669.5912, 68.14116
670.0733, 67.96544
670.5554, 67.04235
671.0375, 66.70567
671.5197, 67.63805
672.0018, 68.03011
672.4839, 67.18162
672.9660, 66.21550
673.4481, 65.93446
673.9302, 66.23770
674.4124, 66.53938
674.8945, 66.48379
675.3766, 66.39506
675.8587, 66.80151
676.3408, 67.56448
676.8229, 68.04643
677.3051, 68.10546
677.7872, 67.88626
678.2693, 67.43788
678.7514, 66.79955
679.2335, 66.43111
679.7156, 66.47602
680.1978, 66.56660
680.6799, 66.74478
681.1620, 66.87886
681.6441, 66.77177
682.1262, 66.49991
682.6083, 66.38952
683.0905, 66.70178
683.5726, 67.15511
684.0547, 67.20213
684.5368, 66.84323
685.0189, 66.40876
685.5010, 65.94814
685.9832, 65.44115
686.4653, 64.66134
686.9474, 63.79099
687.4295, 63.70817
687.9116, 65.23692
688.3937, 66.45210
688.8759, 66.69181
689.3580, 66.42510
689.8401, 65.97724
690.3222, 65.47116
690.8043, 65.05620
691.2864, 64.83191
691.7686, 64.74541
692.2507, 64.64547
692.7328, 64.49966
693.2149, 64.59386
693.6970, 65.26268
694.1791, 65.74860
694.6613, 65.22153
695.1434, 64.15947
695.6255, 63.67258
696.1076, 64.24260
696.5897, 64.75514
697.0718, 64.55716
697.5540, 64.10921
698.0361, 64.09193
698.5182, 64.43667
699.0003, 64.42191
699.4824, 63.56085
699.9645, 62.31025
700.4467, 61.84069
700.9288, 62.39554
701.4109, 62.83105
701.8930, 62.99801
702.3751, 63.14329
702.8572, 63.59492
703.3394, 64.04692
703.8215, 63.86270
704.3036, 62.71567
704.7857, 61.75397
705.2678, 61.73288
705.7499, 62.24520
706.2321, 62.93615
706.7142, 63.67269
707.1963, 64.03513
707.6784, 63.77382
708.1605, 63.22761
708.6426, 63.07861
709.1248, 63.44144
709.6069, 63.79803
710.0890, 64.33022
710.5711, 64.63252
711.0532, 64.43572
711.5353, 63.99634
712.0175, 63.63125
712.4996, 63.40162
712.9817, 63.22741
713.4638, 63.05519
713.9459, 62.90901
714.4280, 62.83446
714.9102, 62.82209
715.3923, 62.78844
715.8744, 62.68529
716.3565, 62.66304
716.8386, 62.96394
717.3207, 63.63588
717.8029, 64.27444
718.2850, 65.13532
718.7671, 65.62003
719.2492, 65.17603
719.7313, 64.56322
720.2134, 64.63195
720.6956, 65.42204
721.1777, 66.15243
721.6598, 66.43320
722.1419, 66.35682
722.6240, 65.80410
723.1061, 64.95376
723.5883, 64.58994
724.0704, 64.96746
724.5525, 65.50269
725.0346, 65.55716
725.5167, 65.14981
725.9988, 65.00906
726.4810, 65.57108
726.9631, 65.76376
727.4452, 64.92014
727.9273, 64.11369
728.4094, 64.29369
728.8915, 65.28498
729.3737, 66.19667
729.8558, 66.63826
730.3379, 66.80241
730.8200, 66.74305
731.3021, 66.58224
731.7842, 66.70391
732.2664, 67.16998
732.7485, 67.68423
733.2306, 68.03928
733.7127, 68.24680
734.1948, 68.34206
734.6769, 68.20370
735.1591, 68.17574
735.6412, 68.24357
736.1233, 68.43832
736.6054, 68.88402
737.0875, 69.44170
737.5696, 69.86178
738.0518, 70.06054
738.5339, 70.15019
739.0160, 70.13391
739.4981, 70.10381
739.9802, 70.16211
740.4623, 70.34376
740.9445, 70.89385
741.4266, 71.98843
741.9087, 73.26467
742.3908, 74.07623
742.8729, 74.36611
743.3550, 74.44239
743.8372, 73.97900
744.3193, 73.69420
744.8014, 73.81694
745.2835, 74.19192
745.7656, 74.78262
746.2477, 75.54187
746.7299, 76.00256
747.2120, 75.58150
747.6941, 74.97738
748.1762, 75.03345
748.6583, 75.59476
749.1404, 76.23708
749.6226, 76.83115
750.1047, 77.13395
750.5868, 76.76006
751.0689, 75.85477
751.5510, 76.10030
752.0331, 78.39812
752.5153, 80.10804
752.9974, 80.32813
753.4795, 80.25981
753.9616, 80.69479
754.4437, 81.47507
754.9258, 81.96986
755.4080, 81.81614
755.8901, 81.67227
756.3722, 82.14548
756.8543, 82.83292
757.3364, 82.98331
757.8185, 82.64925
758.3007, 82.64891
758.7828, 83.51672
759.2649, 84.76205
759.7470, 85.25053
760.2291, 84.75027
760.7112, 84.65657
761.1934, 85.29588
761.6755, 85.88438
762.1576, 85.93736
762.6397, 85.78755
763.1218, 85.87440
763.6039, 86.26686
764.0861, 86.58817
764.5682, 86.61417
765.0503, 86.60829
765.5324, 86.83313
766.0145, 87.16658
766.4966, 87.37160
766.9788, 87.37588
767.4609, 87.21379
767.9430, 86.84559
768.4251, 86.37039
768.9072, 86.37409
769.3893, 86.98648
769.8715, 87.36890
770.3536, 87.12059
770.8357, 86.86365
771.3178, 87.39339
771.7999, 88.48390
772.2820, 88.94987
772.7642, 88.11621
773.2463, 87.47393
773.7284, 87.61417
774.2105, 87.96604
774.6926, 87.99508
775.1747, 87.77045
775.6569, 87.68767
776.1390, 87.95895
776.6211, 88.30125
777.1032, 88.31149
777.5853, 88.04127
778.0674, 87.71021
778.5496, 87.29533
779.0317, 87.19343
779.5138, 87.70142
779.9959, 88.47917
780.4780, 88.93439
780.9601, 88.99331
781.4423, 89.01080
781.9244, 88.88339
782.4065, 88.84129
782.8886, 89.13950
783.3707, 89.44785
783.8528, 89.39255
784.3350, 88.95016
784.8171, 88.36789
785.2992, 87.58475
785.7813, 86.97396
786.2634, 87.33412
786.7455, 88.28308
787.2277, 88.40022
787.7098, 87.41951
788.1919, 86.51501
788.6740, 86.64993
789.1561, 87.51331
789.6382, 87.98207
790.1204, 87.99078
790.6025, 87.74973
791.0846, 86.75761
791.5667, 86.08608
792.0488, 86.62189
792.5309, 87.61385
793.0131, 87.76099
793.4952, 86.71095
793.9773, 85.87400
794.4594, 86.00476
794.9415, 86.55653
795.4236, 87.27820
795.9058, 87.96360
796.3879, 88.13548
796.8700, 87.68909
797.3521, 87.13509
797.8342, 86.97770
798.3163, 87.17791
798.7985, 87.70902
799.2806, 88.77396
799.7627, 88.89878
800.2448, 87.24974
800.7269, 85.39259
801.2090, 84.63755
801.6912, 84.85176
802.1733, 85.15060
802.6554, 85.58379
803.1375, 86.01768
803.6196, 86.49857
804.1017, 86.90681
804.5839, 87.25052
805.0660, 87.43150
805.5481, 87.19282
806.0302, 86.43655
806.5123, 85.63297
806.9944, 85.22147
807.4766, 85.12357
807.9587, 85.24445
808.4408, 85.55014
808.9229, 85.66161
809.4050, 85.40706
809.8871, 85.13211
810.3693, 85.27994
810.8514, 85.84526
811.3335, 86.20892
811.8156, 86.18175
812.2977, 86.27129
812.7798, 86.81470
813.2620, 87.25797
813.7441, 87.14317
814.2262, 86.62868
814.7083, 86.19411
815.1904, 85.96756
815.6725, 85.83241
816.1547, 85.77421
816.6368, 85.73554
817.1189, 85.47585
817.6010, 85.17043
818.0831, 85.44411
818.5652, 86.54985
819.0474, 87.88555
819.5295, 88.73438
820.0116, 89.10835
820.4937, 89.00829
820.9758, 88.31916
821.4579, 87.86002
821.9401, 87.95692
822.4222, 88.25452
822.9043, 88.31541
823.3864, 88.16700
823.8685, 88.46915
824.3506, 89.91482
824.8328, 90.81872
825.3149, 90.44994
825.7970, 89.88210
826.2791, 89.86552
826.7612, 90.29328
827.2433, 90.79568
827.7255, 91.27101
828.2076, 91.56779
828.6897, 91.27946
829.1718, 90.87178
829.6539, 91.33298
830.1360, 92.46892
830.6182, 93.12361
831.1003, 92.85371
831.5824, 92.40330
832.0645, 92.67373
832.5466, 93.60616
833.0287, 94.46741
833.5109, 95.23106
833.9930, 96.00565
834.4751, 96.94511
834.9572, 97.73698
835.4393, 97.98966
835.9214, 97.88471
836.4036, 97.94663
836.8857, 98.24400
837.3678, 98.64610
837.8499, 99.05827
838.3320, 99.62233
838.8141, 100.4401
839.2963, 101.4832
839.7784, 102.7914
840.2605, 104.3469
840.7426, 105.7688
841.2247, 106.7943
841.7068, 107.4267
842.1890, 107.3871
842.6711, 106.8688
843.1532, 107.0173
843.6353, 108.1438
844.1174, 109.5802
844.5995, 110.7322
845.0817, 111.6999
845.5638, 112.9088
846.0459, 114.4650
846.5280, 115.9703
847.0101, 117.5165
847.4922, 118.8374
847.9744, 119.6240
848.4565, 120.1771
848.9386, 121.0004
849.4207, 122.1905
849.9028, 123.2119
850.3849, 123.5171
850.8671, 124.0447
851.3492, 125.6192
851.8313, 127.6151
852.3134, 129.1662
852.7955, 130.1629
853.2776, 131.0960
853.7598, 132.3057
854.2419, 133.2756
854.7240, 134.6151
855.2061, 135.4594
855.6882, 136.4828
856.1703, 137.7266
856.6525, 139.0859
857.1346, 140.5005
857.6167, 141.9721
858.0988, 143.5284
858.5809, 145.2463
859.0630, 146.4746
859.5452, 146.7053
860.0273, 147.3555
860.5094, 149.4876
860.9915, 151.7074
861.4736, 152.5418
861.9557, 152.2454
862.4379, 152.4751
862.9200, 153.8516
863.4021, 155.3311
863.8842, 156.8661
864.3663, 158.0900
864.8484, 158.2838
865.3306, 157.9568
865.8127, 158.4342
866.2948, 160.2093
866.7769, 162.1620
867.2590, 163.2156
867.7411, 163.6360
868.2233, 163.8818
868.7054, 163.9842
869.1875, 164.0012
869.6696, 163.9464
870.1517, 164.0066
870.6339, 164.3752
871.1160, 164.9842
871.5981, 165.5583
872.0802, 166.1601
872.5623, 166.4921
873.0444, 166.4023
873.5266, 166.2480
874.0087, 166.3395
874.4908, 166.4403
874.9729, 166.0508
875.4550, 165.0401
875.9371, 164.2924
876.4193, 164.4061
876.9014, 164.2332
877.3835, 163.0142
877.8656, 161.4581
878.3477, 160.2417
878.8298, 159.4542
879.3120, 158.9836
879.7941, 158.9625
880.2762, 158.7496
880.7583, 157.4515
881.2404, 155.6604
881.7225, 154.4072
882.2047, 153.7070
882.6868, 153.2660
883.1689, 152.9519
883.6510, 152.3727
884.1331, 150.8204
884.6152, 148.5325
885.0974, 147.5773
885.5795, 148.2178
886.0616, 148.2543
886.5437, 146.9988
887.0258, 145.4728
887.5079, 144.5464
887.9901, 144.0127
888.4722, 143.0295
888.9543, 141.3188
889.4364, 139.6765
889.9185, 137.7918
890.4006, 136.3416
890.8828, 135.8569
891.3649, 135.7962
891.8470, 135.5167
892.3291, 134.9496
892.8112, 134.3737
893.2933, 134.2391
893.7755, 133.7450
894.2576, 131.7941
894.7397, 129.5702
895.2218, 128.8584
895.7039, 129.3579
896.1860, 129.2724
896.6682, 127.7048
897.1503, 125.9484
897.6324, 125.8317
898.1145, 126.7315
898.5966, 126.6540
899.0787, 125.6750
899.5609, 125.1559
900.0430, 125.5585
900.5251, 125.9825
901.0072, 125.5423
901.4893, 124.4033
901.9714, 123.2996
902.4536, 122.0865
902.9357, 121.4844
903.4178, 121.8702
903.8999, 122.3099
904.3820, 122.2775
904.8641, 122.0197
905.3463, 121.9383
905.8284, 122.0354
906.3105, 122.2722
906.7926, 122.8809
907.2747, 123.3305
907.7568, 123.2594
908.2390, 123.1267
908.7211, 123.4894
909.2032, 124.1507
909.6853, 124.3684
910.1674, 123.7461
910.6495, 123.1974
911.1317, 123.3861
911.6138, 123.4267
912.0959, 124.2821
912.5780, 124.6302
913.0601, 125.4859
913.5422, 126.9350
914.0244, 128.4081
914.5065, 129.3724
914.9886, 130.1168
915.4707, 131.3906
915.9528, 133.0600
916.4349, 134.1313
916.9171, 134.4518
917.3992, 135.1447
917.8813, 136.8602
918.3634, 139.1373
918.8455, 141.2826
919.3276, 143.3148
919.8098, 144.8442
920.2919, 145.5094
920.7740, 146.6221
921.2561, 148.6521
921.7382, 151.0306
922.2203, 153.5502
922.7025, 156.0506
923.1846, 157.8831
923.6667, 158.3967
924.1488, 159.6873
924.6309, 162.4513
925.1130, 165.4602
925.5952, 167.9460
926.0773, 170.5003
926.5594, 173.9887
927.0415, 178.3806
927.5236, 182.7334
928.0057, 186.4717
928.4879, 190.3224
928.9700, 194.8074
929.4521, 199.6283
929.9342, 204.4970
930.4163, 209.3935
930.8984, 214.4514
931.3806, 219.7211
931.8627, 225.0474
932.3448, 230.0950
932.8269, 235.2046
933.3090, 241.1071
933.7911, 247.7225
934.2733, 254.6836
934.7554, 261.9030
935.2375, 269.2355
935.7196, 276.5716
936.2017, 283.9795
936.6838, 291.2909
937.1660, 298.4531
937.6481, 306.9780
938.1302, 317.1211
938.6123, 327.4999
939.0944, 337.6150
939.5765, 347.9248
940.0587, 358.7827
940.5408, 370.2966
941.0229, 382.7054
941.5050, 397.1650
941.9871, 410.3814
942.4692, 419.6375
942.9514, 430.5890
943.4335, 446.5099
943.9156, 464.7336
944.3977, 481.8135
944.8798, 497.5363
945.3619, 514.1302
945.8441, 531.5533
946.3262, 550.4918
946.8083, 572.2820
947.2904, 594.6939
947.7725, 616.1847
948.2546, 636.9028
948.7368, 657.0185
949.2189, 676.6236
949.7010, 698.0319
950.1831, 723.7022
950.6652, 751.3723
951.1473, 779.5700
951.6295, 807.8854
952.1116, 834.7344
952.5937, 860.6487
953.0758, 888.4235
953.5579, 919.9302
954.0400, 953.0048
954.5222, 984.5616
955.0043, 1015.363
955.4864, 1047.967
955.9685, 1082.197
956.4506, 1117.603
956.9327, 1154.024
957.4149, 1190.265
957.8970, 1225.386
958.3791, 1261.673
958.8612, 1295.782
959.3433, 1333.352
959.8254, 1370.075
960.3076, 1406.076
960.7897, 1440.308
961.2718, 1473.076
961.7539, 1502.078
962.2360, 1524.391
962.7181, 1540.100
963.2003, 1549.601
963.6824, 1553.455
964.1645, 1549.969
964.6466, 1538.905
965.1287, 1520.613
965.6108, 1495.557
966.0930, 1463.231
966.5751, 1421.930
967.0572, 1371.261
967.5393, 1316.540
968.0214, 1257.206
968.5035, 1195.505
968.9857, 1129.576
969.4678, 1063.582
969.9499, 999.2499
970.4320, 937.2132
970.9141, 877.0087
971.3962, 818.7173
971.8784, 763.7354
972.3605, 713.4059
972.8426, 666.5377
973.3247, 622.7181
973.8068, 581.7606
974.2889, 543.1125
974.7711, 506.8268
975.2532, 472.6512
975.7353, 440.3464
976.2174, 411.0085
976.6995, 386.3773
977.1816, 364.7957
977.6638, 344.3640
978.1459, 324.9006
978.6280, 306.2028
979.1101, 288.2694
979.5922, 272.1003
980.0743, 258.5496
980.5565, 246.6655
981.0386, 235.2051
981.5207, 224.1820
982.0028, 213.4870
982.4849, 203.2603
982.9670, 194.5758
983.4492, 187.8331
983.9313, 181.6017
984.4134, 174.4428
984.8955, 166.8045
985.3776, 160.1232
985.8597, 154.4233
986.3419, 148.7674
986.8240, 142.9454
987.3061, 138.0161
987.7882, 134.6219
988.2703, 131.7043
988.7524, 127.8540
989.2346, 124.8275
989.7167, 121.9184
990.1988, 118.2958
990.6809, 116.1327
991.1630, 112.7880
991.6451, 109.4336
992.1273, 106.5081
992.6094, 104.0302
993.0915, 102.0817
993.5736, 100.6935
994.0557, 99.35486
994.5378, 98.49258
995.0200, 97.05437
995.5021, 94.27486
995.9842, 91.60952
996.4663, 89.74242
996.9484, 88.53252
997.4305, 87.96149
997.9127, 88.13317
998.3948, 87.49679
998.8769, 85.10459
999.3590, 82.79339
999.8411, 80.91653
1000.323, 79.51120
1000.805, 78.87965
1001.287, 78.65183
1001.770, 78.06184
1002.252, 76.91640
1002.734, 75.99065
1003.216, 75.79050
1003.698, 75.69188
1004.180, 75.51757
1004.662, 75.11687
1005.144, 74.12949
1005.627, 72.80527
1006.109, 71.83699
1006.591, 71.47388
1007.073, 71.27766
1007.555, 71.14845
1008.037, 70.85323
1008.519, 69.89748
1009.001, 68.76096
1009.483, 68.24258
1009.966, 68.33247
1010.448, 68.55386
1010.930, 68.68656
1011.412, 68.82594
1011.894, 69.08684
1012.376, 69.29620
1012.858, 69.64755
1013.340, 69.86171
1013.823, 70.14877
1014.305, 70.50744
1014.787, 70.81877
1015.269, 71.00993
1015.751, 71.17235
1016.233, 71.57578
1016.715, 72.00603
1017.197, 71.64626
1017.679, 70.70686
1018.162, 70.29184
1018.644, 70.61031
1019.126, 71.05404
1019.608, 71.23558
1020.090, 71.18793
1020.572, 70.96500
1021.054, 70.56327
1021.536, 69.75528
1022.018, 68.57799
1022.501, 68.20294
1022.983, 68.95287
1023.465, 69.77397
1023.947, 69.89119
1024.429, 69.60559
1024.911, 69.46391
1025.393, 69.45961
1025.875, 70.09478
1026.358, 71.48960
1026.840, 72.55994
1027.322, 73.05489
1027.804, 72.98399
1028.286, 72.23798
1028.768, 71.13897
1029.250, 70.53486
1029.732, 70.52406
1030.214, 70.26712
1030.697, 69.71946
1031.179, 69.06511
1031.661, 68.30875
1032.143, 67.56347
1032.625, 66.96876
1033.107, 66.39685
1033.589, 65.40745
1034.071, 63.72270
1034.553, 62.93518
1035.036, 63.55573
1035.518, 63.93340
1036.000, 63.44070
1036.482, 62.88641
1036.964, 62.92064
1037.446, 62.93092
1037.928, 63.15055
1038.410, 63.79963
1038.893, 64.31644
1039.375, 65.43620
1039.857, 66.73039
1040.339, 68.31216
1040.821, 69.81618
1041.303, 70.80223
1041.785, 71.51880
1042.267, 72.66071
1042.750, 74.33341
1043.232, 76.06719
1043.714, 77.66216
1044.196, 79.57549
1044.678, 82.30033
1045.160, 85.00703
1045.642, 87.01136
1046.124, 88.53384
1046.606, 90.02105
1047.089, 91.28015
1047.571, 93.44759
1048.053, 97.43597
1048.535, 101.2529
1049.017, 103.8477
1049.499, 106.5730
1049.981, 110.8120
1050.463, 115.8704
1050.945, 120.0778
1051.428, 123.1086
1051.910, 126.2253
1052.392, 129.2209
1052.874, 132.9064
1053.356, 138.6356
1053.838, 144.1483
1054.320, 147.8185
1054.802, 149.9067
1055.285, 151.2264
1055.767, 151.9251
1056.249, 151.4076
1056.731, 149.2537
1057.213, 146.2007
1057.695, 142.0537
1058.177, 137.5719
1058.659, 133.1385
1059.141, 128.8577
1059.624, 124.9036
1060.106, 121.3204
1060.588, 117.4682
1061.070, 112.6763
1061.552, 108.1991
1062.034, 104.8682
1062.516, 101.7340
1062.998, 97.64575
1063.480, 93.42213
1063.963, 90.63573
1064.445, 89.49232
1064.927, 88.57454
1065.409, 87.48054
1065.891, 86.35728
1066.373, 84.90611
1066.855, 83.80518
1067.337, 83.89085
1067.820, 84.52661
1068.302, 84.64256
1068.784, 84.14245
1069.266, 83.82438
1069.748, 84.06889
1070.230, 84.40721
1070.712, 84.45932
1071.194, 84.70545
1071.677, 85.54198
1072.159, 86.78895
1072.641, 88.27023
1073.123, 89.89561
1073.605, 91.35157
1074.087, 92.33523
1074.569, 93.58830
1075.051, 95.71793
1075.533, 97.96501
1076.016, 99.71839
1076.498, 101.3051
1076.980, 103.1271
1077.462, 105.2423
1077.944, 107.5612
1078.426, 110.0534
1078.908, 112.7644
1079.390, 116.2478
1079.873, 119.3812
1080.355, 121.1200
1080.837, 122.2866
1081.319, 123.9197
1081.801, 125.8800
1082.283, 127.3380
1082.765, 127.9970
1083.247, 128.5216
1083.729, 129.2370
1084.212, 129.8753
1084.694, 129.7315
1085.176, 129.8763
1085.658, 131.6971
1086.140, 134.6587
1086.622, 137.1797
1087.104, 138.8546
1087.586, 141.0700
1088.068, 145.3239
1088.551, 149.0935
1089.033, 151.1783
1089.515, 152.1913
1089.997, 152.6440
1090.479, 152.4641
1090.961, 151.4894
1091.443, 149.6743
1091.925, 146.8127
1092.408, 142.1276
1092.890, 137.3299
1093.372, 133.0180
1093.854, 128.9377
1094.336, 125.0197
1094.818, 121.1052
1095.300, 116.9555
1095.782, 112.5646
1096.265, 108.1346
1096.747, 103.6199
1097.229, 99.23515
1097.711, 94.53659
1098.193, 90.56630
1098.675, 88.47486
1099.157, 87.06740
1099.639, 84.98343
1100.121, 82.24846
1100.604, 79.54691
1101.086, 76.83610
1101.568, 74.72447
1102.050, 74.00109
1102.532, 73.11955
1103.014, 71.07277
1103.496, 68.84932
1103.978, 67.49332
1104.460, 66.68118
1104.943, 65.32362
1105.425, 63.10278
1105.907, 61.37099
1106.389, 60.60240
1106.871, 60.02575
1107.353, 59.61605
1107.835, 59.12495
1108.317, 58.30989
1108.800, 57.33612
1109.282, 56.55482
1109.764, 55.55958
1110.246, 55.18219
1110.728, 53.66488
1111.210, 52.43695
1111.692, 51.60680
1112.174, 51.11547
1112.656, 51.21827
1113.139, 51.45370
1113.621, 51.20681
1114.103, 50.52607
1114.585, 50.00710
1115.067, 49.78930
1115.549, 49.49354
1116.031, 49.09816
1116.513, 48.65399
1116.995, 48.10651
1117.478, 47.58817
1117.960, 47.16033
1118.442, 46.86791
1118.924, 46.91225
1119.406, 46.57026
1119.888, 46.18342
1120.370, 46.30898
1120.852, 45.49955
1121.335, 45.52058
1121.817, 45.77777
1122.299, 46.00418
1122.781, 46.08460
1123.263, 45.70224
1123.745, 44.83532
1124.227, 44.83055
1124.709, 46.20046
1125.192, 46.46726
1125.674, 44.85366
1126.156, 43.59778
1126.638, 43.80731
1127.120, 44.67450
1127.602, 45.36061
1128.084, 45.79421
1128.566, 45.53785
1129.048, 44.49750
1129.531, 43.54818
1130.013, 42.68585
1130.495, 42.22886
1130.977, 42.29740
1131.459, 42.75312
1131.941, 43.60484
1132.423, 44.37653
1132.905, 43.74707
1133.387, 41.86508
1133.870, 41.14417
1134.352, 41.54640
1134.834, 42.11425
1135.316, 42.65953
1135.798, 43.26262
1136.280, 43.97811
1136.762, 44.61187
1137.244, 44.96911
1137.727, 44.99784
1138.209, 44.21295
1138.691, 42.95295
1139.173, 42.91943
1139.655, 44.03178
1140.137, 44.70572
1140.619, 44.41735
1141.101, 43.95271
1141.583, 43.96933
1142.066, 44.11180
1142.548, 43.73566
1143.030, 43.73340
1143.512, 43.03245
1143.994, 43.21946
1144.476, 43.00842
1144.958, 42.37778
1145.440, 41.91309
1145.922, 41.90559
1146.405, 42.18410
1146.887, 42.91774
1147.369, 43.53833
1147.851, 43.32149
1148.333, 42.61503
1148.815, 41.56544
1149.297, 40.59023
1149.779, 40.69798
1150.262, 42.06305
1150.744, 43.35413
1151.226, 43.93524
1151.708, 44.01527
1152.190, 43.52774
1152.672, 42.79309
1153.154, 41.61216
1153.636, 40.64190
1154.119, 41.16832
1154.601, 42.85239
1155.083, 43.61592
1155.565, 42.57540
1156.047, 41.71416
1156.529, 41.92976
1157.011, 42.13973
1157.493, 41.75443
1157.975, 41.27473
1158.458, 41.26929
1158.940, 41.44756
1159.422, 40.99683
1159.904, 39.76040
1160.386, 39.30833
1160.868, 40.40717
1161.350, 41.32371
1161.832, 41.86385
1162.314, 42.21454
1162.797, 42.63289
1163.279, 42.69637
1163.761, 41.64227
1164.243, 39.86778
1164.725, 39.33228
1165.207, 40.52958
1165.689, 41.22643
1166.171, 41.29905
1166.654, 41.22566
1167.136, 41.08289
1167.618, 40.91408
1168.100, 40.72055
1168.582, 40.59185
1169.064, 40.72370
1169.546, 41.06274
1170.028, 41.09032
1170.510, 40.79872
1170.993, 40.48318
1171.475, 40.17239
1171.957, 39.93574
1172.439, 39.79474
1172.921, 39.83416
1173.403, 40.15114
1173.885, 40.61703
1174.367, 41.16773
1174.849, 41.61376
1175.332, 41.00621
1175.814, 39.68993
1176.296, 39.11306
1176.778, 39.43355
1177.260, 39.87083
1177.742, 40.04725
1178.224, 40.15724
1178.706, 40.51496
1179.189, 40.76836
1179.671, 40.29247
1180.153, 39.53460
1180.635, 39.08685
1181.117, 38.94440
1181.599, 38.94790
1182.081, 39.07298
1182.563, 39.50464
1183.046, 40.57587
1183.528, 41.12937
1184.010, 39.93103
1184.492, 38.61646
1184.974, 38.22322
1185.456, 38.34784
1185.938, 38.81900
1186.420, 39.33035
1186.902, 39.17476
1187.385, 38.18919
1187.867, 37.68765
1188.349, 38.27256
1188.831, 38.83659
1189.313, 39.35907
1189.795, 39.59961
1190.277, 39.27541
1190.759, 38.74625
1191.241, 38.30425
1191.724, 37.96433
1192.206, 37.80096
1192.688, 37.88398
1193.170, 37.81818
1193.652, 37.48246
1194.134, 37.40353
1194.616, 37.77206
1195.098, 38.10927
1195.581, 38.12405
1196.063, 38.38680
1196.545, 38.22167
1197.027, 38.55456
1197.509, 38.67801
1197.991, 38.59188
1198.473, 38.18327
1198.955, 37.48940
1199.438, 37.09616
1199.920, 37.14637
1200.402, 37.23155
1200.884, 37.07997
1201.366, 37.04852
1201.848, 36.77019
1202.330, 36.74916
1202.812, 36.45892
1203.294, 36.17717
1203.776, 36.69027
1204.259, 37.71863
1204.741, 38.27871
1205.223, 38.12091
1205.705, 37.71791
1206.187, 37.17815
1206.669, 36.89246
1207.151, 37.22874
1207.633, 37.82002
1208.116, 38.81506
1208.598, 39.56368
1209.080, 39.08635
1209.562, 37.79940
1210.044, 36.85900
1210.526, 36.46602
1211.008, 36.44123
1211.490, 37.34521
1211.973, 37.70787
1212.455, 36.42337
1212.937, 35.59856
1213.419, 36.52218
1213.901, 37.92632
1214.383, 38.68208
1214.865, 38.84428
1215.347, 38.52467
1215.829, 37.59243
1216.312, 37.13363
1216.794, 37.28448
1217.276, 37.16805
1217.758, 36.54719
1218.240, 36.26120
1218.722, 36.76164
1219.204, 37.48450
1219.686, 37.83550
1220.168, 37.86304
1220.651, 37.55372
1221.133, 37.04391
1221.615, 37.06139
1222.097, 37.41009
1222.579, 36.97985
1223.061, 35.77375
1223.543, 35.07904
1224.025, 35.50358
1224.508, 36.22544
1224.990, 36.71095
1225.472, 36.91568
1225.954, 36.58740
1226.436, 36.12762
1226.918, 36.02820
1227.400, 36.11900
1227.882, 35.85986
1228.365, 35.40775
1228.847, 35.84784
1229.329, 37.84703
1229.811, 39.17610
1230.293, 39.13810
1230.775, 38.45496
1231.257, 36.65823
1231.739, 35.05785
1232.221, 34.45832
1232.703, 34.55642
1233.186, 35.17462
1233.668, 36.17309
1234.150, 36.59658
1234.632, 36.30620
1235.114, 35.93079
1235.596, 35.39094
1236.078, 35.21357
1236.560, 35.56851
1237.043, 35.96388
1237.525, 36.11839
1238.007, 36.17621
1238.489, 36.36547
1238.971, 36.54289
1239.453, 36.29925
1239.935, 35.71212
1240.417, 34.74526
1240.900, 33.70890
1241.382, 33.79642
1241.864, 35.02043
1242.346, 36.14101
1242.828, 36.56478
1243.310, 36.59146
1243.792, 36.16560
1244.274, 35.79238
1244.756, 35.96585
1245.239, 36.29885
1245.721, 36.54203
1246.203, 36.61097
1246.685, 36.29329
1247.167, 35.70072
1247.649, 35.44511
1248.131, 35.74396
1248.613, 35.99762
1249.095, 36.08644
1249.578, 36.20177
1250.060, 36.41970
1250.542, 36.61536
1251.024, 36.81744
1251.506, 36.79707
1251.988, 36.16680
1252.470, 35.18689
1252.952, 34.93068
1253.435, 35.41857
1253.917, 35.77526
1254.399, 35.99034
1254.881, 36.18759
1255.363, 36.36149
1255.845, 35.98969
1256.327, 34.85189
1256.809, 33.87458
1257.292, 33.96848
1257.774, 34.61760
1258.256, 35.33781
1258.738, 35.98784
1259.220, 36.26192
1259.702, 36.38145
1260.184, 36.97407
1260.666, 37.76190
1261.148, 37.52804
1261.630, 35.93087
1262.113, 34.97034
1262.595, 35.41972
1263.077, 36.54548
1263.559, 39.57047
1264.041, 41.46185
1264.523, 39.67869
1265.005, 37.11430
1265.487, 36.26364
1265.970, 36.51086
1266.452, 36.48907
1266.934, 36.19531
1267.416, 35.78668
1267.898, 35.19057
1268.380, 35.17617
1268.862, 35.87060
1269.344, 36.00820
1269.827, 35.17017
1270.309, 34.50559
1270.791, 34.87535
1271.273, 35.60468
1271.755, 35.76381
1272.237, 35.61144
1272.719, 35.52153
1273.201, 35.52797
1273.683, 35.85130
1274.166, 36.26649
1274.648, 36.14363
1275.130, 35.50582
1275.612, 35.17493
1276.094, 35.57232
1276.576, 35.77891
1277.058, 35.30000
1277.540, 34.74281
1278.022, 33.85918
1278.505, 33.50216
1278.987, 34.86205
1279.469, 36.55026
1279.951, 36.79925
1280.433, 36.05816
1280.915, 36.19690
1281.397, 37.31052
1281.879, 38.71370
1282.362, 40.45884
1282.844, 41.88197
1283.326, 42.88010
1283.808, 43.23401
1284.290, 42.87739
1284.772, 44.10546
1285.254, 48.69556
1285.736, 56.65136
##END=



