##NAMES=Kupletskite
##RRUFFID=R110176
##IDEAL CHEMISTRY=K_2_NaMn^2+^_7_Ti^4+^_2_(Si_4_O_12_)_2_O_2_(OH)_4_F
##LOCALITY=Mont St-Hilaire, Quebec, Canada
##OWNER=RRUFF
##SOURCE=Donald Doell
##DESCRIPTION=Dark brown micaceous associated with orthoclase and aegirine
##STATUS=The identification of this mineral has been confirmed only by single crystal X-ray diffraction.
##URL=rruff.info/R110176
145.1185, 652.4039
145.6006, 652.5947
146.0827, 652.6718
146.5648, 652.3117
147.0469, 651.8945
147.5291, 651.8837
148.0112, 652.5935
148.4933, 653.6486
148.9754, 654.1841
149.4575, 653.9573
149.9396, 653.5938
150.4218, 653.0220
150.9039, 652.5215
151.3860, 652.4755
151.8681, 653.1401
152.3502, 654.4540
152.8323, 655.8383
153.3145, 657.6960
153.7966, 659.2099
154.2787, 660.4142
154.7608, 661.1487
155.2429, 661.0085
155.7250, 659.4693
156.2072, 656.3043
156.6893, 655.3122
157.1714, 658.1023
157.6535, 661.1052
158.1356, 663.0441
158.6177, 663.8282
159.0999, 663.8340
159.5820, 663.2233
160.0641, 661.8146
160.5462, 661.5315
161.0283, 662.8372
161.5104, 664.8757
161.9926, 667.3586
162.4747, 670.2154
162.9568, 672.7249
163.4389, 673.9108
163.9210, 673.8450
164.4031, 673.7626
164.8853, 673.7806
165.3674, 673.9257
165.8495, 674.2947
166.3316, 674.9836
166.8137, 675.6771
167.2958, 676.1649
167.7780, 676.4563
168.2601, 676.4450
168.7422, 675.9423
169.2243, 675.0596
169.7064, 674.2674
170.1885, 673.7292
170.6707, 673.1359
171.1528, 672.3764
171.6349, 671.4294
172.1170, 670.2230
172.5991, 668.5410
173.0812, 666.3457
173.5634, 664.4858
174.0455, 663.5674
174.5276, 662.5358
175.0097, 660.8829
175.4918, 658.6454
175.9739, 656.2151
176.4561, 654.0550
176.9382, 652.2873
177.4203, 650.3056
177.9024, 647.8422
178.3845, 645.3963
178.8666, 643.3006
179.3488, 641.5693
179.8309, 639.9215
180.3130, 637.9845
180.7951, 635.5222
181.2772, 633.3139
181.7593, 631.5148
182.2415, 629.8399
182.7236, 627.9827
183.2057, 625.9061
183.6878, 623.9622
184.1699, 622.7236
184.6520, 622.7595
185.1342, 622.4193
185.6163, 621.3177
186.0984, 619.9875
186.5805, 619.0137
187.0626, 618.5792
187.5447, 618.4267
188.0269, 618.2001
188.5090, 617.9808
188.9911, 617.4373
189.4732, 615.7687
189.9553, 613.8329
190.4374, 613.4671
190.9196, 615.7083
191.4017, 618.5283
191.8838, 618.7932
192.3659, 616.4252
192.8480, 613.9554
193.3301, 612.3391
193.8123, 611.5056
194.2944, 611.2754
194.7765, 611.9404
195.2586, 612.8020
195.7407, 612.9690
196.2228, 612.4247
196.7050, 612.1028
197.1871, 613.0429
197.6692, 615.1595
198.1513, 616.4583
198.6334, 615.8885
199.1155, 614.9037
199.5977, 614.2760
200.0798, 614.1032
200.5619, 614.4871
201.0440, 615.8506
201.5261, 618.4661
202.0082, 620.2992
202.4904, 620.3436
202.9725, 620.0685
203.4546, 620.2943
203.9367, 621.0674
204.4188, 621.7740
204.9009, 621.4650
205.3831, 619.5344
205.8652, 618.4738
206.3473, 619.1253
206.8294, 620.0169
207.3115, 620.2159
207.7936, 619.6229
208.2758, 618.8583
208.7579, 618.8781
209.2400, 620.4071
209.7221, 621.0951
210.2042, 620.3917
210.6863, 619.3879
211.1685, 618.7451
211.6506, 618.6238
212.1327, 618.8311
212.6148, 619.0637
213.0969, 619.0462
213.5790, 619.7454
214.0612, 622.3152
214.5433, 624.8435
215.0254, 625.5599
215.5075, 624.1238
215.9896, 621.8698
216.4717, 620.6605
216.9539, 620.9321
217.4360, 621.3860
217.9181, 622.3166
218.4002, 623.2646
218.8823, 623.5822
219.3644, 623.1050
219.8466, 622.6340
220.3287, 623.4402
220.8108, 625.8458
221.2929, 627.6721
221.7750, 627.9422
222.2571, 627.7444
222.7393, 628.6796
223.2214, 631.2332
223.7035, 633.9890
224.1856, 634.8873
224.6677, 634.0904
225.1498, 633.5946
225.6320, 633.9983
226.1141, 634.9954
226.5962, 636.1674
227.0783, 637.5287
227.5604, 638.8322
228.0425, 639.7499
228.5247, 640.3696
229.0068, 641.0662
229.4889, 641.8721
229.9710, 642.8567
230.4531, 644.2592
230.9352, 646.2705
231.4174, 648.3376
231.8995, 649.7667
232.3816, 650.8491
232.8637, 652.4363
233.3458, 655.6417
233.8279, 659.7401
234.3101, 662.1895
234.7922, 661.8572
235.2743, 661.6447
235.7564, 663.3754
236.2385, 666.4011
236.7206, 669.4584
237.2028, 671.8430
237.6849, 673.6794
238.1670, 675.5928
238.6491, 677.9040
239.1312, 679.7627
239.6133, 680.4463
240.0955, 680.5627
240.5776, 681.2072
241.0597, 683.2298
241.5418, 686.2380
242.0239, 688.2502
242.5060, 688.5956
242.9882, 688.7933
243.4703, 689.4565
243.9524, 690.2496
244.4345, 690.6556
244.9166, 690.3469
245.3987, 689.4587
245.8809, 688.6260
246.3630, 687.7982
246.8451, 687.1066
247.3272, 686.8284
247.8093, 686.6246
248.2914, 686.0219
248.7736, 684.7397
249.2557, 682.9671
249.7378, 681.4737
250.2199, 680.1464
250.7020, 679.3034
251.1841, 679.6459
251.6663, 680.2706
252.1484, 680.0447
252.6305, 678.4089
253.1126, 675.8121
253.5947, 673.6169
254.0768, 672.0974
254.5590, 670.7357
255.0411, 669.7591
255.5232, 668.8229
256.0053, 667.4405
256.4874, 665.4160
256.9695, 663.0983
257.4517, 661.3313
257.9338, 660.3943
258.4159, 659.7499
258.8980, 659.5989
259.3801, 659.6451
259.8622, 659.7383
260.3444, 659.8076
260.8265, 659.5602
261.3086, 658.4359
261.7907, 655.9123
262.2728, 653.1898
262.7549, 650.3860
263.2371, 647.3232
263.7192, 643.5830
264.2013, 639.0834
264.6834, 634.5961
265.1655, 631.3259
265.6476, 629.9846
266.1298, 628.2453
266.6119, 625.9099
267.0940, 623.2379
267.5761, 620.3331
268.0582, 617.2318
268.5403, 614.2794
269.0225, 611.9464
269.5046, 610.4534
269.9867, 608.6046
270.4688, 606.3154
270.9509, 603.7076
271.4330, 600.4739
271.9152, 596.6777
272.3973, 593.5242
272.8794, 592.4775
273.3615, 593.7269
273.8436, 593.8871
274.3257, 592.4031
274.8079, 590.1637
275.2900, 587.5745
275.7721, 584.7217
276.2542, 582.1679
276.7363, 580.3520
277.2184, 579.2772
277.7006, 578.2771
278.1827, 577.0162
278.6648, 576.1029
279.1469, 576.3467
279.6290, 577.5715
280.1111, 578.3888
280.5933, 577.9070
281.0754, 576.3536
281.5575, 574.8170
282.0396, 573.1601
282.5217, 571.6899
283.0038, 570.6986
283.4860, 570.1062
283.9681, 569.4692
284.4502, 568.5619
284.9323, 567.5137
285.4144, 566.5255
285.8965, 565.4230
286.3787, 564.7698
286.8608, 565.3273
287.3429, 566.6982
287.8250, 567.3515
288.3071, 566.5051
288.7892, 565.1058
289.2714, 564.5536
289.7535, 564.9108
290.2356, 565.3918
290.7177, 565.7958
291.1998, 566.0519
291.6819, 565.9305
292.1641, 565.2779
292.6462, 564.4267
293.1283, 563.7340
293.6104, 563.1808
294.0925, 562.6218
294.5746, 562.0100
295.0568, 561.3542
295.5389, 560.6190
296.0210, 559.7307
296.5031, 558.9744
296.9852, 558.7255
297.4673, 558.8214
297.9495, 558.8381
298.4316, 558.6105
298.9137, 558.2376
299.3958, 557.9634
299.8779, 557.8817
300.3600, 557.4549
300.8422, 555.9589
301.3243, 553.9164
301.8064, 552.2043
302.2885, 550.8626
302.7706, 550.0533
303.2527, 550.2107
303.7349, 551.4160
304.2170, 552.4284
304.6991, 552.4797
305.1812, 552.0798
305.6633, 551.9059
306.1454, 552.0587
306.6276, 552.3966
307.1097, 553.1102
307.5918, 554.1376
308.0739, 554.2805
308.5560, 552.4827
309.0381, 550.1969
309.5203, 549.1611
310.0024, 549.5178
310.4845, 550.0236
310.9666, 549.8346
311.4487, 549.0704
311.9308, 548.2366
312.4130, 547.1458
312.8951, 546.4588
313.3772, 547.0667
313.8593, 548.7500
314.3414, 550.0465
314.8235, 549.9887
315.3057, 549.0188
315.7878, 548.1898
316.2699, 547.4838
316.7520, 547.1852
317.2341, 547.9184
317.7162, 549.2175
318.1984, 550.0408
318.6805, 549.6682
319.1626, 548.7668
319.6447, 548.4745
320.1268, 548.9402
320.6089, 549.2745
321.0911, 548.6711
321.5732, 547.7094
322.0553, 547.2033
322.5374, 547.4140
323.0195, 547.9579
323.5016, 548.7129
323.9838, 549.6918
324.4659, 549.9086
324.9480, 548.3085
325.4301, 546.2224
325.9122, 545.3007
326.3943, 545.7549
326.8765, 546.6674
327.3586, 547.6129
327.8407, 548.5358
328.3228, 549.0908
328.8049, 549.1325
329.2870, 548.8490
329.7692, 548.3699
330.2513, 547.7174
330.7334, 547.1523
331.2155, 546.9664
331.6976, 546.9445
332.1797, 546.4962
332.6619, 545.3990
333.1440, 544.3289
333.6261, 543.7708
334.1082, 543.6476
334.5903, 543.9009
335.0724, 544.7341
335.5546, 545.8250
336.0367, 546.7587
336.5188, 547.5146
337.0009, 548.3066
337.4830, 549.6031
337.9651, 550.8822
338.4473, 551.0641
338.9294, 549.3162
339.4115, 547.5888
339.8936, 547.6851
340.3757, 549.3668
340.8578, 550.8674
341.3400, 551.6136
341.8221, 551.7613
342.3042, 551.5472
342.7863, 550.8955
343.2684, 550.3182
343.7505, 549.8934
344.2327, 549.7318
344.7148, 550.2626
345.1969, 551.7966
345.6790, 553.4390
346.1611, 554.0064
346.6432, 553.6760
347.1254, 553.4280
347.6075, 553.8324
348.0896, 554.3004
348.5717, 553.9520
349.0538, 552.6835
349.5359, 551.3912
350.0181, 550.6425
350.5002, 550.4401
350.9823, 550.5909
351.4644, 551.5438
351.9465, 552.4557
352.4286, 552.6980
352.9108, 552.3754
353.3929, 551.9974
353.8750, 551.8132
354.3571, 551.7175
354.8392, 551.4110
355.3214, 550.7079
355.8035, 550.2286
356.2856, 550.3480
356.7677, 550.8143
357.2498, 551.1652
357.7319, 551.2576
358.2141, 551.2804
358.6962, 551.5059
359.1783, 551.9695
359.6604, 552.4147
360.1425, 552.9373
360.6246, 553.3574
361.1068, 553.3955
361.5889, 553.0646
362.0710, 552.8259
362.5531, 553.1933
363.0352, 554.1240
363.5173, 554.1589
363.9995, 552.2021
364.4816, 550.5199
364.9637, 550.7330
365.4458, 552.1230
365.9279, 552.6605
366.4100, 551.1611
366.8922, 548.4002
367.3743, 546.9396
367.8564, 547.4875
368.3385, 548.2173
368.8206, 549.5048
369.3027, 550.5977
369.7849, 550.3994
370.2670, 548.6547
370.7491, 546.3199
371.2312, 544.7145
371.7133, 544.1561
372.1954, 543.4440
372.6776, 542.5295
373.1597, 541.5209
373.6418, 540.4700
374.1239, 539.3842
374.6060, 538.2125
375.0881, 536.8495
375.5703, 535.3239
376.0524, 534.3840
376.5345, 534.3354
377.0166, 534.5013
377.4987, 534.8657
377.9808, 535.3206
378.4630, 535.7756
378.9451, 536.1912
379.4272, 536.4974
379.9093, 536.5368
380.3914, 536.3409
380.8735, 535.7726
381.3557, 534.2021
381.8378, 532.7336
382.3199, 532.3461
382.8020, 533.0681
383.2841, 534.0625
383.7662, 534.3759
384.2484, 533.8891
384.7305, 533.5480
385.2126, 533.2882
385.6947, 533.2438
386.1768, 533.6370
386.6589, 534.2711
387.1411, 534.7755
387.6232, 534.9233
388.1053, 534.7888
388.5874, 534.7116
389.0695, 535.0908
389.5516, 534.7219
390.0338, 532.5989
390.5159, 530.1115
390.9980, 528.5208
391.4801, 528.1758
391.9622, 528.5605
392.4443, 529.2360
392.9265, 530.2723
393.4086, 530.9217
393.8907, 530.8068
394.3728, 530.5337
394.8549, 530.4165
395.3370, 530.4470
395.8192, 530.5230
396.3013, 530.7169
396.7834, 530.9044
397.2655, 530.5721
397.7476, 529.4723
398.2297, 528.4988
398.7119, 528.3943
399.1940, 528.6114
399.6761, 528.4114
400.1582, 527.4793
400.6403, 526.3694
401.1224, 525.6304
401.6046, 525.2389
402.0867, 524.9175
402.5688, 524.5627
403.0509, 524.2729
403.5330, 524.1667
404.0151, 524.2439
404.4973, 524.3643
404.9794, 524.6887
405.4615, 524.9545
405.9436, 524.6555
406.4257, 523.7033
406.9078, 522.4523
407.3900, 521.0359
407.8721, 519.5400
408.3542, 518.3472
408.8363, 517.4318
409.3184, 516.8820
409.8005, 517.0063
410.2827, 517.6061
410.7648, 517.9955
411.2469, 517.8619
411.7290, 517.3721
412.2111, 516.8606
412.6932, 516.2825
413.1754, 515.7921
413.6575, 515.3755
414.1396, 515.0782
414.6217, 515.0400
415.1038, 515.2505
415.5859, 515.4043
416.0681, 515.1774
416.5502, 514.5222
417.0323, 513.9750
417.5144, 513.5582
417.9965, 513.2034
418.4786, 512.7789
418.9608, 512.4076
419.4429, 512.3409
419.9250, 512.7172
420.4071, 513.4107
420.8892, 514.1187
421.3713, 515.4775
421.8535, 515.8018
422.3356, 514.4094
422.8177, 512.4956
423.2998, 510.8018
423.7819, 509.5200
424.2640, 508.6509
424.7462, 508.2856
425.2283, 508.4769
425.7104, 508.3560
426.1925, 507.7238
426.6746, 506.9658
427.1567, 505.9164
427.6389, 504.8752
428.1210, 504.4273
428.6031, 504.9612
429.0852, 505.7761
429.5673, 505.3297
430.0494, 503.2314
430.5316, 501.2910
431.0137, 499.7634
431.4958, 498.6714
431.9779, 498.2659
432.4600, 498.4853
432.9421, 498.6984
433.4243, 498.3705
433.9064, 497.6273
434.3885, 496.9857
434.8706, 496.4302
435.3527, 496.0664
435.8348, 496.1798
436.3170, 496.4930
436.7991, 496.5478
437.2812, 496.2759
437.7633, 495.6466
438.2454, 494.4299
438.7275, 492.7222
439.2097, 491.2331
439.6918, 490.2184
440.1739, 489.5183
440.6560, 488.9200
441.1381, 488.4096
441.6202, 488.0068
442.1024, 487.7436
442.5845, 487.5772
443.0666, 487.5221
443.5487, 487.5616
444.0308, 487.5004
444.5129, 487.1372
444.9951, 486.5319
445.4772, 486.2325
445.9593, 486.4732
446.4414, 486.7015
446.9235, 486.8238
447.4056, 486.8086
447.8878, 486.5805
448.3699, 486.1186
448.8520, 485.5405
449.3341, 485.0029
449.8162, 484.4415
450.2983, 484.1357
450.7805, 483.9850
451.2626, 484.1368
451.7447, 484.8436
452.2268, 485.9296
452.7089, 487.0470
453.1910, 488.0197
453.6732, 488.7225
454.1553, 488.4892
454.6374, 486.2348
455.1195, 484.9200
455.6016, 485.8527
456.0837, 487.2512
456.5659, 487.4280
457.0480, 486.1596
457.5301, 484.7668
458.0122, 484.6428
458.4943, 485.7648
458.9764, 487.0316
459.4586, 488.6793
459.9407, 490.0476
460.4228, 490.8657
460.9049, 491.1959
461.3870, 491.0981
461.8691, 490.4668
462.3513, 489.6255
462.8334, 488.8565
463.3155, 488.1695
463.7976, 487.8412
464.2797, 488.0780
464.7618, 488.5791
465.2440, 488.9805
465.7261, 489.2843
466.2082, 489.5543
466.6903, 489.9444
467.1724, 490.2439
467.6545, 489.9342
468.1367, 489.0486
468.6188, 488.7038
469.1009, 489.9117
469.5830, 492.1961
470.0651, 493.1623
470.5472, 491.6796
471.0294, 490.4971
471.5115, 490.4176
471.9936, 490.9734
472.4757, 491.8077
472.9578, 492.7588
473.4399, 493.3376
473.9221, 492.8475
474.4042, 490.9783
474.8863, 489.8453
475.3684, 490.1685
475.8505, 490.3628
476.3326, 489.7348
476.8148, 488.5990
477.2969, 487.4726
477.7790, 486.6019
478.2611, 486.0279
478.7432, 485.9930
479.2253, 486.9171
479.7075, 487.1833
480.1896, 485.5503
480.6717, 484.0987
481.1538, 484.3088
481.6359, 485.8842
482.1180, 487.2471
482.6002, 487.2077
483.0823, 486.2261
483.5644, 485.6049
484.0465, 485.4440
484.5286, 485.2956
485.0107, 485.0479
485.4929, 484.6577
485.9750, 483.9655
486.4571, 482.8546
486.9392, 481.9848
487.4213, 481.8335
487.9034, 482.1999
488.3856, 482.8099
488.8677, 483.6996
489.3498, 484.1884
489.8319, 483.4255
490.3140, 481.5578
490.7961, 480.6283
491.2783, 481.7114
491.7604, 482.5792
492.2425, 481.8222
492.7246, 480.2105
493.2067, 479.2040
493.6888, 479.3173
494.1710, 480.0508
494.6531, 480.6797
495.1352, 481.2457
495.6173, 481.5482
496.0994, 481.8608
496.5815, 481.6928
497.0637, 480.3606
497.5458, 478.3905
498.0279, 476.8919
498.5100, 476.5103
498.9921, 476.8601
499.4742, 476.9741
499.9564, 476.7591
500.4385, 476.5337
500.9206, 476.1915
501.4027, 475.9664
501.8848, 476.0108
502.3669, 476.3216
502.8491, 476.8167
503.3312, 477.7129
503.8133, 478.6932
504.2954, 478.7914
504.7775, 477.8560
505.2596, 476.7412
505.7418, 475.5711
506.2239, 474.6128
506.7060, 474.2928
507.1881, 474.7793
507.6702, 475.2977
508.1523, 475.5649
508.6345, 475.5808
509.1166, 475.4315
509.5987, 475.1292
510.0808, 474.2367
510.5629, 472.0295
511.0450, 468.7757
511.5272, 467.4015
512.0093, 469.7723
512.4914, 471.5326
512.9735, 470.7637
513.4556, 468.9227
513.9377, 468.0014
514.4199, 468.5115
514.9020, 469.4902
515.3841, 469.7421
515.8662, 469.1680
516.3483, 468.5624
516.8304, 467.8938
517.3126, 467.2312
517.7947, 466.5749
518.2768, 465.9453
518.7589, 465.3895
519.2410, 464.9306
519.7231, 464.4778
520.2053, 463.7690
520.6874, 462.7531
521.1695, 462.2733
521.6516, 462.6531
522.1337, 463.3405
522.6158, 464.3227
523.0980, 465.3197
523.5801, 465.4622
524.0622, 463.6885
524.5443, 461.6767
525.0264, 461.5216
525.5085, 462.8769
525.9907, 463.6018
526.4728, 462.7744
526.9549, 461.4099
527.4370, 461.0884
527.9191, 462.0128
528.4012, 462.6033
528.8834, 462.3902
529.3655, 462.0687
529.8476, 462.3189
530.3297, 462.8900
530.8118, 462.9278
531.2939, 461.9369
531.7761, 460.3598
532.2582, 459.3272
532.7403, 459.1164
533.2224, 458.9557
533.7045, 458.6782
534.1866, 458.5624
534.6688, 458.8864
535.1509, 459.5295
535.6330, 460.1010
536.1151, 460.3037
536.5972, 460.3192
537.0793, 460.7740
537.5615, 461.9047
538.0436, 462.4820
538.5257, 461.5993
539.0078, 460.4416
539.4899, 460.0888
539.9720, 460.5426
540.4542, 461.0319
540.9363, 461.3430
541.4184, 461.3942
541.9005, 460.8200
542.3826, 459.6701
542.8647, 458.9375
543.3469, 459.1706
543.8290, 460.1175
544.3111, 461.2162
544.7932, 462.6655
545.2753, 463.7720
545.7574, 464.2714
546.2396, 464.5096
546.7217, 464.5659
547.2038, 464.5964
547.6859, 465.0424
548.1680, 466.2601
548.6501, 468.0534
549.1323, 469.5635
549.6144, 470.6908
550.0965, 471.6773
550.5786, 472.5180
551.0607, 473.2821
551.5428, 473.8314
552.0250, 474.2840
552.5071, 475.1557
552.9892, 477.1708
553.4713, 479.7693
553.9534, 481.3000
554.4355, 481.6246
554.9177, 481.5201
555.3998, 480.9737
555.8819, 480.3825
556.3640, 480.3373
556.8461, 480.9241
557.3282, 481.4040
557.8104, 481.6420
558.2925, 481.5349
558.7746, 480.7538
559.2567, 479.3869
559.7388, 478.1652
560.2209, 477.5191
560.7031, 477.3306
561.1852, 477.2276
561.6673, 477.9241
562.1494, 477.6495
562.6315, 475.3164
563.1136, 472.8387
563.5958, 471.8291
564.0779, 472.0524
564.5600, 472.1201
565.0421, 470.9771
565.5242, 469.0814
566.0063, 468.1438
566.4885, 468.7768
566.9706, 468.5840
567.4527, 465.6897
567.9348, 462.7671
568.4169, 462.0622
568.8990, 463.3480
569.3812, 464.2159
569.8633, 463.0366
570.3454, 460.9060
570.8275, 459.4182
571.3096, 458.5390
571.7917, 457.4651
572.2739, 455.7091
572.7560, 453.8009
573.2381, 452.7297
573.7202, 452.6690
574.2023, 452.6758
574.6844, 452.7080
575.1666, 452.7446
575.6487, 452.7982
576.1308, 452.8441
576.6129, 452.8583
577.0950, 452.8348
577.5771, 452.6885
578.0593, 452.1848
578.5414, 451.1258
579.0235, 450.2445
579.5056, 449.6107
579.9877, 449.1285
580.4698, 448.8261
580.9520, 448.6406
581.4341, 448.4265
581.9162, 448.0796
582.3983, 447.7567
582.8804, 447.8936
583.3625, 448.3941
583.8447, 448.1006
584.3268, 446.4727
584.8089, 444.6056
585.2910, 443.5871
585.7731, 443.3671
586.2552, 443.4536
586.7374, 443.9819
587.2195, 444.6260
587.7016, 445.2885
588.1837, 445.9338
588.6658, 446.6196
589.1479, 447.3361
589.6301, 447.7241
590.1122, 447.2454
590.5943, 445.7599
591.0764, 444.7408
591.5585, 443.9981
592.0406, 443.9977
592.5228, 445.8242
593.0049, 447.9846
593.4870, 448.4466
593.9691, 446.7406
594.4512, 444.8419
594.9333, 444.9581
595.4155, 446.5236
595.8976, 446.9229
596.3797, 445.7666
596.8618, 444.5567
597.3439, 444.2022
597.8260, 444.3849
598.3082, 444.2471
598.7903, 443.5582
599.2724, 443.1375
599.7545, 443.4667
600.2366, 444.0608
600.7188, 444.3764
601.2009, 444.4076
601.6830, 444.5344
602.1651, 445.0586
602.6472, 445.7664
603.1293, 445.8253
603.6115, 444.7268
604.0936, 443.9069
604.5757, 443.4491
605.0578, 443.2738
605.5399, 443.4742
606.0220, 443.9291
606.5042, 444.3451
606.9863, 444.6330
607.4684, 444.6798
607.9505, 444.1172
608.4326, 442.9678
608.9147, 442.1378
609.3969, 441.7953
609.8790, 441.9806
610.3611, 443.1144
610.8432, 445.0799
611.3253, 446.2144
611.8074, 446.0502
612.2896, 445.3240
612.7717, 443.8566
613.2538, 442.2487
613.7359, 441.6808
614.2180, 442.4332
614.7001, 443.4442
615.1823, 443.4241
615.6644, 442.3097
616.1465, 441.4341
616.6286, 440.6543
617.1107, 440.3485
617.5928, 440.9961
618.0750, 441.9081
618.5571, 442.3337
619.0392, 442.1438
619.5213, 441.8785
620.0034, 441.8512
620.4855, 442.0641
620.9677, 442.6013
621.4498, 443.4775
621.9319, 444.3407
622.4140, 445.0400
622.8961, 445.6023
623.3782, 446.1266
623.8604, 446.7690
624.3425, 446.9089
624.8246, 445.8908
625.3067, 444.8668
625.7888, 444.6996
626.2709, 445.1669
626.7531, 445.5610
627.2352, 445.5279
627.7173, 445.3716
628.1994, 445.6151
628.6815, 446.2723
629.1636, 447.3005
629.6458, 449.3497
630.1279, 450.8944
630.6100, 450.7047
631.0921, 449.6700
631.5742, 449.5059
632.0563, 451.0061
632.5385, 452.3070
633.0206, 451.3504
633.5027, 449.4261
633.9848, 449.3410
634.4669, 451.4708
634.9490, 453.9568
635.4312, 455.5550
635.9133, 456.3535
636.3954, 456.7684
636.8775, 456.4445
637.3596, 456.1992
637.8417, 455.6769
638.3239, 455.5513
638.8060, 456.3977
639.2881, 458.0948
639.7702, 460.1826
640.2523, 462.4854
640.7344, 464.7623
641.2166, 466.4675
641.6987, 467.5825
642.1808, 468.6487
642.6629, 469.7095
643.1450, 470.8546
643.6271, 472.1161
644.1093, 473.5200
644.5914, 475.2042
645.0735, 477.2145
645.5556, 479.4691
646.0377, 482.0714
646.5198, 484.8388
647.0020, 487.4482
647.4841, 489.8581
647.9662, 492.3485
648.4483, 495.1768
648.9304, 498.2885
649.4125, 501.3999
649.8947, 504.2662
650.3768, 507.5675
650.8589, 512.3103
651.3410, 516.7837
651.8231, 519.3479
652.3052, 520.3422
652.7874, 521.8772
653.2695, 525.6656
653.7516, 529.8837
654.2337, 532.4086
654.7158, 533.3900
655.1979, 533.3290
655.6801, 532.2427
656.1622, 530.9247
656.6443, 530.4319
657.1264, 530.8884
657.6085, 529.7159
658.0906, 525.7748
658.5728, 521.8848
659.0549, 519.0529
659.5370, 516.3741
660.0191, 512.6588
660.5012, 507.8781
660.9833, 503.1930
661.4655, 499.7455
661.9476, 496.9958
662.4297, 492.9995
662.9118, 487.4516
663.3939, 483.2149
663.8760, 481.7765
664.3582, 481.3125
664.8403, 479.6262
665.3224, 476.8315
665.8045, 474.3128
666.2866, 472.3399
666.7687, 470.6412
667.2509, 468.9707
667.7330, 467.5145
668.2151, 466.7198
668.6972, 466.6391
669.1793, 466.6849
669.6614, 466.2143
670.1436, 465.2768
670.6257, 464.5934
671.1078, 464.2284
671.5899, 463.9798
672.0720, 463.9286
672.5541, 463.8729
673.0363, 463.4920
673.5184, 462.8464
674.0005, 462.6154
674.4826, 463.3201
674.9647, 464.3812
675.4468, 465.4697
675.9290, 466.4406
676.4111, 466.7491
676.8932, 466.2130
677.3753, 465.5038
677.8574, 465.3660
678.3395, 465.8046
678.8217, 466.7107
679.3038, 468.6630
679.7859, 470.3553
680.2680, 471.2953
680.7501, 472.0612
681.2322, 473.2408
681.7144, 474.8339
682.1965, 476.3644
682.6786, 477.6268
683.1607, 478.5513
683.6428, 478.7780
684.1249, 478.4198
684.6071, 478.4344
685.0892, 479.1124
685.5713, 480.2792
686.0534, 481.9361
686.5355, 484.1501
687.0176, 485.3713
687.4998, 485.0194
687.9819, 484.4966
688.4640, 483.9190
688.9461, 483.4846
689.4282, 483.2928
689.9103, 483.4103
690.3925, 484.0494
690.8746, 485.7034
691.3567, 487.6657
691.8388, 487.9089
692.3209, 486.3443
692.8030, 485.5421
693.2852, 486.5952
693.7673, 487.8328
694.2494, 487.2896
694.7315, 485.1179
695.2136, 483.8219
695.6957, 483.9795
696.1779, 484.4321
696.6600, 484.7916
697.1421, 485.2324
697.6242, 486.1837
698.1063, 487.5243
698.5884, 488.4575
699.0706, 488.2925
699.5527, 487.4331
700.0348, 487.0651
700.5169, 487.2810
700.9990, 487.4157
701.4811, 487.4601
701.9633, 487.2197
702.4454, 486.2068
702.9275, 484.7273
703.4096, 483.8292
703.8917, 484.0110
704.3738, 484.2961
704.8560, 484.1534
705.3381, 483.9608
705.8202, 484.3220
706.3023, 485.1686
706.7844, 485.8586
707.2665, 485.9673
707.7487, 485.5604
708.2308, 484.6796
708.7129, 483.1244
709.1950, 482.0447
709.6771, 481.7411
710.1592, 481.7273
710.6414, 482.0431
711.1235, 482.3650
711.6056, 481.9200
712.0877, 480.2961
712.5698, 478.5815
713.0519, 477.1948
713.5341, 476.0849
714.0162, 475.3347
714.4983, 474.8424
714.9804, 474.2544
715.4625, 473.3740
715.9446, 472.2106
716.4268, 470.6537
716.9089, 468.4666
717.3910, 466.9742
717.8731, 466.8001
718.3552, 466.4987
718.8373, 465.0544
719.3195, 463.2068
719.8016, 462.1288
720.2837, 462.1374
720.7658, 461.9865
721.2479, 461.2224
721.7300, 459.9018
722.2122, 457.6408
722.6943, 454.8276
723.1764, 452.7321
723.6585, 451.9135
724.1406, 451.7552
724.6227, 451.3981
725.1049, 450.8574
725.5870, 449.9414
726.0691, 448.5389
726.5512, 446.9388
727.0333, 444.7992
727.5154, 442.7858
727.9976, 441.8501
728.4797, 442.0291
728.9618, 441.7905
729.4439, 439.6253
729.9260, 437.5141
730.4081, 437.9273
730.8903, 439.7450
731.3724, 440.1579
731.8545, 438.3825
732.3366, 435.6635
732.8187, 433.1276
733.3008, 430.8476
733.7830, 429.7859
734.2651, 430.8595
734.7472, 431.1718
735.2293, 429.4733
735.7114, 427.2916
736.1935, 425.6401
736.6757, 424.4554
737.1578, 423.2093
737.6399, 421.3819
738.1220, 419.9179
738.6041, 419.7225
739.0862, 420.1943
739.5684, 420.5508
740.0505, 420.5905
740.5326, 420.1019
741.0147, 418.8584
741.4968, 417.1757
741.9789, 416.0908
742.4611, 415.8826
742.9432, 415.1939
743.4253, 413.2242
743.9074, 411.6198
744.3895, 411.5234
744.8716, 412.3527
745.3538, 413.1518
745.8359, 413.9502
746.3180, 414.1335
746.8001, 412.8411
747.2822, 411.2255
747.7643, 410.5517
748.2465, 410.6546
748.7286, 410.7093
749.2107, 410.3421
749.6928, 409.7018
750.1749, 408.8944
750.6570, 407.8875
751.1392, 407.4789
751.6213, 408.0128
752.1034, 408.3459
752.5855, 407.8973
753.0676, 407.1001
753.5497, 406.5226
754.0319, 406.1815
754.5140, 405.6362
754.9961, 404.5197
755.4782, 403.4392
755.9603, 402.6705
756.4424, 402.2164
756.9246, 402.1246
757.4067, 402.3609
757.8888, 402.7306
758.3709, 403.1442
758.8530, 403.4778
759.3351, 403.2210
759.8173, 402.2907
760.2994, 401.4793
760.7815, 400.9086
761.2636, 400.5868
761.7457, 400.5720
762.2278, 400.8338
762.7100, 401.1920
763.1921, 401.8943
763.6742, 402.3074
764.1563, 402.0975
764.6384, 401.6986
765.1205, 401.3712
765.6027, 401.1752
766.0848, 401.2060
766.5669, 401.5261
767.0490, 401.7943
767.5311, 401.5645
768.0132, 400.8824
768.4954, 399.8730
768.9775, 398.4662
769.4596, 397.4170
769.9417, 397.1786
770.4238, 397.3573
770.9059, 397.2421
771.3881, 396.6691
771.8702, 396.4730
772.3523, 397.3273
772.8344, 397.7417
773.3165, 396.7998
773.7986, 395.3858
774.2808, 394.3182
774.7629, 393.8101
775.2450, 393.9447
775.7271, 395.1810
776.2092, 396.7059
776.6913, 397.2847
777.1735, 397.0825
777.6556, 396.6742
778.1377, 396.1759
778.6198, 395.8675
779.1019, 396.0518
779.5840, 396.5816
780.0662, 396.6982
780.5483, 396.2456
781.0304, 395.6671
781.5125, 394.6397
781.9946, 393.8487
782.4767, 393.6405
782.9589, 393.9039
783.4410, 394.5954
783.9231, 395.9171
784.4052, 396.5687
784.8873, 395.0649
785.3694, 392.9351
785.8516, 392.1783
786.3337, 392.5400
786.8158, 392.6088
787.2979, 391.8292
787.7800, 391.0846
788.2621, 391.7534
788.7443, 393.7510
789.2264, 394.2828
789.7085, 392.6966
790.1906, 391.4673
790.6727, 391.4760
791.1548, 391.9652
791.6370, 392.4127
792.1191, 392.7520
792.6012, 392.4385
793.0833, 390.3213
793.5654, 388.8687
794.0475, 389.7759
794.5297, 391.2709
795.0118, 391.6193
795.4939, 390.7682
795.9760, 389.3930
796.4581, 387.8070
796.9402, 386.2502
797.4224, 385.1185
797.9045, 384.3543
798.3866, 383.5894
798.8687, 382.7801
799.3508, 382.0790
799.8329, 381.4862
800.3151, 381.1829
800.7972, 381.6455
801.2793, 383.3388
801.7614, 383.9489
802.2435, 382.8414
802.7256, 381.5440
803.2078, 379.8358
803.6899, 378.5871
804.1720, 379.2364
804.6541, 381.5141
805.1362, 382.9225
805.6183, 381.5853
806.1005, 379.4221
806.5826, 378.2300
807.0647, 377.7845
807.5468, 377.7518
808.0289, 378.0018
808.5110, 378.0359
808.9932, 377.4510
809.4753, 376.5751
809.9574, 376.3648
810.4395, 377.0678
810.9216, 377.2767
811.4037, 376.5908
811.8859, 375.9599
812.3680, 376.0293
812.8501, 376.3582
813.3322, 376.2975
813.8143, 375.7699
814.2964, 375.2241
814.7786, 374.4164
815.2607, 373.9831
815.7428, 374.5209
816.2249, 375.5601
816.7070, 376.5569
817.1891, 377.3310
817.6713, 377.7860
818.1534, 377.8343
818.6355, 377.5299
819.1176, 376.8056
819.5997, 375.7462
820.0818, 375.0621
820.5640, 374.8976
821.0461, 374.9477
821.5282, 375.0775
822.0103, 375.1718
822.4924, 374.8474
822.9745, 373.6765
823.4567, 373.0366
823.9388, 373.7227
824.4209, 374.0254
824.9030, 372.9009
825.3851, 371.2767
825.8672, 370.2606
826.3494, 370.0211
826.8315, 370.3332
827.3136, 371.8594
827.7957, 373.1727
828.2778, 372.5992
828.7599, 371.0972
829.2421, 370.5361
829.7242, 371.1791
830.2063, 371.9298
830.6884, 371.9597
831.1705, 371.5098
831.6526, 371.1226
832.1348, 370.7953
832.6169, 370.6516
833.0990, 370.8041
833.5811, 370.7853
834.0632, 370.1851
834.5453, 369.3261
835.0275, 368.9396
835.5096, 369.2381
835.9917, 369.3767
836.4738, 369.2540
836.9559, 369.0808
837.4380, 368.8796
837.9202, 368.7021
838.4023, 368.6351
838.8844, 368.6656
839.3665, 368.6423
839.8486, 368.4985
840.3307, 368.2540
840.8129, 367.8192
841.2950, 367.3372
841.7771, 367.2682
842.2592, 367.5626
842.7413, 367.3098
843.2234, 365.8340
843.7056, 364.1519
844.1877, 364.6648
844.6698, 367.6331
845.1519, 369.4483
845.6340, 369.7277
846.1161, 369.6044
846.5983, 369.3471
847.0804, 369.1197
847.5625, 369.2759
848.0446, 369.8661
848.5267, 369.9459
849.0089, 369.0196
849.4910, 368.1669
849.9731, 367.5839
850.4552, 367.2801
850.9373, 367.4930
851.4194, 367.9888
851.9016, 367.9997
852.3837, 367.0006
852.8658, 366.1391
853.3479, 366.8889
853.8300, 368.2913
854.3121, 368.5485
854.7943, 367.7484
855.2764, 366.9687
855.7585, 366.6747
856.2406, 366.6171
856.7227, 366.4220
857.2048, 366.1339
857.6870, 366.4200
858.1691, 367.4376
858.6512, 368.4537
859.1333, 369.5513
859.6154, 370.1623
860.0975, 369.5307
860.5797, 367.9161
861.0618, 366.7995
861.5439, 365.9412
862.0260, 365.9630
862.5081, 367.8855
862.9902, 369.7449
863.4724, 370.3823
863.9545, 370.1592
864.4366, 369.6328
864.9187, 368.9631
865.4008, 368.5726
865.8829, 369.0092
866.3651, 369.6538
866.8472, 369.8177
867.3293, 369.6127
867.8114, 369.2087
868.2935, 368.7079
868.7756, 368.5225
869.2578, 369.0255
869.7399, 369.8611
870.2220, 369.9572
870.7041, 369.2392
871.1862, 369.5352
871.6683, 371.3501
872.1505, 372.8658
872.6326, 373.0678
873.1147, 372.5200
873.5968, 372.1088
874.0789, 371.8156
874.5610, 371.7645
875.0432, 372.1432
875.5253, 372.5023
876.0074, 372.7783
876.4895, 372.9648
876.9716, 372.7599
877.4537, 372.4410
877.9359, 373.0538
878.4180, 375.5001
878.9001, 377.5764
879.3822, 377.6550
879.8643, 376.8561
880.3464, 376.1964
880.8286, 375.8221
881.3107, 375.8189
881.7928, 376.1945
882.2749, 376.6572
882.7570, 376.8766
883.2391, 376.9442
883.7213, 377.0074
884.2034, 377.0977
884.6855, 377.9806
885.1676, 379.9784
885.6497, 381.7067
886.1318, 382.0093
886.6140, 381.3052
887.0961, 380.9906
887.5782, 381.0751
888.0603, 381.5543
888.5424, 382.9480
889.0245, 384.0128
889.5067, 383.6602
889.9888, 383.0716
890.4709, 383.8721
890.9530, 386.1020
891.4351, 387.6371
891.9172, 387.5457
892.3994, 387.3032
892.8815, 387.3177
893.3636, 387.6059
893.8457, 388.3324
894.3278, 389.3283
894.8099, 390.1008
895.2921, 390.4024
895.7742, 390.7762
896.2563, 391.8663
896.7384, 393.3031
897.2205, 394.6579
897.7026, 395.7799
898.1848, 395.9431
898.6669, 394.9881
899.1490, 394.2643
899.6311, 395.2006
900.1132, 397.2655
900.5953, 398.2850
901.0775, 398.1113
901.5596, 398.6947
902.0417, 400.6071
902.5238, 402.2074
903.0059, 402.2030
903.4880, 401.5932
903.9702, 402.5988
904.4523, 405.9301
904.9344, 407.9858
905.4165, 407.2542
905.8986, 407.2016
906.3807, 409.5199
906.8629, 412.0957
907.3450, 412.8592
907.8271, 412.1722
908.3092, 411.9371
908.7913, 412.7765
909.2734, 413.8482
909.7556, 415.0826
910.2377, 416.1285
910.7198, 416.3393
911.2019, 416.2150
911.6840, 416.9125
912.1661, 418.6866
912.6483, 420.3932
913.1304, 420.8657
913.6125, 420.8829
914.0946, 422.0397
914.5767, 423.8057
915.0588, 424.1398
915.5410, 422.8660
916.0231, 422.0351
916.5052, 423.0096
916.9873, 424.7824
917.4694, 425.3438
917.9515, 424.6404
918.4337, 424.2192
918.9158, 424.1653
919.3979, 423.9266
919.8800, 422.9857
920.3621, 422.5146
920.8442, 424.2395
921.3264, 427.7773
921.8085, 428.9772
922.2906, 425.7136
922.7727, 423.5920
923.2548, 423.7275
923.7369, 424.0565
924.2191, 423.5211
924.7012, 422.6172
925.1833, 422.1465
925.6654, 422.2150
926.1475, 422.3143
926.6296, 422.1596
927.1118, 422.1596
927.5939, 422.9157
928.0760, 423.6577
928.5581, 423.3416
929.0402, 422.1961
929.5223, 421.2888
930.0045, 421.1010
930.4866, 421.1441
930.9687, 421.1371
931.4508, 420.9731
931.9329, 420.3496
932.4150, 419.4242
932.8972, 418.7624
933.3793, 418.4880
933.8614, 418.1231
934.3435, 417.2051
934.8256, 416.8061
935.3077, 415.4197
935.7899, 415.3268
936.2720, 414.7584
936.7541, 413.5887
937.2362, 412.2707
937.7183, 411.0654
938.2004, 409.6854
938.6826, 407.5768
939.1647, 404.7031
939.6468, 402.7852
940.1289, 402.4210
940.6110, 401.5516
941.0931, 399.5230
941.5753, 397.2610
942.0574, 395.3087
942.5395, 393.6302
943.0216, 392.0743
943.5037, 390.5986
943.9858, 389.3955
944.4680, 389.0526
944.9501, 388.2946
945.4322, 385.9716
945.9143, 383.4803
946.3964, 382.5587
946.8785, 382.9260
947.3607, 382.6311
947.8428, 380.6783
948.3249, 378.7002
948.8070, 378.0128
949.2891, 377.3264
949.7712, 375.0043
950.2534, 371.8534
950.7355, 369.7165
951.2176, 369.0038
951.6997, 368.5380
952.1818, 367.4259
952.6639, 366.1003
953.1461, 365.0570
953.6282, 364.2912
954.1103, 364.0371
954.5924, 364.1483
955.0745, 363.6976
955.5566, 362.2131
956.0388, 360.4190
956.5209, 359.4306
957.0030, 358.9770
957.4851, 357.2381
957.9672, 354.2254
958.4493, 353.0077
958.9315, 354.4732
959.4136, 356.2682
959.8957, 356.7668
960.3778, 356.1707
960.8599, 354.8206
961.3420, 352.4085
961.8242, 350.8609
962.3063, 350.3771
962.7884, 350.3654
963.2705, 351.2677
963.7526, 351.7205
964.2347, 349.9359
964.7169, 346.3342
965.1990, 343.9883
965.6811, 344.0728
966.1632, 343.6289
966.6453, 342.1334
967.1274, 340.7079
967.6096, 339.5660
968.0917, 338.9033
968.5738, 339.2071
969.0559, 340.4193
969.5380, 341.1655
970.0201, 341.0280
970.5023, 340.4961
970.9844, 339.5068
971.4665, 338.4063
971.9486, 337.4031
972.4307, 336.5203
972.9128, 335.6721
973.3950, 334.8451
973.8771, 334.3661
974.3592, 334.8024
974.8413, 335.2885
975.3234, 334.8877
975.8055, 334.1440
976.2877, 333.9804
976.7698, 334.3094
977.2519, 334.3222
977.7340, 333.6300
978.2161, 332.8493
978.6982, 332.8460
979.1804, 332.0372
979.6625, 332.4378
980.1446, 331.1661
980.6267, 330.4424
981.1088, 330.5003
981.5909, 331.0283
982.0731, 331.9032
982.5552, 332.5884
983.0373, 331.5883
983.5194, 332.1552
984.0015, 332.6016
984.4836, 331.7242
984.9658, 333.2314
985.4479, 332.8081
985.9300, 331.6074
986.4121, 330.6055
986.8942, 329.8031
987.3763, 329.1740
987.8585, 328.6674
988.3406, 328.7759
988.8227, 329.7733
989.3048, 330.5052
989.7869, 330.3948
990.2690, 329.9987
990.7512, 329.9874
991.2333, 330.3173
991.7154, 330.4625
992.1975, 330.5212
992.6796, 330.1514
993.1617, 328.7997
993.6439, 327.7516
994.1260, 327.6602
994.6081, 328.1942
995.0902, 329.1300
995.5723, 330.5128
996.0544, 331.0081
996.5366, 329.8425
997.0187, 328.8302
997.5008, 327.8953
997.9829, 327.5681
998.4650, 328.9421
998.9471, 330.8247
999.4293, 330.8817
999.9114, 328.6938
1000.393, 327.3955
1000.876, 329.0135
1001.358, 330.2049
1001.840, 328.8506
1002.322, 327.0843
1002.804, 326.8467
1003.286, 327.7813
1003.768, 328.7523
1004.250, 329.4642
1004.733, 329.9038
1005.215, 329.8257
1005.697, 329.7260
1006.179, 330.4159
1006.661, 331.0259
1007.143, 329.9215
1007.625, 327.6468
1008.107, 326.4388
1008.589, 327.3002
1009.072, 328.4527
1009.554, 328.3246
1010.036, 327.7351
1010.518, 327.4875
1011.000, 327.5987
1011.482, 328.1429
1011.964, 329.0352
1012.446, 329.9212
1012.929, 330.6138
1013.411, 331.2343
1013.893, 332.1222
1014.375, 332.9541
1014.857, 332.8662
1015.339, 332.1326
1015.821, 331.8535
1016.303, 332.1998
1016.785, 332.3148
1017.268, 331.5895
1017.750, 330.4815
1018.232, 329.4663
1018.714, 328.7100
1019.196, 329.2047
1019.678, 330.7888
1020.160, 331.7875
1020.642, 331.7451
1021.125, 331.4345
1021.607, 331.4425
1022.089, 331.7208
1022.571, 332.3684
1023.053, 333.3276
1023.535, 333.0660
1024.017, 331.4442
1024.499, 330.9934
1024.981, 332.6659
1025.464, 334.5598
1025.946, 334.9396
1026.428, 334.2301
1026.910, 333.7474
1027.392, 333.5301
1027.874, 333.0778
1028.356, 332.2246
1028.838, 331.8845
1029.321, 332.4361
1029.803, 333.4723
1030.285, 334.7741
1030.767, 336.1201
1031.249, 336.4552
1031.731, 335.4848
1032.213, 334.6381
1032.695, 334.0459
1033.177, 333.2432
1033.660, 331.6151
1034.142, 330.4745
1034.624, 331.4452
1035.106, 334.1159
1035.588, 335.9257
1036.070, 336.8929
1036.552, 336.8751
1037.034, 335.0267
1037.516, 333.6711
1037.999, 334.0583
1038.481, 334.9354
1038.963, 335.0296
1039.445, 334.4142
1039.927, 333.6460
1040.409, 332.4981
1040.891, 331.5997
1041.373, 331.0934
1041.855, 330.6641
1042.338, 330.0498
1042.820, 329.5721
1043.302, 329.8182
1043.784, 330.6185
1044.266, 330.6571
1044.748, 329.2956
1045.230, 328.1877
1045.712, 327.1912
1046.195, 326.7388
1046.677, 327.7110
1047.159, 328.8083
1047.641, 328.4796
1048.123, 326.8910
1048.605, 325.5251
1049.087, 324.3785
1049.569, 323.7419
1050.052, 324.1427
1050.534, 324.4908
1051.016, 324.1945
1051.498, 323.6512
1051.980, 323.3210
1052.462, 323.1878
1052.944, 322.9286
1053.426, 322.2018
1053.908, 321.9232
1054.391, 323.1024
1054.873, 323.8499
1055.355, 322.5890
1055.837, 320.8158
1056.319, 320.3244
1056.801, 321.0209
1057.283, 321.5973
1057.765, 321.7389
1058.248, 321.7671
1058.730, 322.0946
1059.212, 321.9735
1059.694, 320.2818
1060.176, 318.4091
1060.658, 318.2137
1061.140, 319.4095
1061.622, 320.0547
1062.104, 319.4064
1062.587, 318.8136
1063.069, 318.9514
1063.551, 319.0644
1064.033, 318.5349
1064.515, 317.8643
1064.997, 317.6712
1065.479, 317.9043
1065.961, 318.1277
1066.443, 318.2229
1066.926, 318.2733
1067.408, 318.2169
1067.890, 318.2325
1068.372, 318.3210
1068.854, 318.6152
1069.336, 319.5998
1069.818, 320.9094
1070.300, 321.3005
1070.782, 320.2120
1071.265, 319.2181
1071.747, 319.4327
1072.229, 319.4581
1072.711, 317.9000
1073.193, 316.1268
1073.675, 315.8482
1074.157, 316.7007
1074.639, 317.2203
1075.122, 316.9677
1075.604, 316.6350
1076.086, 316.5307
1076.568, 316.4501
1077.050, 316.2828
1077.532, 316.0718
1078.014, 315.8647
1078.496, 315.6567
1078.979, 315.3463
1079.461, 314.8847
1079.943, 314.7726
1080.425, 315.5812
1080.907, 316.3824
1081.389, 316.9288
1081.871, 316.9985
1082.353, 315.8885
1082.835, 314.2935
1083.318, 313.7202
1083.800, 314.4976
1084.282, 315.3896
1084.764, 316.1642
1085.246, 316.5430
1085.728, 316.0032
1086.210, 315.3636
1086.692, 315.3875
1087.175, 315.8159
1087.657, 316.1844
1088.139, 316.3799
1088.621, 316.2566
1089.103, 315.2816
1089.585, 314.6410
1090.067, 315.5262
1090.549, 316.2612
1091.031, 315.0907
1091.514, 313.1524
1091.996, 312.2823
1092.478, 312.6350
1092.960, 313.0932
1093.442, 313.5975
1093.924, 313.5703
1094.406, 312.2846
1094.888, 310.9525
1095.370, 310.2439
1095.853, 310.0385
1096.335, 310.2957
1096.817, 310.8789
1097.299, 311.2944
1097.781, 311.4637
1098.263, 311.3351
1098.745, 310.5287
1099.227, 309.8548
1099.709, 309.9016
1100.192, 310.1758
1100.674, 310.1922
1101.156, 309.9509
1101.638, 309.5412
1102.120, 308.7903
1102.602, 308.5949
1103.084, 310.0822
1103.566, 310.9877
1104.049, 310.0103
1104.531, 308.4403
1105.013, 307.0979
1105.495, 306.1147
1105.977, 305.6018
1106.459, 305.5815
1106.941, 305.9417
1107.423, 306.6403
1107.906, 307.7526
1108.388, 310.3485
1108.870, 312.2917
1109.352, 311.7579
1109.834, 309.8026
1110.316, 308.1294
1110.798, 306.8213
1111.280, 306.0351
1111.762, 306.2001
1112.245, 306.2575
1112.727, 306.1616
1113.209, 305.8391
1113.691, 304.9002
1114.173, 303.9400
1114.655, 303.7698
1115.137, 304.3354
1115.619, 304.8910
1116.102, 305.6703
1116.584, 305.9952
1117.066, 305.2455
1117.548, 304.9733
1118.030, 306.3858
1118.512, 307.7518
1118.994, 307.1517
1119.476, 305.1699
1119.958, 304.2189
1120.441, 304.7905
1120.923, 304.7608
1121.405, 303.5626
1121.887, 303.0785
1122.369, 304.2095
1122.851, 305.4102
1123.333, 305.5689
1123.815, 304.9772
1124.297, 304.2222
1124.780, 303.2777
1125.262, 302.5495
1125.744, 302.0555
1126.226, 301.6614
1126.708, 301.1805
1127.190, 301.4546
1127.672, 303.2108
1128.154, 305.3134
1128.636, 306.0977
1129.119, 305.6918
1129.601, 305.0469
1130.083, 304.0868
1130.565, 303.7889
1131.047, 304.3413
1131.529, 304.6794
1132.011, 304.3515
1132.493, 303.8466
1132.976, 303.6813
1133.458, 303.6699
1133.940, 303.0956
1134.422, 303.1923
1134.904, 303.2796
1135.386, 303.0315
1135.868, 303.6302
1136.350, 303.4594
1136.833, 303.3585
1137.315, 303.9669
1137.797, 304.6908
1138.279, 304.4154
1138.761, 303.4510
1139.243, 302.7772
1139.725, 302.3944
1140.207, 302.3686
1140.689, 302.6343
1141.172, 302.8105
1141.654, 302.7135
1142.136, 302.2525
1142.618, 300.9078
1143.100, 299.6127
1143.582, 300.3422
1144.064, 302.1558
1144.546, 303.2456
1145.029, 303.5280
1145.511, 303.3688
1145.993, 302.9323
1146.475, 302.4244
1146.957, 301.8636
1147.439, 301.5968
1147.921, 302.4944
1148.403, 303.4377
1148.885, 302.5337
1149.368, 300.9237
1149.850, 300.9652
1150.332, 302.5567
1150.814, 303.6400
1151.296, 303.3365
1151.778, 302.6436
1152.260, 301.7431
1152.742, 301.1426
1153.224, 301.6764
1153.707, 302.2876
1154.189, 301.4603
1154.671, 299.8870
1155.153, 299.3579
1155.635, 300.2395
1156.117, 301.3403
1156.599, 302.7896
1157.081, 303.6850
1157.563, 303.7311
1158.046, 303.1568
1158.528, 301.4565
1159.010, 299.6293
1159.492, 299.1556
1159.974, 299.9058
1160.456, 300.1314
1160.938, 298.9914
1161.420, 298.6985
1161.903, 300.2921
1162.385, 301.3701
1162.867, 300.9997
1163.349, 300.1939
1163.831, 299.4866
1164.313, 299.0664
1164.795, 299.5314
1165.277, 301.0873
1165.760, 301.7550
1166.242, 301.2428
1166.724, 300.7485
1167.206, 300.4092
1167.688, 300.2784
1168.170, 300.4375
1168.652, 300.6842
1169.134, 300.7811
1169.616, 300.7223
1170.099, 300.3736
1170.581, 299.7265
1171.063, 299.5144
1171.545, 299.7825
1172.027, 300.4720
1172.509, 301.5766
1172.991, 302.6170
1173.473, 303.2627
1173.956, 303.4425
1174.438, 302.8945
1174.920, 301.8151
1175.402, 300.5238
1175.884, 299.3031
1176.366, 299.4049
1176.848, 300.7207
1177.330, 301.8763
1177.813, 302.2616
1178.295, 301.8484
1178.777, 299.9873
1179.259, 298.2451
1179.741, 298.9323
1180.223, 300.7287
1180.705, 302.0177
1181.187, 302.7503
1181.669, 303.2417
1182.151, 303.4881
1182.634, 303.0365
1183.116, 301.4573
1183.598, 300.0099
1184.080, 299.4699
1184.562, 299.2695
1185.044, 298.9607
1185.526, 298.8516
1186.008, 299.5098
1186.490, 300.5797
1186.973, 301.2439
1187.455, 301.3661
1187.937, 301.0947
1188.419, 299.8636
1188.901, 299.1275
1189.383, 299.4818
1189.865, 300.0220
1190.347, 300.2310
1190.830, 300.4560
1191.312, 301.3335
1191.794, 301.1687
1192.276, 300.9779
1192.758, 301.0827
1193.240, 299.9969
1193.722, 299.5338
1194.204, 299.0620
1194.687, 298.2776
1195.169, 298.0684
1195.651, 299.1970
1196.133, 300.6397
1196.615, 300.6449
1197.097, 299.5364
1197.579, 299.3902
1198.061, 300.1451
1198.543, 300.6574
1199.026, 300.8159
1199.508, 300.6214
1199.990, 300.0947
1200.472, 299.5777
1200.954, 299.3336
1201.436, 299.3026
1201.918, 299.5444
1202.400, 299.8457
1202.883, 299.5804
1203.365, 299.0922
1203.847, 299.3654
1204.329, 300.2518
1204.811, 300.7084
1205.293, 300.3615
1205.775, 299.8895
1206.257, 299.8133
1206.740, 299.6994
1207.222, 299.2174
1207.704, 298.5730
1208.186, 297.6575
1208.668, 296.8849
1209.150, 296.9282
1209.632, 297.6990
1210.114, 298.5001
1210.596, 299.3611
1211.078, 299.6310
1211.561, 298.5810
1212.043, 297.7536
1212.525, 297.9015
1213.007, 298.0984
1213.489, 297.6635
1213.971, 296.9585
1214.453, 296.4242
1214.935, 296.0899
1215.417, 296.6694
1215.900, 298.6657
1216.382, 299.5862
1216.864, 299.0926
1217.346, 298.3472
1217.828, 297.6306
1218.310, 297.2105
1218.792, 297.3274
1219.274, 297.7116
1219.757, 297.8686
1220.239, 297.8548
1220.721, 297.9350
1221.203, 298.0941
1221.685, 298.3046
1222.167, 298.5188
1222.649, 298.4763
1223.131, 298.1127
1223.614, 297.7293
1224.096, 297.4725
1224.578, 297.5443
1225.060, 298.5523
1225.542, 299.6681
1226.024, 299.6893
1226.506, 299.2478
1226.988, 299.6391
1227.470, 300.5217
1227.953, 300.3395
1228.435, 298.6202
1228.917, 297.1447
1229.399, 296.3990
1229.881, 296.2956
1230.363, 297.8329
1230.845, 298.8264
1231.327, 297.3199
1231.810, 295.0768
1232.292, 294.2134
1232.774, 294.4476
1233.256, 294.5626
1233.738, 294.3731
1234.220, 294.9732
1234.702, 296.8330
1235.184, 297.9130
1235.667, 297.7366
1236.149, 297.0409
1236.631, 296.0512
1237.113, 295.4791
1237.595, 296.3557
1238.077, 296.1283
1238.559, 298.1724
1239.041, 297.2428
1239.523, 297.3047
1240.005, 298.1062
1240.488, 297.6642
1240.970, 295.8624
1241.452, 294.7097
1241.934, 295.1967
1242.416, 296.0458
1242.898, 296.1849
1243.380, 295.9949
1243.862, 295.5913
1244.344, 295.2970
1244.827, 295.7161
1245.309, 296.3823
1245.791, 296.3149
1246.273, 295.6134
1246.755, 295.5050
1247.237, 296.6084
1247.719, 297.2368
1248.201, 296.6393
1248.684, 296.0428
1249.166, 295.8763
1249.648, 295.7127
1250.130, 295.0511
1250.612, 294.5395
1251.094, 295.2427
1251.576, 296.8690
1252.058, 297.4565
1252.541, 296.8492
1253.023, 296.2868
1253.505, 295.7847
1253.987, 295.5072
1254.469, 295.4893
1254.951, 295.8468
1255.433, 296.6743
1255.915, 297.3900
1256.397, 297.2123
1256.880, 296.5496
1257.362, 296.0004
1257.844, 295.6764
1258.326, 295.9478
1258.808, 296.5921
1259.290, 297.1879
1259.772, 297.5687
1260.254, 297.4495
1260.737, 296.6183
1261.219, 296.0714
1261.701, 296.4774
1262.183, 297.1055
1262.665, 297.9844
1263.147, 298.5539
1263.629, 298.0707
1264.111, 297.2496
1264.594, 297.0827
1265.076, 297.5223
1265.558, 298.1519
1266.040, 299.1991
1266.522, 299.5384
1267.004, 298.9093
1267.486, 298.5125
1267.968, 298.6322
1268.450, 298.7429
1268.932, 298.5903
1269.415, 298.1806
1269.897, 297.3835
1270.379, 296.6426
1270.861, 297.2745
1271.343, 298.7670
1271.825, 299.5479
1272.307, 299.7931
1272.789, 300.4662
1273.271, 301.4240
1273.754, 301.2386
1274.236, 299.4194
1274.718, 297.8402
1275.200, 297.9411
1275.682, 298.3203
1276.164, 298.0620
1276.646, 297.8784
1277.128, 298.7156
1277.611, 299.5756
1278.093, 298.7019
1278.575, 296.9079
1279.057, 297.3707
1279.539, 300.6830
1280.021, 302.0010
1280.503, 300.2745
1280.985, 299.4200
1281.468, 300.1396
1281.950, 300.9046
1282.432, 301.1434
1282.914, 301.2778
1283.396, 301.6665
1283.878, 302.1739
1284.360, 302.5028
1284.842, 302.6243
1285.324, 302.5056
##END=



