##NAMES=Kurnakovite
##RRUFFID=R050393
##IDEAL CHEMISTRY=MgB_3_O_3_(OH)_5_&#183;5H_2_O
##LOCALITY=Kramer deposit, Boron, Kern County, California, USA
##OWNER=RRUFF
##SOURCE=Marcus Origlieri
##DESCRIPTION=Colorless to gray cleavage fragment
##STATUS=The identification of this mineral has been confirmed by X-ray diffraction and chemical analysis
##URL=rruff.info/R050393
##MEASURED CHEMISTRY=Mg_1.00_B_3_O_3_(OH)_5_·5H_2_O ; = lighter phase. The darker phase: (Mg_0.97_Al_0.02_[box]_0.01_)_Σ=1_B_3_O_3_(OH)_5_·5H_2_O ; B not measured but estimated by stoichiometry
93.48767, 634.6581
93.96979, 665.1719
94.45190, 698.5408
94.93402, 730.2025
95.41614, 752.4866
95.89825, 770.4452
96.38037, 790.6586
96.86249, 812.2730
97.34460, 833.8133
97.82672, 855.5170
98.30884, 878.4198
98.79095, 903.5816
99.27307, 928.9943
99.75519, 953.0930
100.2373, 979.0940
100.7194, 1006.073
101.2015, 1026.829
101.6837, 1046.041
102.1658, 1056.677
102.6479, 1052.692
103.1300, 1033.781
103.6121, 1006.102
104.0942, 969.2516
104.5764, 926.7773
105.0585, 884.0852
105.5406, 839.8397
106.0227, 796.0704
106.5048, 759.4998
106.9869, 730.1614
107.4691, 708.5498
107.9512, 695.0832
108.4333, 688.2682
108.9154, 684.8339
109.3975, 683.5453
109.8796, 685.5074
110.3618, 682.1326
110.8439, 668.4162
111.3260, 653.5641
111.8081, 640.7569
112.2902, 630.8145
112.7723, 623.1650
113.2544, 617.0901
113.7366, 612.8376
114.2187, 610.1305
114.7008, 607.7723
115.1829, 607.3113
115.6650, 610.5310
116.1471, 618.0901
116.6293, 628.6203
117.1114, 639.2421
117.5935, 650.0428
118.0756, 660.7023
118.5577, 672.0334
119.0398, 683.2523
119.5220, 692.8961
120.0041, 700.9051
120.4862, 705.8456
120.9683, 706.3260
121.4504, 702.4396
121.9325, 694.2682
122.4147, 681.0306
122.8968, 662.4610
123.3789, 641.9931
123.8610, 617.5785
124.3431, 593.4017
124.8252, 573.7421
125.3074, 560.0087
125.7895, 551.3861
126.2716, 546.3850
126.7537, 545.5889
127.2358, 548.0153
127.7179, 552.1703
128.2001, 558.8268
128.6822, 569.1625
129.1643, 584.0397
129.6464, 603.2975
130.1285, 624.1012
130.6107, 648.7917
131.0928, 673.0477
131.5749, 697.1240
132.0570, 719.9831
132.5391, 740.3950
133.0212, 757.5914
133.5033, 772.2669
133.9855, 776.7858
134.4676, 770.6707
134.9497, 757.3576
135.4318, 737.3340
135.9139, 711.2648
136.3960, 681.1360
136.8782, 648.2931
137.3603, 611.6644
137.8424, 578.7232
138.3245, 549.6428
138.8066, 524.6252
139.2887, 504.5971
139.7709, 490.1740
140.2530, 479.5547
140.7351, 470.7841
141.2172, 463.6252
141.6993, 458.8889
142.1814, 457.4842
142.6636, 458.9565
143.1457, 461.6310
143.6278, 465.0262
144.1099, 469.9340
144.5920, 476.8155
145.0741, 485.6446
145.5563, 495.7466
146.0384, 506.8474
146.5205, 519.0491
147.0026, 531.1882
147.4847, 543.9900
147.9668, 556.0729
148.4490, 567.3771
148.9311, 577.6381
149.4132, 585.5174
149.8953, 588.7410
150.3774, 585.7734
150.8595, 580.7191
151.3417, 573.2823
151.8238, 564.7550
152.3059, 555.4768
152.7880, 545.7556
153.2701, 536.5239
153.7522, 530.3089
154.2344, 529.8459
154.7165, 529.7333
155.1986, 528.8444
155.6807, 528.4377
156.1628, 530.2376
156.6449, 535.1707
157.1271, 542.6617
157.6092, 550.5335
158.0913, 557.9792
158.5734, 566.6104
159.0555, 576.8467
159.5376, 588.6008
160.0198, 601.7062
160.5019, 616.1913
160.9840, 632.0332
161.4661, 648.3867
161.9482, 664.7043
162.4303, 682.0414
162.9125, 701.2043
163.3946, 722.1403
163.8767, 744.0354
164.3588, 768.3817
164.8409, 792.5662
165.3230, 812.6851
165.8052, 828.6491
166.2873, 839.6381
166.7694, 844.0782
167.2515, 841.4861
167.7336, 833.7387
168.2157, 819.7022
168.6979, 801.9543
169.1800, 782.8674
169.6621, 763.0120
170.1442, 742.7627
170.6263, 722.9977
171.1084, 703.5583
171.5906, 685.0383
172.0727, 667.0252
172.5548, 649.9330
173.0369, 634.3433
173.5190, 620.7228
174.0011, 608.8980
174.4833, 597.4412
174.9654, 586.3203
175.4475, 575.5978
175.9296, 565.3513
176.4117, 555.5373
176.8938, 546.0828
177.3760, 537.0428
177.8581, 528.4537
178.3402, 518.7987
178.8223, 506.8152
179.3044, 495.1481
179.7865, 484.5946
180.2687, 475.1773
180.7508, 466.6632
181.2329, 458.8909
181.7150, 451.8730
182.1971, 446.0145
182.6792, 440.7671
183.1614, 436.9003
183.6435, 434.9596
184.1256, 434.9339
184.6077, 436.3592
185.0898, 439.0143
185.5719, 443.0422
186.0541, 447.3943
186.5362, 451.7914
187.0183, 456.6534
187.5004, 462.5851
187.9825, 469.7137
188.4646, 476.9906
188.9468, 483.7020
189.4289, 489.8266
189.9110, 495.2410
190.3931, 500.8517
190.8752, 505.4403
191.3573, 507.1638
191.8395, 505.7415
192.3216, 501.7216
192.8037, 495.3011
193.2858, 486.8434
193.7679, 476.6262
194.2500, 464.0516
194.7322, 449.7631
195.2143, 435.4753
195.6964, 420.8150
196.1785, 406.9601
196.6606, 394.2475
197.1427, 382.6025
197.6249, 372.0116
198.1070, 362.5463
198.5891, 354.1624
199.0712, 346.4077
199.5533, 339.1422
200.0354, 332.7971
200.5176, 327.8013
200.9997, 323.8586
201.4818, 320.3481
201.9639, 316.7785
202.4460, 313.1309
202.9281, 310.0625
203.4103, 308.3249
203.8924, 306.5382
204.3745, 304.0532
204.8566, 301.1257
205.3387, 298.4998
205.8208, 296.8242
206.3030, 296.1635
206.7851, 295.8559
207.2672, 296.0146
207.7493, 296.3732
208.2314, 296.8184
208.7135, 297.3682
209.1957, 298.1147
209.6778, 299.1420
210.1599, 300.4644
210.6420, 302.0062
211.1241, 303.6280
211.6062, 305.5240
212.0884, 307.9200
212.5705, 310.7359
213.0526, 313.6620
213.5347, 316.4886
214.0168, 319.2108
214.4989, 321.4848
214.9811, 323.0223
215.4632, 324.3851
215.9453, 326.0521
216.4274, 328.0117
216.9095, 329.7338
217.3916, 330.6850
217.8737, 330.8388
218.3559, 331.1960
218.8380, 332.2648
219.3201, 333.2335
219.8022, 333.0640
220.2843, 331.6832
220.7664, 330.6108
221.2486, 331.1993
221.7307, 333.1906
222.2128, 335.3570
222.6949, 337.3688
223.1770, 339.5699
223.6591, 342.2413
224.1413, 345.3602
224.6234, 349.1527
225.1055, 354.1249
225.5876, 359.8705
226.0697, 365.7282
226.5518, 371.3333
227.0340, 377.0316
227.5161, 383.4634
227.9982, 390.8617
228.4803, 398.1870
228.9624, 405.0489
229.4445, 411.3862
229.9267, 417.1898
230.4088, 422.7528
230.8909, 427.4637
231.3730, 429.9816
231.8551, 429.8759
232.3372, 428.5560
232.8194, 426.9176
233.3015, 424.4501
233.7836, 420.3811
234.2657, 414.2525
234.7478, 406.5720
235.2299, 398.3936
235.7121, 389.4825
236.1942, 380.4388
236.6763, 370.6948
237.1584, 361.2082
237.6405, 353.0128
238.1227, 346.5753
238.6048, 341.4478
239.0869, 336.4778
239.5690, 331.2934
240.0511, 326.9861
240.5332, 324.0684
241.0154, 321.8321
241.4975, 319.5373
241.9796, 316.8572
242.4617, 314.1847
242.9438, 312.5848
243.4259, 312.7915
243.9081, 312.9917
244.3902, 312.9327
244.8723, 312.7926
245.3544, 312.6405
245.8365, 312.5167
246.3186, 312.6027
246.8008, 313.3452
247.2829, 315.3195
247.7650, 317.1626
248.2471, 318.7296
248.7292, 320.1865
249.2113, 321.5761
249.6935, 322.9382
250.1756, 324.4707
250.6577, 326.5726
251.1398, 329.5435
251.6219, 332.7116
252.1040, 336.1326
252.5862, 339.6841
253.0683, 343.2339
253.5504, 346.7344
254.0325, 350.3181
254.5146, 354.2651
254.9967, 359.3925
255.4789, 363.1842
255.9610, 365.2101
256.4431, 366.1674
256.9252, 366.6523
257.4073, 366.8064
257.8894, 366.4316
258.3716, 365.3235
258.8537, 363.5558
259.3358, 360.4001
259.8179, 355.4335
260.3000, 349.3312
260.7821, 341.8820
261.2643, 333.2148
261.7464, 325.3682
262.2285, 320.8508
262.7106, 320.6489
263.1927, 319.1646
263.6748, 315.1664
264.1570, 310.5903
264.6391, 307.0356
265.1212, 304.6697
265.6033, 302.7718
266.0854, 300.6261
266.5675, 298.2590
267.0497, 296.7563
267.5318, 297.0434
268.0139, 297.5841
268.4960, 296.9157
268.9781, 295.0286
269.4602, 293.3309
269.9424, 292.9015
270.4245, 293.6797
270.9066, 294.5221
271.3887, 295.2997
271.8708, 296.2213
272.3529, 297.5682
272.8351, 299.3026
273.3172, 300.8682
273.7993, 301.6025
274.2814, 302.0478
274.7635, 303.7640
275.2456, 307.4748
275.7278, 311.6766
276.2099, 315.3964
276.6920, 318.6817
277.1741, 321.8716
277.6562, 324.8738
278.1383, 328.0687
278.6205, 332.1248
279.1026, 337.5220
279.5847, 342.8270
280.0668, 347.1437
280.5489, 350.5655
281.0310, 353.5105
281.5132, 356.0214
281.9953, 358.1805
282.4774, 360.3367
282.9595, 362.6285
283.4416, 364.1490
283.9237, 364.3260
284.4059, 363.2715
284.8880, 361.3695
285.3701, 358.4806
285.8522, 355.0313
286.3343, 351.6701
286.8164, 348.3830
287.2986, 344.4678
287.7807, 339.4846
288.2628, 333.5602
288.7449, 326.9526
289.2270, 319.1112
289.7091, 311.6432
290.1913, 305.8954
290.6734, 301.5620
291.1555, 297.5184
291.6376, 293.0135
292.1197, 288.4806
292.6018, 285.0252
293.0840, 283.0732
293.5661, 281.3731
294.0482, 278.7905
294.5303, 275.8803
295.0124, 273.6861
295.4945, 272.8326
295.9767, 272.8358
296.4588, 273.0227
296.9409, 273.5841
297.4230, 273.6674
297.9051, 271.8082
298.3872, 269.5172
298.8694, 268.7357
299.3515, 270.3889
299.8336, 273.1089
300.3157, 275.1473
300.7978, 276.4113
301.2799, 277.6185
301.7621, 278.9413
302.2442, 280.3933
302.7263, 281.9904
303.2084, 283.7326
303.6905, 285.6534
304.1726, 287.8391
304.6548, 290.2938
305.1369, 292.8181
305.6190, 295.4945
306.1011, 298.1318
306.5832, 300.5013
307.0653, 302.6033
307.5475, 304.7697
308.0296, 307.3056
308.5117, 310.1771
308.9938, 313.0098
309.4759, 315.5204
309.9580, 318.2902
310.4402, 321.8145
310.9223, 325.9241
311.4044, 329.9831
311.8865, 333.5198
312.3686, 336.6383
312.8507, 339.7228
313.3329, 342.2960
313.8150, 345.7405
314.2971, 351.1638
314.7792, 357.8479
315.2613, 364.5141
315.7434, 370.4692
316.2256, 376.1555
316.7077, 382.4957
317.1898, 389.5846
317.6719, 397.2516
318.1540, 405.7647
318.6361, 414.6781
319.1183, 423.5161
319.6004, 432.1493
320.0825, 440.7582
320.5646, 449.6865
321.0467, 459.0143
321.5288, 468.1436
322.0110, 476.6308
322.4931, 485.0018
322.9752, 493.9434
323.4573, 503.5583
323.9394, 512.5054
324.4215, 519.0413
324.9037, 523.1896
325.3858, 528.1486
325.8679, 535.5909
326.3500, 542.7892
326.8321, 548.3455
327.3142, 552.1624
327.7964, 553.9901
328.2785, 553.0952
328.7606, 549.8980
329.2427, 546.4236
329.7248, 542.8402
330.2069, 538.8411
330.6891, 534.8082
331.1712, 530.2978
331.6533, 524.1945
332.1354, 515.2944
332.6175, 504.8439
333.0996, 495.2624
333.5818, 486.5488
334.0639, 478.5711
334.5460, 471.6950
335.0281, 465.3923
335.5102, 459.1031
335.9923, 452.5290
336.4745, 446.1952
336.9566, 440.5325
337.4387, 435.5506
337.9208, 431.4350
338.4029, 428.3985
338.8850, 426.2462
339.3671, 425.0214
339.8492, 424.7953
340.3314, 424.4717
340.8135, 422.6241
341.2956, 419.6699
341.7777, 418.4583
342.2598, 420.1538
342.7419, 422.8252
343.2241, 424.6747
343.7062, 425.9035
344.1883, 427.5201
344.6704, 430.5596
345.1525, 434.2333
345.6346, 436.5335
346.1168, 436.8529
346.5989, 437.4225
347.0810, 440.0511
347.5631, 444.0225
348.0452, 448.3141
348.5273, 452.8299
349.0095, 457.4100
349.4916, 461.8010
349.9737, 465.9775
350.4558, 470.3691
350.9379, 475.0263
351.4200, 480.1225
351.9022, 485.8878
352.3843, 492.4791
352.8664, 499.2776
353.3485, 506.1786
353.8306, 513.0070
354.3127, 519.1013
354.7949, 524.3918
355.2770, 528.6980
355.7591, 531.8925
356.2412, 534.0571
356.7233, 535.1726
357.2054, 535.8049
357.6876, 535.2045
358.1697, 531.8906
358.6518, 525.4921
359.1339, 517.6481
359.6160, 509.4522
360.0981, 500.9070
360.5803, 492.3361
361.0624, 484.0043
361.5445, 475.5145
362.0266, 466.2086
362.5087, 456.2495
362.9908, 446.9750
363.4730, 438.9940
363.9551, 432.3808
364.4372, 426.9806
364.9193, 423.1430
365.4014, 419.8232
365.8835, 416.7338
366.3657, 413.8658
366.8478, 411.0260
367.3299, 408.0525
367.8120, 405.5423
368.2941, 404.5786
368.7762, 405.3894
369.2584, 406.5555
369.7405, 407.9113
370.2226, 409.5236
370.7047, 411.4922
371.1868, 413.8296
371.6689, 416.4140
372.1511, 419.2755
372.6332, 422.4285
373.1153, 424.8159
373.5974, 425.1914
374.0795, 426.1165
374.5616, 429.6034
375.0438, 434.6894
375.5259, 438.7866
376.0080, 440.3473
376.4901, 440.1830
376.9722, 441.1509
377.4543, 444.3292
377.9365, 447.2178
378.4186, 449.9834
378.9007, 452.1460
379.3828, 453.1190
379.8649, 452.7548
380.3470, 451.3724
380.8292, 449.3806
381.3113, 446.6378
381.7934, 443.5847
382.2755, 440.7354
382.7576, 437.1873
383.2397, 432.5820
383.7219, 426.8326
384.2040, 419.7910
384.6861, 411.1764
385.1682, 401.1429
385.6503, 392.3982
386.1324, 386.4536
386.6146, 380.2162
387.0967, 373.0092
387.5788, 365.3227
388.0609, 357.5554
388.5430, 349.9142
389.0251, 342.7992
389.5073, 337.0955
389.9894, 333.5617
390.4715, 329.8780
390.9536, 325.4026
391.4357, 321.1429
391.9178, 317.5980
392.4000, 314.8882
392.8821, 312.9798
393.3642, 312.0124
393.8463, 312.0185
394.3284, 311.7826
394.8105, 311.0223
395.2927, 310.3342
395.7748, 309.7451
396.2569, 309.3927
396.7390, 309.4623
397.2211, 310.0394
397.7032, 311.1128
398.1854, 312.7135
398.6675, 314.9837
399.1496, 317.3759
399.6317, 319.7795
400.1138, 322.2402
400.5959, 324.9416
401.0781, 327.8939
401.5602, 330.5541
402.0423, 332.1314
402.5244, 332.7566
403.0065, 333.9388
403.4886, 335.9702
403.9708, 338.4367
404.4529, 340.8805
404.9350, 343.4457
405.4171, 346.6258
405.8992, 351.3071
406.3813, 356.3625
406.8635, 359.7290
407.3456, 361.1891
407.8277, 363.0227
408.3098, 366.6624
408.7919, 371.2705
409.2740, 375.2513
409.7562, 378.1301
410.2383, 381.4346
410.7204, 385.9992
411.2025, 391.7379
411.6846, 398.6054
412.1667, 406.8501
412.6489, 415.5747
413.1310, 423.4959
413.6131, 430.6627
414.0952, 438.6728
414.5773, 448.5872
415.0594, 458.9415
415.5416, 468.6098
416.0237, 477.4662
416.5058, 485.3334
416.9879, 491.9357
417.4700, 497.4839
417.9521, 503.1781
418.4343, 511.2244
418.9164, 516.8068
419.3985, 518.2529
419.8806, 516.5460
420.3627, 512.8939
420.8448, 507.6950
421.3270, 501.1971
421.8091, 493.7954
422.2912, 485.7425
422.7733, 475.7893
423.2554, 463.2558
423.7375, 449.6323
424.2197, 435.4223
424.7018, 420.9416
425.1839, 406.6285
425.6660, 392.7507
426.1481, 379.4064
426.6302, 366.8418
427.1124, 355.1966
427.5945, 344.4025
428.0766, 334.5239
428.5587, 325.4713
429.0408, 317.0086
429.5229, 309.1129
430.0051, 301.9452
430.4872, 295.8449
430.9693, 291.0705
431.4514, 286.3976
431.9335, 281.5952
432.4156, 277.0668
432.8978, 273.0749
433.3799, 269.4953
433.8620, 265.8985
434.3441, 261.8664
434.8262, 257.7866
435.3083, 254.8859
435.7905, 253.4790
436.2726, 252.4143
436.7547, 251.8976
437.2368, 251.1982
437.7189, 249.3569
438.2010, 246.1070
438.6832, 243.0088
439.1653, 241.3927
439.6474, 241.0906
440.1295, 241.2332
440.6116, 241.7761
441.0938, 242.5903
441.5759, 243.8409
442.0580, 245.3200
442.5401, 246.3215
443.0222, 246.3658
443.5043, 246.0353
443.9865, 245.8153
444.4686, 245.7160
444.9507, 245.8544
445.4328, 246.4678
445.9149, 247.1627
446.3970, 246.8793
446.8792, 245.1042
447.3613, 243.9824
447.8434, 244.6264
448.3255, 245.9953
448.8076, 246.8136
449.2897, 246.8731
449.7719, 246.6156
450.2540, 246.2346
450.7361, 245.6707
451.2182, 246.9783
451.7003, 252.4219
452.1824, 256.9731
452.6646, 258.1094
453.1467, 257.2820
453.6288, 256.9422
454.1109, 258.1656
454.5930, 260.3593
455.0751, 262.3141
455.5573, 263.4608
456.0394, 265.5315
456.5215, 268.8965
457.0036, 272.7013
457.4857, 276.5200
457.9678, 280.3175
458.4500, 284.2961
458.9321, 288.6731
459.4142, 293.3345
459.8963, 297.4991
460.3784, 300.1625
460.8605, 304.1726
461.3427, 310.9803
461.8248, 318.9701
462.3069, 326.6846
462.7890, 333.7592
463.2711, 340.6149
463.7532, 347.8440
464.2354, 355.4052
464.7175, 362.0680
465.1996, 367.5367
465.6817, 372.3027
466.1638, 376.9845
466.6459, 381.3185
467.1281, 384.5515
467.6102, 386.4628
468.0923, 387.1205
468.5744, 386.3781
469.0565, 384.2993
469.5386, 381.6678
470.0208, 378.9499
470.5029, 375.6129
470.9850, 370.4897
471.4671, 363.3248
471.9492, 356.2718
472.4313, 350.2408
472.9135, 344.3414
473.3956, 337.2782
473.8777, 329.1121
474.3598, 321.2576
474.8419, 314.8077
475.3240, 309.6635
475.8062, 305.0087
476.2883, 301.1808
476.7704, 297.3385
477.2525, 293.1300
477.7346, 288.9080
478.2167, 284.9925
478.6989, 281.4979
479.1810, 278.6347
479.6631, 276.7639
480.1452, 276.1956
480.6273, 275.0826
481.1094, 272.2256
481.5916, 270.0623
482.0737, 269.9380
482.5558, 270.9661
483.0379, 271.4906
483.5200, 270.6471
484.0021, 269.2778
484.4843, 269.1193
484.9664, 270.5051
485.4485, 271.5538
485.9306, 271.5981
486.4127, 271.4524
486.8948, 271.6008
487.3770, 272.0463
487.8591, 272.6287
488.3412, 273.2248
488.8233, 273.9055
489.3054, 274.8294
489.7875, 276.0058
490.2697, 277.3066
490.7518, 278.7648
491.2339, 280.2451
491.7160, 281.4998
492.1981, 282.4604
492.6802, 283.3796
493.1624, 284.4056
493.6445, 285.4311
494.1266, 286.2285
494.6087, 286.7711
495.0908, 287.3387
495.5729, 288.1548
496.0551, 289.2233
496.5372, 290.5845
497.0193, 292.8502
497.5014, 294.6546
497.9835, 295.3842
498.4656, 295.4734
498.9478, 295.4260
499.4299, 295.4389
499.9120, 295.6460
500.3941, 296.3170
500.8762, 297.7007
501.3583, 298.5682
501.8405, 298.3808
502.3226, 298.2207
502.8047, 298.7740
503.2868, 299.5846
503.7689, 299.8516
504.2510, 299.2098
504.7331, 297.7370
505.2152, 295.2699
505.6974, 291.5244
506.1795, 288.5258
506.6616, 287.0863
507.1437, 286.1885
507.6258, 285.3965
508.1079, 284.5637
508.5901, 283.0873
509.0722, 280.0157
509.5543, 276.4609
510.0364, 274.0482
510.5185, 272.7812
511.0006, 271.9352
511.4828, 271.2597
511.9649, 270.7413
512.4470, 270.4358
512.9291, 270.5236
513.4113, 270.2003
513.8934, 269.0189
514.3755, 267.4732
514.8576, 266.0186
515.3397, 264.7142
515.8218, 263.5132
516.3040, 262.3897
516.7861, 261.3234
517.2682, 260.1873
517.7503, 258.2113
518.2324, 257.1593
518.7145, 258.3102
519.1967, 259.7784
519.6788, 259.5694
520.1609, 257.4990
520.6430, 255.0643
521.1251, 253.7596
521.6072, 253.5473
522.0894, 253.2671
522.5715, 252.5192
523.0536, 252.3719
523.5357, 253.7229
524.0178, 255.5472
524.4999, 256.5475
524.9821, 256.3328
525.4642, 255.9834
525.9463, 256.6778
526.4284, 258.1322
526.9105, 258.9806
527.3926, 258.8413
527.8748, 258.6629
528.3569, 259.1935
528.8390, 260.2979
529.3211, 261.5156
529.8032, 263.0564
530.2853, 264.4104
530.7675, 264.9430
531.2496, 265.1476
531.7317, 266.2505
532.2138, 268.6300
532.6959, 270.9846
533.1780, 271.5600
533.6602, 269.8847
534.1423, 269.3833
534.6244, 271.0995
535.1065, 272.6521
535.5886, 272.9002
536.0707, 272.4706
536.5529, 272.5230
537.0350, 273.4972
537.5171, 274.6060
537.9992, 274.2829
538.4813, 271.9860
538.9634, 271.0994
539.4456, 273.0875
539.9277, 275.0780
540.4098, 275.5267
540.8919, 275.0432
541.3740, 274.9415
541.8561, 275.8586
542.3383, 277.0922
542.8204, 277.8690
543.3025, 278.2055
543.7846, 278.1678
544.2667, 277.5649
544.7488, 277.0009
545.2310, 277.3547
545.7131, 278.4992
546.1952, 279.2281
546.6773, 278.6587
547.1594, 278.2680
547.6415, 279.3860
548.1237, 281.4452
548.6058, 283.0131
549.0879, 283.5063
549.5700, 283.3271
550.0521, 283.0424
550.5342, 282.3511
551.0164, 282.5317
551.4985, 284.6969
551.9806, 286.4639
552.4627, 286.3355
552.9448, 285.1235
553.4269, 284.6575
553.9091, 285.8816
554.3912, 287.4249
554.8733, 286.5552
555.3554, 282.7866
555.8375, 279.9213
556.3196, 278.7790
556.8018, 278.2952
557.2839, 278.0314
557.7660, 277.8327
558.2481, 277.3246
558.7302, 276.6797
559.2123, 275.3071
559.6945, 272.0168
560.1766, 267.3039
560.6587, 263.4881
561.1408, 261.3790
561.6229, 260.0455
562.1050, 258.4726
562.5872, 256.6758
563.0693, 254.2913
563.5514, 250.3624
564.0335, 246.8127
564.5156, 244.9553
564.9977, 244.1204
565.4799, 242.9712
565.9620, 240.9876
566.4441, 238.7701
566.9262, 237.3560
567.4083, 237.0633
567.8904, 236.2747
568.3726, 234.2490
568.8547, 232.4866
569.3368, 231.6056
569.8189, 231.3025
570.3010, 231.1037
570.7831, 230.8609
571.2653, 230.5198
571.7474, 230.0643
572.2295, 229.4769
572.7116, 228.4997
573.1937, 226.9030
573.6758, 225.4004
574.1580, 224.7678
574.6401, 224.7609
575.1222, 224.4122
575.6043, 223.3528
576.0864, 222.2520
576.5685, 221.1387
577.0507, 220.2954
577.5328, 220.5479
578.0149, 222.0101
578.4970, 223.2806
578.9791, 222.7380
579.4612, 220.2825
579.9434, 218.5354
580.4255, 218.0402
580.9076, 217.6387
581.3897, 216.9841
581.8718, 216.3848
582.3539, 216.2991
582.8361, 216.7794
583.3182, 217.2953
583.8003, 217.2314
584.2824, 216.6890
584.7645, 216.3516
585.2466, 216.1059
585.7288, 216.4243
586.2108, 218.2724
586.6929, 220.4813
587.1750, 221.1958
587.6572, 219.9383
588.1393, 218.7193
588.6214, 218.5790
589.1035, 218.9369
589.5856, 219.2037
590.0677, 219.2595
590.5499, 218.7294
591.0320, 217.1923
591.5141, 215.1413
591.9962, 214.4313
592.4783, 216.1909
592.9604, 217.7783
593.4426, 219.3286
593.9247, 220.5694
594.4068, 221.0942
594.8889, 221.1095
595.3710, 221.2840
595.8531, 222.0813
596.3353, 223.2379
596.8174, 224.0789
597.2995, 224.4937
597.7816, 225.2189
598.2637, 226.4747
598.7458, 228.0478
599.2280, 229.9071
599.7101, 231.9597
600.1922, 233.7181
600.6743, 234.7405
601.1564, 235.6533
601.6385, 236.9225
602.1207, 238.5130
602.6028, 240.4388
603.0849, 242.7295
603.5670, 244.9189
604.0491, 246.2776
604.5313, 246.5099
605.0134, 247.7781
605.4955, 250.7486
605.9776, 253.8448
606.4597, 256.7636
606.9418, 259.4443
607.4240, 261.6498
607.9061, 263.3733
608.3882, 265.2065
608.8703, 267.6292
609.3524, 270.6627
609.8345, 274.8522
610.3167, 280.6211
610.7988, 286.5018
611.2809, 291.9303
611.7630, 296.9621
612.2451, 301.4991
612.7272, 305.2920
613.2094, 309.6762
613.6915, 315.5374
614.1736, 322.1803
614.6557, 328.5243
615.1378, 334.6566
615.6199, 341.5306
616.1021, 349.7323
616.5842, 358.9708
617.0663, 368.2838
617.5484, 377.5292
618.0305, 387.2679
618.5126, 397.7562
618.9948, 408.4413
619.4769, 418.8528
619.9590, 429.1927
620.4411, 439.8479
620.9232, 451.0737
621.4053, 462.7202
621.8875, 474.5570
622.3696, 486.5651
622.8517, 499.0636
623.3338, 512.1991
623.8159, 525.6049
624.2980, 539.1634
624.7802, 552.7150
625.2623, 565.7217
625.7444, 578.6867
626.2265, 590.3181
626.7086, 599.6829
627.1907, 607.5555
627.6729, 615.3276
628.1550, 623.1127
628.6371, 629.4509
629.1192, 632.9749
629.6013, 633.9483
630.0834, 634.5341
630.5656, 636.0348
631.0477, 634.8351
631.5298, 629.5306
632.0119, 622.4084
632.4940, 615.2887
632.9761, 608.0693
633.4583, 599.2243
633.9404, 587.2420
634.4225, 573.6251
634.9046, 561.0508
635.3867, 549.3112
635.8688, 536.0314
636.3510, 519.9335
636.8331, 503.2892
637.3152, 488.8403
637.7973, 476.7611
638.2794, 464.3772
638.7615, 450.8487
639.2437, 437.8569
639.7258, 426.4516
640.2079, 415.7874
640.6900, 404.5887
641.1721, 392.5548
641.6542, 380.6776
642.1364, 370.0531
642.6185, 360.5779
643.1006, 351.0036
643.5827, 340.6634
644.0648, 331.7685
644.5469, 326.4224
645.0291, 322.0876
645.5112, 316.5178
645.9933, 309.5655
646.4754, 302.3730
646.9575, 295.0614
647.4396, 288.0883
647.9218, 281.8434
648.4039, 276.3525
648.8860, 271.7590
649.3681, 268.1528
649.8502, 265.0360
650.3323, 261.6696
650.8145, 258.0743
651.2966, 254.1146
651.7787, 249.0471
652.2608, 244.4959
652.7429, 241.0258
653.2250, 238.3313
653.7072, 236.2027
654.1893, 234.5280
654.6714, 232.8453
655.1535, 230.5766
655.6356, 227.9538
656.1177, 225.8522
656.5999, 224.3840
657.0820, 222.6812
657.5641, 220.1796
658.0462, 217.3697
658.5283, 215.2008
659.0104, 213.8120
659.4926, 212.2268
659.9747, 209.9601
660.4568, 207.7993
660.9389, 206.3659
661.4210, 205.3990
661.9031, 204.2440
662.3853, 202.6520
662.8674, 201.1376
663.3495, 200.5997
663.8316, 201.1435
664.3137, 200.8994
664.7958, 199.4227
665.2780, 197.9655
665.7601, 197.0641
666.2422, 196.4865
666.7243, 196.0537
667.2064, 195.7731
667.6885, 195.3804
668.1707, 194.5825
668.6528, 193.7228
669.1349, 193.3059
669.6170, 193.2282
670.0991, 192.8889
670.5812, 191.9831
671.0634, 190.9430
671.5455, 190.6235
672.0276, 191.4680
672.5097, 191.3519
672.9918, 189.5097
673.4739, 187.5221
673.9561, 185.6455
674.4382, 183.9946
674.9203, 182.6931
675.4024, 181.7774
675.8845, 181.0877
676.3666, 180.7322
676.8488, 180.4514
677.3309, 179.5027
677.8130, 177.8737
678.2951, 176.5323
678.7772, 175.9686
679.2593, 175.8744
679.7415, 175.7103
680.2236, 175.4903
680.7057, 175.1345
681.1878, 174.7207
681.6699, 174.0889
682.1520, 172.6940
682.6342, 171.2059
683.1163, 170.7727
683.5984, 171.6799
684.0805, 172.8674
684.5626, 173.2030
685.0447, 172.8251
685.5269, 172.5078
686.0090, 172.2960
686.4911, 171.9023
686.9732, 170.9992
687.4553, 170.0330
687.9374, 169.8250
688.4196, 170.4558
688.9017, 170.9208
689.3838, 171.0449
689.8659, 170.9873
690.3480, 170.8633
690.8301, 170.6201
691.3123, 169.8793
691.7944, 168.6239
692.2765, 167.8690
692.7586, 169.1132
693.2407, 172.1405
693.7228, 173.8943
694.2050, 174.3300
694.6871, 173.5932
695.1692, 170.7022
695.6513, 167.4122
696.1334, 165.5491
696.6155, 165.1314
697.0977, 165.2350
697.5798, 166.2487
698.0619, 167.0609
698.5440, 166.5561
699.0261, 165.2979
699.5082, 164.4876
699.9904, 164.4565
700.4725, 164.6580
700.9546, 164.4992
701.4367, 164.0103
701.9188, 163.6472
702.4009, 163.4780
702.8831, 163.3021
703.3652, 163.0780
703.8473, 162.8213
704.3294, 162.2903
704.8115, 161.6324
705.2936, 161.6978
705.7758, 163.4320
706.2579, 165.4199
706.7400, 166.6592
707.2221, 167.2444
707.7042, 167.2135
708.1863, 166.6229
708.6685, 166.1015
709.1506, 166.2329
709.6327, 166.9413
710.1148, 167.6479
710.5969, 168.1556
711.0790, 169.0299
711.5612, 170.9037
712.0433, 172.6603
712.5254, 173.4778
713.0075, 173.5540
713.4896, 173.5943
713.9717, 173.8071
714.4539, 174.1905
714.9360, 174.9481
715.4181, 175.8375
715.9002, 176.0130
716.3823, 175.4174
716.8644, 175.4857
717.3466, 177.4300
717.8287, 180.6035
718.3108, 182.5723
718.7929, 182.2026
719.2750, 182.7702
719.7571, 185.3789
720.2393, 187.8738
720.7214, 188.6472
721.2035, 188.6391
721.6856, 189.9149
722.1677, 193.3835
722.6498, 196.9161
723.1320, 198.2996
723.6141, 198.6135
724.0962, 200.0898
724.5783, 202.8660
725.0604, 205.9836
725.5425, 209.0156
726.0247, 211.8059
726.5068, 213.8419
726.9889, 214.0212
727.4710, 216.8598
727.9531, 225.2717
728.4352, 232.9547
728.9174, 237.2989
729.3995, 239.9602
729.8816, 242.9468
730.3637, 246.7143
730.8458, 250.7173
731.3279, 254.8498
731.8101, 258.8582
732.2922, 262.1800
732.7743, 264.9112
733.2564, 267.7237
733.7385, 270.8729
734.2206, 274.1276
734.7028, 277.2460
735.1849, 280.2506
735.6670, 282.7705
736.1491, 284.4443
736.6312, 286.0748
737.1133, 288.5538
737.5955, 290.5057
738.0776, 290.6880
738.5597, 289.1262
739.0418, 286.6192
739.5239, 282.9140
740.0060, 279.2503
740.4882, 277.6811
740.9703, 277.3265
741.4524, 275.4442
741.9345, 271.4712
742.4166, 266.4318
742.8987, 260.9832
743.3809, 255.3511
743.8630, 250.7026
744.3451, 247.6762
744.8272, 244.4891
745.3093, 241.0708
745.7914, 237.4594
746.2736, 233.3947
746.7557, 229.2162
747.2378, 225.6352
747.7199, 223.0530
748.2020, 220.3583
748.6841, 216.1582
749.1663, 211.4931
749.6484, 208.1626
750.1305, 206.2216
750.6126, 205.1289
751.0947, 204.7330
751.5768, 204.3197
752.0590, 202.4801
752.5411, 198.7832
753.0232, 195.6626
753.5053, 192.9542
753.9874, 191.0897
754.4695, 191.1479
754.9517, 191.4878
755.4338, 189.9790
755.9159, 186.4934
756.3980, 183.6796
756.8801, 183.2381
757.3622, 183.6262
757.8444, 183.7921
758.3265, 183.5442
758.8086, 182.2896
759.2907, 179.9566
759.7728, 177.4653
760.2549, 175.6986
760.7371, 174.5850
761.2192, 173.7656
761.7013, 173.3642
762.1834, 172.9102
762.6655, 172.1190
763.1476, 171.4784
763.6298, 171.5651
764.1119, 172.0467
764.5940, 171.9817
765.0761, 171.0387
765.5582, 169.8161
766.0403, 168.1444
766.5225, 166.6500
767.0046, 166.4149
767.4867, 167.0860
767.9688, 167.1053
768.4509, 165.6605
768.9330, 163.6399
769.4152, 162.5261
769.8973, 162.3442
770.3794, 162.2132
770.8615, 162.1406
771.3436, 162.0623
771.8257, 161.9884
772.3079, 161.8649
772.7900, 161.6004
773.2721, 161.1870
773.7542, 160.7666
774.2363, 159.9336
774.7184, 159.5706
775.2006, 160.6404
775.6827, 162.1887
776.1648, 162.9783
776.6469, 162.8050
777.1290, 162.1058
777.6111, 160.9172
778.0933, 159.8702
778.5754, 160.7523
779.0575, 163.4783
779.5396, 165.6872
780.0217, 166.9867
780.5038, 167.4661
780.9860, 166.9386
781.4681, 165.7027
781.9502, 165.0556
782.4323, 165.0771
782.9144, 165.5456
783.3965, 166.7261
783.8787, 168.0799
784.3608, 169.6404
784.8429, 171.0573
785.3250, 171.5953
785.8071, 171.0173
786.2892, 170.5083
786.7714, 171.1296
787.2535, 172.4780
787.7356, 174.1160
788.2177, 175.8862
788.6998, 176.7697
789.1819, 176.3113
789.6641, 175.6693
790.1462, 176.4128
790.6283, 178.5304
791.1104, 179.2197
791.5925, 177.1733
792.0746, 175.9055
792.5568, 176.5778
793.0389, 177.7160
793.5210, 178.2099
794.0031, 178.2845
794.4852, 178.9391
794.9673, 180.9733
795.4495, 182.6540
795.9316, 182.2654
796.4137, 181.2603
796.8958, 181.9172
797.3779, 183.9361
797.8600, 185.1440
798.3422, 184.3975
798.8243, 182.7388
799.3064, 181.8290
799.7885, 181.6880
800.2706, 181.5528
800.7527, 181.2946
801.2349, 181.5073
801.7170, 183.0911
802.1991, 184.6687
802.6812, 183.9335
803.1633, 180.8847
803.6454, 178.7086
804.1276, 178.4766
804.6097, 178.2183
805.0918, 177.0103
805.5739, 175.5706
806.0560, 175.0020
806.5381, 175.0426
807.0203, 174.1438
807.5024, 171.1502
807.9845, 167.6125
808.4666, 165.6479
808.9487, 164.9868
809.4308, 164.8099
809.9130, 165.0281
810.3951, 164.8026
810.8772, 163.6073
811.3593, 161.7675
811.8414, 159.8419
812.3235, 157.5596
812.8057, 156.1936
813.2878, 157.1482
813.7699, 157.2498
814.2520, 154.6926
814.7341, 151.5213
815.2162, 149.9516
815.6984, 150.0362
816.1805, 150.0116
816.6626, 148.9536
817.1447, 147.7444
817.6268, 147.2829
818.1089, 146.9935
818.5911, 145.8141
819.0732, 143.7415
819.5553, 141.6513
820.0374, 140.0904
820.5195, 138.9372
821.0016, 137.9382
821.4838, 137.0909
821.9659, 136.6305
822.4480, 136.8551
822.9301, 136.4452
823.4122, 134.1581
823.8943, 131.3460
824.3765, 130.6462
824.8586, 132.6933
825.3407, 133.4869
825.8228, 131.8949
826.3049, 130.2471
826.7870, 129.2354
827.2692, 128.6257
827.7513, 128.1962
828.2334, 127.8927
828.7155, 127.7255
829.1976, 127.8169
829.6797, 127.8253
830.1619, 127.0595
830.6440, 125.9808
831.1261, 126.0126
831.6082, 127.1478
832.0903, 127.6479
832.5724, 126.4465
833.0546, 124.4051
833.5367, 123.3127
834.0188, 123.4157
834.5009, 122.6462
834.9830, 120.4566
835.4651, 118.4825
835.9473, 117.0805
836.4294, 116.3815
836.9115, 116.9368
837.3936, 118.6312
837.8757, 119.2094
838.3578, 117.1805
838.8400, 115.4076
839.3221, 115.2253
839.8042, 115.6104
840.2863, 115.4121
840.7684, 114.7908
841.2505, 114.7515
841.7327, 115.8574
842.2148, 117.1632
842.6969, 117.7175
843.1790, 117.5487
843.6611, 116.2790
844.1432, 114.0442
844.6254, 112.9659
845.1075, 114.0612
845.5896, 115.9151
846.0717, 116.7058
846.5538, 116.4286
847.0359, 115.6802
847.5181, 114.1445
848.0002, 112.7540
848.4823, 111.1534
848.9644, 110.2724
849.4465, 111.2818
849.9286, 113.5104
850.4108, 114.8927
850.8929, 114.6483
851.3750, 114.5643
851.8571, 115.9624
852.3392, 117.1623
852.8214, 116.3393
853.3035, 114.3435
853.7856, 113.0101
854.2677, 112.9186
854.7498, 113.3554
855.2319, 113.9569
855.7141, 114.4433
856.1962, 113.9258
856.6783, 112.5863
857.1604, 111.6933
857.6425, 111.5659
858.1246, 111.9110
858.6068, 112.6100
859.0889, 113.4391
859.5710, 113.4920
860.0531, 112.3534
860.5352, 111.5331
861.0173, 111.1886
861.4995, 111.0347
861.9816, 111.1135
862.4637, 111.2163
862.9458, 110.9227
863.4279, 110.1554
863.9100, 109.9218
864.3922, 110.7394
864.8743, 111.8517
865.3564, 113.4064
865.8385, 114.6925
866.3206, 114.4934
866.8027, 113.0952
867.2849, 112.1424
867.7670, 112.6295
868.2491, 113.7349
868.7312, 114.4368
869.2133, 114.8949
869.6954, 115.8530
870.1776, 117.2537
870.6597, 117.6705
871.1418, 116.4123
871.6239, 114.2518
872.1060, 112.0755
872.5881, 109.8972
873.0703, 108.9335
873.5524, 109.4881
874.0345, 110.5339
874.5166, 112.4568
874.9987, 114.1228
875.4808, 114.4159
875.9630, 113.7311
876.4451, 113.2209
876.9272, 113.1732
877.4093, 112.8227
877.8914, 111.9538
878.3735, 110.8056
878.8557, 108.9100
879.3378, 107.0913
879.8199, 106.8692
880.3020, 108.3942
880.7841, 109.7603
881.2662, 109.6345
881.7484, 108.7027
882.2305, 107.4012
882.7126, 106.0476
883.1947, 105.5112
883.6768, 105.8502
884.1589, 106.4575
884.6411, 107.0046
885.1232, 107.1902
885.6053, 106.0613
886.0874, 103.5496
886.5695, 102.5324
887.0516, 103.4289
887.5338, 104.3625
888.0159, 104.6302
888.4980, 104.6254
888.9801, 104.9336
889.4622, 105.5507
889.9443, 105.2946
890.4265, 103.5218
890.9086, 101.8142
891.3907, 100.3046
891.8728, 98.90681
892.3549, 97.11898
892.8370, 95.52768
893.3192, 95.38200
893.8013, 97.08872
894.2834, 99.05515
894.7655, 101.3669
895.2476, 102.7996
895.7297, 101.7012
896.2119, 99.24910
896.6940, 97.16293
897.1761, 95.93295
897.6582, 95.69808
898.1403, 96.71949
898.6224, 98.27361
899.1046, 99.55554
899.5867, 100.3758
900.0688, 99.57033
900.5509, 97.08443
901.0330, 94.90218
901.5151, 93.95751
901.9973, 93.72336
902.4794, 93.37957
902.9615, 92.92519
903.4436, 93.55772
903.9257, 96.11171
904.4078, 97.51748
904.8900, 96.43773
905.3721, 94.94495
905.8542, 94.60611
906.3363, 95.10851
906.8184, 95.47990
907.3005, 95.57346
907.7827, 95.86011
908.2648, 96.68829
908.7469, 97.39634
909.2290, 97.20520
909.7111, 96.97775
910.1932, 98.31833
910.6754, 101.0302
911.1575, 102.4839
911.6396, 100.4240
912.1217, 98.10922
912.6038, 98.33010
913.0859, 99.84764
913.5681, 101.2920
914.0502, 102.3330
914.5323, 102.5701
915.0143, 101.8438
915.4965, 100.8877
915.9786, 100.6083
916.4607, 100.8113
916.9428, 100.9917
917.4249, 101.1029
917.9070, 100.0930
918.3892, 97.53930
918.8713, 95.84110
919.3534, 97.11248
919.8355, 100.3030
920.3176, 102.2400
920.7997, 102.7790
921.2819, 102.5865
921.7640, 101.2974
922.2461, 100.0200
922.7282, 99.42532
923.2103, 98.86233
923.6924, 97.28117
924.1746, 94.76509
924.6567, 93.03233
925.1388, 93.11604
925.6209, 92.62861
926.1030, 90.22530
926.5851, 88.00371
927.0673, 87.50794
927.5494, 88.18783
928.0315, 89.00220
928.5136, 89.71166
928.9957, 90.24603
929.4778, 90.58520
929.9600, 90.71690
930.4421, 91.07167
930.9242, 90.99654
931.4063, 88.72046
931.8884, 84.77996
932.3705, 82.34412
932.8527, 83.32293
933.3348, 85.45643
933.8169, 85.88701
934.2990, 85.13886
934.7811, 84.52020
935.2632, 84.09841
935.7454, 83.83334
936.2275, 83.71223
936.7096, 83.68887
937.1917, 83.74094
937.6738, 83.82063
938.1559, 83.77156
938.6381, 83.61135
939.1202, 83.00022
939.6023, 81.52031
940.0844, 80.94749
940.5665, 82.57576
941.0486, 85.09534
941.5308, 86.43217
942.0129, 86.47994
942.4950, 86.54836
942.9771, 86.36121
943.4592, 86.61860
943.9413, 88.18238
944.4235, 89.45721
944.9056, 88.89529
945.3877, 87.44234
945.8698, 87.33080
946.3519, 89.22890
946.8340, 90.66564
947.3162, 90.43318
947.7983, 90.25175
948.2804, 91.58736
948.7625, 93.08023
949.2446, 92.81522
949.7267, 91.07646
950.2089, 89.74867
950.6910, 89.54330
951.1731, 90.34237
951.6552, 93.63160
952.1373, 96.72581
952.6194, 95.10827
953.1016, 90.63095
953.5837, 88.30616
954.0658, 89.42500
954.5479, 91.68645
955.0300, 93.60622
955.5121, 94.76182
955.9943, 93.72732
956.4764, 91.22228
956.9585, 90.33880
957.4406, 91.28490
957.9227, 92.32912
958.4048, 92.74153
958.8870, 91.92646
959.3691, 88.59106
959.8512, 83.33241
960.3333, 81.49307
960.8154, 83.72989
961.2975, 84.45417
961.7797, 82.36007
962.2618, 79.66914
962.7439, 77.64694
963.2260, 76.20520
963.7081, 75.24684
964.1902, 74.96201
964.6724, 74.12228
965.1545, 72.39697
965.6366, 70.66463
966.1187, 68.88149
966.6008, 67.39819
967.0829, 66.86114
967.5651, 66.81581
968.0472, 65.76579
968.5293, 63.00241
969.0114, 60.89627
969.4935, 60.88469
969.9756, 60.26635
970.4578, 56.78740
970.9399, 52.81492
971.4220, 51.05307
971.9041, 51.38440
972.3862, 51.85455
972.8683, 51.87408
973.3505, 51.76472
973.8326, 52.22050
974.3147, 52.14079
974.7968, 49.42295
975.2789, 45.87754
975.7610, 45.20100
976.2432, 47.77945
976.7253, 50.17475
977.2074, 50.10287
977.6895, 48.97435
978.1716, 48.46108
978.6537, 47.88526
979.1359, 45.50523
979.6180, 41.87814
980.1001, 39.42261
980.5822, 39.00481
981.0643, 39.49938
981.5464, 39.90813
982.0286, 40.28098
982.5107, 40.84876
982.9928, 41.49920
983.4749, 41.60885
983.9570, 41.12058
984.4391, 40.63501
984.9213, 40.48985
985.4034, 40.25452
985.8855, 39.22986
986.3676, 37.52542
986.8497, 36.00400
987.3318, 34.61666
987.8140, 34.07927
988.2961, 34.65014
988.7782, 35.57529
989.2603, 36.49027
989.7424, 37.22601
990.2245, 37.46372
990.7067, 37.21056
991.1888, 36.29469
991.6709, 34.23537
992.1530, 32.69866
992.6351, 32.32974
993.1172, 32.18962
993.5994, 31.44497
994.0815, 30.40094
994.5636, 30.08760
995.0457, 31.10383
995.5278, 31.15637
996.0099, 29.43559
996.4921, 27.81367
996.9742, 26.48472
997.4563, 25.66997
997.9384, 25.73515
998.4205, 26.47507
998.9026, 27.30707
999.3848, 28.73561
999.8669, 28.76122
1000.349, 25.03788
1000.831, 22.11829
1001.313, 23.41935
1001.795, 25.79912
1002.277, 25.24248
1002.760, 22.23107
1003.242, 20.68473
1003.724, 22.55735
1004.206, 24.21574
1004.688, 23.23289
1005.170, 22.15175
1005.652, 24.08870
1006.134, 26.64091
1006.617, 25.51087
1007.099, 20.73158
1007.581, 16.44393
1008.063, 14.61141
1008.545, 14.08361
1009.027, 14.90805
1009.509, 15.77623
1009.991, 14.60313
1010.473, 12.35573
1010.956, 11.62320
1011.438, 12.74824
1011.920, 13.39656
1012.402, 11.68257
1012.884, 9.500192
1013.366, 9.924345
1013.848, 11.19661
1014.330, 9.276984
1014.813, 5.009490
1015.295, 2.381587
1015.777, 2.533774
1016.259, 3.358699
1016.741, 3.127774
1017.223, 2.264206
1017.705, 1.566509
1018.187, 0.9028928
1018.669, -0.3282794
1019.152, -2.069578
1019.634, -3.382371
1020.116, -3.936480
1020.598, -4.799224
1021.080, -7.311909
1021.562, -10.48326
1022.044, -10.81206
1022.526, -8.732509
1023.008, -9.541369
1023.491, -13.76627
1023.973, -15.75539
1024.455, -12.90311
1024.937, -9.249241
1025.419, -9.656786
1025.901, -12.99166
1026.383, -13.92697
1026.865, -12.30667
1027.348, -10.47315
1027.830, -8.483505
1028.312, -7.410847
1028.794, -7.929225
1029.276, -8.901736
1029.758, -8.737447
1030.240, -7.751551
1030.722, -8.738452
1031.204, -12.43798
1031.687, -14.66838
1032.169, -14.65464
1032.651, -14.22908
1033.133, -14.05819
1033.615, -14.20997
1034.097, -14.82074
1034.579, -15.86149
1035.061, -16.91040
1035.544, -18.13761
1036.026, -18.90772
1036.508, -19.04366
1036.990, -18.95338
1037.472, -18.84158
1037.954, -18.57734
1038.436, -17.90889
1038.918, -16.85919
1039.401, -16.02470
1039.883, -14.50905
1040.365, -14.96032
1040.847, -19.53101
1041.329, -23.43531
1041.811, -24.45446
1042.293, -23.77296
1042.775, -22.48924
1043.257, -20.64327
1043.740, -19.71078
1044.222, -19.50947
1044.704, -20.50171
1045.186, -24.10761
1045.668, -27.29200
1046.150, -29.20170
1046.632, -29.67977
1047.114, -27.56781
1047.596, -23.22381
1048.079, -21.40356
1048.561, -24.49079
1049.043, -27.10840
1049.525, -28.52356
1050.007, -29.47057
1050.489, -30.43916
1050.971, -31.05270
1051.453, -30.48265
1051.936, -28.92709
1052.418, -28.22687
1052.900, -29.15103
1053.382, -30.12637
1053.864, -30.85084
1054.346, -31.56487
1054.828, -32.32542
1055.310, -33.19244
1055.792, -34.13584
1056.275, -35.21734
1056.757, -36.81520
1057.239, -39.78718
1057.721, -41.66207
1058.203, -41.19545
1058.685, -40.11307
1059.167, -38.48125
1059.649, -37.35981
1060.131, -37.82262
1060.614, -39.88323
1061.096, -43.23246
1061.578, -48.58360
1062.060, -53.05220
1062.542, -55.93201
1063.024, -57.32125
1063.506, -56.03600
1063.988, -54.16136
1064.471, -53.94690
1064.953, -55.35540
1065.435, -57.23532
1065.917, -59.34089
1066.399, -61.70821
1066.881, -64.39849
1067.363, -67.30372
1067.845, -70.45649
1068.328, -73.72124
1068.810, -77.85311
1069.292, -81.88791
1069.774, -82.51635
1070.256, -77.91357
1070.738, -75.22881
1071.220, -80.16460
1071.702, -84.81734
1072.184, -83.00706
1072.667, -79.82314
1073.149, -81.22676
1073.631, -85.93016
1074.113, -89.36360
1074.595, -90.33553
1075.077, -89.90755
1075.559, -87.56960
1076.041, -85.13132
1076.523, -83.08674
1077.006, -81.86326
1077.488, -82.26891
1077.970, -83.68538
1078.452, -84.84995
1078.934, -85.46149
1079.416, -85.69776
1079.898, -85.64014
1080.380, -85.22476
1080.862, -83.75362
1081.345, -82.50758
1081.827, -83.14649
1082.309, -84.68468
1082.791, -85.13318
1083.273, -84.16259
1083.755, -83.06483
1084.237, -82.24696
1084.719, -81.60916
1085.202, -81.02694
1085.684, -80.68555
1086.166, -80.96592
1086.648, -81.46980
1087.130, -81.40235
1087.612, -80.79784
1088.094, -80.81887
1088.576, -82.43474
1089.058, -83.66639
1089.541, -83.54569
1090.023, -82.86407
1090.505, -82.07494
1090.987, -81.13197
1091.469, -78.99802
1091.951, -76.42526
1092.433, -77.26488
1092.915, -84.80180
1093.397, -89.60738
1093.880, -85.33012
1094.362, -80.31231
1094.844, -79.00575
1095.326, -79.88988
1095.808, -81.50816
1096.290, -83.52077
1096.772, -85.84099
1097.254, -88.67091
1097.737, -90.60815
1098.219, -90.19993
1098.701, -90.02299
1099.183, -91.51661
1099.665, -93.51844
1100.147, -95.20286
1100.629, -96.47392
1101.111, -97.39635
1101.594, -97.99991
1102.076, -98.04548
1102.558, -96.38403
1103.040, -95.65517
1103.522, -97.15049
1104.004, -99.43410
1104.486, -102.4387
1104.968, -105.0849
1105.450, -105.1107
1105.932, -102.4604
1106.415, -101.5706
1106.897, -105.8382
1107.379, -108.0965
1107.861, -104.6767
1108.343, -101.5555
1108.825, -102.0633
1109.307, -104.4057
1109.789, -106.8844
1110.272, -109.1804
1110.754, -110.1190
1111.236, -108.4768
1111.718, -107.6630
1112.200, -108.1594
1112.682, -109.2954
1113.164, -111.6257
1113.646, -113.8396
1114.129, -114.6997
1114.611, -114.4895
1115.093, -113.9165
1115.575, -112.0257
1116.057, -112.8838
1116.539, -119.7063
1117.021, -124.3991
1117.503, -124.4979
1117.985, -123.0472
1118.468, -120.7212
1118.950, -118.9172
1119.432, -120.8919
1119.914, -127.1791
1120.396, -130.6337
1120.878, -129.7236
1121.360, -129.2012
1121.842, -129.1894
1122.324, -130.5103
1122.807, -134.3782
1123.289, -138.7645
1123.771, -141.4010
1124.253, -142.2170
1124.735, -140.1774
1125.217, -133.3727
1125.699, -130.7389
1126.181, -134.0589
1126.664, -137.1953
1127.146, -137.8083
1127.628, -138.2970
1128.110, -141.2117
1128.592, -145.1819
1129.074, -145.7689
1129.556, -142.4669
1130.038, -141.2061
1130.521, -142.1712
1131.003, -144.1072
1131.485, -146.9005
1131.967, -149.5757
1132.449, -151.5629
1132.931, -152.8522
1133.413, -153.3957
1133.895, -153.2421
1134.377, -152.3986
1134.859, -150.9248
1135.342, -151.3493
1135.824, -153.9538
1136.306, -154.6573
1136.788, -151.5773
1137.270, -149.6439
1137.752, -154.8257
1138.234, -163.3167
1138.716, -165.6462
1139.199, -162.9822
1139.681, -159.6909
1140.163, -156.3138
1140.645, -153.7747
1141.127, -152.3410
1141.609, -151.9683
1142.091, -152.7629
1142.573, -153.6580
1143.056, -151.8995
1143.538, -149.8741
1144.020, -153.8528
1144.502, -161.2689
1144.984, -165.4487
1145.466, -165.8241
1145.948, -165.1700
1146.430, -164.6896
1146.912, -163.7191
1147.395, -161.1105
1147.877, -158.3593
1148.359, -157.1125
1148.841, -156.8152
1149.323, -156.4842
1149.805, -156.4729
1150.287, -158.3102
1150.769, -161.8933
1151.251, -164.2323
1151.734, -163.2050
1152.216, -161.9662
1152.698, -163.4284
1153.180, -164.6731
1153.662, -161.2685
1154.144, -157.5298
1154.626, -160.8737
1155.108, -169.1771
1155.591, -173.2914
1156.073, -170.2354
1156.555, -166.5683
1157.037, -163.3788
1157.519, -161.6471
1158.001, -162.5324
1158.483, -164.2718
1158.965, -166.4529
1159.448, -168.1138
1159.930, -167.0201
1160.412, -163.0974
1160.894, -161.6967
1161.376, -166.6526
1161.858, -169.0166
1162.340, -165.8109
1162.822, -162.7393
1163.304, -161.5598
1163.786, -161.7361
1164.269, -163.1903
1164.751, -165.5088
1165.233, -167.4011
1165.715, -169.1313
1166.197, -169.0732
1166.679, -166.3571
1167.161, -164.0862
1167.643, -162.2149
1168.126, -163.0922
1168.608, -169.3244
1169.090, -176.1904
1169.572, -176.0066
1170.054, -170.1414
1170.536, -169.3651
1171.018, -173.9339
1171.500, -177.7428
1171.983, -180.2841
1172.465, -182.3685
1172.947, -184.3062
1173.429, -185.0018
1173.911, -183.3147
1174.393, -180.8386
1174.875, -180.2863
1175.357, -181.5690
1175.839, -184.9531
1176.322, -189.8471
1176.804, -194.5759
1177.286, -198.3887
1177.768, -198.4556
1178.250, -193.6489
1178.732, -189.1722
1179.214, -190.1090
1179.696, -193.9211
1180.178, -199.1990
1180.661, -203.7507
1181.143, -202.8616
1181.625, -198.7870
1182.107, -197.1859
1182.589, -198.7714
1183.071, -200.0273
1183.553, -199.2926
1184.035, -197.9565
1184.518, -196.1494
1185.000, -194.9035
1185.482, -195.7640
1185.964, -196.8934
1186.446, -195.8137
1186.928, -193.5407
1187.410, -192.7112
1187.892, -193.7945
1188.375, -195.3603
1188.857, -198.0341
1189.339, -199.7153
1189.821, -198.8683
1190.303, -198.2533
1190.785, -200.2878
1191.267, -202.3313
1191.749, -199.9085
1192.231, -195.1909
1192.714, -197.2429
1193.196, -209.1700
1193.678, -215.7189
1194.160, -215.3051
1194.642, -213.6068
1195.124, -211.0866
1195.606, -209.2146
1196.088, -208.6958
1196.570, -209.8142
1197.053, -213.5547
1197.535, -218.8172
1198.017, -219.3818
1198.499, -215.4041
1198.981, -214.2602
1199.463, -216.2564
1199.945, -216.5115
1200.427, -213.7012
1200.910, -210.9898
1201.392, -210.5775
1201.874, -211.1271
1202.356, -210.2103
1202.838, -209.1656
1203.320, -211.5719
1203.802, -215.8686
1204.284, -218.7740
1204.766, -220.0347
1205.249, -220.1003
1205.731, -219.2970
1206.213, -218.8650
1206.695, -220.0004
1207.177, -220.7148
1207.659, -218.1913
1208.141, -215.9191
1208.623, -217.6983
1209.105, -221.0493
1209.588, -222.7146
1210.070, -222.9446
1210.552, -223.9122
1211.034, -226.2632
1211.516, -227.3218
1211.998, -226.9686
1212.480, -224.5144
1212.962, -217.3905
1213.445, -210.9305
1213.927, -208.2025
1214.409, -207.3321
1214.891, -206.3446
1215.373, -205.4958
1215.855, -206.3225
1216.337, -210.1842
1216.819, -209.1174
1217.302, -201.1454
1217.784, -196.1124
1218.266, -196.4122
1218.748, -198.2149
1219.230, -199.6499
1219.712, -200.3692
1220.194, -199.8521
1220.676, -198.3918
1221.158, -196.1973
1221.641, -193.8477
1222.123, -195.5557
1222.605, -200.3872
1223.087, -201.6780
1223.569, -198.5557
1224.051, -197.2817
1224.533, -201.4818
1225.015, -205.9796
1225.497, -204.8090
1225.980, -201.8566
1226.462, -200.8264
1226.944, -201.4456
1227.426, -204.7503
1227.908, -208.7772
1228.390, -209.1712
1228.872, -205.9197
1229.354, -204.1011
1229.837, -206.1931
1230.319, -207.6612
1230.801, -205.2707
1231.283, -204.1561
1231.765, -208.7144
1232.247, -213.2121
1232.729, -212.3194
1233.211, -208.6676
1233.693, -207.2084
1234.176, -207.8611
1234.658, -208.1888
1235.140, -207.9934
1235.622, -208.1706
1236.104, -209.0364
1236.586, -209.2241
1237.068, -208.2481
1237.550, -206.9131
1238.032, -205.8067
1238.515, -204.6186
1238.997, -202.3194
1239.479, -199.8022
1239.961, -201.5194
1240.443, -206.3377
1240.925, -209.7797
1241.407, -211.1340
1241.889, -208.1934
1242.372, -201.4607
1242.854, -199.0240
1243.336, -206.6690
1243.818, -215.1415
1244.300, -214.7358
1244.782, -212.1174
1245.264, -214.3365
1245.746, -217.7234
1246.229, -217.5016
1246.711, -214.8346
1247.193, -212.6775
1247.675, -211.5514
1248.157, -210.8528
1248.639, -210.9184
1249.121, -210.4187
1249.603, -207.9821
1250.085, -206.5462
1250.568, -207.7990
1251.050, -209.3842
1251.532, -210.0097
1252.014, -209.7281
1252.496, -208.4500
1252.978, -206.3174
1253.460, -204.8134
1253.942, -203.8822
1254.424, -204.7226
1254.907, -207.5252
1255.389, -207.2198
1255.871, -202.5103
1256.353, -201.0088
1256.835, -207.8726
1257.317, -216.4331
1257.799, -218.4295
1258.281, -216.1774
1258.764, -211.2118
1259.246, -206.6272
1259.728, -209.9904
1260.210, -217.8305
1260.692, -220.8033
1261.174, -218.1450
1261.656, -216.3594
1262.138, -218.1178
1262.620, -220.2785
1263.103, -222.4667
1263.585, -223.2829
1264.067, -220.0192
1264.549, -217.3893
1265.031, -220.0410
1265.513, -224.4320
1265.995, -225.1847
1266.477, -223.0629
1266.959, -222.3752
1267.442, -223.8635
1267.924, -222.9498
1268.406, -217.8987
1268.888, -219.9128
1269.370, -232.4699
1269.852, -240.7993
1270.334, -237.1510
1270.816, -229.5991
1271.299, -225.7355
1271.781, -226.6163
1272.263, -238.5781
1272.745, -255.0365
1273.227, -258.1837
1273.709, -252.7477
1274.191, -251.4615
1274.673, -255.1506
1275.156, -259.0578
1275.638, -261.4033
1276.120, -260.9349
1276.602, -254.4214
1277.084, -249.4036
1277.566, -250.9241
1278.048, -253.5179
1278.530, -253.9328
1279.012, -253.8199
1279.495, -255.8051
1279.977, -258.2768
1280.459, -256.1076
1280.941, -249.0526
1281.423, -250.9201
1281.905, -266.9371
1282.387, -271.2126
##END=



