##NAMES=Labuntsovite-Mn
##RRUFFID=R110169
##IDEAL CHEMISTRY=Na_4_K_4_Mn^2+^_2_Ti^4+^_8_O_4_(Si_4_O_12_)_4_(OH)_4_&#183;10-12H_2_O
##LOCALITY=Mont St-Hilaire, Quebec, Canada
##OWNER=RRUFF
##SOURCE=Donald V Doell
##DESCRIPTION=Brownish-red bladed crystals associated with albite
##STATUS=The identification of this mineral has been confirmed only by single crystal X-ray diffraction.
##URL=rruff.info/R110169
177.2732, 327.9000
177.7553, 332.0245
178.2374, 334.9411
178.7195, 337.3647
179.2017, 339.8651
179.6838, 342.0748
180.1659, 343.0670
180.6480, 342.7802
181.1301, 342.5151
181.6122, 343.9385
182.0944, 346.5542
182.5765, 348.6740
183.0586, 349.0371
183.5407, 348.4969
184.0228, 348.9854
184.5049, 350.6297
184.9871, 352.6874
185.4692, 354.2925
185.9513, 355.5250
186.4334, 356.7364
186.9155, 358.0855
187.3976, 359.5418
187.8798, 361.0284
188.3619, 362.5224
188.8440, 364.0752
189.3261, 365.6830
189.8082, 367.3644
190.2903, 369.2290
190.7725, 371.6470
191.2546, 374.4477
191.7367, 376.3024
192.2188, 376.9921
192.7009, 377.1917
193.1830, 377.9362
193.6652, 379.2184
194.1473, 380.7228
194.6294, 382.3622
195.1115, 384.1157
195.5936, 385.6668
196.0757, 386.8961
196.5579, 388.0868
197.0400, 389.9334
197.5221, 392.5112
198.0042, 394.9326
198.4863, 396.7848
198.9684, 398.0616
199.4506, 398.7647
199.9327, 398.6545
200.4148, 398.2719
200.8969, 398.9171
201.3790, 400.7660
201.8611, 402.7342
202.3433, 404.0926
202.8254, 404.7592
203.3075, 405.8904
203.7896, 407.7171
204.2717, 409.9100
204.7538, 411.4748
205.2360, 412.1797
205.7181, 413.0845
206.2002, 415.0540
206.6823, 418.3578
207.1644, 420.8790
207.6465, 422.2819
208.1287, 422.8793
208.6108, 423.5233
209.0929, 424.0763
209.5750, 425.0393
210.0571, 426.9183
210.5392, 430.0443
211.0214, 432.5749
211.5035, 434.3348
211.9856, 435.4085
212.4677, 436.0538
212.9498, 436.1430
213.4319, 436.1226
213.9140, 436.2803
214.3962, 436.6918
214.8783, 437.0367
215.3604, 437.2511
215.8425, 437.3887
216.3246, 437.7124
216.8067, 438.4188
217.2889, 438.9340
217.7710, 438.8212
218.2531, 437.7801
218.7352, 437.0174
219.2173, 436.8312
219.6994, 436.9839
220.1816, 436.2772
220.6637, 434.1438
221.1458, 432.0875
221.6279, 431.2260
222.1100, 432.2690
222.5921, 432.5887
223.0743, 431.8659
223.5564, 430.2647
224.0385, 428.3973
224.5206, 426.0345
225.0027, 423.8476
225.4848, 422.2748
225.9670, 421.5060
226.4491, 420.9758
226.9312, 420.8126
227.4133, 420.8803
227.8954, 420.4604
228.3775, 419.3800
228.8597, 418.0865
229.3418, 416.8717
229.8239, 415.8596
230.3060, 414.5954
230.7881, 412.7878
231.2702, 410.6592
231.7524, 409.4058
232.2345, 409.3676
232.7166, 409.7130
233.1987, 410.0354
233.6808, 410.5346
234.1629, 410.5237
234.6451, 409.7684
235.1272, 408.4486
235.6093, 407.3391
236.0914, 406.4595
236.5735, 405.7633
237.0556, 405.2282
237.5378, 404.8579
238.0199, 404.6851
238.5020, 404.9111
238.9841, 405.3545
239.4662, 405.2097
239.9483, 404.1358
240.4305, 402.9659
240.9126, 402.1626
241.3947, 401.9932
241.8768, 401.6262
242.3589, 401.0214
242.8410, 400.2040
243.3232, 399.1938
243.8053, 397.7723
244.2874, 396.4588
244.7695, 395.5122
245.2516, 394.9506
245.7337, 394.7013
246.2159, 394.9470
246.6980, 395.4666
247.1801, 395.5368
247.6622, 394.9250
248.1443, 394.2012
248.6264, 393.5937
249.1086, 392.9820
249.5907, 392.7744
250.0728, 393.1079
250.5549, 393.8155
251.0370, 394.4171
251.5191, 394.7103
252.0013, 395.2362
252.4834, 396.4424
252.9655, 399.1110
253.4476, 400.2733
253.9297, 399.0568
254.4118, 396.7304
254.8940, 396.2475
255.3761, 398.5552
255.8582, 401.0303
256.3403, 402.4440
256.8224, 402.2001
257.3046, 402.9207
257.7867, 405.0963
258.2688, 407.9017
258.7509, 409.6264
259.2330, 409.6908
259.7151, 409.8060
260.1973, 410.6447
260.6794, 412.3365
261.1615, 414.0941
261.6436, 415.8940
262.1257, 417.7631
262.6078, 419.8434
263.0900, 422.3911
263.5721, 424.5115
264.0542, 425.7274
264.5363, 425.8552
265.0184, 426.5061
265.5005, 427.8828
265.9827, 429.5721
266.4648, 430.9286
266.9469, 431.7203
267.4290, 432.8500
267.9111, 434.7688
268.3932, 437.5459
268.8754, 439.7267
269.3575, 441.1267
269.8396, 442.1945
270.3217, 443.4313
270.8038, 444.8240
271.2859, 446.4129
271.7681, 448.4239
272.2502, 450.8004
272.7323, 452.0120
273.2144, 451.6956
273.6965, 450.9005
274.1786, 450.8210
274.6608, 451.6352
275.1429, 452.1755
275.6250, 452.0074
276.1071, 451.2813
276.5892, 451.2159
277.0714, 451.9801
277.5535, 452.9296
278.0356, 453.5218
278.5177, 453.7491
278.9998, 453.5844
279.4819, 452.7032
279.9641, 451.4806
280.4462, 451.9074
280.9283, 454.3512
281.4104, 456.8633
281.8925, 457.7046
282.3746, 456.8525
282.8568, 456.1408
283.3389, 455.7569
283.8210, 455.8060
284.3031, 456.8982
284.7852, 459.2021
285.2673, 461.2539
285.7495, 461.6279
286.2316, 460.5117
286.7137, 460.3854
287.1958, 461.8095
287.6779, 464.0157
288.1600, 465.2706
288.6422, 465.5534
289.1243, 466.1050
289.6064, 467.7526
290.0885, 470.3465
290.5706, 473.2514
291.0527, 476.5823
291.5349, 479.7456
292.0170, 481.5428
292.4991, 482.0667
292.9812, 482.6232
293.4633, 484.0792
293.9454, 486.1305
294.4276, 487.7260
294.9097, 488.7120
295.3918, 489.6154
295.8739, 491.2724
296.3560, 493.4954
296.8381, 495.4667
297.3203, 496.4365
297.8024, 496.9361
298.2845, 498.1364
298.7666, 500.1122
299.2487, 502.3290
299.7308, 504.4464
300.2130, 506.4242
300.6951, 508.1076
301.1772, 509.1276
301.6593, 509.9649
302.1414, 511.4360
302.6235, 513.5122
303.1057, 515.6063
303.5878, 517.1660
304.0699, 518.3921
304.5520, 519.6677
305.0341, 521.5872
305.5162, 523.1795
305.9984, 523.2469
306.4805, 521.9401
306.9626, 520.2839
307.4447, 518.9207
307.9268, 517.6481
308.4089, 516.2501
308.8911, 514.7601
309.3732, 512.9924
309.8553, 510.7779
310.3374, 508.1677
310.8195, 505.2732
311.3016, 501.9230
311.7838, 498.4774
312.2659, 495.3028
312.7480, 492.7067
313.2301, 489.8427
313.7122, 486.3343
314.1943, 482.1574
314.6765, 477.3350
315.1586, 471.2361
315.6407, 464.9645
316.1228, 459.1210
316.6049, 453.8466
317.0870, 448.8744
317.5692, 444.2526
318.0513, 439.8648
318.5334, 435.5768
319.0155, 431.4671
319.4976, 427.3423
319.9797, 423.1326
320.4619, 418.8220
320.9440, 414.5360
321.4261, 410.2953
321.9082, 406.1358
322.3903, 402.1090
322.8724, 398.0035
323.3546, 394.2461
323.8367, 391.1325
324.3188, 388.6316
324.8009, 385.8907
325.2830, 382.4017
325.7651, 378.8936
326.2473, 375.8494
326.7294, 373.6649
327.2115, 371.5556
327.6936, 369.5069
328.1757, 367.5190
328.6578, 365.4742
329.1400, 362.9850
329.6221, 360.7728
330.1042, 359.1389
330.5863, 358.3951
331.0684, 357.7076
331.5505, 356.9163
332.0327, 356.2066
332.5148, 356.0206
332.9969, 356.6033
333.4790, 357.3636
333.9611, 358.1358
334.4432, 358.9355
334.9254, 359.6567
335.4075, 360.3934
335.8896, 360.9458
336.3717, 360.8366
336.8538, 359.4311
337.3359, 358.9462
337.8180, 360.4164
338.3001, 363.7861
338.7823, 365.6329
339.2644, 365.5815
339.7465, 364.7369
340.2286, 364.1313
340.7107, 363.8412
341.1928, 363.3749
341.6750, 362.5267
342.1571, 361.4829
342.6392, 361.2148
343.1213, 361.9145
343.6034, 362.3785
344.0855, 361.5552
344.5677, 359.5094
345.0498, 357.6379
345.5319, 356.1583
346.0140, 354.8617
346.4961, 353.3661
346.9782, 351.6827
347.4604, 349.9093
347.9425, 347.8516
348.4246, 345.7122
348.9067, 344.4970
349.3888, 344.4123
349.8709, 344.4850
350.3531, 343.4402
350.8352, 341.5182
351.3173, 339.6211
351.7994, 338.0120
352.2815, 336.6930
352.7636, 335.7799
353.2458, 335.2681
353.7279, 334.7228
354.2100, 333.9406
354.6921, 332.8459
355.1742, 331.2860
355.6563, 328.9125
356.1385, 326.3492
356.6206, 324.5307
357.1027, 323.1895
357.5848, 321.0667
358.0669, 316.5725
358.5490, 311.3398
359.0312, 307.0233
359.5133, 304.2920
359.9954, 301.6282
360.4775, 298.1612
360.9596, 294.1072
361.4417, 289.9853
361.9239, 285.4668
362.4060, 281.3131
362.8881, 278.0824
363.3702, 276.0041
363.8523, 273.9188
364.3344, 271.5779
364.8166, 268.9879
365.2987, 266.1320
365.7808, 262.9050
366.2629, 259.5903
366.7450, 256.0969
367.2271, 252.4337
367.7093, 249.2588
368.1914, 247.0709
368.6735, 245.1247
369.1556, 242.9112
369.6377, 239.4122
370.1198, 236.9723
370.6020, 236.2806
371.0841, 236.7940
371.5662, 236.5312
372.0483, 235.0224
372.5304, 233.3074
373.0125, 231.7305
373.4947, 230.1551
373.9768, 229.1837
374.4589, 229.0479
374.9410, 229.3192
375.4231, 229.2778
375.9052, 228.7541
376.3874, 228.4128
376.8695, 228.5344
377.3516, 229.1086
377.8337, 229.3352
378.3158, 229.0367
378.7979, 228.9014
379.2801, 229.9180
379.7622, 232.1845
380.2443, 233.6081
380.7264, 233.5339
381.2085, 232.5845
381.6906, 232.5684
382.1728, 233.5046
382.6549, 234.2854
383.1370, 233.8679
383.6191, 232.5978
384.1012, 231.8779
384.5833, 231.8856
385.0655, 232.3004
385.5476, 232.6863
386.0297, 233.1073
386.5118, 233.7866
386.9939, 235.0391
387.4760, 236.5382
387.9582, 237.8849
388.4403, 239.0835
388.9224, 240.0329
389.4045, 240.3565
389.8866, 240.4518
390.3687, 240.8948
390.8509, 242.0660
391.3330, 243.4356
391.8151, 244.7028
392.2972, 245.8769
392.7793, 247.0122
393.2614, 248.0715
393.7436, 249.1366
394.2257, 250.2861
394.7078, 251.5293
395.1899, 252.8426
395.6720, 254.2198
396.1541, 255.6574
396.6363, 257.1519
397.1184, 258.8618
397.6005, 260.4766
398.0826, 261.8359
398.5647, 262.8903
399.0468, 264.0517
399.5290, 265.7110
400.0111, 267.2935
400.4932, 268.3316
400.9753, 268.2362
401.4574, 268.3942
401.9395, 269.0360
402.4217, 270.0484
402.9038, 270.9059
403.3859, 271.6748
403.8680, 272.1940
404.3501, 272.3150
404.8322, 271.8526
405.3144, 271.6262
405.7965, 271.6334
406.2786, 271.8804
406.7607, 272.5743
407.2428, 273.8989
407.7249, 274.6382
408.2071, 274.1855
408.6892, 272.7574
409.1713, 271.6864
409.6534, 270.9759
410.1355, 270.5835
410.6176, 270.5006
411.0998, 270.7083
411.5819, 271.1004
412.0640, 271.6300
412.5461, 272.3790
413.0282, 273.7342
413.5103, 275.5600
413.9925, 277.0924
414.4746, 277.5176
414.9567, 277.5003
415.4388, 278.0985
415.9209, 279.4395
416.4030, 281.0294
416.8852, 282.4238
417.3673, 283.8100
417.8494, 285.4931
418.3315, 288.0171
418.8136, 290.5425
419.2957, 292.4402
419.7779, 293.8004
420.2600, 295.3341
420.7421, 297.0381
421.2242, 299.2400
421.7063, 302.2252
422.1884, 306.6747
422.6706, 310.8032
423.1527, 313.7225
423.6348, 316.1090
424.1169, 319.2419
424.5990, 324.1884
425.0811, 329.1010
425.5633, 333.3789
426.0454, 336.9136
426.5275, 340.5360
427.0096, 344.3318
427.4917, 348.1753
427.9738, 351.9069
428.4560, 355.1220
428.9381, 359.1118
429.4202, 364.4591
429.9023, 370.5256
430.3844, 375.1659
430.8665, 377.7617
431.3487, 380.6129
431.8308, 385.2549
432.3129, 391.8157
432.7950, 396.9340
433.2771, 400.1864
433.7592, 403.0075
434.2414, 407.4691
434.7235, 413.4379
435.2056, 419.3101
435.6877, 424.7113
436.1698, 429.5962
436.6519, 433.6166
437.1341, 436.8378
437.6162, 440.3360
438.0983, 445.4639
438.5804, 451.3194
439.0625, 456.3013
439.5446, 460.0326
440.0268, 463.2591
440.5089, 466.2736
440.9910, 469.2975
441.4731, 472.7279
441.9552, 477.3604
442.4373, 481.9996
442.9195, 486.0157
443.4016, 489.3761
443.8837, 492.1622
444.3658, 494.4017
444.8479, 496.0780
445.3300, 497.1377
445.8122, 497.0582
446.2943, 497.0404
446.7764, 497.5773
447.2585, 498.3294
447.7406, 498.4308
448.2227, 497.6660
448.7049, 496.3994
449.1870, 494.8131
449.6691, 493.0458
450.1512, 490.2163
450.6333, 486.1267
451.1154, 481.2497
451.5976, 475.9231
452.0797, 470.0486
452.5618, 464.2916
453.0439, 458.8586
453.5260, 453.5908
454.0081, 447.5709
454.4903, 440.6805
454.9724, 433.6722
455.4545, 426.8051
455.9366, 420.1323
456.4187, 413.5060
456.9008, 406.9212
457.3830, 400.6447
457.8651, 395.2661
458.3472, 390.5667
458.8293, 386.1163
459.3114, 381.6739
459.7935, 377.4427
460.2757, 373.5231
460.7578, 369.9535
461.2399, 366.8451
461.7220, 364.6393
462.2041, 362.7173
462.6862, 360.3317
463.1684, 357.1345
463.6505, 354.6102
464.1326, 353.8629
464.6147, 354.1691
465.0968, 354.5889
465.5789, 354.7885
466.0611, 355.1265
466.5432, 355.4938
467.0253, 355.9672
467.5074, 357.2821
467.9895, 360.2310
468.4716, 363.4818
468.9538, 366.3020
469.4359, 367.9137
469.9180, 370.7384
470.4001, 375.1111
470.8822, 380.4908
471.3643, 386.1353
471.8465, 392.0534
472.3286, 398.1870
472.8107, 404.5039
473.2928, 410.9604
473.7749, 417.9130
474.2570, 425.3721
474.7392, 433.0811
475.2213, 440.7494
475.7034, 448.4495
476.1855, 456.7917
476.6676, 465.9634
477.1497, 475.4077
477.6319, 484.1164
478.1140, 492.3671
478.5961, 500.9400
479.0782, 510.3083
479.5603, 520.0983
480.0424, 529.7717
480.5246, 539.4346
481.0067, 549.5681
481.4888, 560.3355
481.9709, 571.7740
482.4530, 583.9723
482.9352, 597.2032
483.4173, 610.5339
483.8994, 623.5110
484.3815, 636.4202
484.8636, 649.5628
485.3457, 664.0148
485.8279, 677.6234
486.3100, 689.5878
486.7921, 699.9244
487.2742, 710.2607
487.7563, 722.2491
488.2384, 732.7012
488.7206, 739.9283
489.2027, 744.0153
489.6848, 744.7047
490.1669, 741.9354
490.6490, 735.8398
491.1311, 726.3047
491.6133, 713.2659
492.0954, 697.8276
492.5775, 680.1255
493.0596, 660.2977
493.5417, 638.0282
494.0238, 613.3693
494.5060, 588.4400
494.9881, 564.2102
495.4702, 541.0882
495.9523, 519.3401
496.4344, 499.0670
496.9165, 480.5178
497.3987, 464.4569
497.8808, 450.1890
498.3629, 436.7261
498.8450, 423.4987
499.3271, 411.0406
499.8092, 399.9409
500.2914, 389.9866
500.7735, 380.8965
501.2556, 372.0909
501.7377, 364.2289
502.2198, 357.8237
502.7019, 353.3409
503.1841, 349.0723
503.6662, 344.5883
504.1483, 340.2990
504.6304, 336.7318
505.1125, 334.1574
505.5946, 331.9356
506.0768, 329.9742
506.5589, 328.2800
507.0410, 326.8638
507.5231, 325.7536
508.0052, 324.8350
508.4873, 323.9116
508.9695, 322.9883
509.4516, 322.8194
509.9337, 323.4636
510.4158, 324.6210
510.8979, 325.9474
511.3800, 327.4914
511.8622, 329.4616
512.3443, 332.0654
512.8264, 334.9016
513.3085, 337.0923
513.7906, 338.9843
514.2728, 341.8203
514.7549, 347.2030
515.2370, 353.2484
515.7191, 358.1005
516.2012, 361.5598
516.6833, 365.5819
517.1655, 371.2536
517.6476, 377.8370
518.1297, 384.7080
518.6118, 391.9263
519.0939, 399.1952
519.5760, 406.2483
520.0582, 413.3102
520.5403, 421.1096
521.0224, 429.8718
521.5045, 438.9171
521.9866, 447.9951
522.4688, 457.1448
522.9509, 466.9491
523.4330, 477.6880
523.9151, 488.5490
524.3972, 498.9870
524.8793, 508.9484
525.3615, 518.5178
525.8436, 527.6125
526.3257, 536.7487
526.8078, 547.2441
527.2899, 558.6279
527.7720, 568.4567
528.2542, 575.1884
528.7363, 580.1697
529.2184, 585.3256
529.7005, 590.4440
530.1826, 594.6297
530.6647, 597.6869
531.1469, 599.3416
531.6290, 599.3356
532.1111, 597.5447
532.5932, 594.5168
533.0753, 590.6180
533.5574, 585.5383
534.0396, 579.0239
534.5217, 570.3568
535.0038, 560.9926
535.4859, 550.7362
535.9680, 539.8740
536.4501, 529.1849
536.9323, 519.0479
537.4144, 508.4557
537.8965, 496.9388
538.3786, 484.5070
538.8607, 472.5646
539.3428, 461.2250
539.8250, 450.3045
540.3071, 439.6712
540.7892, 429.4758
541.2713, 419.9313
541.7534, 411.2411
542.2355, 402.9437
542.7177, 394.2233
543.1998, 385.2810
543.6819, 376.9922
544.1640, 370.3471
544.6461, 364.2359
545.1282, 357.4331
545.6104, 350.1181
546.0925, 343.2318
546.5746, 337.1906
547.0567, 331.8199
547.5388, 327.0577
548.0209, 323.1146
548.5031, 319.1009
548.9852, 314.5499
549.4673, 309.9422
549.9494, 305.7750
550.4315, 302.1621
550.9136, 298.8286
551.3958, 295.8324
551.8779, 293.0607
552.3600, 290.1999
552.8421, 287.1472
553.3242, 284.3152
553.8063, 282.0245
554.2885, 280.1625
554.7706, 277.7304
555.2527, 274.6783
555.7348, 271.5963
556.2169, 268.8776
556.6990, 266.5444
557.1812, 264.7256
557.6633, 263.6062
558.1454, 262.3710
558.6275, 259.9406
559.1096, 256.8956
559.5917, 254.2029
560.0739, 252.4952
560.5560, 251.0447
561.0381, 249.6771
561.5202, 248.3255
562.0023, 246.6642
562.4844, 244.1335
562.9666, 241.6754
563.4487, 239.8014
563.9308, 238.6824
564.4129, 237.2935
564.8950, 235.3496
565.3771, 233.4431
565.8593, 232.1698
566.3414, 231.7979
566.8235, 230.8503
567.3056, 229.0679
567.7877, 226.8070
568.2698, 224.5216
568.7520, 222.2211
569.2341, 220.4101
569.7162, 219.5328
570.1983, 219.0780
570.6804, 218.0542
571.1625, 216.5347
571.6447, 214.9905
572.1268, 213.6884
572.6089, 212.5351
573.0910, 211.4535
573.5731, 210.4175
574.0552, 209.5185
574.5374, 209.1828
575.0195, 208.7997
575.5016, 207.7969
575.9837, 205.2734
576.4658, 203.1035
576.9479, 201.4502
577.4301, 200.2339
577.9122, 199.3260
578.3943, 198.8290
578.8764, 198.4178
579.3585, 198.0717
579.8406, 197.7462
580.3228, 197.0921
580.8049, 196.0667
581.2870, 194.9915
581.7691, 193.9724
582.2512, 193.0649
582.7333, 192.5858
583.2155, 192.6022
583.6975, 192.5750
584.1796, 191.8916
584.6617, 190.8438
585.1439, 189.9189
585.6260, 189.3269
586.1081, 188.7541
586.5902, 187.8885
587.0723, 186.9165
587.5544, 186.2108
588.0366, 185.9106
588.5187, 185.8371
589.0008, 186.0475
589.4829, 186.5124
589.9650, 186.7690
590.4471, 186.6957
590.9293, 186.5594
591.4114, 186.4624
591.8935, 186.3923
592.3756, 186.4672
592.8577, 186.7539
593.3398, 187.0021
593.8220, 186.8838
594.3041, 186.4539
594.7862, 186.0936
595.2683, 185.8151
595.7504, 185.7870
596.2325, 186.4482
596.7147, 187.5527
597.1968, 188.4451
597.6789, 188.9374
598.1610, 189.0448
598.6431, 188.3592
599.1252, 187.1554
599.6074, 186.6699
600.0895, 188.1944
600.5716, 189.8107
601.0537, 190.5686
601.5358, 190.2078
602.0179, 189.8147
602.5001, 189.2339
602.9822, 188.7918
603.4643, 188.7679
603.9464, 189.2830
604.4285, 189.7482
604.9106, 190.1350
605.3928, 190.4583
605.8749, 190.6478
606.3570, 190.7337
606.8391, 191.1435
607.3212, 192.2341
607.8033, 193.4221
608.2855, 193.7064
608.7676, 193.2833
609.2497, 192.8897
609.7318, 192.9624
610.2139, 193.2019
610.6960, 193.5191
611.1782, 193.8861
611.6603, 193.8599
612.1424, 192.8369
612.6245, 191.6979
613.1066, 191.0876
613.5887, 191.6858
614.0709, 191.2726
614.5530, 189.2108
615.0351, 186.7096
615.5172, 185.0486
615.9993, 184.4103
616.4814, 183.7406
616.9636, 182.9085
617.4457, 181.9481
617.9278, 180.8763
618.4099, 179.7003
618.8920, 178.5139
619.3741, 177.2969
619.8563, 176.1154
620.3384, 175.1000
620.8205, 174.2315
621.3026, 173.4212
621.7847, 172.7249
622.2668, 171.9847
622.7490, 171.0179
623.2311, 169.7679
623.7132, 168.7530
624.1953, 168.2909
624.6774, 167.9951
625.1595, 167.5898
625.6417, 166.9398
626.1238, 166.4213
626.6059, 165.9589
627.0880, 165.7211
627.5701, 166.1979
628.0522, 167.5519
628.5344, 167.9547
629.0165, 166.7366
629.4986, 164.7911
629.9807, 163.8454
630.4628, 163.7549
630.9449, 163.7628
631.4271, 163.4198
631.9092, 163.0238
632.3913, 162.9827
632.8734, 163.2281
633.3555, 163.3352
633.8376, 162.9507
634.3198, 162.4702
634.8019, 162.0890
635.2840, 161.8054
635.7661, 161.7362
636.2482, 161.9823
636.7303, 162.3671
637.2125, 162.8122
637.6946, 163.4309
638.1767, 163.7748
638.6588, 163.7873
639.1409, 163.5967
639.6230, 163.3142
640.1052, 162.9528
640.5873, 162.7343
641.0694, 162.7712
641.5515, 162.8865
642.0336, 162.7245
642.5157, 162.4075
642.9979, 162.2923
643.4800, 162.7225
643.9621, 163.2780
644.4442, 163.5785
644.9263, 163.6973
645.4084, 164.0870
645.8906, 165.3393
646.3727, 166.5029
646.8548, 167.0318
647.3369, 166.8053
647.8190, 166.9174
648.3011, 167.6191
648.7833, 168.2828
649.2654, 168.2976
649.7475, 167.5708
650.2296, 167.4317
650.7117, 168.0415
651.1938, 168.8961
651.6760, 169.3374
652.1581, 169.5034
652.6402, 169.8011
653.1223, 170.3328
653.6044, 171.0350
654.0865, 171.9093
654.5687, 172.9153
655.0508, 173.9778
655.5329, 175.1078
656.0150, 176.2634
656.4971, 177.6454
656.9792, 179.1107
657.4614, 179.9090
657.9435, 179.4420
658.4256, 179.1131
658.9077, 179.3620
659.3898, 180.1741
659.8719, 181.2596
660.3541, 182.6752
660.8362, 184.0907
661.3183, 185.2769
661.8004, 186.2711
662.2825, 187.2749
662.7646, 188.2993
663.2468, 189.3369
663.7289, 190.4602
664.2110, 191.5634
664.6931, 192.4936
665.1752, 193.1707
665.6573, 193.8094
666.1395, 194.3924
666.6216, 195.0412
667.1037, 195.9044
667.5858, 197.4966
668.0679, 198.6485
668.5500, 199.0065
669.0322, 198.9857
669.5143, 199.5404
669.9964, 200.8111
670.4785, 201.9856
670.9606, 202.8434
671.4427, 203.4188
671.9249, 203.7856
672.4070, 203.9465
672.8891, 203.9075
673.3712, 203.5543
673.8533, 203.0715
674.3354, 202.6147
674.8176, 202.2012
675.2997, 201.9529
675.7818, 202.3740
676.2639, 202.6469
676.7460, 202.1922
677.2281, 200.7463
677.7103, 199.3699
678.1924, 197.8775
678.6745, 196.6973
679.1566, 196.2705
679.6387, 196.8598
680.1208, 196.9243
680.6030, 196.3320
681.0851, 195.3416
681.5672, 194.0234
682.0493, 192.5224
682.5314, 191.4196
683.0135, 190.9006
683.4957, 190.7413
683.9778, 190.9213
684.4599, 191.2727
684.9420, 191.4735
685.4241, 191.5736
685.9063, 191.3282
686.3884, 190.2102
686.8705, 188.6132
687.3526, 187.9328
687.8347, 189.2173
688.3168, 189.9506
688.7990, 189.1815
689.2811, 187.2365
689.7632, 186.4180
690.2453, 186.8518
690.7274, 187.5529
691.2095, 187.9974
691.6917, 188.2630
692.1738, 188.6196
692.6559, 189.0566
693.1380, 189.4024
693.6201, 189.3351
694.1022, 189.2267
694.5844, 189.4343
695.0665, 190.0199
695.5486, 190.8027
696.0307, 191.8666
696.5128, 193.0053
696.9949, 194.0786
697.4771, 195.1350
697.9592, 195.9861
698.4413, 196.5015
698.9234, 196.9765
699.4055, 197.8855
699.8876, 199.2455
700.3698, 200.1899
700.8519, 200.4597
701.3340, 200.5512
701.8161, 201.1983
702.2982, 202.2202
702.7803, 203.1439
703.2625, 203.5405
703.7446, 204.1001
704.2267, 205.4651
704.7088, 207.3183
705.1909, 208.9579
705.6730, 210.0811
706.1552, 211.0648
706.6373, 211.8891
707.1194, 212.6290
707.6015, 213.6478
708.0836, 214.9637
708.5657, 216.4840
709.0479, 218.2793
709.5300, 220.2406
710.0121, 221.8651
710.4942, 223.1685
710.9763, 224.4381
711.4584, 225.6020
711.9406, 227.0054
712.4227, 229.4585
712.9048, 232.9485
713.3869, 235.7233
713.8690, 236.2884
714.3511, 236.3237
714.8333, 236.9385
715.3154, 238.4340
715.7975, 239.9375
716.2796, 241.4476
716.7617, 242.9843
717.2438, 244.6028
717.7260, 246.3040
718.2081, 247.9936
718.6902, 249.6680
719.1723, 251.2760
719.6544, 252.4693
720.1365, 253.5424
720.6187, 255.2958
721.1008, 258.0768
721.5829, 261.0866
722.0650, 263.8968
722.5471, 266.5278
723.0292, 269.0703
723.5114, 271.7955
723.9935, 274.0292
724.4756, 275.1591
724.9577, 275.9249
725.4398, 277.7578
725.9219, 281.1899
726.4041, 283.9540
726.8862, 285.3328
727.3683, 286.0002
727.8504, 287.5431
728.3325, 289.8472
728.8146, 292.1664
729.2968, 294.0516
729.7789, 295.8529
730.2610, 297.8765
730.7431, 300.1362
731.2252, 302.6797
731.7073, 306.3901
732.1895, 309.5546
732.6716, 310.9323
733.1537, 310.6976
733.6358, 311.7721
734.1179, 315.1901
734.6000, 318.1796
735.0822, 319.4163
735.5643, 319.1090
736.0464, 319.0492
736.5285, 319.2189
737.0106, 320.0226
737.4927, 322.2558
737.9749, 325.1265
738.4570, 327.2515
738.9391, 328.5592
739.4212, 329.7428
739.9033, 331.3271
740.3854, 332.8500
740.8676, 333.8504
741.3497, 334.0019
741.8318, 334.7925
742.3139, 336.7599
742.7960, 338.8678
743.2781, 340.4883
743.7603, 341.6099
744.2424, 342.2267
744.7245, 342.2383
745.2066, 342.1767
745.6887, 342.7661
746.1708, 343.7176
746.6530, 344.1392
747.1351, 343.7433
747.6172, 343.5482
748.0993, 344.8853
748.5814, 346.5797
749.0635, 347.2575
749.5457, 345.6117
750.0278, 344.5452
750.5099, 344.7108
750.9920, 345.4398
751.4741, 345.9700
751.9562, 346.1842
752.4384, 346.7352
752.9205, 347.8752
753.4026, 348.9987
753.8847, 348.8489
754.3668, 347.7690
754.8489, 347.2181
755.3311, 347.9847
755.8132, 348.7729
756.2953, 348.2088
756.7774, 346.9103
757.2595, 345.9746
757.7416, 346.2859
758.2238, 346.3565
758.7059, 345.6919
759.1880, 344.6071
759.6701, 343.7326
760.1522, 343.1138
760.6343, 342.5580
761.1165, 342.0122
761.5986, 341.5034
762.0807, 341.2294
762.5628, 341.1076
763.0449, 340.6369
763.5270, 339.1985
764.0092, 337.6537
764.4913, 336.9911
764.9734, 336.9089
765.4555, 336.4590
765.9376, 334.7043
766.4197, 333.1574
766.9019, 332.5888
767.3840, 332.7228
767.8661, 332.2568
768.3482, 331.0237
768.8303, 329.6765
769.3124, 328.4775
769.7946, 327.3703
770.2767, 326.0289
770.7588, 324.4947
771.2409, 323.1560
771.7230, 322.3928
772.2051, 321.8395
772.6873, 321.1603
773.1694, 320.3571
773.6515, 319.5492
774.1336, 318.8519
774.6157, 318.0797
775.0978, 317.0344
775.5800, 315.7416
776.0621, 315.0231
776.5442, 315.1559
777.0263, 315.0711
777.5084, 313.9513
777.9905, 312.1014
778.4727, 311.0121
778.9548, 310.6535
779.4369, 310.5229
779.9190, 310.7206
780.4011, 310.6656
780.8832, 309.4738
781.3654, 307.1264
781.8475, 305.3103
782.3296, 305.0683
782.8117, 305.0487
783.2938, 304.6322
783.7759, 303.8139
784.2581, 302.5750
784.7402, 300.7611
785.2223, 299.0522
785.7044, 298.2086
786.1865, 297.8878
786.6686, 296.4229
787.1508, 293.7829
787.6329, 291.3965
788.1150, 290.7741
788.5971, 290.6021
789.0792, 289.6042
789.5613, 287.5430
790.0435, 285.4605
790.5256, 283.7398
791.0077, 281.9103
791.4898, 279.6462
791.9719, 276.8718
792.4540, 274.1737
792.9362, 271.4897
793.4183, 269.3068
793.9004, 268.5722
794.3825, 268.6442
794.8646, 267.6964
795.3467, 265.5837
795.8289, 263.0812
796.3110, 260.5506
796.7931, 258.0385
797.2752, 255.6720
797.7573, 253.5181
798.2394, 251.1648
798.7216, 248.2048
799.2037, 245.4318
799.6858, 243.4146
800.1679, 242.2447
800.6500, 241.1504
801.1321, 240.1387
801.6143, 239.0748
802.0964, 237.9735
802.5785, 236.6961
803.0606, 234.7368
803.5427, 231.9785
804.0248, 229.6019
804.5070, 228.6992
804.9891, 228.1530
805.4712, 227.1292
805.9533, 225.3991
806.4354, 223.5022
806.9175, 221.2253
807.3997, 219.0981
807.8818, 217.6747
808.3639, 216.9402
808.8460, 215.5803
809.3281, 213.5085
809.8102, 211.3426
810.2924, 209.6553
810.7745, 208.2102
811.2566, 206.6777
811.7387, 205.0182
812.2208, 203.3904
812.7029, 201.5988
813.1851, 200.0720
813.6672, 199.2643
814.1493, 199.5415
814.6314, 198.8048
815.1135, 196.7101
815.5956, 194.4748
816.0778, 193.1853
816.5599, 192.6263
817.0420, 191.9156
817.5241, 191.0025
818.0062, 189.7952
818.4883, 187.7546
818.9705, 185.6528
819.4526, 184.3860
819.9347, 184.2039
820.4168, 183.7595
820.8989, 182.4649
821.3810, 181.1223
821.8632, 180.2132
822.3453, 179.8370
822.8274, 178.8103
823.3095, 177.0532
823.7916, 175.2609
824.2737, 174.0364
824.7559, 173.1826
825.2380, 172.3337
825.7201, 171.4750
826.2022, 170.6420
826.6843, 169.9228
827.1664, 169.1964
827.6486, 168.3226
828.1307, 167.2283
828.6128, 166.4691
829.0949, 166.2410
829.5770, 165.9962
830.0591, 165.3788
830.5413, 164.4343
831.0234, 163.6739
831.5055, 163.0948
831.9876, 162.5672
832.4697, 162.0168
832.9518, 161.4518
833.4340, 160.9087
833.9161, 160.3804
834.3982, 159.7220
834.8803, 158.7870
835.3624, 157.8001
835.8445, 156.8036
836.3267, 155.8119
836.8088, 155.1241
837.2909, 154.8127
837.7730, 154.4912
838.2551, 153.8407
838.7372, 153.0582
839.2194, 152.7686
839.7015, 152.8712
840.1836, 152.7791
840.6657, 151.8612
841.1478, 150.9048
841.6299, 150.4595
842.1121, 150.4778
842.5942, 150.3547
843.0763, 149.9171
843.5584, 149.5857
844.0405, 149.5893
844.5226, 149.7669
845.0048, 149.4137
845.4869, 148.5607
845.9690, 147.6933
846.4511, 146.9505
846.9332, 146.4131
847.4153, 146.2366
847.8975, 146.3469
848.3796, 146.5330
848.8617, 146.7235
849.3438, 146.9941
849.8259, 147.5524
850.3080, 148.1610
850.7902, 147.9871
851.2723, 146.7898
851.7544, 146.3619
852.2365, 147.4855
852.7186, 149.2191
853.2007, 149.8437
853.6829, 149.6969
854.1650, 149.7085
854.6471, 150.3187
855.1292, 151.0725
855.6113, 151.6511
856.0934, 152.2496
856.5756, 153.2504
857.0577, 154.7987
857.5398, 156.4827
858.0219, 158.3245
858.5040, 160.2205
858.9861, 161.7942
859.4683, 163.1899
859.9504, 165.1928
860.4325, 168.0147
860.9146, 171.3313
861.3967, 175.2178
861.8788, 179.2170
862.3610, 182.7681
862.8431, 185.0883
863.3252, 188.0737
863.8073, 191.9469
864.2894, 196.4072
864.7715, 201.0298
865.2537, 205.7802
865.7358, 211.5542
866.2179, 218.5703
866.7000, 225.9490
867.1821, 232.7371
867.6642, 239.3936
868.1464, 246.3938
868.6285, 253.8919
869.1106, 261.8620
869.5927, 270.4281
870.0748, 279.4789
870.5569, 288.9637
871.0391, 298.9721
871.5212, 308.2643
872.0033, 316.4579
872.4854, 325.2925
872.9675, 336.6668
873.4496, 349.4622
873.9318, 360.5221
874.4139, 369.8590
874.8960, 379.0052
875.3781, 388.9906
875.8602, 398.9559
876.3423, 408.1907
876.8245, 416.6070
877.3066, 425.5150
877.7887, 435.5442
878.2708, 444.6809
878.7529, 452.1120
879.2350, 458.0496
879.7172, 463.2077
880.1993, 467.5518
880.6814, 471.2221
881.1635, 474.7165
881.6456, 477.1818
882.1277, 477.9684
882.6099, 477.2036
883.0920, 475.2644
883.5741, 471.9973
884.0562, 467.7699
884.5383, 462.5395
885.0204, 456.3625
885.5026, 449.3390
885.9847, 441.4665
886.4668, 432.7913
886.9489, 423.1927
887.4310, 413.0564
887.9131, 402.6851
888.3953, 392.2367
888.8774, 381.8540
889.3595, 371.8183
889.8416, 361.5065
890.3237, 350.4358
890.8058, 339.4016
891.2880, 329.0533
891.7701, 319.4681
892.2522, 310.1725
892.7343, 301.0342
893.2164, 292.4586
893.6985, 284.8972
894.1807, 278.1743
894.6628, 271.9516
895.1449, 266.2430
895.6270, 260.8449
896.1091, 255.5314
896.5912, 250.6084
897.0734, 246.1218
897.5555, 242.0836
898.0376, 238.8339
898.5197, 236.4527
899.0018, 234.5484
899.4839, 233.0500
899.9661, 231.7928
900.4482, 230.3844
900.9303, 228.8740
901.4124, 227.6902
901.8945, 227.0742
902.3766, 226.7830
902.8588, 226.8498
903.3409, 227.1655
903.8230, 227.2024
904.3051, 226.7901
904.7872, 226.7598
905.2693, 227.4212
905.7515, 228.5780
906.2336, 230.0430
906.7157, 231.6809
907.1978, 233.1020
907.6799, 234.0589
908.1620, 234.8680
908.6442, 235.4423
909.1263, 236.0515
909.6084, 237.2662
910.0905, 239.7986
910.5726, 240.9017
911.0547, 240.0061
911.5369, 238.4510
912.0190, 238.1543
912.5011, 238.6282
912.9832, 238.5200
913.4653, 237.5933
913.9474, 236.1037
914.4296, 233.6367
914.9117, 231.0602
915.3938, 229.2032
915.8759, 228.3579
916.3580, 227.1265
916.8401, 225.4340
917.3223, 223.5317
917.8044, 221.6383
918.2865, 219.6842
918.7686, 217.2177
919.2507, 214.2981
919.7328, 211.4762
920.2150, 209.0063
920.6971, 206.8305
921.1792, 204.9475
921.6613, 203.3327
922.1434, 201.8161
922.6255, 200.4171
923.1077, 199.0247
923.5898, 197.5479
924.0719, 196.1209
924.5540, 195.0512
925.0361, 194.2824
925.5182, 193.6154
926.0004, 192.9764
926.4825, 192.3930
926.9646, 191.6999
927.4467, 191.1230
927.9288, 191.0842
928.4109, 192.2509
928.8931, 192.4404
929.3752, 191.1086
929.8573, 189.6914
930.3394, 189.9576
930.8215, 191.5145
931.3036, 193.0296
931.7858, 194.3602
932.2679, 195.5323
932.7500, 196.3122
933.2321, 197.1512
933.7142, 198.4726
934.1964, 200.3766
934.6785, 202.2021
935.1606, 203.9160
935.6427, 205.6056
936.1248, 207.2803
936.6069, 208.9719
937.0891, 210.7320
937.5712, 212.5530
938.0533, 214.2863
938.5354, 215.7097
939.0175, 217.1633
939.4996, 218.8923
939.9818, 220.7891
940.4639, 222.4776
940.9460, 223.7354
941.4281, 225.2990
941.9102, 227.3641
942.3923, 229.6268
942.8745, 231.6032
943.3566, 233.3792
943.8387, 235.1585
944.3208, 236.9844
944.8029, 238.7784
945.2850, 240.7662
945.7672, 242.5454
946.2493, 243.6052
946.7314, 243.5868
947.2135, 244.4307
947.6956, 246.3277
948.1777, 248.4374
948.6599, 250.1095
949.1420, 251.4758
949.6241, 252.8152
950.1062, 254.1312
950.5883, 255.3860
951.0704, 256.3442
951.5526, 257.4471
952.0347, 259.1674
952.5168, 261.2372
952.9989, 262.5318
953.4810, 262.8604
953.9631, 263.3302
954.4453, 264.3197
954.9274, 265.4966
955.4095, 266.5478
955.8916, 267.3287
956.3737, 267.5021
956.8558, 266.6051
957.3380, 265.7682
957.8201, 265.6592
958.3022, 265.5905
958.7843, 264.9178
959.2664, 263.5534
959.7485, 262.0321
960.2307, 260.3663
960.7128, 258.6217
961.1949, 257.1827
961.6770, 255.5299
962.1591, 252.8587
962.6412, 249.1340
963.1234, 245.1345
963.6055, 240.9003
964.0876, 236.6530
964.5697, 232.6011
965.0518, 228.5744
965.5339, 223.4990
966.0161, 217.3518
966.4982, 211.2487
966.9803, 205.7166
967.4624, 200.2497
967.9445, 194.2684
968.4266, 188.0223
968.9088, 182.0483
969.3909, 176.7249
969.8730, 171.2546
970.3551, 165.3799
970.8372, 159.5526
971.3193, 154.0079
971.8015, 148.8034
972.2836, 144.0765
972.7657, 139.8695
973.2478, 135.9151
973.7299, 132.0677
974.2120, 128.2816
974.6942, 124.3219
975.1763, 120.1945
975.6584, 116.9900
976.1405, 115.1022
976.6226, 113.2698
977.1047, 110.9733
977.5869, 108.4574
978.0690, 106.4902
978.5511, 104.9678
979.0332, 103.4336
979.5153, 101.5315
979.9974, 99.79893
980.4796, 98.62941
980.9617, 97.75765
981.4438, 96.80804
981.9259, 95.73526
982.4080, 94.60871
982.8901, 93.36003
983.3723, 92.30979
983.8544, 92.00225
984.3365, 92.04459
984.8186, 91.59038
985.3007, 90.58772
985.7828, 89.82741
986.2650, 90.11015
986.7471, 90.20816
987.2292, 89.37354
987.7113, 87.89143
988.1934, 87.42309
988.6755, 88.01990
989.1577, 88.36876
989.6398, 87.81046
990.1219, 87.03069
990.6040, 86.98872
991.0861, 87.26814
991.5682, 87.15939
992.0504, 86.02113
992.5325, 85.17067
993.0146, 84.82430
993.4967, 84.63225
993.9788, 84.14381
994.4609, 83.44338
994.9431, 83.37234
995.4252, 83.97265
995.9073, 84.62019
996.3894, 85.13364
996.8715, 85.29343
997.3536, 84.55827
997.8358, 83.08968
998.3179, 82.80540
998.8000, 84.26851
999.2821, 85.52224
999.7642, 85.98410
1000.246, 85.94976
1000.728, 85.89738
1001.211, 85.83671
1001.693, 85.79764
1002.175, 85.80457
1002.657, 85.80056
1003.139, 85.77556
1003.621, 85.71699
1004.103, 85.51437
1004.585, 85.00933
1005.068, 85.48689
1005.550, 87.06593
1006.032, 88.49686
1006.514, 88.70155
1006.996, 88.30740
1007.478, 87.87299
1007.960, 87.50042
1008.442, 87.55770
1008.924, 88.60220
1009.407, 89.49535
1009.889, 89.94929
1010.371, 90.19178
1010.853, 90.71495
1011.335, 91.48315
1011.817, 92.16331
1012.299, 92.61521
1012.781, 93.26630
1013.263, 94.57484
1013.746, 96.16489
1014.228, 97.68502
1014.710, 99.07991
1015.192, 100.5882
1015.674, 102.3050
1016.156, 103.8080
1016.638, 104.5541
1017.120, 105.0596
1017.603, 106.4527
1018.085, 108.6054
1018.567, 111.0251
1019.049, 113.9300
1019.531, 116.5244
1020.013, 118.2614
1020.495, 119.7875
1020.977, 122.0657
1021.459, 125.1082
1021.942, 128.3225
1022.424, 131.6656
1022.906, 135.0038
1023.388, 138.1988
1023.870, 141.3857
1024.352, 144.5531
1024.834, 147.6682
1025.316, 151.6772
1025.799, 157.2018
1026.281, 162.3909
1026.763, 166.4561
1027.245, 169.7405
1027.727, 173.0211
1028.209, 176.4422
1028.691, 180.5220
1029.173, 185.9604
1029.656, 191.3219
1030.138, 195.6195
1030.620, 199.6527
1031.102, 204.4272
1031.584, 210.2539
1032.066, 214.9159
1032.548, 218.2566
1033.030, 221.6970
1033.512, 226.5697
1033.995, 232.0601
1034.477, 237.3722
1034.959, 242.3873
1035.441, 246.8269
1035.923, 250.2815
1036.405, 253.7151
1036.887, 257.5336
1037.369, 261.2120
1037.851, 263.6354
1038.334, 265.0417
1038.816, 266.6104
1039.298, 268.7741
1039.780, 270.3449
1040.262, 270.5256
1040.744, 269.8729
1041.226, 268.9029
1041.708, 267.6736
1042.191, 265.2952
1042.673, 261.6001
1043.155, 257.9711
1043.637, 255.2152
1044.119, 252.8494
1044.601, 250.6134
1045.083, 248.1680
1045.565, 244.8301
1046.047, 239.5789
1046.530, 234.5326
1047.012, 229.9175
1047.494, 225.5483
1047.976, 221.2780
1048.458, 217.0453
1048.940, 212.7989
1049.422, 208.5199
1049.904, 204.4469
1050.386, 200.9861
1050.869, 197.4801
1051.351, 193.3089
1051.833, 188.7151
1052.315, 184.8208
1052.797, 181.7336
1053.279, 178.3966
1053.761, 174.3721
1054.243, 170.2275
1054.726, 166.7947
1055.208, 163.6324
1055.690, 159.9929
1056.172, 155.2717
1056.654, 151.6400
1057.136, 149.7141
1057.618, 147.9818
1058.100, 145.6129
1058.583, 142.6988
1059.065, 139.3160
1059.547, 135.6344
1060.029, 132.4169
1060.511, 130.3645
1060.993, 128.5978
1061.475, 127.0646
1061.957, 125.4537
1062.439, 123.2372
1062.922, 120.2991
1063.404, 117.8032
1063.886, 115.8685
1064.368, 114.2333
1064.850, 112.9696
1065.332, 111.6502
1065.814, 109.6728
1066.296, 107.0934
1066.778, 104.9328
1067.261, 103.3687
1067.743, 102.0102
1068.225, 100.8638
1068.707, 99.68945
1069.189, 97.86791
1069.671, 95.71715
1070.153, 94.00659
1070.635, 92.99780
1071.118, 92.20593
1071.600, 91.93066
1072.082, 91.35977
1072.564, 89.96848
1073.046, 87.83149
1073.528, 85.47385
1074.010, 82.96989
1074.492, 81.12124
1074.974, 81.04887
1075.457, 81.03014
1075.939, 79.53258
1076.421, 77.31640
1076.903, 75.65623
1077.385, 74.72971
1077.867, 74.08434
1078.349, 73.77884
1078.831, 73.43230
1079.313, 72.66108
1079.796, 71.63970
1080.278, 70.52561
1080.760, 69.36549
1081.242, 68.44201
1081.724, 68.11967
1082.206, 67.67471
1082.688, 66.93879
1083.170, 66.05711
1083.652, 65.19324
1084.135, 64.40555
1084.617, 64.00402
1085.099, 64.09430
1085.581, 64.19936
1086.063, 64.31624
1086.545, 64.08586
1087.027, 63.17498
1087.509, 61.67926
1087.992, 60.47957
1088.474, 59.57706
1088.956, 58.85715
1089.438, 58.21572
1089.920, 57.83833
1090.402, 58.28733
1090.884, 58.94080
1091.366, 58.86308
1091.849, 57.41655
1092.331, 56.73941
1092.813, 57.04567
1093.295, 57.39625
1093.777, 56.99740
1094.259, 56.22566
1094.741, 55.80844
1095.223, 55.64542
1095.705, 55.35666
1096.188, 54.48942
1096.670, 53.94778
1097.152, 54.01823
1097.634, 54.26836
1098.116, 54.14198
1098.598, 53.70032
1099.080, 53.18814
1099.562, 52.62970
1100.044, 52.17397
1100.527, 51.92137
1101.009, 51.79291
1101.491, 51.81126
1101.973, 51.90513
1102.455, 51.91607
1102.937, 51.84837
1103.419, 51.34657
1103.901, 50.16290
1104.384, 49.18853
1104.866, 49.66568
1105.348, 50.55262
1105.830, 50.77207
1106.312, 50.12543
1106.794, 49.60971
1107.276, 49.30743
1107.758, 48.75482
1108.240, 47.44364
1108.723, 46.11987
1109.205, 46.14341
1109.687, 46.97548
1110.169, 47.57759
1110.651, 47.58172
1111.133, 47.48329
1111.615, 47.33773
1112.097, 47.08124
1112.579, 46.51715
1113.062, 45.81536
1113.544, 45.63628
1114.026, 45.90017
1114.508, 46.20595
1114.990, 46.67561
1115.472, 46.73948
1115.954, 45.91997
1116.436, 44.86674
1116.919, 44.43859
1117.401, 44.58976
1117.883, 44.77105
1118.365, 44.93494
1118.847, 44.97268
1119.329, 44.66201
1119.811, 44.33459
1120.293, 44.39931
1120.776, 44.62398
1121.258, 44.05512
1121.740, 42.55937
1122.222, 41.63371
1122.704, 41.67501
1123.186, 41.98474
1123.668, 41.79229
1124.150, 41.51468
1124.632, 41.70650
1125.115, 42.49806
1125.597, 42.72347
1126.079, 42.19825
1126.561, 41.67566
1127.043, 41.41215
1127.525, 41.34782
1128.007, 41.46947
1128.489, 41.68890
1128.971, 41.85016
1129.454, 41.88454
1129.936, 41.95868
1130.418, 42.16040
1130.900, 42.27047
1131.382, 42.10072
1131.864, 41.76200
1132.346, 41.59390
1132.828, 41.55071
1133.311, 41.48201
1133.793, 41.42002
1134.275, 41.17688
1134.757, 40.53789
1135.239, 39.89125
1135.721, 39.64166
1136.203, 39.73864
1136.685, 39.74717
1137.167, 39.65974
1137.650, 39.54565
1138.132, 39.37705
1138.614, 39.26801
1139.096, 39.23631
1139.578, 39.32164
1140.060, 39.67550
1140.542, 40.31189
1141.024, 40.68596
1141.506, 40.74062
1141.989, 40.55794
1142.471, 39.97311
1142.953, 39.37936
1143.435, 38.93617
1143.917, 38.74287
1144.399, 39.31655
1144.881, 40.88820
1145.363, 41.49133
1145.846, 40.49511
1146.328, 39.25396
1146.810, 39.35038
1147.292, 39.93758
1147.774, 40.07246
1148.256, 39.59632
1148.738, 39.50573
1149.220, 39.98815
1149.703, 40.20517
1150.185, 39.76965
1150.667, 39.11475
1151.149, 38.77011
1151.631, 38.68574
1152.113, 38.83856
1152.595, 39.37847
1153.077, 39.57484
1153.559, 39.32372
1154.042, 38.87173
1154.524, 38.17827
1155.006, 37.51500
1155.488, 37.70853
1155.970, 38.40532
1156.452, 38.72483
1156.934, 38.00957
1157.416, 37.61689
1157.898, 37.93927
1158.381, 38.23349
1158.863, 37.72495
1159.345, 36.73222
1159.827, 36.70884
1160.309, 37.41608
1160.791, 37.88890
1161.273, 37.43726
1161.755, 37.01292
1162.238, 36.80975
1162.720, 36.77815
1163.202, 36.93009
1163.684, 37.22682
1164.166, 37.44291
1164.648, 37.56568
1165.130, 37.57536
1165.612, 37.33257
1166.094, 37.12440
1166.577, 37.17320
1167.059, 37.26215
1167.541, 36.87114
1168.023, 36.08464
1168.505, 36.20521
1168.987, 37.37244
1169.469, 38.37519
1169.951, 38.38825
1170.433, 37.95918
1170.916, 37.02588
1171.398, 36.00045
1171.880, 36.11852
1172.362, 37.35789
1172.844, 37.87895
1173.326, 37.24259
1173.808, 36.58344
1174.290, 36.96737
1174.773, 37.60381
1175.255, 37.93855
1175.737, 37.97605
1176.219, 37.70797
1176.701, 37.11194
1177.183, 36.63352
1177.665, 36.38665
1178.147, 36.30401
1178.630, 36.38278
1179.112, 36.54877
1179.594, 36.79614
1180.076, 37.11845
1180.558, 37.08004
1181.040, 36.62138
1181.522, 36.41049
1182.004, 36.81622
1182.486, 37.32684
1182.969, 37.46601
1183.451, 37.34856
1183.933, 37.04467
1184.415, 36.49713
1184.897, 36.27662
1185.379, 36.43642
1185.861, 36.57503
1186.343, 36.50533
1186.825, 36.28652
1187.308, 35.79298
1187.790, 35.27075
1188.272, 35.13363
1188.754, 35.52337
1189.236, 36.10145
1189.718, 36.94434
1190.200, 37.55739
1190.682, 37.43818
1191.165, 37.05908
1191.647, 37.05193
1192.129, 37.24429
1192.611, 37.27187
1193.093, 36.87917
1193.575, 36.79268
1194.057, 37.08964
1194.539, 37.41816
1195.021, 37.58782
1195.504, 37.56686
1195.986, 37.01110
1196.468, 36.23247
1196.950, 36.21096
1197.432, 37.87439
1197.914, 38.45034
1198.396, 37.53197
1198.878, 36.38512
1199.360, 36.30573
1199.843, 36.69213
1200.325, 36.64954
1200.807, 36.27993
1201.289, 36.15516
1201.771, 36.48106
1202.253, 36.83905
1202.735, 37.24012
1203.217, 37.48045
1203.700, 37.21445
1204.182, 36.71446
1204.664, 36.25853
1205.146, 35.91053
1205.628, 35.95306
1206.110, 36.78634
1206.592, 37.12038
1207.074, 36.62046
1207.557, 35.95188
1208.039, 35.94016
1208.521, 36.29722
1209.003, 36.71719
1209.485, 37.14673
1209.967, 37.25489
1210.449, 36.90229
1210.931, 36.48481
1211.413, 36.02208
1211.896, 35.68480
1212.378, 35.79711
1212.860, 36.12347
1213.342, 36.28645
1213.824, 36.24615
1214.306, 36.42817
1214.788, 37.05881
1215.270, 37.39748
1215.752, 37.20820
1216.235, 36.75294
1216.717, 36.20867
1217.199, 35.73778
1217.681, 35.63448
1218.163, 35.96914
1218.645, 36.18285
1219.127, 36.21324
1219.609, 36.19150
1220.092, 36.15816
1220.574, 36.09400
1221.056, 36.02441
1221.538, 35.87880
1222.020, 35.44420
1222.502, 34.60499
1222.984, 34.37978
1223.466, 35.00295
1223.948, 35.56808
1224.431, 35.75879
1224.913, 35.70203
1225.395, 35.39588
1225.877, 35.05218
1226.359, 34.97974
1226.841, 35.29366
1227.323, 35.64541
1227.805, 36.12533
1228.287, 36.20391
1228.770, 35.43034
1229.252, 34.57136
1229.734, 34.88749
1230.216, 35.67890
1230.698, 35.96197
1231.180, 35.46138
1231.662, 35.09756
1232.144, 34.83539
1232.627, 34.94292
1233.109, 35.80820
1233.591, 36.65279
1234.073, 36.38527
1234.555, 35.60832
1235.037, 35.11446
1235.519, 34.99651
1236.001, 35.14500
1236.484, 35.61372
1236.966, 35.84612
1237.448, 35.39605
1237.930, 34.84378
1238.412, 34.86689
1238.894, 35.09753
1239.376, 34.93695
1239.858, 34.21655
1240.340, 34.43866
1240.823, 35.66744
1241.305, 36.25399
1241.787, 34.65030
1242.269, 33.00441
1242.751, 33.38319
1243.233, 34.66614
1243.715, 35.46266
1244.197, 35.70162
1244.679, 35.81995
1245.162, 35.81776
1245.644, 35.64679
1246.126, 35.01204
1246.608, 34.55695
1247.090, 35.05286
1247.572, 35.73010
1248.054, 35.64849
1248.536, 34.76886
1249.019, 34.27005
1249.501, 34.13607
1249.983, 34.18240
1250.465, 34.39256
1250.947, 34.65391
1251.429, 35.10045
1251.911, 35.40991
1252.393, 35.14735
1252.875, 34.36829
1253.358, 34.27358
1253.840, 34.75635
1254.322, 35.10014
1254.804, 34.72498
1255.286, 34.41589
1255.768, 34.55254
1256.250, 34.74611
1256.732, 34.64252
1257.214, 34.30280
1257.697, 33.97605
1258.179, 33.73195
1258.661, 33.87675
1259.143, 35.39604
1259.625, 36.01719
1260.107, 34.82123
1260.589, 33.49409
1261.071, 33.71453
1261.554, 34.89120
1262.036, 35.16542
1262.518, 34.71052
1263.000, 34.18328
1263.482, 33.40499
1263.964, 33.32467
1264.446, 34.29956
1264.928, 35.28701
1265.411, 35.33378
1265.893, 34.83203
1266.375, 34.42693
1266.857, 34.11883
1267.339, 33.88741
1267.821, 33.79200
1268.303, 33.60372
1268.785, 33.22528
1269.267, 33.10475
1269.750, 33.95466
1270.232, 34.99164
1270.714, 35.15814
1271.196, 34.72129
1271.678, 34.27097
1272.160, 33.71961
1272.642, 33.75941
1273.124, 34.49585
1273.606, 35.05035
1274.089, 34.53379
1274.571, 33.79873
1275.053, 33.45028
1275.535, 33.49620
1276.017, 33.92183
1276.499, 34.77670
1276.981, 35.81515
1277.463, 37.01667
1277.946, 37.43776
1278.428, 35.47282
1278.910, 33.62999
1279.392, 33.83778
1279.874, 34.80443
1280.356, 34.98044
1280.838, 34.38784
1281.320, 34.15062
1281.802, 34.24011
1282.285, 34.24781
1282.767, 33.61340
1283.249, 33.31017
1283.731, 34.04346
1284.213, 34.85912
1284.695, 34.86313
1285.177, 34.22472
1285.659, 33.60740
1286.141, 33.07193
1286.624, 32.84851
1287.106, 33.22691
1287.588, 33.68565
1288.070, 34.26223
1288.552, 34.66071
1289.034, 34.48353
1289.516, 34.01383
1289.998, 33.92680
1290.481, 34.08062
1290.963, 34.10032
1291.445, 33.63538
1291.927, 33.54624
1292.409, 33.96693
1292.891, 34.24733
1293.373, 33.69259
1293.855, 32.91938
1294.338, 32.70940
1294.820, 32.85718
1295.302, 32.99210
1295.784, 33.08550
1296.266, 33.09016
1296.748, 32.99184
1297.230, 33.06609
1297.712, 33.76931
1298.194, 34.37285
1298.677, 34.10189
1299.159, 33.52034
1299.641, 33.35495
1300.123, 33.61962
1300.605, 33.62214
1301.087, 33.40513
1301.569, 33.36990
1302.051, 33.98064
1302.533, 34.38751
1303.016, 34.29726
##END=



