##NAMES=Laurionite
##RRUFFID=R130788
##IDEAL CHEMISTRY=Pb^2+^Cl(OH)
##LOCALITY=Pacha Limani, Laurion, Greece
##OWNER=RRUFF
##SOURCE=Bob Jenkins
##DESCRIPTION=Colorless prismatic crystals in a vug
##STATUS=The identification of this mineral has been confirmed by single-crystal X-ray diffraction.
##URL=rruff.info/R130788
8.930109e+001, 0.000000e+000
8.978320e+001, 4.570931e+003
9.026532e+001, 4.530150e+003
9.074744e+001, 4.527000e+003
9.122955e+001, 4.571771e+003
9.171167e+001, 4.645296e+003
9.219379e+001, 4.720953e+003
9.267590e+001, 4.801986e+003
9.315802e+001, 4.892036e+003
9.364014e+001, 4.990716e+003
9.412225e+001, 5.099594e+003
9.460437e+001, 5.220709e+003
9.508649e+001, 5.353170e+003
9.556860e+001, 5.495626e+003
9.605072e+001, 5.654741e+003
9.653284e+001, 5.833750e+003
9.701495e+001, 6.028511e+003
9.749707e+001, 6.232353e+003
9.797919e+001, 6.445425e+003
9.846130e+001, 6.677404e+003
9.894342e+001, 6.927535e+003
9.942554e+001, 7.197133e+003
9.990765e+001, 7.504961e+003
1.003898e+002, 7.858755e+003
1.008719e+002, 8.236704e+003
1.013540e+002, 8.618542e+003
1.018361e+002, 9.019256e+003
1.023182e+002, 9.384267e+003
1.028004e+002, 9.716965e+003
1.032825e+002, 1.004609e+004
1.037646e+002, 1.023542e+004
1.042467e+002, 1.029383e+004
1.047288e+002, 1.022179e+004
1.052109e+002, 1.000536e+004
1.056931e+002, 9.603757e+003
1.061752e+002, 9.130754e+003
1.066573e+002, 8.625370e+003
1.071394e+002, 8.046231e+003
1.076215e+002, 7.511361e+003
1.081036e+002, 7.015205e+003
1.085858e+002, 6.561031e+003
1.090679e+002, 6.176579e+003
1.095500e+002, 5.865128e+003
1.100321e+002, 5.614657e+003
1.105142e+002, 5.420138e+003
1.109963e+002, 5.284282e+003
1.114785e+002, 5.195859e+003
1.119606e+002, 5.159941e+003
1.124427e+002, 5.174578e+003
1.129248e+002, 5.214073e+003
1.134069e+002, 5.303852e+003
1.138890e+002, 5.401997e+003
1.143712e+002, 5.475841e+003
1.148533e+002, 5.530365e+003
1.153354e+002, 5.549435e+003
1.158175e+002, 5.518440e+003
1.162996e+002, 5.433270e+003
1.167817e+002, 5.344446e+003
1.172639e+002, 5.257500e+003
1.177460e+002, 5.179325e+003
1.182281e+002, 5.118764e+003
1.187102e+002, 5.082390e+003
1.191923e+002, 5.061618e+003
1.196744e+002, 5.051964e+003
1.201566e+002, 5.052671e+003
1.206387e+002, 5.064748e+003
1.211208e+002, 5.090739e+003
1.216029e+002, 5.128338e+003
1.220850e+002, 5.172919e+003
1.225671e+002, 5.221417e+003
1.230493e+002, 5.275829e+003
1.235314e+002, 5.337894e+003
1.240135e+002, 5.407439e+003
1.244956e+002, 5.485711e+003
1.249777e+002, 5.572180e+003
1.254598e+002, 5.667360e+003
1.259420e+002, 5.772374e+003
1.264241e+002, 5.888055e+003
1.269062e+002, 6.013920e+003
1.273883e+002, 6.148799e+003
1.278704e+002, 6.291345e+003
1.283525e+002, 6.444107e+003
1.288347e+002, 6.611896e+003
1.293168e+002, 6.795224e+003
1.297989e+002, 6.988032e+003
1.302810e+002, 7.196728e+003
1.307631e+002, 7.414358e+003
1.312452e+002, 7.622729e+003
1.317274e+002, 7.825284e+003
1.322095e+002, 8.011654e+003
1.326916e+002, 8.159851e+003
1.331737e+002, 8.272347e+003
1.336558e+002, 8.333263e+003
1.341379e+002, 8.332847e+003
1.346201e+002, 8.271133e+003
1.351022e+002, 8.142810e+003
1.355843e+002, 7.938622e+003
1.360664e+002, 7.664006e+003
1.365485e+002, 7.359006e+003
1.370306e+002, 7.014842e+003
1.375128e+002, 6.656928e+003
1.379949e+002, 6.300747e+003
1.384770e+002, 5.941789e+003
1.389591e+002, 5.600641e+003
1.394412e+002, 5.278905e+003
1.399233e+002, 4.979087e+003
1.404055e+002, 4.702159e+003
1.408876e+002, 4.447605e+003
1.413697e+002, 4.215513e+003
1.418518e+002, 4.004769e+003
1.423339e+002, 3.817693e+003
1.428160e+002, 3.648344e+003
1.432982e+002, 3.494962e+003
1.437803e+002, 3.359988e+003
1.442624e+002, 3.237828e+003
1.447445e+002, 3.131268e+003
1.452266e+002, 3.036728e+003
1.457087e+002, 2.950744e+003
1.461909e+002, 2.873283e+003
1.466730e+002, 2.802622e+003
1.471551e+002, 2.737273e+003
1.476372e+002, 2.677319e+003
1.481193e+002, 2.623727e+003
1.486014e+002, 2.577568e+003
1.490836e+002, 2.537976e+003
1.495657e+002, 2.500122e+003
1.500478e+002, 2.465028e+003
1.505299e+002, 2.431695e+003
1.510120e+002, 2.399457e+003
1.514941e+002, 2.366251e+003
1.519763e+002, 2.336883e+003
1.524584e+002, 2.312480e+003
1.529405e+002, 2.292353e+003
1.534226e+002, 2.272452e+003
1.539047e+002, 2.251718e+003
1.543868e+002, 2.231602e+003
1.548690e+002, 2.212891e+003
1.553511e+002, 2.196426e+003
1.558332e+002, 2.180559e+003
1.563153e+002, 2.164031e+003
1.567974e+002, 2.147319e+003
1.572795e+002, 2.134230e+003
1.577617e+002, 2.131028e+003
1.582438e+002, 2.128910e+003
1.587259e+002, 2.121524e+003
1.592080e+002, 2.101389e+003
1.596901e+002, 2.081637e+003
1.601722e+002, 2.065908e+003
1.606544e+002, 2.054201e+003
1.611365e+002, 2.044621e+003
1.616186e+002, 2.037926e+003
1.621007e+002, 2.032513e+003
1.625828e+002, 2.026736e+003
1.630649e+002, 2.020063e+003
1.635471e+002, 2.012956e+003
1.640292e+002, 2.005435e+003
1.645113e+002, 1.997486e+003
1.649934e+002, 1.989643e+003
1.654755e+002, 1.982395e+003
1.659576e+002, 1.975287e+003
1.664398e+002, 1.967862e+003
1.669219e+002, 1.958980e+003
1.674040e+002, 1.950262e+003
1.678861e+002, 1.943157e+003
1.683682e+002, 1.937780e+003
1.688503e+002, 1.932408e+003
1.693325e+002, 1.925822e+003
1.698146e+002, 1.918508e+003
1.702967e+002, 1.911354e+003
1.707788e+002, 1.905459e+003
1.712609e+002, 1.899428e+003
1.717430e+002, 1.891691e+003
1.722252e+002, 1.881925e+003
1.727073e+002, 1.872286e+003
1.731894e+002, 1.864603e+003
1.736715e+002, 1.858297e+003
1.741536e+002, 1.852323e+003
1.746357e+002, 1.845943e+003
1.751179e+002, 1.839574e+003
1.756000e+002, 1.833937e+003
1.760821e+002, 1.829315e+003
1.765642e+002, 1.824470e+003
1.770463e+002, 1.818120e+003
1.775284e+002, 1.810514e+003
1.780106e+002, 1.802546e+003
1.784927e+002, 1.793969e+003
1.789748e+002, 1.785465e+003
1.794569e+002, 1.778589e+003
1.799390e+002, 1.773657e+003
1.804211e+002, 1.769480e+003
1.809033e+002, 1.764557e+003
1.813854e+002, 1.759047e+003
1.818675e+002, 1.753809e+003
1.823496e+002, 1.749423e+003
1.828317e+002, 1.745671e+003
1.833138e+002, 1.741848e+003
1.837960e+002, 1.737969e+003
1.842781e+002, 1.733854e+003
1.847602e+002, 1.728976e+003
1.852423e+002, 1.723422e+003
1.857244e+002, 1.718362e+003
1.862065e+002, 1.715166e+003
1.866887e+002, 1.713141e+003
1.871708e+002, 1.709438e+003
1.876529e+002, 1.703378e+003
1.881350e+002, 1.696304e+003
1.886171e+002, 1.690365e+003
1.890992e+002, 1.685502e+003
1.895814e+002, 1.681577e+003
1.900635e+002, 1.679101e+003
1.905456e+002, 1.677748e+003
1.910277e+002, 1.675368e+003
1.915098e+002, 1.671440e+003
1.919919e+002, 1.666813e+003
1.924741e+002, 1.663365e+003
1.929562e+002, 1.661154e+003
1.934383e+002, 1.659186e+003
1.939204e+002, 1.656788e+003
1.944025e+002, 1.653992e+003
1.948846e+002, 1.651369e+003
1.953668e+002, 1.648945e+003
1.958489e+002, 1.646763e+003
1.963310e+002, 1.645001e+003
1.968131e+002, 1.643697e+003
1.972952e+002, 1.642502e+003
1.977773e+002, 1.641223e+003
1.982595e+002, 1.639869e+003
1.987416e+002, 1.638195e+003
1.992237e+002, 1.635878e+003
1.997058e+002, 1.633492e+003
2.001879e+002, 1.632945e+003
2.006700e+002, 1.634597e+003
2.011522e+002, 1.636511e+003
2.016343e+002, 1.637264e+003
2.021164e+002, 1.636724e+003
2.025985e+002, 1.636473e+003
2.030806e+002, 1.636703e+003
2.035627e+002, 1.637342e+003
2.040449e+002, 1.638296e+003
2.045270e+002, 1.639717e+003
2.050091e+002, 1.640915e+003
2.054912e+002, 1.641268e+003
2.059733e+002, 1.640587e+003
2.064554e+002, 1.640160e+003
2.069376e+002, 1.640207e+003
2.074197e+002, 1.640588e+003
2.079018e+002, 1.640549e+003
2.083839e+002, 1.639677e+003
2.088660e+002, 1.639473e+003
2.093481e+002, 1.641274e+003
2.098303e+002, 1.645646e+003
2.103124e+002, 1.649652e+003
2.107945e+002, 1.653182e+003
2.112766e+002, 1.656093e+003
2.117587e+002, 1.657527e+003
2.122408e+002, 1.656624e+003
2.127230e+002, 1.656086e+003
2.132051e+002, 1.658011e+003
2.136872e+002, 1.663323e+003
2.141693e+002, 1.667870e+003
2.146514e+002, 1.671080e+003
2.151335e+002, 1.673136e+003
2.156157e+002, 1.674733e+003
2.160978e+002, 1.675619e+003
2.165799e+002, 1.676435e+003
2.170620e+002, 1.677570e+003
2.175441e+002, 1.679023e+003
2.180262e+002, 1.680807e+003
2.185084e+002, 1.683220e+003
2.189905e+002, 1.686000e+003
2.194726e+002, 1.687747e+003
2.199547e+002, 1.688361e+003
2.204368e+002, 1.688209e+003
2.209189e+002, 1.687295e+003
2.214011e+002, 1.684920e+003
2.218832e+002, 1.683822e+003
2.223653e+002, 1.684952e+003
2.228474e+002, 1.687577e+003
2.233295e+002, 1.688234e+003
2.238116e+002, 1.686098e+003
2.242938e+002, 1.683313e+003
2.247759e+002, 1.681133e+003
2.252580e+002, 1.679812e+003
2.257401e+002, 1.678516e+003
2.262222e+002, 1.677279e+003
2.267043e+002, 1.676004e+003
2.271865e+002, 1.674158e+003
2.276686e+002, 1.671293e+003
2.281507e+002, 1.668545e+003
2.286328e+002, 1.666686e+003
2.291149e+002, 1.666285e+003
2.295970e+002, 1.665368e+003
2.300792e+002, 1.663334e+003
2.305613e+002, 1.660714e+003
2.310434e+002, 1.659686e+003
2.315255e+002, 1.660796e+003
2.320076e+002, 1.662756e+003
2.324897e+002, 1.665010e+003
2.329719e+002, 1.667959e+003
2.334540e+002, 1.670362e+003
2.339361e+002, 1.672141e+003
2.344182e+002, 1.673380e+003
2.349003e+002, 1.674267e+003
2.353824e+002, 1.674296e+003
2.358646e+002, 1.674699e+003
2.363467e+002, 1.676008e+003
2.368288e+002, 1.678082e+003
2.373109e+002, 1.681411e+003
2.377930e+002, 1.686525e+003
2.382751e+002, 1.692796e+003
2.387573e+002, 1.698171e+003
2.392394e+002, 1.702180e+003
2.397215e+002, 1.705898e+003
2.402036e+002, 1.709825e+003
2.406857e+002, 1.714096e+003
2.411678e+002, 1.718185e+003
2.416500e+002, 1.721962e+003
2.421321e+002, 1.725554e+003
2.426142e+002, 1.729291e+003
2.430963e+002, 1.732754e+003
2.435784e+002, 1.736969e+003
2.440605e+002, 1.742486e+003
2.445427e+002, 1.750090e+003
2.450248e+002, 1.756949e+003
2.455069e+002, 1.762171e+003
2.459890e+002, 1.767058e+003
2.464711e+002, 1.774636e+003
2.469532e+002, 1.786843e+003
2.474354e+002, 1.798692e+003
2.479175e+002, 1.807696e+003
2.483996e+002, 1.812099e+003
2.488817e+002, 1.819714e+003
2.493638e+002, 1.831594e+003
2.498459e+002, 1.846130e+003
2.503281e+002, 1.860199e+003
2.508102e+002, 1.872762e+003
2.512923e+002, 1.886803e+003
2.517744e+002, 1.903911e+003
2.522565e+002, 1.924885e+003
2.527386e+002, 1.944742e+003
2.532208e+002, 1.962383e+003
2.537029e+002, 1.979713e+003
2.541850e+002, 2.000240e+003
2.546671e+002, 2.025295e+003
2.551492e+002, 2.051008e+003
2.556313e+002, 2.075870e+003
2.561135e+002, 2.099406e+003
2.565956e+002, 2.124429e+003
2.570777e+002, 2.150628e+003
2.575598e+002, 2.178220e+003
2.580419e+002, 2.207500e+003
2.585240e+002, 2.238242e+003
2.590062e+002, 2.270403e+003
2.594883e+002, 2.304372e+003
2.599704e+002, 2.339624e+003
2.604525e+002, 2.375507e+003
2.609346e+002, 2.411530e+003
2.614167e+002, 2.448257e+003
2.618989e+002, 2.486577e+003
2.623810e+002, 2.526871e+003
2.628631e+002, 2.566853e+003
2.633452e+002, 2.604906e+003
2.638273e+002, 2.641593e+003
2.643094e+002, 2.681790e+003
2.647916e+002, 2.727354e+003
2.652737e+002, 2.774565e+003
2.657558e+002, 2.820694e+003
2.662379e+002, 2.865335e+003
2.667200e+002, 2.909463e+003
2.672021e+002, 2.954290e+003
2.676843e+002, 2.999263e+003
2.681664e+002, 3.041017e+003
2.686485e+002, 3.079661e+003
2.691306e+002, 3.114670e+003
2.696127e+002, 3.145246e+003
2.700948e+002, 3.171290e+003
2.705770e+002, 3.192812e+003
2.710591e+002, 3.209753e+003
2.715412e+002, 3.221899e+003
2.720233e+002, 3.228868e+003
2.725054e+002, 3.230798e+003
2.729875e+002, 3.226619e+003
2.734697e+002, 3.215254e+003
2.739518e+002, 3.196210e+003
2.744339e+002, 3.172226e+003
2.749160e+002, 3.143430e+003
2.753981e+002, 3.110177e+003
2.758802e+002, 3.072543e+003
2.763624e+002, 3.030980e+003
2.768445e+002, 2.985513e+003
2.773266e+002, 2.935894e+003
2.778087e+002, 2.882018e+003
2.782908e+002, 2.825558e+003
2.787729e+002, 2.766349e+003
2.792551e+002, 2.705074e+003
2.797372e+002, 2.644300e+003
2.802193e+002, 2.583704e+003
2.807014e+002, 2.524409e+003
2.811835e+002, 2.466056e+003
2.816656e+002, 2.408672e+003
2.821478e+002, 2.353843e+003
2.826299e+002, 2.301398e+003
2.831120e+002, 2.251996e+003
2.835941e+002, 2.206891e+003
2.840762e+002, 2.165968e+003
2.845583e+002, 2.128423e+003
2.850405e+002, 2.093890e+003
2.855226e+002, 2.062265e+003
2.860047e+002, 2.032458e+003
2.864868e+002, 2.004317e+003
2.869689e+002, 1.978471e+003
2.874510e+002, 1.956126e+003
2.879332e+002, 1.937190e+003
2.884153e+002, 1.919752e+003
2.888974e+002, 1.903272e+003
2.893795e+002, 1.887862e+003
2.898616e+002, 1.874954e+003
2.903438e+002, 1.864763e+003
2.908259e+002, 1.855550e+003
2.913080e+002, 1.844623e+003
2.917901e+002, 1.832644e+003
2.922722e+002, 1.823037e+003
2.927543e+002, 1.817599e+003
2.932365e+002, 1.815044e+003
2.937186e+002, 1.812433e+003
2.942007e+002, 1.809775e+003
2.946828e+002, 1.807945e+003
2.951649e+002, 1.807846e+003
2.956470e+002, 1.809248e+003
2.961292e+002, 1.811415e+003
2.966113e+002, 1.814208e+003
2.970934e+002, 1.817594e+003
2.975755e+002, 1.821505e+003
2.980576e+002, 1.825983e+003
2.985397e+002, 1.831169e+003
2.990219e+002, 1.837292e+003
2.995040e+002, 1.844276e+003
2.999861e+002, 1.851878e+003
3.004682e+002, 1.860107e+003
3.009503e+002, 1.868854e+003
3.014324e+002, 1.877591e+003
3.019146e+002, 1.886588e+003
3.023967e+002, 1.897314e+003
3.028788e+002, 1.911253e+003
3.033609e+002, 1.927263e+003
3.038430e+002, 1.943186e+003
3.043251e+002, 1.958360e+003
3.048073e+002, 1.974804e+003
3.052894e+002, 1.994879e+003
3.057715e+002, 2.017734e+003
3.062536e+002, 2.041902e+003
3.067357e+002, 2.065979e+003
3.072178e+002, 2.091094e+003
3.077000e+002, 2.117704e+003
3.081821e+002, 2.145709e+003
3.086642e+002, 2.176350e+003
3.091463e+002, 2.210786e+003
3.096284e+002, 2.248223e+003
3.101105e+002, 2.287999e+003
3.105927e+002, 2.328875e+003
3.110748e+002, 2.372055e+003
3.115569e+002, 2.418710e+003
3.120390e+002, 2.468911e+003
3.125211e+002, 2.522361e+003
3.130032e+002, 2.578573e+003
3.134854e+002, 2.638712e+003
3.139675e+002, 2.703293e+003
3.144496e+002, 2.774642e+003
3.149317e+002, 2.848363e+003
3.154138e+002, 2.924330e+003
3.158959e+002, 3.001867e+003
3.163781e+002, 3.078983e+003
3.168602e+002, 3.152258e+003
3.173423e+002, 3.225490e+003
3.178244e+002, 3.301031e+003
3.183065e+002, 3.377689e+003
3.187886e+002, 3.459062e+003
3.192708e+002, 3.545461e+003
3.197529e+002, 3.636958e+003
3.202350e+002, 3.734150e+003
3.207171e+002, 3.836573e+003
3.211992e+002, 3.944043e+003
3.216813e+002, 4.056396e+003
3.221635e+002, 4.174007e+003
3.226456e+002, 4.295429e+003
3.231277e+002, 4.419083e+003
3.236098e+002, 4.546497e+003
3.240919e+002, 4.680820e+003
3.245740e+002, 4.823805e+003
3.250562e+002, 4.970842e+003
3.255383e+002, 5.122358e+003
3.260204e+002, 5.281063e+003
3.265025e+002, 5.432944e+003
3.269846e+002, 5.580856e+003
3.274667e+002, 5.719666e+003
3.279489e+002, 5.845899e+003
3.284310e+002, 5.969214e+003
3.289131e+002, 6.069774e+003
3.293952e+002, 6.146927e+003
3.298773e+002, 6.200864e+003
3.303594e+002, 6.226479e+003
3.308416e+002, 6.223831e+003
3.313237e+002, 6.192816e+003
3.318058e+002, 6.132777e+003
3.322879e+002, 6.038470e+003
3.327700e+002, 5.922531e+003
3.332521e+002, 5.780753e+003
3.337343e+002, 5.616525e+003
3.342164e+002, 5.445096e+003
3.346985e+002, 5.266997e+003
3.351806e+002, 5.083731e+003
3.356627e+002, 4.893591e+003
3.361448e+002, 4.692849e+003
3.366270e+002, 4.501431e+003
3.371091e+002, 4.321108e+003
3.375912e+002, 4.151652e+003
3.380733e+002, 3.989366e+003
3.385554e+002, 3.834776e+003
3.390375e+002, 3.690771e+003
3.395197e+002, 3.558907e+003
3.400018e+002, 3.440555e+003
3.404839e+002, 3.329148e+003
3.409660e+002, 3.226645e+003
3.414481e+002, 3.131315e+003
3.419302e+002, 3.044083e+003
3.424124e+002, 2.964408e+003
3.428945e+002, 2.890083e+003
3.433766e+002, 2.819921e+003
3.438587e+002, 2.754361e+003
3.443408e+002, 2.691961e+003
3.448229e+002, 2.632856e+003
3.453051e+002, 2.578210e+003
3.457872e+002, 2.529960e+003
3.462693e+002, 2.487738e+003
3.467514e+002, 2.447465e+003
3.472335e+002, 2.408620e+003
3.477156e+002, 2.371535e+003
3.481978e+002, 2.338235e+003
3.486799e+002, 2.308545e+003
3.491620e+002, 2.280073e+003
3.496441e+002, 2.250645e+003
3.501262e+002, 2.221304e+003
3.506083e+002, 2.194796e+003
3.510905e+002, 2.171487e+003
3.515726e+002, 2.149948e+003
3.520547e+002, 2.128388e+003
3.525368e+002, 2.107104e+003
3.530189e+002, 2.087011e+003
3.535010e+002, 2.068609e+003
3.539832e+002, 2.051614e+003
3.544653e+002, 2.035868e+003
3.549474e+002, 2.021230e+003
3.554295e+002, 2.007430e+003
3.559116e+002, 1.994139e+003
3.563937e+002, 1.981467e+003
3.568759e+002, 1.969776e+003
3.573580e+002, 1.960115e+003
3.578401e+002, 1.950568e+003
3.583222e+002, 1.939627e+003
3.588043e+002, 1.927442e+003
3.592864e+002, 1.915507e+003
3.597686e+002, 1.904111e+003
3.602507e+002, 1.893503e+003
3.607328e+002, 1.884076e+003
3.612149e+002, 1.876198e+003
3.616970e+002, 1.868857e+003
3.621791e+002, 1.861419e+003
3.626613e+002, 1.854190e+003
3.631434e+002, 1.847894e+003
3.636255e+002, 1.843851e+003
3.641076e+002, 1.839890e+003
3.645897e+002, 1.834778e+003
3.650718e+002, 1.827992e+003
3.655540e+002, 1.821751e+003
3.660361e+002, 1.817338e+003
3.665182e+002, 1.813387e+003
3.670003e+002, 1.808268e+003
3.674824e+002, 1.800402e+003
3.679645e+002, 1.792826e+003
3.684467e+002, 1.785916e+003
3.689288e+002, 1.779796e+003
3.694109e+002, 1.774953e+003
3.698930e+002, 1.772413e+003
3.703751e+002, 1.770418e+003
3.708572e+002, 1.767778e+003
3.713394e+002, 1.764049e+003
3.718215e+002, 1.760529e+003
3.723036e+002, 1.757431e+003
3.727857e+002, 1.754602e+003
3.732678e+002, 1.751404e+003
3.737499e+002, 1.747497e+003
3.742321e+002, 1.743727e+003
3.747142e+002, 1.740479e+003
3.751963e+002, 1.737731e+003
3.756784e+002, 1.735490e+003
3.761605e+002, 1.733912e+003
3.766426e+002, 1.732623e+003
3.771248e+002, 1.731193e+003
3.776069e+002, 1.729635e+003
3.780890e+002, 1.727740e+003
3.785711e+002, 1.725570e+003
3.790532e+002, 1.723037e+003
3.795353e+002, 1.719429e+003
3.800175e+002, 1.714535e+003
3.804996e+002, 1.709490e+003
3.809817e+002, 1.705324e+003
3.814638e+002, 1.701991e+003
3.819459e+002, 1.698924e+003
3.824280e+002, 1.696008e+003
3.829102e+002, 1.693338e+003
3.833923e+002, 1.691376e+003
3.838744e+002, 1.690020e+003
3.843565e+002, 1.688483e+003
3.848386e+002, 1.686604e+003
3.853207e+002, 1.684125e+003
3.858029e+002, 1.680322e+003
3.862850e+002, 1.674878e+003
3.867671e+002, 1.669201e+003
3.872492e+002, 1.664847e+003
3.877313e+002, 1.661340e+003
3.882134e+002, 1.657676e+003
3.886956e+002, 1.653020e+003
3.891777e+002, 1.648324e+003
3.896598e+002, 1.644437e+003
3.901419e+002, 1.641381e+003
3.906240e+002, 1.638716e+003
3.911061e+002, 1.636625e+003
3.915883e+002, 1.634602e+003
3.920704e+002, 1.632085e+003
3.925525e+002, 1.628635e+003
3.930346e+002, 1.625110e+003
3.935167e+002, 1.621514e+003
3.939988e+002, 1.618077e+003
3.944810e+002, 1.615380e+003
3.949631e+002, 1.614827e+003
3.954452e+002, 1.614132e+003
3.959273e+002, 1.611757e+003
3.964094e+002, 1.606522e+003
3.968915e+002, 1.602822e+003
3.973737e+002, 1.602317e+003
3.978558e+002, 1.603471e+003
3.983379e+002, 1.604391e+003
3.988200e+002, 1.604899e+003
3.993021e+002, 1.605101e+003
3.997842e+002, 1.605073e+003
4.002664e+002, 1.604796e+003
4.007485e+002, 1.603843e+003
4.012306e+002, 1.601237e+003
4.017127e+002, 1.598876e+003
4.021948e+002, 1.598123e+003
4.026769e+002, 1.600155e+003
4.031591e+002, 1.601191e+003
4.036412e+002, 1.600809e+003
4.041233e+002, 1.599394e+003
4.046054e+002, 1.597774e+003
4.050875e+002, 1.595831e+003
4.055696e+002, 1.594104e+003
4.060518e+002, 1.592834e+003
4.065339e+002, 1.592043e+003
4.070160e+002, 1.591599e+003
4.074981e+002, 1.591666e+003
4.079802e+002, 1.591717e+003
4.084623e+002, 1.590910e+003
4.089445e+002, 1.589286e+003
4.094266e+002, 1.588258e+003
4.099087e+002, 1.588456e+003
4.103908e+002, 1.589310e+003
4.108729e+002, 1.589477e+003
4.113550e+002, 1.588985e+003
4.118372e+002, 1.588254e+003
4.123193e+002, 1.587107e+003
4.128014e+002, 1.585980e+003
4.132835e+002, 1.586031e+003
4.137656e+002, 1.587583e+003
4.142477e+002, 1.589572e+003
4.147299e+002, 1.591087e+003
4.152120e+002, 1.592127e+003
4.156941e+002, 1.592675e+003
4.161762e+002, 1.591845e+003
4.166583e+002, 1.591040e+003
4.171404e+002, 1.591765e+003
4.176226e+002, 1.593970e+003
4.181047e+002, 1.596064e+003
4.185868e+002, 1.597138e+003
4.190689e+002, 1.597627e+003
4.195510e+002, 1.597943e+003
4.200331e+002, 1.597921e+003
4.205153e+002, 1.598086e+003
4.209974e+002, 1.599200e+003
4.214795e+002, 1.600714e+003
4.219616e+002, 1.601170e+003
4.224437e+002, 1.599316e+003
4.229258e+002, 1.597134e+003
4.234080e+002, 1.595326e+003
4.238901e+002, 1.593829e+003
4.243722e+002, 1.593186e+003
4.248543e+002, 1.594354e+003
4.253364e+002, 1.596010e+003
4.258185e+002, 1.596851e+003
4.263007e+002, 1.596360e+003
4.267828e+002, 1.595847e+003
4.272649e+002, 1.595530e+003
4.277470e+002, 1.595357e+003
4.282291e+002, 1.594886e+003
4.287112e+002, 1.593749e+003
4.291934e+002, 1.592935e+003
4.296755e+002, 1.593166e+003
4.301576e+002, 1.594766e+003
4.306397e+002, 1.595541e+003
4.311218e+002, 1.595110e+003
4.316039e+002, 1.594326e+003
4.320861e+002, 1.594787e+003
4.325682e+002, 1.596605e+003
4.330503e+002, 1.597924e+003
4.335324e+002, 1.597916e+003
4.340145e+002, 1.596974e+003
4.344966e+002, 1.596481e+003
4.349788e+002, 1.596466e+003
4.354609e+002, 1.596481e+003
4.359430e+002, 1.596037e+003
4.364251e+002, 1.595338e+003
4.369072e+002, 1.594826e+003
4.373893e+002, 1.594432e+003
4.378715e+002, 1.594643e+003
4.383536e+002, 1.596348e+003
4.388357e+002, 1.599159e+003
4.393178e+002, 1.601997e+003
4.397999e+002, 1.604645e+003
4.402820e+002, 1.606838e+003
4.407642e+002, 1.608337e+003
4.412463e+002, 1.609123e+003
4.417284e+002, 1.609158e+003
4.422105e+002, 1.607556e+003
4.426926e+002, 1.605562e+003
4.431747e+002, 1.604394e+003
4.436569e+002, 1.605277e+003
4.441390e+002, 1.605912e+003
4.446211e+002, 1.605285e+003
4.451032e+002, 1.603826e+003
4.455853e+002, 1.602807e+003
4.460674e+002, 1.602315e+003
4.465496e+002, 1.602460e+003
4.470317e+002, 1.603776e+003
4.475138e+002, 1.607380e+003
4.479959e+002, 1.608451e+003
4.484780e+002, 1.604982e+003
4.489601e+002, 1.600459e+003
4.494423e+002, 1.598334e+003
4.499244e+002, 1.599829e+003
4.504065e+002, 1.601326e+003
4.508886e+002, 1.602467e+003
4.513707e+002, 1.603197e+003
4.518528e+002, 1.603010e+003
4.523350e+002, 1.601370e+003
4.528171e+002, 1.600386e+003
4.532992e+002, 1.601745e+003
4.537813e+002, 1.605481e+003
4.542634e+002, 1.607346e+003
4.547455e+002, 1.606890e+003
4.552277e+002, 1.605643e+003
4.557098e+002, 1.605420e+003
4.561919e+002, 1.606128e+003
4.566740e+002, 1.607259e+003
4.571561e+002, 1.608846e+003
4.576382e+002, 1.610563e+003
4.581204e+002, 1.611950e+003
4.586025e+002, 1.613001e+003
4.590846e+002, 1.613540e+003
4.595667e+002, 1.612970e+003
4.600488e+002, 1.612044e+003
4.605309e+002, 1.611717e+003
4.610131e+002, 1.612157e+003
4.614952e+002, 1.613109e+003
4.619773e+002, 1.614836e+003
4.624594e+002, 1.616857e+003
4.629415e+002, 1.618486e+003
4.634236e+002, 1.619372e+003
4.639058e+002, 1.619867e+003
4.643879e+002, 1.619980e+003
4.648700e+002, 1.619751e+003
4.653521e+002, 1.619583e+003
4.658342e+002, 1.619263e+003
4.663163e+002, 1.619239e+003
4.667985e+002, 1.619740e+003
4.672806e+002, 1.620728e+003
4.677627e+002, 1.622385e+003
4.682448e+002, 1.626162e+003
4.687269e+002, 1.629958e+003
4.692090e+002, 1.630572e+003
4.696912e+002, 1.625617e+003
4.701733e+002, 1.621845e+003
4.706554e+002, 1.621078e+003
4.711375e+002, 1.622978e+003
4.716196e+002, 1.624400e+003
4.721017e+002, 1.625412e+003
4.725839e+002, 1.625745e+003
4.730660e+002, 1.624793e+003
4.735481e+002, 1.622545e+003
4.740302e+002, 1.621476e+003
4.745123e+002, 1.621985e+003
4.749944e+002, 1.623205e+003
4.754766e+002, 1.623911e+003
4.759587e+002, 1.624197e+003
4.764408e+002, 1.624611e+003
4.769229e+002, 1.625860e+003
4.774050e+002, 1.627112e+003
4.778871e+002, 1.626263e+003
4.783693e+002, 1.623632e+003
4.788514e+002, 1.621982e+003
4.793335e+002, 1.624460e+003
4.798156e+002, 1.628524e+003
4.802977e+002, 1.630958e+003
4.807798e+002, 1.630742e+003
4.812620e+002, 1.630401e+003
4.817441e+002, 1.631623e+003
4.822262e+002, 1.633568e+003
4.827083e+002, 1.635002e+003
4.831904e+002, 1.634588e+003
4.836725e+002, 1.634443e+003
4.841547e+002, 1.635547e+003
4.846368e+002, 1.637794e+003
4.851189e+002, 1.639717e+003
4.856010e+002, 1.640433e+003
4.860831e+002, 1.641298e+003
4.865652e+002, 1.643169e+003
4.870474e+002, 1.647543e+003
4.875295e+002, 1.649560e+003
4.880116e+002, 1.647797e+003
4.884937e+002, 1.644706e+003
4.889758e+002, 1.643878e+003
4.894579e+002, 1.646121e+003
4.899401e+002, 1.648225e+003
4.904222e+002, 1.649597e+003
4.909043e+002, 1.650219e+003
4.913864e+002, 1.649676e+003
4.918685e+002, 1.647733e+003
4.923506e+002, 1.646238e+003
4.928328e+002, 1.647083e+003
4.933149e+002, 1.649615e+003
4.937970e+002, 1.650608e+003
4.942791e+002, 1.649605e+003
4.947612e+002, 1.648222e+003
4.952433e+002, 1.648671e+003
4.957255e+002, 1.650221e+003
4.962076e+002, 1.650952e+003
4.966897e+002, 1.649441e+003
4.971718e+002, 1.647550e+003
4.976539e+002, 1.646791e+003
4.981360e+002, 1.647123e+003
4.986182e+002, 1.648377e+003
4.991003e+002, 1.652077e+003
4.995824e+002, 1.655569e+003
5.000645e+002, 1.656430e+003
5.005466e+002, 1.653592e+003
5.010287e+002, 1.651886e+003
5.015109e+002, 1.653728e+003
5.019930e+002, 1.656899e+003
5.024751e+002, 1.659164e+003
5.029572e+002, 1.660080e+003
5.034393e+002, 1.660197e+003
5.039214e+002, 1.658729e+003
5.044036e+002, 1.656444e+003
5.048857e+002, 1.656144e+003
5.053678e+002, 1.658978e+003
5.058499e+002, 1.661820e+003
5.063320e+002, 1.663366e+003
5.068141e+002, 1.663527e+003
5.072963e+002, 1.663740e+003
5.077784e+002, 1.663905e+003
5.082605e+002, 1.664428e+003
5.087426e+002, 1.666192e+003
5.092247e+002, 1.669052e+003
5.097068e+002, 1.670590e+003
5.101890e+002, 1.669863e+003
5.106711e+002, 1.668533e+003
5.111532e+002, 1.669840e+003
5.116353e+002, 1.673233e+003
5.121174e+002, 1.676055e+003
5.125995e+002, 1.676330e+003
5.130817e+002, 1.675610e+003
5.135638e+002, 1.675967e+003
5.140459e+002, 1.677378e+003
5.145280e+002, 1.678324e+003
5.150101e+002, 1.676709e+003
5.154922e+002, 1.674777e+003
5.159744e+002, 1.674849e+003
5.164565e+002, 1.678722e+003
5.169386e+002, 1.682048e+003
5.174207e+002, 1.683208e+003
5.179028e+002, 1.682985e+003
5.183849e+002, 1.682651e+003
5.188671e+002, 1.681516e+003
5.193492e+002, 1.681271e+003
5.198313e+002, 1.682586e+003
5.203134e+002, 1.685318e+003
5.207955e+002, 1.687644e+003
5.212776e+002, 1.689526e+003
5.217598e+002, 1.691028e+003
5.222419e+002, 1.692006e+003
5.227240e+002, 1.692248e+003
5.232061e+002, 1.693164e+003
5.236882e+002, 1.694997e+003
5.241703e+002, 1.697020e+003
5.246525e+002, 1.698107e+003
5.251346e+002, 1.698346e+003
5.256167e+002, 1.699103e+003
5.260988e+002, 1.701251e+003
5.265809e+002, 1.703562e+003
5.270630e+002, 1.703213e+003
5.275452e+002, 1.700679e+003
5.280273e+002, 1.698621e+003
5.285094e+002, 1.698504e+003
5.289915e+002, 1.699779e+003
5.294736e+002, 1.702307e+003
5.299557e+002, 1.706141e+003
5.304379e+002, 1.709392e+003
5.309200e+002, 1.709871e+003
5.314021e+002, 1.709722e+003
5.318842e+002, 1.711200e+003
5.323663e+002, 1.717197e+003
5.328484e+002, 1.721429e+003
5.333306e+002, 1.721061e+003
5.338127e+002, 1.717923e+003
5.342948e+002, 1.715891e+003
5.347769e+002, 1.715556e+003
5.352590e+002, 1.716019e+003
5.357411e+002, 1.717294e+003
5.362233e+002, 1.719360e+003
5.367054e+002, 1.721452e+003
5.371875e+002, 1.723961e+003
5.376696e+002, 1.725774e+003
5.381517e+002, 1.725646e+003
5.386339e+002, 1.723323e+003
5.391160e+002, 1.723012e+003
5.395981e+002, 1.725394e+003
5.400802e+002, 1.728564e+003
5.405623e+002, 1.729601e+003
5.410444e+002, 1.728994e+003
5.415266e+002, 1.729647e+003
5.420087e+002, 1.733087e+003
5.424908e+002, 1.737488e+003
5.429729e+002, 1.739958e+003
5.434550e+002, 1.740948e+003
5.439371e+002, 1.742374e+003
5.444193e+002, 1.746109e+003
5.449014e+002, 1.750210e+003
5.453835e+002, 1.753232e+003
5.458656e+002, 1.755038e+003
5.463477e+002, 1.755773e+003
5.468298e+002, 1.753510e+003
5.473120e+002, 1.751311e+003
5.477941e+002, 1.751752e+003
5.482762e+002, 1.758437e+003
5.487583e+002, 1.763358e+003
5.492404e+002, 1.765127e+003
5.497225e+002, 1.765017e+003
5.502047e+002, 1.765139e+003
5.506868e+002, 1.765697e+003
5.511689e+002, 1.766021e+003
5.516510e+002, 1.765569e+003
5.521331e+002, 1.764680e+003
5.526152e+002, 1.766067e+003
5.530974e+002, 1.770260e+003
5.535795e+002, 1.774215e+003
5.540616e+002, 1.775617e+003
5.545437e+002, 1.774947e+003
5.550258e+002, 1.774658e+003
5.555079e+002, 1.774824e+003
5.559901e+002, 1.775974e+003
5.564722e+002, 1.779744e+003
5.569543e+002, 1.784824e+003
5.574364e+002, 1.788336e+003
5.579185e+002, 1.788667e+003
5.584006e+002, 1.788444e+003
5.588828e+002, 1.789348e+003
5.593649e+002, 1.791266e+003
5.598470e+002, 1.793976e+003
5.603291e+002, 1.798852e+003
5.608112e+002, 1.803088e+003
5.612933e+002, 1.804656e+003
5.617755e+002, 1.803439e+003
5.622576e+002, 1.804026e+003
5.627397e+002, 1.808555e+003
5.632218e+002, 1.813767e+003
5.637039e+002, 1.818227e+003
5.641860e+002, 1.822048e+003
5.646682e+002, 1.824756e+003
5.651503e+002, 1.826016e+003
5.656324e+002, 1.826667e+003
5.661145e+002, 1.827601e+003
5.665966e+002, 1.828812e+003
5.670787e+002, 1.830870e+003
5.675609e+002, 1.834224e+003
5.680430e+002, 1.838169e+003
5.685251e+002, 1.840890e+003
5.690072e+002, 1.842589e+003
5.694893e+002, 1.844541e+003
5.699714e+002, 1.847644e+003
5.704536e+002, 1.851358e+003
5.709357e+002, 1.855018e+003
5.714178e+002, 1.858580e+003
5.718999e+002, 1.862015e+003
5.723820e+002, 1.864822e+003
5.728641e+002, 1.867705e+003
5.733463e+002, 1.871411e+003
5.738284e+002, 1.876646e+003
5.743105e+002, 1.881173e+003
5.747926e+002, 1.884186e+003
5.752747e+002, 1.886152e+003
5.757568e+002, 1.887608e+003
5.762390e+002, 1.886628e+003
5.767211e+002, 1.887835e+003
5.772032e+002, 1.892662e+003
5.776853e+002, 1.899981e+003
5.781674e+002, 1.905742e+003
5.786495e+002, 1.909578e+003
5.791317e+002, 1.912966e+003
5.796138e+002, 1.916629e+003
5.800959e+002, 1.920444e+003
5.805780e+002, 1.922965e+003
5.810601e+002, 1.924084e+003
5.815422e+002, 1.925489e+003
5.820244e+002, 1.929041e+003
5.825065e+002, 1.933971e+003
5.829886e+002, 1.938223e+003
5.834707e+002, 1.941507e+003
5.839528e+002, 1.944598e+003
5.844349e+002, 1.947925e+003
5.849171e+002, 1.951588e+003
5.853992e+002, 1.955746e+003
5.858813e+002, 1.961409e+003
5.863634e+002, 1.966539e+003
5.868455e+002, 1.970011e+003
5.873276e+002, 1.972257e+003
5.878098e+002, 1.974336e+003
5.882919e+002, 1.975688e+003
5.887740e+002, 1.977670e+003
5.892561e+002, 1.981223e+003
5.897382e+002, 1.986396e+003
5.902203e+002, 1.989331e+003
5.907025e+002, 1.989147e+003
5.911846e+002, 1.988241e+003
5.916667e+002, 1.987982e+003
5.921488e+002, 1.988382e+003
5.926309e+002, 1.989646e+003
5.931130e+002, 1.992060e+003
5.935952e+002, 1.994390e+003
5.940773e+002, 1.994558e+003
5.945594e+002, 1.993254e+003
5.950415e+002, 1.993347e+003
5.955236e+002, 1.996393e+003
5.960057e+002, 1.999579e+003
5.964879e+002, 1.999190e+003
5.969700e+002, 1.996480e+003
5.974521e+002, 1.994368e+003
5.979342e+002, 1.994832e+003
5.984163e+002, 1.995707e+003
5.988984e+002, 1.995834e+003
5.993806e+002, 1.995246e+003
5.998627e+002, 1.994619e+003
6.003448e+002, 1.993731e+003
6.008269e+002, 1.993143e+003
6.013090e+002, 1.993203e+003
6.017911e+002, 1.994177e+003
6.022733e+002, 1.994767e+003
6.027554e+002, 1.995241e+003
6.032375e+002, 1.994946e+003
6.037196e+002, 1.992783e+003
6.042017e+002, 1.988423e+003
6.046838e+002, 1.985640e+003
6.051660e+002, 1.985203e+003
6.056481e+002, 1.985717e+003
6.061302e+002, 1.984835e+003
6.066123e+002, 1.982875e+003
6.070944e+002, 1.981356e+003
6.075765e+002, 1.981608e+003
6.080587e+002, 1.981785e+003
6.085408e+002, 1.978719e+003
6.090229e+002, 1.973480e+003
6.095050e+002, 1.969798e+003
6.099871e+002, 1.971651e+003
6.104692e+002, 1.974025e+003
6.109514e+002, 1.973376e+003
6.114335e+002, 1.969241e+003
6.119156e+002, 1.966399e+003
6.123977e+002, 1.967935e+003
6.128798e+002, 1.969396e+003
6.133619e+002, 1.967988e+003
6.138441e+002, 1.961709e+003
6.143262e+002, 1.957419e+003
6.148083e+002, 1.955679e+003
6.152904e+002, 1.955147e+003
6.157725e+002, 1.954371e+003
6.162546e+002, 1.953378e+003
6.167368e+002, 1.951933e+003
6.172189e+002, 1.949863e+003
6.177010e+002, 1.947547e+003
6.181831e+002, 1.945416e+003
6.186652e+002, 1.943577e+003
6.191473e+002, 1.942448e+003
6.196295e+002, 1.942564e+003
6.201116e+002, 1.943288e+003
6.205937e+002, 1.944598e+003
6.210758e+002, 1.946175e+003
6.215579e+002, 1.946472e+003
6.220400e+002, 1.942938e+003
6.225222e+002, 1.939295e+003
6.230043e+002, 1.937940e+003
6.234864e+002, 1.939586e+003
6.239685e+002, 1.940617e+003
6.244506e+002, 1.940082e+003
6.249327e+002, 1.939307e+003
6.254149e+002, 1.939271e+003
6.258970e+002, 1.940549e+003
6.263791e+002, 1.940654e+003
6.268612e+002, 1.939028e+003
6.273433e+002, 1.937010e+003
6.278254e+002, 1.936564e+003
6.283076e+002, 1.937625e+003
6.287897e+002, 1.938938e+003
6.292718e+002, 1.940464e+003
6.297539e+002, 1.941650e+003
6.302360e+002, 1.940474e+003
6.307181e+002, 1.937998e+003
6.312003e+002, 1.937620e+003
6.316824e+002, 1.944180e+003
6.321645e+002, 1.951054e+003
6.326466e+002, 1.952729e+003
6.331287e+002, 1.949788e+003
6.336108e+002, 1.946514e+003
6.340930e+002, 1.942752e+003
6.345751e+002, 1.940378e+003
6.350572e+002, 1.940864e+003
6.355393e+002, 1.944999e+003
6.360214e+002, 1.947976e+003
6.365035e+002, 1.949318e+003
6.369857e+002, 1.950069e+003
6.374678e+002, 1.950998e+003
6.379499e+002, 1.952160e+003
6.384320e+002, 1.953066e+003
6.389141e+002, 1.953707e+003
6.393962e+002, 1.953985e+003
6.398784e+002, 1.953259e+003
6.403605e+002, 1.951918e+003
6.408426e+002, 1.951625e+003
6.413247e+002, 1.952940e+003
6.418068e+002, 1.955333e+003
6.422889e+002, 1.959090e+003
6.427711e+002, 1.963487e+003
6.432532e+002, 1.966965e+003
6.437353e+002, 1.968454e+003
6.442174e+002, 1.969199e+003
6.446995e+002, 1.969342e+003
6.451816e+002, 1.969068e+003
6.456638e+002, 1.969467e+003
6.461459e+002, 1.971222e+003
6.466280e+002, 1.973148e+003
6.471101e+002, 1.974928e+003
6.475922e+002, 1.976546e+003
6.480743e+002, 1.977905e+003
6.485565e+002, 1.978931e+003
6.490386e+002, 1.979796e+003
6.495207e+002, 1.980383e+003
6.500028e+002, 1.980770e+003
6.504849e+002, 1.982120e+003
6.509670e+002, 1.984673e+003
6.514492e+002, 1.986899e+003
6.519313e+002, 1.986739e+003
6.524134e+002, 1.985139e+003
6.528955e+002, 1.983819e+003
6.533776e+002, 1.983049e+003
6.538597e+002, 1.982993e+003
6.543419e+002, 1.984119e+003
6.548240e+002, 1.985959e+003
6.553061e+002, 1.987782e+003
6.557882e+002, 1.989854e+003
6.562703e+002, 1.991418e+003
6.567524e+002, 1.991008e+003
6.572346e+002, 1.990009e+003
6.577167e+002, 1.993113e+003
6.581988e+002, 2.002883e+003
6.586809e+002, 2.011043e+003
6.591630e+002, 2.014879e+003
6.596451e+002, 2.014780e+003
6.601273e+002, 2.012099e+003
6.606094e+002, 2.006610e+003
6.610915e+002, 2.001928e+003
6.615736e+002, 2.000829e+003
6.620557e+002, 2.002037e+003
6.625378e+002, 2.003082e+003
6.630200e+002, 2.003821e+003
6.635021e+002, 2.005008e+003
6.639842e+002, 2.008362e+003
6.644663e+002, 2.011734e+003
6.649484e+002, 2.012517e+003
6.654305e+002, 2.008574e+003
6.659127e+002, 2.007101e+003
6.663948e+002, 2.011756e+003
6.668769e+002, 2.018748e+003
6.673590e+002, 2.024348e+003
6.678411e+002, 2.028725e+003
6.683232e+002, 2.031182e+003
6.688054e+002, 2.031213e+003
6.692875e+002, 2.029798e+003
6.697696e+002, 2.028314e+003
6.702517e+002, 2.026742e+003
6.707338e+002, 2.025800e+003
6.712159e+002, 2.025656e+003
6.716981e+002, 2.026292e+003
6.721802e+002, 2.027807e+003
6.726623e+002, 2.030103e+003
6.731444e+002, 2.032908e+003
6.736265e+002, 2.037528e+003
6.741086e+002, 2.041393e+003
6.745908e+002, 2.041684e+003
6.750729e+002, 2.039029e+003
6.755550e+002, 2.037679e+003
6.760371e+002, 2.040307e+003
6.765192e+002, 2.043353e+003
6.770013e+002, 2.045127e+003
6.774835e+002, 2.045440e+003
6.779656e+002, 2.046644e+003
6.784477e+002, 2.049062e+003
6.789298e+002, 2.051815e+003
6.794119e+002, 2.054157e+003
6.798940e+002, 2.056101e+003
6.803762e+002, 2.059005e+003
6.808583e+002, 2.063160e+003
6.813404e+002, 2.066810e+003
6.818225e+002, 2.067219e+003
6.823046e+002, 2.065944e+003
6.827867e+002, 2.066292e+003
6.832689e+002, 2.069114e+003
6.837510e+002, 2.073054e+003
6.842331e+002, 2.078135e+003
6.847152e+002, 2.083374e+003
6.851973e+002, 2.087397e+003
6.856794e+002, 2.088842e+003
6.861616e+002, 2.090330e+003
6.866437e+002, 2.092176e+003
6.871258e+002, 2.094419e+003
6.876079e+002, 2.097191e+003
6.880900e+002, 2.100696e+003
6.885721e+002, 2.104115e+003
6.890543e+002, 2.107259e+003
6.895364e+002, 2.110116e+003
6.900185e+002, 2.112457e+003
6.905006e+002, 2.114295e+003
6.909827e+002, 2.116659e+003
6.914648e+002, 2.120753e+003
6.919470e+002, 2.125341e+003
6.924291e+002, 2.128470e+003
6.929112e+002, 2.130342e+003
6.933933e+002, 2.132094e+003
6.938754e+002, 2.134736e+003
6.943575e+002, 2.137213e+003
6.948397e+002, 2.138291e+003
6.953218e+002, 2.137683e+003
6.958039e+002, 2.139090e+003
6.962860e+002, 2.144916e+003
6.967681e+002, 2.151101e+003
6.972502e+002, 2.155457e+003
6.977324e+002, 2.157273e+003
6.982145e+002, 2.161097e+003
6.986966e+002, 2.167572e+003
6.991787e+002, 2.174283e+003
6.996608e+002, 2.178817e+003
7.001429e+002, 2.181464e+003
7.006251e+002, 2.183560e+003
7.011072e+002, 2.185056e+003
7.015893e+002, 2.187196e+003
7.020714e+002, 2.191966e+003
7.025535e+002, 2.197914e+003
7.030356e+002, 2.202884e+003
7.035178e+002, 2.205609e+003
7.039999e+002, 2.208264e+003
7.044820e+002, 2.211898e+003
7.049641e+002, 2.215869e+003
7.054462e+002, 2.219193e+003
7.059283e+002, 2.220919e+003
7.064105e+002, 2.223497e+003
7.068926e+002, 2.227621e+003
7.073747e+002, 2.232566e+003
7.078568e+002, 2.236424e+003
7.083389e+002, 2.239096e+003
7.088210e+002, 2.242396e+003
7.093032e+002, 2.247197e+003
7.097853e+002, 2.252799e+003
7.102674e+002, 2.257732e+003
7.107495e+002, 2.262168e+003
7.112316e+002, 2.266617e+003
7.117137e+002, 2.271505e+003
7.121959e+002, 2.276384e+003
7.126780e+002, 2.281329e+003
7.131601e+002, 2.286160e+003
7.136422e+002, 2.289601e+003
7.141243e+002, 2.289273e+003
7.146064e+002, 2.289486e+003
7.150886e+002, 2.292156e+003
7.155707e+002, 2.297385e+003
7.160528e+002, 2.302327e+003
7.165349e+002, 2.307215e+003
7.170170e+002, 2.311353e+003
7.174991e+002, 2.313949e+003
7.179813e+002, 2.315245e+003
7.184634e+002, 2.317295e+003
7.189455e+002, 2.320148e+003
7.194276e+002, 2.323566e+003
7.199097e+002, 2.328161e+003
7.203918e+002, 2.332854e+003
7.208740e+002, 2.335812e+003
7.213561e+002, 2.336474e+003
7.218382e+002, 2.337409e+003
7.223203e+002, 2.340092e+003
7.228024e+002, 2.343426e+003
7.232845e+002, 2.346424e+003
7.237667e+002, 2.348177e+003
7.242488e+002, 2.351214e+003
7.247309e+002, 2.356859e+003
7.252130e+002, 2.362383e+003
7.256951e+002, 2.363832e+003
7.261772e+002, 2.360793e+003
7.266594e+002, 2.360526e+003
7.271415e+002, 2.365050e+003
7.276236e+002, 2.370034e+003
7.281057e+002, 2.368457e+003
7.285878e+002, 2.362562e+003
7.290699e+002, 2.358136e+003
7.295521e+002, 2.357323e+003
7.300342e+002, 2.358167e+003
7.305163e+002, 2.360297e+003
7.309984e+002, 2.363020e+003
7.314805e+002, 2.365092e+003
7.319626e+002, 2.367564e+003
7.324448e+002, 2.367571e+003
7.329269e+002, 2.362964e+003
7.334090e+002, 2.356000e+003
7.338911e+002, 2.353509e+003
7.343732e+002, 2.356890e+003
7.348553e+002, 2.359029e+003
7.353375e+002, 2.357285e+003
7.358196e+002, 2.353168e+003
7.363017e+002, 2.350509e+003
7.367838e+002, 2.349104e+003
7.372659e+002, 2.347709e+003
7.377480e+002, 2.345581e+003
7.382302e+002, 2.343192e+003
7.387123e+002, 2.340848e+003
7.391944e+002, 2.338573e+003
7.396765e+002, 2.336460e+003
7.401586e+002, 2.334938e+003
7.406407e+002, 2.333199e+003
7.411229e+002, 2.330993e+003
7.416050e+002, 2.328304e+003
7.420871e+002, 2.324901e+003
7.425692e+002, 2.320630e+003
7.430513e+002, 2.315962e+003
7.435334e+002, 2.310666e+003
7.440156e+002, 2.304990e+003
7.444977e+002, 2.301569e+003
7.449798e+002, 2.300391e+003
7.454619e+002, 2.299350e+003
7.459440e+002, 2.297117e+003
7.464261e+002, 2.293945e+003
7.469083e+002, 2.289763e+003
7.473904e+002, 2.284541e+003
7.478725e+002, 2.279782e+003
7.483546e+002, 2.276461e+003
7.488367e+002, 2.273663e+003
7.493188e+002, 2.270659e+003
7.498010e+002, 2.267103e+003
7.502831e+002, 2.264792e+003
7.507652e+002, 2.265035e+003
7.512473e+002, 2.264444e+003
7.517294e+002, 2.259064e+003
7.522115e+002, 2.249047e+003
7.526937e+002, 2.243670e+003
7.531758e+002, 2.244067e+003
7.536579e+002, 2.245074e+003
7.541400e+002, 2.240803e+003
7.546221e+002, 2.233782e+003
7.551042e+002, 2.228136e+003
7.555864e+002, 2.225003e+003
7.560685e+002, 2.222182e+003
7.565506e+002, 2.218583e+003
7.570327e+002, 2.214734e+003
7.575148e+002, 2.211277e+003
7.579969e+002, 2.209031e+003
7.584791e+002, 2.205919e+003
7.589612e+002, 2.201736e+003
7.594433e+002, 2.196894e+003
7.599254e+002, 2.191680e+003
7.604075e+002, 2.185978e+003
7.608896e+002, 2.181179e+003
7.613718e+002, 2.177546e+003
7.618539e+002, 2.174617e+003
7.623360e+002, 2.172055e+003
7.628181e+002, 2.169700e+003
7.633002e+002, 2.167211e+003
7.637823e+002, 2.164273e+003
7.642645e+002, 2.161524e+003
7.647466e+002, 2.159832e+003
7.652287e+002, 2.158425e+003
7.657108e+002, 2.156073e+003
7.661929e+002, 2.152237e+003
7.666750e+002, 2.147958e+003
7.671572e+002, 2.143203e+003
7.676393e+002, 2.138187e+003
7.681214e+002, 2.132517e+003
7.686035e+002, 2.125970e+003
7.690856e+002, 2.123002e+003
7.695677e+002, 2.126136e+003
7.700499e+002, 2.130637e+003
7.705320e+002, 2.128546e+003
7.710141e+002, 2.121850e+003
7.714962e+002, 2.115660e+003
7.719783e+002, 2.112048e+003
7.724604e+002, 2.109584e+003
7.729426e+002, 2.108276e+003
7.734247e+002, 2.107535e+003
7.739068e+002, 2.106015e+003
7.743889e+002, 2.103469e+003
7.748710e+002, 2.100149e+003
7.753531e+002, 2.095473e+003
7.758353e+002, 2.090341e+003
7.763174e+002, 2.087754e+003
7.767995e+002, 2.087885e+003
7.772816e+002, 2.087608e+003
7.777637e+002, 2.085874e+003
7.782458e+002, 2.083016e+003
7.787280e+002, 2.078597e+003
7.792101e+002, 2.073365e+003
7.796922e+002, 2.069759e+003
7.801743e+002, 2.070698e+003
7.806564e+002, 2.071815e+003
7.811385e+002, 2.070754e+003
7.816207e+002, 2.067917e+003
7.821028e+002, 2.065243e+003
7.825849e+002, 2.062649e+003
7.830670e+002, 2.060552e+003
7.835491e+002, 2.059231e+003
7.840313e+002, 2.058413e+003
7.845134e+002, 2.057138e+003
7.849955e+002, 2.055380e+003
7.854776e+002, 2.052957e+003
7.859597e+002, 2.048954e+003
7.864418e+002, 2.044766e+003
7.869240e+002, 2.043206e+003
7.874061e+002, 2.043563e+003
7.878882e+002, 2.043260e+003
7.883703e+002, 2.039801e+003
7.888524e+002, 2.036543e+003
7.893345e+002, 2.035951e+003
7.898167e+002, 2.037502e+003
7.902988e+002, 2.036592e+003
7.907809e+002, 2.031299e+003
7.912630e+002, 2.027069e+003
7.917451e+002, 2.026196e+003
7.922272e+002, 2.027774e+003
7.927094e+002, 2.027617e+003
7.931915e+002, 2.025788e+003
7.936736e+002, 2.023655e+003
7.941557e+002, 2.022125e+003
7.946378e+002, 2.020662e+003
7.951199e+002, 2.018492e+003
7.956021e+002, 2.015777e+003
7.960842e+002, 2.013125e+003
7.965663e+002, 2.010320e+003
7.970484e+002, 2.008116e+003
7.975305e+002, 2.007286e+003
7.980126e+002, 2.007596e+003
7.984948e+002, 2.006972e+003
7.989769e+002, 2.004896e+003
7.994590e+002, 2.003204e+003
7.999411e+002, 2.002874e+003
8.004232e+002, 2.003498e+003
8.009053e+002, 2.003522e+003
8.013875e+002, 2.002993e+003
8.018696e+002, 2.002322e+003
8.023517e+002, 2.001883e+003
8.028338e+002, 2.001320e+003
8.033159e+002, 2.000065e+003
8.037980e+002, 1.998263e+003
8.042802e+002, 1.996842e+003
8.047623e+002, 1.995739e+003
8.052444e+002, 1.995469e+003
8.057265e+002, 1.996811e+003
8.062086e+002, 1.999365e+003
8.066907e+002, 1.999429e+003
8.071729e+002, 1.996365e+003
8.076550e+002, 1.993426e+003
8.081371e+002, 1.992507e+003
8.086192e+002, 1.992644e+003
8.091013e+002, 1.990719e+003
8.095834e+002, 1.987215e+003
8.100656e+002, 1.984853e+003
8.105477e+002, 1.986352e+003
8.110298e+002, 1.988645e+003
8.115119e+002, 1.989949e+003
8.119940e+002, 1.990235e+003
8.124761e+002, 1.989807e+003
8.129583e+002, 1.988494e+003
8.134404e+002, 1.986770e+003
8.139225e+002, 1.984318e+003
8.144046e+002, 1.981546e+003
8.148867e+002, 1.981177e+003
8.153688e+002, 1.983344e+003
8.158510e+002, 1.985349e+003
8.163331e+002, 1.985572e+003
8.168152e+002, 1.984866e+003
8.172973e+002, 1.984937e+003
8.177794e+002, 1.985408e+003
8.182615e+002, 1.984826e+003
8.187437e+002, 1.980074e+003
8.192258e+002, 1.976394e+003
8.197079e+002, 1.977354e+003
8.201900e+002, 1.982126e+003
8.206721e+002, 1.984009e+003
8.211542e+002, 1.981560e+003
8.216364e+002, 1.979484e+003
8.221185e+002, 1.979903e+003
8.226006e+002, 1.981537e+003
8.230827e+002, 1.979187e+003
8.235648e+002, 1.973474e+003
8.240469e+002, 1.969197e+003
8.245291e+002, 1.970438e+003
8.250112e+002, 1.973088e+003
8.254933e+002, 1.973377e+003
8.259754e+002, 1.971832e+003
8.264575e+002, 1.970110e+003
8.269396e+002, 1.967478e+003
8.274218e+002, 1.966330e+003
8.279039e+002, 1.968346e+003
8.283860e+002, 1.972137e+003
8.288681e+002, 1.972519e+003
8.293502e+002, 1.968782e+003
8.298323e+002, 1.965886e+003
8.303145e+002, 1.965957e+003
8.307966e+002, 1.967250e+003
8.312787e+002, 1.965963e+003
8.317608e+002, 1.962980e+003
8.322429e+002, 1.961116e+003
8.327250e+002, 1.963034e+003
8.332072e+002, 1.965003e+003
8.336893e+002, 1.964351e+003
8.341714e+002, 1.962261e+003
8.346535e+002, 1.962044e+003
8.351356e+002, 1.965627e+003
8.356177e+002, 1.967961e+003
8.360999e+002, 1.968133e+003
8.365820e+002, 1.966634e+003
8.370641e+002, 1.963980e+003
8.375462e+002, 1.960342e+003
8.380283e+002, 1.957557e+003
8.385104e+002, 1.955890e+003
8.389926e+002, 1.955899e+003
8.394747e+002, 1.959550e+003
8.399568e+002, 1.965012e+003
8.404389e+002, 1.969155e+003
8.409210e+002, 1.970426e+003
8.414031e+002, 1.970754e+003
8.418853e+002, 1.970060e+003
8.423674e+002, 1.968857e+003
8.428495e+002, 1.967870e+003
8.433316e+002, 1.967177e+003
8.438137e+002, 1.966064e+003
8.442958e+002, 1.964156e+003
8.447780e+002, 1.962439e+003
8.452601e+002, 1.962817e+003
8.457422e+002, 1.964500e+003
8.462243e+002, 1.965604e+003
8.467064e+002, 1.965569e+003
8.471885e+002, 1.965011e+003
8.476707e+002, 1.963632e+003
8.481528e+002, 1.962237e+003
8.486349e+002, 1.961856e+003
8.491170e+002, 1.963914e+003
8.495991e+002, 1.964468e+003
8.500812e+002, 1.962839e+003
8.505634e+002, 1.960758e+003
8.510455e+002, 1.960340e+003
8.515276e+002, 1.961368e+003
8.520097e+002, 1.962114e+003
8.524918e+002, 1.962397e+003
8.529739e+002, 1.962197e+003
8.534561e+002, 1.960764e+003
8.539382e+002, 1.959225e+003
8.544203e+002, 1.959027e+003
8.549024e+002, 1.960961e+003
8.553845e+002, 1.962355e+003
8.558666e+002, 1.962318e+003
8.563488e+002, 1.961863e+003
8.568309e+002, 1.961689e+003
8.573130e+002, 1.961880e+003
8.577951e+002, 1.960934e+003
8.582772e+002, 1.958508e+003
8.587593e+002, 1.957108e+003
8.592415e+002, 1.960787e+003
8.597236e+002, 1.966232e+003
8.602057e+002, 1.967211e+003
8.606878e+002, 1.963226e+003
8.611699e+002, 1.959834e+003
8.616520e+002, 1.960536e+003
8.621342e+002, 1.962009e+003
8.626163e+002, 1.962028e+003
8.630984e+002, 1.960485e+003
8.635805e+002, 1.960363e+003
8.640626e+002, 1.962426e+003
8.645447e+002, 1.963787e+003
8.650269e+002, 1.962315e+003
8.655090e+002, 1.958960e+003
8.659911e+002, 1.956962e+003
8.664732e+002, 1.956217e+003
8.669553e+002, 1.955825e+003
8.674374e+002, 1.954928e+003
8.679196e+002, 1.954472e+003
8.684017e+002, 1.955799e+003
8.688838e+002, 1.958494e+003
8.693659e+002, 1.959330e+003
8.698480e+002, 1.956492e+003
8.703301e+002, 1.954390e+003
8.708123e+002, 1.954499e+003
8.712944e+002, 1.956095e+003
8.717765e+002, 1.956392e+003
8.722586e+002, 1.955563e+003
8.727407e+002, 1.955936e+003
8.732228e+002, 1.959980e+003
8.737050e+002, 1.964008e+003
8.741871e+002, 1.963698e+003
8.746692e+002, 1.960529e+003
8.751513e+002, 1.957701e+003
8.756334e+002, 1.955907e+003
8.761155e+002, 1.955087e+003
8.765977e+002, 1.955603e+003
8.770798e+002, 1.956800e+003
8.775619e+002, 1.957514e+003
8.780440e+002, 1.957739e+003
8.785261e+002, 1.957893e+003
8.790082e+002, 1.958239e+003
8.794904e+002, 1.958054e+003
8.799725e+002, 1.955579e+003
8.804546e+002, 1.952108e+003
8.809367e+002, 1.949952e+003
8.814188e+002, 1.950116e+003
8.819009e+002, 1.950801e+003
8.823831e+002, 1.951616e+003
8.828652e+002, 1.952514e+003
8.833473e+002, 1.953447e+003
8.838294e+002, 1.954480e+003
8.843115e+002, 1.955479e+003
8.847936e+002, 1.956591e+003
8.852758e+002, 1.957187e+003
8.857579e+002, 1.956198e+003
8.862400e+002, 1.954313e+003
8.867221e+002, 1.952888e+003
8.872042e+002, 1.952083e+003
8.876863e+002, 1.952203e+003
8.881685e+002, 1.954589e+003
8.886506e+002, 1.957061e+003
8.891327e+002, 1.957805e+003
8.896148e+002, 1.956417e+003
8.900969e+002, 1.955856e+003
8.905790e+002, 1.956237e+003
8.910612e+002, 1.957026e+003
8.915433e+002, 1.958192e+003
8.920254e+002, 1.959443e+003
8.925075e+002, 1.959194e+003
8.929896e+002, 1.957703e+003
8.934717e+002, 1.957219e+003
8.939539e+002, 1.961043e+003
8.944360e+002, 1.964622e+003
8.949181e+002, 1.964441e+003
8.954002e+002, 1.961015e+003
8.958823e+002, 1.958264e+003
8.963644e+002, 1.956321e+003
8.968466e+002, 1.955412e+003
8.973287e+002, 1.955958e+003
8.978108e+002, 1.957334e+003
8.982929e+002, 1.958152e+003
8.987750e+002, 1.958366e+003
8.992571e+002, 1.957369e+003
8.997393e+002, 1.953551e+003
9.002214e+002, 1.950566e+003
9.007035e+002, 1.952766e+003
9.011856e+002, 1.957597e+003
9.016677e+002, 1.960724e+003
9.021498e+002, 1.959616e+003
9.026320e+002, 1.958825e+003
9.031141e+002, 1.958526e+003
9.035962e+002, 1.958711e+003
9.040783e+002, 1.959717e+003
9.045604e+002, 1.961419e+003
9.050425e+002, 1.962371e+003
9.055247e+002, 1.962444e+003
9.060068e+002, 1.961241e+003
9.064889e+002, 1.956319e+003
9.069710e+002, 1.951045e+003
9.074531e+002, 1.949712e+003
9.079352e+002, 1.954458e+003
9.084174e+002, 1.957592e+003
9.088995e+002, 1.957111e+003
9.093816e+002, 1.955898e+003
9.098637e+002, 1.955416e+003
9.103458e+002, 1.955661e+003
9.108279e+002, 1.957818e+003
9.113101e+002, 1.961948e+003
9.117922e+002, 1.964428e+003
9.122743e+002, 1.960850e+003
9.127564e+002, 1.955404e+003
9.132385e+002, 1.952474e+003
9.137206e+002, 1.952030e+003
9.142028e+002, 1.952370e+003
9.146849e+002, 1.953596e+003
9.151670e+002, 1.954900e+003
9.156491e+002, 1.956318e+003
9.161312e+002, 1.957600e+003
9.166133e+002, 1.957568e+003
9.170955e+002, 1.956220e+003
9.175776e+002, 1.954706e+003
9.180597e+002, 1.953190e+003
9.185418e+002, 1.952134e+003
9.190239e+002, 1.952381e+003
9.195060e+002, 1.953468e+003
9.199882e+002, 1.954481e+003
9.204703e+002, 1.955227e+003
9.209524e+002, 1.955674e+003
9.214345e+002, 1.955285e+003
9.219166e+002, 1.954968e+003
9.223987e+002, 1.956401e+003
9.228809e+002, 1.959805e+003
9.233630e+002, 1.960275e+003
9.238451e+002, 1.956717e+003
9.243272e+002, 1.953294e+003
9.248093e+002, 1.955777e+003
9.252914e+002, 1.960488e+003
9.257736e+002, 1.962210e+003
9.262557e+002, 1.959634e+003
9.267378e+002, 1.957739e+003
9.272199e+002, 1.958755e+003
9.277020e+002, 1.960143e+003
9.281841e+002, 1.960654e+003
9.286663e+002, 1.960304e+003
9.291484e+002, 1.960202e+003
9.296305e+002, 1.960368e+003
9.301126e+002, 1.960554e+003
9.305947e+002, 1.960896e+003
9.310768e+002, 1.960973e+003
9.315590e+002, 1.959811e+003
9.320411e+002, 1.957779e+003
9.325232e+002, 1.956497e+003
9.330053e+002, 1.957972e+003
9.334874e+002, 1.958366e+003
9.339695e+002, 1.956036e+003
9.344517e+002, 1.952356e+003
9.349338e+002, 1.950615e+003
9.354159e+002, 1.950856e+003
9.358980e+002, 1.952227e+003
9.363801e+002, 1.955107e+003
9.368622e+002, 1.957431e+003
9.373444e+002, 1.955575e+003
9.378265e+002, 1.951929e+003
9.383086e+002, 1.950134e+003
9.387907e+002, 1.952629e+003
9.392728e+002, 1.954008e+003
9.397549e+002, 1.951729e+003
9.402371e+002, 1.949673e+003
9.407192e+002, 1.951941e+003
9.412013e+002, 1.958745e+003
9.416834e+002, 1.960921e+003
9.421655e+002, 1.957932e+003
9.426476e+002, 1.954777e+003
9.431298e+002, 1.956159e+003
9.436119e+002, 1.959258e+003
9.440940e+002, 1.960776e+003
9.445761e+002, 1.960605e+003
9.450582e+002, 1.961676e+003
9.455403e+002, 1.967267e+003
9.460225e+002, 1.970921e+003
9.465046e+002, 1.969900e+003
9.469867e+002, 1.965555e+003
9.474688e+002, 1.963512e+003
9.479509e+002, 1.963649e+003
9.484330e+002, 1.963586e+003
9.489152e+002, 1.961962e+003
9.493973e+002, 1.960208e+003
9.498794e+002, 1.959430e+003
9.503615e+002, 1.959563e+003
9.508436e+002, 1.960494e+003
9.513257e+002, 1.963964e+003
9.518079e+002, 1.965573e+003
9.522900e+002, 1.964421e+003
9.527721e+002, 1.962267e+003
9.532542e+002, 1.961089e+003
9.537363e+002, 1.960818e+003
9.542184e+002, 1.961321e+003
9.547006e+002, 1.962731e+003
9.551827e+002, 1.963094e+003
9.556648e+002, 1.959289e+003
9.561469e+002, 1.954822e+003
9.566290e+002, 1.953117e+003
9.571111e+002, 1.954930e+003
9.575933e+002, 1.955666e+003
9.580754e+002, 1.954372e+003
9.585575e+002, 1.953602e+003
9.590396e+002, 1.954892e+003
9.595217e+002, 1.957516e+003
9.600038e+002, 1.959025e+003
9.604860e+002, 1.959553e+003
9.609681e+002, 1.959810e+003
9.614502e+002, 1.960009e+003
9.619323e+002, 1.960195e+003
9.624144e+002, 1.959885e+003
9.628965e+002, 1.959660e+003
9.633787e+002, 1.960962e+003
9.638608e+002, 1.964910e+003
9.643429e+002, 1.967344e+003
9.648250e+002, 1.967387e+003
9.653071e+002, 1.966707e+003
9.657892e+002, 1.968017e+003
9.662714e+002, 1.970343e+003
9.667535e+002, 1.971101e+003
9.672356e+002, 1.969664e+003
9.677177e+002, 1.968039e+003
9.681998e+002, 1.967202e+003
9.686819e+002, 1.966680e+003
9.691641e+002, 1.965895e+003
9.696462e+002, 1.964690e+003
9.701283e+002, 1.965654e+003
9.706104e+002, 1.969261e+003
9.710925e+002, 1.972432e+003
9.715746e+002, 1.973154e+003
9.720568e+002, 1.972411e+003
9.725389e+002, 1.971453e+003
9.730210e+002, 1.970521e+003
9.735031e+002, 1.970462e+003
9.739852e+002, 1.972155e+003
9.744673e+002, 1.974202e+003
9.749495e+002, 1.977224e+003
9.754316e+002, 1.979812e+003
9.759137e+002, 1.978718e+003
9.763958e+002, 1.973652e+003
9.768779e+002, 1.970870e+003
9.773600e+002, 1.971795e+003
9.778422e+002, 1.973768e+003
9.783243e+002, 1.974690e+003
9.788064e+002, 1.974593e+003
9.792885e+002, 1.973095e+003
9.797706e+002, 1.969608e+003
9.802527e+002, 1.967566e+003
9.807349e+002, 1.968152e+003
9.812170e+002, 1.969363e+003
9.816991e+002, 1.970153e+003
9.821812e+002, 1.970611e+003
9.826633e+002, 1.971652e+003
9.831454e+002, 1.973185e+003
9.836276e+002, 1.974419e+003
9.841097e+002, 1.974979e+003
9.845918e+002, 1.974927e+003
9.850739e+002, 1.973971e+003
9.855560e+002, 1.972431e+003
9.860381e+002, 1.971182e+003
9.865203e+002, 1.970227e+003
9.870024e+002, 1.969624e+003
9.874845e+002, 1.969270e+003
9.879666e+002, 1.969523e+003
9.884487e+002, 1.971657e+003
9.889308e+002, 1.974811e+003
9.894130e+002, 1.976236e+003
9.898951e+002, 1.975275e+003
9.903772e+002, 1.974305e+003
9.908593e+002, 1.975094e+003
9.913414e+002, 1.976116e+003
9.918235e+002, 1.976257e+003
9.923057e+002, 1.975481e+003
9.927878e+002, 1.974332e+003
9.932699e+002, 1.972633e+003
9.937520e+002, 1.971563e+003
9.942341e+002, 1.972232e+003
9.947162e+002, 1.973553e+003
9.951984e+002, 1.973491e+003
9.956805e+002, 1.972518e+003
9.961626e+002, 1.971938e+003
9.966447e+002, 1.972853e+003
9.971268e+002, 1.973393e+003
9.976089e+002, 1.972682e+003
9.980911e+002, 1.971789e+003
9.985732e+002, 1.972389e+003
9.990553e+002, 1.974463e+003
9.995374e+002, 1.976230e+003
1.000020e+003, 1.977452e+003
1.000502e+003, 1.978244e+003
1.000984e+003, 1.978737e+003
1.001466e+003, 1.978798e+003
1.001948e+003, 1.978076e+003
1.002430e+003, 1.976437e+003
1.002912e+003, 1.975415e+003
1.003394e+003, 1.975478e+003
1.003876e+003, 1.975404e+003
1.004359e+003, 1.974478e+003
1.004841e+003, 1.973194e+003
1.005323e+003, 1.973341e+003
1.005805e+003, 1.974578e+003
1.006287e+003, 1.975477e+003
1.006769e+003, 1.975257e+003
1.007251e+003, 1.974790e+003
1.007733e+003, 1.974322e+003
1.008216e+003, 1.973986e+003
1.008698e+003, 1.973852e+003
1.009180e+003, 1.973693e+003
1.009662e+003, 1.974827e+003
1.010144e+003, 1.977566e+003
1.010626e+003, 1.980318e+003
1.011108e+003, 1.981660e+003
1.011590e+003, 1.981857e+003
1.012072e+003, 1.980895e+003
1.012555e+003, 1.978862e+003
1.013037e+003, 1.977289e+003
1.013519e+003, 1.976784e+003
1.014001e+003, 1.976738e+003
1.014483e+003, 1.976910e+003
1.014965e+003, 1.977399e+003
1.015447e+003, 1.979205e+003
1.015929e+003, 1.982063e+003
1.016411e+003, 1.982666e+003
1.016894e+003, 1.978848e+003
1.017376e+003, 1.975027e+003
1.017858e+003, 1.976121e+003
1.018340e+003, 1.979017e+003
1.018822e+003, 1.979597e+003
1.019304e+003, 1.975396e+003
1.019786e+003, 1.974253e+003
1.020268e+003, 1.977248e+003
1.020751e+003, 1.980498e+003
1.021233e+003, 1.981073e+003
1.021715e+003, 1.979610e+003
1.022197e+003, 1.976864e+003
1.022679e+003, 1.973309e+003
1.023161e+003, 1.971516e+003
1.023643e+003, 1.974836e+003
1.024125e+003, 1.977842e+003
1.024607e+003, 1.977650e+003
1.025090e+003, 1.975915e+003
1.025572e+003, 1.976441e+003
1.026054e+003, 1.979457e+003
1.026536e+003, 1.980867e+003
1.027018e+003, 1.979631e+003
1.027500e+003, 1.977886e+003
1.027982e+003, 1.978089e+003
1.028464e+003, 1.978960e+003
1.028947e+003, 1.978831e+003
1.029429e+003, 1.977089e+003
1.029911e+003, 1.976452e+003
1.030393e+003, 1.977701e+003
1.030875e+003, 1.978979e+003
1.031357e+003, 1.979443e+003
1.031839e+003, 1.979234e+003
1.032321e+003, 1.978130e+003
1.032803e+003, 1.976593e+003
1.033286e+003, 1.976472e+003
1.033768e+003, 1.980845e+003
1.034250e+003, 1.984389e+003
1.034732e+003, 1.983508e+003
1.035214e+003, 1.980996e+003
1.035696e+003, 1.981268e+003
1.036178e+003, 1.985271e+003
1.036660e+003, 1.986096e+003
1.037143e+003, 1.982745e+003
1.037625e+003, 1.979534e+003
1.038107e+003, 1.981331e+003
1.038589e+003, 1.984981e+003
1.039071e+003, 1.986624e+003
1.039553e+003, 1.986056e+003
1.040035e+003, 1.985135e+003
1.040517e+003, 1.983966e+003
1.041000e+003, 1.982862e+003
1.041482e+003, 1.981669e+003
1.041964e+003, 1.980887e+003
1.042446e+003, 1.982377e+003
1.042928e+003, 1.985509e+003
1.043410e+003, 1.987630e+003
1.043892e+003, 1.987915e+003
1.044374e+003, 1.987284e+003
1.044856e+003, 1.985387e+003
1.045339e+003, 1.983497e+003
1.045821e+003, 1.982794e+003
1.046303e+003, 1.983447e+003
1.046785e+003, 1.984151e+003
1.047267e+003, 1.984895e+003
1.047749e+003, 1.985813e+003
1.048231e+003, 1.987159e+003
1.048713e+003, 1.988588e+003
1.049195e+003, 1.990453e+003
1.049677e+003, 1.992047e+003
1.050160e+003, 1.991338e+003
1.050642e+003, 1.983483e+003
1.051124e+003, 1.979566e+003
1.051606e+003, 1.982164e+003
1.052088e+003, 1.987009e+003
1.052570e+003, 1.988791e+003
1.053052e+003, 1.987910e+003
1.053534e+003, 1.985012e+003
1.054017e+003, 1.980072e+003
1.054499e+003, 1.976648e+003
1.054981e+003, 1.978514e+003
1.055463e+003, 1.981189e+003
1.055945e+003, 1.981807e+003
1.056427e+003, 1.980715e+003
1.056909e+003, 1.979802e+003
1.057391e+003, 1.979029e+003
1.057874e+003, 1.979237e+003
1.058356e+003, 1.981198e+003
1.058838e+003, 1.983287e+003
1.059320e+003, 1.983495e+003
1.059802e+003, 1.982568e+003
1.060284e+003, 1.981488e+003
1.060766e+003, 1.980096e+003
1.061248e+003, 1.979602e+003
1.061730e+003, 1.980436e+003
1.062213e+003, 1.981384e+003
1.062695e+003, 1.981413e+003
1.063177e+003, 1.980852e+003
1.063659e+003, 1.980768e+003
1.064141e+003, 1.981158e+003
1.064623e+003, 1.982063e+003
1.065105e+003, 1.984483e+003
1.065587e+003, 1.986238e+003
1.066070e+003, 1.985855e+003
1.066552e+003, 1.984578e+003
1.067034e+003, 1.984214e+003
1.067516e+003, 1.984776e+003
1.067998e+003, 1.985478e+003
1.068480e+003, 1.986247e+003
1.068962e+003, 1.986911e+003
1.069444e+003, 1.987090e+003
1.069927e+003, 1.987274e+003
1.070409e+003, 1.988236e+003
1.070891e+003, 1.989980e+003
1.071373e+003, 1.990543e+003
1.071855e+003, 1.989716e+003
1.072337e+003, 1.988135e+003
1.072819e+003, 1.985572e+003
1.073301e+003, 1.983076e+003
1.073783e+003, 1.982970e+003
1.074266e+003, 1.984254e+003
1.074748e+003, 1.984787e+003
1.075230e+003, 1.983776e+003
1.075712e+003, 1.982595e+003
1.076194e+003, 1.981136e+003
1.076676e+003, 1.980113e+003
1.077158e+003, 1.980193e+003
1.077640e+003, 1.981204e+003
1.078122e+003, 1.981115e+003
1.078604e+003, 1.980096e+003
1.079087e+003, 1.979614e+003
1.079569e+003, 1.980720e+003
1.080051e+003, 1.982363e+003
1.080533e+003, 1.984578e+003
1.081015e+003, 1.986641e+003
1.081497e+003, 1.987238e+003
1.081979e+003, 1.985898e+003
1.082461e+003, 1.985269e+003
1.082944e+003, 1.985629e+003
1.083426e+003, 1.986104e+003
1.083908e+003, 1.985403e+003
1.084390e+003, 1.984640e+003
1.084872e+003, 1.985883e+003
1.085354e+003, 1.988902e+003
1.085836e+003, 1.989553e+003
1.086318e+003, 1.985481e+003
1.086801e+003, 1.982500e+003
1.087283e+003, 1.982058e+003
1.087765e+003, 1.983295e+003
1.088247e+003, 1.985312e+003
1.088729e+003, 1.987657e+003
1.089211e+003, 1.989075e+003
1.089693e+003, 1.989204e+003
1.090175e+003, 1.988949e+003
1.090657e+003, 1.988039e+003
1.091140e+003, 1.987514e+003
1.091622e+003, 1.988260e+003
1.092104e+003, 1.989956e+003
1.092586e+003, 1.989664e+003
1.093068e+003, 1.987580e+003
1.093550e+003, 1.986154e+003
1.094032e+003, 1.987013e+003
1.094514e+003, 1.988088e+003
1.094997e+003, 1.987307e+003
1.095479e+003, 1.986124e+003
1.095961e+003, 1.986622e+003
1.096443e+003, 1.989578e+003
1.096925e+003, 1.991864e+003
1.097407e+003, 1.993551e+003
1.097889e+003, 1.994107e+003
1.098371e+003, 1.992507e+003
1.098854e+003, 1.989952e+003
1.099336e+003, 1.987287e+003
1.099818e+003, 1.984907e+003
1.100300e+003, 1.984229e+003
1.100782e+003, 1.986931e+003
1.101264e+003, 1.989023e+003
1.101746e+003, 1.990060e+003
1.102228e+003, 1.990235e+003
1.102710e+003, 1.989143e+003
1.103193e+003, 1.987526e+003
1.103675e+003, 1.987501e+003
1.104157e+003, 1.989325e+003
1.104639e+003, 1.990725e+003
1.105121e+003, 1.990136e+003
1.105603e+003, 1.989615e+003
1.106085e+003, 1.989988e+003
1.106567e+003, 1.990989e+003
1.107049e+003, 1.992057e+003
1.107531e+003, 1.993090e+003
1.108014e+003, 1.992948e+003
1.108496e+003, 1.990749e+003
1.108978e+003, 1.989308e+003
1.109460e+003, 1.991619e+003
1.109942e+003, 1.994769e+003
1.110424e+003, 1.995903e+003
1.110906e+003, 1.994840e+003
1.111388e+003, 1.995883e+003
1.111871e+003, 1.999282e+003
1.112353e+003, 2.000988e+003
1.112835e+003, 1.997377e+003
1.113317e+003, 1.993143e+003
1.113799e+003, 1.994765e+003
1.114281e+003, 1.998915e+003
1.114763e+003, 1.999910e+003
1.115245e+003, 1.994155e+003
1.115728e+003, 1.991019e+003
1.116210e+003, 1.990969e+003
1.116692e+003, 1.992127e+003
1.117174e+003, 1.993531e+003
1.117656e+003, 1.994814e+003
1.118138e+003, 1.995164e+003
1.118620e+003, 1.994728e+003
1.119102e+003, 1.994200e+003
1.119584e+003, 1.992866e+003
1.120067e+003, 1.992824e+003
1.120549e+003, 1.994680e+003
1.121031e+003, 1.997378e+003
1.121513e+003, 2.000274e+003
1.121995e+003, 2.002799e+003
1.122477e+003, 2.002245e+003
1.122959e+003, 1.998445e+003
1.123441e+003, 1.995672e+003
1.123924e+003, 1.997314e+003
1.124406e+003, 1.999241e+003
1.124888e+003, 1.999667e+003
1.125370e+003, 1.999092e+003
1.125852e+003, 1.998749e+003
1.126334e+003, 1.998668e+003
1.126816e+003, 1.999226e+003
1.127298e+003, 2.000839e+003
1.127781e+003, 2.001586e+003
1.128263e+003, 1.998966e+003
1.128745e+003, 1.995754e+003
1.129227e+003, 1.994239e+003
1.129709e+003, 1.994387e+003
1.130191e+003, 1.994967e+003
1.130673e+003, 1.996017e+003
1.131155e+003, 1.996986e+003
1.131637e+003, 1.997784e+003
1.132120e+003, 1.998151e+003
1.132602e+003, 1.997298e+003
1.133084e+003, 1.996034e+003
1.133566e+003, 1.995484e+003
1.134048e+003, 1.995704e+003
1.134530e+003, 1.997018e+003
1.135012e+003, 1.999852e+003
1.135494e+003, 2.001978e+003
1.135976e+003, 2.001387e+003
1.136458e+003, 1.999576e+003
1.136941e+003, 1.998560e+003
1.137423e+003, 1.998323e+003
1.137905e+003, 1.998811e+003
1.138387e+003, 2.000354e+003
1.138869e+003, 2.002363e+003
1.139351e+003, 2.005357e+003
1.139833e+003, 2.007586e+003
1.140315e+003, 2.006647e+003
1.140798e+003, 2.003806e+003
1.141280e+003, 2.001806e+003
1.141762e+003, 2.000743e+003
1.142244e+003, 2.000451e+003
1.142726e+003, 2.001466e+003
1.143208e+003, 2.002435e+003
1.143690e+003, 2.002983e+003
1.144172e+003, 2.003429e+003
1.144655e+003, 2.004567e+003
1.145137e+003, 2.006075e+003
1.145619e+003, 2.006586e+003
1.146101e+003, 2.005939e+003
1.146583e+003, 2.005088e+003
1.147065e+003, 2.003981e+003
1.147547e+003, 2.003543e+003
1.148029e+003, 2.004637e+003
1.148511e+003, 2.006471e+003
1.148994e+003, 2.006297e+003
1.149476e+003, 2.004442e+003
1.149958e+003, 2.003978e+003
1.150440e+003, 2.005851e+003
1.150922e+003, 2.007939e+003
1.151404e+003, 2.008884e+003
1.151886e+003, 2.009245e+003
1.152368e+003, 2.009138e+003
1.152851e+003, 2.008699e+003
1.153333e+003, 2.009320e+003
1.153815e+003, 2.010975e+003
1.154297e+003, 2.013446e+003
1.154779e+003, 2.017428e+003
1.155261e+003, 2.020370e+003
1.155743e+003, 2.018456e+003
1.156225e+003, 2.014966e+003
1.156708e+003, 2.013895e+003
1.157190e+003, 2.015759e+003
1.157672e+003, 2.017262e+003
1.158154e+003, 2.018492e+003
1.158636e+003, 2.018653e+003
1.159118e+003, 2.016291e+003
1.159600e+003, 2.013821e+003
1.160082e+003, 2.014638e+003
1.160564e+003, 2.017080e+003
1.161047e+003, 2.018178e+003
1.161529e+003, 2.016965e+003
1.162011e+003, 2.015915e+003
1.162493e+003, 2.015099e+003
1.162975e+003, 2.014252e+003
1.163457e+003, 2.012916e+003
1.163939e+003, 2.011586e+003
1.164421e+003, 2.010420e+003
1.164903e+003, 2.009833e+003
1.165385e+003, 2.011179e+003
1.165868e+003, 2.017162e+003
1.166350e+003, 2.020281e+003
1.166832e+003, 2.019365e+003
1.167314e+003, 2.017040e+003
1.167796e+003, 2.015742e+003
1.168278e+003, 2.015063e+003
1.168760e+003, 2.014188e+003
1.169242e+003, 2.013195e+003
1.169725e+003, 2.012879e+003
1.170207e+003, 2.014035e+003
1.170689e+003, 2.015142e+003
1.171171e+003, 2.015988e+003
1.171653e+003, 2.016715e+003
1.172135e+003, 2.017559e+003
1.172617e+003, 2.018425e+003
1.173099e+003, 2.019052e+003
1.173582e+003, 2.019417e+003
1.174064e+003, 2.019852e+003
1.174546e+003, 2.020642e+003
1.175028e+003, 2.021309e+003
1.175510e+003, 2.021799e+003
1.175992e+003, 2.021975e+003
1.176474e+003, 2.021331e+003
1.176956e+003, 2.020153e+003
1.177438e+003, 2.019276e+003
1.177921e+003, 2.018853e+003
1.178403e+003, 2.018746e+003
1.178885e+003, 2.018781e+003
1.179367e+003, 2.019333e+003
1.179849e+003, 2.020649e+003
1.180331e+003, 2.022537e+003
1.180813e+003, 2.025017e+003
1.181295e+003, 2.027578e+003
1.181778e+003, 2.027938e+003
1.182260e+003, 2.024759e+003
1.182742e+003, 2.022007e+003
1.183224e+003, 2.021993e+003
1.183706e+003, 2.022350e+003
1.184188e+003, 2.021305e+003
1.184670e+003, 2.019522e+003
1.185152e+003, 2.021903e+003
1.185635e+003, 2.027350e+003
1.186117e+003, 2.030047e+003
1.186599e+003, 2.025735e+003
1.187081e+003, 2.022557e+003
1.187563e+003, 2.026492e+003
1.188045e+003, 2.031412e+003
1.188527e+003, 2.032340e+003
1.189009e+003, 2.029720e+003
1.189491e+003, 2.029813e+003
1.189974e+003, 2.032221e+003
1.190456e+003, 2.034005e+003
1.190938e+003, 2.033478e+003
1.191420e+003, 2.032297e+003
1.191902e+003, 2.030777e+003
1.192384e+003, 2.029357e+003
1.192866e+003, 2.028325e+003
1.193348e+003, 2.027671e+003
1.193830e+003, 2.028161e+003
1.194313e+003, 2.029704e+003
1.194795e+003, 2.031262e+003
1.195277e+003, 2.032763e+003
1.195759e+003, 2.033485e+003
1.196241e+003, 2.032416e+003
1.196723e+003, 2.030679e+003
1.197205e+003, 2.029725e+003
1.197687e+003, 2.029592e+003
1.198169e+003, 2.029193e+003
1.198652e+003, 2.028516e+003
1.199134e+003, 2.028065e+003
1.199616e+003, 2.028629e+003
1.200098e+003, 2.029084e+003
1.200580e+003, 2.028373e+003
1.201062e+003, 2.027314e+003
1.201544e+003, 2.027421e+003
1.202026e+003, 2.028745e+003
1.202509e+003, 2.029221e+003
1.202991e+003, 2.028658e+003
1.203473e+003, 2.028203e+003
1.203955e+003, 2.028546e+003
1.204437e+003, 2.029380e+003
1.204919e+003, 2.030889e+003
1.205401e+003, 2.032602e+003
1.205883e+003, 2.033431e+003
1.206365e+003, 2.033339e+003
1.206848e+003, 2.033450e+003
1.207330e+003, 2.033914e+003
1.207812e+003, 2.034315e+003
1.208294e+003, 2.033841e+003
1.208776e+003, 2.033643e+003
1.209258e+003, 2.035250e+003
1.209740e+003, 2.037673e+003
1.210222e+003, 2.037803e+003
1.210705e+003, 2.035624e+003
1.211187e+003, 2.034469e+003
1.211669e+003, 2.035043e+003
1.212151e+003, 2.035834e+003
1.212633e+003, 2.035555e+003
1.213115e+003, 2.035155e+003
1.213597e+003, 2.036071e+003
1.214079e+003, 2.037460e+003
1.214562e+003, 2.034985e+003
1.215044e+003, 2.028805e+003
1.215526e+003, 2.026430e+003
1.216008e+003, 2.030208e+003
1.216490e+003, 2.034432e+003
1.216972e+003, 2.034591e+003
1.217454e+003, 2.033383e+003
1.217936e+003, 2.032383e+003
1.218418e+003, 2.031772e+003
1.218901e+003, 2.032538e+003
1.219383e+003, 2.034611e+003
1.219865e+003, 2.037047e+003
1.220347e+003, 2.039870e+003
1.220829e+003, 2.041721e+003
1.221311e+003, 2.041505e+003
1.221793e+003, 2.039871e+003
1.222275e+003, 2.036469e+003
1.222757e+003, 2.031988e+003
1.223240e+003, 2.032355e+003
1.223722e+003, 2.037073e+003
1.224204e+003, 2.039213e+003
1.224686e+003, 2.035667e+003
1.225168e+003, 2.031494e+003
1.225650e+003, 2.029455e+003
1.226132e+003, 2.028814e+003
1.226614e+003, 2.029186e+003
1.227096e+003, 2.030392e+003
1.227579e+003, 2.030386e+003
1.228061e+003, 2.029394e+003
1.228543e+003, 2.029473e+003
1.229025e+003, 2.031852e+003
1.229507e+003, 2.034361e+003
1.229989e+003, 2.035568e+003
1.230471e+003, 2.036497e+003
1.230953e+003, 2.037943e+003
1.231436e+003, 2.039821e+003
1.231918e+003, 2.041913e+003
1.232400e+003, 2.043961e+003
1.232882e+003, 2.044026e+003
1.233364e+003, 2.039344e+003
1.233846e+003, 2.036267e+003
1.234328e+003, 2.040547e+003
1.234810e+003, 2.045151e+003
1.235292e+003, 2.044268e+003
1.235775e+003, 2.038909e+003
1.236257e+003, 2.037492e+003
1.236739e+003, 2.039386e+003
1.237221e+003, 2.041119e+003
1.237703e+003, 2.041020e+003
1.238185e+003, 2.040779e+003
1.238667e+003, 2.041141e+003
1.239149e+003, 2.041466e+003
1.239632e+003, 2.041298e+003
1.240114e+003, 2.040686e+003
1.240596e+003, 2.039311e+003
1.241078e+003, 2.037620e+003
1.241560e+003, 2.037502e+003
1.242042e+003, 2.042142e+003
1.242524e+003, 2.044883e+003
1.243006e+003, 2.042428e+003
1.243489e+003, 2.039881e+003
1.243971e+003, 2.042301e+003
1.244453e+003, 2.047940e+003
1.244935e+003, 2.048851e+003
1.245417e+003, 2.046245e+003
1.245899e+003, 2.044629e+003
1.246381e+003, 2.047567e+003
1.246863e+003, 2.048998e+003
1.247345e+003, 2.047109e+003
1.247828e+003, 2.045365e+003
1.248310e+003, 2.047974e+003
1.248792e+003, 2.052627e+003
1.249274e+003, 2.051977e+003
1.249756e+003, 2.047721e+003
1.250238e+003, 2.045873e+003
1.250720e+003, 2.053076e+003
1.251202e+003, 2.055338e+003
1.251684e+003, 2.049845e+003
1.252167e+003, 2.043661e+003
1.252649e+003, 2.042855e+003
1.253131e+003, 2.045642e+003
1.253613e+003, 2.050164e+003
1.254095e+003, 2.055240e+003
1.254577e+003, 2.057310e+003
1.255059e+003, 2.053190e+003
1.255541e+003, 2.050157e+003
1.256023e+003, 2.048512e+003
1.256506e+003, 2.048191e+003
1.256988e+003, 2.050517e+003
1.257470e+003, 2.053210e+003
1.257952e+003, 2.052393e+003
1.258434e+003, 2.049242e+003
1.258916e+003, 2.047431e+003
1.259398e+003, 2.047553e+003
1.259880e+003, 2.048884e+003
1.260363e+003, 2.051746e+003
1.260845e+003, 2.053756e+003
1.261327e+003, 2.051713e+003
1.261809e+003, 2.048806e+003
1.262291e+003, 2.049103e+003
1.262773e+003, 2.051044e+003
1.263255e+003, 2.049909e+003
1.263737e+003, 2.044248e+003
1.264219e+003, 2.042142e+003
1.264702e+003, 2.044312e+003
1.265184e+003, 2.047080e+003
1.265666e+003, 2.047972e+003
1.266148e+003, 2.047986e+003
1.266630e+003, 2.047072e+003
1.267112e+003, 2.046164e+003
1.267594e+003, 2.047507e+003
1.268076e+003, 2.051423e+003
1.268559e+003, 2.052132e+003
1.269041e+003, 2.049300e+003
1.269523e+003, 2.047168e+003
1.270005e+003, 2.049677e+003
1.270487e+003, 2.052615e+003
1.270969e+003, 2.053940e+003
1.271451e+003, 2.053909e+003
1.271933e+003, 2.052050e+003
1.272416e+003, 2.048655e+003
1.272898e+003, 2.047900e+003
1.273380e+003, 2.049838e+003
1.273862e+003, 2.051929e+003
1.274344e+003, 2.053414e+003
1.274826e+003, 2.053785e+003
1.275308e+003, 2.052224e+003
1.275790e+003, 2.050332e+003
1.276272e+003, 2.050402e+003
1.276755e+003, 2.051850e+003
1.277237e+003, 2.052274e+003
1.277719e+003, 2.051734e+003
1.278201e+003, 2.051659e+003
1.278683e+003, 2.054267e+003
1.279165e+003, 2.054822e+003
1.279647e+003, 2.051399e+003
1.280129e+003, 2.047845e+003
1.280611e+003, 2.049238e+003
1.281094e+003, 2.053309e+003
1.281576e+003, 2.055607e+003
1.282058e+003, 2.056053e+003
1.282540e+003, 2.055394e+003
1.283022e+003, 2.052214e+003
1.283504e+003, 2.051255e+003
1.283986e+003, 2.053493e+003
1.284468e+003, 2.056202e+003
1.284950e+003, 2.055902e+003
1.285433e+003, 2.054975e+003
1.285915e+003, 2.057691e+003
1.286397e+003, 2.062673e+003
1.286879e+003, 2.063790e+003
1.287361e+003, 2.059107e+003
1.287843e+003, 2.057085e+003
1.288325e+003, 2.058718e+003
1.288807e+003, 2.061027e+003
1.289290e+003, 2.061939e+003
1.289772e+003, 2.061967e+003
1.290254e+003, 2.060945e+003
1.290736e+003, 2.059543e+003
1.291218e+003, 2.059257e+003
1.291700e+003, 2.060167e+003
1.292182e+003, 2.061150e+003
1.292664e+003, 2.062111e+003
1.293146e+003, 2.062734e+003
1.293629e+003, 2.062181e+003
1.294111e+003, 2.061900e+003
1.294593e+003, 2.063912e+003
1.295075e+003, 2.065824e+003
1.295557e+003, 2.063741e+003
1.296039e+003, 2.058412e+003
1.296521e+003, 2.056045e+003
1.297003e+003, 2.056728e+003
1.297486e+003, 2.058442e+003
1.297968e+003, 2.062348e+003
1.298450e+003, 2.064306e+003
1.298932e+003, 2.062842e+003
1.299414e+003, 2.060229e+003
1.299896e+003, 2.059015e+003
1.300378e+003, 2.058687e+003
1.300860e+003, 2.057036e+003
1.301343e+003, 2.054821e+003
1.301825e+003, 2.055315e+003
##END=



