##NAMES=Leucophanite
##RRUFFID=R050004
##IDEAL CHEMISTRY=NaCaBeSi_2_O_6_F
##LOCALITY=Langesundfjord, Norway
##OWNER=RRUFF
##SOURCE=University of Arizona Mineral Museum
##DESCRIPTION=Pale green massive
##STATUS=The identification of this mineral has been confirmed by X-ray diffraction and chemical analysis
##URL=rruff.info/R050004
##MEASURED CHEMISTRY=Ca_1.00_Ca_1.00_Na_2.00_Be_2.00_Si_4.00_O_12_(F_0.96_(OH)_0.04_)_2_
142.253, 4694.268
142.735, 4721.279
143.217, 4763.596
143.699, 4790.803
144.181, 4801.446
144.663, 4799.653
145.145, 4783.607
145.628, 4737.124
146.110, 4710.814
146.592, 4708.693
147.074, 4727.013
147.556, 4752.987
148.038, 4793.569
148.520, 4835.702
149.002, 4871.775
149.484, 4884.956
149.967, 4913.935
150.449, 4975.207
150.931, 5066.892
151.413, 5126.770
151.895, 5124.960
152.377, 5107.879
152.859, 5108.499
153.342, 5145.033
153.824, 5183.126
154.306, 5215.698
154.788, 5241.467
155.270, 5272.344
155.752, 5315.222
156.234, 5362.992
156.716, 5407.799
157.198, 5448.784
157.680, 5485.836
158.163, 5518.723
158.645, 5547.713
159.127, 5571.432
159.609, 5583.368
160.091, 5589.735
160.573, 5602.120
161.055, 5648.610
161.538, 5685.382
162.020, 5682.552
162.502, 5606.584
162.984, 5537.792
163.466, 5510.462
163.948, 5517.152
164.430, 5533.727
164.912, 5562.669
165.394, 5590.133
165.876, 5603.877
166.359, 5585.507
166.841, 5567.732
167.323, 5572.311
167.805, 5597.052
168.287, 5622.942
168.769, 5630.660
169.251, 5635.241
169.733, 5654.858
170.216, 5718.182
170.698, 5785.375
171.180, 5820.194
171.662, 5821.414
172.144, 5819.525
172.626, 5845.641
173.108, 5884.545
173.590, 5908.524
174.072, 5888.105
174.555, 5853.518
175.037, 5840.163
175.519, 5852.394
176.001, 5873.912
176.483, 5898.804
176.965, 5922.404
177.447, 5929.796
177.929, 5884.309
178.412, 5823.353
178.894, 5815.463
179.376, 5881.915
179.858, 5971.244
180.340, 6026.808
180.822, 6050.205
181.304, 6053.846
181.786, 6033.510
182.268, 5999.210
182.751, 5975.235
183.233, 5966.054
183.715, 5969.574
184.197, 5992.184
184.679, 6033.072
185.161, 6062.903
185.643, 6037.849
186.125, 5975.290
186.607, 5950.831
187.090, 6004.528
187.572, 6096.827
188.054, 6129.253
188.536, 6097.878
189.018, 6048.193
189.500, 6015.624
189.982, 6000.999
190.464, 6010.087
190.947, 6055.588
191.429, 6127.209
191.911, 6185.519
192.393, 6232.825
192.875, 6257.219
193.357, 6223.664
193.839, 6132.845
194.321, 6072.017
194.803, 6087.393
195.286, 6171.761
195.768, 6243.272
196.250, 6304.155
196.732, 6347.161
197.214, 6347.893
197.696, 6299.835
198.178, 6270.881
198.661, 6302.829
199.143, 6396.741
199.625, 6472.220
200.107, 6529.296
200.589, 6565.775
201.071, 6571.197
201.553, 6539.439
202.035, 6505.743
202.517, 6490.356
202.999, 6495.436
203.482, 6494.663
203.964, 6483.095
204.446, 6466.575
204.928, 6461.119
205.410, 6467.641
205.892, 6481.621
206.374, 6506.532
206.857, 6548.436
207.339, 6561.947
207.821, 6527.236
208.303, 6462.786
208.785, 6458.335
209.267, 6540.657
209.749, 6623.450
210.231, 6632.378
210.713, 6542.943
211.195, 6481.714
211.678, 6473.838
212.160, 6512.690
212.642, 6542.359
213.124, 6561.698
213.606, 6575.101
214.088, 6582.871
214.570, 6578.567
215.052, 6590.355
215.535, 6631.973
216.017, 6701.947
216.499, 6740.095
216.981, 6734.708
217.463, 6713.416
217.945, 6704.805
218.427, 6713.857
218.909, 6722.325
219.391, 6724.504
219.874, 6719.527
220.356, 6721.409
220.838, 6731.388
221.320, 6746.763
221.802, 6762.871
222.284, 6774.932
222.766, 6798.761
223.248, 6843.673
223.731, 6916.247
224.213, 6968.555
224.695, 6996.693
225.177, 7008.649
225.659, 7013.721
226.141, 7003.291
226.623, 7002.497
227.105, 7022.019
227.587, 7068.135
228.070, 7106.689
228.552, 7139.378
229.034, 7163.011
229.516, 7169.911
229.998, 7151.614
230.480, 7130.408
230.962, 7113.221
231.444, 7099.940
231.926, 7090.585
232.409, 7084.495
232.891, 7082.641
233.373, 7087.626
233.855, 7102.677
234.337, 7119.689
234.819, 7135.186
235.301, 7146.659
235.783, 7163.957
236.266, 7190.325
236.748, 7221.642
237.230, 7247.449
237.712, 7264.838
238.194, 7281.657
238.676, 7302.608
239.158, 7335.687
239.640, 7353.654
240.122, 7344.181
240.605, 7321.846
241.087, 7331.796
241.569, 7398.480
242.051, 7463.752
242.533, 7495.900
243.015, 7469.770
243.497, 7467.764
243.980, 7502.471
244.462, 7562.165
244.944, 7605.929
245.426, 7629.408
245.908, 7642.370
246.390, 7648.464
246.872, 7642.702
247.354, 7640.427
247.836, 7644.524
248.318, 7652.338
248.801, 7650.823
249.283, 7624.714
249.765, 7610.469
250.247, 7634.177
250.729, 7721.743
251.211, 7788.033
251.693, 7829.304
252.176, 7845.416
252.658, 7830.213
253.140, 7769.466
253.622, 7699.150
254.104, 7635.112
254.586, 7566.003
255.068, 7536.165
255.550, 7564.347
256.032, 7636.424
256.514, 7681.461
256.997, 7689.185
257.479, 7685.818
257.961, 7686.472
258.443, 7689.242
258.925, 7700.948
259.407, 7723.275
259.889, 7754.800
260.371, 7792.331
260.854, 7842.873
261.336, 7887.175
261.818, 7908.755
262.300, 7895.099
262.782, 7896.244
263.264, 7924.212
263.746, 7971.517
264.228, 7994.183
264.711, 7976.181
265.193, 7964.059
265.675, 7999.761
266.157, 8105.178
266.639, 8177.272
267.121, 8190.694
267.603, 8161.046
268.085, 8162.120
268.567, 8201.787
269.050, 8254.907
269.532, 8307.320
270.014, 8362.304
270.496, 8400.379
270.978, 8413.332
271.460, 8408.305
271.942, 8416.797
272.424, 8445.150
272.906, 8470.277
273.389, 8466.315
273.871, 8423.576
274.353, 8416.601
274.835, 8470.016
275.317, 8561.193
275.799, 8599.895
276.281, 8571.428
276.763, 8540.015
277.246, 8565.852
277.728, 8656.529
278.210, 8708.028
278.692, 8696.786
279.174, 8639.950
279.656, 8583.933
280.138, 8524.790
280.620, 8485.619
281.103, 8492.903
281.585, 8547.244
282.067, 8593.299
282.549, 8623.969
283.031, 8640.470
283.513, 8642.827
283.995, 8629.496
284.477, 8615.759
284.959, 8613.323
285.441, 8621.531
285.924, 8629.733
286.406, 8635.647
286.888, 8641.929
287.370, 8649.878
287.852, 8659.107
288.334, 8683.647
288.816, 8750.682
289.298, 8849.025
289.781, 8911.294
290.263, 8920.492
290.745, 8901.183
291.227, 8900.565
291.709, 8917.579
292.191, 8928.924
292.673, 8914.881
293.155, 8881.674
293.638, 8848.835
294.120, 8815.215
294.602, 8791.196
295.084, 8797.641
295.566, 8832.119
296.048, 8873.692
296.530, 8909.374
297.012, 8943.107
297.494, 8986.839
297.977, 9047.640
298.459, 9106.204
298.941, 9135.443
299.423, 9140.101
299.905, 9139.150
300.387, 9134.596
300.869, 9134.003
301.351, 9151.654
301.833, 9191.749
302.316, 9241.378
302.798, 9294.226
303.280, 9346.372
303.762, 9387.810
304.244, 9391.943
304.726, 9389.607
305.208, 9423.337
305.690, 9502.094
306.173, 9590.987
306.655, 9675.960
307.137, 9748.331
307.619, 9789.470
308.101, 9748.228
308.583, 9695.554
309.065, 9697.589
309.547, 9763.833
310.030, 9858.053
310.512, 9974.768
310.994, 10100.830
311.476, 10214.260
311.958, 10310.790
312.440, 10387.800
312.922, 10439.170
313.404, 10462.380
313.886, 10482.180
314.369, 10514.250
314.851, 10549.990
315.333, 10577.400
315.815, 10596.290
316.297, 10602.960
316.779, 10599.620
317.261, 10586.770
317.743, 10548.880
318.225, 10447.100
318.708, 10330.240
319.190, 10248.740
319.672, 10256.290
320.154, 10261.520
320.636, 10221.600
321.118, 10137.630
321.600, 10088.000
322.082, 10121.450
322.565, 10180.710
323.047, 10221.030
323.529, 10223.850
324.011, 10219.320
324.493, 10204.240
324.975, 10180.940
325.457, 10175.090
325.939, 10198.090
326.422, 10233.430
326.904, 10271.520
327.386, 10322.710
327.868, 10363.080
328.350, 10385.150
328.832, 10393.160
329.314, 10409.440
329.796, 10440.920
330.278, 10474.510
330.760, 10504.480
331.243, 10536.600
331.725, 10553.780
332.207, 10538.090
332.689, 10509.060
333.171, 10527.920
333.653, 10624.780
334.135, 10725.540
334.617, 10797.380
335.100, 10832.700
335.582, 10861.250
336.064, 10877.020
336.546, 10890.520
337.028, 10922.120
337.510, 10973.320
337.992, 11037.970
338.474, 11123.750
338.957, 11236.990
339.439, 11303.180
339.921, 11306.920
340.403, 11288.680
340.885, 11315.500
341.367, 11395.900
341.849, 11457.780
342.331, 11466.750
342.813, 11430.070
343.296, 11421.930
343.778, 11447.140
344.260, 11481.860
344.742, 11491.230
345.224, 11478.360
345.706, 11489.200
346.188, 11552.700
346.670, 11645.400
347.152, 11699.110
347.635, 11713.210
348.117, 11706.030
348.599, 11673.780
349.081, 11629.350
349.563, 11620.330
350.045, 11668.300
350.527, 11746.400
351.009, 11819.430
351.491, 11886.440
351.974, 11939.400
352.456, 11960.730
352.938, 11966.570
353.420, 11982.860
353.902, 12011.940
354.384, 12058.190
354.866, 12140.340
355.349, 12246.420
355.831, 12339.780
356.313, 12383.310
356.795, 12413.080
357.277, 12466.460
357.759, 12556.290
358.241, 12647.120
358.723, 12719.500
359.205, 12776.990
359.688, 12827.370
360.170, 12863.620
360.652, 12901.380
361.134, 12957.330
361.616, 13038.400
362.098, 13096.610
362.580, 13087.930
363.062, 13054.800
363.544, 13046.640
364.027, 13114.490
364.509, 13172.050
364.991, 13196.300
365.473, 13185.880
365.955, 13145.290
366.437, 13050.150
366.919, 12938.580
367.401, 12840.970
367.884, 12770.860
368.366, 12701.760
368.848, 12613.920
369.330, 12516.360
369.812, 12474.080
370.294, 12536.680
370.776, 12609.290
371.258, 12630.260
371.741, 12501.260
372.223, 12521.210
372.705, 12807.450
373.187, 13221.760
373.669, 13369.490
374.151, 13120.170
374.633, 12854.220
375.115, 12739.670
375.597, 12811.640
376.079, 12865.050
376.562, 12899.320
377.044, 12915.930
377.526, 12907.470
378.008, 12866.740
378.490, 12847.720
378.972, 12883.920
379.454, 12964.680
379.936, 13002.890
380.419, 12992.800
380.901, 12966.880
381.383, 12958.330
381.865, 12965.810
382.347, 12977.970
382.829, 12997.840
383.311, 13016.770
383.793, 13012.850
384.276, 12987.100
384.758, 12955.890
385.240, 12926.210
385.722, 12901.060
386.204, 12889.320
386.686, 12900.260
387.168, 12910.580
387.650, 12888.460
388.132, 12841.780
388.615, 12799.410
389.097, 12772.960
389.579, 12760.540
390.061, 12761.640
390.543, 12777.680
391.025, 12799.770
391.507, 12834.480
391.989, 12869.880
392.471, 12886.580
392.954, 12838.710
393.436, 12802.590
393.918, 12828.280
394.400, 12923.030
394.882, 13010.420
395.364, 13069.600
395.846, 13108.120
396.328, 13132.910
396.810, 13097.520
397.293, 13099.370
397.775, 13182.330
398.257, 13335.640
398.739, 13453.280
399.221, 13499.350
399.703, 13527.540
400.185, 13563.080
400.668, 13613.370
401.150, 13658.780
401.632, 13698.730
402.114, 13733.550
402.596, 13762.080
403.078, 13774.650
403.560, 13798.400
404.042, 13846.410
404.524, 13922.100
405.007, 13997.320
405.489, 14071.100
405.971, 14146.270
406.453, 14231.610
406.935, 14331.240
407.417, 14413.330
407.899, 14463.680
408.381, 14489.300
408.863, 14523.080
409.346, 14566.600
409.828, 14606.340
410.310, 14641.150
410.792, 14665.760
411.274, 14645.310
411.756, 14551.750
412.238, 14444.930
412.720, 14432.910
413.203, 14500.710
413.685, 14562.150
414.167, 14552.540
414.649, 14506.310
415.131, 14471.210
415.613, 14452.040
416.095, 14445.940
416.577, 14464.960
417.060, 14493.660
417.542, 14504.660
418.024, 14463.290
418.506, 14416.970
418.988, 14391.130
419.470, 14386.390
419.952, 14406.550
420.434, 14480.880
420.916, 14566.750
421.398, 14628.660
421.881, 14626.290
422.363, 14633.470
422.845, 14680.430
423.327, 14755.370
423.809, 14803.780
424.291, 14788.050
424.773, 14770.920
425.255, 14780.690
425.738, 14835.140
426.220, 14878.840
426.702, 14900.620
427.184, 14916.730
427.666, 14953.070
428.148, 15011.080
428.630, 15086.920
429.112, 15186.170
429.595, 15309.700
430.077, 15412.890
430.559, 15497.480
431.041, 15556.990
431.523, 15566.650
432.005, 15520.590
432.487, 15534.560
432.969, 15654.010
433.451, 15822.470
433.934, 15887.690
434.416, 15851.200
434.898, 15818.260
435.380, 15879.990
435.862, 15998.010
436.344, 16063.920
436.826, 16062.400
437.308, 16032.090
437.790, 16007.110
438.273, 15985.920
438.755, 15964.990
439.237, 15899.170
439.719, 15860.580
440.201, 15962.280
440.683, 16196.060
441.165, 16364.550
441.647, 16300.440
442.129, 16137.230
442.612, 16003.600
443.094, 15933.960
443.576, 15897.430
444.058, 15911.650
444.540, 15954.670
445.022, 15963.400
445.504, 15869.330
445.987, 15782.960
446.469, 15756.860
446.951, 15829.080
447.433, 15871.930
447.915, 15852.790
448.397, 15819.170
448.879, 15831.370
449.361, 15932.390
449.843, 16004.810
450.326, 16015.530
450.808, 15972.090
451.290, 15959.460
451.772, 15984.640
452.254, 16023.680
452.736, 16063.160
453.218, 16103.990
453.700, 16130.310
454.182, 16134.490
454.665, 16132.680
455.147, 16162.570
455.629, 16221.840
456.111, 16270.050
456.593, 16273.740
457.075, 16252.540
457.557, 16262.420
458.039, 16306.490
458.522, 16348.160
459.004, 16356.620
459.486, 16339.860
459.968, 16311.530
460.450, 16265.700
460.932, 16221.840
461.414, 16182.960
461.896, 16155.770
462.379, 16164.100
462.861, 16250.560
463.343, 16355.300
463.825, 16439.711
464.307, 16493.199
464.789, 16539.500
465.271, 16590.859
465.753, 16637.609
466.235, 16667.381
466.717, 16637.359
467.200, 16633.010
467.682, 16680.689
468.164, 16778.801
468.646, 16871.109
469.128, 16967.061
469.610, 17047.631
470.092, 17097.500
470.574, 17103.170
471.057, 17117.730
471.539, 17148.061
472.021, 17183.980
472.503, 17205.490
472.985, 17211.061
473.467, 17209.770
473.949, 17208.670
474.431, 17204.609
474.914, 17171.400
475.396, 17105.609
475.878, 17045.250
476.360, 17040.660
476.842, 17072.670
477.324, 17084.240
477.806, 17057.199
478.288, 17012.320
478.770, 16958.760
479.253, 16904.279
479.735, 16874.010
480.217, 16893.250
480.699, 16936.070
481.181, 16985.500
481.663, 17041.109
482.145, 17089.971
482.627, 17118.510
483.109, 17139.039
483.592, 17164.570
484.074, 17196.270
484.556, 17233.779
485.038, 17280.949
485.520, 17335.180
486.002, 17380.109
486.484, 17388.420
486.966, 17412.279
487.448, 17480.641
487.931, 17625.119
488.413, 17724.760
488.895, 17769.100
489.377, 17781.391
489.859, 17788.670
490.341, 17787.529
490.823, 17802.910
491.306, 17845.770
491.788, 17910.400
492.270, 17972.320
492.752, 18032.170
493.234, 18090.170
493.716, 18139.039
494.198, 18185.789
494.680, 18252.961
495.162, 18348.711
495.645, 18447.779
496.127, 18527.010
496.609, 18588.631
497.091, 18640.359
497.573, 18667.320
498.055, 18698.150
498.537, 18766.461
499.019, 18868.000
499.501, 18949.680
499.984, 18960.420
500.466, 18957.779
500.948, 18985.699
501.430, 19078.789
501.912, 19160.410
502.394, 19211.000
502.876, 19241.789
503.358, 19275.381
503.841, 19330.949
504.323, 19364.830
504.805, 19359.801
505.287, 19314.150
505.769, 19281.221
506.251, 19264.850
506.733, 19253.289
507.215, 19234.270
507.698, 19205.490
508.180, 19194.109
508.662, 19208.869
509.144, 19231.740
509.626, 19227.910
510.108, 19199.420
510.590, 19170.211
511.072, 19141.961
511.554, 19123.551
512.036, 19137.359
512.519, 19182.990
513.001, 19235.660
513.483, 19296.430
513.965, 19345.830
514.447, 19352.400
514.929, 19274.570
515.411, 19218.859
515.893, 19272.900
516.375, 19387.539
516.858, 19464.080
517.340, 19432.551
517.822, 19393.471
518.304, 19377.471
518.786, 19385.789
519.268, 19421.100
519.750, 19512.840
520.232, 19605.160
520.715, 19660.150
521.197, 19663.660
521.679, 19657.289
522.161, 19625.529
522.643, 19599.240
523.125, 19656.859
523.607, 19813.650
524.089, 19959.779
524.571, 20050.779
525.054, 20095.689
525.536, 20123.529
526.018, 20133.100
526.500, 20148.100
526.982, 20189.221
527.464, 20250.750
527.946, 20326.301
528.429, 20426.730
528.911, 20507.869
529.393, 20505.170
529.875, 20453.420
530.357, 20423.199
530.839, 20452.150
531.321, 20503.670
531.803, 20564.789
532.286, 20634.500
532.768, 20700.760
533.250, 20773.061
533.732, 20832.891
534.214, 20868.750
534.696, 20853.400
535.178, 20860.721
535.660, 20914.500
536.142, 20978.730
536.625, 20992.869
537.107, 20940.080
537.589, 20882.830
538.071, 20834.721
538.553, 20795.971
539.035, 20765.010
539.517, 20741.410
539.999, 20730.670
540.481, 20751.971
540.964, 20791.670
541.446, 20790.881
541.928, 20736.760
542.410, 20674.699
542.892, 20644.811
543.374, 20643.150
543.856, 20662.240
544.338, 20718.320
544.820, 20776.980
545.303, 20815.340
545.785, 20835.520
546.267, 20846.869
546.749, 20784.221
547.231, 20766.949
547.713, 20895.930
548.195, 21278.869
548.677, 21493.141
549.159, 21376.641
549.642, 21158.250
550.124, 21053.010
550.606, 21109.721
551.088, 21177.670
551.570, 21251.930
552.052, 21317.721
552.534, 21314.221
553.016, 21227.230
553.499, 21154.391
553.981, 21154.670
554.463, 21212.170
554.945, 21249.699
555.427, 21265.939
555.909, 21280.561
556.391, 21314.289
556.873, 21359.369
557.356, 21400.980
557.838, 21437.801
558.320, 21467.131
558.802, 21469.490
559.284, 21463.850
559.766, 21488.279
560.248, 21588.641
560.730, 21695.061
561.213, 21778.961
561.695, 21840.000
562.177, 21885.230
562.659, 21910.570
563.141, 21923.551
563.623, 21925.609
564.105, 21904.039
564.587, 21898.141
565.069, 21904.750
565.552, 21929.580
566.034, 22004.600
566.516, 22144.240
566.998, 22197.789
567.480, 22088.689
567.962, 21892.641
568.444, 21815.070
568.926, 21849.070
569.408, 21904.529
569.891, 21934.000
570.373, 21945.230
570.855, 21942.910
571.337, 21925.670
571.819, 21922.039
572.301, 21958.980
572.783, 22017.449
573.265, 22077.270
573.747, 22150.840
574.230, 22202.420
574.712, 22210.170
575.194, 22188.881
575.676, 22175.930
576.158, 22182.439
576.640, 22188.141
577.122, 22184.650
577.604, 22172.430
578.086, 22181.721
578.569, 22222.699
579.051, 22263.039
579.533, 22266.369
580.015, 22233.260
580.497, 22258.971
580.979, 22366.301
581.461, 22479.721
581.943, 22482.000
582.426, 22404.230
582.908, 22348.221
583.390, 22364.539
583.872, 22403.830
584.354, 22411.150
584.836, 22396.010
585.318, 22392.070
585.800, 22405.010
586.282, 22441.939
586.765, 22525.260
587.247, 22670.109
587.729, 22761.029
588.211, 22706.570
588.693, 22634.221
589.175, 22643.010
589.657, 22797.779
590.140, 22907.301
590.622, 22948.359
591.104, 22952.010
591.586, 22977.369
592.068, 23028.250
592.550, 23076.391
593.032, 23112.400
593.514, 23139.939
593.996, 23173.840
594.479, 23213.279
594.961, 23242.990
595.443, 23230.520
595.925, 23210.230
596.407, 23240.199
596.889, 23330.730
597.371, 23422.859
597.853, 23491.930
598.335, 23537.359
598.818, 23558.221
599.300, 23525.801
599.782, 23503.090
600.264, 23497.350
600.746, 23511.391
601.228, 23551.320
601.710, 23635.199
602.192, 23718.131
602.674, 23792.369
603.157, 23857.330
603.639, 23895.930
604.121, 23898.250
604.603, 23913.539
605.085, 23989.369
605.567, 24113.529
606.049, 24207.090
606.531, 24263.449
607.013, 24303.420
607.496, 24345.721
607.978, 24388.510
608.460, 24426.619
608.942, 24445.109
609.424, 24478.539
609.906, 24557.170
610.388, 24667.471
610.870, 24777.090
611.353, 24894.561
611.835, 24992.131
612.317, 25062.080
612.799, 25103.311
613.281, 25119.920
613.763, 25087.980
614.245, 25063.520
614.727, 25084.279
615.209, 25164.340
615.692, 25211.199
616.174, 25215.580
616.656, 25211.980
617.138, 25243.820
617.620, 25305.840
618.102, 25365.881
618.584, 25413.359
619.067, 25463.381
619.549, 25559.539
620.031, 25675.070
620.513, 25740.000
620.995, 25659.920
621.477, 25570.869
621.959, 25556.439
622.441, 25614.061
622.923, 25688.070
623.406, 25794.619
623.888, 25886.570
624.370, 25936.760
624.852, 25931.430
625.334, 25931.721
625.816, 25933.369
626.298, 25946.090
626.780, 25993.150
627.263, 26081.980
627.745, 26115.891
628.227, 26065.789
628.709, 25988.850
629.191, 25979.990
629.673, 26028.699
630.155, 26088.961
630.637, 26139.779
631.119, 26193.471
631.602, 26287.631
632.084, 26405.949
632.566, 26471.770
633.048, 26381.830
633.530, 26280.410
634.012, 26252.529
634.494, 26317.461
634.976, 26393.881
635.458, 26492.109
635.941, 26581.461
636.423, 26634.650
636.905, 26627.631
637.387, 26661.039
637.869, 26756.449
638.351, 26866.400
638.833, 26907.990
639.315, 26885.189
639.797, 26868.580
640.280, 26871.600
640.762, 26900.359
641.244, 26987.369
641.726, 27114.580
642.208, 27218.539
642.690, 27246.561
643.172, 27250.330
643.654, 27256.850
644.137, 27269.000
644.619, 27305.141
645.101, 27401.920
645.583, 27502.350
646.065, 27567.961
646.547, 27577.961
647.029, 27610.240
647.511, 27665.520
647.994, 27742.400
648.476, 27849.990
648.958, 27994.670
649.440, 28105.369
649.922, 28167.949
650.404, 28197.311
650.886, 28197.420
651.368, 28180.471
651.851, 28198.211
652.333, 28299.270
652.815, 28423.949
653.297, 28520.051
653.779, 28589.949
654.261, 28642.980
654.743, 28667.490
655.225, 28690.891
655.707, 28722.789
656.190, 28762.230
656.672, 28830.711
657.154, 28953.221
657.636, 29078.570
658.118, 29173.600
658.600, 29230.680
659.082, 29287.340
659.564, 29342.301
660.046, 29402.461
660.529, 29484.529
661.011, 29582.619
661.493, 29659.439
661.975, 29689.660
662.457, 29728.980
662.939, 29865.350
663.421, 30061.250
663.903, 30231.680
664.385, 30297.330
664.868, 30370.221
665.350, 30508.289
665.832, 30706.279
666.314, 30914.141
666.796, 31144.461
667.278, 31364.369
667.760, 31549.939
668.242, 31694.830
668.724, 31904.561
669.207, 32191.090
669.689, 32508.240
670.171, 32809.891
670.653, 33102.320
671.135, 33436.340
671.617, 33816.141
672.099, 34211.211
672.581, 34576.512
673.064, 34938.090
673.546, 35342.391
674.028, 35833.051
674.510, 36314.500
674.992, 36789.238
675.474, 37212.141
675.956, 37511.359
676.438, 37637.039
676.920, 37679.621
677.403, 37669.301
677.885, 37594.922
678.367, 37395.199
678.849, 37040.070
679.331, 36650.910
679.813, 36278.422
680.295, 35913.922
680.778, 35470.840
681.260, 34943.730
681.742, 34462.930
682.224, 34116.840
682.706, 33867.871
683.188, 33671.980
683.670, 33529.559
684.152, 33388.680
684.634, 33192.461
685.117, 32997.980
685.599, 32857.129
686.081, 32808.852
686.563, 32769.840
687.045, 32749.180
687.527, 32727.971
688.009, 32673.381
688.491, 32568.551
688.973, 32502.801
689.456, 32498.869
689.938, 32534.789
690.420, 32579.820
690.902, 32629.170
691.384, 32650.680
691.866, 32590.619
692.348, 32523.410
692.830, 32553.289
693.312, 32657.881
693.795, 32745.090
694.277, 32739.369
694.759, 32730.631
695.241, 32767.520
695.723, 32856.160
696.205, 32948.770
696.687, 33062.719
697.169, 33155.730
697.652, 33197.469
698.134, 33176.461
698.616, 33180.949
699.098, 33211.461
699.580, 33268.738
700.062, 33367.309
700.544, 33495.840
701.026, 33611.691
701.508, 33706.672
701.991, 33796.801
702.473, 33894.000
702.955, 33996.262
703.437, 34100.621
703.919, 34232.711
704.401, 34336.121
704.883, 34356.969
705.365, 34341.609
705.847, 34401.270
706.330, 34605.801
706.812, 34750.699
707.294, 34778.559
707.776, 34716.539
708.258, 34663.160
708.740, 34618.781
709.222, 34576.488
709.705, 34524.840
710.187, 34476.570
710.669, 34469.941
711.151, 34498.000
711.633, 34502.180
712.115, 34407.609
712.597, 34303.531
713.079, 34269.949
713.561, 34331.609
714.044, 34341.262
714.526, 34206.012
715.008, 34062.820
715.490, 33993.551
715.972, 34027.000
716.454, 34039.199
716.936, 34025.922
717.418, 33999.949
717.901, 33953.090
718.383, 33898.512
718.865, 33921.922
719.347, 34059.422
719.829, 34208.051
720.311, 34229.512
720.793, 34191.051
721.275, 34201.879
721.757, 34365.629
722.240, 34509.078
722.722, 34560.141
723.204, 34549.539
723.686, 34547.570
724.168, 34570.090
724.650, 34577.762
725.132, 34550.281
725.614, 34505.910
726.096, 34516.340
726.579, 34584.680
727.061, 34649.840
727.543, 34671.270
728.025, 34674.930
728.507, 34717.539
728.989, 34793.059
729.471, 34862.719
729.953, 34902.078
730.435, 34929.590
730.918, 34959.789
731.400, 34995.012
731.882, 35019.680
732.364, 35037.078
732.846, 35038.340
733.328, 35010.699
733.810, 34941.551
734.292, 34917.660
734.775, 34947.980
735.257, 34993.969
735.739, 35016.781
736.221, 35023.340
736.703, 35042.781
737.185, 35080.648
737.667, 35118.102
738.149, 35126.840
738.631, 35129.801
739.114, 35157.211
739.596, 35228.410
740.078, 35305.340
740.560, 35390.719
741.042, 35472.609
741.524, 35530.211
742.006, 35536.289
742.489, 35588.359
742.971, 35718.461
743.453, 35879.320
743.935, 35963.500
744.417, 35979.020
744.899, 36033.469
745.381, 36194.289
745.863, 36371.180
746.345, 36443.070
746.828, 36433.559
747.310, 36412.770
747.792, 36370.609
748.274, 36362.051
748.756, 36429.781
749.238, 36561.609
749.720, 36672.250
750.202, 36762.000
750.684, 36827.961
751.167, 36872.090
751.649, 36894.262
752.131, 36862.160
752.613, 36773.730
753.095, 36709.219
753.577, 36752.852
754.059, 36844.629
754.541, 36850.941
755.023, 36776.801
755.506, 36762.699
755.988, 36932.000
756.470, 37156.641
756.952, 37369.621
757.434, 37576.000
757.916, 37683.129
758.398, 37634.449
758.880, 37546.711
759.362, 37482.879
759.845, 37438.281
760.327, 37480.699
760.809, 37629.539
761.291, 37781.059
761.773, 37817.070
762.255, 37781.422
762.737, 37772.070
763.219, 37810.410
763.702, 37859.398
764.184, 37892.539
764.666, 37925.219
765.148, 37974.609
765.630, 38074.410
766.112, 38144.539
766.594, 38168.039
767.076, 38168.762
767.558, 38162.590
768.041, 38138.211
768.523, 38188.551
769.005, 38350.898
769.487, 38534.680
769.969, 38580.359
770.451, 38531.512
770.933, 38517.328
771.416, 38613.711
771.898, 38709.070
772.380, 38706.801
772.862, 38652.340
773.344, 38633.000
773.826, 38718.590
774.308, 38782.480
774.790, 38803.000
775.272, 38791.578
775.755, 38767.551
776.237, 38725.289
776.719, 38717.090
777.201, 38768.148
777.683, 38857.520
778.165, 38961.750
778.647, 39070.551
779.129, 39140.570
779.612, 39094.949
780.094, 39050.570
780.576, 39099.090
781.058, 39221.629
781.540, 39320.871
782.022, 39336.809
782.504, 39373.211
782.986, 39476.730
783.468, 39630.359
783.951, 39683.699
784.433, 39621.539
784.915, 39569.520
785.397, 39604.109
785.879, 39696.039
786.361, 39791.449
786.843, 39888.039
787.325, 39972.469
787.807, 40024.680
788.290, 40072.781
788.772, 40147.270
789.254, 40250.781
789.736, 40315.359
790.218, 40298.340
790.700, 40287.109
791.182, 40321.520
791.664, 40401.191
792.146, 40485.281
792.629, 40573.578
793.111, 40660.629
793.593, 40743.910
794.075, 40822.738
794.557, 40905.750
795.039, 40991.559
795.521, 41050.109
796.003, 41013.422
796.485, 40978.410
796.968, 41027.020
797.450, 41201.172
797.932, 41317.340
798.414, 41354.879
798.896, 41363.680
799.378, 41369.898
799.860, 41373.840
800.343, 41403.559
800.825, 41462.031
801.307, 41524.480
801.789, 41583.379
802.271, 41626.090
802.753, 41610.770
803.235, 41516.172
803.717, 41481.461
804.199, 41622.730
804.682, 41816.180
805.164, 41961.988
805.646, 42042.180
806.128, 42118.699
806.610, 42201.211
807.092, 42261.922
807.574, 42253.809
808.056, 42189.609
808.539, 42181.641
809.021, 42245.488
809.503, 42324.602
809.985, 42354.051
810.467, 42373.230
810.949, 42439.801
811.431, 42595.148
811.913, 42710.141
812.395, 42718.172
812.878, 42690.711
813.360, 42686.219
813.842, 42710.031
814.324, 42737.852
814.806, 42768.090
815.288, 42802.648
815.770, 42846.309
816.252, 42895.961
816.734, 42940.801
817.217, 42976.129
817.699, 43018.578
818.181, 43094.250
818.663, 43177.660
819.145, 43242.102
819.627, 43278.398
820.109, 43299.500
820.591, 43299.371
821.073, 43293.789
821.556, 43288.961
822.038, 43280.648
822.520, 43340.520
823.002, 43492.629
823.484, 43644.941
823.966, 43657.379
824.448, 43594.109
824.930, 43574.020
825.413, 43630.949
825.895, 43710.340
826.377, 43785.910
826.859, 43869.320
827.341, 43972.629
827.823, 44105.191
828.305, 44241.910
828.787, 44391.930
829.269, 44527.789
829.752, 44608.430
830.234, 44640.219
830.716, 44662.922
831.198, 44679.250
831.680, 44707.199
832.162, 44802.449
832.644, 44904.789
833.127, 44922.590
833.609, 44757.980
834.091, 44677.141
834.573, 44840.969
835.055, 45048.102
835.537, 45109.410
836.019, 44970.352
836.501, 44960.590
836.983, 45127.879
837.466, 45337.059
837.948, 45416.078
838.430, 45411.320
838.912, 45433.609
839.394, 45506.840
839.876, 45593.441
840.358, 45680.738
840.840, 45763.480
841.322, 45836.180
841.805, 45894.359
842.287, 45948.809
842.769, 45993.699
843.251, 46042.770
843.733, 46111.930
844.215, 46199.301
844.697, 46286.539
845.179, 46372.059
845.661, 46451.352
846.144, 46511.270
846.626, 46565.172
847.108, 46630.621
847.590, 46715.160
848.072, 46794.059
848.554, 46855.969
849.036, 46912.750
849.518, 46972.000
850.000, 47033.711
850.483, 47104.750
850.965, 47191.500
851.447, 47266.219
851.929, 47287.941
852.411, 47282.551
852.893, 47303.340
853.375, 47357.469
853.857, 47441.539
854.340, 47623.148
854.822, 47787.648
855.304, 47823.711
855.786, 47656.988
856.268, 47615.480
856.750, 47747.180
857.232, 47918.441
857.714, 48038.352
858.196, 48111.891
858.679, 48158.660
859.161, 48178.602
859.643, 48226.750
860.125, 48378.070
860.607, 48558.129
861.089, 48686.711
861.571, 48751.699
862.054, 48825.039
862.536, 48973.289
863.018, 49079.699
863.500, 49071.020
863.982, 48946.680
864.464, 48915.719
864.946, 48985.109
865.428, 49082.840
865.910, 49174.730
866.393, 49256.680
866.875, 49325.969
867.357, 49380.520
867.839, 49405.109
868.321, 49332.680
868.803, 49284.578
869.285, 49358.289
869.767, 49534.160
870.250, 49611.141
870.732, 49560.199
871.214, 49512.148
871.696, 49535.570
872.178, 49602.359
872.660, 49610.770
873.142, 49579.230
873.624, 49597.738
874.106, 49787.930
874.589, 49976.539
875.071, 50035.980
875.553, 49992.141
876.035, 49979.129
876.517, 49997.141
876.999, 50062.840
877.481, 50199.090
877.963, 50370.801
878.445, 50471.270
878.928, 50506.879
879.410, 50535.770
879.892, 50583.781
880.374, 50632.852
880.856, 50667.789
881.338, 50691.980
881.820, 50711.820
882.302, 50712.609
882.784, 50734.148
883.267, 50797.422
883.749, 50874.680
884.231, 50895.602
884.713, 50856.590
885.195, 50892.961
885.677, 51050.148
886.159, 51244.488
886.641, 51398.309
887.123, 51509.320
887.606, 51567.961
888.088, 51522.871
888.570, 51512.719
889.052, 51618.051
889.534, 51752.762
890.016, 51824.320
890.498, 51814.160
890.981, 51832.180
891.463, 51887.219
891.945, 51968.102
892.427, 52077.328
892.909, 52200.879
893.391, 52301.051
893.873, 52364.840
894.355, 52452.391
894.837, 52614.500
895.320, 52794.980
895.802, 52952.699
896.284, 53087.289
896.766, 53193.590
897.248, 53269.879
897.730, 53318.121
898.212, 53329.680
898.694, 53315.320
899.177, 53304.809
899.659, 53300.172
900.141, 53302.070
900.623, 53322.859
901.105, 53343.738
901.587, 53349.078
902.069, 53339.789
902.551, 53347.020
903.033, 53366.309
903.516, 53418.270
903.998, 53528.520
904.480, 53671.219
904.962, 53734.000
905.444, 53731.852
905.926, 53758.281
906.408, 53910.172
906.890, 54064.250
907.372, 54134.340
907.855, 54138.180
908.337, 54135.051
908.819, 54106.809
909.301, 54119.672
909.783, 54206.180
910.265, 54320.520
910.747, 54324.289
911.229, 54246.410
911.711, 54292.090
912.194, 54579.629
912.676, 54878.500
913.158, 54970.680
913.640, 54944.551
914.122, 54924.051
914.604, 54918.910
915.086, 54948.941
915.568, 55027.941
916.050, 55123.730
916.533, 55204.840
917.015, 55271.789
917.497, 55326.961
917.979, 55370.879
918.461, 55405.441
918.943, 55421.922
919.425, 55437.480
919.907, 55468.512
920.390, 55517.270
920.872, 55588.699
921.354, 55710.762
921.836, 55819.371
922.318, 55859.859
922.800, 55839.461
923.282, 55930.910
923.765, 56131.219
924.247, 56327.480
924.729, 56426.250
925.211, 56491.031
925.693, 56580.238
926.175, 56692.871
926.657, 56810.410
927.139, 56964.430
927.621, 57075.852
928.104, 57116.660
928.586, 57105.039
929.068, 57084.891
929.550, 57059.250
930.032, 57090.422
930.514, 57237.180
930.996, 57398.020
931.478, 57445.391
931.960, 57430.680
932.443, 57443.898
932.925, 57571.930
933.407, 57643.629
933.889, 57605.770
934.371, 57544.090
934.853, 57576.578
935.335, 57699.941
935.817, 57809.648
936.299, 57893.262
936.782, 57947.879
937.264, 57926.160
937.746, 57897.328
938.228, 57951.379
938.710, 58124.789
939.192, 58273.172
939.674, 58359.578
940.156, 58432.879
940.638, 58521.602
941.121, 58624.441
941.603, 58709.672
942.085, 58778.461
942.567, 58849.602
943.049, 58954.801
943.531, 59054.320
944.013, 59100.789
944.495, 59102.449
944.978, 59117.051
945.460, 59150.070
945.942, 59210.672
946.424, 59320.148
946.906, 59448.500
947.388, 59495.051
947.870, 59470.410
948.352, 59481.621
948.834, 59573.121
949.317, 59697.289
949.799, 59852.160
950.281, 59997.551
950.763, 60074.371
951.245, 59959.699
951.727, 59941.559
952.209, 60063.512
952.692, 60226.891
953.174, 60317.191
953.656, 60347.949
954.138, 60420.852
954.620, 60546.488
955.102, 60676.141
955.584, 60797.891
956.066, 60885.961
956.548, 60892.699
957.031, 60798.512
957.513, 60803.000
957.995, 60956.859
958.477, 61119.770
958.959, 61230.820
959.441, 61298.988
959.923, 61338.789
960.405, 61360.352
960.888, 61414.980
961.370, 61569.539
961.852, 61725.500
962.334, 61797.762
962.816, 61829.762
963.298, 61941.461
963.780, 62184.801
964.262, 62376.770
964.744, 62472.039
965.227, 62536.738
965.709, 62694.891
966.191, 62902.801
966.673, 63037.352
967.155, 63061.430
967.637, 63056.672
968.119, 63036.660
968.601, 63029.270
969.083, 63066.500
969.566, 63165.141
970.048, 63211.320
970.530, 63192.422
971.012, 63180.250
971.494, 63234.840
971.976, 63327.289
972.458, 63408.820
972.940, 63478.551
973.422, 63541.859
973.905, 63603.660
974.387, 63657.750
974.869, 63697.461
975.351, 63729.910
975.833, 63766.160
976.315, 63802.699
976.797, 63887.801
977.279, 64052.012
977.761, 64229.441
978.244, 64333.730
978.726, 64396.148
979.208, 64462.410
979.690, 64528.320
980.172, 64632.059
980.654, 64828.961
981.136, 65010.262
981.619, 65073.641
982.101, 65021.012
982.583, 64959.660
983.065, 64891.988
983.547, 64910.309
984.029, 65220.949
984.511, 65549.008
984.993, 65593.461
985.475, 65365.191
985.958, 65307.719
986.440, 65573.977
986.922, 65803.703
987.404, 65885.703
987.886, 65865.094
988.368, 65818.023
988.850, 65765.406
989.332, 65805.078
989.815, 66028.344
990.297, 66251.133
990.779, 66359.211
991.261, 66401.188
991.743, 66435.406
992.225, 66435.383
992.707, 66523.594
993.189, 66724.602
993.671, 66935.469
994.154, 67044.906
994.636, 67094.711
995.118, 67166.781
995.600, 67266.617
996.082, 67377.547
996.564, 67488.180
997.046, 67611.891
997.528, 67769.477
998.010, 67947.109
998.493, 68064.883
998.975, 68120.781
999.457, 68150.852
999.939, 68135.609
1000.421, 68151.453
1000.903, 68334.492
1001.385, 68604.203
1001.867, 68825.711
1002.349, 68921.406
1002.832, 69017.703
1003.314, 69127.617
1003.796, 69234.570
1004.278, 69323.953
1004.760, 69395.273
1005.242, 69425.031
1005.724, 69412.297
1006.206, 69412.773
1006.689, 69463.641
1007.171, 69547.797
1007.653, 69668.883
1008.135, 69823.047
1008.617, 69941.992
1009.099, 70008.188
1009.581, 70098.070
1010.063, 70249.797
1010.545, 70424.094
1011.028, 70540.852
1011.510, 70612.477
1011.992, 70671.648
1012.474, 70708.977
1012.956, 70768.320
1013.438, 70828.477
1013.920, 70944.656
1014.402, 71197.961
1014.885, 71620.531
1015.367, 71900.883
1015.849, 72018.617
1016.331, 72095.930
1016.813, 72215.344
1017.295, 72360.789
1017.777, 72487.508
1018.259, 72606.344
1018.741, 72848.891
1019.224, 73364.812
1019.706, 73804.258
1020.188, 74048.406
1020.670, 74190.531
1021.152, 74441.227
1021.634, 74791.359
1022.116, 75213.797
1022.598, 75739.844
1023.081, 76227.023
1023.563, 76562.773
1024.045, 76822.867
1024.527, 77105.531
1025.009, 77473.883
1025.491, 77621.594
1025.973, 77523.078
1026.455, 77308.906
1026.938, 77036.242
1027.420, 76739.953
1027.902, 76462.328
1028.384, 76211.570
1028.866, 76020.078
1029.348, 75900.453
1029.830, 75855.430
1030.312, 75919.422
1030.794, 76031.633
1031.276, 76038.273
1031.759, 75955.023
1032.241, 75936.703
1032.723, 76027.906
1033.205, 76158.453
1033.687, 76312.422
1034.169, 76451.188
1034.651, 76519.789
1035.133, 76482.703
1035.616, 76529.750
1036.098, 76675.719
1036.580, 76857.117
1037.062, 77036.492
1037.544, 77220.141
1038.026, 77415.594
1038.508, 77622.727
1038.990, 77837.297
1039.473, 78122.102
1039.955, 78330.078
1040.437, 78365.852
1040.919, 78339.148
1041.401, 78412.688
1041.883, 78587.383
1042.365, 78754.406
1042.847, 78904.156
1043.329, 79043.641
1043.812, 79174.578
1044.294, 79306.172
1044.776, 79439.961
1045.258, 79575.797
1045.740, 79754.438
1046.222, 79991.531
1046.704, 80233.047
1047.186, 80456.703
1047.668, 80675.828
1048.151, 80948.430
1048.633, 81240.117
1049.115, 81465.094
1049.597, 81500.297
1050.079, 81601.703
1050.561, 81943.289
1051.043, 82323.812
1051.525, 82565.844
1052.008, 82663.977
1052.490, 82714.344
1052.972, 82715.344
1053.454, 82814.656
1053.936, 83298.406
1054.418, 83790.547
1054.900, 83885.156
1055.382, 83644.570
1055.865, 83581.820
1056.347, 83800.344
1056.829, 84017.148
1057.311, 84182.688
1057.793, 84292.789
1058.275, 84298.906
1058.757, 84252.688
1059.239, 84286.023
1059.721, 84457.719
1060.203, 84579.633
1060.686, 84523.500
1061.168, 84452.344
1061.650, 84459.648
1062.132, 84541.680
1062.614, 84645.141
1063.096, 84766.383
1063.578, 84788.172
1064.060, 84533.648
1064.543, 84271.852
1065.025, 84231.242
1065.507, 84326.203
1065.989, 84385.203
1066.471, 84387.727
1066.953, 84377.570
1067.435, 84358.656
1067.917, 84324.102
1068.400, 84249.609
1068.882, 84161.906
1069.364, 84103.953
1069.846, 84079.453
1070.328, 84076.820
1070.810, 84096.133
1071.292, 84135.547
1071.774, 84217.727
1072.256, 84301.844
1072.739, 84243.461
1073.221, 84070.320
1073.703, 83966.852
1074.185, 84011.469
1074.667, 84055.883
1075.149, 83990.562
1075.631, 83879.211
1076.113, 83780.219
1076.596, 83697.289
1077.078, 83629.172
1077.560, 83581.383
1078.042, 83525.203
1078.524, 83444.539
1079.006, 83350.094
1079.488, 83260.711
1079.970, 83169.953
1080.453, 83057.047
1080.935, 82861.477
1081.417, 82728.430
1081.899, 82680.094
1082.381, 82679.648
1082.863, 82699.789
1083.345, 82728.781
1083.827, 82714.406
1084.309, 82652.289
1084.792, 82630.039
1085.274, 82709.172
1085.756, 82823.594
1086.238, 82988.148
1086.720, 83149.203
1087.202, 83062.211
1087.684, 82736.680
1088.166, 82574.383
1088.648, 82743.344
1089.131, 82951.453
1089.613, 82935.492
1090.095, 82812.492
1090.577, 82691.938
1091.059, 82572.680
1091.541, 82541.523
1092.023, 82616.008
1092.505, 82715.508
1092.988, 82796.000
1093.470, 82870.023
1093.952, 82949.883
1094.434, 83041.219
1094.916, 83158.781
1095.398, 83397.477
1095.880, 83516.352
1096.362, 83428.133
1096.844, 83305.453
1097.327, 83372.422
1097.809, 83572.328
1098.291, 83660.906
1098.773, 83625.812
1099.255, 83585.672
1099.737, 83608.617
1100.219, 83645.547
1100.701, 83671.406
1101.183, 83694.367
1101.666, 83737.656
1102.148, 83801.883
1102.630, 83868.742
1103.112, 83936.547
1103.594, 83998.312
1104.076, 84053.773
1104.558, 84094.781
1105.040, 84086.367
1105.523, 84005.953
1106.005, 84093.023
1106.487, 84395.398
1106.969, 84666.070
1107.451, 84789.883
1107.933, 84818.047
1108.415, 84806.133
1108.897, 84771.141
1109.380, 84746.898
1109.862, 84774.844
1110.344, 84754.203
1110.826, 84632.453
1111.308, 84548.891
1111.790, 84671.523
1112.272, 84925.680
1112.754, 85039.438
1113.236, 85025.703
1113.719, 84991.383
1114.201, 84929.719
1114.683, 84932.859
1115.165, 85078.781
1115.647, 85269.797
1116.129, 85334.320
1116.611, 85283.023
1117.093, 85332.789
1117.575, 85515.156
1118.058, 85706.133
1118.540, 85838.570
1119.022, 85921.219
1119.504, 85942.570
1119.986, 85916.281
1120.468, 85918.289
1120.950, 85953.883
1121.432, 85976.539
1121.915, 85957.141
1122.397, 85967.523
1122.879, 86166.227
1123.361, 86408.133
1123.843, 86490.922
1124.325, 86308.891
1124.807, 86266.867
1125.289, 86407.047
1125.771, 86575.531
1126.254, 86694.812
1126.736, 86784.102
1127.218, 86863.008
1127.700, 86945.047
1128.182, 87062.672
1128.664, 87257.367
1129.146, 87439.656
1129.628, 87598.070
1130.110, 87738.969
1130.593, 87853.953
1131.075, 87955.102
1131.557, 88120.828
1132.039, 88335.789
1132.521, 88489.117
1133.003, 88463.562
1133.485, 88436.891
1133.967, 88482.656
1134.450, 88561.797
1134.932, 88610.578
1135.414, 88634.578
1135.896, 88689.367
1136.378, 88787.297
1136.860, 88861.656
1137.342, 88810.703
1137.824, 88771.547
1138.307, 88860.344
1138.789, 89045.273
1139.271, 89198.367
1139.753, 89318.367
1140.235, 89417.523
1140.717, 89485.930
1141.199, 89562.547
1141.681, 89721.977
1142.163, 89882.422
1142.646, 89943.406
1143.128, 89879.656
1143.610, 89836.953
1144.092, 89813.594
1144.574, 89818.594
1145.056, 89861.562
1145.538, 89931.688
1146.020, 90044.727
1146.502, 90167.023
1146.985, 90239.547
1147.467, 90210.469
1147.949, 90222.133
1148.431, 90296.242
1148.913, 90370.039
1149.395, 90360.633
1149.877, 90334.633
1150.359, 90467.000
1150.842, 90710.523
1151.324, 90911.211
1151.806, 90897.727
1152.288, 91012.133
1152.770, 91356.773
1153.252, 91730.844
1153.734, 91889.578
1154.216, 91895.508
1154.698, 91948.719
1155.181, 92057.852
1155.663, 92177.797
1156.145, 92301.406
1156.627, 92417.883
1157.109, 92530.977
1157.591, 92633.406
1158.073, 92704.656
1158.555, 92752.398
1159.037, 92814.961
1159.520, 92900.781
1160.002, 92976.977
1160.484, 93007.547
1160.966, 93037.977
1161.448, 93090.977
1161.930, 93162.312
1162.412, 93241.047
1162.894, 93326.547
1163.377, 93416.898
1163.859, 93519.594
1164.341, 93599.156
1164.823, 93627.773
1165.305, 93623.406
1165.787, 93582.203
1166.269, 93511.594
1166.751, 93546.203
1167.234, 93689.109
1167.716, 93850.297
1168.198, 94002.906
1168.680, 94140.703
1169.162, 94242.453
1169.644, 94334.391
1170.126, 94457.633
1170.608, 94624.977
1171.090, 94738.469
1171.573, 94789.578
1172.055, 94853.203
1172.537, 94952.281
1173.019, 95103.523
1173.501, 95402.727
1173.983, 95744.258
1174.465, 95896.430
1174.947, 95723.172
1175.430, 95716.211
1175.912, 95915.961
1176.394, 96153.500
1176.876, 96301.961
1177.358, 96395.273
1177.840, 96429.656
1178.322, 96442.453
1178.804, 96579.477
1179.286, 96969.570
1179.769, 97203.773
1180.251, 97203.773
1180.733, 97144.570
1181.215, 97174.406
1181.697, 97294.883
1182.179, 97582.023
1182.661, 98005.102
1183.143, 98227.727
1183.625, 98053.797
1184.108, 97971.477
1184.590, 98093.859
1185.072, 98298.578
1185.554, 98422.703
1186.036, 98500.594
1186.518, 98594.562
1187.000, 98713.656
1187.482, 98822.898
1187.965, 98924.211
1188.447, 99000.547
1188.929, 99043.352
1189.411, 99065.406
1189.893, 99047.531
1190.375, 99038.953
1190.857, 99171.453
1191.339, 99518.156
1191.822, 99755.867
1192.304, 99753.977
1192.786, 99733.422
1193.268, 99779.570
1193.750, 99872.094
1194.232, 99966.977
1194.714, 100065.000
1195.196, 100169.898
1195.678, 100293.703
1196.161, 100391.797
1196.643, 100436.203
1197.125, 100480.898
1197.607, 100550.797
1198.089, 100645.797
1198.571, 100771.000
1199.053, 100922.203
1199.535, 101090.500
1200.017, 101323.297
1200.500, 101483.398
1200.982, 101502.703
1201.464, 101504.500
1201.946, 101582.500
1202.428, 101722.602
1202.910, 101856.398
1203.392, 101987.797
1203.874, 102129.203
1204.357, 102304.203
1204.839, 102459.898
1205.321, 102570.000
1205.803, 102677.297
1206.285, 102828.500
1206.767, 103014.297
1207.249, 103204.703
1207.731, 103391.703
1208.214, 103524.500
1208.696, 103495.602
1209.178, 103526.000
1209.660, 103706.500
1210.142, 103921.000
1210.624, 104007.102
1211.106, 104005.297
1211.588, 104089.500
1212.070, 104261.500
1212.552, 104415.500
1213.035, 104448.398
1213.517, 104526.102
1213.999, 104711.203
1214.481, 104941.898
1214.963, 105158.297
1215.445, 105343.102
1215.927, 105395.898
1216.409, 105312.703
1216.892, 105254.203
1217.374, 105316.297
1217.856, 105402.797
1218.338, 105497.797
1218.820, 105584.203
1219.302, 105602.898
1219.784, 105585.297
1220.266, 105641.102
1220.749, 105790.297
1221.231, 105944.602
1221.713, 106069.203
1222.195, 106192.602
1222.677, 106326.703
1223.159, 106461.898
1223.641, 106569.797
1224.123, 106660.797
1224.605, 106759.797
1225.088, 106865.602
1225.570, 107013.102
1226.052, 107291.797
1226.534, 107515.297
1227.016, 107602.102
1227.498, 107606.602
1227.980, 107634.703
1228.462, 107695.102
1228.944, 107825.703
1229.427, 108056.797
1229.909, 108250.703
1230.391, 108333.898
1230.873, 108422.797
1231.355, 108574.203
1231.837, 108756.297
1232.319, 108879.898
1232.801, 108966.602
1233.284, 109068.703
1233.766, 109210.500
1234.248, 109327.297
1234.730, 109397.000
1235.212, 109455.297
1235.694, 109508.703
1236.176, 109568.703
1236.658, 109647.297
1237.141, 109758.203
1237.623, 109944.000
1238.105, 110274.898
1238.587, 110516.898
1239.069, 110631.797
1239.551, 110684.500
1240.033, 110684.000
1240.515, 110672.297
1240.997, 110771.398
1241.479, 110925.398
1241.962, 111006.602
1242.444, 110899.797
1242.926, 110917.398
1243.408, 111113.000
1243.890, 111327.102
1244.372, 111460.602
1244.854, 111542.203
1245.336, 111553.203
1245.819, 111562.102
1246.301, 111722.797
1246.783, 112256.797
1247.265, 112512.703
1247.747, 112407.797
1248.229, 112302.102
1248.711, 112497.398
1249.193, 112800.398
1249.676, 112969.203
1250.158, 113031.602
1250.640, 113028.703
1251.122, 112899.500
1251.604, 112929.000
1252.086, 113153.500
1252.568, 113363.102
1253.050, 113409.797
1253.532, 113364.602
1254.015, 113233.500
1254.497, 113089.398
1254.979, 113083.797
1255.461, 113241.398
1255.943, 113460.898
1256.425, 113744.000
1256.907, 113998.898
1257.389, 114146.898
1257.871, 114237.703
1258.354, 114276.797
1258.836, 114293.797
1259.318, 114343.203
1259.800, 114423.703
1260.282, 114542.398
1260.764, 114700.102
1261.246, 114824.898
1261.728, 114874.398
1262.211, 114874.500
1262.693, 114814.703
1263.175, 114736.102
1263.657, 114692.797
1264.139, 114688.898
1264.621, 114744.500
1265.103, 114857.500
1265.585, 114933.500
1266.068, 114827.398
1266.550, 114777.000
1267.032, 114924.703
1267.514, 115165.703
1267.996, 115383.297
1268.478, 115582.602
1268.960, 115808.602
1269.442, 116055.797
1269.924, 116283.703
1270.407, 116422.602
1270.889, 116593.000
1271.371, 116841.102
1271.853, 117104.102
1272.335, 117285.602
1272.817, 117412.398
1273.299, 117587.797
1273.781, 117799.898
1274.264, 117950.703
1274.746, 117881.102
1275.228, 117931.203
1275.710, 118194.602
1276.192, 118509.203
1276.674, 118753.703
1277.156, 118890.297
1277.638, 118741.398
1278.120, 118379.102
1278.603, 118232.398
1279.085, 118543.703
1279.567, 118747.602
1280.049, 118765.500
1280.531, 118736.203
1281.013, 118773.500
1281.495, 118870.398
1281.977, 119072.797
1282.459, 119332.398
1282.942, 119429.500
1283.424, 119293.500
1283.906, 119248.000
1284.388, 119328.500
1284.870, 119481.703
1285.352, 119720.602
1285.834, 119952.398
1286.316, 120081.203
1286.799, 120135.602
1287.281, 120207.203
1287.763, 120294.703
1288.245, 120452.000
1288.727, 120687.297
1289.209, 120832.000
1289.691, 120607.398
1290.173, 120424.898
1290.656, 120605.297
1291.138, 120933.500
1291.620, 121062.203
1292.102, 121021.602
1292.584, 121042.602
1293.066, 121126.602
1293.548, 121194.398
1294.030, 121237.602
1294.512, 121282.898
1294.995, 121313.898
1295.477, 121372.203
1295.959, 121548.602
1296.441, 121792.297
1296.923, 121986.203
1297.405, 122108.203
1297.887, 122142.602
1298.369, 122268.703
1298.851, 122472.000
1299.334, 122553.500
1299.816, 122661.102
1300.298, 122721.102
1300.780, 122761.703
##END=



