##NAMES=Levyne-Ca
##RRUFFID=R080128
##IDEAL CHEMISTRY=Ca_3_(Si_12_Al_6_)O_36_&#183;18H_2_O
##LOCALITY=Dallas, Oregon, USA
##OWNER=RRUFF
##SOURCE=Michael Scott
##DESCRIPTION=Thin clear colorless tabular hexagonal crystals coated by chatoyant erionite or offretite on volcanic matrix
##STATUS=The identification of this mineral has been confirmed only by single crystal X-ray diffraction.
##URL=rruff.info/R080128
154.4830, 9917.389
154.9651, 10006.43
155.4472, 10092.20
155.9293, 10182.36
156.4115, 10255.35
156.8936, 10295.88
157.3757, 10313.24
157.8578, 10340.31
158.3399, 10400.87
158.8221, 10465.87
159.3042, 10516.86
159.7863, 10528.07
160.2684, 10545.49
160.7505, 10589.18
161.2326, 10656.11
161.7148, 10719.88
162.1969, 10764.22
162.6790, 10802.30
163.1611, 10846.28
163.6432, 10912.82
164.1253, 10976.69
164.6075, 11019.12
165.0896, 11039.24
165.5717, 11065.72
166.0538, 11124.06
166.5359, 11197.23
167.0180, 11260.99
167.5002, 11293.99
167.9823, 11321.42
168.4644, 11363.99
168.9465, 11425.05
169.4286, 11488.48
169.9107, 11550.25
170.3929, 11605.78
170.8750, 11646.99
171.3571, 11652.95
171.8392, 11649.23
172.3213, 11665.34
172.8034, 11708.87
173.2856, 11758.77
173.7677, 11796.42
174.2498, 11824.37
174.7319, 11850.66
175.2140, 11878.70
175.6961, 11908.53
176.1783, 11942.39
176.6604, 11985.21
177.1425, 12023.25
177.6246, 12030.38
178.1067, 12011.59
178.5888, 11999.88
179.0710, 12027.21
179.5531, 12079.19
180.0352, 12123.71
180.5173, 12150.43
180.9994, 12168.43
181.4815, 12190.76
181.9637, 12217.56
182.4458, 12246.19
182.9279, 12271.45
183.4100, 12296.02
183.8921, 12331.78
184.3742, 12391.86
184.8564, 12461.11
185.3385, 12501.02
185.8206, 12510.66
186.3027, 12506.42
186.7848, 12492.94
187.2669, 12474.09
187.7491, 12479.22
188.2312, 12536.05
188.7133, 12625.38
189.1954, 12668.94
189.6775, 12658.36
190.1596, 12638.13
190.6418, 12673.25
191.1239, 12761.83
191.6060, 12833.72
192.0881, 12847.42
192.5702, 12811.63
193.0524, 12807.75
193.5345, 12843.63
194.0166, 12891.01
194.4987, 12900.31
194.9808, 12868.59
195.4629, 12843.14
195.9451, 12847.12
196.4272, 12880.08
196.9093, 12921.44
197.3914, 12974.43
197.8735, 13029.69
198.3556, 13066.88
198.8378, 13083.16
199.3199, 13098.88
199.8020, 13130.80
200.2841, 13181.20
200.7662, 13206.43
201.2483, 13196.13
201.7305, 13166.49
202.2126, 13156.27
202.6947, 13167.28
203.1768, 13191.00
203.6589, 13228.32
204.1410, 13282.91
204.6232, 13321.06
205.1053, 13334.28
205.5874, 13331.56
206.0695, 13344.55
206.5516, 13378.48
207.0337, 13414.46
207.5159, 13437.78
207.9980, 13443.95
208.4801, 13456.75
208.9622, 13478.97
209.4443, 13510.01
209.9264, 13550.42
210.4086, 13607.86
210.8907, 13659.47
211.3728, 13683.93
211.8549, 13672.38
212.3370, 13664.67
212.8191, 13666.86
213.3013, 13677.98
213.7834, 13689.44
214.2655, 13698.90
214.7476, 13712.55
215.2297, 13736.08
215.7118, 13772.16
216.1940, 13812.15
216.6761, 13857.92
217.1582, 13908.86
217.6403, 13944.99
218.1224, 13961.84
218.6045, 13969.35
219.0867, 13974.14
219.5688, 13969.31
220.0509, 13979.25
220.5330, 14016.48
221.0151, 14082.64
221.4972, 14118.10
221.9794, 14106.02
222.4615, 14082.43
222.9436, 14087.68
223.4257, 14136.94
223.9078, 14184.71
224.3899, 14222.97
224.8721, 14252.80
225.3542, 14263.79
225.8363, 14244.78
226.3184, 14217.57
226.8005, 14208.35
227.2827, 14224.73
227.7648, 14244.95
228.2469, 14264.65
228.7290, 14283.96
229.2111, 14301.10
229.6932, 14315.36
230.1754, 14327.84
230.6575, 14340.29
231.1396, 14353.49
231.6217, 14364.66
232.1038, 14368.30
232.5859, 14357.96
233.0681, 14378.80
233.5502, 14454.58
234.0323, 14544.33
234.5144, 14585.47
234.9965, 14546.19
235.4786, 14511.44
235.9608, 14508.58
236.4429, 14545.65
236.9250, 14576.45
237.4071, 14595.10
237.8892, 14610.92
238.3713, 14640.02
238.8535, 14692.04
239.3356, 14741.26
239.8177, 14779.90
240.2998, 14806.98
240.7819, 14826.94
241.2640, 14837.57
241.7462, 14842.68
242.2283, 14848.84
242.7104, 14856.65
243.1925, 14864.50
243.6746, 14871.62
244.1567, 14877.26
244.6389, 14884.98
245.1210, 14895.74
245.6031, 14907.96
246.0852, 14917.70
246.5673, 14919.75
247.0494, 14928.37
247.5316, 14951.59
248.0137, 14998.04
248.4958, 15029.40
248.9779, 15040.77
249.4600, 15039.60
249.9421, 15036.01
250.4243, 15017.79
250.9064, 15019.20
251.3885, 15062.09
251.8706, 15173.07
252.3527, 15233.21
252.8348, 15219.24
253.3170, 15168.96
253.7991, 15156.29
254.2812, 15200.48
254.7633, 15245.58
255.2454, 15268.24
255.7275, 15258.26
256.2097, 15264.56
256.6918, 15296.35
257.1739, 15338.03
257.6560, 15359.73
258.1381, 15353.36
258.6202, 15343.53
259.1024, 15335.88
259.5845, 15325.74
260.0666, 15340.37
260.5487, 15393.00
261.0308, 15460.32
261.5129, 15500.29
261.9951, 15504.38
262.4772, 15500.47
262.9593, 15494.21
263.4414, 15479.69
263.9235, 15495.13
264.4056, 15556.35
264.8878, 15632.96
265.3699, 15668.34
265.8520, 15648.00
266.3341, 15628.69
266.8162, 15634.68
267.2983, 15671.14
267.7805, 15699.33
268.2626, 15717.49
268.7447, 15729.02
269.2268, 15739.53
269.7089, 15749.29
270.1910, 15756.79
270.6732, 15755.79
271.1553, 15742.75
271.6374, 15761.43
272.1195, 15822.97
272.6016, 15900.00
273.0837, 15947.95
273.5659, 15964.77
274.0480, 15964.28
274.5301, 15941.30
275.0122, 15894.15
275.4943, 15883.15
275.9764, 15917.58
276.4586, 15970.70
276.9407, 16002.76
277.4228, 16011.29
277.9049, 16016.89
278.3870, 16022.78
278.8691, 16029.66
279.3513, 16057.40
279.8334, 16111.46
280.3155, 16172.36
280.7976, 16216.23
281.2798, 16242.55
281.7619, 16255.76
282.2440, 16251.73
282.7261, 16233.58
283.2082, 16223.98
283.6903, 16222.75
284.1725, 16230.88
284.6546, 16256.21
285.1367, 16297.56
285.6188, 16329.67
286.1009, 16335.62
286.5830, 16324.29
287.0652, 16338.46
287.5473, 16381.56
288.0294, 16428.92
288.5115, 16448.91
288.9936, 16445.27
289.4757, 16448.91
289.9579, 16477.96
290.4400, 16519.80
290.9221, 16535.50
291.4042, 16523.12
291.8863, 16508.64
292.3684, 16518.99
292.8506, 16550.04
293.3327, 16584.32
293.8148, 16620.03
294.2969, 16653.65
294.7790, 16680.27
295.2611, 16699.95
295.7433, 16710.53
296.2254, 16701.75
296.7075, 16681.54
297.1896, 16672.66
297.6717, 16684.80
298.1538, 16708.64
298.6360, 16728.43
299.1181, 16745.21
299.6002, 16769.10
300.0823, 16819.64
300.5644, 16881.75
301.0465, 16926.56
301.5287, 16941.11
302.0108, 16942.11
302.4929, 16942.86
302.9750, 16944.28
303.4571, 16951.56
303.9392, 16976.20
304.4214, 17006.46
304.9035, 17025.37
305.3856, 17021.54
305.8677, 17016.61
306.3498, 17029.69
306.8319, 17057.61
307.3141, 17089.67
307.7962, 17123.63
308.2783, 17156.37
308.7604, 17185.25
309.2425, 17208.72
309.7246, 17229.10
310.2068, 17249.20
310.6889, 17267.57
311.1710, 17280.78
311.6531, 17276.16
312.1352, 17272.46
312.6173, 17287.34
313.0995, 17332.27
313.5816, 17369.88
314.0637, 17370.79
314.5458, 17353.05
315.0279, 17350.64
315.5100, 17397.41
315.9922, 17447.21
316.4743, 17470.42
316.9564, 17454.26
317.4385, 17450.45
317.9206, 17492.63
318.4027, 17553.64
318.8849, 17595.53
319.3670, 17592.18
319.8491, 17582.00
320.3312, 17577.59
320.8133, 17580.14
321.2954, 17587.26
321.7776, 17597.37
322.2597, 17612.24
322.7418, 17633.75
323.2239, 17678.20
323.7060, 17713.31
324.1881, 17725.10
324.6703, 17710.31
325.1524, 17710.03
325.6345, 17739.77
326.1166, 17778.38
326.5987, 17809.17
327.0808, 17831.29
327.5630, 17846.34
328.0451, 17848.98
328.5272, 17840.32
329.0093, 17845.02
329.4914, 17873.40
329.9735, 17905.62
330.4557, 17928.08
330.9378, 17931.29
331.4199, 17941.31
331.9020, 17960.62
332.3841, 17988.40
332.8662, 18023.51
333.3484, 18077.67
333.8305, 18120.82
334.3126, 18132.13
334.7947, 18096.12
335.2768, 18075.76
335.7589, 18075.81
336.2411, 18092.36
336.7232, 18117.41
337.2053, 18153.01
337.6874, 18190.66
338.1695, 18229.42
338.6516, 18270.44
339.1338, 18297.89
339.6159, 18307.29
340.0980, 18309.41
340.5801, 18325.94
341.0622, 18359.65
341.5443, 18383.27
342.0265, 18376.82
342.5086, 18345.59
342.9907, 18341.15
343.4728, 18366.80
343.9549, 18406.46
344.4370, 18443.28
344.9192, 18477.15
345.4013, 18509.35
345.8834, 18547.15
346.3655, 18581.28
346.8476, 18576.77
347.3297, 18532.39
347.8119, 18486.27
348.2940, 18473.25
348.7761, 18487.35
349.2582, 18510.98
349.7403, 18540.71
350.2225, 18576.45
350.7046, 18627.00
351.1867, 18689.39
351.6688, 18737.00
352.1509, 18742.28
352.6331, 18722.87
353.1152, 18703.53
353.5973, 18686.31
354.0794, 18677.00
354.5615, 18685.09
355.0436, 18706.26
355.5258, 18727.42
356.0079, 18742.60
356.4900, 18753.92
356.9721, 18759.94
357.4542, 18755.57
357.9363, 18762.48
358.4185, 18807.30
358.9006, 18870.13
359.3827, 18916.57
359.8648, 18922.97
360.3469, 18917.65
360.8290, 18911.75
361.3112, 18905.11
361.7933, 18906.90
362.2754, 18933.27
362.7575, 18964.59
363.2396, 18979.60
363.7217, 18928.56
364.2039, 18905.48
364.6860, 18957.82
365.1681, 19087.13
365.6502, 19169.77
366.1323, 19159.30
366.6144, 19118.22
367.0966, 19089.19
367.5787, 19071.46
368.0608, 19069.38
368.5429, 19097.71
369.0250, 19146.58
369.5071, 19162.55
369.9893, 19110.39
370.4714, 19066.18
370.9535, 19068.60
371.4356, 19138.20
371.9177, 19209.05
372.3998, 19286.38
372.8820, 19361.74
373.3641, 19415.43
373.8462, 19444.81
374.3283, 19459.13
374.8104, 19458.72
375.2925, 19442.12
375.7747, 19425.51
376.2568, 19405.40
376.7389, 19391.87
377.2210, 19404.19
377.7031, 19444.60
378.1852, 19477.90
378.6674, 19488.75
379.1495, 19484.15
379.6316, 19497.38
380.1137, 19530.04
380.5958, 19565.20
381.0779, 19583.90
381.5601, 19590.23
382.0422, 19604.11
382.5243, 19634.31
383.0064, 19669.09
383.4885, 19687.67
383.9706, 19691.89
384.4528, 19694.10
384.9349, 19698.93
385.4170, 19708.25
385.8991, 19726.60
386.3812, 19756.88
386.8633, 19789.46
387.3455, 19811.26
387.8276, 19828.20
388.3097, 19854.38
388.7918, 19912.31
389.2739, 19972.19
389.7560, 20010.70
390.2382, 20025.44
390.7203, 20026.26
391.2024, 20010.42
391.6845, 19986.37
392.1666, 19963.67
392.6487, 19928.65
393.1309, 19911.51
393.6130, 19935.83
394.0951, 19997.31
394.5772, 20045.71
395.0593, 20053.02
395.5414, 20052.91
396.0236, 20066.36
396.5057, 20117.43
396.9878, 20157.13
397.4699, 20175.46
397.9520, 20178.29
398.4341, 20183.91
398.9163, 20194.65
399.3984, 20205.73
399.8805, 20214.17
400.3626, 20215.52
400.8447, 20227.80
401.3268, 20254.50
401.8090, 20289.56
402.2911, 20327.44
402.7732, 20373.04
403.2553, 20407.46
403.7374, 20423.94
404.2195, 20423.31
404.7017, 20417.66
405.1838, 20402.40
405.6659, 20394.68
406.1480, 20414.78
406.6301, 20463.21
407.1122, 20506.85
407.5944, 20538.58
408.0765, 20563.45
408.5586, 20597.09
409.0407, 20639.30
409.5228, 20670.81
410.0049, 20674.49
410.4871, 20657.31
410.9692, 20633.57
411.4513, 20600.30
411.9334, 20578.25
412.4155, 20600.23
412.8976, 20654.22
413.3798, 20704.24
413.8619, 20727.92
414.3440, 20743.63
414.8261, 20774.54
415.3082, 20821.10
415.7903, 20861.18
416.2725, 20866.45
416.7546, 20862.70
417.2367, 20880.12
417.7188, 20952.83
418.2009, 21020.95
418.6830, 21058.84
419.1652, 21069.96
419.6473, 21065.46
420.1294, 21015.72
420.6115, 20976.01
421.0937, 20981.35
421.5758, 21066.58
422.0579, 21131.38
422.5400, 21153.00
423.0221, 21148.66
423.5042, 21146.47
423.9864, 21127.61
424.4685, 21133.46
424.9506, 21183.98
425.4327, 21283.95
425.9148, 21359.16
426.3969, 21409.04
426.8791, 21434.90
427.3612, 21430.40
427.8433, 21379.14
428.3254, 21350.14
428.8075, 21358.11
429.2896, 21393.00
429.7718, 21416.85
430.2539, 21425.05
430.7360, 21446.14
431.2181, 21513.51
431.7002, 21621.26
432.1823, 21674.23
432.6645, 21656.81
433.1466, 21621.00
433.6287, 21644.23
434.1108, 21715.18
434.5929, 21778.05
435.0750, 21807.66
435.5572, 21815.25
436.0393, 21817.60
436.5214, 21814.83
437.0035, 21809.38
437.4856, 21789.50
437.9677, 21772.14
438.4499, 21784.72
438.9320, 21851.74
439.4141, 21920.38
439.8962, 21949.91
440.3783, 21951.27
440.8604, 21953.52
441.3426, 21960.09
441.8247, 21978.19
442.3068, 22012.85
442.7889, 22066.10
443.2710, 22128.69
443.7531, 22223.44
444.2353, 22316.24
444.7174, 22371.01
445.1995, 22331.43
445.6816, 22308.62
446.1637, 22325.21
446.6458, 22377.75
447.1280, 22433.11
447.6101, 22493.70
448.0922, 22554.69
448.5743, 22615.71
449.0564, 22687.37
449.5385, 22727.84
450.0207, 22719.28
450.5028, 22694.32
450.9849, 22723.13
451.4670, 22818.41
451.9491, 22901.08
452.4312, 22932.76
452.9134, 22921.93
453.3955, 22940.00
453.8776, 22990.19
454.3597, 23045.53
454.8418, 23080.22
455.3239, 23097.54
455.8061, 23108.29
456.2882, 23111.56
456.7703, 23114.92
457.2524, 23132.76
457.7345, 23161.41
458.2166, 23186.32
458.6988, 23192.19
459.1809, 23192.93
459.6630, 23202.28
460.1451, 23221.71
460.6272, 23250.24
461.1093, 23300.57
461.5915, 23355.48
462.0736, 23392.47
462.5557, 23376.55
463.0378, 23368.56
463.5199, 23407.00
464.0020, 23482.40
464.4842, 23523.73
464.9663, 23464.94
465.4484, 23405.89
465.9305, 23400.87
466.4126, 23489.89
466.8947, 23566.74
467.3769, 23635.76
467.8590, 23690.58
468.3411, 23717.35
468.8232, 23696.12
469.3053, 23686.89
469.7874, 23710.53
470.2696, 23764.54
470.7517, 23801.96
471.2338, 23820.33
471.7159, 23829.57
472.1980, 23834.73
472.6801, 23836.04
473.1623, 23839.83
473.6444, 23842.03
474.1265, 23856.71
474.6086, 23923.78
475.0907, 24033.96
475.5728, 24127.19
476.0550, 24155.97
476.5371, 24153.14
477.0192, 24169.12
477.5013, 24205.72
477.9834, 24253.33
478.4655, 24315.38
478.9477, 24380.87
479.4298, 24435.27
479.9119, 24480.78
480.3940, 24506.96
480.8761, 24494.62
481.3582, 24456.62
481.8404, 24430.12
482.3225, 24425.69
482.8046, 24436.81
483.2867, 24464.66
483.7688, 24517.29
484.2509, 24558.91
484.7331, 24586.02
485.2152, 24600.82
485.6973, 24605.97
486.1794, 24605.01
486.6615, 24587.39
487.1436, 24545.87
487.6258, 24486.23
488.1079, 24435.01
488.5900, 24393.07
489.0721, 24358.06
489.5542, 24323.55
490.0363, 24289.06
490.5185, 24293.35
491.0006, 24348.22
491.4827, 24405.66
491.9648, 24391.89
492.4470, 24319.65
492.9291, 24258.24
493.4112, 24234.46
493.8933, 24232.66
494.3754, 24236.97
494.8575, 24245.55
495.3397, 24246.36
495.8218, 24230.07
496.3039, 24202.47
496.7860, 24166.50
497.2681, 24117.44
497.7502, 24078.60
498.2324, 24060.40
498.7145, 24060.11
499.1966, 24073.72
499.6787, 24134.82
500.1608, 24174.64
500.6429, 24155.03
501.1251, 24081.17
501.6072, 24040.54
502.0893, 24062.00
502.5714, 24097.19
503.0535, 24123.69
503.5356, 24134.52
504.0178, 24155.01
504.4999, 24195.04
504.9820, 24235.50
505.4641, 24242.63
505.9462, 24208.54
506.4283, 24181.54
506.9105, 24173.25
507.3926, 24183.23
507.8747, 24215.89
508.3568, 24272.61
508.8389, 24328.71
509.3210, 24373.42
509.8032, 24404.04
510.2853, 24406.11
510.7674, 24370.33
511.2495, 24338.34
511.7316, 24368.23
512.2137, 24432.81
512.6959, 24476.32
513.1780, 24446.38
513.6601, 24412.30
514.1422, 24428.06
514.6243, 24485.88
515.1064, 24529.73
515.5886, 24525.87
516.0707, 24509.57
516.5528, 24501.30
517.0349, 24503.31
517.5170, 24513.92
517.9991, 24541.52
518.4813, 24574.30
518.9634, 24595.97
519.4455, 24592.49
519.9276, 24603.64
520.4097, 24649.58
520.8918, 24719.36
521.3740, 24735.70
521.8561, 24680.91
522.3382, 24631.25
522.8203, 24645.95
523.3024, 24720.17
523.7845, 24771.44
524.2667, 24793.28
524.7488, 24800.33
525.2309, 24811.61
525.7130, 24824.02
526.1951, 24825.13
526.6772, 24794.31
527.1594, 24765.77
527.6415, 24793.30
528.1236, 24863.65
528.6057, 24919.24
529.0878, 24906.58
529.5699, 24879.67
530.0521, 24881.79
530.5342, 24925.72
531.0163, 24965.79
531.4984, 24976.37
531.9805, 24980.76
532.4626, 25003.75
532.9448, 25091.48
533.4269, 25145.49
533.9090, 25135.82
534.3911, 25082.40
534.8732, 25064.48
535.3553, 25096.69
535.8375, 25137.17
536.3196, 25170.26
536.8017, 25196.54
537.2838, 25208.88
537.7659, 25202.80
538.2480, 25198.08
538.7302, 25220.89
539.2123, 25267.03
539.6944, 25305.56
540.1765, 25328.10
540.6586, 25343.30
541.1407, 25366.53
541.6229, 25394.08
542.1050, 25413.02
542.5871, 25401.79
543.0692, 25388.42
543.5513, 25400.81
544.0334, 25440.16
544.5156, 25482.13
544.9977, 25510.92
545.4798, 25540.19
545.9619, 25581.54
546.4440, 25657.36
546.9261, 25715.25
547.4083, 25740.21
547.8904, 25744.24
548.3725, 25747.40
548.8546, 25741.34
549.3367, 25748.98
549.8188, 25782.74
550.3010, 25838.84
550.7831, 25870.46
551.2652, 25872.31
551.7473, 25867.37
552.2294, 25866.29
552.7115, 25870.27
553.1937, 25898.05
553.6758, 25956.64
554.1579, 26016.03
554.6400, 26028.22
555.1221, 26009.93
555.6042, 26009.65
556.0864, 26061.00
556.5685, 26121.39
557.0506, 26149.36
557.5327, 26151.16
558.0148, 26149.36
558.4969, 26153.25
558.9791, 26158.22
559.4612, 26161.45
559.9433, 26162.38
560.4254, 26162.94
560.9075, 26161.56
561.3896, 26161.07
561.8718, 26162.97
562.3539, 26157.71
562.8360, 26173.51
563.3181, 26226.95
563.8002, 26295.60
564.2823, 26320.29
564.7645, 26290.23
565.2466, 26263.38
565.7287, 26260.75
566.2108, 26279.92
566.6929, 26320.44
567.1750, 26383.62
567.6572, 26430.44
568.1393, 26411.57
568.6214, 26354.87
569.1035, 26313.04
569.5856, 26292.11
570.0677, 26294.36
570.5499, 26343.23
571.0320, 26412.01
571.5141, 26458.80
571.9962, 26438.85
572.4783, 26423.24
572.9604, 26452.64
573.4426, 26515.65
573.9247, 26552.51
574.4068, 26523.51
574.8889, 26493.87
575.3710, 26491.74
575.8531, 26525.97
576.3353, 26538.23
576.8174, 26514.00
577.2995, 26489.16
577.7816, 26501.80
578.2637, 26555.78
578.7458, 26607.51
579.2280, 26653.06
579.7101, 26689.40
580.1922, 26707.70
580.6743, 26710.29
581.1564, 26710.36
581.6385, 26714.78
582.1207, 26719.72
582.6028, 26711.84
583.0849, 26694.89
583.5670, 26697.53
584.0491, 26761.06
584.5313, 26835.34
585.0134, 26880.51
585.4955, 26883.88
585.9776, 26879.81
586.4597, 26860.69
586.9418, 26845.39
587.4240, 26856.30
587.9061, 26911.99
588.3882, 26966.02
588.8703, 27018.54
589.3524, 27064.86
589.8345, 27090.79
590.3167, 27094.84
590.7988, 27083.07
591.2809, 27046.04
591.7630, 26993.71
592.2451, 26986.44
592.7272, 27025.76
593.2094, 27073.13
593.6915, 27092.96
594.1736, 27098.76
594.6557, 27119.22
595.1378, 27162.56
595.6199, 27203.50
596.1021, 27225.74
596.5842, 27232.74
597.0663, 27229.42
597.5485, 27190.10
598.0306, 27169.65
598.5127, 27191.90
598.9948, 27249.35
599.4769, 27309.76
599.9590, 27395.36
600.4412, 27454.80
600.9233, 27461.93
601.4054, 27411.79
601.8875, 27388.85
602.3696, 27397.54
602.8517, 27423.09
603.3339, 27458.96
603.8160, 27503.96
604.2981, 27536.85
604.7802, 27553.55
605.2623, 27562.84
605.7444, 27572.00
606.2266, 27582.41
606.7087, 27597.15
607.1908, 27616.19
607.6729, 27641.47
608.1550, 27681.87
608.6371, 27731.13
609.1193, 27770.26
609.6014, 27783.40
610.0835, 27791.35
610.5656, 27803.63
611.0477, 27821.72
611.5298, 27838.30
612.0120, 27865.28
612.4941, 27878.61
612.9762, 27852.92
613.4583, 27763.36
613.9404, 27730.20
614.4225, 27773.47
614.9047, 27847.82
615.3868, 27891.71
615.8689, 27907.04
616.3510, 27912.88
616.8331, 27910.01
617.3152, 27906.80
617.7974, 27915.04
618.2795, 27933.97
618.7616, 27960.68
619.2437, 27999.38
619.7258, 28040.77
620.2079, 28078.07
620.6901, 28110.78
621.1722, 28144.00
621.6543, 28184.52
622.1364, 28222.74
622.6185, 28251.05
623.1006, 28262.31
623.5828, 28279.87
624.0649, 28309.22
624.5470, 28339.82
625.0291, 28359.83
625.5112, 28369.06
625.9933, 28367.11
626.4755, 28349.82
626.9576, 28326.93
627.4397, 28313.84
627.9218, 28311.49
628.4039, 28327.07
628.8860, 28376.99
629.3682, 28440.34
629.8503, 28494.98
630.3324, 28539.69
630.8145, 28564.70
631.2966, 28535.72
631.7787, 28504.59
632.2609, 28513.21
632.7430, 28579.74
633.2251, 28635.20
633.7072, 28650.71
634.1893, 28658.96
634.6714, 28688.78
635.1536, 28757.12
635.6357, 28810.32
636.1178, 28844.50
636.5999, 28861.32
637.0820, 28855.38
637.5641, 28825.24
638.0463, 28810.16
638.5284, 28831.11
639.0105, 28867.59
639.4926, 28875.46
639.9747, 28859.47
640.4568, 28846.97
640.9390, 28849.74
641.4211, 28866.72
641.9032, 28910.15
642.3853, 28980.52
642.8674, 29020.46
643.3495, 28958.08
643.8317, 28889.96
644.3138, 28886.01
644.7959, 29003.54
645.2780, 29090.38
645.7601, 29133.58
646.2422, 29157.30
646.7244, 29196.08
647.2065, 29259.28
647.6886, 29281.03
648.1707, 29233.13
648.6528, 29161.33
649.1349, 29167.68
649.6171, 29241.41
650.0992, 29306.12
650.5813, 29306.88
651.0634, 29291.13
651.5455, 29330.56
652.0276, 29412.79
652.5098, 29469.32
652.9919, 29431.76
653.4740, 29381.95
653.9561, 29376.96
654.4382, 29433.16
654.9203, 29467.29
655.4025, 29444.96
655.8846, 29417.27
656.3667, 29419.98
656.8488, 29466.45
657.3309, 29504.20
657.8130, 29532.23
658.2952, 29550.16
658.7773, 29553.55
659.2594, 29543.75
659.7415, 29537.55
660.2236, 29542.15
660.7057, 29547.63
661.1879, 29524.64
661.6700, 29489.12
662.1521, 29486.15
662.6342, 29579.22
663.1163, 29675.81
663.5984, 29713.47
664.0806, 29697.75
664.5627, 29685.76
665.0448, 29693.21
665.5269, 29705.92
666.0090, 29716.13
666.4911, 29721.59
666.9733, 29743.61
667.4554, 29791.88
667.9375, 29837.53
668.4196, 29853.00
668.9017, 29839.41
669.3839, 29831.25
669.8660, 29831.81
670.3481, 29837.00
670.8302, 29844.60
671.3123, 29853.04
671.7944, 29858.05
672.2766, 29852.87
672.7587, 29852.68
673.2408, 29875.69
673.7229, 29909.82
674.2050, 29931.89
674.6871, 29905.72
675.1693, 29899.33
675.6514, 29952.80
676.1335, 30047.74
676.6156, 30081.37
677.0977, 30025.48
677.5798, 29972.11
678.0620, 29959.79
678.5441, 29985.92
679.0262, 30037.20
679.5083, 30116.57
679.9904, 30179.64
680.4725, 30177.89
680.9547, 30139.72
681.4368, 30111.03
681.9189, 30096.59
682.4010, 30098.54
682.8831, 30138.36
683.3652, 30185.72
683.8474, 30207.95
684.3295, 30169.14
684.8116, 30150.55
685.2937, 30170.25
685.7758, 30213.73
686.2579, 30269.48
686.7401, 30356.33
687.2222, 30399.46
687.7043, 30370.63
688.1864, 30304.02
688.6685, 30287.30
689.1506, 30317.10
689.6328, 30337.82
690.1149, 30301.67
690.5970, 30257.06
691.0791, 30292.81
691.5612, 30393.09
692.0433, 30475.99
692.5255, 30483.72
693.0076, 30472.71
693.4897, 30479.38
693.9718, 30508.68
694.4539, 30529.66
694.9360, 30548.50
695.4182, 30548.18
695.9003, 30506.98
696.3824, 30399.08
696.8645, 30373.06
697.3466, 30450.61
697.8287, 30553.16
698.3109, 30589.18
698.7930, 30572.71
699.2751, 30583.56
699.7572, 30643.17
700.2393, 30703.97
700.7214, 30703.69
701.2036, 30673.06
701.6857, 30663.34
702.1678, 30702.96
702.6499, 30754.74
703.1320, 30832.67
703.6141, 30912.00
704.0963, 30926.00
704.5784, 30795.23
705.0605, 30720.65
705.5426, 30770.72
706.0247, 30907.95
706.5068, 30954.03
706.9890, 30898.26
707.4711, 30843.57
707.9532, 30847.30
708.4353, 30890.30
708.9174, 30924.62
709.3995, 30951.40
709.8817, 30980.71
710.3638, 31045.87
710.8459, 31099.11
711.3280, 31081.42
711.8101, 30975.50
712.2922, 30903.54
712.7744, 30923.84
713.2565, 30972.21
713.7386, 31004.15
714.2207, 31009.02
714.7028, 31026.52
715.1849, 31062.34
715.6671, 31101.23
716.1492, 31125.03
716.6313, 31135.03
717.1134, 31150.36
717.5955, 31175.56
718.0776, 31202.17
718.5598, 31222.61
719.0419, 31236.22
719.5240, 31240.94
720.0061, 31217.70
720.4882, 31207.87
720.9703, 31239.39
721.4525, 31297.55
721.9346, 31349.02
722.4167, 31386.52
722.8988, 31422.59
723.3809, 31468.12
723.8630, 31513.13
724.3452, 31507.25
724.8273, 31441.82
725.3094, 31387.20
725.7915, 31369.76
726.2736, 31389.46
726.7557, 31479.05
727.2379, 31624.81
727.7200, 31718.71
728.2021, 31632.62
728.6842, 31506.47
729.1663, 31460.75
729.6484, 31508.15
730.1306, 31548.12
730.6127, 31536.79
731.0948, 31523.06
731.5769, 31536.07
732.0590, 31585.89
732.5411, 31620.16
733.0233, 31635.62
733.5054, 31642.80
733.9875, 31645.74
734.4696, 31646.80
734.9517, 31670.63
735.4338, 31725.52
735.9160, 31770.19
736.3981, 31741.35
736.8802, 31681.87
737.3623, 31656.91
737.8444, 31699.88
738.3266, 31748.30
738.8087, 31771.61
739.2908, 31788.80
739.7729, 31829.41
740.2551, 31924.13
740.7372, 31988.32
741.2193, 32007.89
741.7014, 31995.64
742.1835, 31974.93
742.6656, 31945.77
743.1478, 31910.09
743.6299, 31853.84
744.1120, 31809.46
744.5941, 31844.89
745.0762, 31937.94
745.5583, 32020.83
746.0405, 32064.06
746.5226, 32083.41
747.0047, 32072.23
747.4868, 32038.74
747.9689, 32028.36
748.4510, 32067.79
748.9332, 32103.01
749.4153, 32113.24
749.8974, 32101.86
750.3795, 32112.99
750.8616, 32149.77
751.3438, 32184.12
751.8259, 32194.46
752.3080, 32190.01
752.7901, 32188.51
753.2722, 32191.03
753.7543, 32206.79
754.2365, 32262.22
754.7186, 32319.48
755.2007, 32345.82
755.6828, 32333.32
756.1649, 32316.77
756.6470, 32285.03
757.1292, 32265.71
757.6113, 32279.58
758.0934, 32337.26
758.5755, 32379.87
759.0576, 32405.63
759.5397, 32423.41
760.0219, 32436.79
760.5040, 32449.70
760.9861, 32477.59
761.4682, 32525.65
761.9503, 32571.75
762.4324, 32605.48
762.9146, 32624.53
763.3967, 32623.56
763.8788, 32564.76
764.3609, 32545.92
764.8430, 32626.63
765.3251, 32730.49
765.8073, 32765.96
766.2894, 32710.38
766.7715, 32676.78
767.2536, 32685.34
767.7357, 32713.56
768.2178, 32724.96
768.7000, 32723.21
769.1821, 32723.52
769.6642, 32731.29
770.1463, 32742.10
770.6284, 32745.69
771.1105, 32750.42
771.5927, 32772.43
772.0748, 32843.47
772.5569, 32901.13
773.0390, 32920.97
773.5211, 32919.17
774.0032, 32940.59
774.4854, 32996.87
774.9675, 33031.57
775.4496, 33022.63
775.9317, 32985.88
776.4138, 32950.78
776.8959, 32920.49
777.3781, 32910.43
777.8602, 32939.81
778.3423, 32984.00
778.8244, 33029.15
779.3065, 33072.99
779.7886, 33107.50
780.2708, 33135.14
780.7529, 33146.29
781.2350, 33124.84
781.7171, 33078.61
782.1992, 33092.77
782.6813, 33187.29
783.1635, 33261.61
783.6456, 33239.54
784.1277, 33161.39
784.6098, 33175.94
785.0919, 33273.19
785.5740, 33353.96
786.0562, 33334.79
786.5383, 33286.59
787.0204, 33262.19
787.5025, 33265.31
787.9846, 33288.36
788.4667, 33371.41
788.9489, 33432.36
789.4310, 33424.86
789.9131, 33342.70
790.3952, 33313.92
790.8773, 33345.80
791.3594, 33398.33
791.8416, 33453.73
792.3237, 33505.13
792.8058, 33527.23
793.2879, 33519.60
793.7700, 33515.61
794.2521, 33547.98
794.7343, 33587.46
795.2164, 33609.25
795.6985, 33607.26
796.1806, 33602.03
796.6627, 33589.03
797.1448, 33581.08
797.6270, 33587.06
798.1091, 33608.32
798.5912, 33636.36
799.0733, 33674.02
799.5554, 33703.99
800.0375, 33693.84
800.5197, 33667.94
801.0018, 33678.53
801.4839, 33736.77
801.9660, 33796.00
802.4481, 33839.45
802.9302, 33864.43
803.4124, 33866.13
803.8945, 33826.88
804.3766, 33802.26
804.8587, 33797.14
805.3408, 33800.26
805.8229, 33791.69
806.3051, 33771.81
806.7872, 33816.57
807.2693, 33944.91
807.7514, 34061.98
808.2335, 34047.18
808.7156, 33966.18
809.1978, 33917.84
809.6799, 33927.93
810.1620, 33953.89
810.6441, 33990.43
811.1262, 34027.72
811.6083, 34054.34
812.0905, 34056.83
812.5726, 34085.98
813.0547, 34160.80
813.5368, 34227.00
814.0189, 34193.42
814.5010, 34083.73
814.9832, 34046.63
815.4653, 34117.70
815.9474, 34206.84
816.4295, 34241.46
816.9116, 34241.08
817.3937, 34226.93
817.8759, 34188.02
818.3580, 34167.56
818.8401, 34179.97
819.3222, 34211.40
819.8043, 34255.68
820.2864, 34321.25
820.7686, 34357.29
821.2507, 34353.43
821.7328, 34336.06
822.2149, 34337.01
822.6970, 34351.46
823.1791, 34371.63
823.6613, 34402.73
824.1434, 34415.12
824.6255, 34351.66
825.1076, 34275.55
825.5897, 34258.09
826.0718, 34386.46
826.5540, 34464.06
827.0361, 34464.43
827.5182, 34444.83
828.0003, 34484.08
828.4824, 34580.82
828.9645, 34643.20
829.4467, 34655.11
829.9288, 34639.55
830.4109, 34598.98
830.8930, 34555.90
831.3751, 34546.81
831.8572, 34592.40
832.3394, 34647.11
832.8215, 34707.44
833.3036, 34762.59
833.7857, 34803.05
834.2678, 34830.00
834.7499, 34832.30
835.2321, 34798.31
835.7142, 34764.93
836.1963, 34782.88
836.6784, 34841.40
837.1605, 34905.13
837.6426, 34970.96
838.1248, 35022.33
838.6069, 35049.30
839.0890, 35053.25
839.5711, 35032.62
840.0532, 34958.68
840.5353, 34913.00
841.0175, 34907.29
841.4996, 34923.39
841.9817, 34942.58
842.4638, 34964.38
842.9459, 35005.54
843.4280, 35071.13
843.9102, 35137.79
844.3923, 35182.54
844.8744, 35210.36
845.3565, 35231.54
845.8386, 35253.51
846.3207, 35249.37
846.8029, 35168.03
847.2850, 35081.86
847.7671, 35055.06
848.2492, 35109.45
848.7313, 35169.04
849.2134, 35238.58
849.6956, 35300.03
850.1777, 35330.71
850.6598, 35338.29
851.1419, 35347.46
851.6240, 35360.65
852.1061, 35381.35
852.5883, 35429.76
853.0704, 35476.38
853.5525, 35491.20
854.0346, 35455.63
854.5167, 35430.91
854.9988, 35418.74
855.4810, 35420.25
855.9631, 35438.25
856.4452, 35473.07
856.9273, 35517.15
857.4094, 35571.93
857.8915, 35612.37
858.3737, 35592.32
858.8558, 35556.57
859.3379, 35570.81
859.8200, 35646.65
860.3021, 35708.29
860.7842, 35715.02
861.2664, 35708.48
861.7485, 35710.13
862.2306, 35719.95
862.7127, 35739.62
863.1948, 35770.91
863.6769, 35805.09
864.1591, 35848.86
864.6412, 35888.18
865.1233, 35871.75
865.6054, 35804.57
866.0875, 35770.18
866.5696, 35867.61
867.0518, 35972.38
867.5339, 35992.73
868.0160, 35918.00
868.4981, 35892.69
868.9802, 35942.80
869.4623, 35987.55
869.9445, 35978.79
870.4266, 35934.07
870.9087, 35940.40
871.3908, 35993.66
871.8729, 36048.82
872.3550, 36079.68
872.8372, 36100.31
873.3193, 36121.87
873.8014, 36143.94
874.2835, 36161.01
874.7656, 36159.20
875.2477, 36168.20
875.7299, 36200.58
876.2120, 36248.29
876.6941, 36274.74
877.1762, 36279.89
877.6583, 36303.23
878.1404, 36378.77
878.6226, 36463.64
879.1047, 36503.68
879.5869, 36507.05
880.0690, 36495.80
880.5511, 36458.87
881.0332, 36430.50
881.5153, 36413.60
881.9974, 36413.77
882.4796, 36454.09
882.9617, 36547.33
883.4438, 36603.36
883.9259, 36587.84
884.4080, 36551.45
884.8901, 36588.32
885.3723, 36666.27
885.8544, 36707.05
886.3365, 36650.40
886.8186, 36605.65
887.3007, 36633.44
887.7828, 36696.77
888.2650, 36744.92
888.7471, 36776.50
889.2292, 36790.77
889.7113, 36782.67
890.1934, 36768.43
890.6755, 36768.53
891.1577, 36779.89
891.6398, 36792.14
892.1219, 36802.35
892.6040, 36818.06
893.0861, 36853.55
893.5682, 36891.50
894.0504, 36913.68
894.5325, 36905.75
895.0146, 36913.69
895.4967, 36944.60
895.9788, 36978.18
896.4609, 36989.48
896.9431, 36985.48
897.4252, 37021.65
897.9073, 37101.47
898.3894, 37162.74
898.8715, 37127.04
899.3536, 37075.85
899.8358, 37089.63
900.3179, 37183.17
900.8000, 37238.70
901.2821, 37218.46
901.7642, 37197.23
902.2463, 37210.26
902.7285, 37252.36
903.2106, 37288.68
903.6927, 37318.97
904.1748, 37341.26
904.6569, 37354.65
905.1390, 37359.47
905.6212, 37343.99
906.1033, 37317.20
906.5854, 37316.31
907.0675, 37381.80
907.5496, 37439.05
908.0317, 37470.73
908.5139, 37481.95
908.9960, 37477.35
909.4781, 37456.83
909.9602, 37473.57
910.4423, 37568.07
910.9244, 37672.76
911.4066, 37696.84
911.8887, 37673.14
912.3708, 37662.41
912.8529, 37701.06
913.3350, 37734.04
913.8171, 37751.07
914.2993, 37757.99
914.7814, 37756.63
915.2635, 37744.78
915.7456, 37761.46
916.2277, 37819.82
916.7098, 37874.45
917.1920, 37860.41
917.6741, 37813.03
918.1562, 37778.85
918.6383, 37761.22
919.1204, 37781.09
919.6025, 37886.23
920.0847, 37997.96
920.5668, 38068.44
921.0489, 38097.31
921.5310, 38069.39
922.0131, 37975.10
922.4952, 37903.93
922.9774, 37961.97
923.4595, 38072.98
923.9416, 38120.92
924.4237, 38102.18
924.9058, 38080.22
925.3879, 38078.43
925.8701, 38080.49
926.3522, 38074.86
926.8343, 38065.04
927.3164, 38083.64
927.7985, 38134.11
928.2806, 38181.71
928.7628, 38204.78
929.2449, 38220.71
929.7270, 38264.78
930.2091, 38324.64
930.6912, 38368.11
931.1733, 38369.98
931.6555, 38366.83
932.1376, 38364.43
932.6197, 38365.82
933.1018, 38378.65
933.5839, 38405.43
934.0660, 38425.29
934.5482, 38434.24
935.0303, 38436.32
935.5124, 38415.64
935.9945, 38397.97
936.4766, 38434.93
936.9587, 38563.87
937.4409, 38677.59
937.9230, 38746.89
938.4051, 38783.73
938.8872, 38794.30
939.3693, 38774.60
939.8514, 38748.67
940.3336, 38715.02
940.8157, 38688.77
941.2978, 38675.06
941.7799, 38680.38
942.2620, 38724.43
942.7441, 38805.05
943.2263, 38875.09
943.7084, 38915.16
944.1905, 38938.74
944.6726, 38939.55
945.1547, 38927.05
945.6368, 38976.17
946.1190, 39092.88
946.6011, 39174.92
947.0832, 39155.70
947.5653, 39100.45
948.0474, 39097.95
948.5295, 39128.16
949.0117, 39144.49
949.4938, 39103.86
949.9759, 39082.15
950.4580, 39089.39
950.9401, 39124.75
951.4222, 39204.05
951.9044, 39329.30
952.3865, 39397.17
952.8686, 39385.77
953.3507, 39340.20
953.8328, 39272.37
954.3149, 39216.18
954.7971, 39224.18
955.2792, 39329.33
955.7613, 39409.21
956.2434, 39430.75
956.7255, 39440.01
957.2076, 39467.48
957.6898, 39512.07
958.1719, 39521.21
958.6540, 39495.75
959.1361, 39489.92
959.6182, 39564.79
960.1003, 39657.69
960.5825, 39720.95
961.0646, 39752.71
961.5467, 39753.25
962.0288, 39683.21
962.5109, 39644.23
962.9930, 39670.26
963.4752, 39733.76
963.9573, 39763.66
964.4394, 39766.15
964.9215, 39782.80
965.4036, 39835.66
965.8857, 39890.14
966.3679, 39918.06
966.8500, 39931.09
967.3321, 39944.80
967.8142, 39965.16
968.2963, 39978.80
968.7784, 39983.90
969.2606, 39985.63
969.7427, 39985.04
970.2248, 39985.27
970.7069, 40004.23
971.1890, 40042.81
971.6711, 40068.92
972.1533, 40035.42
972.6354, 40003.78
973.1175, 40017.02
973.5996, 40076.26
974.0817, 40149.39
974.5638, 40244.20
975.0460, 40325.34
975.5281, 40379.26
976.0102, 40410.09
976.4923, 40423.60
976.9744, 40421.82
977.4565, 40410.83
977.9387, 40366.22
978.4208, 40344.54
978.9029, 40382.61
979.3850, 40447.13
979.8671, 40494.02
980.3492, 40519.59
980.8314, 40548.73
981.3135, 40585.45
981.7956, 40620.37
982.2777, 40642.37
982.7598, 40656.78
983.2419, 40671.57
983.7241, 40688.45
984.2062, 40701.25
984.6883, 40719.18
985.1704, 40718.35
985.6525, 40664.14
986.1346, 40571.09
986.6168, 40623.95
987.0989, 40817.47
987.5810, 40986.03
988.0631, 41022.34
988.5452, 41000.41
989.0273, 40964.68
989.5095, 40926.85
989.9916, 40917.37
990.4737, 40967.32
990.9558, 41004.38
991.4379, 41010.50
991.9200, 41013.69
992.4022, 41075.35
992.8843, 41175.40
993.3664, 41216.20
993.8485, 41167.40
994.3306, 41135.47
994.8127, 41236.73
995.2949, 41358.13
995.7770, 41386.51
996.2591, 41297.35
996.7412, 41269.25
997.2233, 41315.88
997.7054, 41374.57
998.1876, 41414.27
998.6697, 41436.52
999.1518, 41435.72
999.6339, 41418.95
1000.116, 41414.40
1000.598, 41456.32
1001.080, 41486.94
1001.562, 41459.10
1002.044, 41419.99
1002.527, 41475.06
1003.009, 41634.71
1003.491, 41725.15
1003.973, 41703.74
1004.455, 41648.03
1004.937, 41622.54
1005.419, 41623.67
1005.901, 41652.07
1006.384, 41715.73
1006.866, 41772.71
1007.348, 41820.76
1007.830, 41856.75
1008.312, 41871.48
1008.794, 41871.51
1009.276, 41907.71
1009.758, 41973.74
1010.240, 42018.19
1010.723, 41975.86
1011.205, 41937.25
1011.687, 41974.34
1012.169, 42058.00
1012.651, 42104.84
1013.133, 42097.59
1013.615, 42097.89
1014.097, 42111.94
1014.580, 42144.45
1015.062, 42228.98
1015.544, 42328.70
1016.026, 42363.69
1016.508, 42306.85
1016.990, 42257.77
1017.472, 42254.61
1017.954, 42273.66
1018.436, 42302.74
1018.919, 42341.49
1019.401, 42392.37
1019.883, 42455.44
1020.365, 42506.38
1020.847, 42522.43
1021.329, 42526.91
1021.811, 42535.70
1022.293, 42551.60
1022.776, 42582.02
1023.258, 42637.83
1023.740, 42696.51
1024.222, 42767.89
1024.704, 42821.32
1025.186, 42787.91
1025.668, 42700.01
1026.150, 42675.82
1026.632, 42735.35
1027.115, 42805.68
1027.597, 42851.48
1028.079, 42885.55
1028.561, 42919.97
1029.043, 42954.45
1029.525, 42950.70
1030.007, 42898.73
1030.489, 42896.20
1030.972, 43037.37
1031.454, 43196.96
1031.936, 43165.91
1032.418, 43023.88
1032.900, 42942.15
1033.382, 43024.44
1033.864, 43101.57
1034.346, 43154.88
1034.828, 43197.26
1035.311, 43241.39
1035.793, 43286.99
1036.275, 43334.82
1036.757, 43385.41
1037.239, 43415.41
1037.721, 43392.18
1038.203, 43356.43
1038.685, 43324.63
1039.167, 43302.31
1039.650, 43334.14
1040.132, 43439.58
1040.614, 43509.13
1041.096, 43489.43
1041.578, 43441.15
1042.060, 43453.25
1042.542, 43509.35
1043.024, 43582.95
1043.507, 43691.50
1043.989, 43763.73
1044.471, 43768.93
1044.953, 43757.01
1045.435, 43767.37
1045.917, 43797.67
1046.399, 43817.62
1046.881, 43826.85
1047.364, 43831.32
1047.846, 43836.34
1048.328, 43836.84
1048.810, 43816.43
1049.292, 43787.29
1049.774, 43799.49
1050.256, 43866.08
1050.738, 43932.59
1051.220, 43994.34
1051.703, 44035.10
1052.185, 44000.00
1052.667, 43937.20
1053.149, 43935.41
1053.631, 44027.09
1054.113, 44107.83
1054.595, 44144.33
1055.077, 44169.64
1055.559, 44197.78
1056.042, 44228.52
1056.524, 44267.85
1057.006, 44313.02
1057.488, 44341.39
1057.970, 44311.28
1058.452, 44290.78
1058.934, 44331.53
1059.416, 44409.21
1059.899, 44477.27
1060.381, 44536.07
1060.863, 44577.56
1061.345, 44597.49
1061.827, 44615.80
1062.309, 44672.04
1062.791, 44731.08
1063.273, 44716.48
1063.755, 44625.67
1064.238, 44598.56
1064.720, 44721.39
1065.202, 44855.43
1065.684, 44972.14
1066.166, 45063.76
1066.648, 45093.75
1067.130, 45073.58
1067.612, 45059.56
1068.094, 45074.45
1068.577, 45087.55
1069.059, 45067.46
1069.541, 45045.63
1070.023, 45052.63
1070.505, 45092.77
1070.987, 45142.21
1071.469, 45203.18
1071.951, 45257.72
1072.434, 45284.47
1072.916, 45305.10
1073.398, 45360.18
1073.880, 45433.39
1074.362, 45466.58
1074.844, 45429.11
1075.326, 45375.95
1075.808, 45293.36
1076.291, 45232.79
1076.773, 45292.85
1077.255, 45431.04
1077.737, 45527.57
1078.219, 45563.98
1078.701, 45572.55
1079.183, 45515.47
1079.665, 45491.40
1080.147, 45567.79
1080.630, 45718.85
1081.112, 45787.29
1081.594, 45775.50
1082.076, 45755.65
1082.558, 45747.36
1083.040, 45755.57
1083.522, 45778.95
1084.004, 45824.11
1084.486, 45908.16
1084.969, 46074.56
1085.451, 46154.39
1085.933, 46129.14
1086.415, 46084.80
1086.897, 46080.46
1087.379, 46104.04
1087.861, 46141.88
1088.343, 46190.07
1088.826, 46234.79
1089.308, 46290.43
1089.790, 46308.04
1090.272, 46247.55
1090.754, 46184.67
1091.236, 46268.54
1091.718, 46460.66
1092.200, 46579.54
1092.682, 46594.14
1093.165, 46585.23
1093.647, 46583.72
1094.129, 46592.54
1094.611, 46614.06
1095.093, 46647.20
1095.575, 46694.82
1096.057, 46758.43
1096.539, 46795.26
1097.022, 46774.35
1097.504, 46749.11
1097.986, 46784.72
1098.468, 46845.95
1098.950, 46882.61
1099.432, 46874.16
1099.914, 46876.23
1100.396, 46889.41
1100.879, 46910.95
1101.361, 46955.54
1101.843, 46999.40
1102.325, 46964.59
1102.807, 46882.55
1103.289, 46871.36
1103.771, 47064.88
1104.253, 47212.86
1104.735, 47273.44
1105.218, 47273.80
1105.700, 47224.10
1106.182, 47142.41
1106.664, 47125.45
1107.146, 47184.50
1107.628, 47250.78
1108.110, 47282.52
1108.592, 47309.61
1109.074, 47347.94
1109.557, 47395.51
1110.039, 47445.25
1110.521, 47497.65
1111.003, 47538.16
1111.485, 47556.07
1111.967, 47579.09
1112.449, 47654.21
1112.931, 47735.98
1113.414, 47764.57
1113.896, 47714.00
1114.378, 47729.72
1114.860, 47829.42
1115.342, 47918.59
1115.824, 47946.81
1116.306, 47929.98
1116.788, 47851.30
1117.271, 47752.60
1117.753, 47726.61
1118.235, 47877.82
1118.717, 47994.49
1119.199, 48060.05
1119.681, 48095.76
1120.163, 48106.88
1120.645, 48107.41
1121.127, 48157.38
1121.609, 48250.00
1122.092, 48298.31
1122.574, 48172.87
1123.056, 48102.93
1123.538, 48184.36
1124.020, 48345.44
1124.502, 48451.87
1124.984, 48507.55
1125.466, 48543.31
1125.949, 48562.95
1126.431, 48572.19
1126.913, 48558.73
1127.395, 48550.14
1127.877, 48569.72
1128.359, 48613.81
1128.841, 48662.89
1129.323, 48718.93
1129.806, 48740.98
1130.288, 48695.95
1130.770, 48650.45
1131.252, 48687.05
1131.734, 48757.05
1132.216, 48794.44
1132.698, 48780.18
1133.180, 48775.54
1133.662, 48780.26
1134.145, 48796.08
1134.627, 48823.32
1135.109, 48863.12
1135.591, 48930.91
1136.073, 49011.96
1136.555, 49067.19
1137.037, 49028.79
1137.519, 49060.71
1138.001, 49202.81
1138.484, 49351.89
1138.966, 49383.48
1139.448, 49342.50
1139.930, 49334.06
1140.412, 49361.60
1140.894, 49395.45
1141.376, 49424.36
1141.858, 49460.13
1142.341, 49521.88
1142.823, 49575.56
1143.305, 49523.41
1143.787, 49402.24
1144.269, 49391.97
1144.751, 49532.12
1145.233, 49675.03
1145.715, 49760.91
1146.198, 49799.14
1146.680, 49783.06
1147.162, 49729.64
1147.644, 49710.06
1148.126, 49725.08
1148.608, 49793.86
1149.090, 49955.79
1149.572, 50085.43
1150.054, 50044.50
1150.536, 49957.05
1151.019, 49951.81
1151.501, 50041.25
1151.983, 50057.43
1152.465, 49996.80
1152.947, 49953.07
1153.429, 49976.98
1153.911, 50040.17
1154.393, 50142.52
1154.876, 50256.91
1155.358, 50333.37
1155.840, 50358.90
1156.322, 50372.75
1156.804, 50369.01
1157.286, 50389.89
1157.768, 50516.65
1158.250, 50654.45
1158.733, 50663.79
1159.215, 50575.97
1159.697, 50521.58
1160.179, 50531.88
1160.661, 50548.57
1161.143, 50561.44
1161.625, 50589.94
1162.107, 50674.16
1162.589, 50781.86
1163.072, 50863.18
1163.554, 50914.04
1164.036, 50936.18
1164.518, 50906.39
1165.000, 50886.59
1165.482, 50889.86
1165.964, 50912.79
1166.446, 50961.63
1166.928, 51022.31
1167.411, 51060.10
1167.893, 51064.54
1168.375, 51076.99
1168.857, 51112.10
1169.339, 51158.54
1169.821, 51220.04
1170.303, 51283.95
1170.785, 51307.27
1171.268, 51301.13
1171.750, 51304.88
1172.232, 51340.11
1172.714, 51362.13
1173.196, 51305.51
1173.678, 51280.07
1174.160, 51382.36
1174.642, 51578.91
1175.125, 51619.93
1175.607, 51531.90
1176.089, 51458.26
1176.571, 51478.24
1177.053, 51511.85
1177.535, 51514.70
1178.017, 51522.96
1178.499, 51579.43
1178.981, 51683.55
1179.464, 51747.34
1179.946, 51771.86
1180.428, 51785.78
1180.910, 51788.10
1181.392, 51805.51
1181.874, 51875.91
1182.356, 51959.07
1182.838, 51983.04
1183.320, 51944.51
1183.803, 51965.86
1184.285, 52058.88
1184.767, 52136.26
1185.249, 52086.00
1185.731, 52042.31
1186.213, 52125.71
1186.695, 52285.93
1187.177, 52374.61
1187.660, 52386.62
1188.142, 52408.66
1188.624, 52456.92
1189.106, 52497.42
1189.588, 52454.37
1190.070, 52428.59
1190.552, 52552.32
1191.034, 52789.25
1191.516, 52849.15
1191.999, 52708.90
1192.481, 52611.51
1192.963, 52618.50
1193.445, 52683.31
1193.927, 52812.71
1194.409, 52940.25
1194.891, 52985.26
1195.373, 52941.61
1195.855, 52932.51
1196.338, 52962.52
1196.820, 52987.97
1197.302, 52993.89
1197.784, 52983.83
1198.266, 52923.57
1198.748, 52869.61
1199.230, 52909.12
1199.712, 53070.63
1200.195, 53184.01
1200.677, 53248.79
1201.159, 53265.16
1201.641, 53193.68
1202.123, 53122.82
1202.605, 53169.84
1203.087, 53281.73
1203.569, 53375.54
1204.052, 53450.66
1204.534, 53474.25
1205.016, 53437.09
1205.498, 53404.96
1205.980, 53432.84
1206.462, 53482.45
1206.944, 53504.68
1207.426, 53515.12
1207.908, 53554.74
1208.391, 53656.48
1208.873, 53693.61
1209.355, 53649.19
1209.837, 53604.88
1210.319, 53629.82
1210.801, 53692.84
1211.283, 53765.27
1211.765, 53845.65
1212.247, 53936.61
1212.730, 54058.74
1213.212, 54117.84
1213.694, 54092.46
1214.176, 54058.42
1214.658, 54090.53
1215.140, 54153.76
1215.622, 54220.66
1216.104, 54284.26
1216.587, 54313.80
1217.069, 54293.04
1217.551, 54293.81
1218.033, 54330.66
1218.515, 54378.86
1218.997, 54416.07
1219.479, 54445.88
1219.961, 54458.51
1220.443, 54459.65
1220.926, 54527.48
1221.408, 54695.77
1221.890, 54791.78
1222.372, 54758.69
1222.854, 54699.21
1223.336, 54758.65
1223.818, 54846.41
1224.300, 54832.97
1224.782, 54700.91
1225.265, 54699.21
1225.747, 54860.49
1226.229, 55002.81
1226.711, 55077.73
1227.193, 55091.25
1227.675, 54967.46
1228.157, 54835.34
1228.639, 54871.59
1229.122, 55114.04
1229.604, 55301.73
1230.086, 55435.58
1230.568, 55514.17
1231.050, 55530.87
1231.532, 55505.00
1232.014, 55402.40
1232.496, 55301.92
1232.979, 55321.73
1233.461, 55488.64
1233.943, 55567.79
1234.425, 55549.36
1234.907, 55536.56
1235.389, 55589.17
1235.871, 55649.75
1236.353, 55635.16
1236.835, 55609.27
1237.318, 55670.11
1237.800, 55838.21
1238.282, 55947.23
1238.764, 55995.89
1239.246, 55992.66
1239.728, 55883.57
1240.210, 55797.85
1240.692, 55885.98
1241.175, 56043.21
1241.657, 56120.92
1242.139, 56099.72
1242.621, 56115.27
1243.103, 56168.12
1243.585, 56215.71
1244.067, 56214.40
1244.549, 56218.72
1245.031, 56272.99
1245.514, 56352.58
1245.996, 56421.47
1246.478, 56479.31
1246.960, 56551.79
1247.442, 56636.91
1247.924, 56681.39
1248.406, 56590.64
1248.888, 56515.51
1249.370, 56573.15
1249.853, 56676.58
1250.335, 56706.21
1250.817, 56665.02
1251.299, 56650.66
1251.781, 56667.34
1252.263, 56709.72
1252.745, 56808.84
1253.227, 56891.93
1253.710, 56907.99
1254.192, 56905.66
1254.674, 56955.36
1255.156, 57045.68
1255.638, 57081.98
1256.120, 57064.85
1256.602, 57069.70
1257.084, 57168.65
1257.567, 57256.80
1258.049, 57292.23
1258.531, 57310.65
1259.013, 57374.70
1259.495, 57463.32
1259.977, 57481.87
1260.459, 57432.16
1260.941, 57414.98
1261.423, 57519.87
1261.906, 57602.77
1262.388, 57626.96
1262.870, 57623.60
1263.352, 57616.68
1263.834, 57622.73
1264.316, 57705.78
1264.798, 57860.25
1265.280, 57955.50
1265.762, 57887.04
1266.245, 57867.29
1266.727, 57948.66
1267.209, 58057.59
1267.691, 58088.49
1268.173, 58080.50
1268.655, 58102.45
1269.137, 58158.04
1269.619, 58190.33
1270.102, 58179.26
1270.584, 58187.48
1271.066, 58233.91
1271.548, 58282.84
1272.030, 58275.18
1272.512, 58252.83
1272.994, 58264.76
1273.476, 58314.78
1273.958, 58374.85
1274.441, 58446.73
1274.923, 58508.68
1275.405, 58551.19
1275.887, 58602.82
1276.369, 58719.07
1276.851, 58838.84
1277.333, 58898.27
1277.815, 58902.76
1278.297, 58905.13
1278.780, 58905.51
1279.262, 58894.41
1279.744, 58863.55
1280.226, 58859.37
1280.708, 58941.41
1281.190, 59045.09
1281.672, 59129.54
1282.154, 59195.82
1282.637, 59245.69
1283.119, 59279.90
1283.601, 59299.93
1284.083, 59303.14
1284.565, 59317.59
1285.047, 59377.67
1285.529, 59434.14
1286.011, 59464.63
1286.494, 59473.66
1286.976, 59453.73
1287.458, 59422.50
1287.940, 59448.71
1288.422, 59554.24
1288.904, 59650.61
1289.386, 59713.12
1289.868, 59746.13
1290.350, 59740.46
1290.833, 59719.30
1291.315, 59721.34
1291.797, 59745.14
1292.279, 59788.63
1292.761, 59851.94
1293.243, 59938.79
1293.725, 60079.92
1294.207, 60155.65
1294.689, 60107.93
1295.172, 60023.04
1295.654, 60020.74
1296.136, 60062.21
1296.618, 60108.84
1297.100, 60156.70
1297.582, 60129.70
1298.064, 60005.77
1298.546, 59954.30
1299.029, 60044.64
1299.511, 60172.09
1299.993, 60236.97
1300.475, 60276.71
1300.957, 60333.57
1301.439, 60401.59
1301.921, 60416.43
1302.403, 60381.05
1302.885, 60390.98
1303.368, 60490.36
1303.850, 60562.04
1304.332, 60459.62
1304.814, 60369.98
1305.296, 60415.07
1305.778, 60556.16
1306.260, 60668.26
1306.742, 60754.95
1307.224, 60843.27
1307.707, 60949.48
1308.189, 60995.78
1308.671, 60882.16
1309.153, 60791.70
1309.635, 60792.41
1310.117, 60852.66
1310.599, 60924.12
1311.081, 60998.82
1311.564, 61056.38
1312.046, 61088.89
1312.528, 61138.27
1313.010, 61226.75
1313.492, 61270.90
1313.974, 61225.45
1314.456, 61164.81
1314.938, 61204.28
##END=



