##NAMES=Lileyite
##RRUFFID=R140773
##IDEAL CHEMISTRY=Ba_2_Ti^4+^_2_Na_2_Fe^2+^Mg(Si_2_O_7_)_2_O_2_F_2_
##LOCALITY=Graulay, Hillesheim, Eifel, Rhineland-Palatinate, Germany
##OWNER=RRUFF
##SOURCE=Ch. and H. Sch√§fer
##DESCRIPTION=Reddish brown prismatic crystals with fine striations, associated with pyroxene, schorlomite and leucite.
##STATUS=The identification of this mineral has been confirmed by single-crystal X-ray diffraction.
##URL=rruff.info/R140773
151.2940, 0.0000000E+00
151.7761, 0.1873780
152.2583, 0.1395260
152.7404, 0.1026000
153.2225, 0.9453130
153.7046, 2.579529
154.1867, 4.541870
154.6688, 6.628357
155.1510, 9.347168
155.6331, 11.48181
156.1152, 12.37903
156.5973, 12.42352
157.0794, 13.02216
157.5615, 13.86377
158.0437, 15.65790
158.5258, 18.84021
159.0079, 24.98175
159.4900, 30.98822
159.9721, 35.99615
160.4542, 40.13757
160.9364, 44.18701
161.4185, 47.97577
161.9006, 51.98651
162.3827, 56.43036
162.8648, 62.62500
163.3469, 68.15747
163.8291, 71.84906
164.3112, 73.80701
164.7933, 75.14355
165.2754, 76.67883
165.7575, 77.77820
166.2396, 77.87329
166.7218, 76.64648
167.2039, 74.40045
167.6860, 71.09845
168.1681, 66.70300
168.6502, 62.40570
169.1323, 59.77271
169.6145, 58.30011
170.0966, 56.91571
170.5787, 54.37561
171.0608, 51.29126
171.5429, 48.51794
172.0250, 46.27448
172.5072, 44.07202
172.9893, 40.62506
173.4714, 37.39380
173.9535, 34.62549
174.4356, 32.76440
174.9177, 31.92712
175.3999, 30.78259
175.8820, 28.90417
176.3641, 27.05530
176.8462, 25.69336
177.3283, 24.57184
177.8104, 23.48767
178.2926, 22.40460
178.7747, 21.33624
179.2568, 20.43903
179.7389, 19.75397
180.2210, 18.99579
180.7031, 17.71558
181.1853, 16.05176
181.6674, 14.54431
182.1495, 13.71814
182.6316, 13.23724
183.1137, 12.18921
183.5958, 10.39862
184.0780, 8.567566
184.5601, 7.752502
185.0422, 7.826416
185.5243, 7.852295
186.0064, 7.417419
186.4885, 6.561096
186.9707, 5.295166
187.4528, 3.505310
187.9349, 1.638672
188.4170, 0.3491820
188.8991, 0.3797000
189.3812, 0.8333130
189.8634, 1.020447
190.3455, 1.004761
190.8276, 1.035400
191.3097, 1.268555
191.7918, 1.861389
192.2739, 2.554199
192.7561, 3.547974
193.2382, 3.477417
193.7203, 0.8771970
194.2024, 3.995911
194.6845, 7.445740
195.1666, 9.127014
195.6488, 9.532593
196.1309, 9.609619
196.6130, 9.412476
197.0951, 8.592041
197.5772, 6.396057
198.0593, 2.815918
198.5415, 0.7411500
199.0236, 0.6713260
199.5057, 1.835693
199.9878, 2.545105
200.4699, 2.734314
200.9520, 2.802856
201.4342, 2.921631
201.9163, 3.138245
202.3984, 3.566223
202.8805, 4.502441
203.3626, 5.883118
203.8447, 6.639404
204.3269, 6.624207
204.8090, 6.691956
205.2911, 7.354248
205.7732, 8.397949
206.2553, 9.174988
206.7374, 9.538208
207.2196, 9.575317
207.7017, 9.800049
208.1838, 10.38855
208.6659, 11.12781
209.1480, 12.26678
209.6301, 13.49872
210.1123, 14.44568
210.5944, 15.07440
211.0765, 15.45239
211.5586, 15.75739
212.0407, 15.95538
212.5228, 16.16046
213.0050, 16.44202
213.4871, 16.82520
213.9692, 17.17926
214.4513, 17.50153
214.9334, 17.77979
215.4155, 17.99945
215.8977, 18.14966
216.3798, 18.24432
216.8619, 18.28577
217.3440, 18.27142
217.8261, 18.20917
218.3082, 18.19397
218.7904, 18.09375
219.2725, 17.38458
219.7546, 15.61670
220.2367, 14.04700
220.7188, 13.48132
221.2009, 14.56494
221.6831, 14.91687
222.1652, 14.35162
222.6473, 13.05981
223.1294, 11.49225
223.6115, 9.291260
224.0936, 7.416382
224.5758, 6.408630
225.0579, 6.755859
225.5400, 6.785583
226.0221, 6.342285
226.5042, 5.605164
226.9863, 5.070007
227.4685, 4.852417
227.9506, 4.648010
228.4327, 4.353516
228.9148, 4.083069
229.3969, 3.382813
229.8790, 1.850891
230.3612, 4.8219999E-03
230.8433, 0.8107300
231.3254, 5.9810001E-03
231.8075, 0.9898680
232.2896, 1.440002
232.7717, 0.8484500
233.2539, 1.010010
233.7360, 2.455017
234.2181, 4.437927
234.7002, 5.197266
235.1823, 4.019775
235.6644, 2.665955
236.1466, 1.756958
236.6287, 1.242737
237.1108, 1.359314
237.5929, 2.521606
238.0750, 4.131775
238.5571, 4.910828
239.0393, 4.486145
239.5214, 3.817749
240.0035, 3.244202
240.4856, 2.812988
240.9677, 2.345947
241.4498, 1.724304
241.9320, 1.124756
242.4141, 0.9344480
242.8962, 1.497620
243.3783, 1.975830
243.8604, 2.033386
244.3425, 1.489380
244.8247, 1.182373
245.3068, 1.190674
245.7889, 1.344727
246.2710, 1.403320
246.7531, 1.266541
247.2352, 1.265747
247.7174, 1.628052
248.1995, 2.532349
248.6816, 2.831299
249.1637, 2.198853
249.6458, 1.149658
250.1279, 0.4477540
250.6101, 0.3408200
251.0922, 0.1220090
251.5743, 0.3880620
252.0564, 1.269592
252.5385, 1.390076
253.0206, 0.2009890
253.5028, 1.121216
253.9849, 0.9578860
254.4670, 1.644287
254.9491, 3.686035
255.4312, 4.328979
255.9133, 3.538879
256.3955, 3.026245
256.8776, 2.606445
257.3597, 2.444275
257.8418, 2.952515
258.3239, 4.714050
258.8061, 5.801270
259.2882, 5.552795
259.7703, 3.996887
260.2524, 3.343689
260.7345, 3.957703
261.2166, 4.921448
261.6988, 5.470703
262.1809, 5.594482
262.6630, 5.341492
263.1451, 4.571289
263.6272, 3.358704
264.1093, 2.549622
264.5915, 2.230469
265.0736, 2.135620
265.5557, 2.168213
266.0378, 2.536194
266.5199, 2.291931
267.0020, 1.232361
267.4842, 0.5458370
267.9663, 2.539368
268.4484, 4.847839
268.9305, 7.123047
269.4126, 9.086487
269.8947, 10.72626
270.3769, 12.21313
270.8590, 13.55835
271.3411, 14.78027
271.8232, 15.74622
272.3053, 16.24304
272.7874, 17.11469
273.2696, 19.08575
273.7517, 22.39154
274.2338, 25.19330
274.7159, 27.27466
275.1980, 28.92847
275.6801, 30.86810
276.1623, 33.23706
276.6444, 35.27509
277.1265, 36.41278
277.6086, 36.58191
278.0907, 37.21051
278.5728, 38.52118
279.0550, 40.02429
279.5371, 40.73706
280.0192, 40.55261
280.5013, 40.44574
280.9834, 41.01489
281.4655, 42.22711
281.9477, 42.83588
282.4298, 42.73248
282.9119, 42.25995
283.3940, 41.91656
283.8761, 41.70282
284.3582, 41.23596
284.8404, 40.27063
285.3225, 38.88794
285.8046, 37.60980
286.2867, 36.45135
286.7688, 35.34265
287.2509, 34.32605
287.7331, 33.34692
288.2152, 31.94788
288.6973, 29.85425
289.1794, 27.41705
289.6615, 25.64209
290.1436, 24.54980
290.6258, 23.45056
291.1079, 21.48090
291.5900, 18.91388
292.0721, 17.05939
292.5542, 16.58838
293.0363, 16.74103
293.5185, 15.74371
294.0006, 13.60187
294.4827, 11.61096
294.9648, 10.71606
295.4469, 10.76770
295.9290, 11.33551
296.4112, 12.54926
296.8933, 13.88770
297.3754, 14.40265
297.8575, 14.20599
298.3396, 14.04565
298.8217, 14.34393
299.3039, 15.01990
299.7860, 15.98328
300.2681, 17.33105
300.7502, 18.66864
301.2323, 19.30579
301.7144, 19.45599
302.1966, 19.80811
302.6787, 20.98792
303.1608, 22.50049
303.6429, 23.70148
304.1250, 24.50909
304.6071, 25.13269
305.0893, 25.66107
305.5714, 26.14087
306.0535, 26.63568
306.5356, 27.10480
307.0177, 27.65448
307.4998, 28.46527
307.9820, 29.55206
308.4641, 30.53796
308.9462, 30.96851
309.4283, 31.17816
309.9104, 31.61389
310.3925, 32.95190
310.8747, 34.26575
311.3568, 34.62067
311.8389, 34.15649
312.3210, 33.90503
312.8031, 34.94434
313.2852, 36.28857
313.7674, 36.97595
314.2495, 36.21143
314.7316, 35.36627
315.2137, 35.14178
315.6958, 35.35736
316.1779, 35.44342
316.6601, 35.12988
317.1422, 34.72955
317.6243, 34.43829
318.1064, 34.20319
318.5885, 34.06110
319.0706, 33.99945
319.5528, 34.04651
320.0349, 34.24835
320.5170, 34.51239
320.9991, 35.05457
321.4812, 36.15601
321.9633, 38.12622
322.4455, 39.47034
322.9276, 39.05566
323.4097, 38.12512
323.8918, 38.20093
324.3739, 40.48132
324.8560, 42.90564
325.3382, 44.89319
325.8203, 46.34583
326.3024, 48.06580
326.7845, 50.79364
327.2666, 53.46509
327.7487, 55.23065
328.2309, 54.77429
328.7130, 54.93671
329.1951, 56.07428
329.6772, 58.12286
330.1593, 60.50134
330.6414, 63.84448
331.1236, 66.87671
331.6057, 68.80182
332.0878, 68.31573
332.5699, 69.10986
333.0520, 71.94952
333.5341, 76.00220
334.0163, 78.92413
334.4984, 80.25500
334.9805, 81.16797
335.4626, 82.13971
335.9447, 83.23962
336.4268, 84.10779
336.9090, 84.60571
337.3911, 85.03577
337.8732, 85.99542
338.3553, 87.74591
338.8374, 89.13879
339.3195, 89.78021
339.8017, 89.69421
340.2838, 89.54248
340.7659, 89.37286
341.2480, 89.03455
341.7301, 88.20233
342.2122, 86.82446
342.6944, 85.83765
343.1765, 85.61224
343.6586, 85.84229
344.1407, 85.41779
344.6228, 84.28375
345.1049, 83.13202
345.5871, 82.45392
346.0692, 82.21191
346.5513, 82.27240
347.0334, 82.67828
347.5155, 83.23285
347.9977, 83.66766
348.4798, 83.97931
348.9619, 84.12854
349.4440, 84.08173
349.9261, 83.85840
350.4082, 83.30151
350.8904, 82.29584
351.3725, 81.67761
351.8546, 82.60754
352.3367, 84.65039
352.8188, 86.65948
353.3009, 88.21741
353.7831, 89.43396
354.2652, 90.12866
354.7473, 90.34973
355.2294, 91.08630
355.7115, 93.51801
356.1936, 96.75751
356.6758, 99.64062
357.1579, 101.7814
357.6400, 103.5746
358.1221, 104.9692
358.6042, 106.1607
359.0863, 107.8878
359.5685, 111.0507
360.0506, 114.5676
360.5327, 117.5565
361.0148, 119.5845
361.4969, 121.8595
361.9790, 124.7874
362.4612, 128.2951
362.9433, 132.3018
363.4254, 137.5067
363.9075, 142.5620
364.3896, 147.0031
364.8717, 150.7946
365.3539, 153.9141
365.8360, 155.8608
366.3181, 157.3448
366.8002, 159.0577
367.2823, 161.6609
367.7644, 163.8365
368.2466, 165.6385
368.7287, 166.9838
369.2108, 167.1054
369.6929, 165.5707
370.1750, 163.3088
370.6571, 160.7765
371.1393, 158.3092
371.6214, 154.7886
372.1035, 149.8229
372.5856, 143.8016
373.0677, 137.9328
373.5498, 132.6363
374.0320, 126.8688
374.5141, 119.9870
374.9962, 111.7260
375.4783, 103.9611
375.9604, 96.89319
376.4425, 90.29840
376.9247, 83.85547
377.4068, 77.56921
377.8889, 71.45624
378.3710, 65.45782
378.8531, 59.79395
379.3352, 55.35004
379.8174, 52.25818
380.2995, 49.25745
380.7816, 45.01678
381.2637, 39.83459
381.7458, 36.21228
382.2279, 34.67078
382.7101, 34.33533
383.1922, 33.84033
383.6743, 33.22668
384.1564, 32.83466
384.6385, 32.62097
385.1206, 32.79614
385.6028, 33.90643
386.0849, 36.02393
386.5670, 38.49536
387.0491, 40.93134
387.5312, 43.27802
388.0133, 45.41882
388.4955, 46.69202
388.9776, 48.25873
389.4597, 51.52484
389.9418, 56.23059
390.4239, 60.82178
390.9060, 64.32739
391.3882, 67.31598
391.8703, 70.34192
392.3524, 73.75629
392.8345, 76.77539
393.3166, 78.62964
393.7987, 79.84857
394.2809, 81.47113
394.7630, 84.79425
395.2451, 87.77820
395.7272, 89.50446
396.2093, 89.75293
396.6914, 89.58203
397.1736, 88.65405
397.6557, 87.64758
398.1378, 87.18237
398.6199, 87.94135
399.1020, 88.54297
399.5841, 88.59601
400.0663, 88.24042
400.5484, 88.44922
401.0305, 89.51154
401.5126, 90.82922
401.9947, 92.18024
402.4768, 93.77258
402.9590, 94.87500
403.4411, 95.27844
403.9232, 95.36932
404.4053, 95.86047
404.8874, 96.89899
405.3695, 97.91907
405.8517, 98.68134
406.3338, 99.24023
406.8159, 100.2267
407.2980, 101.8578
407.7801, 103.1818
408.2622, 103.0475
408.7444, 101.5345
409.2265, 100.3040
409.7086, 99.75568
410.1907, 99.50116
410.6728, 98.82751
411.1549, 97.72498
411.6371, 96.24121
412.1192, 94.30853
412.6013, 92.06024
413.0834, 89.80353
413.5655, 87.55524
414.0476, 85.20416
414.5298, 82.78259
415.0119, 80.16199
415.4940, 76.98846
415.9761, 72.72119
416.4582, 68.18488
416.9403, 64.15076
417.4225, 60.55164
417.9046, 57.02429
418.3867, 53.59692
418.8688, 50.11456
419.3509, 46.42950
419.8330, 42.12299
420.3152, 38.38397
420.7973, 36.44995
421.2794, 35.27039
421.7615, 32.91547
422.2436, 27.37427
422.7257, 22.02942
423.2079, 17.97485
423.6900, 15.40094
424.1721, 13.30249
424.6542, 12.26752
425.1363, 11.25043
425.6184, 9.425415
426.1006, 6.173950
426.5827, 3.090271
427.0648, 0.1343990
427.5469, 2.587891
428.0290, 4.564819
428.5111, 5.682922
428.9933, 6.292480
429.4754, 6.291138
429.9575, 5.476746
430.4396, 5.865295
430.9217, 7.908264
431.4038, 10.21808
431.8860, 10.80072
432.3681, 9.586487
432.8502, 8.567383
433.3323, 8.383606
433.8144, 8.653320
434.2965, 8.252441
434.7787, 7.184082
435.2608, 6.143250
435.7429, 5.947083
436.2250, 6.124939
436.7071, 5.419189
437.1892, 3.557922
437.6714, 1.304932
438.1535, 0.5786130
438.6356, 2.224060
439.1177, 3.899841
439.5998, 5.849915
440.0819, 7.786072
440.5641, 9.338135
441.0462, 10.54980
441.5283, 11.95343
442.0104, 14.13635
442.4925, 16.45410
442.9746, 18.27954
443.4568, 19.03503
443.9389, 20.10742
444.4210, 22.00433
444.9031, 24.49561
445.3852, 27.15253
445.8673, 30.45001
446.3495, 33.34442
446.8316, 35.49152
447.3137, 36.81116
447.7958, 37.91980
448.2779, 38.71094
448.7600, 39.39014
449.2422, 40.17548
449.7243, 41.49219
450.2064, 42.00208
450.6885, 41.43359
451.1706, 40.07019
451.6527, 38.68298
452.1349, 37.27216
452.6170, 35.78027
453.0991, 34.18127
453.5812, 32.44867
454.0633, 30.72070
454.5454, 28.96606
455.0276, 27.21851
455.5097, 25.64587
455.9918, 24.16461
456.4739, 22.34369
456.9560, 19.84930
457.4381, 17.26733
457.9203, 15.67206
458.4024, 14.88452
458.8845, 14.01630
459.3666, 12.37006
459.8488, 10.43549
460.3309, 8.788147
460.8130, 7.483582
461.2951, 6.469971
461.7772, 5.575806
462.2593, 5.031006
462.7415, 5.142700
463.2236, 6.973999
463.7057, 8.505371
464.1878, 8.862610
464.6699, 8.260193
465.1520, 7.430603
465.6342, 6.307068
466.1163, 5.244934
466.5984, 4.360474
467.0805, 3.633545
467.5626, 3.212830
468.0447, 3.448364
468.5269, 3.784424
469.0090, 3.580444
469.4911, 2.255310
469.9732, 1.540344
470.4553, 1.868286
470.9374, 2.972168
471.4196, 3.628174
471.9017, 3.619385
472.3838, 3.787537
472.8659, 4.716858
473.3480, 6.409424
473.8301, 7.767090
474.3123, 8.704346
474.7944, 9.577209
475.2765, 10.87134
475.7586, 12.51208
476.2407, 14.11218
476.7228, 15.61523
477.2050, 16.99908
477.6871, 17.88916
478.1692, 18.42511
478.6513, 19.39594
479.1334, 21.80713
479.6155, 24.67676
480.0977, 26.91132
480.5798, 28.34821
481.0619, 29.82178
481.5440, 31.81311
482.0261, 34.02240
482.5082, 36.13300
482.9904, 38.32935
483.4725, 40.09906
483.9546, 41.04663
484.4367, 41.39362
484.9188, 42.01111
485.4009, 43.13263
485.8831, 44.20453
486.3652, 44.98328
486.8473, 45.31342
487.3294, 46.09979
487.8115, 47.83679
488.2936, 49.61243
488.7758, 50.41992
489.2579, 49.99866
489.7400, 49.30115
490.2221, 48.47388
490.7042, 47.62006
491.1863, 47.13708
491.6685, 47.04950
492.1506, 46.86365
492.6327, 46.35846
493.1148, 45.54803
493.5969, 44.41278
494.0790, 42.89917
494.5612, 41.43091
495.0433, 40.49493
495.5254, 39.96625
496.0075, 39.42633
496.4896, 38.57562
496.9717, 37.81628
497.4539, 37.71381
497.9360, 38.05890
498.4181, 38.32184
498.9002, 38.05920
499.3823, 37.77228
499.8644, 37.85236
500.3466, 38.35608
500.8287, 38.63953
501.3108, 38.40222
501.7929, 37.91086
502.2750, 37.37015
502.7571, 36.61612
503.2393, 36.02231
503.7214, 35.66168
504.2035, 35.44925
504.6856, 35.21869
505.1677, 35.02307
505.6498, 34.70935
506.1320, 34.19183
506.6141, 33.48044
507.0962, 32.87579
507.5783, 32.37247
508.0604, 32.02646
508.5425, 31.85049
509.0247, 31.86023
509.5068, 32.30087
509.9889, 33.34772
510.4710, 34.40506
510.9531, 34.63333
511.4352, 34.15445
511.9174, 33.40210
512.3995, 32.33655
512.8816, 31.24588
513.3637, 30.40665
513.8458, 29.80759
514.3279, 29.40646
514.8101, 29.26926
515.2922, 29.24826
515.7743, 29.28122
516.2564, 29.43964
516.7385, 29.32343
517.2206, 28.77802
517.7028, 27.88773
518.1849, 26.75098
518.6670, 24.94345
519.1491, 23.40350
519.6312, 22.39609
520.1133, 21.79111
520.5955, 20.97830
521.0776, 19.88626
521.5597, 18.78900
522.0418, 17.82080
522.5239, 16.99899
523.0060, 16.14233
523.4882, 15.17914
523.9703, 14.33282
524.4524, 14.03925
524.9345, 14.23517
525.4166, 13.95425
525.8987, 12.96612
526.3809, 11.57471
526.8630, 9.998932
527.3451, 8.276642
527.8272, 6.818237
528.3093, 5.879150
528.7914, 5.350891
529.2736, 5.171814
529.7557, 5.278503
530.2378, 5.317261
530.7199, 5.139740
531.2020, 4.816437
531.6841, 4.378967
532.1663, 3.817505
532.6484, 3.129395
533.1305, 2.183258
533.6126, 1.139740
534.0947, 0.2132260
534.5768, 0.7160340
535.0590, 1.325714
535.5411, 1.447418
536.0232, 1.162476
536.5053, 0.9378050
536.9874, 0.6832280
537.4695, 0.6665650
537.9517, 1.170319
538.4338, 2.244110
538.9159, 2.800598
539.3980, 2.791565
539.8801, 2.462952
540.3622, 1.949341
540.8444, 1.318207
541.3265, 0.8933410
541.8086, 0.8259890
542.2907, 0.8342900
542.7728, 0.6288760
543.2549, 0.2109990
543.7371, 0.4150090
544.2192, 1.625549
544.7013, 2.756592
545.1834, 3.015411
545.6655, 2.483643
546.1476, 2.549591
546.6298, 4.274933
547.1119, 6.477325
547.5940, 8.420746
548.0761, 10.07144
548.5582, 11.33868
549.0403, 11.83490
549.5225, 12.16464
550.0046, 13.06293
550.4867, 14.83603
550.9688, 16.55658
551.4509, 18.08521
551.9330, 19.44580
552.4152, 20.63986
552.8973, 21.62579
553.3794, 22.69089
553.8615, 23.73322
554.3436, 24.91034
554.8257, 27.26752
555.3079, 30.83447
555.7900, 34.69974
556.2721, 37.97308
556.7542, 40.95590
557.2363, 44.19879
557.7184, 47.88931
558.2006, 51.63348
558.6827, 54.79922
559.1648, 57.84497
559.6469, 61.61810
560.1290, 66.92224
560.6111, 72.47504
561.0933, 77.62415
561.5754, 82.50610
562.0575, 87.87933
562.5396, 94.18536
563.0217, 100.6698
563.5038, 107.0577
563.9860, 113.3118
564.4681, 119.8062
564.9502, 126.3182
565.4323, 133.3315
565.9144, 141.4124
566.3965, 150.6988
566.8787, 159.6078
567.3608, 167.7685
567.8429, 175.6821
568.3250, 183.7810
568.8071, 192.1149
569.2892, 200.7768
569.7714, 209.7687
570.2535, 219.1003
570.7356, 228.9028
571.2177, 239.1471
571.6998, 248.7938
572.1819, 257.6565
572.6641, 265.6515
573.1462, 272.6398
573.6283, 278.5841
574.1104, 283.9695
574.5925, 289.1920
575.0746, 293.8223
575.5568, 297.5667
576.0389, 300.8002
576.5210, 302.4537
577.0031, 302.3996
577.4852, 300.7887
577.9673, 297.8119
578.4495, 293.1724
578.9316, 288.0485
579.4137, 282.8199
579.8958, 277.4372
580.3779, 271.2370
580.8600, 264.2290
581.3422, 256.8936
581.8243, 249.6320
582.3064, 242.2571
582.7885, 234.3866
583.2706, 225.9253
583.7527, 217.4727
584.2349, 209.3239
584.7170, 201.4315
585.1991, 193.7938
585.6812, 186.4611
586.1633, 179.1327
586.6454, 171.3541
587.1276, 163.5020
587.6097, 156.3736
588.0918, 150.5812
588.5739, 144.9294
589.0560, 139.1878
589.5381, 133.3742
590.0203, 127.6116
590.5024, 121.8693
590.9845, 116.2165
591.4666, 110.7401
591.9487, 105.4150
592.4308, 100.1685
592.9130, 95.01709
593.3951, 90.04565
593.8772, 85.38745
594.3593, 81.01086
594.8414, 76.90820
595.3235, 73.15887
595.8057, 69.43445
596.2878, 65.21320
596.7699, 60.81458
597.2520, 56.86420
597.7341, 53.81085
598.2162, 51.05359
598.6984, 48.41302
599.1805, 45.85114
599.6626, 43.13898
600.1447, 39.91510
600.6268, 36.82214
601.1089, 34.14746
601.5911, 31.91913
602.0732, 29.71765
602.5553, 27.53210
603.0374, 25.37402
603.5195, 23.30957
604.0016, 21.37598
604.4838, 19.25500
604.9659, 16.87775
605.4480, 14.53320
605.9301, 12.56659
606.4122, 10.95050
606.8943, 9.557556
607.3765, 8.355530
607.8586, 7.361877
608.3407, 6.834595
608.8228, 6.549316
609.3049, 5.960388
609.7870, 4.462952
610.2692, 2.899780
610.7513, 1.638916
611.2334, 0.6952510
611.7155, 5.4993000E-02
612.1976, 9.7534001E-02
612.6797, 0.1051030
613.1619, 0.2673340
613.6440, 1.120728
614.1261, 1.881042
614.6082, 2.544312
615.0903, 3.119934
615.5724, 3.633240
616.0546, 4.086182
616.5367, 4.396667
617.0188, 4.546997
617.5009, 4.572998
617.9830, 4.389954
618.4651, 4.101746
618.9473, 4.085205
619.4294, 4.679688
619.9115, 5.372009
620.3936, 5.578979
620.8757, 5.463562
621.3578, 5.506165
621.8400, 6.312256
622.3221, 6.983459
622.8042, 7.053223
623.2863, 6.493713
623.7684, 5.721069
624.2505, 4.586853
624.7327, 3.432190
625.2148, 2.511414
625.6969, 2.025635
626.1790, 0.7689210
626.6611, 1.644531
627.1432, 3.994263
627.6254, 4.762512
628.1075, 4.057495
628.5896, 3.548157
629.0717, 3.456604
629.5538, 3.789307
630.0359, 4.450073
630.5181, 5.531738
631.0002, 7.321045
631.4823, 10.70770
631.9644, 14.06683
632.4465, 16.04791
632.9286, 17.03253
633.4108, 18.17542
633.8929, 19.88208
634.3750, 21.82263
634.8571, 23.71039
635.3392, 25.52411
635.8214, 28.35980
636.3035, 32.86255
636.7856, 37.51385
637.2677, 41.60217
637.7498, 45.13898
638.2319, 47.97363
638.7141, 50.22406
639.1962, 51.46252
639.6783, 50.79846
640.1604, 48.68536
640.6425, 46.83606
641.1246, 45.54022
641.6068, 44.62396
642.0889, 43.56628
642.5710, 42.81378
643.0531, 43.14386
643.5352, 45.72247
644.0173, 48.52911
644.4995, 50.71753
644.9816, 52.48541
645.4637, 54.51093
645.9458, 56.60254
646.4279, 59.24707
646.9100, 62.61218
647.3922, 66.68488
647.8743, 70.85291
648.3564, 75.11206
648.8385, 79.60327
649.3206, 84.40393
649.8027, 89.56659
650.2849, 94.92908
650.7670, 100.4889
651.2491, 106.2585
651.7312, 112.4414
652.2133, 118.6823
652.6954, 124.4627
653.1776, 129.6080
653.6597, 134.5208
654.1418, 139.4423
654.6239, 144.3864
655.1060, 149.3947
655.5881, 154.1484
656.0703, 159.3636
656.5524, 165.4073
657.0345, 171.9009
657.5166, 178.1049
657.9987, 183.9823
658.4808, 189.7554
658.9630, 195.6185
659.4451, 201.4003
659.9272, 206.4607
660.4093, 210.7990
660.8914, 215.1950
661.3735, 220.2505
661.8557, 225.5706
662.3378, 230.4919
662.8199, 235.0564
663.3020, 239.6241
663.7841, 244.6841
664.2662, 249.6730
664.7484, 253.9933
665.2305, 257.3756
665.7126, 261.2164
666.1947, 266.4926
666.6768, 271.9064
667.1589, 276.5533
667.6411, 280.2154
668.1232, 283.4238
668.6053, 285.8055
669.0874, 288.2435
669.5695, 292.0132
670.0516, 297.1234
670.5338, 302.1872
671.0159, 306.9019
671.4980, 311.4683
671.9801, 316.1780
672.4622, 320.9893
672.9443, 325.6462
673.4265, 330.3770
673.9086, 334.6743
674.3907, 338.1486
674.8728, 340.9818
675.3549, 343.6214
675.8370, 346.4396
676.3192, 348.9504
676.8013, 350.9238
677.2834, 352.3695
677.7655, 353.4875
678.2476, 354.6803
678.7297, 354.8057
679.2119, 353.2244
679.6940, 349.9224
680.1761, 345.4369
680.6582, 339.7703
681.1403, 333.4533
681.6224, 326.9291
682.1046, 320.0546
682.5867, 312.5565
683.0688, 304.2460
683.5509, 295.8060
684.0330, 287.8024
684.5151, 279.7972
684.9973, 271.2231
685.4794, 261.4591
685.9615, 251.8346
686.4436, 242.4795
686.9257, 233.3303
687.4078, 224.2773
687.8900, 215.0565
688.3721, 206.4205
688.8542, 198.6205
689.3363, 191.4113
689.8184, 184.8063
690.3005, 178.7542
690.7827, 172.1022
691.2648, 163.7483
691.7469, 155.3002
692.2290, 149.4521
692.7111, 145.5639
693.1932, 141.8422
693.6754, 136.8269
694.1575, 132.1857
694.6396, 129.2347
695.1217, 127.8357
695.6038, 125.7687
696.0859, 121.9757
696.5681, 118.2502
697.0502, 115.2857
697.5323, 113.1144
698.0144, 110.8101
698.4965, 108.2465
698.9786, 106.0212
699.4608, 104.9806
699.9429, 104.7421
700.4250, 103.3821
700.9071, 100.7346
701.3892, 98.06946
701.8713, 96.50787
702.3535, 95.57849
702.8356, 94.70941
703.3177, 93.77283
703.7998, 92.93335
704.2819, 92.23199
704.7640, 91.66150
705.2462, 91.22327
705.7283, 91.00256
706.2104, 90.75275
706.6925, 90.47388
707.1746, 90.14398
707.6567, 89.69696
708.1389, 89.12085
708.6210, 88.63708
709.1031, 88.36987
709.5852, 88.08209
710.0673, 87.37646
710.5494, 86.32581
711.0316, 85.14465
711.5137, 83.71326
711.9958, 82.40906
712.4779, 81.65460
712.9600, 81.23816
713.4421, 80.53546
713.9243, 79.27783
714.4064, 77.87061
714.8885, 76.50592
715.3706, 75.16364
715.8527, 73.53442
716.3348, 71.50641
716.8170, 69.33154
717.2991, 67.06342
717.7812, 64.80518
718.2633, 63.21045
718.7454, 62.24915
719.2275, 61.48950
719.7097, 60.79291
720.1918, 59.96454
720.6739, 58.51337
721.1560, 56.40814
721.6381, 54.71277
722.1202, 54.57428
722.6024, 54.52209
723.0845, 53.43372
723.5666, 50.61725
724.0487, 48.82263
724.5308, 48.22003
725.0129, 48.32245
725.4951, 48.94299
725.9772, 50.09595
726.4593, 50.49274
726.9414, 50.03925
727.4235, 49.27991
727.9056, 48.47290
728.3878, 47.72607
728.8699, 47.41565
729.3520, 47.74353
729.8341, 48.25885
730.3162, 48.52478
730.7983, 48.73853
731.2805, 49.22107
731.7626, 50.60126
732.2447, 51.61548
732.7268, 52.00037
733.2089, 52.03931
733.6910, 52.05011
734.1732, 51.88940
734.6553, 52.34784
735.1374, 53.92303
735.6195, 55.89032
736.1016, 56.89764
736.5837, 57.01978
737.0659, 56.51752
737.5480, 55.10059
738.0301, 53.51147
738.5122, 52.35352
738.9943, 51.54944
739.4764, 50.92004
739.9586, 50.46338
740.4407, 50.10083
740.9228, 49.71350
741.4049, 49.37286
741.8870, 49.47357
742.3691, 50.10883
742.8513, 50.91223
743.3334, 51.81702
743.8155, 52.77264
744.2976, 53.58447
744.7797, 54.26007
745.2618, 54.75293
745.7440, 55.07544
746.2261, 55.19366
746.7082, 54.95355
747.1903, 54.40363
747.6724, 54.00684
748.1545, 53.74683
748.6367, 53.88159
749.1188, 54.84802
749.6009, 56.83197
750.0830, 57.67102
750.5651, 56.81238
751.0472, 55.84613
751.5294, 55.70667
752.0115, 56.37354
752.4936, 57.27380
752.9757, 58.44995
753.4578, 59.28467
753.9399, 58.99548
754.4221, 58.11224
754.9042, 57.43829
755.3863, 57.09674
755.8684, 56.56970
756.3505, 55.19971
756.8326, 53.80847
757.3148, 53.10864
757.7969, 53.60968
758.2790, 53.64905
758.7611, 53.17395
759.2432, 52.31989
759.7253, 51.02094
760.2075, 49.24866
760.6896, 48.19568
761.1717, 48.10779
761.6538, 47.86322
762.1359, 45.90540
762.6180, 43.01593
763.1002, 40.70160
763.5823, 39.48688
764.0644, 38.13269
764.5465, 35.71686
765.0286, 32.92572
765.5107, 30.51385
765.9929, 28.92188
766.4750, 27.22198
766.9571, 25.44336
767.4392, 23.52075
767.9213, 21.28113
768.4034, 18.70740
768.8856, 16.29498
769.3677, 14.11053
769.8498, 12.18939
770.3319, 10.80383
770.8140, 9.678162
771.2961, 8.221985
771.7783, 6.127380
772.2604, 3.878906
772.7425, 1.433105
773.2246, 0.9208370
773.7067, 2.745056
774.1888, 3.468384
774.6710, 4.440735
775.1531, 5.795532
775.6352, 7.429443
776.1173, 9.234009
776.5994, 11.21130
777.0815, 13.08344
777.5637, 14.82184
778.0458, 16.35583
778.5279, 17.62799
779.0100, 18.61761
779.4921, 19.26941
779.9742, 19.27722
780.4564, 19.28613
780.9385, 19.70013
781.4206, 20.30341
781.9027, 20.62219
782.3848, 20.68457
782.8669, 20.35175
783.3491, 19.33545
783.8312, 18.09033
784.3133, 17.94397
784.7954, 18.86609
785.2775, 19.47418
785.7596, 19.19946
786.2418, 18.53497
786.7239, 18.27667
787.2060, 18.18427
787.6881, 17.61761
788.1702, 15.89404
788.6523, 14.13452
789.1345, 12.83618
789.6166, 11.86523
790.0987, 10.73846
790.5808, 9.633667
791.0629, 7.993774
791.5450, 5.467529
792.0272, 2.498413
792.5093, 0.8453370
792.9914, 0.3189700
793.4735, 0.8734740
793.9556, 3.909485
794.4377, 7.571411
794.9199, 10.62292
795.4020, 13.18085
795.8841, 15.35699
796.3662, 16.39795
796.8483, 17.98090
797.3304, 21.19403
797.8126, 25.41882
798.2947, 28.49695
798.7768, 29.92639
799.2589, 31.63916
799.7410, 34.25763
800.2231, 37.46094
800.7053, 40.47742
801.1874, 43.31567
801.6695, 46.14215
802.1516, 48.76477
802.6337, 51.60242
803.1158, 55.14526
803.5980, 59.16791
804.0801, 63.27905
804.5622, 67.57849
805.0443, 71.61469
805.5264, 75.26929
806.0085, 78.58911
806.4907, 81.76093
806.9728, 84.83362
807.4549, 87.52338
807.9370, 89.67206
808.4191, 91.50153
808.9012, 93.64264
809.3834, 95.90558
809.8655, 97.61115
810.3476, 97.77759
810.8297, 97.91394
811.3118, 99.26801
811.7939, 101.3477
812.2761, 102.6079
812.7582, 101.7955
813.2403, 101.6455
813.7224, 102.9654
814.2045, 105.1821
814.6866, 106.5258
815.1688, 106.9379
815.6509, 107.5853
816.1330, 109.0417
816.6151, 110.7541
817.0972, 111.5896
817.5793, 111.9999
818.0615, 113.2263
818.5436, 116.7139
819.0257, 120.1039
819.5078, 122.3647
819.9899, 123.7979
820.4720, 125.3125
820.9542, 127.0587
821.4363, 128.4097
821.9184, 129.1314
822.4005, 129.4930
822.8826, 130.2167
823.3647, 131.2173
823.8469, 131.8327
824.3290, 131.5109
824.8111, 131.1986
825.2932, 131.9800
825.7753, 133.4130
826.2574, 134.5285
826.7396, 134.2069
827.2217, 134.6904
827.7038, 136.7032
828.1859, 139.5432
828.6681, 141.9991
829.1502, 143.9738
829.6323, 145.8700
830.1144, 147.7689
830.5966, 149.5021
831.0787, 150.7733
831.5608, 151.8023
832.0429, 153.2104
832.5250, 155.2378
833.0071, 157.4689
833.4893, 160.1310
833.9714, 162.7313
834.4535, 164.5755
834.9356, 165.3626
835.4177, 165.9099
835.8998, 166.0396
836.3820, 166.2877
836.8641, 167.7061
837.3462, 170.1562
837.8283, 172.4535
838.3104, 174.3113
838.7925, 175.8552
839.2747, 177.4778
839.7568, 178.8168
840.2389, 179.3478
840.7210, 178.5025
841.2031, 177.7405
841.6852, 177.1077
842.1674, 176.7908
842.6495, 177.1024
843.1316, 178.2678
843.6137, 178.9390
844.0958, 178.9703
844.5779, 178.9417
845.0601, 179.8023
845.5422, 181.0933
846.0243, 181.7511
846.5064, 181.4144
846.9885, 181.4537
847.4706, 182.9052
847.9528, 184.8994
848.4349, 186.6127
848.9170, 187.6614
849.3991, 189.5551
849.8812, 192.5419
850.3633, 195.7307
850.8455, 198.1033
851.3276, 199.9260
851.8097, 203.2302
852.2918, 208.1890
852.7739, 212.9103
853.2560, 215.7071
853.7382, 217.7476
854.2203, 220.1459
854.7024, 223.0670
855.1845, 226.0635
855.6666, 228.7877
856.1487, 231.8384
856.6309, 235.5671
857.1130, 239.8989
857.5951, 244.4754
858.0772, 249.3474
858.5593, 254.1030
859.0414, 258.3389
859.5236, 262.4224
860.0057, 267.0474
860.4878, 272.1010
860.9699, 276.7310
861.4520, 279.9279
861.9341, 283.2518
862.4163, 288.1285
862.8984, 294.1314
863.3805, 297.7310
863.8626, 298.3115
864.3447, 298.7495
864.8268, 300.3527
865.3090, 302.4569
865.7911, 303.4855
866.2732, 303.5170
866.7553, 302.8354
867.2374, 301.6062
867.7195, 299.6594
868.2017, 296.5809
868.6838, 292.6765
869.1659, 288.9529
869.6480, 286.0331
870.1301, 282.2794
870.6122, 277.1951
871.0944, 271.3662
871.5765, 266.3181
872.0586, 261.8559
872.5407, 256.2513
873.0228, 248.5717
873.5049, 240.6149
873.9871, 234.0215
874.4692, 228.2666
874.9513, 222.4982
875.4334, 216.0048
875.9155, 210.2134
876.3976, 205.3981
876.8798, 201.1193
877.3619, 196.7130
877.8440, 192.1421
878.3261, 188.4165
878.8082, 185.7292
879.2903, 183.3267
879.7725, 180.0510
880.2546, 176.6137
880.7367, 174.1531
881.2188, 173.0319
881.7009, 171.9992
882.1830, 170.0186
882.6652, 168.4532
883.1473, 168.2212
883.6294, 169.4404
884.1115, 171.3886
884.5936, 174.2353
885.0757, 177.0643
885.5579, 178.4891
886.0400, 179.6556
886.5221, 183.4791
887.0042, 189.8116
887.4863, 195.5164
887.9684, 197.4919
888.4506, 199.6537
888.9327, 204.4982
889.4148, 211.9047
889.8969, 219.0494
890.3790, 225.6544
890.8611, 232.6722
891.3433, 240.4810
891.8254, 249.0172
892.3075, 258.5371
892.7896, 268.9062
893.2717, 279.3368
893.7538, 289.3903
894.2360, 299.6011
894.7181, 309.7349
895.2002, 320.1459
895.6823, 331.7364
896.1644, 345.1349
896.6465, 358.2593
897.1287, 370.8170
897.6108, 382.7335
898.0929, 393.5142
898.5750, 403.3076
899.0571, 412.8302
899.5392, 422.5596
900.0214, 431.4799
900.5035, 438.0796
900.9856, 443.8443
901.4677, 450.6934
901.9498, 460.2667
902.4319, 468.4419
902.9141, 475.1432
903.3962, 480.5986
903.8783, 485.0011
904.3604, 488.3569
904.8425, 490.8135
905.3246, 492.3734
905.8068, 493.4871
906.2889, 494.7365
906.7710, 495.5817
907.2531, 495.4884
907.7352, 494.3697
908.2173, 492.7595
908.6995, 491.3205
909.1816, 488.6234
909.6637, 483.9755
910.1458, 477.5583
910.6279, 470.4890
911.1100, 462.7936
911.5922, 454.9934
912.0743, 447.2590
912.5564, 439.6093
913.0385, 432.4757
913.5206, 425.5518
914.0027, 417.5513
914.4849, 407.9512
914.9670, 397.3477
915.4491, 385.4896
915.9312, 373.0292
916.4133, 361.3765
916.8954, 350.4192
917.3776, 339.2902
917.8597, 327.6287
918.3418, 315.7711
918.8239, 304.1073
919.3060, 292.5558
919.7881, 280.9539
920.2703, 268.9379
920.7524, 257.3801
921.2345, 246.2680
921.7166, 235.6957
922.1987, 225.7310
922.6808, 216.3477
923.1630, 207.7963
923.6451, 200.0755
924.1272, 193.0867
924.6093, 186.6252
925.0914, 180.8668
925.5735, 176.1705
926.0557, 172.5763
926.5378, 169.2129
927.0199, 165.7825
927.5020, 162.7084
927.9841, 160.1154
928.4662, 157.9671
928.9484, 155.8410
929.4305, 153.7556
929.9126, 152.5874
930.3947, 153.1281
930.8768, 154.3982
931.3589, 155.5634
931.8411, 156.5709
932.3232, 157.3176
932.8053, 157.8262
933.2874, 157.9795
933.7695, 157.5647
934.2516, 157.0010
934.7338, 156.9742
935.2159, 157.4965
935.6980, 158.1302
936.1801, 158.7208
936.6622, 159.6022
937.1443, 162.0156
937.6265, 164.5668
938.1086, 165.1536
938.5907, 162.5873
939.0728, 161.3905
939.5549, 163.1287
940.0370, 165.4669
940.5192, 167.2411
941.0013, 168.3974
941.4834, 168.6683
941.9655, 168.1032
942.4476, 167.7574
942.9297, 168.6389
943.4119, 169.7986
943.8940, 170.4865
944.3761, 170.6804
944.8582, 170.3890
945.3403, 169.0150
945.8224, 167.9718
946.3046, 167.5731
946.7867, 167.6864
947.2688, 168.2341
947.7509, 169.1252
948.2330, 169.5355
948.7151, 169.0784
949.1973, 168.5210
949.6794, 168.9031
950.1615, 169.4438
950.6436, 169.1187
951.1257, 166.9004
951.6078, 165.5707
952.0900, 165.4383
952.5721, 165.7578
953.0542, 166.1829
953.5363, 166.5815
954.0184, 165.9616
954.5005, 164.3297
954.9827, 162.5476
955.4648, 161.1926
955.9469, 159.9262
956.4290, 159.0194
956.9111, 158.2341
957.3932, 155.2503
957.8754, 148.9612
958.3575, 142.8538
958.8396, 138.3254
959.3217, 134.3649
959.8038, 128.7559
960.2859, 121.7510
960.7681, 114.3432
961.2502, 107.0082
961.7323, 99.12689
962.2144, 89.77356
962.6965, 79.95599
963.1786, 71.04181
963.6608, 63.66559
964.1429, 55.61694
964.6250, 46.59985
965.1071, 37.98730
965.5892, 31.19965
966.0714, 25.92627
966.5535, 21.33807
967.0356, 17.40234
967.5177, 13.45044
967.9998, 8.538086
968.4819, 4.133179
968.9641, 1.270142
969.4462, 0.3269650
969.9283, 2.934692
970.4104, 6.788635
970.8925, 9.877258
971.3746, 11.16132
971.8568, 11.68842
972.3389, 13.17523
972.8210, 15.17828
973.3031, 16.77100
973.7852, 17.76202
974.2673, 18.12006
974.7495, 17.71851
975.2316, 16.83264
975.7137, 15.39703
976.1958, 13.33636
976.6779, 12.94867
977.1600, 14.52557
977.6422, 16.41888
978.1243, 17.50360
978.6064, 17.99011
979.0885, 18.05090
979.5706, 17.69623
980.0527, 17.08380
980.5349, 15.91254
981.0170, 14.99854
981.4991, 14.75385
981.9812, 14.92377
982.4633, 14.71704
982.9454, 14.13544
983.4276, 13.13190
983.9097, 11.37140
984.3918, 9.653809
984.8739, 8.692322
985.3560, 8.091797
985.8381, 7.207336
986.3203, 5.665649
986.8024, 4.600220
987.2845, 4.174438
987.7666, 3.895325
988.2487, 3.259338
988.7308, 2.360840
989.2130, 1.451721
989.6951, 0.5503540
990.1772, 0.3832400
990.6593, 1.326355
991.1414, 2.346680
991.6235, 3.570679
992.1057, 4.917236
992.5878, 5.806641
993.0699, 6.099670
993.5520, 6.998901
994.0341, 9.250549
994.5162, 11.77539
994.9984, 12.79077
995.4805, 12.98254
995.9626, 13.68475
996.4447, 16.04901
996.9268, 17.67120
997.4089, 17.47229
997.8911, 17.22748
998.3732, 18.99109
998.8553, 22.64972
999.3374, 24.30273
999.8195, 23.77576
1000.302, 23.11786
1000.784, 23.78918
1001.266, 25.05115
1001.748, 26.36694
1002.230, 27.70441
1002.712, 29.15552
1003.194, 30.88898
1003.676, 32.27692
1004.159, 32.98346
1004.641, 33.46967
1005.123, 34.77472
1005.605, 36.66235
1006.087, 38.46704
1006.569, 40.11383
1007.051, 41.37164
1007.533, 41.74133
1008.016, 41.97595
1008.498, 42.72186
1008.980, 44.02069
1009.462, 45.88348
1009.944, 48.46191
1010.426, 50.61237
1010.908, 50.92188
1011.390, 50.64606
1011.872, 51.50183
1012.355, 53.31128
1012.837, 55.10602
1013.319, 56.74219
1013.801, 58.10516
1014.283, 59.23492
1014.765, 60.01160
1015.247, 60.05731
1015.729, 59.47162
1016.211, 59.04785
1016.694, 58.92914
1017.176, 59.08240
1017.658, 59.68323
1018.140, 60.42279
1018.622, 61.06360
1019.104, 61.61359
1019.586, 61.89233
1020.068, 61.85254
1020.551, 61.73047
1021.033, 61.54700
1021.515, 61.44006
1021.997, 61.69122
1022.479, 62.27893
1022.961, 63.15063
1023.443, 64.69110
1023.925, 66.00415
1024.407, 66.96246
1024.890, 67.46582
1025.372, 67.07214
1025.854, 65.73206
1026.336, 65.53461
1026.818, 66.77484
1027.300, 67.99957
1027.782, 67.58002
1028.264, 66.64569
1028.746, 66.45752
1029.229, 67.17285
1029.711, 67.33167
1030.193, 66.40533
1030.675, 65.66699
1031.157, 65.63074
1031.639, 66.02112
1032.121, 66.58209
1032.603, 67.08234
1033.086, 66.52838
1033.568, 63.90601
1034.050, 61.86920
1034.532, 62.42230
1035.014, 63.21503
1035.496, 62.06689
1035.978, 58.62140
1036.460, 56.41699
1036.943, 55.57477
1037.425, 54.90961
1037.907, 53.69379
1038.389, 52.15826
1038.871, 50.07440
1039.353, 47.71436
1039.835, 46.36383
1040.317, 47.38812
1040.799, 47.56805
1041.281, 46.20624
1041.764, 44.24670
1042.246, 43.10248
1042.728, 42.50897
1043.210, 41.76379
1043.692, 40.75226
1044.174, 39.75989
1044.656, 38.68475
1045.138, 37.80634
1045.621, 37.54242
1046.103, 37.81396
1046.585, 36.98663
1047.067, 34.97015
1047.549, 33.13776
1048.031, 32.11670
1048.513, 31.59479
1048.995, 31.51776
1049.478, 31.62189
1049.960, 31.44690
1050.442, 30.69208
1050.924, 29.78406
1051.406, 28.60583
1051.888, 27.62976
1052.370, 27.43121
1052.852, 27.68005
1053.334, 27.19855
1053.817, 26.07245
1054.299, 25.43323
1054.781, 26.27692
1055.263, 27.24091
1055.745, 27.83337
1056.227, 28.11841
1056.709, 28.01105
1057.191, 27.42230
1057.673, 27.28015
1058.156, 27.88544
1058.638, 28.51959
1059.120, 28.30249
1059.602, 27.77881
1060.084, 27.49634
1060.566, 27.53406
1061.048, 27.94476
1061.530, 28.93341
1062.013, 29.76190
1062.495, 30.06152
1062.977, 29.97925
1063.459, 29.47803
1063.941, 28.89850
1064.423, 29.25610
1064.905, 32.33948
1065.387, 34.44128
1065.870, 33.36456
1066.352, 31.60730
1066.834, 31.40118
1067.316, 32.74176
1067.798, 34.11597
1068.280, 35.49213
1068.762, 36.43555
1069.244, 36.00269
1069.726, 35.59454
1070.208, 36.77032
1070.691, 38.97528
1071.173, 39.71405
1071.655, 38.24146
1072.137, 37.67151
1072.619, 38.76349
1073.101, 40.37616
1073.583, 41.01758
1074.065, 41.11682
1074.548, 41.42175
1075.030, 42.10339
1075.512, 42.46667
1075.994, 41.78912
1076.476, 41.50250
1076.958, 42.46594
1077.440, 44.15399
1077.922, 44.50140
1078.405, 43.69379
1078.887, 42.62927
1079.369, 41.21423
1079.851, 40.44727
1080.333, 41.67975
1080.815, 43.35620
1081.297, 43.67499
1081.779, 42.29083
1082.261, 41.45343
1082.744, 41.16284
1083.226, 41.39514
1083.708, 42.52368
1084.190, 43.80939
1084.672, 44.24304
1085.154, 44.26373
1085.636, 45.20941
1086.118, 48.53729
1086.601, 49.78290
1087.083, 47.77063
1087.565, 44.89050
1088.047, 44.54547
1088.529, 45.62250
1089.011, 45.59033
1089.493, 44.13452
1089.975, 42.76740
1090.458, 42.11523
1090.940, 41.76184
1091.422, 41.77808
1091.904, 41.82098
1092.386, 40.43304
1092.868, 37.93475
1093.350, 36.40765
1093.832, 36.63373
1094.314, 37.29791
1094.797, 37.95044
1095.279, 38.31805
1095.761, 38.05621
1096.243, 37.13977
1096.725, 36.51270
1097.207, 36.24066
1097.689, 35.56293
1098.171, 33.67871
1098.653, 31.56097
1099.136, 30.42041
1099.618, 29.84448
1100.100, 28.97638
1100.582, 27.14044
1101.064, 25.96936
1101.546, 25.57385
1102.028, 25.64771
1102.510, 25.91614
1102.993, 26.43237
1103.475, 27.35754
1103.957, 28.66315
1104.439, 30.14349
1104.921, 32.35541
1105.403, 33.75519
1105.885, 33.28760
1106.367, 32.56561
1106.849, 34.79291
1107.332, 39.40002
1107.814, 43.38330
1108.296, 46.30920
1108.778, 48.89893
1109.260, 51.81573
1109.742, 54.38544
1110.224, 55.97479
1110.706, 56.88208
1111.188, 58.66376
1111.671, 61.36108
1112.153, 63.36444
1112.635, 64.33972
1113.117, 63.98193
1113.599, 61.33777
1114.081, 57.54102
1114.563, 54.01031
1115.045, 51.06909
1115.528, 47.28278
1116.010, 42.40125
1116.492, 37.59198
1116.974, 33.49042
1117.456, 29.86823
1117.938, 26.45367
1118.420, 23.23535
1118.902, 20.18011
1119.385, 17.00006
1119.867, 14.55579
1120.349, 13.25342
1120.831, 11.97113
1121.313, 9.396179
1121.795, 6.109192
1122.277, 3.680115
1122.759, 2.102417
1123.241, 1.009888
1123.724, 0.1525270
1124.206, 7.0373997E-02
1124.688, 0.8953860
1125.170, 2.061462
1125.652, 1.622925
1126.134, 0.1415410
1126.616, 1.316162
1127.098, 1.672119
1127.580, 1.449219
1128.063, 0.4030150
1128.545, 0.8057250
1129.027, 1.782898
1129.509, 2.578796
1129.991, 3.411194
1130.473, 4.296082
1130.955, 4.728210
1131.437, 4.536499
1131.920, 4.049622
1132.402, 3.461365
1132.884, 2.812317
1133.366, 2.080933
1133.848, 1.257263
1134.330, 0.5257570
1134.812, 0.2774660
1135.294, 3.5216998E-02
1135.776, 2.702515
1136.259, 5.565186
1136.741, 5.523315
1137.223, 3.784180
1137.705, 2.193665
1138.187, 1.105469
1138.669, 0.3615110
1139.151, 3.4545999E-02
1139.633, 0.1705930
1140.115, 0.4688720
1140.598, 0.7738040
1141.080, 0.7010500
1141.562, 0.4816280
1142.044, 0.7606810
1142.526, 2.411194
1143.008, 3.668884
1143.490, 4.398499
1143.972, 4.576660
1144.455, 3.887512
1144.937, 2.645325
1145.419, 1.974304
1145.901, 1.850159
1146.383, 1.668762
1146.865, 0.8190920
1147.347, 0.1528930
1147.829, 0.1737670
1148.312, 0.2496950
1148.794, 1.032043
1149.276, 3.333984
1149.758, 3.812927
1150.240, 2.104553
1150.722, 1.037109
1151.204, 3.377319
1151.686, 5.898804
1152.168, 6.760437
1152.651, 6.444458
1153.133, 6.228943
1153.615, 6.113892
1154.097, 6.149414
1154.579, 6.346924
1155.061, 6.686462
1155.543, 7.131958
1156.025, 7.724609
1156.507, 8.710022
1156.990, 9.987427
1157.472, 10.46198
1157.954, 10.10089
1158.436, 9.378479
1158.918, 8.172119
1159.400, 7.375854
1159.882, 8.763000
1160.364, 10.57581
1160.847, 10.41357
1161.329, 7.585938
1161.811, 6.618408
1162.293, 7.907776
1162.775, 8.560486
1163.257, 6.496216
1163.739, 3.742798
1164.221, 2.902466
1164.703, 3.125732
1165.186, 2.977417
1165.668, 1.853577
1166.150, 1.203186
1166.632, 1.175415
1167.114, 1.074768
1167.596, 0.1152950
1168.078, 1.382935
1168.560, 0.6519780
1169.042, 1.364136
1169.525, 2.745361
1170.007, 2.611145
1170.489, 2.394836
1170.971, 2.119019
1171.453, 1.895020
1171.935, 1.789673
1172.417, 1.832092
1172.899, 1.940735
1173.382, 2.210083
1173.864, 3.068481
1174.346, 5.110657
1174.828, 7.184692
1175.310, 9.238098
1175.792, 11.10229
1176.274, 12.51868
1176.756, 13.60822
1177.239, 14.51935
1177.721, 15.31738
1178.203, 16.78027
1178.685, 19.93561
1179.167, 22.82312
1179.649, 24.89813
1180.131, 26.57019
1180.613, 28.68457
1181.095, 31.00580
1181.578, 32.60474
1182.060, 33.30615
1182.542, 34.70782
1183.024, 38.74188
1183.506, 42.10144
1183.988, 43.54846
1184.470, 43.56732
1184.952, 43.04059
1185.434, 42.29993
1185.917, 42.71936
1186.399, 44.92828
1186.881, 46.26935
1187.363, 44.85858
1187.845, 42.86469
1188.327, 41.32526
1188.809, 40.05176
1189.291, 38.30597
1189.774, 36.15204
1190.256, 33.90051
1190.738, 31.67291
1191.220, 29.25439
1191.702, 26.23273
1192.184, 23.24365
1192.666, 20.69690
1193.148, 18.55109
1193.630, 16.48944
1194.113, 14.47064
1194.595, 12.21735
1195.077, 9.180542
1195.559, 6.738037
1196.041, 5.909424
1196.523, 5.757324
1197.005, 5.742310
1197.487, 5.821838
1197.969, 5.045776
1198.452, 3.528259
1198.934, 2.122131
1199.416, 1.050781
1199.898, 0.4746700
1200.380, 0.8547360
1200.862, 1.388977
1201.344, 1.302368
1201.826, 0.6337280
1202.309, 0.2238770
1202.791, 1.173828
1203.273, 1.581970
1203.755, 0.4038700
1204.237, 0.5972900
1204.719, 0.1893310
1205.201, 0.6556400
1205.683, 0.7800290
1206.166, 0.2025150
1206.648, 0.3131710
1207.130, 0.7377930
1207.612, 1.370850
1208.094, 2.495239
1208.576, 3.756348
1209.058, 5.140137
1209.540, 6.456726
1210.022, 7.348450
1210.505, 7.839844
1210.987, 8.496155
1211.469, 9.370361
1211.951, 10.48248
1212.433, 12.13232
1212.915, 13.75800
1213.397, 15.01392
1213.879, 16.05988
1214.361, 17.06616
1214.844, 18.04169
1215.326, 19.12726
1215.808, 20.33411
1216.290, 21.54224
1216.772, 22.56427
1217.254, 23.69666
1217.736, 25.00073
1218.218, 26.53113
1218.701, 28.86774
1219.183, 31.82867
1219.665, 33.09747
1220.147, 32.27301
1220.629, 31.93188
1221.111, 34.18652
1221.593, 36.65387
1222.075, 37.91766
1222.557, 38.50452
1223.040, 39.86853
1223.522, 41.90033
1224.004, 43.76257
1224.486, 45.36871
1224.968, 46.32404
1225.450, 45.86859
1225.932, 45.13812
1226.414, 44.73419
1226.896, 44.68579
1227.379, 45.29999
1227.861, 46.36511
1228.343, 46.72235
1228.825, 46.04205
1229.307, 45.16803
1229.789, 44.01904
1230.271, 43.45013
1230.753, 44.14435
1231.236, 45.53448
1231.718, 45.81525
1232.200, 45.11603
1232.682, 43.85168
1233.164, 42.03052
1233.646, 40.10254
1234.128, 37.86926
1234.610, 36.09302
1235.093, 35.18042
1235.575, 34.96655
1236.057, 35.26019
1236.539, 35.82239
1237.021, 35.74567
1237.503, 34.55682
1237.985, 33.57947
1238.467, 33.50146
1238.949, 33.51660
1239.432, 33.27307
1239.914, 32.86725
1240.396, 32.50787
1240.878, 32.23651
1241.360, 32.13910
1241.842, 32.13263
1242.324, 32.70978
1242.806, 34.54712
1243.288, 36.00006
1243.771, 36.02740
1244.253, 35.38171
1244.735, 36.38629
1245.217, 38.38501
1245.699, 39.79236
1246.181, 39.89795
1246.663, 40.15717
1247.145, 40.72089
1247.628, 41.50806
1248.110, 42.49249
1248.592, 43.65405
1249.074, 45.46039
1249.556, 47.24994
1250.038, 47.67938
1250.520, 45.73138
1251.002, 43.97485
1251.484, 42.31091
1251.967, 41.46283
1252.449, 42.42053
1252.931, 44.05347
1253.413, 44.35364
1253.895, 43.82990
1254.377, 43.11780
1254.859, 42.02466
1255.341, 41.88733
1255.823, 42.95911
1256.306, 43.66089
1256.788, 42.70056
1257.270, 41.30627
1257.752, 41.26459
1258.234, 41.69708
1258.716, 41.03503
1259.198, 38.67236
1259.680, 37.63568
1260.163, 38.12939
1260.645, 37.98505
1261.127, 35.40955
1261.609, 32.35114
1262.091, 30.72363
1262.573, 29.63159
1263.055, 27.70850
1263.537, 24.68744
1264.020, 22.71832
1264.502, 21.77350
1264.984, 20.92834
1265.466, 19.76044
1265.948, 18.37634
1266.430, 16.16449
1266.912, 14.26471
1267.394, 14.24493
1267.876, 16.14655
1268.359, 16.22595
1268.841, 14.63403
1269.323, 12.72095
1269.805, 11.01709
1270.287, 9.437866
1270.769, 7.870056
1271.251, 6.510132
1271.733, 5.431946
1272.215, 4.673462
1272.698, 4.989685
1273.180, 6.021606
1273.662, 6.068176
1274.144, 3.017639
1274.626, 0.8378910
1275.108, 0.4972530
1275.590, 0.9495850
1276.072, 1.894897
1276.555, 2.886780
1277.037, 1.937866
1277.519, 0.3093870
1278.001, 1.967285
1278.483, 2.280090
1278.965, 1.869263
1279.447, 0.5529790
1279.929, 0.8054200
1280.411, 1.631592
1280.894, 1.984253
1281.376, 1.560730
1281.858, 0.8277590
1282.340, 0.8855590
1282.822, 2.797546
1283.304, 3.658264
1283.786, 3.249207
1284.268, 2.889832
1284.750, 3.512695
1285.233, 4.658020
1285.715, 6.019653
1286.197, 7.424255
1286.679, 8.537903
1287.161, 9.271301
1287.643, 10.09314
1288.125, 10.81860
1288.607, 11.53864
1289.090, 12.26611
1289.572, 11.50488
1290.054, 9.064270
1290.536, 7.736084
1291.018, 7.914185
1291.500, 9.020203
1291.982, 9.122986
1292.464, 8.457275
1292.947, 7.557434
1293.429, 6.908936
1293.911, 6.368774
1294.393, 5.899963
1294.875, 5.392639
1295.357, 4.693726
1295.839, 4.103699
1296.321, 4.178894
1296.803, 4.763306
1297.286, 5.217468
1297.768, 5.658630
1298.250, 5.276367
1298.732, 3.667053
1299.214, 1.939941
1299.696, 0.6675420
1300.178, 3.3020001E-02
1300.660, 0.0000000E+00
##END=



