##NAMES=Lindgrenite
##RRUFFID=R050213
##IDEAL CHEMISTRY=Cu^2+^_3_(Mo^6+^O_4_)_2_(OH)_2_
##LOCALITY=Chuquicamata mine, Calama, Antofagasta Province, Chile
##OWNER=RRUFF
##SOURCE=John Dagenais
##DESCRIPTION=Green tabular single crystals
##STATUS=The identification of this mineral is confirmed by single-crystal X-ray diffraction and chemical analysis.
##URL=rruff.info/R050213
##MEASURED CHEMISTRY=(Cu_2.99_Fe_0.01_)_Î£=3.00_(Mo^6+^_1.00_O_4_)_2_(OH)_2.00_ ; OH not measured but estimated by difference and charge balance
93.74609, 36.67332
94.22821, 35.44865
94.71033, 35.80748
95.19244, 37.59689
95.67456, 40.20023
96.15668, 43.85072
96.63879, 48.18555
97.12091, 51.76526
97.60303, 54.37898
98.08514, 56.84526
98.56726, 60.28882
99.04938, 64.73029
99.53149, 69.93984
100.0136, 75.87737
100.4957, 82.52351
100.9778, 89.42430
101.4600, 96.31763
101.9421, 103.5648
102.4242, 111.9108
102.9063, 121.3856
103.3884, 132.0393
103.8705, 143.7160
104.3527, 156.4403
104.8348, 170.5991
105.3169, 186.7625
105.7990, 204.6350
106.2811, 222.8376
106.7632, 242.1774
107.2454, 260.9045
107.7275, 277.5860
108.2096, 295.4237
108.6917, 306.9901
109.1738, 310.5467
109.6559, 305.3120
110.1381, 297.2811
110.6202, 283.4376
111.1023, 267.8445
111.5844, 254.7471
112.0665, 244.7635
112.5486, 236.6174
113.0308, 229.8482
113.5129, 224.1174
113.9950, 220.5706
114.4771, 219.9648
114.9592, 221.5334
115.4413, 224.1183
115.9235, 228.3250
116.4056, 232.8631
116.8877, 236.7898
117.3698, 238.9634
117.8519, 242.8242
118.3340, 250.8158
118.8162, 261.5362
119.2983, 271.5009
119.7804, 279.2823
120.2625, 285.8494
120.7446, 291.7700
121.2267, 296.5522
121.7089, 301.6924
122.1910, 307.7568
122.6731, 314.8311
123.1552, 323.2970
123.6373, 333.1676
124.1194, 344.5712
124.6016, 357.9395
125.0837, 373.7882
125.5658, 391.0463
126.0479, 409.6244
126.5300, 429.3629
127.0121, 447.5801
127.4943, 463.4992
127.9764, 476.2387
128.4585, 484.1926
128.9406, 486.3355
129.4227, 483.3570
129.9048, 475.3546
130.3869, 462.0233
130.8691, 446.6872
131.3512, 432.3657
131.8333, 419.0191
132.3154, 406.3575
132.7975, 393.8787
133.2796, 381.8646
133.7618, 372.0370
134.2439, 363.5587
134.7260, 355.5916
135.2081, 349.6497
135.6902, 346.5290
136.1723, 345.0293
136.6545, 344.7992
137.1366, 345.8200
137.6187, 347.2480
138.1008, 348.7881
138.5829, 351.0291
139.0650, 355.3444
139.5472, 361.9368
140.0293, 369.7259
140.5114, 378.1292
140.9935, 387.0861
141.4756, 397.2735
141.9577, 409.0361
142.4399, 422.1074
142.9220, 435.3751
143.4041, 449.2603
143.8862, 462.8144
144.3683, 475.2801
144.8504, 485.1222
145.3326, 497.4843
145.8147, 513.9399
146.2968, 533.8800
146.7789, 550.2926
147.2610, 563.1177
147.7431, 572.7531
148.2253, 579.2858
148.7074, 578.7260
149.1895, 580.7231
149.6716, 585.7695
150.1537, 593.7285
150.6358, 606.5219
151.1180, 625.5757
151.6001, 648.5573
152.0822, 673.2863
152.5643, 698.5632
153.0464, 726.7649
153.5285, 758.0190
154.0107, 791.9667
154.4928, 829.3836
154.9749, 871.7897
155.4570, 917.3489
155.9391, 964.1962
156.4212, 1013.547
156.9034, 1063.439
157.3855, 1113.453
157.8676, 1162.918
158.3497, 1213.237
158.8318, 1267.221
159.3139, 1321.874
159.7961, 1373.690
160.2782, 1424.328
160.7603, 1469.945
161.2424, 1509.770
161.7245, 1544.596
162.2066, 1570.312
162.6888, 1584.075
163.1709, 1588.060
163.6530, 1585.785
164.1351, 1572.605
164.6172, 1557.653
165.0993, 1545.015
165.5815, 1533.690
166.0636, 1529.430
166.5457, 1534.736
167.0278, 1548.979
167.5099, 1570.899
167.9920, 1597.743
168.4742, 1633.144
168.9563, 1680.149
169.4384, 1740.205
169.9205, 1810.323
170.4026, 1890.424
170.8847, 1979.383
171.3669, 2073.364
171.8490, 2176.966
172.3311, 2281.809
172.8132, 2381.797
173.2953, 2483.176
173.7774, 2566.340
174.2596, 2619.845
174.7417, 2642.944
175.2238, 2630.523
175.7059, 2573.203
176.1880, 2480.185
176.6701, 2361.891
177.1523, 2212.214
177.6344, 2049.597
178.1165, 1887.822
178.5986, 1727.155
179.0807, 1579.154
179.5628, 1450.368
180.0450, 1338.198
180.5271, 1239.684
181.0092, 1154.301
181.4913, 1080.211
181.9734, 1017.128
182.4555, 964.7332
182.9377, 919.3474
183.4198, 877.4840
183.9019, 839.7723
184.3840, 809.0669
184.8661, 786.9042
185.3482, 771.0811
185.8304, 757.2430
186.3125, 745.4537
186.7946, 736.1729
187.2767, 729.5463
187.7588, 725.6273
188.2409, 725.1851
188.7231, 729.3715
189.2052, 736.6573
189.6873, 742.8654
190.1694, 747.8890
190.6515, 753.7517
191.1336, 762.2531
191.6158, 773.3050
192.0979, 786.5387
192.5800, 804.0328
193.0621, 823.2845
193.5442, 835.1262
194.0263, 839.0906
194.5085, 839.1654
194.9906, 839.1398
195.4727, 838.9974
195.9548, 837.5620
196.4369, 833.8641
196.9190, 828.5770
197.4012, 824.6810
197.8833, 821.9969
198.3654, 821.4139
198.8475, 824.5856
199.3296, 831.6813
199.8117, 838.9529
200.2939, 844.3865
200.7760, 848.7220
201.2581, 858.5448
201.7402, 874.7667
202.2223, 893.8838
202.7044, 911.7504
203.1866, 927.7891
203.6687, 945.8776
204.1508, 967.9857
204.6329, 993.7117
205.1150, 1017.082
205.5971, 1038.231
206.0793, 1056.760
206.5614, 1072.545
207.0435, 1085.698
207.5256, 1094.763
208.0077, 1098.667
208.4898, 1097.493
208.9720, 1095.234
209.4541, 1091.181
209.9362, 1087.248
210.4183, 1085.080
210.9004, 1084.028
211.3825, 1087.221
211.8647, 1096.060
212.3468, 1110.611
212.8289, 1126.211
213.3110, 1142.638
213.7931, 1160.520
214.2752, 1181.801
214.7574, 1209.766
215.2395, 1232.097
215.7216, 1246.156
216.2037, 1251.830
216.6858, 1250.635
217.1679, 1243.294
217.6500, 1228.126
218.1322, 1202.520
218.6143, 1163.725
219.0964, 1120.713
219.5785, 1075.962
220.0606, 1029.032
220.5427, 980.6038
221.0249, 929.3031
221.5070, 878.5360
221.9891, 833.1039
222.4712, 793.5599
222.9533, 757.1271
223.4354, 724.0797
223.9176, 694.0497
224.3997, 666.1017
224.8818, 639.8226
225.3639, 615.8068
225.8460, 594.4740
226.3281, 576.8531
226.8103, 560.0504
227.2924, 543.5250
227.7745, 526.9563
228.2566, 512.7620
228.7387, 501.4794
229.2208, 491.9919
229.7030, 483.3378
230.1851, 475.3752
230.6672, 468.3405
231.1493, 462.2616
231.6314, 457.1352
232.1135, 452.9796
232.5957, 449.8167
233.0778, 447.5925
233.5599, 446.3572
234.0420, 446.3985
234.5241, 446.8524
235.0062, 447.5083
235.4884, 448.3572
235.9705, 449.8708
236.4526, 452.0483
236.9347, 454.9140
237.4168, 458.5579
237.8989, 463.2659
238.3811, 468.1756
238.8632, 473.1606
239.3453, 478.2382
239.8274, 483.2217
240.3095, 487.8661
240.7916, 492.7234
241.2738, 498.1754
241.7559, 503.9124
242.2380, 510.8858
242.7201, 519.7036
243.2022, 530.2489
243.6843, 539.4918
244.1665, 546.2191
244.6486, 553.1716
245.1307, 562.4816
245.6128, 574.7734
246.0949, 588.0999
246.5770, 601.6947
247.0592, 615.8541
247.5413, 633.8416
248.0234, 657.4805
248.5055, 682.4641
248.9876, 705.4896
249.4697, 725.9690
249.9519, 746.1766
250.4340, 766.8040
250.9161, 787.4538
251.3982, 805.9376
251.8803, 822.3488
252.3624, 836.2010
252.8446, 847.0316
253.3267, 854.9235
253.8088, 859.9359
254.2909, 862.9922
254.7730, 863.1592
255.2551, 856.1182
255.7373, 839.5992
256.2194, 819.6572
256.7015, 799.6808
257.1836, 779.7933
257.6657, 759.1695
258.1478, 737.1723
258.6299, 714.6416
259.1121, 693.4454
259.5942, 673.5067
260.0763, 654.9276
260.5584, 637.0900
261.0405, 619.4333
261.5226, 604.9370
262.0048, 594.3969
262.4869, 586.6908
262.9690, 578.6623
263.4511, 569.4667
263.9332, 561.8887
264.4153, 557.3884
264.8975, 556.6307
265.3796, 556.0981
265.8617, 555.4777
266.3438, 555.3401
266.8259, 557.0287
267.3080, 561.2242
267.7902, 565.3732
268.2723, 568.0509
268.7544, 568.8423
269.2365, 571.5666
269.7186, 576.6603
270.2007, 583.1196
270.6829, 589.4196
271.1650, 595.5057
271.6471, 601.5741
272.1292, 607.3705
272.6113, 612.8594
273.0934, 619.4874
273.5756, 627.3593
274.0577, 636.0777
274.5398, 645.3287
275.0219, 655.0924
275.5040, 665.1871
275.9861, 675.1791
276.4683, 685.2335
276.9504, 697.5304
277.4325, 712.1264
277.9146, 728.8053
278.3967, 747.6985
278.8788, 768.8817
279.3610, 790.5299
279.8431, 811.1462
280.3252, 831.6405
280.8073, 858.2829
281.2894, 891.7601
281.7715, 928.5350
282.2537, 964.7767
282.7358, 1000.376
283.2179, 1040.710
283.7000, 1087.366
284.1821, 1139.316
284.6642, 1192.827
285.1464, 1248.223
285.6285, 1304.445
286.1106, 1361.380
286.5927, 1418.870
287.0748, 1475.646
287.5569, 1533.312
288.0391, 1588.036
288.5212, 1630.604
289.0033, 1661.220
289.4854, 1683.588
289.9675, 1698.819
290.4496, 1707.434
290.9318, 1711.428
291.4139, 1710.167
291.8960, 1706.540
292.3781, 1704.373
292.8602, 1703.698
293.3423, 1705.055
293.8245, 1707.202
294.3066, 1711.450
294.7887, 1721.952
295.2708, 1738.833
295.7529, 1761.861
296.2350, 1791.419
296.7172, 1827.101
297.1993, 1867.270
297.6814, 1908.955
298.1635, 1955.426
298.6456, 2012.831
299.1277, 2081.545
299.6099, 2160.312
300.0920, 2248.196
300.5741, 2344.554
301.0562, 2444.240
301.5383, 2548.883
302.0204, 2655.201
302.5026, 2759.559
302.9847, 2862.564
303.4668, 2956.783
303.9489, 3046.241
304.4310, 3121.808
304.9131, 3171.197
305.3953, 3190.595
305.8774, 3181.370
306.3595, 3137.824
306.8416, 3063.695
307.3237, 2976.500
307.8058, 2878.642
308.2880, 2778.367
308.7701, 2685.167
309.2522, 2598.206
309.7343, 2522.414
310.2164, 2462.490
310.6985, 2416.496
311.1807, 2380.701
311.6628, 2358.757
312.1449, 2342.712
312.6270, 2327.508
313.1091, 2313.687
313.5912, 2295.613
314.0734, 2269.007
314.5555, 2235.763
315.0376, 2199.200
315.5197, 2163.109
316.0018, 2122.086
316.4839, 2072.931
316.9661, 2014.610
317.4482, 1952.539
317.9303, 1884.467
318.4124, 1815.678
318.8945, 1751.480
319.3766, 1693.294
319.8588, 1640.843
320.3409, 1594.583
320.8230, 1554.291
321.3051, 1519.966
321.7872, 1491.387
322.2693, 1468.917
322.7515, 1452.842
323.2336, 1445.682
323.7157, 1442.295
324.1978, 1441.877
324.6799, 1444.432
325.1620, 1449.995
325.6442, 1457.302
326.1263, 1468.488
326.6084, 1484.702
327.0905, 1508.072
327.5726, 1533.617
328.0547, 1560.366
328.5369, 1588.907
329.0190, 1621.659
329.5011, 1660.428
329.9832, 1701.278
330.4653, 1742.549
330.9474, 1782.624
331.4296, 1827.420
331.9117, 1879.092
332.3938, 1934.690
332.8759, 1990.132
333.3580, 2045.404
333.8401, 2101.452
334.3223, 2158.175
334.8044, 2215.945
335.2865, 2273.575
335.7686, 2330.851
336.2507, 2387.678
336.7328, 2444.531
337.2150, 2506.078
337.6971, 2556.097
338.1792, 2590.591
338.6613, 2611.111
339.1434, 2629.422
339.6255, 2646.466
340.1077, 2659.083
340.5898, 2665.785
341.0719, 2666.701
341.5540, 2659.369
342.0361, 2642.279
342.5182, 2618.204
343.0003, 2592.818
343.4825, 2566.153
343.9646, 2539.433
344.4467, 2512.970
344.9288, 2487.185
345.4109, 2463.897
345.8930, 2444.161
346.3752, 2424.516
346.8573, 2400.450
347.3394, 2371.986
347.8215, 2341.905
348.3036, 2310.506
348.7857, 2278.434
349.2679, 2247.326
349.7500, 2217.313
350.2321, 2188.338
350.7142, 2159.815
351.1963, 2132.611
351.6784, 2108.744
352.1606, 2089.119
352.6427, 2073.108
353.1248, 2060.207
353.6069, 2050.090
354.0890, 2041.454
354.5711, 2031.174
355.0533, 2022.474
355.5354, 2020.487
356.0175, 2027.595
356.4996, 2037.993
356.9817, 2047.973
357.4638, 2057.500
357.9460, 2066.473
358.4281, 2076.722
358.9102, 2085.245
359.3923, 2089.416
359.8744, 2088.862
360.3565, 2085.250
360.8387, 2081.765
361.3208, 2075.116
361.8029, 2061.210
362.2850, 2038.163
362.7671, 2007.916
363.2492, 1970.383
363.7314, 1925.795
364.2135, 1876.554
364.6956, 1822.329
365.1777, 1764.909
365.6598, 1705.609
366.1419, 1642.288
366.6241, 1579.815
367.1062, 1518.162
367.5883, 1458.108
368.0704, 1402.745
368.5525, 1354.531
369.0346, 1309.369
369.5168, 1265.304
369.9989, 1221.342
370.4810, 1180.358
370.9631, 1141.448
371.4452, 1105.628
371.9273, 1074.318
372.4095, 1049.649
372.8916, 1026.784
373.3737, 1004.358
373.8558, 982.2197
374.3379, 962.9294
374.8200, 946.9868
375.3022, 932.9424
375.7843, 919.7875
376.2664, 907.3035
376.7485, 896.1302
377.2306, 886.7637
377.7127, 878.5891
378.1949, 869.1431
378.6770, 857.8032
379.1591, 848.0309
379.6412, 842.0302
380.1233, 839.7650
380.6054, 839.0717
381.0876, 839.8517
381.5697, 842.1693
382.0518, 846.4351
382.5339, 852.5438
383.0160, 859.4532
383.4981, 865.9918
383.9803, 873.1094
384.4624, 884.0508
384.9445, 898.9113
385.4266, 914.6432
385.9087, 928.6016
386.3908, 941.4155
386.8730, 954.7847
387.3551, 969.3182
387.8372, 984.5917
388.3193, 999.1331
388.8014, 1013.658
389.2835, 1031.085
389.7657, 1053.927
390.2478, 1080.298
390.7299, 1108.092
391.2120, 1137.031
391.6941, 1166.958
392.1762, 1198.793
392.6584, 1230.980
393.1405, 1261.602
393.6226, 1286.638
394.1047, 1312.614
394.5868, 1343.285
395.0689, 1378.624
395.5511, 1414.287
396.0332, 1451.098
396.5153, 1486.263
396.9974, 1517.636
397.4795, 1541.825
397.9616, 1565.641
398.4438, 1592.042
398.9259, 1619.244
399.4080, 1641.652
399.8901, 1658.709
400.3722, 1670.880
400.8543, 1678.220
401.3365, 1680.540
401.8186, 1678.900
402.3007, 1674.214
402.7828, 1665.005
403.2649, 1648.834
403.7470, 1621.916
404.2292, 1595.240
404.7113, 1572.348
405.1934, 1552.446
405.6755, 1526.412
406.1576, 1492.275
406.6397, 1457.041
407.1219, 1426.163
407.6040, 1400.238
408.0861, 1373.719
408.5682, 1345.831
409.0503, 1317.428
409.5324, 1288.999
410.0146, 1260.553
410.4967, 1231.906
410.9788, 1202.344
411.4609, 1172.521
411.9430, 1144.394
412.4251, 1117.890
412.9073, 1091.841
413.3894, 1065.097
413.8715, 1037.209
414.3536, 1007.370
414.8357, 974.4452
415.3178, 939.9793
415.8000, 905.5782
416.2821, 871.2205
416.7642, 838.3234
417.2463, 809.1636
417.7284, 781.0956
418.2105, 751.4489
418.6927, 718.9301
419.1748, 687.5162
419.6569, 659.1538
420.1390, 633.0717
420.6211, 608.8599
421.1032, 586.3412
421.5854, 565.0154
422.0675, 544.6760
422.5496, 525.1532
423.0317, 506.9033
423.5138, 490.1810
423.9959, 474.5256
424.4781, 459.3346
424.9602, 444.2343
425.4423, 430.4505
425.9244, 418.5183
426.4065, 407.8547
426.8886, 397.1042
427.3708, 385.4125
427.8529, 374.5357
428.3350, 365.0654
428.8171, 357.1386
429.2992, 349.7318
429.7813, 343.1156
430.2635, 336.6909
430.7456, 329.5996
431.2277, 321.5256
431.7098, 314.2811
432.1919, 308.2412
432.6740, 303.1917
433.1562, 298.5033
433.6383, 294.1718
434.1204, 290.2059
434.6025, 286.7966
435.0846, 283.8253
435.5667, 280.5737
436.0489, 276.9445
436.5310, 273.1734
437.0131, 269.8343
437.4952, 266.6703
437.9773, 262.7724
438.4594, 256.9218
438.9416, 250.8614
439.4236, 247.3502
439.9058, 246.0488
440.3879, 244.6938
440.8700, 241.3051
441.3521, 237.2973
441.8342, 234.2079
442.3163, 232.4944
442.7985, 231.1701
443.2806, 230.0983
443.7627, 228.9689
444.2448, 227.2612
444.7269, 223.5917
445.2090, 220.4399
445.6912, 219.2359
446.1733, 220.0157
446.6554, 220.0643
447.1375, 218.0348
447.6196, 215.6453
448.1017, 213.9673
448.5839, 213.5474
449.0660, 213.2337
449.5481, 213.2178
450.0302, 213.2657
450.5123, 212.8727
450.9944, 211.9689
451.4766, 210.7519
451.9587, 209.1696
452.4408, 207.1788
452.9229, 205.5074
453.4050, 204.0809
453.8871, 203.0844
454.3693, 202.9221
454.8514, 203.6556
455.3335, 203.8081
455.8156, 202.9875
456.2977, 201.7043
456.7798, 200.9911
457.2620, 200.8086
457.7441, 200.7206
458.2262, 200.3578
458.7083, 199.9444
459.1904, 200.0341
459.6725, 200.6601
460.1547, 201.4165
460.6368, 201.9926
461.1189, 202.4548
461.6010, 202.8470
462.0831, 202.8532
462.5652, 203.2600
463.0474, 205.1791
463.5295, 208.0438
464.0116, 210.2133
464.4937, 210.2851
464.9758, 209.9447
465.4579, 210.0960
465.9401, 210.8804
466.4222, 211.8630
466.9043, 213.1373
467.3864, 214.4612
467.8685, 215.6064
468.3506, 215.8535
468.8328, 216.7640
469.3149, 218.7566
469.7970, 221.5453
470.2791, 224.0793
470.7612, 226.0858
471.2433, 228.2300
471.7255, 230.8533
472.2076, 234.0793
472.6897, 236.9488
473.1718, 239.2541
473.6539, 241.6987
474.1360, 245.2446
474.6182, 249.9388
475.1003, 254.6486
475.5824, 259.1993
476.0645, 263.5477
476.5466, 267.3731
477.0287, 270.7325
477.5109, 274.1749
477.9930, 277.7516
478.4751, 281.7079
478.9572, 286.7479
479.4393, 292.9962
479.9214, 299.3797
480.4036, 304.5993
480.8857, 309.3736
481.3678, 314.7511
481.8499, 321.3082
482.3320, 328.3357
482.8141, 335.4556
483.2963, 342.6824
483.7784, 349.9944
484.2605, 357.0639
484.7426, 364.3932
485.2247, 372.6570
485.7068, 382.4564
486.1890, 390.5292
486.6711, 394.4501
487.1532, 397.5078
487.6353, 402.8589
488.1174, 412.1553
488.5995, 420.9088
489.0817, 428.3770
489.5638, 435.0010
490.0459, 442.7916
490.5280, 452.6977
491.0101, 461.4027
491.4922, 466.9429
491.9744, 469.2792
492.4565, 473.5196
492.9386, 480.1114
493.4207, 486.9089
493.9028, 491.3718
494.3849, 493.8428
494.8671, 496.3900
495.3492, 499.7473
495.8313, 502.9314
496.3134, 504.8409
496.7955, 505.4143
497.2776, 504.4068
497.7598, 500.7358
498.2419, 495.9720
498.7240, 491.9940
499.2061, 488.8597
499.6882, 485.1078
500.1703, 479.5058
500.6525, 473.0661
501.1346, 466.8050
501.6167, 461.5488
502.0988, 455.4871
502.5809, 447.9700
503.0630, 439.2729
503.5452, 430.0847
504.0273, 420.0473
504.5094, 410.0836
504.9915, 400.5228
505.4736, 391.4108
505.9557, 382.2549
506.4379, 373.2000
506.9200, 363.9847
507.4021, 354.4021
507.8842, 344.2079
508.3663, 334.0695
508.8484, 323.6378
509.3306, 313.8145
509.8127, 306.4780
510.2948, 301.6096
510.7769, 296.9372
511.2590, 292.0023
511.7411, 286.5395
512.2233, 279.3981
512.7054, 270.7491
513.1875, 262.8043
513.6696, 257.6779
514.1517, 254.0347
514.6339, 249.9863
515.1160, 245.1462
515.5981, 240.3896
516.0802, 236.3670
516.5623, 232.7231
517.0444, 228.9844
517.5266, 224.7682
518.0087, 220.6510
518.4908, 216.7477
518.9729, 213.0839
519.4550, 209.7542
519.9371, 207.4123
520.4193, 204.8558
520.9014, 201.5002
521.3835, 196.9621
521.8656, 193.2277
522.3477, 190.5248
522.8298, 188.3750
523.3120, 186.2466
523.7941, 184.0461
524.2762, 182.5737
524.7583, 182.2300
525.2404, 182.3595
525.7225, 181.4674
526.2047, 179.5603
526.6868, 177.2521
527.1689, 174.6234
527.6510, 171.8431
528.1331, 169.2627
528.6152, 166.8643
529.0974, 164.7817
529.5795, 163.1862
530.0616, 161.9156
530.5437, 160.8120
531.0258, 159.9119
531.5079, 158.9278
531.9901, 157.5068
532.4722, 155.8992
532.9543, 154.5131
533.4364, 153.4753
533.9185, 152.6631
534.4006, 152.1236
534.8828, 151.8239
535.3649, 151.4344
535.8470, 151.1618
536.3291, 150.5664
536.8112, 149.3446
537.2933, 147.1855
537.7755, 145.6738
538.2576, 145.0526
538.7397, 144.7537
539.2218, 144.2088
539.7039, 143.4236
540.1860, 142.3093
540.6682, 140.6006
541.1503, 138.9135
541.6324, 138.9416
542.1145, 140.4796
542.5966, 141.4879
543.0787, 140.6990
543.5609, 138.7919
544.0430, 136.4669
544.5251, 133.8069
545.0072, 131.8069
545.4893, 131.8069
545.9714, 132.5466
546.4536, 132.7429
546.9357, 132.0522
547.4178, 131.0336
547.8999, 129.3791
548.3820, 127.6886
548.8641, 126.7901
549.3463, 127.8445
549.8284, 128.5843
550.3105, 128.4063
550.7926, 127.4948
551.2747, 126.8290
551.7568, 126.4948
552.2390, 126.2525
552.7211, 126.1161
553.2032, 126.1467
553.6853, 125.3901
554.1674, 123.6146
554.6495, 121.7718
555.1317, 120.7475
555.6138, 120.5164
556.0959, 120.9673
556.5780, 122.4041
557.0601, 123.7046
557.5422, 122.8004
558.0244, 120.4210
558.5065, 118.6846
558.9886, 119.4244
559.4707, 120.6337
559.9528, 120.4368
560.4349, 119.0634
560.9171, 117.9980
561.3992, 118.2989
561.8813, 118.8365
562.3634, 118.8339
562.8455, 117.9290
563.3276, 117.3674
563.8098, 117.7123
564.2919, 118.2235
564.7740, 118.2100
565.2561, 117.2414
565.7382, 116.6145
566.2203, 116.5433
566.7025, 116.8305
567.1846, 117.0583
567.6667, 117.2628
568.1488, 117.1627
568.6309, 116.4059
569.1130, 115.3017
569.5952, 115.1870
570.0773, 116.0470
570.5594, 116.7985
571.0415, 116.3147
571.5236, 115.2999
572.0057, 114.9971
572.4879, 115.6540
572.9700, 116.3797
573.4521, 116.3160
573.9342, 116.0296
574.4163, 116.2127
574.8984, 118.0523
575.3806, 119.2634
575.8627, 118.7294
576.3448, 117.0713
576.8269, 116.0153
577.3090, 115.9476
577.7911, 116.2037
578.2733, 116.7043
578.7554, 117.4369
579.2375, 118.1006
579.7196, 118.7075
580.2017, 119.2123
580.6838, 119.5408
581.1660, 119.6947
581.6481, 119.9461
582.1302, 120.3551
582.6123, 120.6482
583.0944, 120.1747
583.5765, 119.2975
584.0587, 119.1822
584.5408, 120.6483
585.0229, 122.1469
585.5050, 121.7467
585.9871, 120.1526
586.4692, 119.0880
586.9514, 119.9762
587.4335, 120.9804
587.9155, 120.9048
588.3976, 119.8069
588.8798, 119.3797
589.3619, 120.5932
589.8440, 122.0286
590.3261, 123.0633
590.8082, 123.7476
591.2903, 123.7044
591.7725, 122.4125
592.2546, 121.0910
592.7367, 121.2848
593.2188, 123.2055
593.7009, 124.4395
594.1830, 124.4891
594.6652, 123.9234
595.1473, 123.7610
595.6294, 123.8954
596.1115, 123.7683
596.5936, 122.7910
597.0757, 121.6586
597.5579, 121.3738
598.0400, 121.7811
598.5221, 122.0637
599.0042, 121.5404
599.4863, 120.9172
599.9684, 120.6625
600.4506, 120.8622
600.9327, 121.2215
601.4148, 121.8763
601.8969, 122.5398
602.3790, 122.9931
602.8611, 123.1510
603.3433, 123.2999
603.8254, 123.6337
604.3075, 123.7866
604.7896, 122.8797
605.2717, 120.6604
605.7538, 119.3441
606.2360, 119.8921
606.7181, 121.3486
607.2002, 121.1236
607.6823, 119.4844
608.1644, 118.4570
608.6465, 120.1091
609.1287, 122.5957
609.6108, 123.4622
610.0929, 122.7017
610.5750, 121.4875
611.0571, 119.9049
611.5392, 118.5135
612.0214, 117.8443
612.5035, 118.2958
612.9856, 118.5351
613.4677, 117.6872
613.9498, 116.8402
614.4319, 117.2023
614.9141, 120.0280
615.3962, 121.5413
615.8783, 121.0125
616.3604, 119.2547
616.8425, 117.8407
617.3246, 116.7336
617.8068, 116.4284
618.2889, 117.6246
618.7710, 119.4465
619.2531, 119.4280
619.7352, 117.7655
620.2173, 116.1134
620.6995, 115.2831
621.1816, 115.1896
621.6637, 116.0935
622.1458, 118.0249
622.6279, 119.4723
623.1100, 119.3110
623.5922, 118.5557
624.0743, 118.0200
624.5564, 118.0923
625.0385, 117.8676
625.5206, 116.7253
626.0027, 115.5623
626.4849, 115.5250
626.9670, 117.2376
627.4491, 118.4378
627.9312, 118.7039
628.4133, 118.3463
628.8954, 118.1132
629.3776, 118.0068
629.8597, 117.6682
630.3418, 116.7787
630.8239, 115.6558
631.3060, 114.7923
631.7881, 114.2109
632.2703, 114.0595
632.7524, 114.9737
633.2345, 116.0046
633.7166, 116.1978
634.1987, 115.3989
634.6808, 114.7554
635.1630, 115.0898
635.6451, 115.4601
636.1272, 115.0990
636.6093, 112.9356
637.0914, 111.9803
637.5735, 112.7518
638.0557, 114.2751
638.5378, 115.4699
639.0199, 116.4008
639.5020, 116.5465
639.9841, 115.4941
640.4662, 114.0821
640.9484, 114.2298
641.4305, 115.6790
641.9126, 116.7526
642.3947, 116.4099
642.8768, 115.5181
643.3589, 115.0203
643.8411, 114.8727
644.3232, 114.8865
644.8053, 115.1584
645.2874, 115.4007
645.7695, 115.3739
646.2516, 115.0191
646.7338, 114.8715
647.2159, 115.2713
647.6980, 115.6824
648.1801, 115.7616
648.6622, 115.2577
649.1443, 115.2944
649.6265, 116.1122
650.1086, 116.9856
650.5907, 116.9683
651.0728, 116.1200
651.5549, 115.3233
652.0370, 114.7325
652.5192, 114.2652
653.0013, 113.6155
653.4834, 113.0156
653.9655, 113.0221
654.4476, 114.5260
654.9297, 116.0538
655.4119, 116.5956
655.8940, 116.4083
656.3761, 116.2868
656.8582, 116.6192
657.3403, 116.8988
657.8224, 116.9601
658.3046, 116.8098
658.7867, 116.5327
659.2688, 115.9967
659.7509, 115.5839
660.2330, 115.4873
660.7151, 115.7065
661.1973, 116.2775
661.6794, 117.2783
662.1615, 118.0527
662.6436, 117.6967
663.1257, 116.6954
663.6078, 116.1751
664.0900, 116.3675
664.5721, 116.7474
665.0542, 117.1628
665.5363, 117.4343
666.0184, 117.3241
666.5005, 116.1748
666.9827, 115.4207
667.4648, 115.6917
667.9469, 116.5195
668.4290, 117.0025
668.9111, 117.0263
669.3932, 116.8841
669.8754, 116.4712
670.3575, 115.9988
670.8396, 116.3702
671.3217, 117.6581
671.8038, 118.6126
672.2859, 118.4440
672.7681, 117.6257
673.2502, 117.0931
673.7323, 116.8406
674.2144, 116.8236
674.6965, 117.3362
675.1786, 117.8556
675.6608, 117.8542
676.1429, 117.2556
676.6250, 116.7357
677.1071, 116.4442
677.5892, 116.3455
678.0714, 116.4646
678.5535, 116.9861
679.0356, 117.1512
679.5177, 116.7052
679.9998, 116.2566
680.4819, 116.6588
680.9641, 117.9469
681.4462, 118.5268
681.9283, 118.0915
682.4104, 117.2107
682.8925, 116.5404
683.3746, 116.0553
683.8568, 115.7195
684.3389, 115.5359
684.8210, 115.4611
685.3031, 115.4422
685.7852, 115.5099
686.2673, 115.7258
686.7495, 116.3557
687.2316, 116.8761
687.7137, 117.1421
688.1958, 117.1779
688.6779, 117.0648
689.1600, 116.8354
689.6422, 116.3541
690.1243, 115.3686
690.6064, 114.0394
691.0885, 113.5983
691.5706, 114.0639
692.0527, 114.8749
692.5349, 115.7267
693.0170, 116.6457
693.4991, 117.8536
693.9812, 119.3445
694.4633, 120.4208
694.9454, 120.2950
695.4276, 119.7651
695.9097, 119.4502
696.3918, 119.4560
696.8739, 119.6392
697.3560, 120.1725
697.8381, 120.7361
698.3203, 121.0216
698.8024, 120.8179
699.2845, 121.1755
699.7666, 122.4501
700.2487, 123.6886
700.7308, 123.1341
701.2130, 121.1467
701.6951, 119.9906
702.1772, 120.3322
702.6593, 121.4629
703.1414, 123.1194
703.6235, 124.8917
704.1057, 125.9742
704.5878, 125.3650
705.0699, 124.7194
705.5520, 124.4894
706.0341, 124.7238
706.5162, 125.6121
706.9984, 127.9668
707.4805, 129.7780
707.9626, 130.5061
708.4447, 130.3139
708.9268, 129.9178
709.4089, 129.2626
709.8911, 128.8636
710.3732, 128.9914
710.8553, 129.5731
711.3374, 130.5064
711.8195, 131.7563
712.3016, 133.0663
712.7838, 134.6204
713.2659, 135.9102
713.7480, 136.3273
714.2301, 135.7713
714.7122, 135.4763
715.1943, 135.8236
715.6765, 136.5181
716.1586, 137.3947
716.6407, 138.5077
717.1228, 139.6433
717.6049, 140.8585
718.0870, 142.0036
718.5692, 142.9761
719.0513, 143.7662
719.5334, 144.0483
720.0155, 143.6470
720.4976, 143.6340
720.9797, 146.0010
721.4619, 149.2656
721.9440, 150.8866
722.4261, 149.3059
722.9082, 148.0393
723.3903, 149.3505
723.8724, 151.6683
724.3546, 152.9463
724.8367, 151.3821
725.3188, 151.0020
725.8009, 152.4961
726.2830, 155.0411
726.7651, 157.1872
727.2473, 158.9642
727.7294, 160.2640
728.2115, 160.8800
728.6936, 161.2730
729.1757, 162.3799
729.6578, 164.0066
730.1400, 165.4507
730.6221, 166.2794
731.1042, 166.9211
731.5863, 167.3678
732.0684, 167.8173
732.5505, 168.9118
733.0327, 171.9652
733.5148, 174.4236
733.9969, 175.0780
734.4790, 174.3287
734.9611, 175.1521
735.4432, 178.0314
735.9254, 180.8154
736.4075, 182.2860
736.8896, 182.8600
737.3717, 184.3112
737.8538, 186.5643
738.3359, 188.7545
738.8181, 189.6902
739.3002, 190.6363
739.7823, 193.2377
740.2644, 197.5492
740.7465, 201.4129
741.2286, 203.5025
741.7108, 205.2926
742.1929, 207.7826
742.6750, 211.2331
743.1571, 213.8480
743.6392, 215.1014
744.1213, 216.5686
744.6035, 219.7211
745.0856, 224.4146
745.5677, 228.2997
746.0498, 231.1100
746.5319, 234.0799
747.0140, 238.6186
747.4962, 243.9533
747.9783, 248.8688
748.4604, 253.1178
748.9425, 257.3189
749.4246, 261.5149
749.9067, 265.8973
750.3889, 270.6556
750.8710, 275.4790
751.3531, 281.4276
751.8352, 289.2363
752.3173, 297.3615
752.7994, 303.5921
753.2816, 307.9507
753.7637, 313.1240
754.2458, 319.6315
754.7279, 326.8291
755.2100, 333.8559
755.6921, 341.0427
756.1743, 349.1860
756.6564, 358.3177
757.1385, 368.7229
757.6206, 381.5703
758.1027, 395.5001
758.5848, 408.2564
759.0670, 417.5925
759.5491, 428.7636
760.0312, 443.2159
760.5133, 459.1276
760.9954, 472.6913
761.4775, 483.6685
761.9597, 496.1611
762.4418, 511.2945
762.9239, 528.2597
763.4060, 546.2722
763.8881, 564.7967
764.3702, 582.8047
764.8524, 597.3341
765.3345, 613.2693
765.8166, 635.1981
766.2987, 660.5594
766.7808, 682.3066
767.2629, 693.7911
767.7451, 708.8937
768.2272, 731.8889
768.7093, 759.7391
769.1914, 783.5792
769.6735, 803.0668
770.1556, 822.3737
770.6378, 842.8496
771.1199, 864.3647
771.6020, 887.7764
772.0841, 912.2650
772.5662, 934.8505
773.0483, 951.8680
773.5305, 968.4608
774.0126, 988.1691
774.4947, 1010.342
774.9768, 1031.130
775.4589, 1047.647
775.9410, 1066.041
776.4232, 1089.244
776.9053, 1115.895
777.3874, 1135.590
777.8695, 1147.786
778.3516, 1161.003
778.8337, 1180.838
779.3159, 1204.114
779.7980, 1224.107
780.2801, 1241.440
780.7622, 1260.347
781.2443, 1283.001
781.7264, 1307.820
782.2086, 1333.662
782.6907, 1360.549
783.1728, 1390.023
783.6549, 1420.502
784.1370, 1455.475
784.6191, 1497.937
785.1012, 1546.603
785.5833, 1591.820
786.0654, 1633.243
786.5475, 1676.748
787.0297, 1725.019
787.5118, 1778.219
787.9939, 1836.279
788.4760, 1898.948
788.9581, 1961.580
789.4402, 2017.903
789.9224, 2075.988
790.4045, 2141.479
790.8866, 2215.493
791.3687, 2285.269
791.8508, 2348.848
792.3329, 2408.992
792.8151, 2466.686
793.2972, 2522.101
793.7793, 2571.345
794.2614, 2614.841
794.7435, 2652.112
795.2256, 2683.500
795.7078, 2707.961
796.1899, 2724.595
796.6720, 2733.155
797.1541, 2729.620
797.6362, 2710.572
798.1183, 2680.260
798.6005, 2640.147
799.0826, 2590.408
799.5647, 2532.464
800.0468, 2464.555
800.5289, 2392.565
801.0110, 2317.980
801.4932, 2241.476
801.9753, 2165.057
802.4574, 2088.796
802.9395, 2014.992
803.4216, 1946.184
803.9037, 1880.152
804.3859, 1813.587
804.8680, 1746.428
805.3501, 1684.560
805.8322, 1631.199
806.3143, 1581.842
806.7964, 1533.299
807.2786, 1485.800
807.7607, 1444.087
808.2428, 1409.009
808.7249, 1376.604
809.2070, 1344.294
809.6891, 1312.627
810.1713, 1282.980
810.6534, 1255.661
811.1355, 1231.109
811.6176, 1210.208
812.0997, 1191.827
812.5818, 1175.617
813.0640, 1161.545
813.5461, 1147.590
814.0282, 1131.933
814.5103, 1117.976
814.9924, 1107.593
815.4745, 1100.580
815.9567, 1093.324
816.4388, 1085.695
816.9209, 1078.777
817.4030, 1072.704
817.8851, 1068.044
818.3672, 1066.596
818.8494, 1068.022
819.3315, 1069.430
819.8136, 1067.333
820.2957, 1066.510
820.7778, 1070.404
821.2599, 1079.352
821.7421, 1086.829
822.2242, 1090.945
822.7063, 1097.206
823.1884, 1108.559
823.6705, 1124.097
824.1526, 1139.622
824.6348, 1155.239
825.1169, 1171.627
825.5990, 1188.852
826.0811, 1207.455
826.5632, 1228.654
827.0453, 1252.329
827.5275, 1276.952
828.0096, 1301.648
828.4917, 1327.883
828.9738, 1356.534
829.4559, 1387.318
829.9380, 1419.284
830.4202, 1452.590
830.9023, 1486.169
831.3844, 1519.834
831.8665, 1553.543
832.3486, 1587.470
832.8307, 1621.868
833.3129, 1658.358
833.7950, 1699.651
834.2771, 1741.610
834.7592, 1782.168
835.2413, 1821.597
835.7234, 1859.749
836.2056, 1897.482
836.6877, 1932.704
837.1698, 1964.664
837.6519, 1993.444
838.1340, 2020.858
838.6161, 2046.911
839.0983, 2068.242
839.5804, 2083.917
840.0625, 2093.641
840.5446, 2097.250
841.0267, 2094.630
841.5089, 2085.463
841.9910, 2069.103
842.4731, 2046.730
842.9552, 2018.378
843.4373, 1984.382
843.9194, 1944.294
844.4016, 1897.260
844.8837, 1847.767
845.3658, 1797.052
845.8479, 1745.121
846.3300, 1691.149
846.8121, 1636.208
847.2943, 1583.284
847.7764, 1533.569
848.2585, 1485.757
848.7406, 1439.135
849.2227, 1394.321
849.7048, 1352.779
850.1870, 1315.798
850.6691, 1279.665
851.1512, 1243.559
851.6333, 1208.869
852.1154, 1176.962
852.5975, 1148.129
853.0797, 1124.380
853.5618, 1106.567
854.0439, 1091.385
854.5260, 1076.042
855.0081, 1061.106
855.4902, 1047.012
855.9724, 1033.435
856.4545, 1021.566
856.9366, 1011.467
857.4187, 1003.271
857.9008, 997.3112
858.3829, 993.7869
858.8651, 991.5239
859.3472, 990.5342
859.8293, 990.4158
860.3114, 989.9246
860.7935, 990.2482
861.2756, 993.8452
861.7578, 1001.260
862.2399, 1009.880
862.7220, 1019.603
863.2041, 1029.217
863.6862, 1037.255
864.1683, 1042.599
864.6505, 1052.484
865.1326, 1067.678
865.6147, 1085.190
866.0968, 1103.392
866.5789, 1122.157
867.0610, 1139.820
867.5432, 1156.677
868.0253, 1174.323
868.5074, 1193.906
868.9895, 1214.943
869.4716, 1236.544
869.9537, 1258.875
870.4359, 1283.561
870.9180, 1311.313
871.4001, 1340.285
871.8822, 1369.511
872.3643, 1399.395
872.8464, 1433.223
873.3286, 1470.960
873.8107, 1506.766
874.2928, 1536.076
874.7749, 1563.060
875.2570, 1590.783
875.7391, 1619.703
876.2213, 1650.134
876.7034, 1682.449
877.1855, 1716.218
877.6676, 1752.961
878.1497, 1790.231
878.6318, 1821.855
879.1140, 1847.256
879.5961, 1872.600
880.0782, 1900.208
880.5603, 1927.725
881.0424, 1952.401
881.5245, 1974.336
882.0067, 1993.640
882.4888, 2009.533
882.9709, 2024.116
883.4530, 2039.772
883.9351, 2053.709
884.4172, 2062.369
884.8994, 2064.519
885.3815, 2065.724
885.8636, 2066.715
886.3457, 2065.829
886.8278, 2059.416
887.3099, 2049.747
887.7921, 2042.066
888.2742, 2037.281
888.7563, 2034.211
889.2384, 2031.810
889.7205, 2031.078
890.2026, 2033.496
890.6848, 2040.331
891.1669, 2044.899
891.6490, 2046.605
892.1311, 2047.408
892.6132, 2047.394
893.0953, 2047.526
893.5775, 2053.352
894.0596, 2064.627
894.5417, 2074.538
895.0238, 2077.821
895.5059, 2078.950
895.9880, 2081.760
896.4702, 2086.131
896.9523, 2086.962
897.4344, 2084.661
897.9165, 2077.569
898.3986, 2063.806
898.8807, 2045.549
899.3629, 2032.176
899.8450, 2022.670
900.3271, 2010.153
900.8092, 1990.970
901.2913, 1967.758
901.7734, 1940.672
902.2556, 1911.591
902.7377, 1884.025
903.2198, 1859.134
903.7019, 1835.787
904.1840, 1812.859
904.6661, 1792.151
905.1483, 1777.200
905.6304, 1767.593
906.1125, 1758.585
906.5946, 1748.680
907.0767, 1741.379
907.5588, 1739.253
908.0410, 1742.421
908.5231, 1750.940
909.0052, 1764.425
909.4873, 1784.628
909.9694, 1810.407
910.4515, 1843.861
910.9337, 1886.733
911.4158, 1938.870
911.8979, 2000.067
912.3800, 2070.129
912.8621, 2152.991
913.3442, 2247.944
913.8264, 2358.847
914.3085, 2485.774
914.7906, 2629.529
915.2727, 2800.017
915.7548, 2994.995
916.2369, 3225.087
916.7191, 3494.719
917.2012, 3800.708
917.6833, 4142.483
918.1654, 4520.473
918.6475, 4918.080
919.1296, 5333.864
919.6118, 5758.935
920.0939, 6182.562
920.5760, 6608.069
921.0581, 7035.803
921.5402, 7458.523
922.0223, 7898.547
922.5045, 8350.790
922.9866, 8831.684
923.4687, 9358.592
923.9508, 9928.982
924.4329, 10584.54
924.9150, 11317.79
925.3972, 12143.19
925.8793, 13069.55
926.3614, 14099.72
926.8435, 15233.37
927.3256, 16490.75
927.8077, 17795.60
928.2899, 19175.87
928.7720, 20537.19
929.2541, 21865.29
929.7362, 23175.35
930.2183, 24291.80
930.7004, 25233.08
931.1826, 25806.96
931.6647, 25929.85
932.1468, 25563.90
932.6289, 24576.96
933.1110, 23018.99
933.5931, 21219.02
934.0753, 19046.70
934.5574, 16896.24
935.0395, 14852.55
935.5216, 12925.53
936.0037, 11251.22
936.4858, 9809.846
936.9680, 8567.333
937.4501, 7529.489
937.9322, 6649.557
938.4143, 5918.334
938.8964, 5304.563
939.3785, 4767.974
939.8607, 4316.488
940.3428, 3922.459
940.8249, 3592.571
941.3070, 3310.065
941.7891, 3061.357
942.2712, 2848.257
942.7534, 2653.516
943.2355, 2473.963
943.7176, 2312.728
944.1997, 2173.769
944.6818, 2051.018
945.1639, 1937.268
945.6461, 1832.437
946.1282, 1735.612
946.6103, 1646.596
947.0924, 1565.934
947.5745, 1495.031
948.0566, 1432.757
948.5388, 1373.530
949.0209, 1317.354
949.5030, 1264.108
949.9851, 1212.875
950.4672, 1165.316
950.9493, 1125.101
951.4315, 1089.850
951.9136, 1055.176
952.3957, 1018.801
952.8778, 984.7420
953.3599, 953.4600
953.8420, 924.4492
954.3242, 897.0737
954.8063, 871.5054
955.2884, 847.5902
955.7705, 825.4435
956.2526, 803.8268
956.7347, 780.9918
957.2169, 758.6403
957.6990, 738.4948
958.1811, 720.9929
958.6632, 703.8977
959.1453, 686.3951
959.6274, 670.2705
960.1096, 657.2866
960.5917, 646.2682
961.0738, 631.9128
961.5559, 614.7061
962.0380, 598.3509
962.5201, 584.5613
963.0023, 572.3525
963.4844, 561.0972
963.9665, 550.8643
964.4486, 542.1650
964.9307, 536.1764
965.4128, 528.4036
965.8950, 517.8669
966.3771, 506.2130
966.8592, 494.6454
967.3413, 483.9064
967.8234, 475.9525
968.3055, 471.6254
968.7877, 467.9553
969.2698, 463.4077
969.7519, 458.8863
970.2340, 455.1570
970.7161, 452.2899
971.1982, 448.9726
971.6804, 444.8785
972.1625, 441.8863
972.6446, 441.9421
973.1267, 443.4902
973.6088, 443.7516
974.0909, 442.9298
974.5731, 441.8043
975.0552, 438.5717
975.5373, 437.6261
976.0194, 441.1363
976.5015, 447.3221
976.9836, 452.9774
977.4658, 457.9558
977.9479, 463.7208
978.4300, 470.4849
978.9121, 478.1627
979.3942, 487.2454
979.8763, 497.0064
980.3585, 506.5540
980.8406, 515.5374
981.3227, 524.7640
981.8048, 535.6417
982.2869, 545.3248
982.7690, 552.8719
983.2511, 558.0360
983.7332, 558.1945
984.2153, 553.4480
984.6974, 545.4133
985.1796, 536.2754
985.6617, 523.0873
986.1438, 501.6192
986.6259, 474.2814
987.1080, 448.2597
987.5901, 424.2695
988.0723, 401.3469
988.5544, 379.4260
989.0365, 358.8282
989.5186, 340.0726
990.0007, 323.1000
990.4828, 308.0529
990.9650, 294.8615
991.4471, 283.5388
991.9292, 274.7663
992.4113, 267.3892
992.8934, 260.5057
993.3755, 254.0536
993.8577, 248.2274
994.3398, 243.1352
994.8219, 238.3377
995.3040, 233.5374
995.7861, 228.9333
996.2682, 224.7932
996.7504, 221.0826
997.2325, 217.5901
997.7146, 214.3304
998.1967, 211.1512
998.6788, 207.7042
999.1609, 204.5100
999.6431, 202.5420
1000.125, 201.8145
1000.607, 200.6814
1001.089, 198.9283
1001.572, 196.8702
1002.054, 194.7508
1002.536, 192.5152
1003.018, 189.8842
1003.500, 186.7776
1003.982, 184.4864
1004.464, 183.4079
1004.946, 182.5117
1005.428, 181.4246
1005.911, 180.1735
1006.393, 178.9908
1006.875, 177.7657
1007.357, 176.1045
1007.839, 173.2004
1008.321, 170.5854
1008.803, 169.2206
1009.285, 168.5072
1009.768, 167.5244
1010.250, 166.1504
1010.732, 164.9763
1011.214, 164.1244
1011.696, 163.0988
1012.178, 161.1052
1012.660, 158.8000
1013.142, 157.2019
1013.624, 156.3738
1014.107, 155.6026
1014.589, 154.7845
1015.071, 153.8303
1015.553, 152.7203
1016.035, 151.4638
1016.517, 149.9276
1016.999, 148.1787
1017.481, 146.9262
1017.964, 146.5897
1018.446, 146.4245
1018.928, 145.7119
1019.410, 144.8193
1019.892, 144.2403
1020.374, 144.3222
1020.856, 143.9763
1021.338, 143.1397
1021.820, 142.0362
1022.303, 140.6368
1022.785, 139.1626
1023.267, 138.4112
1023.749, 138.2279
1024.231, 137.6623
1024.713, 135.5521
1025.195, 133.7475
1025.677, 133.2102
1026.160, 133.3770
1026.642, 133.1590
1027.124, 132.5461
1027.606, 131.6812
1028.088, 130.5378
1028.570, 129.3790
1029.052, 128.3825
1029.534, 127.5681
1030.016, 126.9837
1030.499, 126.6852
1030.981, 126.3418
1031.463, 125.9355
1031.945, 125.4664
1032.427, 124.9368
1032.909, 124.3447
1033.391, 123.5743
1033.873, 122.6980
1034.355, 122.0148
1034.838, 122.2413
1035.320, 122.0046
1035.802, 119.8438
1036.284, 117.2907
1036.766, 116.6724
1037.248, 118.5135
1037.730, 119.0915
1038.212, 118.0623
1038.695, 116.5686
1039.177, 115.3556
1039.659, 114.4860
1040.141, 114.3127
1040.623, 114.7572
1041.105, 114.6392
1041.587, 113.3181
1042.069, 112.0340
1042.552, 111.0822
1043.034, 110.3657
1043.516, 109.6942
1043.998, 109.0520
1044.480, 108.4224
1044.962, 107.8006
1045.444, 107.1547
1045.926, 106.5141
1046.408, 105.8013
1046.891, 104.8907
1047.373, 103.7168
1047.855, 103.0072
1048.337, 102.8037
1048.819, 102.6905
1049.301, 102.3106
1049.783, 101.9416
1050.265, 102.1001
1050.747, 102.5538
1051.230, 102.6808
1051.712, 102.2379
1052.194, 101.4998
1052.676, 100.4194
1053.158, 99.16727
1053.640, 97.77893
1054.122, 96.40369
1054.604, 95.73842
1055.087, 95.85740
1055.569, 96.03831
1056.051, 95.93481
1056.533, 95.67695
1057.015, 95.29533
1057.497, 94.82280
1057.979, 94.37421
1058.461, 93.94948
1058.943, 93.56227
1059.426, 93.22658
1059.908, 92.90728
1060.390, 92.60234
1060.872, 92.26551
1061.354, 91.80952
1061.836, 91.11009
1062.318, 90.61933
1062.800, 90.43939
1063.282, 90.28676
1063.765, 90.03515
1064.247, 89.64967
1064.729, 88.82991
1065.211, 87.72750
1065.693, 86.99126
1066.175, 87.37717
1066.657, 87.66985
1067.139, 87.48331
1067.622, 86.92516
1068.104, 85.96474
1068.586, 84.58629
1069.068, 83.53761
1069.550, 82.86464
1070.032, 82.86748
1070.514, 84.63538
1070.996, 86.53954
1071.479, 87.22754
1071.961, 86.59926
1072.443, 85.27743
1072.925, 82.70861
1073.407, 81.25734
1073.889, 81.93639
1074.371, 83.34600
1074.853, 83.08267
1075.335, 81.89401
1075.818, 81.22864
1076.300, 81.59923
1076.782, 81.95992
1077.264, 82.06296
1077.746, 82.05391
1078.228, 82.05772
1078.710, 82.02492
1079.192, 81.38499
1079.674, 80.27141
1080.157, 79.61618
1080.639, 80.36317
1081.121, 81.20760
1081.603, 81.46033
1082.085, 81.30891
1082.567, 81.05311
1083.049, 80.67513
1083.531, 80.26454
1084.013, 79.80975
1084.496, 79.41594
1084.978, 79.05418
1085.460, 78.88828
1085.942, 79.32044
1086.424, 80.21720
1086.906, 80.61671
1087.388, 80.29469
1087.870, 79.58360
1088.353, 78.32124
1088.835, 77.10982
1089.317, 77.21809
1089.799, 78.10896
1090.281, 78.49770
1090.763, 78.09727
1091.245, 77.67611
1091.727, 77.43564
1092.209, 77.39714
1092.692, 77.66462
1093.174, 78.12702
1093.656, 78.12389
1094.138, 77.71919
1094.620, 77.49456
1095.102, 77.78797
1095.584, 78.11883
1096.066, 78.07127
1096.548, 77.91200
1097.031, 78.00433
1097.513, 78.48807
1097.995, 78.48894
1098.477, 77.92323
1098.959, 77.52428
1099.441, 78.09703
1099.923, 78.90449
1100.405, 79.19774
1100.888, 78.99047
1101.370, 78.31735
1101.852, 76.52261
1102.334, 75.44011
1102.816, 75.24580
1103.298, 75.75954
1103.780, 77.31290
1104.262, 79.27625
1104.745, 80.12374
1105.227, 79.78159
1105.709, 79.11183
1106.191, 77.83175
1106.673, 77.10748
1107.155, 77.55490
1107.637, 78.60445
1108.119, 78.83405
1108.601, 78.38248
1109.083, 78.11166
1109.566, 78.23746
1110.048, 78.42982
1110.530, 78.74104
1111.012, 78.78976
1111.494, 78.05217
1111.976, 76.63077
1112.458, 76.27406
1112.940, 77.03642
1113.423, 77.60764
1113.905, 77.29961
1114.387, 76.80543
1114.869, 77.01237
1115.351, 77.43941
1115.833, 77.32659
1116.315, 76.11435
1116.797, 75.79190
1117.280, 76.56660
1117.762, 77.47081
1118.244, 77.96677
1118.726, 78.06184
1119.208, 77.51424
1119.690, 76.57551
1120.172, 75.98145
1120.654, 76.16887
1121.136, 76.47733
1121.619, 76.93105
1122.101, 77.32002
1122.583, 77.33759
1123.065, 77.10410
1123.547, 76.97514
1124.029, 76.97265
1124.511, 77.05533
1124.993, 77.31796
1125.475, 77.53175
1125.958, 77.68651
1126.440, 77.69782
1126.922, 77.20734
1127.404, 76.32236
1127.886, 76.06026
1128.368, 76.67483
1128.850, 77.21802
1129.332, 76.60744
1129.815, 76.03531
1130.297, 76.56490
1130.779, 77.94304
1131.261, 78.61036
1131.743, 78.54436
1132.225, 78.27224
1132.707, 77.86860
1133.189, 77.56750
1133.672, 77.81386
1134.154, 78.15646
1134.636, 78.00004
1135.118, 77.15257
1135.600, 76.66388
1136.082, 76.55354
1136.564, 76.73870
1137.046, 77.46208
1137.528, 78.14583
1138.010, 77.66485
1138.493, 76.59589
1138.975, 76.00771
1139.457, 76.89511
1139.939, 76.98914
1140.421, 75.92792
1140.903, 74.87711
1141.385, 74.91709
1141.867, 75.56380
1142.350, 75.78011
1142.832, 75.62288
1143.314, 75.38658
1143.796, 75.13390
1144.278, 74.87721
1144.760, 74.61192
1145.242, 74.35440
1145.724, 74.17564
1146.207, 74.02457
1146.689, 73.59780
1147.171, 72.91996
1147.653, 72.51752
1148.135, 72.86109
1148.617, 73.33440
1149.099, 73.77489
1149.581, 74.14863
1150.063, 74.49842
1150.546, 74.76493
1151.028, 74.37653
1151.510, 73.18186
1151.992, 72.12592
1152.474, 71.96577
1152.956, 72.02470
1153.438, 71.83730
1153.920, 71.51265
1154.402, 71.61263
1154.885, 72.12298
1155.367, 72.52599
1155.849, 72.70036
1156.331, 72.61750
1156.813, 72.11428
1157.295, 71.43915
1157.777, 70.77499
1158.259, 70.13113
1158.742, 69.66894
1159.224, 69.38911
1159.706, 69.35712
1160.188, 69.71188
1160.670, 70.12608
1161.152, 70.34871
1161.634, 70.37391
1162.116, 70.13044
1162.599, 69.47326
1163.081, 69.20018
1163.563, 69.39180
1164.045, 69.50060
1164.527, 68.96626
1165.009, 68.36538
1165.491, 68.56658
1165.973, 69.24791
1166.455, 69.77325
1166.938, 70.09216
1167.420, 70.12962
1167.902, 69.91420
1168.384, 69.32713
1168.866, 67.75462
1169.348, 66.04081
1169.830, 65.83272
1170.312, 66.72298
1170.794, 67.31205
1171.277, 67.03062
1171.759, 66.64211
1172.241, 66.05223
1172.723, 65.72346
1173.205, 66.61915
1173.687, 67.94099
1174.169, 67.89872
1174.651, 66.60485
1175.134, 65.59079
1175.616, 65.69703
1176.098, 65.64193
1176.580, 65.04326
1177.062, 64.46803
1177.544, 65.02804
1178.026, 66.19199
1178.508, 66.60326
1178.990, 66.12016
1179.473, 65.62712
1179.955, 65.29201
1180.437, 65.28072
1180.919, 65.87569
1181.401, 66.53532
1181.883, 65.88093
1182.365, 64.41051
1182.847, 63.77560
1183.329, 64.36399
1183.812, 64.85178
1184.294, 64.51839
1184.776, 64.10442
1185.258, 63.91413
1185.740, 63.84925
1186.222, 63.46119
1186.704, 62.91905
1187.186, 62.94271
1187.669, 63.85971
1188.151, 64.78671
1188.633, 65.55894
1189.115, 65.89684
1189.597, 65.52276
1190.079, 64.63352
1190.561, 64.12636
1191.043, 63.92814
1191.526, 63.66444
1192.008, 63.04916
1192.490, 62.72889
1192.972, 63.28287
1193.454, 64.02431
1193.936, 64.54863
1194.418, 64.84645
1194.900, 64.66706
1195.382, 64.11021
1195.865, 63.80911
1196.347, 64.21335
1196.829, 64.66898
1197.311, 64.98685
1197.793, 65.10764
1198.275, 64.99400
1198.757, 64.64665
1199.239, 63.78706
1199.721, 62.53156
1200.204, 61.91675
1200.686, 63.02986
1201.168, 64.29814
1201.650, 65.33111
1202.132, 65.85106
1202.614, 65.29874
1203.096, 63.68703
1203.578, 63.11993
1204.061, 63.57554
1204.543, 64.17256
1205.025, 64.49099
1205.507, 64.67809
1205.989, 64.80428
1206.471, 64.83759
1206.953, 64.71864
1207.435, 64.44899
1207.917, 64.07413
1208.400, 63.61100
1208.882, 63.31297
1209.364, 63.38698
1209.846, 63.63868
1210.328, 64.30152
1210.810, 64.88964
1211.292, 64.31593
1211.774, 62.64637
1212.256, 62.68251
1212.739, 64.63375
1213.221, 66.17462
1213.703, 64.97015
1214.185, 63.69044
1214.667, 64.23582
1215.149, 65.54845
1215.631, 65.47887
1216.113, 64.15315
1216.596, 63.79160
1217.078, 64.69549
1217.560, 65.82815
1218.042, 67.11741
1218.524, 67.76598
1219.006, 66.93317
1219.488, 65.34520
1219.970, 64.52663
1220.453, 64.44135
1220.935, 64.73959
1221.417, 65.40607
1221.899, 65.77113
1222.381, 65.06928
1222.863, 64.26997
1223.345, 63.82563
1223.827, 63.72794
1224.309, 64.08675
1224.792, 64.83279
1225.274, 65.37238
1225.756, 65.57510
1226.238, 65.75183
1226.720, 66.31770
1227.202, 66.64536
1227.684, 66.30030
1228.166, 65.54871
1228.648, 65.14957
1229.131, 65.09586
1229.613, 65.53660
1230.095, 66.66214
1230.577, 67.27351
1231.059, 66.10673
1231.541, 64.88278
1232.023, 64.50587
1232.505, 64.72636
1232.988, 64.72160
1233.470, 64.56689
1233.952, 64.60658
1234.434, 64.98631
1234.916, 65.29729
1235.398, 65.52818
1235.880, 65.38171
1236.362, 64.51717
1236.844, 63.30442
1237.327, 63.07146
1237.809, 63.56022
1238.291, 63.94586
1238.773, 64.00295
1239.255, 63.92274
1239.737, 63.71946
1240.219, 63.44846
1240.701, 63.09177
1241.183, 62.70980
1241.666, 62.27346
1242.148, 61.96484
1242.630, 62.46556
1243.112, 64.50502
1243.594, 65.55158
1244.076, 64.47015
1244.558, 63.29554
1245.040, 63.03440
1245.523, 63.32453
1246.005, 63.22231
1246.487, 62.93692
1246.969, 63.00753
1247.451, 63.85472
1247.933, 64.24072
1248.415, 63.93462
1248.897, 63.39888
1249.380, 62.70737
1249.862, 62.11794
1250.344, 62.34863
1250.826, 63.05479
1251.308, 63.60221
1251.790, 63.81285
1252.272, 63.86268
1252.754, 63.73296
1253.236, 63.54122
1253.719, 63.29007
1254.201, 63.08875
1254.683, 63.23448
1255.165, 63.50718
1255.647, 63.51596
1256.129, 63.04259
1256.611, 62.70734
1257.093, 62.51162
1257.575, 62.45176
1258.058, 62.58387
1258.540, 62.77817
1259.022, 62.96909
1259.504, 63.07891
1259.986, 62.94706
1260.468, 62.50358
1260.950, 62.19556
1261.432, 62.04324
1261.915, 61.79097
1262.397, 61.10056
1262.879, 60.50662
1263.361, 60.77421
1263.843, 61.26990
1264.325, 61.04429
1264.807, 59.91966
1265.289, 59.66210
1265.771, 60.25087
1266.254, 60.86781
1266.736, 61.13890
1267.218, 61.19108
1267.700, 60.86149
1268.182, 60.53303
1268.664, 60.69115
1269.146, 61.31829
1269.628, 61.38601
1270.110, 60.96767
1270.593, 60.67934
1271.075, 61.02552
1271.557, 61.27041
1272.039, 60.95338
1272.521, 60.51402
1273.003, 60.27858
1273.485, 60.20765
1273.967, 59.97109
1274.450, 59.63668
1274.932, 59.50169
1275.414, 59.88677
1275.896, 60.18399
1276.378, 60.33730
1276.860, 60.27200
1277.342, 59.77391
1277.824, 59.06725
1278.307, 58.79186
1278.789, 58.88673
1279.271, 59.18345
1279.753, 59.82941
1280.235, 60.32220
1280.717, 60.67265
1281.199, 60.75991
1281.681, 60.37312
1282.163, 59.76606
1282.646, 59.26989
1283.128, 58.92683
1283.610, 58.82688
1284.092, 59.11613
1284.574, 59.38532
1285.056, 59.67941
1285.538, 59.70663
1286.020, 59.01384
1286.502, 58.24918
1286.984, 58.29456
1287.467, 58.67601
1287.949, 58.62504
1288.431, 58.02462
1288.913, 57.44090
1289.395, 56.86829
1289.877, 56.59298
1290.359, 57.02578
1290.841, 57.46917
1291.324, 57.25100
1291.806, 56.91819
1292.288, 57.14440
1292.770, 57.91873
1293.252, 58.08279
1293.734, 57.71941
1294.216, 57.47642
1294.698, 57.86628
1295.181, 58.09149
1295.663, 57.34829
1296.145, 56.78150
1296.627, 57.38677
1297.109, 58.79101
1297.591, 59.20693
1298.073, 58.88669
1298.555, 58.63309
1299.037, 58.95798
1299.520, 58.84500
1300.002, 57.91780
1300.484, 57.07854
1300.966, 57.01652
1301.448, 57.27105
1301.930, 56.64597
1302.412, 55.67197
1302.894, 55.46453
1303.376, 56.75045
1303.859, 57.59362
1304.341, 57.94001
1304.823, 57.98333
1305.305, 57.78576
1305.787, 57.35743
##END=



