##NAMES=Lipuite
##RRUFFID=R140946
##IDEAL CHEMISTRY=KNa_8_Mn^3+^_5_Mg_0.5_(Si_12_O_30_(OH)_4_)(PO_4_)O_2_(OH)_2_&#183;4H_2_O
##LOCALITY=N'Chwaning III mine, Kalahari manganese field, Northern Cape Province, South Africa
##OWNER=RRUFF
##SOURCE=Jaco and Tania Janse van Nieuwenhuizen
##DESCRIPTION=Dark reddish brown massive crystalline, associated with sugilite (R130754)
##STATUS=The identification of this mineral is confirmed by single-crystal X-ray diffraction and chemical analysis.
##URL=rruff.info/R140946
##MEASURED CHEMISTRY=K_1.11_Na_8.16_(Mn^3+^_4.86_Fe^3+^_0.14_)Mg_0.39_[Si_12.08_O_30_(OH)_4_](P_0.95_O_4_)O_2_(OH)_2_·4H_2_O
179.4569, 487.9778
179.9390, 486.6433
180.4211, 485.1753
180.9033, 485.4551
181.3854, 487.1400
181.8675, 488.5821
182.3496, 488.5115
182.8317, 487.5221
183.3138, 487.0274
183.7960, 487.2191
184.2781, 487.8101
184.7602, 488.3933
185.2423, 488.9940
185.7244, 489.7878
186.2065, 491.1100
186.6887, 492.7610
187.1708, 493.9518
187.6529, 494.4762
188.1350, 494.7508
188.6171, 495.5477
189.0992, 496.8565
189.5814, 498.0994
190.0635, 498.6864
190.5456, 498.7781
191.0277, 499.4135
191.5098, 500.7521
191.9919, 502.6241
192.4741, 504.8887
192.9562, 507.5702
193.4383, 509.9635
193.9204, 511.1760
194.4025, 511.3191
194.8846, 512.4499
195.3668, 515.0693
195.8489, 518.5100
196.3310, 521.1458
196.8131, 522.8910
197.2952, 524.4606
197.7773, 526.3491
198.2595, 528.5571
198.7416, 530.8362
199.2237, 533.2872
199.7058, 535.6662
200.1879, 537.1369
200.6700, 537.5663
201.1522, 537.7668
201.6343, 538.4364
202.1164, 539.6837
202.5985, 540.2980
203.0806, 540.0624
203.5627, 539.1366
204.0449, 538.0428
204.5270, 536.8335
205.0091, 535.2712
205.4912, 533.1510
205.9733, 530.4158
206.4554, 527.4396
206.9376, 524.2304
207.4197, 520.8289
207.9018, 517.1943
208.3839, 513.2004
208.8660, 509.2885
209.3481, 505.8319
209.8303, 502.8960
210.3124, 500.0700
210.7945, 497.3309
211.2766, 494.6835
211.7587, 492.0563
212.2408, 489.4975
212.7230, 486.8482
213.2051, 483.8849
213.6872, 480.4075
214.1693, 477.2779
214.6514, 474.6375
215.1335, 472.4053
215.6157, 470.4029
216.0978, 468.7300
216.5799, 467.0443
217.0620, 465.0751
217.5441, 462.6900
218.0262, 460.3510
218.5084, 458.0099
218.9905, 455.7145
219.4726, 453.8820
219.9547, 452.7284
220.4368, 451.6300
220.9189, 450.1193
221.4011, 447.8320
221.8832, 446.1152
222.3653, 445.2608
222.8474, 445.0701
223.3295, 444.5392
223.8116, 443.3922
224.2938, 442.3646
224.7759, 442.0086
225.2580, 442.8277
225.7401, 443.0576
226.2222, 442.3061
226.7043, 440.8651
227.1865, 439.9194
227.6686, 439.5354
228.1507, 439.5649
228.6328, 440.0285
229.1149, 441.2981
229.5970, 442.1099
230.0792, 442.2587
230.5613, 441.8969
231.0434, 441.5806
231.5255, 441.2432
232.0076, 441.0681
232.4897, 441.1866
232.9719, 441.7539
233.4540, 442.2715
233.9361, 442.6368
234.4182, 442.9542
234.9003, 443.5895
235.3824, 444.6165
235.8646, 445.8560
236.3467, 447.2329
236.8288, 448.7835
237.3109, 450.4135
237.7930, 452.3314
238.2751, 454.2892
238.7573, 455.3877
239.2394, 454.9442
239.7215, 454.6067
240.2036, 455.2294
240.6857, 457.5986
241.1678, 459.1071
241.6500, 459.4869
242.1321, 459.0712
242.6142, 458.6790
243.0963, 458.2700
243.5784, 457.9478
244.0605, 457.7545
244.5427, 457.6834
245.0248, 457.7818
245.5069, 458.1884
245.9890, 458.7168
246.4711, 459.0361
246.9532, 459.4864
247.4354, 459.1840
247.9175, 457.6878
248.3996, 454.6017
248.8817, 451.5510
249.3638, 448.2599
249.8459, 445.1693
250.3281, 443.1512
250.8102, 442.6182
251.2923, 442.4538
251.7744, 442.3095
252.2565, 442.1755
252.7386, 442.0927
253.2208, 441.9254
253.7029, 441.9104
254.1850, 442.4760
254.6671, 443.9054
255.1492, 445.3595
255.6313, 446.5858
256.1135, 447.5559
256.5956, 448.3658
257.0777, 448.7856
257.5598, 449.2390
258.0419, 450.4082
258.5240, 452.7107
259.0062, 454.7232
259.4883, 455.9321
259.9704, 456.2357
260.4525, 457.0285
260.9346, 458.6105
261.4167, 460.2999
261.8989, 461.2459
262.3810, 461.1536
262.8631, 461.1121
263.3452, 461.4474
263.8273, 462.1660
264.3094, 462.5047
264.7916, 462.3306
265.2737, 462.0222
265.7558, 461.8595
266.2379, 461.7383
266.7200, 462.1719
267.2021, 463.4752
267.6843, 465.5146
268.1664, 466.9398
268.6485, 467.5019
269.1306, 467.9527
269.6127, 468.9022
270.0948, 470.3990
270.5770, 472.1234
271.0591, 474.0179
271.5412, 476.0717
272.0233, 478.3430
272.5054, 480.8209
272.9875, 483.4276
273.4697, 486.1145
273.9518, 488.9185
274.4339, 491.7060
274.9160, 494.4666
275.3981, 497.1887
275.8802, 499.8559
276.3624, 502.3853
276.8445, 505.0482
277.3266, 508.0254
277.8087, 511.3328
278.2908, 514.7764
278.7729, 518.3544
279.2551, 522.0501
279.7372, 525.8940
280.2193, 529.9958
280.7014, 533.6205
281.1835, 536.1754
281.6656, 537.6810
282.1478, 539.5038
282.6299, 541.6907
283.1120, 544.2273
283.5941, 547.3356
284.0762, 551.0753
284.5583, 554.4066
285.0405, 556.8561
285.5226, 558.4742
286.0047, 559.8240
286.4868, 561.0097
286.9689, 561.5842
287.4510, 560.5417
287.9332, 557.9677
288.4153, 555.6627
288.8974, 554.8892
289.3795, 554.9951
289.8616, 553.3083
290.3438, 549.6503
290.8259, 545.4249
291.3080, 542.0582
291.7901, 539.4791
292.2722, 537.1200
292.7543, 535.1666
293.2365, 533.1735
293.7186, 529.8666
294.2007, 525.2565
294.6828, 520.4241
295.1649, 516.3810
295.6470, 512.9413
296.1292, 509.3324
296.6113, 505.3105
297.0934, 501.1335
297.5755, 497.0532
298.0576, 493.0734
298.5397, 489.4207
299.0219, 486.0385
299.5040, 483.0747
299.9861, 480.9268
300.4682, 479.7729
300.9503, 479.2573
301.4324, 479.4442
301.9146, 480.0800
302.3967, 480.0930
302.8788, 477.8488
303.3609, 474.8691
303.8430, 473.5164
304.3251, 474.3475
304.8073, 475.9088
305.2894, 476.8830
305.7715, 477.5362
306.2536, 478.5511
306.7357, 480.4816
307.2178, 482.8249
307.7000, 485.0287
308.1821, 487.0222
308.6642, 489.0866
309.1463, 491.3568
309.6284, 493.8265
310.1105, 496.5273
310.5927, 499.5006
311.0748, 502.6444
311.5569, 505.9300
312.0390, 509.3575
312.5211, 512.9054
313.0032, 516.5828
313.4854, 520.4164
313.9675, 524.3869
314.4496, 529.0963
314.9317, 533.3959
315.4138, 536.2902
315.8959, 538.0712
316.3781, 540.5837
316.8602, 545.4108
317.3423, 550.8039
317.8244, 555.4968
318.3065, 559.1266
318.7886, 562.1458
319.2708, 564.0214
319.7529, 565.2800
320.2350, 567.4169
320.7171, 571.7104
321.1992, 576.3282
321.6813, 580.4318
322.1635, 583.9777
322.6456, 586.8343
323.1277, 588.3531
323.6098, 589.2513
324.0919, 590.7380
324.5740, 594.0090
325.0562, 596.9468
325.5383, 598.7762
326.0204, 599.1566
326.5025, 599.6870
326.9846, 600.5077
327.4667, 601.5179
327.9489, 602.6228
328.4310, 603.9005
328.9131, 605.2032
329.3952, 606.4739
329.8773, 607.7112
330.3594, 609.2050
330.8416, 611.2009
331.3237, 613.2332
331.8058, 614.9348
332.2879, 615.9321
332.7700, 617.2490
333.2521, 619.0983
333.7343, 621.3581
334.2164, 623.4698
334.6985, 625.3893
335.1806, 627.1786
335.6627, 628.9634
336.1448, 630.9827
336.6270, 632.1777
337.1091, 632.4046
337.5912, 631.8691
338.0733, 630.9947
338.5554, 629.8496
339.0375, 628.1852
339.5197, 625.8359
340.0018, 622.8017
340.4839, 619.5569
340.9660, 616.2634
341.4481, 612.5394
341.9302, 608.0049
342.4124, 602.6096
342.8945, 596.4651
343.3766, 589.2017
343.8587, 581.2166
344.3408, 573.9418
344.8229, 567.4217
345.3051, 561.5670
345.7872, 556.6686
346.2693, 552.5634
346.7514, 547.9145
347.2335, 542.3111
347.7156, 536.2776
348.1978, 530.8323
348.6799, 525.9700
349.1620, 521.5827
349.6441, 517.6786
350.1262, 514.1973
350.6083, 511.0126
351.0905, 508.0894
351.5726, 505.4251
352.0547, 503.0216
352.5368, 500.8634
353.0189, 498.9051
353.5010, 497.0690
353.9832, 495.4422
354.4653, 494.2787
354.9474, 493.5968
355.4295, 492.8059
355.9116, 491.0602
356.3937, 488.9727
356.8759, 487.4885
357.3580, 487.3438
357.8401, 487.5700
358.3222, 487.5758
358.8043, 487.3876
359.2864, 487.1588
359.7686, 487.1825
360.2507, 487.0891
360.7328, 486.5176
361.2149, 485.0564
361.6970, 483.6597
362.1791, 482.8062
362.6613, 482.2930
363.1434, 481.6588
363.6255, 480.5777
364.1076, 479.4775
364.5897, 478.5240
365.0718, 477.7404
365.5540, 477.1512
366.0361, 476.9673
366.5182, 476.9132
367.0003, 476.6589
367.4824, 476.1583
367.9645, 475.4736
368.4467, 474.4976
368.9288, 473.2298
369.4109, 472.2418
369.8930, 471.7487
370.3751, 471.3853
370.8572, 470.8970
371.3394, 470.1077
371.8215, 469.5182
372.3036, 469.2420
372.7857, 469.1891
373.2678, 468.9264
373.7499, 467.9771
374.2321, 467.6505
374.7142, 468.8819
375.1963, 472.3751
375.6784, 474.3425
376.1605, 474.3742
376.6426, 473.3661
377.1248, 472.6586
377.6069, 472.2963
378.0890, 471.9012
378.5711, 471.3170
379.0532, 470.5827
379.5353, 469.9151
380.0175, 469.2446
380.4996, 468.9754
380.9817, 469.8166
381.4638, 471.5952
381.9459, 472.8574
382.4280, 473.1851
382.9102, 472.9879
383.3923, 472.9641
383.8744, 473.1020
384.3565, 473.3158
384.8386, 473.4202
385.3207, 473.5756
385.8029, 474.1039
386.2850, 475.0454
386.7671, 476.3326
387.2492, 478.2692
387.7313, 480.5213
388.2134, 482.2895
388.6956, 482.6152
389.1777, 482.6699
389.6598, 483.7455
390.1419, 485.7850
390.6240, 487.5342
391.1061, 487.8235
391.5883, 487.6210
392.0704, 487.9533
392.5525, 489.3536
393.0346, 490.9992
393.5167, 492.6417
393.9988, 494.2685
394.4810, 495.8588
394.9631, 497.2226
395.4452, 498.6907
395.9273, 500.4310
396.4094, 502.4933
396.8915, 504.7272
397.3737, 507.2471
397.8558, 509.8703
398.3379, 512.3724
398.8200, 514.6125
399.3021, 516.8373
399.7842, 518.9803
400.2664, 521.0369
400.7485, 523.5176
401.2306, 526.7139
401.7127, 530.0052
402.1948, 532.9593
402.6769, 535.2960
403.1591, 537.8859
403.6412, 540.7990
404.1233, 543.9735
404.6054, 547.4151
405.0875, 551.2191
405.5696, 554.9121
406.0518, 558.2588
406.5339, 561.2521
407.0160, 564.3543
407.4981, 567.5956
407.9802, 570.8049
408.4623, 573.5480
408.9445, 575.8652
409.4266, 578.8712
409.9087, 583.0844
410.3908, 587.9872
410.8729, 592.1903
411.3550, 595.7457
411.8372, 599.4960
412.3193, 604.5076
412.8014, 610.1681
413.2835, 615.0062
413.7656, 618.7568
414.2477, 622.0871
414.7299, 625.3893
415.2120, 628.7878
415.6941, 632.4958
416.1762, 637.0041
416.6583, 641.6399
417.1404, 645.5991
417.6226, 648.9299
418.1047, 652.5819
418.5868, 657.3107
419.0689, 662.5422
419.5510, 667.7903
420.0331, 672.5917
420.5153, 677.7833
420.9974, 683.5496
421.4795, 689.9094
421.9616, 696.6874
422.4437, 704.2913
422.9258, 712.0250
423.4080, 719.5004
423.8901, 726.5602
424.3722, 734.1633
424.8543, 741.6171
425.3364, 750.0548
425.8185, 760.6080
426.3007, 774.9502
426.7828, 789.1487
427.2649, 802.3548
427.7470, 814.8039
428.2291, 828.5742
428.7112, 843.9492
429.1934, 859.9720
429.6755, 876.2927
430.1576, 892.6178
430.6397, 910.2913
431.1218, 929.3621
431.6039, 949.6598
432.0861, 971.3192
432.5682, 994.3737
433.0503, 1018.238
433.5324, 1042.655
434.0145, 1067.916
434.4966, 1095.342
434.9788, 1124.985
435.4609, 1155.349
435.9430, 1185.029
436.4251, 1214.775
436.9072, 1246.537
437.3893, 1281.203
437.8715, 1317.216
438.3536, 1353.033
438.8357, 1388.789
439.3178, 1424.846
439.7999, 1461.279
440.2820, 1498.307
440.7642, 1536.344
441.2463, 1575.725
441.7284, 1613.413
442.2105, 1647.916
442.6926, 1680.197
443.1747, 1711.182
443.6569, 1741.219
444.1390, 1769.932
444.6211, 1798.115
445.1032, 1824.984
445.5853, 1847.363
446.0674, 1864.048
446.5496, 1876.987
447.0317, 1887.027
447.5138, 1894.644
447.9959, 1897.927
448.4780, 1896.635
448.9601, 1891.309
449.4423, 1882.306
449.9244, 1869.390
450.4065, 1853.624
450.8886, 1835.213
451.3707, 1814.144
451.8528, 1789.225
452.3350, 1759.487
452.8171, 1728.232
453.2992, 1696.355
453.7813, 1663.686
454.2634, 1631.579
454.7455, 1600.146
455.2277, 1567.991
455.7098, 1531.591
456.1919, 1491.941
456.6740, 1453.433
457.1561, 1418.462
457.6382, 1385.571
458.1204, 1353.495
458.6025, 1321.996
459.0846, 1291.463
459.5667, 1261.204
460.0488, 1232.071
460.5309, 1205.299
461.0131, 1181.513
461.4952, 1158.384
461.9773, 1134.257
462.4594, 1110.100
462.9415, 1086.991
463.4236, 1065.614
463.9058, 1045.465
464.3879, 1026.094
464.8700, 1007.737
465.3521, 990.3650
465.8342, 973.6694
466.3163, 957.9905
466.7985, 943.5618
467.2806, 931.2151
467.7627, 918.6526
468.2448, 905.1222
468.7269, 891.7715
469.2090, 880.1423
469.6912, 870.9551
470.1733, 861.9569
470.6554, 852.5789
471.1375, 842.9049
471.6196, 833.7548
472.1017, 825.1322
472.5839, 816.9889
473.0660, 809.1436
473.5481, 801.6328
474.0302, 794.4819
474.5123, 787.8025
474.9944, 781.2128
475.4766, 773.9979
475.9587, 766.2878
476.4408, 758.8414
476.9229, 752.1127
477.4050, 745.8365
477.8871, 739.5429
478.3693, 733.2805
478.8514, 727.4438
479.3335, 722.8419
479.8156, 718.5770
480.2977, 713.4208
480.7798, 706.7902
481.2620, 700.5710
481.7441, 696.3177
482.2262, 693.0678
482.7083, 689.4047
483.1904, 683.7601
483.6725, 678.6502
484.1547, 675.4930
484.6368, 674.1287
485.1189, 671.9948
485.6010, 667.7832
486.0831, 663.4457
486.5652, 660.0406
487.0474, 658.1917
487.5295, 655.8292
488.0116, 652.4852
488.4937, 648.9995
488.9758, 646.6071
489.4579, 645.6461
489.9401, 644.7596
490.4222, 643.6832
490.9043, 642.4186
491.3864, 640.8141
491.8685, 638.7960
492.3506, 636.9110
492.8328, 635.6345
493.3149, 634.8401
493.7970, 633.9072
494.2791, 632.7704
494.7612, 631.5967
495.2433, 630.6660
495.7255, 629.8465
496.2076, 628.7631
496.6897, 626.9290
497.1718, 625.1261
497.6539, 624.3734
498.1360, 624.3994
498.6182, 624.1249
499.1003, 622.4202
499.5824, 620.6042
500.0645, 619.7855
500.5466, 620.3632
501.0287, 620.5905
501.5109, 619.4802
501.9930, 617.9805
502.4751, 617.0521
502.9572, 617.0103
503.4393, 617.3181
503.9214, 618.1152
504.4036, 619.2242
504.8857, 620.0402
505.3678, 620.4436
505.8499, 620.7689
506.3320, 621.0579
506.8141, 621.2781
507.2963, 622.0151
507.7784, 623.3470
508.2605, 625.0294
508.7426, 626.8163
509.2247, 628.7213
509.7068, 631.0718
510.1890, 634.1664
510.6711, 637.2715
511.1532, 638.8207
511.6353, 639.1135
512.1174, 639.5685
512.5995, 641.1349
513.0817, 643.1557
513.5638, 645.0482
514.0459, 646.7689
514.5280, 647.9205
515.0101, 648.2441
515.4922, 647.8880
515.9744, 646.9550
516.4565, 645.3051
516.9386, 643.4193
517.4207, 640.5519
517.9028, 637.7303
518.3849, 636.6351
518.8671, 641.1523
519.3492, 643.4922
519.8313, 641.1205
520.3134, 634.4392
520.7955, 629.1310
521.2776, 625.5450
521.7598, 622.7922
522.2419, 620.6113
522.7240, 619.2061
523.2061, 617.1285
523.6882, 614.1735
524.1703, 610.9084
524.6525, 608.0100
525.1346, 605.4600
525.6167, 603.1285
526.0988, 600.9713
526.5809, 599.0731
527.0630, 597.8408
527.5452, 597.1462
528.0273, 596.2083
528.5094, 593.8792
528.9915, 591.4111
529.4736, 590.4122
529.9557, 591.0401
530.4379, 591.7492
530.9200, 591.5290
531.4021, 590.9650
531.8842, 590.6170
532.3663, 590.4925
532.8484, 590.7609
533.3306, 591.6666
533.8127, 592.9744
534.2948, 594.1739
534.7769, 595.3067
535.2590, 596.2379
535.7411, 596.7725
536.2233, 596.9385
536.7054, 597.7571
537.1875, 599.4420
537.6696, 601.3773
538.1517, 603.1285
538.6339, 604.6412
539.1160, 606.7053
539.5981, 609.5272
540.0802, 612.4303
540.5623, 614.4365
541.0444, 615.7062
541.5266, 617.1664
542.0087, 618.9594
542.4908, 621.2471
542.9729, 625.1212
543.4550, 629.9265
543.9371, 633.1910
544.4193, 631.5480
544.9014, 629.0987
545.3835, 629.6932
545.8656, 633.8173
546.3477, 637.4531
546.8298, 638.6242
547.3120, 638.8242
547.7941, 639.2670
548.2762, 640.1695
548.7583, 641.3020
549.2404, 643.0840
549.7225, 644.9520
550.2047, 645.9195
550.6868, 645.6744
551.1689, 645.1182
551.6510, 644.4460
552.1331, 643.6517
552.6152, 642.6023
553.0974, 641.2193
553.5795, 640.0146
554.0616, 639.4870
554.5437, 639.5019
555.0258, 639.2159
555.5079, 638.5662
555.9901, 637.8072
556.4722, 637.0609
556.9543, 636.4136
557.4364, 636.0981
557.9185, 636.4711
558.4006, 636.7166
558.8828, 636.0731
559.3649, 634.7944
559.8470, 633.4648
560.3291, 632.0167
560.8112, 630.8152
561.2933, 630.2245
561.7755, 630.2485
562.2576, 629.7449
562.7397, 627.4590
563.2218, 625.5026
563.7039, 625.1048
564.1860, 627.4805
564.6682, 628.1252
565.1503, 626.3475
565.6324, 623.7292
566.1145, 622.4100
566.5966, 622.5463
567.0787, 622.4905
567.5609, 621.8297
568.0430, 620.8804
568.5251, 620.2684
569.0072, 619.9833
569.4893, 619.9445
569.9714, 620.2158
570.4536, 620.6557
570.9357, 621.0216
571.4178, 621.3182
571.8999, 621.7600
572.3820, 622.3021
572.8641, 623.1445
573.3463, 624.5461
573.8284, 626.8353
574.3105, 628.9227
574.7926, 630.1898
575.2747, 631.1738
575.7568, 632.5464
576.2390, 634.5873
576.7211, 636.7141
577.2032, 638.6822
577.6853, 640.7125
578.1674, 643.5512
578.6495, 647.3801
579.1317, 651.5152
579.6138, 655.8888
580.0959, 660.4003
580.5780, 663.9525
581.0601, 666.4841
581.5422, 669.1096
582.0244, 672.8844
582.5065, 677.4935
582.9886, 681.9533
583.4707, 686.0944
583.9528, 690.6772
584.4349, 696.3834
584.9171, 702.9860
585.3992, 710.1666
585.8813, 719.0969
586.3634, 727.2125
586.8455, 732.3504
587.3276, 735.7557
587.8098, 740.6464
588.2919, 748.7869
588.7740, 757.3365
589.2561, 765.5001
589.7382, 773.2664
590.2203, 781.0668
590.7025, 788.7128
591.1846, 796.5748
591.6667, 804.9656
592.1488, 813.9706
592.6309, 822.6746
593.1130, 830.9824
593.5952, 839.4246
594.0773, 848.8285
594.5594, 859.0051
595.0415, 869.0138
595.5236, 878.7662
596.0057, 888.1977
596.4879, 896.5489
596.9700, 904.4404
597.4521, 913.2465
597.9342, 925.5009
598.4163, 937.2006
598.8984, 945.4545
599.3806, 950.6725
599.8627, 956.7599
600.3448, 966.2339
600.8269, 975.3512
601.3090, 982.2258
601.7911, 986.0896
602.2733, 990.8718
602.7554, 997.1794
603.2375, 1003.538
603.7196, 1008.624
604.2017, 1012.476
604.6838, 1014.994
605.1660, 1016.044
605.6481, 1016.106
606.1302, 1016.088
606.6123, 1015.811
607.0944, 1014.452
607.5765, 1011.722
608.0587, 1007.722
608.5408, 1002.168
609.0229, 995.3420
609.5050, 988.0557
609.9871, 981.1404
610.4692, 973.6225
610.9514, 964.8062
611.4335, 954.5172
611.9156, 943.9250
612.3977, 933.3390
612.8798, 922.4267
613.3619, 911.1650
613.8441, 899.3983
614.3262, 887.2390
614.8083, 874.3683
615.2904, 861.4545
615.7725, 849.7675
616.2546, 839.4195
616.7368, 828.4619
617.2189, 816.2485
617.7010, 803.4641
618.1831, 791.3239
618.6652, 779.7664
619.1473, 768.4617
619.6295, 756.9623
620.1116, 745.9700
620.5937, 736.2953
621.0758, 727.8438
621.5579, 719.8556
622.0400, 712.4894
622.5222, 705.2576
623.0043, 697.9083
623.4864, 690.4002
623.9685, 682.8602
624.4506, 674.8654
624.9327, 667.1912
625.4149, 660.3516
625.8970, 654.6135
626.3791, 649.1518
626.8612, 644.0613
627.3433, 639.0369
627.8254, 633.5842
628.3076, 627.7266
628.7897, 621.8621
629.2718, 615.7914
629.7539, 610.2344
630.2360, 607.0780
630.7181, 605.5751
631.2003, 603.3976
631.6824, 598.4910
632.1645, 593.1423
632.6466, 589.1490
633.1287, 586.3596
633.6108, 583.7834
634.0930, 581.1278
634.5751, 578.5139
635.0572, 575.9745
635.5393, 573.4320
636.0214, 571.3213
636.5035, 569.9182
636.9857, 568.5982
637.4678, 566.7613
637.9499, 564.2459
638.4320, 562.4427
638.9141, 561.5264
639.3962, 561.1210
639.8784, 560.9354
640.3605, 560.8878
640.8426, 560.5917
641.3247, 559.8666
641.8068, 558.9998
642.2889, 558.0206
642.7711, 557.1451
643.2532, 556.8353
643.7353, 557.5966
644.2174, 558.6956
644.6995, 559.9200
645.1816, 561.2276
645.6638, 562.4363
646.1459, 563.5315
646.6280, 564.4885
647.1101, 565.0884
647.5922, 565.2425
648.0743, 566.5787
648.5565, 569.3254
649.0386, 572.6321
649.5207, 575.8781
650.0028, 579.0629
650.4849, 582.1093
650.9670, 584.9024
651.4492, 588.0870
651.9313, 592.4461
652.4134, 597.6502
652.8955, 603.0573
653.3776, 608.7760
653.8597, 614.2824
654.3419, 618.7435
654.8240, 622.9366
655.3061, 627.9792
655.7882, 635.4787
656.2703, 642.3812
656.7524, 647.4897
657.2346, 651.5314
657.7167, 656.6784
658.1988, 663.3068
658.6809, 670.2549
659.1630, 677.3860
659.6451, 684.5315
660.1273, 690.5833
660.6094, 695.5740
661.0915, 700.0740
661.5736, 704.4054
662.0557, 708.5861
662.5378, 712.8942
663.0200, 717.3264
663.5021, 720.9305
663.9842, 723.0693
664.4663, 724.0381
664.9484, 724.0497
665.4305, 723.0521
665.9127, 721.3964
666.3948, 719.5247
666.8769, 716.8172
667.3590, 712.6450
667.8411, 706.4825
668.3232, 700.0526
668.8054, 693.6172
669.2875, 686.9160
669.7696, 679.3432
670.2517, 670.8768
