##NAMES=Lipuite
##RRUFFID=R140946
##IDEAL CHEMISTRY=KNa_8_Mn^3+^_5_Mg_0.5_(Si_12_O_30_(OH)_4_)(PO_4_)O_2_(OH)_2_&#183;4H_2_O
##LOCALITY=N'Chwaning III mine, Kalahari manganese field, Northern Cape Province, South Africa
##OWNER=RRUFF
##SOURCE=Jaco and Tania Janse van Nieuwenhuizen
##DESCRIPTION=Dark reddish brown massive crystalline, associated with sugilite (R130754)
##STATUS=The identification of this mineral is confirmed by single-crystal X-ray diffraction and chemical analysis.
##URL=rruff.info/R140946
##MEASURED CHEMISTRY=K_1.11_Na_8.16_(Mn^3+^_4.86_Fe^3+^_0.14_)Mg_0.39_[Si_12.08_O_30_(OH)_4_](P_0.95_O_4_)O_2_(OH)_2_Â·4H_2_O
179.4569, 487.9778
179.9390, 486.6433
180.4211, 485.1753
180.9033, 485.4551
181.3854, 487.1400
181.8675, 488.5821
182.3496, 488.5115
182.8317, 487.5221
183.3138, 487.0274
183.7960, 487.2191
184.2781, 487.8101
184.7602, 488.3933
185.2423, 488.9940
185.7244, 489.7878
186.2065, 491.1100
186.6887, 492.7610
187.1708, 493.9518
187.6529, 494.4762
188.1350, 494.7508
188.6171, 495.5477
189.0992, 496.8565
189.5814, 498.0994
190.0635, 498.6864
190.5456, 498.7781
191.0277, 499.4135
191.5098, 500.7521
191.9919, 502.6241
192.4741, 504.8887
192.9562, 507.5702
193.4383, 509.9635
193.9204, 511.1760
194.4025, 511.3191
194.8846, 512.4499
195.3668, 515.0693
195.8489, 518.5100
196.3310, 521.1458
196.8131, 522.8910
197.2952, 524.4606
197.7773, 526.3491
198.2595, 528.5571
198.7416, 530.8362
199.2237, 533.2872
199.7058, 535.6662
200.1879, 537.1369
200.6700, 537.5663
201.1522, 537.7668
201.6343, 538.4364
202.1164, 539.6837
202.5985, 540.2980
203.0806, 540.0624
203.5627, 539.1366
204.0449, 538.0428
204.5270, 536.8335
205.0091, 535.2712
205.4912, 533.1510
205.9733, 530.4158
206.4554, 527.4396
206.9376, 524.2304
207.4197, 520.8289
207.9018, 517.1943
208.3839, 513.2004
208.8660, 509.2885
209.3481, 505.8319
209.8303, 502.8960
210.3124, 500.0700
210.7945, 497.3309
211.2766, 494.6835
211.7587, 492.0563
212.2408, 489.4975
212.7230, 486.8482
213.2051, 483.8849
213.6872, 480.4075
214.1693, 477.2779
214.6514, 474.6375
215.1335, 472.4053
215.6157, 470.4029
216.0978, 468.7300
216.5799, 467.0443
217.0620, 465.0751
217.5441, 462.6900
218.0262, 460.3510
218.5084, 458.0099
218.9905, 455.7145
219.4726, 453.8820
219.9547, 452.7284
220.4368, 451.6300
220.9189, 450.1193
221.4011, 447.8320
221.8832, 446.1152
222.3653, 445.2608
222.8474, 445.0701
223.3295, 444.5392
223.8116, 443.3922
224.2938, 442.3646
224.7759, 442.0086
225.2580, 442.8277
225.7401, 443.0576
226.2222, 442.3061
226.7043, 440.8651
227.1865, 439.9194
227.6686, 439.5354
228.1507, 439.5649
228.6328, 440.0285
229.1149, 441.2981
229.5970, 442.1099
230.0792, 442.2587
230.5613, 441.8969
231.0434, 441.5806
231.5255, 441.2432
232.0076, 441.0681
232.4897, 441.1866
232.9719, 441.7539
233.4540, 442.2715
233.9361, 442.6368
234.4182, 442.9542
234.9003, 443.5895
235.3824, 444.6165
235.8646, 445.8560
236.3467, 447.2329
236.8288, 448.7835
237.3109, 450.4135
237.7930, 452.3314
238.2751, 454.2892
238.7573, 455.3877
239.2394, 454.9442
239.7215, 454.6067
240.2036, 455.2294
240.6857, 457.5986
241.1678, 459.1071
241.6500, 459.4869
242.1321, 459.0712
242.6142, 458.6790
243.0963, 458.2700
243.5784, 457.9478
244.0605, 457.7545
244.5427, 457.6834
245.0248, 457.7818
245.5069, 458.1884
245.9890, 458.7168
246.4711, 459.0361
246.9532, 459.4864
247.4354, 459.1840
247.9175, 457.6878
248.3996, 454.6017
248.8817, 451.5510
249.3638, 448.2599
249.8459, 445.1693
250.3281, 443.1512
250.8102, 442.6182
251.2923, 442.4538
251.7744, 442.3095
252.2565, 442.1755
252.7386, 442.0927
253.2208, 441.9254
253.7029, 441.9104
254.1850, 442.4760
254.6671, 443.9054
255.1492, 445.3595
255.6313, 446.5858
256.1135, 447.5559
256.5956, 448.3658
257.0777, 448.7856
257.5598, 449.2390
258.0419, 450.4082
258.5240, 452.7107
259.0062, 454.7232
259.4883, 455.9321
259.9704, 456.2357
260.4525, 457.0285
260.9346, 458.6105
261.4167, 460.2999
261.8989, 461.2459
262.3810, 461.1536
262.8631, 461.1121
263.3452, 461.4474
263.8273, 462.1660
264.3094, 462.5047
264.7916, 462.3306
265.2737, 462.0222
265.7558, 461.8595
266.2379, 461.7383
266.7200, 462.1719
267.2021, 463.4752
267.6843, 465.5146
268.1664, 466.9398
268.6485, 467.5019
269.1306, 467.9527
269.6127, 468.9022
270.0948, 470.3990
270.5770, 472.1234
271.0591, 474.0179
271.5412, 476.0717
272.0233, 478.3430
272.5054, 480.8209
272.9875, 483.4276
273.4697, 486.1145
273.9518, 488.9185
274.4339, 491.7060
274.9160, 494.4666
275.3981, 497.1887
275.8802, 499.8559
276.3624, 502.3853
276.8445, 505.0482
277.3266, 508.0254
277.8087, 511.3328
278.2908, 514.7764
278.7729, 518.3544
279.2551, 522.0501
279.7372, 525.8940
280.2193, 529.9958
280.7014, 533.6205
281.1835, 536.1754
281.6656, 537.6810
282.1478, 539.5038
282.6299, 541.6907
283.1120, 544.2273
283.5941, 547.3356
284.0762, 551.0753
284.5583, 554.4066
285.0405, 556.8561
285.5226, 558.4742
286.0047, 559.8240
286.4868, 561.0097
286.9689, 561.5842
287.4510, 560.5417
287.9332, 557.9677
288.4153, 555.6627
288.8974, 554.8892
289.3795, 554.9951
289.8616, 553.3083
290.3438, 549.6503
290.8259, 545.4249
291.3080, 542.0582
291.7901, 539.4791
292.2722, 537.1200
292.7543, 535.1666
293.2365, 533.1735
293.7186, 529.8666
294.2007, 525.2565
294.6828, 520.4241
295.1649, 516.3810
295.6470, 512.9413
296.1292, 509.3324
296.6113, 505.3105
297.0934, 501.1335
297.5755, 497.0532
298.0576, 493.0734
298.5397, 489.4207
299.0219, 486.0385
299.5040, 483.0747
299.9861, 480.9268
300.4682, 479.7729
300.9503, 479.2573
301.4324, 479.4442
301.9146, 480.0800
302.3967, 480.0930
302.8788, 477.8488
303.3609, 474.8691
303.8430, 473.5164
304.3251, 474.3475
304.8073, 475.9088
305.2894, 476.8830
305.7715, 477.5362
306.2536, 478.5511
306.7357, 480.4816
307.2178, 482.8249
307.7000, 485.0287
308.1821, 487.0222
308.6642, 489.0866
309.1463, 491.3568
309.6284, 493.8265
310.1105, 496.5273
310.5927, 499.5006
311.0748, 502.6444
311.5569, 505.9300
312.0390, 509.3575
312.5211, 512.9054
313.0032, 516.5828
313.4854, 520.4164
313.9675, 524.3869
314.4496, 529.0963
314.9317, 533.3959
315.4138, 536.2902
315.8959, 538.0712
316.3781, 540.5837
316.8602, 545.4108
317.3423, 550.8039
317.8244, 555.4968
318.3065, 559.1266
318.7886, 562.1458
319.2708, 564.0214
319.7529, 565.2800
320.2350, 567.4169
320.7171, 571.7104
321.1992, 576.3282
321.6813, 580.4318
322.1635, 583.9777
322.6456, 586.8343
323.1277, 588.3531
323.6098, 589.2513
324.0919, 590.7380
324.5740, 594.0090
325.0562, 596.9468
325.5383, 598.7762
326.0204, 599.1566
326.5025, 599.6870
326.9846, 600.5077
327.4667, 601.5179
327.9489, 602.6228
328.4310, 603.9005
328.9131, 605.2032
329.3952, 606.4739
329.8773, 607.7112
330.3594, 609.2050
330.8416, 611.2009
331.3237, 613.2332
331.8058, 614.9348
332.2879, 615.9321
332.7700, 617.2490
333.2521, 619.0983
333.7343, 621.3581
334.2164, 623.4698
334.6985, 625.3893
335.1806, 627.1786
335.6627, 628.9634
336.1448, 630.9827
336.6270, 632.1777
337.1091, 632.4046
337.5912, 631.8691
338.0733, 630.9947
338.5554, 629.8496
339.0375, 628.1852
339.5197, 625.8359
340.0018, 622.8017
340.4839, 619.5569
340.9660, 616.2634
341.4481, 612.5394
341.9302, 608.0049
342.4124, 602.6096
342.8945, 596.4651
343.3766, 589.2017
343.8587, 581.2166
344.3408, 573.9418
344.8229, 567.4217
345.3051, 561.5670
345.7872, 556.6686
346.2693, 552.5634
346.7514, 547.9145
347.2335, 542.3111
347.7156, 536.2776
348.1978, 530.8323
348.6799, 525.9700
349.1620, 521.5827
349.6441, 517.6786
350.1262, 514.1973
350.6083, 511.0126
351.0905, 508.0894
351.5726, 505.4251
352.0547, 503.0216
352.5368, 500.8634
353.0189, 498.9051
353.5010, 497.0690
353.9832, 495.4422
354.4653, 494.2787
354.9474, 493.5968
355.4295, 492.8059
355.9116, 491.0602
356.3937, 488.9727
356.8759, 487.4885
357.3580, 487.3438
357.8401, 487.5700
358.3222, 487.5758
358.8043, 487.3876
359.2864, 487.1588
359.7686, 487.1825
360.2507, 487.0891
360.7328, 486.5176
361.2149, 485.0564
361.6970, 483.6597
362.1791, 482.8062
362.6613, 482.2930
363.1434, 481.6588
363.6255, 480.5777
364.1076, 479.4775
364.5897, 478.5240
365.0718, 477.7404
365.5540, 477.1512
366.0361, 476.9673
366.5182, 476.9132
367.0003, 476.6589
367.4824, 476.1583
367.9645, 475.4736
368.4467, 474.4976
368.9288, 473.2298
369.4109, 472.2418
369.8930, 471.7487
370.3751, 471.3853
370.8572, 470.8970
371.3394, 470.1077
371.8215, 469.5182
372.3036, 469.2420
372.7857, 469.1891
373.2678, 468.9264
373.7499, 467.9771
374.2321, 467.6505
374.7142, 468.8819
375.1963, 472.3751
375.6784, 474.3425
376.1605, 474.3742
376.6426, 473.3661
377.1248, 472.6586
377.6069, 472.2963
378.0890, 471.9012
378.5711, 471.3170
379.0532, 470.5827
379.5353, 469.9151
380.0175, 469.2446
380.4996, 468.9754
380.9817, 469.8166
381.4638, 471.5952
381.9459, 472.8574
382.4280, 473.1851
382.9102, 472.9879
383.3923, 472.9641
383.8744, 473.1020
384.3565, 473.3158
384.8386, 473.4202
385.3207, 473.5756
385.8029, 474.1039
386.2850, 475.0454
386.7671, 476.3326
387.2492, 478.2692
387.7313, 480.5213
388.2134, 482.2895
388.6956, 482.6152
389.1777, 482.6699
389.6598, 483.7455
390.1419, 485.7850
390.6240, 487.5342
391.1061, 487.8235
391.5883, 487.6210
392.0704, 487.9533
392.5525, 489.3536
393.0346, 490.9992
393.5167, 492.6417
393.9988, 494.2685
394.4810, 495.8588
394.9631, 497.2226
395.4452, 498.6907
395.9273, 500.4310
396.4094, 502.4933
396.8915, 504.7272
397.3737, 507.2471
397.8558, 509.8703
398.3379, 512.3724
398.8200, 514.6125
399.3021, 516.8373
399.7842, 518.9803
400.2664, 521.0369
400.7485, 523.5176
401.2306, 526.7139
401.7127, 530.0052
402.1948, 532.9593
402.6769, 535.2960
403.1591, 537.8859
403.6412, 540.7990
404.1233, 543.9735
404.6054, 547.4151
405.0875, 551.2191
405.5696, 554.9121
406.0518, 558.2588
406.5339, 561.2521
407.0160, 564.3543
407.4981, 567.5956
407.9802, 570.8049
408.4623, 573.5480
408.9445, 575.8652
409.4266, 578.8712
409.9087, 583.0844
410.3908, 587.9872
410.8729, 592.1903
411.3550, 595.7457
411.8372, 599.4960
412.3193, 604.5076
412.8014, 610.1681
413.2835, 615.0062
413.7656, 618.7568
414.2477, 622.0871
414.7299, 625.3893
415.2120, 628.7878
415.6941, 632.4958
416.1762, 637.0041
416.6583, 641.6399
417.1404, 645.5991
417.6226, 648.9299
418.1047, 652.5819
418.5868, 657.3107
419.0689, 662.5422
419.5510, 667.7903
420.0331, 672.5917
420.5153, 677.7833
420.9974, 683.5496
421.4795, 689.9094
421.9616, 696.6874
422.4437, 704.2913
422.9258, 712.0250
423.4080, 719.5004
423.8901, 726.5602
424.3722, 734.1633
424.8543, 741.6171
425.3364, 750.0548
425.8185, 760.6080
426.3007, 774.9502
426.7828, 789.1487
427.2649, 802.3548
427.7470, 814.8039
428.2291, 828.5742
428.7112, 843.9492
429.1934, 859.9720
429.6755, 876.2927
430.1576, 892.6178
430.6397, 910.2913
431.1218, 929.3621
431.6039, 949.6598
432.0861, 971.3192
432.5682, 994.3737
433.0503, 1018.238
433.5324, 1042.655
434.0145, 1067.916
434.4966, 1095.342
434.9788, 1124.985
435.4609, 1155.349
435.9430, 1185.029
436.4251, 1214.775
436.9072, 1246.537
437.3893, 1281.203
437.8715, 1317.216
438.3536, 1353.033
438.8357, 1388.789
439.3178, 1424.846
439.7999, 1461.279
440.2820, 1498.307
440.7642, 1536.344
441.2463, 1575.725
441.7284, 1613.413
442.2105, 1647.916
442.6926, 1680.197
443.1747, 1711.182
443.6569, 1741.219
444.1390, 1769.932
444.6211, 1798.115
445.1032, 1824.984
445.5853, 1847.363
446.0674, 1864.048
446.5496, 1876.987
447.0317, 1887.027
447.5138, 1894.644
447.9959, 1897.927
448.4780, 1896.635
448.9601, 1891.309
449.4423, 1882.306
449.9244, 1869.390
450.4065, 1853.624
450.8886, 1835.213
451.3707, 1814.144
451.8528, 1789.225
452.3350, 1759.487
452.8171, 1728.232
453.2992, 1696.355
453.7813, 1663.686
454.2634, 1631.579
454.7455, 1600.146
455.2277, 1567.991
455.7098, 1531.591
456.1919, 1491.941
456.6740, 1453.433
457.1561, 1418.462
457.6382, 1385.571
458.1204, 1353.495
458.6025, 1321.996
459.0846, 1291.463
459.5667, 1261.204
460.0488, 1232.071
460.5309, 1205.299
461.0131, 1181.513
461.4952, 1158.384
461.9773, 1134.257
462.4594, 1110.100
462.9415, 1086.991
463.4236, 1065.614
463.9058, 1045.465
464.3879, 1026.094
464.8700, 1007.737
465.3521, 990.3650
465.8342, 973.6694
466.3163, 957.9905
466.7985, 943.5618
467.2806, 931.2151
467.7627, 918.6526
468.2448, 905.1222
468.7269, 891.7715
469.2090, 880.1423
469.6912, 870.9551
470.1733, 861.9569
470.6554, 852.5789
471.1375, 842.9049
471.6196, 833.7548
472.1017, 825.1322
472.5839, 816.9889
473.0660, 809.1436
473.5481, 801.6328
474.0302, 794.4819
474.5123, 787.8025
474.9944, 781.2128
475.4766, 773.9979
475.9587, 766.2878
476.4408, 758.8414
476.9229, 752.1127
477.4050, 745.8365
477.8871, 739.5429
478.3693, 733.2805
478.8514, 727.4438
479.3335, 722.8419
479.8156, 718.5770
480.2977, 713.4208
480.7798, 706.7902
481.2620, 700.5710
481.7441, 696.3177
482.2262, 693.0678
482.7083, 689.4047
483.1904, 683.7601
483.6725, 678.6502
484.1547, 675.4930
484.6368, 674.1287
485.1189, 671.9948
485.6010, 667.7832
486.0831, 663.4457
486.5652, 660.0406
487.0474, 658.1917
487.5295, 655.8292
488.0116, 652.4852
488.4937, 648.9995
488.9758, 646.6071
489.4579, 645.6461
489.9401, 644.7596
490.4222, 643.6832
490.9043, 642.4186
491.3864, 640.8141
491.8685, 638.7960
492.3506, 636.9110
492.8328, 635.6345
493.3149, 634.8401
493.7970, 633.9072
494.2791, 632.7704
494.7612, 631.5967
495.2433, 630.6660
495.7255, 629.8465
496.2076, 628.7631
496.6897, 626.9290
497.1718, 625.1261
497.6539, 624.3734
498.1360, 624.3994
498.6182, 624.1249
499.1003, 622.4202
499.5824, 620.6042
500.0645, 619.7855
500.5466, 620.3632
501.0287, 620.5905
501.5109, 619.4802
501.9930, 617.9805
502.4751, 617.0521
502.9572, 617.0103
503.4393, 617.3181
503.9214, 618.1152
504.4036, 619.2242
504.8857, 620.0402
505.3678, 620.4436
505.8499, 620.7689
506.3320, 621.0579
506.8141, 621.2781
507.2963, 622.0151
507.7784, 623.3470
508.2605, 625.0294
508.7426, 626.8163
509.2247, 628.7213
509.7068, 631.0718
510.1890, 634.1664
510.6711, 637.2715
511.1532, 638.8207
511.6353, 639.1135
512.1174, 639.5685
512.5995, 641.1349
513.0817, 643.1557
513.5638, 645.0482
514.0459, 646.7689
514.5280, 647.9205
515.0101, 648.2441
515.4922, 647.8880
515.9744, 646.9550
516.4565, 645.3051
516.9386, 643.4193
517.4207, 640.5519
517.9028, 637.7303
518.3849, 636.6351
518.8671, 641.1523
519.3492, 643.4922
519.8313, 641.1205
520.3134, 634.4392
520.7955, 629.1310
521.2776, 625.5450
521.7598, 622.7922
522.2419, 620.6113
522.7240, 619.2061
523.2061, 617.1285
523.6882, 614.1735
524.1703, 610.9084
524.6525, 608.0100
525.1346, 605.4600
525.6167, 603.1285
526.0988, 600.9713
526.5809, 599.0731
527.0630, 597.8408
527.5452, 597.1462
528.0273, 596.2083
528.5094, 593.8792
528.9915, 591.4111
529.4736, 590.4122
529.9557, 591.0401
530.4379, 591.7492
530.9200, 591.5290
531.4021, 590.9650
531.8842, 590.6170
532.3663, 590.4925
532.8484, 590.7609
533.3306, 591.6666
533.8127, 592.9744
534.2948, 594.1739
534.7769, 595.3067
535.2590, 596.2379
535.7411, 596.7725
536.2233, 596.9385
536.7054, 597.7571
537.1875, 599.4420
537.6696, 601.3773
538.1517, 603.1285
538.6339, 604.6412
539.1160, 606.7053
539.5981, 609.5272
540.0802, 612.4303
540.5623, 614.4365
541.0444, 615.7062
541.5266, 617.1664
542.0087, 618.9594
542.4908, 621.2471
542.9729, 625.1212
543.4550, 629.9265
543.9371, 633.1910
544.4193, 631.5480
544.9014, 629.0987
545.3835, 629.6932
545.8656, 633.8173
546.3477, 637.4531
546.8298, 638.6242
547.3120, 638.8242
547.7941, 639.2670
548.2762, 640.1695
548.7583, 641.3020
549.2404, 643.0840
549.7225, 644.9520
550.2047, 645.9195
550.6868, 645.6744
551.1689, 645.1182
551.6510, 644.4460
552.1331, 643.6517
552.6152, 642.6023
553.0974, 641.2193
553.5795, 640.0146
554.0616, 639.4870
554.5437, 639.5019
555.0258, 639.2159
555.5079, 638.5662
555.9901, 637.8072
556.4722, 637.0609
556.9543, 636.4136
557.4364, 636.0981
557.9185, 636.4711
558.4006, 636.7166
558.8828, 636.0731
559.3649, 634.7944
559.8470, 633.4648
560.3291, 632.0167
560.8112, 630.8152
561.2933, 630.2245
561.7755, 630.2485
562.2576, 629.7449
562.7397, 627.4590
563.2218, 625.5026
563.7039, 625.1048
564.1860, 627.4805
564.6682, 628.1252
565.1503, 626.3475
565.6324, 623.7292
566.1145, 622.4100
566.5966, 622.5463
567.0787, 622.4905
567.5609, 621.8297
568.0430, 620.8804
568.5251, 620.2684
569.0072, 619.9833
569.4893, 619.9445
569.9714, 620.2158
570.4536, 620.6557
570.9357, 621.0216
571.4178, 621.3182
571.8999, 621.7600
572.3820, 622.3021
572.8641, 623.1445
573.3463, 624.5461
573.8284, 626.8353
574.3105, 628.9227
574.7926, 630.1898
575.2747, 631.1738
575.7568, 632.5464
576.2390, 634.5873
576.7211, 636.7141
577.2032, 638.6822
577.6853, 640.7125
578.1674, 643.5512
578.6495, 647.3801
579.1317, 651.5152
579.6138, 655.8888
580.0959, 660.4003
580.5780, 663.9525
581.0601, 666.4841
581.5422, 669.1096
582.0244, 672.8844
582.5065, 677.4935
582.9886, 681.9533
583.4707, 686.0944
583.9528, 690.6772
584.4349, 696.3834
584.9171, 702.9860
585.3992, 710.1666
585.8813, 719.0969
586.3634, 727.2125
586.8455, 732.3504
587.3276, 735.7557
587.8098, 740.6464
588.2919, 748.7869
588.7740, 757.3365
589.2561, 765.5001
589.7382, 773.2664
590.2203, 781.0668
590.7025, 788.7128
591.1846, 796.5748
591.6667, 804.9656
592.1488, 813.9706
592.6309, 822.6746
593.1130, 830.9824
593.5952, 839.4246
594.0773, 848.8285
594.5594, 859.0051
595.0415, 869.0138
595.5236, 878.7662
596.0057, 888.1977
596.4879, 896.5489
596.9700, 904.4404
597.4521, 913.2465
597.9342, 925.5009
598.4163, 937.2006
598.8984, 945.4545
599.3806, 950.6725
599.8627, 956.7599
600.3448, 966.2339
600.8269, 975.3512
601.3090, 982.2258
601.7911, 986.0896
602.2733, 990.8718
602.7554, 997.1794
603.2375, 1003.538
603.7196, 1008.624
604.2017, 1012.476
604.6838, 1014.994
605.1660, 1016.044
605.6481, 1016.106
606.1302, 1016.088
606.6123, 1015.811
607.0944, 1014.452
607.5765, 1011.722
608.0587, 1007.722
608.5408, 1002.168
609.0229, 995.3420
609.5050, 988.0557
609.9871, 981.1404
610.4692, 973.6225
610.9514, 964.8062
611.4335, 954.5172
611.9156, 943.9250
612.3977, 933.3390
612.8798, 922.4267
613.3619, 911.1650
613.8441, 899.3983
614.3262, 887.2390
614.8083, 874.3683
615.2904, 861.4545
615.7725, 849.7675
616.2546, 839.4195
616.7368, 828.4619
617.2189, 816.2485
617.7010, 803.4641
618.1831, 791.3239
618.6652, 779.7664
619.1473, 768.4617
619.6295, 756.9623
620.1116, 745.9700
620.5937, 736.2953
621.0758, 727.8438
621.5579, 719.8556
622.0400, 712.4894
622.5222, 705.2576
623.0043, 697.9083
623.4864, 690.4002
623.9685, 682.8602
624.4506, 674.8654
624.9327, 667.1912
625.4149, 660.3516
625.8970, 654.6135
626.3791, 649.1518
626.8612, 644.0613
627.3433, 639.0369
627.8254, 633.5842
628.3076, 627.7266
628.7897, 621.8621
629.2718, 615.7914
629.7539, 610.2344
630.2360, 607.0780
630.7181, 605.5751
631.2003, 603.3976
631.6824, 598.4910
632.1645, 593.1423
632.6466, 589.1490
633.1287, 586.3596
633.6108, 583.7834
634.0930, 581.1278
634.5751, 578.5139
635.0572, 575.9745
635.5393, 573.4320
636.0214, 571.3213
636.5035, 569.9182
636.9857, 568.5982
637.4678, 566.7613
637.9499, 564.2459
638.4320, 562.4427
638.9141, 561.5264
639.3962, 561.1210
639.8784, 560.9354
640.3605, 560.8878
640.8426, 560.5917
641.3247, 559.8666
641.8068, 558.9998
642.2889, 558.0206
642.7711, 557.1451
643.2532, 556.8353
643.7353, 557.5966
644.2174, 558.6956
644.6995, 559.9200
645.1816, 561.2276
645.6638, 562.4363
646.1459, 563.5315
646.6280, 564.4885
647.1101, 565.0884
647.5922, 565.2425
648.0743, 566.5787
648.5565, 569.3254
649.0386, 572.6321
649.5207, 575.8781
650.0028, 579.0629
650.4849, 582.1093
650.9670, 584.9024
651.4492, 588.0870
651.9313, 592.4461
652.4134, 597.6502
652.8955, 603.0573
653.3776, 608.7760
653.8597, 614.2824
654.3419, 618.7435
654.8240, 622.9366
655.3061, 627.9792
655.7882, 635.4787
656.2703, 642.3812
656.7524, 647.4897
657.2346, 651.5314
657.7167, 656.6784
658.1988, 663.3068
658.6809, 670.2549
659.1630, 677.3860
659.6451, 684.5315
660.1273, 690.5833
660.6094, 695.5740
661.0915, 700.0740
661.5736, 704.4054
662.0557, 708.5861
662.5378, 712.8942
663.0200, 717.3264
663.5021, 720.9305
663.9842, 723.0693
664.4663, 724.0381
664.9484, 724.0497
665.4305, 723.0521
665.9127, 721.3964
666.3948, 719.5247
666.8769, 716.8172
667.3590, 712.6450
667.8411, 706.4825
668.3232, 700.0526
668.8054, 693.6172
669.2875, 686.9160
669.7696, 679.3432
670.2517, 670.8768
670.7338, 662.5948
671.2159, 654.8925
671.6981, 647.5685
672.1802, 640.4022
672.6623, 633.4139
673.1444, 626.4163
673.6265, 619.2438
674.1086, 612.1935
674.5908, 605.5190
675.0729, 599.2413
675.5550, 593.0608
676.0371, 586.5253
676.5192, 580.4282
677.0013, 575.0250
677.4835, 570.3182
677.9656, 566.1110
678.4477, 562.5950
678.9298, 559.1685
679.4119, 555.4030
679.8940, 551.2457
680.3762, 547.2654
680.8583, 543.3858
681.3404, 539.9077
681.8225, 537.2366
682.3046, 535.1434
682.7867, 533.1217
683.2689, 531.1188
683.7510, 529.0563
684.2331, 526.8705
684.7152, 524.6339
685.1973, 522.4910
685.6794, 520.0682
686.1616, 518.2108
686.6437, 517.4722
687.1258, 517.2878
687.6079, 516.6526
688.0900, 515.3724
688.5721, 514.1760
689.0543, 513.2770
689.5364, 512.5596
690.0185, 511.6429
690.5006, 510.5341
690.9827, 509.4588
691.4648, 508.5756
691.9470, 507.7578
692.4291, 506.8418
692.9112, 505.8134
693.3933, 504.6046
693.8754, 503.1368
694.3575, 501.4977
694.8397, 499.6213
695.3218, 497.4633
695.8039, 495.6813
696.2860, 494.4234
696.7681, 493.5078
697.2502, 492.9443
697.7324, 492.8975
698.2145, 492.4192
698.6966, 491.4746
699.1787, 490.2056
699.6608, 488.6089
700.1429, 486.7765
700.6251, 485.1453
701.1072, 483.8107
701.5893, 482.4354
702.0714, 480.1734
702.5535, 477.8051
703.0356, 476.5800
703.5178, 477.7155
703.9999, 478.5428
704.4820, 477.6241
704.9641, 475.8857
705.4462, 474.7831
705.9283, 474.8988
706.4105, 474.8528
706.8926, 474.4763
707.3747, 473.8407
707.8568, 472.9809
708.3389, 471.8488
708.8210, 471.1558
709.3032, 471.3905
709.7853, 471.9808
710.2674, 471.7147
710.7495, 470.7455
711.2316, 469.7228
711.7137, 468.7500
712.1959, 468.0616
712.6780, 468.0464
713.1601, 468.5862
713.6422, 468.8299
714.1243, 468.2725
714.6064, 467.6208
715.0886, 467.1288
715.5707, 466.7941
716.0528, 466.6381
716.5349, 466.7495
717.0170, 466.8148
717.4991, 466.4949
717.9813, 465.8872
718.4634, 465.8165
718.9455, 466.3220
719.4276, 466.9391
719.9097, 467.4714
720.3918, 467.7870
720.8740, 467.6024
721.3561, 466.7868
721.8382, 466.0355
722.3203, 465.4441
722.8024, 465.1884
723.2845, 465.4565
723.7667, 466.9384
724.2488, 467.7233
724.7309, 467.6249
725.2130, 467.0275
725.6951, 466.1488
726.1772, 464.9195
726.6594, 464.6441
727.1415, 465.7656
727.6236, 467.2116
728.1057, 467.5168
728.5878, 466.9670
729.0699, 466.3034
729.5521, 465.7595
730.0342, 465.1934
730.5163, 464.3295
730.9984, 463.4122
731.4805, 462.8754
731.9626, 463.3296
732.4448, 463.5708
732.9269, 463.3206
733.4090, 462.7343
733.8911, 462.2057
734.3732, 461.7191
734.8553, 461.3893
735.3375, 461.3133
735.8196, 461.3704
736.3017, 461.3953
736.7838, 461.3307
737.2659, 460.8264
737.7480, 459.1818
738.2302, 457.3881
738.7123, 456.4460
739.1944, 456.2101
739.6765, 455.9051
740.1586, 455.0233
740.6407, 454.2210
741.1229, 453.7970
741.6050, 453.7343
742.0871, 453.8205
742.5692, 454.0895
743.0513, 454.4355
743.5334, 454.9234
744.0156, 455.4901
744.4977, 455.4341
744.9798, 454.7572
745.4619, 454.1718
745.9440, 454.5791
746.4261, 455.2199
746.9083, 455.0460
747.3904, 453.9526
747.8725, 452.8327
748.3546, 451.9468
748.8367, 451.2982
749.3188, 450.8113
749.8010, 450.2942
750.2831, 450.8085
750.7652, 453.1862
751.2473, 455.3051
751.7294, 455.0388
752.2115, 452.4351
752.6937, 451.2040
753.1758, 451.6687
753.6579, 452.7812
754.1400, 453.7786
754.6221, 454.5999
755.1042, 455.1983
755.5864, 455.6196
756.0685, 455.5884
756.5506, 453.9930
757.0327, 452.3631
757.5148, 452.2981
757.9969, 456.0217
758.4791, 458.1288
758.9612, 458.0809
759.4433, 457.0121
759.9254, 455.9980
760.4075, 454.9876
760.8896, 455.1503
761.3718, 456.9330
761.8539, 459.0484
762.3360, 459.8474
762.8181, 459.6984
763.3002, 459.3192
763.7823, 458.6707
764.2645, 458.3040
764.7466, 458.8526
765.2287, 459.7772
765.7108, 460.2737
766.1929, 459.9981
766.6750, 459.5851
767.1572, 459.0337
767.6393, 458.4195
768.1214, 457.8170
768.6035, 457.2129
769.0856, 456.9180
769.5677, 457.1564
770.0499, 457.4528
770.5320, 456.8106
771.0141, 455.6198
771.4962, 454.8893
771.9783, 455.6772
772.4604, 456.3671
772.9426, 455.7759
773.4247, 454.4837
773.9068, 453.8620
774.3889, 454.6638
774.8710, 455.3202
775.3531, 455.6636
775.8353, 455.6493
776.3174, 454.9149
776.7995, 453.4168
777.2816, 452.3886
777.7637, 452.4469
778.2458, 453.0623
778.7280, 453.6353
779.2101, 454.0532
779.6922, 453.9452
780.1743, 452.5584
780.6564, 451.1677
781.1385, 450.2774
781.6207, 449.8966
782.1028, 450.0594
782.5849, 451.0961
783.0670, 452.1162
783.5491, 453.0313
784.0313, 453.7114
784.5134, 453.4343
784.9955, 452.1740
785.4776, 451.2042
785.9597, 451.3774
786.4418, 452.0000
786.9240, 451.8822
787.4061, 451.2268
787.8882, 450.7831
788.3703, 451.3163
788.8524, 451.7903
789.3345, 451.5316
789.8167, 450.6613
790.2988, 450.1609
790.7809, 449.5792
791.2630, 450.3590
791.7451, 453.8684
792.2272, 458.9611
792.7094, 460.4553
793.1915, 458.4510
793.6736, 455.7195
794.1557, 453.0729
794.6378, 451.0648
795.1199, 450.8803
795.6021, 452.1493
796.0842, 453.1724
796.5663, 453.0087
797.0484, 452.6292
797.5305, 452.3282
798.0126, 452.1407
798.4948, 452.3421
798.9769, 453.1093
799.4590, 453.8385
799.9411, 454.3106
800.4232, 454.5415
800.9053, 454.5336
801.3875, 454.2973
801.8696, 453.9228
802.3517, 453.0923
802.8338, 452.4146
803.3159, 452.6963
803.7980, 453.7702
804.2802, 454.6044
804.7623, 454.4146
805.2444, 454.4074
805.7265, 455.2163
806.2086, 456.6758
806.6907, 457.2720
807.1729, 456.8221
807.6550, 456.2634
808.1371, 456.1120
808.6192, 456.1378
809.1013, 455.6130
809.5834, 454.6438
810.0656, 453.8307
810.5477, 453.7472
811.0298, 453.7662
811.5119, 453.3031
811.9940, 452.4613
812.4761, 452.1158
812.9583, 452.7360
813.4404, 453.4752
813.9225, 454.2360
814.4046, 454.9258
814.8867, 454.7974
815.3688, 453.7999
815.8510, 453.0555
816.3331, 453.4897
816.8152, 454.3311
817.2973, 454.0902
817.7794, 453.0453
818.2615, 452.3225
818.7437, 452.8018
819.2258, 453.4202
819.7079, 453.6759
820.1900, 453.6027
820.6721, 453.6385
821.1542, 453.8956
821.6364, 454.0009
822.1185, 453.7979
822.6006, 453.3721
823.0827, 452.9539
823.5648, 452.5542
824.0469, 452.2085
824.5291, 451.7625
825.0112, 451.5277
825.4933, 452.2571
825.9754, 453.5066
826.4575, 453.8704
826.9396, 451.7599
827.4218, 450.0377
827.9039, 449.6641
828.3860, 450.2073
828.8681, 450.1781
829.3502, 449.4498
829.8323, 448.8979
830.3145, 448.8892
830.7966, 449.1339
831.2787, 449.0482
831.7608, 448.7380
832.2429, 448.5399
832.7250, 448.6788
833.2072, 448.8962
833.6893, 448.8412
834.1714, 448.7641
834.6535, 449.4084
835.1356, 451.5409
835.6177, 453.0630
836.0999, 453.6005
836.5820, 453.3505
837.0641, 452.5121
837.5462, 451.1595
838.0283, 450.1236
838.5104, 449.6549
838.9926, 449.6364
839.4747, 450.3585
839.9568, 451.3484
840.4389, 451.7905
840.9210, 450.9445
841.4031, 450.0578
841.8853, 449.0276
842.3674, 448.2880
842.8495, 448.7198
843.3316, 450.7142
843.8137, 451.7680
844.2958, 451.2313
844.7780, 450.2635
845.2601, 450.7661
845.7422, 452.1664
846.2243, 453.1008
846.7064, 453.1620
847.1885, 452.7985
847.6707, 451.8179
848.1528, 450.7632
848.6349, 450.2939
849.1170, 450.8031
849.5991, 451.3223
850.0812, 451.9071
850.5634, 452.4062
851.0455, 452.5501
851.5276, 452.4134
852.0097, 452.6160
852.4918, 453.2956
852.9739, 453.9222
853.4561, 453.7693
853.9382, 453.4198
854.4203, 453.6007
854.9024, 454.6785
855.3845, 455.4657
855.8666, 455.6259
856.3488, 455.5101
856.8309, 455.2030
857.3130, 454.5818
857.7951, 454.7086
858.2772, 455.6516
858.7593, 456.8266
859.2415, 457.8798
859.7236, 458.7529
860.2057, 459.3800
860.6878, 459.7501
861.1699, 459.8617
861.6520, 459.1436
862.1342, 458.6490
862.6163, 459.3406
863.0984, 461.2890
863.5805, 462.0666
864.0626, 461.2003
864.5447, 460.5790
865.0269, 461.6627
865.5090, 463.7971
865.9911, 464.3260
866.4732, 463.5186
866.9553, 463.2341
867.4374, 465.1382
867.9196, 467.5302
868.4017, 469.3540
868.8838, 470.5938
869.3659, 471.4461
869.8480, 471.4692
870.3301, 471.9012
870.8123, 473.2801
871.2944, 475.2328
871.7765, 476.3755
872.2586, 476.7781
872.7407, 477.4312
873.2228, 478.9259
873.7050, 480.6708
874.1871, 482.2838
874.6692, 483.6596
875.1513, 484.5903
875.6334, 484.1929
876.1155, 484.4017
876.5977, 485.8624
877.0798, 487.9066
877.5619, 489.3376
878.0440, 490.1281
878.5261, 490.7071
879.0082, 491.1034
879.4904, 491.5123
879.9725, 492.4816
880.4546, 493.5786
880.9367, 493.9133
881.4188, 492.5851
881.9009, 491.9248
882.3831, 494.0129
882.8652, 496.3666
883.3473, 496.2063
883.8294, 492.3775
884.3115, 490.7237
884.7936, 491.8000
885.2758, 493.7260
885.7579, 495.5548
886.2400, 496.5910
886.7221, 494.4698
887.2042, 488.7194
887.6863, 483.8231
888.1685, 482.9676
888.6506, 483.3741
889.1327, 483.1540
889.6148, 482.0982
890.0969, 481.0543
890.5790, 479.8498
891.0612, 479.0536
891.5433, 479.1865
892.0254, 479.9759
892.5075, 480.5844
892.9896, 480.9763
893.4717, 480.9077
893.9539, 479.6779
894.4360, 478.4254
894.9181, 478.1037
895.4002, 478.5442
895.8823, 478.4636
896.3644, 477.3778
896.8466, 476.5869
897.3287, 476.5073
897.8108, 476.9027
898.2929, 477.2300
898.7750, 477.4803
899.2571, 477.5503
899.7393, 477.2433
900.2214, 476.9870
900.7035, 477.0947
901.1856, 477.5075
901.6677, 478.1245
902.1498, 479.1221
902.6320, 480.0546
903.1141, 480.9179
903.5962, 481.6685
904.0783, 482.0783
904.5604, 482.2047
905.0425, 482.9051
905.5247, 484.3802
906.0068, 485.9496
906.4889, 486.7401
906.9710, 487.3955
907.4531, 488.8158
907.9352, 491.6056
908.4174, 493.4087
908.8995, 493.2505
909.3816, 492.8338
909.8637, 493.1105
910.3458, 494.0816
910.8279, 495.5090
911.3101, 497.4016
911.7922, 499.1984
912.2743, 500.1396
912.7564, 501.0008
913.2385, 502.7760
913.7206, 505.3651
914.2028, 507.7950
914.6849, 509.6178
915.1670, 511.4269
915.6491, 513.4727
916.1312, 515.6292
916.6133, 517.2420
917.0955, 518.3083
917.5776, 519.8151
918.0597, 522.3768
918.5418, 525.2081
919.0239, 527.2712
919.5060, 528.9001
919.9882, 530.7072
920.4703, 532.8798
920.9524, 535.3147
921.4345, 538.3063
921.9166, 541.2552
922.3987, 543.3608
922.8809, 544.5783
923.3630, 545.5029
923.8451, 546.1155
924.3272, 546.9583
924.8093, 549.1717
925.2914, 551.6939
925.7736, 552.9709
926.2557, 552.6044
926.7378, 552.1935
927.2199, 552.1841
927.7020, 552.2800
928.1841, 552.4205
928.6663, 552.6078
929.1484, 552.3782
929.6305, 551.7240
930.1126, 550.8301
930.5947, 549.5034
931.0768, 548.1922
931.5590, 547.5608
932.0411, 547.4813
932.5232, 547.4323
933.0053, 547.3430
933.4874, 547.1277
933.9695, 546.8474
934.4517, 546.3993
934.9338, 545.2905
935.4159, 543.5062
935.8980, 542.4179
936.3801, 542.5421
936.8622, 543.1781
937.3444, 543.6379
937.8265, 544.0208
938.3086, 544.5290
938.7907, 545.6208
939.2728, 545.9761
939.7549, 544.7054
940.2371, 543.3113
940.7192, 543.0444
941.2013, 543.9374
941.6834, 544.8948
942.1655, 545.8802
942.6476, 546.7923
943.1298, 547.2589
943.6119, 547.7748
944.0940, 549.2420
944.5761, 551.6371
945.0582, 552.9932
945.5403, 551.7859
946.0225, 550.7985
946.5046, 551.1507
946.9867, 552.3351
947.4688, 551.8829
947.9509, 549.9449
948.4330, 548.7863
948.9152, 549.7979
949.3973, 551.3967
949.8794, 552.3438
950.3615, 552.7272
950.8436, 552.7029
951.3257, 551.5211
951.8079, 551.1232
952.2900, 551.9658
952.7721, 553.1459
953.2542, 553.4227
953.7363, 552.9640
954.2184, 553.0889
954.7006, 553.9821
955.1827, 555.0602
955.6648, 555.7665
956.1469, 556.5224
956.6290, 557.8268
957.1111, 559.8442
957.5933, 561.2744
958.0754, 561.6995
958.5575, 562.2921
959.0396, 563.5856
959.5217, 565.4676
960.0038, 567.6691
960.4860, 570.1572
960.9681, 572.7698
961.4502, 575.4190
961.9323, 578.1386
962.4144, 580.9739
962.8965, 583.8688
963.3787, 586.6692
963.8608, 589.5253
964.3429, 591.8475
964.8250, 593.3977
965.3071, 594.8347
965.7892, 597.2731
966.2714, 600.2564
966.7535, 602.6518
967.2356, 604.1899
967.7177, 605.5529
968.1998, 607.2443
968.6819, 608.7648
969.1641, 609.8162
969.6462, 610.4343
970.1283, 610.1281
970.6104, 608.7105
971.0925, 607.3961
971.5746, 607.2604
972.0568, 607.4650
972.5389, 606.3897
973.0210, 604.3079
973.5031, 602.1546
973.9852, 600.1356
974.4673, 598.3352
974.9495, 596.9711
975.4316, 595.7260
975.9137, 594.0606
976.3958, 591.9662
976.8779, 589.7006
977.3600, 587.1713
977.8422, 585.1630
978.3243, 585.3141
978.8064, 586.0614
979.2885, 585.2532
979.7706, 582.1425
980.2527, 579.4904
980.7349, 578.0146
981.2170, 576.6869
981.6991, 574.8824
982.1812, 572.7299
982.6633, 571.3381
983.1454, 570.6660
983.6276, 570.3096
984.1097, 570.6304
984.5918, 570.6078
985.0739, 569.2362
985.5560, 566.9174
986.0381, 564.7529
986.5203, 563.0065
987.0024, 561.0510
987.4845, 558.7412
987.9666, 556.3364
988.4487, 554.3074
988.9308, 552.5026
989.4130, 550.2498
989.8951, 547.3259
990.3772, 544.8944
990.8593, 544.6011
991.3414, 544.2878
991.8235, 542.1013
992.3057, 537.9011
992.7878, 534.7999
993.2699, 532.9654
993.7520, 530.9927
994.2341, 527.8015
994.7162, 524.2292
995.1984, 521.8914
995.6805, 520.3912
996.1626, 518.7164
996.6447, 516.2017
997.1268, 513.8160
997.6089, 511.9292
998.0911, 510.1117
998.5732, 507.6761
999.0553, 504.6212
999.5374, 501.8807
1000.020, 499.6176
1000.502, 497.6344
1000.984, 495.8724
1001.466, 494.2665
1001.948, 492.8247
1002.430, 491.5851
1002.912, 490.0896
1003.394, 488.1085
1003.876, 486.2956
1004.359, 484.9571
1004.841, 483.9596
1005.323, 483.0917
1005.805, 482.2654
1006.287, 481.1401
1006.769, 479.2809
1007.251, 477.4403
1007.733, 475.8391
1008.216, 474.5960
1008.698, 473.9098
1009.180, 473.9530
1009.662, 473.8338
1010.144, 473.4622
1010.626, 473.1385
1011.108, 473.4366
1011.590, 473.8404
1012.072, 473.4510
1012.555, 472.2476
1013.037, 471.1308
1013.519, 470.2485
1014.001, 469.7242
1014.483, 469.7178
1014.965, 470.0386
1015.447, 469.9313
1015.929, 469.4615
1016.411, 469.4048
1016.894, 470.2626
1017.376, 471.0296
1017.858, 470.0428
1018.340, 468.8125
1018.822, 469.4702
1019.304, 473.9518
1019.786, 475.7211
1020.268, 473.8396
1020.751, 471.7572
1021.233, 472.9849
1021.715, 475.8620
1022.197, 475.4473
1022.679, 472.2209
1023.161, 469.5124
1023.643, 469.1953
1024.125, 469.4849
1024.607, 469.7658
1025.090, 470.1169
1025.572, 470.8753
1026.054, 472.0992
1026.536, 472.7626
1027.018, 472.5718
1027.500, 472.2774
1027.982, 472.5226
1028.464, 473.1996
1028.947, 474.3278
1029.429, 476.0793
1029.911, 477.2574
1030.393, 477.4575
1030.875, 477.7742
1031.357, 478.9531
1031.839, 480.6017
1032.321, 481.1661
1032.803, 480.8979
1033.286, 480.8672
1033.768, 481.4805
1034.250, 482.5866
1034.732, 484.5124
1035.214, 486.7258
1035.696, 488.3675
1036.178, 489.2719
1036.660, 490.6709
1037.143, 492.7579
1037.625, 494.6613
1038.107, 495.1978
1038.589, 495.3548
1039.071, 496.3736
1039.553, 498.3094
1040.035, 500.3711
1040.517, 502.5317
1041.000, 504.5647
1041.482, 506.2733
1041.964, 507.9053
1042.446, 510.1663
1042.928, 512.8707
1043.410, 515.1139
1043.892, 516.4685
1044.374, 517.8246
1044.856, 519.7269
1045.339, 521.8341
1045.821, 523.8304
1046.303, 525.6555
1046.785, 527.7416
1047.267, 530.1003
1047.749, 532.5701
1048.231, 535.1771
1048.713, 537.6795
1049.195, 539.6196
1049.677, 541.1843
1050.160, 542.8666
1050.642, 544.9698
1051.124, 546.9387
1051.606, 548.5989
1052.088, 550.2713
1052.570, 552.5152
1053.052, 555.1473
1053.534, 557.2874
1054.017, 558.8192
1054.499, 560.2990
1054.981, 561.8837
1055.463, 563.7133
1055.945, 566.1883
1056.427, 569.0635
1056.909, 570.4680
1057.391, 570.1866
1057.874, 571.1160
1058.356, 574.7537
1058.838, 578.9610
1059.320, 581.0965
1059.802, 582.1183
1060.284, 583.3898
1060.766, 584.9240
1061.248, 587.5634
1061.730, 591.8239
1062.213, 596.1778
1062.695, 599.4717
1063.177, 601.9794
1063.659, 604.6487
1064.141, 607.4762
1064.623, 610.4083
1065.105, 612.9588
1065.587, 616.1250
1066.070, 620.9848
1066.552, 626.3736
1067.034, 630.4011
1067.516, 632.9946
1067.998, 636.0479
1068.480, 639.7905
1068.962, 643.5869
1069.444, 646.7586
1069.927, 649.7809
1070.409, 653.2487
1070.891, 657.1408
1071.373, 660.6190
1071.855, 663.4504
1072.337, 666.4842
1072.819, 669.9881
1073.301, 673.9015
1073.783, 678.3144
1074.266, 683.0829
1074.748, 687.8563
1075.230, 692.2532
1075.712, 697.4710
1076.194, 704.6556
1076.676, 711.8650
1077.158, 717.5967
1077.640, 722.1575
1078.122, 729.1179
1078.604, 738.3022
1079.087, 748.2289
1079.569, 758.2179
1080.051, 768.5234
1080.533, 778.8353
1081.015, 789.6214
1081.497, 801.8142
1081.979, 815.3803
1082.461, 829.8278
1082.944, 845.1315
1083.426, 860.8583
1083.908, 876.2738
1084.390, 891.8566
1084.872, 908.3627
1085.354, 925.8052
1085.836, 942.8748
1086.318, 959.6398
1086.801, 976.2172
1087.283, 992.8605
1087.765, 1009.019
1088.247, 1023.855
1088.729, 1037.415
1089.211, 1049.694
1089.693, 1060.903
1090.175, 1070.163
1090.657, 1078.231
1091.140, 1082.881
1091.622, 1082.970
1092.104, 1078.658
1092.586, 1071.027
1093.068, 1060.085
1093.550, 1046.508
1094.032, 1029.993
1094.514, 1011.688
1094.997, 992.3492
1095.479, 971.7547
1095.961, 949.2615
1096.443, 924.4984
1096.925, 898.8452
1097.407, 871.9761
1097.889, 845.5472
1098.371, 820.9095
1098.854, 797.7451
1099.336, 775.9290
1099.818, 755.2838
1100.300, 735.6025
1100.782, 716.6877
1101.264, 699.0162
1101.746, 682.9443
1102.228, 667.9271
1102.710, 653.3607
1103.193, 639.3910
1103.675, 625.7707
1104.157, 612.5495
1104.639, 600.8128
1105.121, 592.0012
1105.603, 583.5753
1106.085, 574.3213
1106.567, 564.7197
1107.049, 556.4494
1107.531, 549.3176
1108.014, 542.6321
1108.496, 536.0162
1108.978, 529.9992
1109.460, 525.1852
1109.942, 520.9430
1110.424, 516.8873
1110.906, 512.9773
1111.388, 508.5736
1111.871, 503.6049
1112.353, 499.1866
1112.835, 496.1643
1113.317, 493.6079
1113.799, 490.4199
1114.281, 487.0868
1114.763, 484.4086
1115.245, 483.1292
1115.728, 481.2338
1116.210, 478.5257
1116.692, 475.8904
1117.174, 474.3401
1117.656, 473.2599
1118.138, 471.3856
1118.620, 468.9182
1119.102, 466.7983
1119.584, 465.6655
1120.067, 464.4582
1120.549, 462.9750
1121.031, 461.3968
1121.513, 460.0140
1121.995, 458.7310
1122.477, 457.0424
1122.959, 454.9055
1123.441, 453.4597
1123.924, 454.2295
1124.406, 454.7861
1124.888, 454.0275
1125.370, 452.3613
1125.852, 450.7989
1126.334, 449.3425
1126.816, 447.9232
1127.298, 446.4128
1127.781, 445.5556
1128.263, 446.7896
1128.745, 448.2320
1129.227, 448.2619
1129.709, 446.9291
1130.191, 445.3283
1130.673, 443.3907
1131.155, 442.1231
1131.637, 442.1734
1132.120, 442.5984
1132.602, 442.5176
1133.084, 442.1222
1133.566, 441.5659
1134.048, 440.4728
1134.530, 440.7538
1135.012, 442.7720
1135.494, 444.6870
1135.976, 444.9498
1136.458, 444.6173
1136.941, 446.1142
1137.423, 448.3368
1137.905, 448.5971
1138.387, 443.8899
1138.869, 440.5949
1139.351, 439.3062
1139.833, 438.8970
1140.315, 438.3144
1140.798, 437.7740
1141.280, 438.0462
1141.762, 438.9731
1142.244, 439.4222
1142.726, 438.4240
1143.208, 437.5477
1143.690, 437.1185
1144.172, 437.0034
1144.655, 437.1296
1145.137, 437.4009
1145.619, 437.4213
1146.101, 437.1435
1146.583, 436.7360
1147.065, 436.1985
1147.547, 435.6461
1148.029, 434.9835
1148.511, 434.4142
1148.994, 434.7657
1149.476, 435.8935
1149.958, 436.3566
1150.440, 435.6650
1150.922, 435.0987
1151.404, 435.9648
1151.886, 436.9825
1152.368, 437.1387
1152.851, 436.5112
1153.333, 435.5839
1153.815, 434.3438
1154.297, 434.5687
1154.779, 437.6127
1155.261, 440.7867
1155.743, 441.6550
1156.225, 441.2132
1156.708, 440.5182
1157.190, 439.7074
1157.672, 438.1792
1158.154, 435.7755
1158.636, 434.0789
1159.118, 434.5775
1159.600, 435.5895
1160.082, 434.8613
1160.564, 433.4493
1161.047, 433.3217
1161.529, 436.0137
1162.011, 436.7432
1162.493, 435.0782
1162.975, 433.2138
1163.457, 432.9774
1163.939, 433.4650
1164.421, 433.4682
1164.903, 433.1165
1165.385, 432.8820
1165.868, 433.2068
1166.350, 432.8851
1166.832, 431.5617
1167.314, 430.3044
1167.796, 430.4994
1168.278, 431.4107
1168.760, 431.7317
1169.242, 431.4831
1169.725, 431.3121
1170.207, 431.4803
1170.689, 431.6758
1171.171, 431.9183
1171.653, 432.0542
1172.135, 431.7531
1172.617, 431.2085
1173.099, 430.9673
1173.582, 431.0747
1174.064, 430.7525
1174.546, 428.8777
1175.028, 427.6720
1175.510, 427.9234
1175.992, 428.8864
1176.474, 429.1120
1176.956, 428.8041
1177.438, 428.5441
1177.921, 428.4501
1178.403, 428.3156
1178.885, 427.7868
1179.367, 427.5366
1179.849, 427.8934
1180.331, 428.6756
1180.813, 429.4983
1181.295, 430.2617
1181.778, 430.5130
1182.260, 429.9731
1182.742, 429.4926
1183.224, 429.6070
1183.706, 429.7331
1184.188, 429.5244
1184.670, 429.0515
1185.152, 428.6617
1185.635, 428.3667
1186.117, 428.2218
1186.599, 428.2656
1187.081, 428.4195
1187.563, 429.0602
1188.045, 429.4015
1188.527, 428.5585
1189.009, 426.7212
1189.491, 426.5859
1189.974, 427.9249
1190.456, 429.0728
1190.938, 429.1920
1191.420, 428.9378
1191.902, 428.4479
1192.384, 427.8634
1192.866, 427.2827
1193.348, 426.7007
1193.830, 426.3050
1194.313, 426.0881
1194.795, 425.9909
1195.277, 426.2261
1195.759, 426.2902
1196.241, 425.6954
1196.723, 424.8959
1197.205, 424.4541
1197.687, 424.3777
1198.169, 424.5661
1198.652, 424.9974
1199.134, 425.1409
1199.616, 424.2384
1200.098, 423.3668
1200.580, 423.2640
1201.062, 423.5820
1201.544, 423.8460
1202.026, 424.0697
1202.509, 423.5246
1202.991, 422.1363
1203.473, 421.1582
1203.955, 421.9987
1204.437, 423.0414
1204.919, 423.1739
1205.401, 422.7458
1205.883, 422.5668
1206.365, 422.6385
1206.848, 422.6065
1207.330, 422.4247
1207.812, 422.0808
1208.294, 421.5308
1208.776, 420.8415
1209.258, 419.8893
1209.740, 418.8652
1210.222, 418.4665
1210.705, 418.7020
1211.187, 418.2037
1211.669, 416.5816
1212.151, 415.5929
1212.633, 417.8525
1213.115, 420.2187
1213.597, 420.1566
1214.079, 418.2448
1214.562, 416.0893
1215.044, 413.7216
1215.526, 412.7173
1216.008, 413.6353
1216.490, 414.8107
1216.972, 415.2028
1217.454, 415.0759
1217.936, 414.3615
1218.418, 413.2863
1218.901, 413.1226
1219.383, 413.8087
1219.865, 414.0490
1220.347, 413.3558
1220.829, 412.6060
1221.311, 412.5406
1221.793, 412.6026
1222.275, 412.4095
1222.757, 411.9666
1223.240, 411.1820
1223.722, 410.1065
1224.204, 409.4049
1224.686, 409.4623
1225.168, 409.4744
1225.650, 408.7435
1226.132, 407.8990
1226.614, 407.4531
1227.096, 407.3543
1227.579, 407.0254
1228.061, 406.5194
1228.543, 406.3429
1229.025, 406.8914
1229.507, 407.3247
1229.989, 407.0751
1230.471, 406.5521
1230.953, 406.0389
1231.436, 405.5421
1231.918, 405.1832
1232.400, 404.9503
1232.882, 404.8122
1233.364, 404.9318
1233.846, 404.8021
1234.328, 403.8607
1234.810, 402.8471
1235.292, 402.0381
1235.775, 401.5830
1236.257, 403.0285
1236.739, 406.0541
1237.221, 408.9688
1237.703, 411.1484
1238.185, 412.9566
1238.667, 415.3721
1239.149, 416.5307
1239.632, 414.4034
1240.114, 409.7155
1240.596, 406.3234
1241.078, 404.1550
1241.560, 402.7860
1242.042, 402.4953
1242.524, 402.3566
1243.006, 402.2733
1243.489, 402.0935
1243.971, 401.5605
1244.453, 400.8314
1244.935, 400.7199
1245.417, 401.0439
1245.899, 401.1271
1246.381, 400.4251
1246.863, 399.8250
1247.345, 399.4088
1247.828, 399.2121
1248.310, 399.4237
1248.792, 399.8382
1249.274, 399.7611
1249.756, 399.3806
1250.238, 399.3537
1250.720, 400.8831
1251.202, 401.1019
1251.684, 399.2886
1252.167, 397.4064
1252.649, 397.3547
1253.131, 398.3184
1253.613, 398.8690
1254.095, 399.0340
1254.577, 399.0178
1255.059, 398.8857
1255.541, 398.4630
1256.023, 397.6213
1256.506, 396.8949
1256.988, 396.8409
1257.470, 397.1308
1257.952, 397.4379
1258.434, 397.6960
1258.916, 397.7238
1259.398, 397.5150
1259.880, 397.0348
1260.363, 396.2169
1260.845, 395.5402
1261.327, 395.6064
1261.809, 395.8528
1262.291, 395.4686
1262.773, 394.8344
1263.255, 395.1354
1263.737, 396.8620
1264.219, 397.0359
1264.702, 395.3485
1265.184, 393.7573
1265.666, 394.1032
1266.148, 394.8165
1266.630, 394.6978
1267.112, 394.0503
1267.594, 393.5237
1268.076, 393.0975
1268.559, 393.2207
1269.041, 393.9182
1269.523, 394.5474
1270.005, 394.8566
1270.487, 394.7693
1270.969, 393.8169
1271.451, 392.6803
1271.933, 392.3628
1272.416, 392.7903
1272.898, 393.0112
1273.380, 392.9737
1273.862, 392.8622
1274.344, 392.8867
1274.826, 392.6959
1275.308, 391.9835
1275.790, 391.2220
1276.272, 391.0107
1276.755, 391.2569
1277.237, 391.6963
1277.719, 392.2756
1278.201, 392.7876
1278.683, 393.5154
1279.165, 393.5172
1279.647, 392.3536
1280.129, 390.9935
1280.611, 390.5737
1281.094, 390.7143
1281.576, 390.6057
1282.058, 390.2739
1282.540, 390.0800
1283.022, 390.1161
1283.504, 390.3317
1283.986, 390.7832
1284.468, 391.1927
1284.950, 391.4350
1285.433, 391.3637
1285.915, 390.4745
1286.397, 389.0709
1286.879, 388.3846
1287.361, 388.7471
1287.843, 388.7568
1288.325, 388.2371
1288.807, 387.8473
1289.290, 388.2860
1289.772, 388.9828
1290.254, 389.6915
1290.736, 390.1852
1291.218, 389.9261
1291.700, 388.8073
1292.182, 388.4877
1292.664, 389.0709
1293.146, 389.6290
1293.629, 389.5782
1294.111, 389.2377
1294.593, 388.5712
1295.075, 387.8596
1295.557, 387.4358
1296.039, 387.2841
1296.521, 387.0902
1297.003, 386.9227
1297.486, 387.5488
1297.968, 391.2023
1298.450, 393.1237
1298.932, 391.5920
1299.414, 389.0121
1299.896, 388.0869
1300.378, 388.2167
1300.860, 387.7962
1301.343, 386.8753
1301.825, 385.9397
##END=



