##NAMES=Lipuite
##RRUFFID=R140946
##IDEAL CHEMISTRY=KNa_8_Mn^3+^_5_Mg_0.5_(Si_12_O_30_(OH)_4_)(PO_4_)O_2_(OH)_2_&#183;4H_2_O
##LOCALITY=N'Chwaning III mine, Kalahari manganese field, Northern Cape Province, South Africa
##OWNER=RRUFF
##SOURCE=Jaco and Tania Janse van Nieuwenhuizen
##DESCRIPTION=Dark reddish brown massive crystalline, associated with sugilite (R130754)
##STATUS=The identification of this mineral is confirmed by single-crystal X-ray diffraction and chemical analysis.
##URL=rruff.info/R140946
##MEASURED CHEMISTRY=K_1.11_Na_8.16_(Mn^3+^_4.86_Fe^3+^_0.14_)Mg_0.39_[Si_12.08_O_30_(OH)_4_](P_0.95_O_4_)O_2_(OH)_2_·4H_2_O
110.3625, 392.9372
110.8446, 387.2915
111.3267, 381.8330
111.8088, 376.6573
112.2909, 371.5547
112.7731, 366.3234
113.2552, 361.0037
113.7373, 355.8079
114.2194, 351.1136
114.7015, 347.2126
115.1836, 343.2699
115.6658, 338.8628
116.1479, 334.5815
116.6300, 331.1417
117.1121, 328.8235
117.5942, 327.0878
118.0763, 324.5905
118.5584, 320.7251
119.0406, 317.4715
119.5227, 315.6883
120.0048, 315.0047
120.4869, 314.3398
120.9690, 313.0318
121.4511, 311.6669
121.9333, 311.3491
122.4154, 312.5264
122.8975, 313.9727
123.3796, 314.7305
123.8617, 314.7806
124.3438, 314.3153
124.8260, 312.8111
125.3081, 311.0393
125.7902, 309.6791
126.2723, 308.9921
126.7544, 308.8265
127.2365, 308.9157
127.7187, 309.5132
128.2008, 309.9359
128.6829, 310.1488
129.1650, 310.0695
129.6471, 309.5094
130.1292, 308.2410
130.6114, 306.3549
131.0935, 305.1821
131.5756, 305.2862
132.0577, 305.6107
132.5398, 305.9129
133.0219, 306.2294
133.5041, 306.7386
133.9862, 307.6281
134.4683, 308.9961
134.9504, 310.1201
135.4325, 310.3733
135.9146, 310.9139
136.3968, 312.5256
136.8789, 315.2278
137.3610, 318.3898
137.8431, 321.3067
138.3252, 323.9359
138.8073, 326.5592
139.2895, 329.3825
139.7716, 332.1407
140.2537, 334.5602
140.7358, 336.5843
141.2179, 338.2051
141.7000, 339.0566
142.1821, 339.1914
142.6643, 339.8265
143.1464, 341.8111
143.6285, 344.7802
144.1106, 347.4350
144.5927, 349.4722
145.0748, 351.0878
145.5570, 352.4166
146.0391, 353.4664
146.5212, 354.5780
147.0033, 355.8837
147.4854, 357.3354
147.9675, 359.4918
148.4497, 363.2731
148.9318, 367.3348
149.4139, 370.8639
149.8960, 373.7020
150.3781, 376.4651
150.8602, 380.0130
151.3424, 384.5542
151.8245, 389.5978
152.3066, 395.0542
152.7887, 400.9005
153.2708, 407.2884
153.7529, 414.2198
154.2351, 421.4529
154.7172, 428.3563
155.1993, 434.3630
155.6814, 440.6796
156.1635, 448.0396
156.6456, 455.5498
157.1278, 462.1525
157.6099, 467.3326
158.0920, 471.2184
158.5741, 474.2235
159.0562, 476.7301
159.5383, 478.1203
160.0205, 478.0084
160.5026, 476.6302
160.9847, 474.4173
161.4668, 471.4669
161.9489, 467.9366
162.4310, 464.6897
162.9131, 462.0633
163.3953, 459.3912
163.8774, 456.2531
164.3595, 452.6840
164.8416, 449.0680
165.3237, 445.5395
165.8058, 442.1666
166.2880, 439.0513
166.7701, 436.1470
167.2522, 433.5347
167.7343, 431.4076
168.2164, 429.8561
168.6985, 428.3770
169.1807, 426.3427
169.6628, 424.2818
170.1449, 422.9466
170.6270, 422.8978
171.1091, 423.5904
171.5912, 423.7564
172.0734, 423.1478
172.5555, 422.4361
173.0376, 421.8732
173.5197, 421.3965
174.0018, 420.9122
174.4839, 420.3622
174.9661, 419.7641
175.4482, 419.2543
175.9303, 419.3155
176.4124, 418.8789
176.8945, 417.5844
177.3766, 415.6145
177.8588, 413.3262
178.3409, 410.9796
178.8230, 408.5717
179.3051, 405.7198
179.7872, 402.1194
180.2693, 398.3746
180.7515, 394.5670
181.2336, 390.7478
181.7157, 387.0557
182.1978, 383.6575
182.6799, 380.6430
183.1620, 376.9475
183.6441, 371.7676
184.1263, 366.7679
184.6084, 362.7727
185.0905, 359.7810
185.5726, 357.3360
186.0547, 355.0793
186.5368, 353.0392
187.0190, 351.0962
187.5011, 349.1842
187.9832, 347.4247
188.4653, 345.8388
188.9474, 344.4475
189.4296, 343.3989
189.9117, 342.8696
190.3938, 342.8783
190.8759, 343.2379
191.3580, 343.8011
191.8401, 344.7683
192.3223, 346.4794
192.8044, 349.0570
193.2865, 351.9587
193.7686, 354.4944
194.2507, 356.8635
194.7328, 359.8794
195.2150, 364.1086
195.6971, 369.1099
196.1792, 373.9835
196.6613, 378.5005
197.1434, 383.2562
197.6255, 388.8788
198.1077, 395.1123
198.5898, 401.2071
199.0719, 406.7953
199.5540, 411.9613
200.0361, 417.0347
200.5182, 422.2071
201.0004, 427.0053
201.4825, 431.4672
201.9646, 435.4450
202.4467, 438.5333
202.9288, 440.3963
203.4109, 441.0738
203.8930, 441.1294
204.3752, 440.8557
204.8573, 439.5001
205.3394, 436.6528
205.8215, 432.5278
206.3036, 427.6153
206.7857, 422.3287
207.2679, 416.6857
207.7500, 410.3200
208.2321, 402.1924
208.7142, 394.2437
209.1963, 386.9084
209.6784, 380.2791
210.1606, 374.3993
210.6427, 369.4069
211.1248, 365.4760
211.6069, 361.1388
212.0890, 355.9980
212.5711, 350.8727
213.0533, 346.0388
213.5354, 341.5085
214.0175, 337.0903
214.4996, 332.5723
214.9817, 327.8404
215.4638, 323.8783
215.9460, 320.9509
216.4281, 318.3540
216.9102, 315.7624
217.3923, 313.1693
217.8744, 310.6674
218.3565, 308.3152
218.8387, 306.1048
219.3208, 304.4556
219.8029, 303.9574
220.2850, 303.4659
220.7671, 302.1997
221.2492, 300.1803
221.7314, 298.0031
222.2135, 296.1083
222.6956, 294.5416
223.1777, 293.3137
223.6598, 292.5280
224.1419, 291.9941
224.6240, 291.7615
225.1062, 291.7916
225.5883, 291.5908
226.0704, 290.6815
226.5525, 289.1223
227.0346, 287.6073
227.5167, 286.0640
227.9989, 284.6549
228.4810, 283.5263
228.9631, 282.6859
229.4452, 282.1467
229.9273, 282.2405
230.4094, 282.6487
230.8916, 282.4792
231.3737, 281.3165
231.8558, 279.6589
232.3379, 277.9813
232.8200, 276.2684
233.3021, 274.6470
233.7843, 273.3559
234.2664, 272.1743
234.7485, 270.7271
235.2306, 268.7182
235.7127, 266.5743
236.1948, 264.8750
236.6770, 263.6765
237.1591, 262.6568
237.6412, 262.0831
238.1233, 261.4581
238.6054, 260.0960
239.0875, 257.5561
239.5697, 254.5210
240.0518, 252.1114
240.5339, 250.4857
241.0160, 248.9547
241.4981, 247.4391
241.9802, 245.8051
242.4624, 243.8780
242.9445, 241.5726
243.4266, 239.0480
243.9087, 236.4980
244.3908, 233.7872
244.8729, 231.4496
245.3550, 229.8796
245.8372, 228.5883
246.3193, 227.1760
246.8014, 225.5023
247.2835, 223.7034
247.7656, 222.0317
248.2477, 220.6673
248.7299, 218.9846
249.2120, 216.7847
249.6941, 214.3325
250.1762, 211.6468
250.6583, 208.7583
251.1404, 206.0656
251.6226, 204.3585
252.1047, 204.3602
252.5868, 203.7190
253.0689, 201.5276
253.5510, 199.1749
254.0331, 197.7510
254.5153, 197.4868
254.9974, 197.6799
255.4795, 197.2470
255.9616, 195.8741
256.4437, 194.5246
256.9258, 192.8301
257.4080, 191.4285
257.8901, 190.9275
258.3722, 191.3405
258.8543, 192.0171
259.3364, 192.0397
259.8185, 190.9862
260.3007, 190.3440
260.7828, 190.3770
261.2649, 190.5208
261.7470, 190.3324
262.2291, 189.8232
262.7112, 189.4182
263.1934, 189.6712
263.6755, 190.9303
264.1576, 191.5526
264.6397, 191.0537
265.1218, 190.4529
265.6039, 190.3813
266.0861, 190.8038
266.5682, 191.2209
267.0503, 191.0967
267.5324, 190.2707
268.0145, 189.9680
268.4966, 190.3696
268.9788, 191.0077
269.4609, 191.7071
269.9430, 192.4444
270.4251, 193.2429
270.9072, 194.1227
271.3893, 195.0791
271.8715, 196.1158
272.3536, 197.2424
272.8357, 198.4171
273.3178, 199.5844
273.7999, 200.7766
274.2820, 202.0396
274.7642, 203.3676
275.2463, 204.7955
275.7284, 206.7734
276.2105, 209.7321
276.6926, 212.6385
277.1747, 215.0246
277.6568, 217.1040
278.1389, 219.3915
278.6211, 222.2055
279.1032, 225.3825
279.5853, 228.2350
280.0674, 230.4951
280.5495, 232.8265
281.0316, 235.6329
281.5138, 238.5965
281.9959, 241.0928
282.4780, 242.8049
282.9601, 244.0578
283.4422, 245.7095
283.9243, 248.4198
284.4065, 250.2850
284.8886, 250.5127
285.3707, 249.7692
285.8528, 249.0058
286.3349, 248.5323
286.8170, 248.1288
287.2992, 247.5110
287.7813, 246.9151
288.2634, 245.3976
288.7455, 242.2002
289.2276, 238.2452
289.7097, 234.7214
290.1919, 231.9112
290.6740, 229.2071
291.1561, 225.7505
291.6382, 221.4251
292.1203, 217.3467
292.6024, 213.7469
293.0846, 210.3716
293.5667, 206.9242
294.0488, 203.3581
294.5309, 199.9720
295.0130, 197.0360
295.4951, 194.5844
295.9773, 192.3626
296.4594, 190.6889
296.9415, 189.0058
297.4236, 186.7553
297.9057, 183.9786
298.3878, 181.2610
298.8700, 179.0023
299.3521, 177.1821
299.8342, 175.4235
300.3163, 173.5559
300.7984, 171.9129
301.2805, 170.8578
301.7627, 170.2595
302.2448, 169.4452
302.7269, 167.9157
303.2090, 166.0414
303.6911, 164.8949
304.1732, 164.6291
304.6554, 164.7259
305.1375, 165.1758
305.6196, 165.8293
306.1017, 166.2526
306.5838, 166.2116
307.0659, 165.9997
307.5481, 166.2081
308.0302, 166.8921
308.5123, 167.6329
308.9944, 168.2304
309.4765, 168.8101
309.9586, 169.5737
310.4408, 170.5676
310.9229, 171.7614
311.4050, 173.2174
311.8871, 174.9606
312.3692, 176.4781
312.8513, 177.3316
313.3335, 178.0605
313.8156, 179.4628
314.2977, 181.6755
314.7798, 183.8860
315.2619, 185.3134
315.7440, 185.9926
316.2262, 186.6989
316.7083, 187.3350
317.1904, 188.1320
317.6725, 189.4429
318.1546, 191.2284
318.6367, 192.8636
319.1188, 193.9122
319.6010, 194.4491
320.0831, 195.0229
320.5652, 195.5894
321.0473, 196.2372
321.5294, 197.0344
322.0115, 197.9572
322.4937, 198.9739
322.9758, 200.1341
323.4579, 201.2924
323.9400, 202.0574
324.4221, 202.3864
324.9042, 202.5262
325.3864, 202.3573
325.8685, 202.0880
326.3506, 202.1786
326.8327, 202.8330
327.3148, 203.6664
327.7969, 204.0172
328.2791, 203.7833
328.7612, 203.7587
329.2433, 204.2690
329.7254, 204.9807
330.2075, 205.4364
330.6896, 205.5572
331.1718, 205.7527
331.6539, 206.5115
332.1360, 207.8874
332.6181, 208.9602
333.1002, 209.4109
333.5823, 209.7634
334.0645, 210.3704
334.5466, 211.2397
335.0287, 212.2971
335.5108, 213.5918
335.9929, 215.0211
336.4750, 215.8906
336.9572, 215.8919
337.4393, 215.7390
337.9214, 215.8022
338.4035, 215.9434
338.8856, 215.8034
339.3677, 215.1927
339.8499, 214.2569
340.3320, 213.4016
340.8141, 212.9077
341.2962, 211.9946
341.7783, 210.3046
342.2604, 208.1870
342.7426, 206.0865
343.2247, 204.1382
343.7068, 202.2136
344.1889, 200.1439
344.6710, 197.8895
345.1531, 195.5673
345.6353, 192.8367
346.1174, 190.2948
346.5995, 188.5694
347.0816, 187.6259
347.5637, 186.7525
348.0458, 185.2795
348.5280, 183.1529
349.0101, 181.6142
349.4922, 180.9851
349.9743, 180.5105
350.4564, 179.8952
350.9385, 179.1881
351.4207, 178.5307
351.9028, 177.9981
352.3849, 177.6025
352.8670, 177.4030
353.3491, 177.4765
353.8312, 177.6498
354.3134, 178.0066
354.7955, 178.4125
355.2776, 178.7396
355.7597, 178.9389
356.2418, 178.9932
356.7239, 178.8429
357.2061, 178.1900
357.6882, 177.9700
358.1703, 178.6632
358.6524, 179.3885
359.1345, 179.5328
359.6166, 179.0619
360.0987, 178.3044
360.5808, 177.5423
361.0630, 176.7541
361.5451, 176.1742
362.0272, 176.0372
362.5093, 175.8509
362.9914, 175.3480
363.4735, 174.6811
363.9557, 174.1615
364.4378, 173.9817
364.9199, 174.0788
365.4020, 174.1883
365.8841, 174.3098
366.3662, 174.4480
366.8484, 174.5412
367.3305, 174.6813
367.8126, 175.0362
368.2947, 175.6358
368.7768, 176.2359
369.2589, 176.3728
369.7411, 175.7122
370.2232, 175.5134
370.7053, 176.3004
371.1874, 177.1241
371.6695, 177.3902
372.1516, 177.1693
372.6338, 176.9973
373.1159, 177.3965
373.5980, 178.3428
374.0801, 179.0930
374.5622, 179.8293
375.0443, 180.0881
375.5265, 179.3437
376.0086, 178.1395
376.4907, 177.3210
376.9728, 177.3359
377.4549, 177.8664
377.9370, 178.2838
378.4192, 178.6820
378.9013, 178.6869
379.3834, 177.8310
379.8655, 176.7688
380.3476, 176.0001
380.8297, 175.6237
381.3119, 175.3917
381.7940, 175.1414
382.2761, 174.8690
382.7582, 174.3475
383.2403, 173.3929
383.7224, 172.3553
384.2046, 171.3555
384.6867, 170.4509
385.1688, 169.8105
385.6509, 169.7757
386.1330, 170.0321
386.6151, 169.7404
387.0973, 168.6926
387.5794, 167.8515
388.0615, 168.0976
388.5436, 168.8073
389.0257, 169.0677
389.5078, 168.5182
389.9900, 167.8307
390.4721, 167.7559
390.9542, 168.1768
391.4363, 168.0763
391.9184, 166.7548
392.4005, 165.2335
392.8827, 165.1014
393.3648, 166.4651
393.8469, 167.5414
394.3290, 167.3562
394.8111, 166.5421
395.2932, 166.0279
395.7754, 165.9356
396.2575, 166.2189
396.7396, 166.9824
397.2217, 168.1755
397.7038, 169.1248
398.1859, 169.7107
398.6681, 170.1355
399.1501, 170.4944
399.6323, 170.7987
400.1144, 171.0745
400.5965, 171.3375
401.0786, 171.5739
401.5607, 171.7093
402.0428, 171.4617
402.5250, 171.6087
403.0071, 172.6083
403.4892, 173.9245
403.9713, 174.9730
404.4534, 175.6099
404.9355, 175.9907
405.4177, 176.2869
405.8998, 176.5009
406.3819, 176.5811
406.8640, 176.2945
407.3461, 176.1118
407.8282, 176.3508
408.3104, 176.8908
408.7925, 177.3518
409.2746, 177.4688
409.7567, 177.4002
410.2388, 177.8861
410.7209, 179.5239
411.2031, 180.9675
411.6852, 182.0804
412.1673, 182.9690
412.6494, 183.6960
413.1315, 184.2971
413.6136, 184.8534
414.0958, 185.5253
414.5779, 186.4388
415.0600, 186.9681
415.5421, 186.5401
416.0242, 186.2534
416.5063, 186.6071
416.9885, 187.4578
417.4706, 188.4133
417.9527, 189.2901
418.4348, 190.0339
418.9169, 190.3786
419.3990, 189.9899
419.8812, 189.9511
420.3633, 190.9164
420.8454, 192.1854
421.3275, 193.1113
421.8096, 193.5339
422.2917, 193.7746
422.7739, 194.0258
423.2560, 194.3037
423.7381, 195.0002
424.2202, 196.3772
424.7023, 197.9136
425.1844, 199.1752
425.6666, 200.2412
426.1487, 201.4150
426.6308, 202.7467
427.1129, 204.2961
427.5950, 206.1501
428.0771, 208.3238
428.5593, 210.7242
429.0414, 213.2586
429.5235, 216.0329
430.0056, 219.1766
430.4877, 222.7682
430.9698, 226.5611
431.4520, 230.4877
431.9341, 234.5049
432.4162, 238.4604
432.8983, 242.2527
433.3804, 246.2849
433.8625, 250.9583
434.3447, 256.3065
434.8268, 262.4746
435.3089, 270.2216
435.7910, 278.1499
436.2731, 284.9752
436.7552, 291.0712
437.2374, 297.8452
437.7195, 306.1342
438.2016, 315.6545
438.6837, 325.2020
439.1658, 334.9005
439.6479, 344.4965
440.1301, 353.4093
440.6122, 362.5009
441.0943, 372.6847
441.5764, 384.0236
442.0585, 395.8538
442.5406, 407.4356
443.0227, 418.8752
443.5049, 429.5013
443.9870, 438.6205
444.4691, 447.6075
444.9512, 457.1227
445.4333, 466.6746
445.9154, 475.7031
446.3976, 483.9174
446.8797, 491.0451
447.3618, 496.3514
447.8439, 499.4408
448.3260, 501.8575
448.8081, 504.3386
449.2903, 505.8910
449.7724, 505.7836
450.2545, 504.0061
450.7366, 501.0927
451.2187, 497.4334
451.7008, 492.9706
452.1830, 487.4921
452.6651, 480.9108
453.1472, 473.5787
453.6293, 465.3749
454.1114, 456.6201
454.5935, 447.7226
455.0757, 438.9123
455.5578, 429.7621
456.0399, 419.5045
456.5220, 408.4873
457.0041, 398.1006
457.4862, 388.8458
457.9684, 380.0959
458.4505, 370.9482
458.9326, 361.3966
459.4147, 352.3183
459.8968, 344.1827
460.3789, 336.3978
460.8611, 328.3350
461.3432, 320.0759
461.8253, 312.2672
462.3074, 305.3038
462.7895, 299.0387
463.2716, 292.6959
463.7538, 285.7821
464.2359, 279.4352
464.7180, 273.9133
465.2001, 268.8891
465.6822, 264.0382
466.1643, 259.2800
466.6465, 254.8110
467.1286, 250.8937
467.6107, 247.5652
468.0928, 244.1224
468.5749, 240.4295
469.0570, 236.7592
469.5392, 232.8780
470.0213, 229.1567
470.5034, 226.2489
470.9855, 224.4630
471.4676, 223.2263
471.9497, 221.5058
472.4319, 219.1612
472.9140, 216.9653
473.3961, 215.1461
473.8782, 213.4199
474.3603, 211.6128
474.8424, 209.7584
475.3246, 207.9835
475.8067, 206.5270
476.2888, 205.1567
476.7709, 203.1563
477.2530, 200.3655
477.7351, 198.0349
478.2173, 197.1047
478.6994, 196.8015
479.1815, 195.8855
479.6636, 194.1826
480.1457, 192.3371
480.6278, 190.5990
481.1100, 188.9524
481.5920, 187.3360
482.0742, 185.7341
482.5563, 184.2834
483.0384, 183.1884
483.5205, 182.4307
484.0026, 181.2546
484.4847, 179.2514
484.9669, 177.3025
485.4490, 175.6921
485.9311, 174.3871
486.4132, 173.3814
486.8953, 172.6648
487.3774, 172.0359
487.8596, 171.1486
488.3417, 169.8058
488.8238, 168.7328
489.3059, 168.2081
489.7880, 167.6441
490.2701, 166.6038
490.7523, 165.3003
491.2344, 164.2979
491.7165, 163.9939
492.1986, 164.0591
492.6807, 163.4773
493.1628, 161.8352
493.6450, 160.6960
494.1271, 161.1464
494.6092, 161.6669
495.0913, 161.1327
495.5734, 159.5521
496.0555, 157.8602
496.5377, 156.5820
497.0198, 155.6999
497.5019, 155.3504
497.9840, 155.7101
498.4661, 155.7422
498.9482, 154.4740
499.4304, 152.6624
499.9125, 151.8314
500.3946, 152.4644
500.8767, 153.0717
501.3588, 152.7327
501.8409, 151.9195
502.3231, 151.4747
502.8052, 151.5731
503.2873, 151.8897
503.7694, 152.1205
504.2515, 152.2633
504.7336, 152.5575
505.2158, 153.1113
505.6979, 153.6769
506.1800, 154.0292
506.6621, 154.3780
507.1442, 155.0932
507.6263, 156.2952
508.1085, 157.7001
508.5906, 158.8338
509.0727, 159.5417
509.5548, 160.5405
510.0369, 162.1358
510.5190, 163.7136
511.0012, 165.0039
511.4833, 166.1148
511.9654, 167.2787
512.4475, 168.6164
512.9296, 170.0524
513.4117, 171.5885
513.8939, 173.3194
514.3760, 174.4379
514.8581, 174.4290
515.3402, 174.0737
515.8223, 174.1282
516.3044, 174.5014
516.7866, 174.5420
517.2687, 173.8301
517.7508, 172.7221
518.2329, 171.6319
518.7150, 170.5644
519.1971, 169.4872
519.6793, 168.4420
520.1614, 167.3090
520.6435, 165.8032
521.1256, 163.8610
521.6077, 161.8154
522.0898, 159.5420
522.5720, 157.3196
523.0541, 155.5475
523.5362, 154.1430
524.0183, 152.5378
524.5004, 150.2802
524.9825, 147.5675
525.4647, 145.3864
525.9468, 144.3550
526.4289, 143.0059
526.9110, 140.9497
527.3931, 138.7184
527.8752, 136.6290
528.3574, 134.7906
528.8395, 133.3178
529.3216, 132.4328
529.8037, 132.0225
530.2858, 131.3712
530.7679, 130.3984
531.2501, 129.3748
531.7322, 128.2437
532.2143, 127.2065
532.6964, 126.5649
533.1785, 126.4344
533.6606, 126.2070
534.1428, 125.3749
534.6249, 124.1824
535.1070, 123.0724
535.5891, 122.0860
536.0712, 121.3947
536.5533, 121.2058
537.0355, 121.4405
537.5176, 121.5579
537.9997, 121.5651
538.4818, 121.4595
538.9639, 121.1227
539.4460, 120.7262
539.9282, 120.4430
540.4103, 120.3261
540.8924, 120.4248
541.3745, 120.8563
541.8566, 121.6430
542.3387, 121.9780
542.8209, 121.3129
543.3029, 120.8360
543.7850, 120.9677
544.2672, 121.3213
544.7493, 121.4054
545.2314, 121.1024
545.7135, 120.7816
546.1956, 120.9012
546.6777, 121.4181
547.1599, 121.8336
547.6420, 122.1560
548.1241, 122.3028
548.6062, 121.9041
549.0883, 121.3621
549.5704, 121.4305
550.0526, 122.5706
550.5347, 123.6122
551.0168, 123.7403
551.4989, 123.2580
551.9810, 122.7037
552.4631, 122.1818
552.9453, 121.8729
553.4274, 122.0263
553.9095, 122.6447
554.3916, 122.8411
554.8737, 122.3865
555.3558, 121.8530
555.8380, 121.3195
556.3201, 120.8265
556.8022, 120.4251
557.2843, 120.1230
557.7664, 119.9016
558.2485, 119.8408
558.7307, 119.9707
559.2128, 119.3647
559.6949, 117.0846
560.1770, 115.4450
560.6591, 115.7481
561.1412, 116.8044
561.6234, 117.1563
562.1055, 116.4050
562.5876, 115.3050
563.0697, 114.3926
563.5518, 113.6542
564.0339, 113.0442
564.5161, 112.5535
564.9982, 112.2231
565.4803, 112.2568
565.9624, 112.4661
566.4445, 112.0628
566.9266, 110.3186
567.4088, 109.0002
567.8909, 109.1740
568.3730, 109.8863
568.8551, 109.8698
569.3372, 108.9501
569.8193, 107.8568
570.3015, 107.2922
570.7836, 107.2153
571.2657, 106.8747
571.7478, 105.9499
572.2299, 105.1863
572.7120, 104.7160
573.1942, 104.4360
573.6763, 104.3031
574.1584, 104.2823
574.6405, 104.2512
575.1226, 104.1388
575.6047, 103.9320
576.0869, 103.5068
576.5690, 102.7709
577.0511, 102.2129
577.5332, 102.1829
578.0153, 102.4091
578.4974, 102.4842
578.9796, 102.4189
579.4617, 102.1223
579.9438, 101.1148
580.4259, 100.1224
580.9080, 100.1684
581.3901, 101.1739
581.8723, 102.1462
582.3544, 102.4540
582.8365, 102.2771
583.3186, 102.2168
583.8007, 102.1039
584.2828, 102.3967
584.7650, 103.7472
585.2471, 104.9422
585.7292, 104.9959
586.2113, 104.1445
586.6934, 103.3011
587.1755, 102.9926
587.6577, 103.1305
588.1398, 103.5855
588.6219, 104.4043
589.1040, 105.2276
589.5861, 105.9759
590.0682, 106.6987
590.5504, 107.5143
591.0325, 108.3810
591.5146, 109.0017
591.9967, 108.9950
592.4788, 108.9497
592.9609, 109.4832
593.4431, 110.3986
593.9252, 111.0403
594.4073, 111.1474
594.8894, 111.1268
595.3715, 111.5431
595.8536, 112.4658
596.3358, 113.5401
596.8179, 115.0833
597.3000, 116.4042
597.7821, 117.0890
598.2642, 117.4655
598.7463, 118.0241
599.2285, 118.9299
599.7106, 119.9378
600.1927, 120.7128
600.6748, 121.2717
601.1569, 122.0125
