##NAMES=Liroconite
##RRUFFID=R050535
##IDEAL CHEMISTRY=Cu^2+^_2_AlAs^5+^O_4_(OH)_4_&#183;4H_2_O
##LOCALITY=Wheal Gorland, St. Day, Cornwall, England
##OWNER=RRUFF
##SOURCE=University of Arizona Mineral Museum
##DESCRIPTION=Blue tabular crystals
##STATUS=The identification of this mineral has been confirmed by X-ray diffraction.
##URL=rruff.info/R050535
92.37695, 11.20750
92.85907, 11.20694
93.34119, 11.21918
93.82330, 11.14553
94.30542, 11.01695
94.78754, 10.91114
95.26965, 10.82954
95.75177, 10.63797
96.23389, 10.22374
96.71600, 9.743884
97.19812, 9.339992
97.68024, 9.030668
98.16235, 8.791768
98.64447, 8.605658
99.12659, 8.497155
99.60870, 8.350183
100.0908, 8.186250
100.5729, 7.990118
101.0551, 7.723897
101.5372, 7.354723
102.0193, 6.917646
102.5014, 6.611094
102.9835, 6.538961
103.4656, 6.497386
103.9478, 6.483152
104.4299, 6.474851
104.9120, 6.443260
105.3941, 6.364168
105.8762, 6.231766
106.3583, 6.094896
106.8405, 5.953201
107.3226, 5.806385
107.8047, 5.649152
108.2868, 5.482759
108.7689, 5.319433
109.2510, 5.176333
109.7332, 5.054776
110.2153, 4.929811
110.6974, 4.780180
111.1795, 4.629683
111.6616, 4.516063
112.1437, 4.454757
112.6259, 4.419222
113.1080, 4.389646
113.5901, 4.365629
114.0722, 4.323675
114.5543, 4.233617
115.0364, 4.098526
115.5185, 3.991652
116.0007, 3.948955
116.4828, 3.925607
116.9649, 3.891934
117.4470, 3.844263
117.9291, 3.799990
118.4112, 3.786121
118.8934, 3.820554
119.3755, 3.842283
119.8576, 3.839087
120.3397, 3.825290
120.8218, 3.799871
121.3039, 3.763501
121.7861, 3.735840
122.2682, 3.774912
122.7503, 4.078793
123.2324, 4.229533
123.7145, 4.078176
124.1966, 3.773912
124.6788, 3.535161
125.1609, 3.492530
125.6430, 3.619828
126.1251, 3.686520
126.6072, 3.652503
127.0893, 3.614114
127.5715, 3.616212
128.0536, 3.652490
128.5357, 3.684209
129.0178, 3.680905
129.4999, 3.647108
129.9821, 3.622649
130.4642, 3.619624
130.9463, 3.620800
131.4284, 3.606931
131.9105, 3.574978
132.3926, 3.539171
132.8748, 3.498069
133.3569, 3.459930
133.8390, 3.445506
134.3211, 3.485285
134.8032, 3.558938
135.2853, 3.593340
135.7674, 3.561054
136.2496, 3.523917
136.7317, 3.503349
137.2138, 3.501670
137.6959, 3.523070
138.1780, 3.585104
138.6601, 3.695955
139.1423, 3.760404
139.6244, 3.720852
140.1065, 3.681056
140.5886, 3.677109
141.0707, 3.711826
141.5528, 3.769400
142.0350, 3.832477
142.5171, 3.902490
142.9992, 3.975572
143.4813, 4.071572
143.9634, 4.156915
144.4455, 4.197974
144.9277, 4.190103
145.4098, 4.170576
145.8919, 4.203154
146.3740, 4.343111
146.8561, 4.432474
147.3382, 4.431766
147.8204, 4.388063
148.3025, 4.356756
148.7846, 4.356845
149.2667, 4.378354
149.7488, 4.403305
150.2309, 4.430610
150.7131, 4.462485
151.1952, 4.505774
151.6773, 4.555643
152.1594, 4.594839
152.6415, 4.612171
153.1236, 4.619966
153.6058, 4.636357
154.0879, 4.660621
154.5700, 4.695402
155.0521, 4.753190
155.5342, 4.835748
156.0163, 4.897913
156.4985, 4.894218
156.9806, 4.875907
157.4627, 4.880811
157.9448, 4.917231
158.4269, 4.980884
158.9090, 5.074852
159.3912, 5.220429
159.8733, 5.340665
160.3554, 5.395952
160.8375, 5.430451
161.3196, 5.487163
161.8017, 5.586321
162.2839, 5.707679
162.7660, 5.790725
163.2481, 5.822216
163.7302, 5.826688
164.2123, 5.792176
164.6944, 5.739222
165.1766, 5.695598
165.6587, 5.678277
166.1408, 5.679291
166.6229, 5.643968
167.1050, 5.496002
167.5871, 5.394325
168.0693, 5.400582
168.5514, 5.477436
169.0335, 5.551974
169.5156, 5.577422
169.9977, 5.555786
170.4798, 5.526084
170.9620, 5.467432
171.4441, 5.421811
171.9262, 5.421303
172.4083, 5.456557
172.8904, 5.480785
173.3725, 5.449259
173.8547, 5.373186
174.3368, 5.350879
174.8189, 5.434134
175.3010, 5.534860
175.7831, 5.572602
176.2652, 5.542624
176.7474, 5.515056
177.2295, 5.561619
177.7116, 5.650121
178.1937, 5.699617
178.6758, 5.675450
179.1579, 5.609223
179.6401, 5.543550
180.1222, 5.477714
180.6043, 5.415530
181.0864, 5.377279
181.5685, 5.343279
182.0506, 5.278620
182.5328, 5.163284
183.0149, 5.006499
183.4970, 4.827998
183.9791, 4.595362
184.4612, 4.395253
184.9433, 4.271687
185.4255, 4.200482
185.9076, 4.142434
186.3897, 4.084221
186.8718, 4.021283
187.3539, 3.903064
187.8360, 3.641056
188.3182, 3.415308
188.8003, 3.284083
189.2824, 3.229180
189.7645, 3.209471
190.2466, 3.197163
190.7287, 3.192885
191.2109, 3.179090
191.6930, 3.141561
192.1751, 3.108101
192.6572, 3.097188
193.1393, 3.099967
193.6214, 3.088896
194.1036, 3.033900
194.5857, 2.921212
195.0678, 2.880479
195.5499, 2.977765
196.0320, 3.070038
196.5141, 3.079543
196.9963, 3.014314
197.4784, 2.937869
197.9605, 2.911389
198.4426, 2.944988
198.9247, 2.947456
199.4068, 2.884602
199.8890, 2.819590
200.3711, 2.803751
200.8532, 2.837556
201.3353, 2.871035
201.8174, 2.854046
202.2995, 2.782623
202.7817, 2.730090
203.2638, 2.718529
203.7459, 2.715645
204.2280, 2.691227
204.7101, 2.641504
205.1922, 2.580185
205.6744, 2.502436
206.1565, 2.417439
206.6386, 2.376282
207.1207, 2.428125
207.6028, 2.514625
208.0849, 2.553941
208.5671, 2.533083
209.0492, 2.493536
209.5313, 2.465961
210.0134, 2.444874
210.4955, 2.418118
210.9776, 2.368304
211.4598, 2.311204
211.9419, 2.289243
212.4240, 2.325177
212.9061, 2.348743
213.3882, 2.288689
213.8703, 2.188648
214.3525, 2.132082
214.8346, 2.185821
215.3167, 2.315824
215.7988, 2.396175
216.2809, 2.406958
216.7630, 2.394385
217.2451, 2.372574
217.7273, 2.345836
218.2094, 2.322054
218.6915, 2.309143
219.1736, 2.303225
219.6557, 2.278415
220.1378, 2.202624
220.6200, 2.148629
221.1021, 2.147458
221.5842, 2.180433
222.0663, 2.217659
222.5484, 2.240373
223.0305, 2.249704
223.5127, 2.256383
223.9948, 2.256898
224.4769, 2.258257
224.9590, 2.260398
225.4411, 2.264559
225.9232, 2.274268
226.4054, 2.293484
226.8875, 2.319991
227.3696, 2.327851
227.8517, 2.297161
228.3338, 2.267956
228.8159, 2.245289
229.2981, 2.230340
229.7802, 2.224747
230.2623, 2.230240
230.7444, 2.245597
231.2265, 2.256752
231.7086, 2.266887
232.1908, 2.269917
232.6729, 2.260787
233.1550, 2.243436
233.6371, 2.225857
234.1192, 2.213366
234.6013, 2.204391
235.0835, 2.186623
235.5656, 2.135329
236.0477, 2.103280
236.5298, 2.120539
237.0119, 2.169327
237.4940, 2.210396
237.9762, 2.221089
238.4583, 2.207961
238.9404, 2.202195
239.4225, 2.214034
239.9046, 2.220567
240.3867, 2.202535
240.8689, 2.172153
241.3510, 2.164552
241.8331, 2.205478
242.3152, 2.271150
242.7973, 2.288851
243.2794, 2.231017
243.7616, 2.177808
244.2437, 2.167076
244.7258, 2.188870
245.2079, 2.213110
245.6900, 2.226460
246.1721, 2.236860
246.6543, 2.266705
247.1364, 2.333762
247.6185, 2.372880
248.1006, 2.320252
248.5827, 2.205183
249.0648, 2.138233
249.5470, 2.177109
250.0291, 2.256934
250.5112, 2.273366
250.9933, 2.215795
251.4754, 2.166310
251.9576, 2.190409
252.4397, 2.267464
252.9218, 2.303233
253.4039, 2.255398
253.8860, 2.179223
254.3681, 2.131882
254.8503, 2.112751
255.3324, 2.112704
255.8145, 2.140625
256.2966, 2.188243
256.7787, 2.211082
257.2608, 2.188908
257.7430, 2.155518
258.2251, 2.136569
258.7072, 2.131370
259.1893, 2.135437
259.6714, 2.146165
260.1535, 2.163759
260.6357, 2.195215
261.1178, 2.270775
261.5999, 2.317201
262.0820, 2.274314
262.5641, 2.165861
263.0462, 2.065161
263.5284, 2.020265
264.0105, 2.024042
264.4926, 2.035468
264.9747, 2.064768
265.4568, 2.086414
265.9389, 2.080960
266.4211, 2.059932
266.9032, 2.048153
267.3853, 2.069096
267.8674, 2.110474
268.3495, 2.114844
268.8316, 2.052487
269.3138, 1.997135
269.7959, 1.973682
270.2780, 1.974078
270.7601, 1.986458
271.2422, 2.004985
271.7243, 2.030698
272.2065, 2.073157
272.6886, 2.167576
273.1707, 2.214984
273.6528, 2.149490
274.1349, 2.044544
274.6170, 1.992012
275.0992, 2.037825
275.5813, 2.135859
276.0634, 2.163970
276.5455, 2.061205
277.0276, 2.003685
277.5097, 2.048138
277.9919, 2.131398
278.4740, 2.197494
278.9561, 2.226531
279.4382, 2.232648
279.9203, 2.242918
280.4024, 2.264077
280.8846, 2.274239
281.3667, 2.257510
281.8488, 2.239514
282.3309, 2.234492
282.8130, 2.247659
283.2951, 2.282179
283.7773, 2.353622
284.2594, 2.501950
284.7415, 2.584491
285.2236, 2.564682
285.7057, 2.513774
286.1878, 2.452699
286.6700, 2.395657
287.1521, 2.368529
287.6342, 2.414150
288.1163, 2.567991
288.5984, 2.651988
289.0805, 2.613034
289.5627, 2.557835
290.0448, 2.531128
290.5269, 2.533031
291.0090, 2.539159
291.4911, 2.523128
291.9732, 2.479834
292.4554, 2.480342
292.9375, 2.562218
293.4196, 2.649682
293.9017, 2.728305
294.3838, 2.793343
294.8659, 2.840739
295.3481, 2.866482
295.8302, 2.872026
296.3123, 2.875554
296.7944, 2.900141
297.2765, 2.896873
297.7586, 2.825511
298.2408, 2.725931
298.7229, 2.658136
299.2050, 2.656173
299.6871, 2.705405
300.1692, 2.750278
300.6513, 2.793609
301.1335, 2.827751
301.6156, 2.853707
302.0977, 2.869374
302.5798, 2.872318
303.0619, 2.861560
303.5440, 2.838757
304.0262, 2.803134
304.5083, 2.701392
304.9904, 2.673801
305.4725, 2.799856
305.9546, 2.946913
306.4367, 2.994980
306.9189, 2.921901
307.4010, 2.808043
307.8831, 2.769929
308.3652, 2.855531
308.8473, 2.892131
309.3294, 2.839113
309.8116, 2.778444
310.2937, 2.765605
310.7758, 2.799056
311.2579, 2.838557
311.7400, 2.844100
312.2221, 2.811227
312.7043, 2.774763
313.1864, 2.706660
313.6685, 2.662129
314.1506, 2.679367
314.6327, 2.739892
315.1148, 2.799528
315.5970, 2.827553
316.0791, 2.824636
316.5612, 2.798619
317.0433, 2.706069
317.5254, 2.638569
318.0075, 2.635664
318.4897, 2.666005
318.9718, 2.677143
319.4539, 2.640925
319.9360, 2.578743
320.4181, 2.560319
320.9002, 2.663779
321.3824, 2.712532
321.8645, 2.664427
322.3466, 2.574703
322.8287, 2.492602
323.3108, 2.436157
323.7929, 2.397190
324.2751, 2.361964
324.7572, 2.324694
325.2393, 2.304032
325.7214, 2.307321
326.2035, 2.319085
326.6856, 2.333243
327.1678, 2.346523
327.6499, 2.353815
328.1320, 2.348750
328.6141, 2.328442
329.0962, 2.309579
329.5783, 2.290035
330.0605, 2.273647
330.5426, 2.259516
331.0247, 2.249671
331.5068, 2.249716
331.9889, 2.265397
332.4710, 2.295198
332.9532, 2.314315
333.4353, 2.325351
333.9174, 2.321861
334.3995, 2.283772
334.8816, 2.234784
335.3637, 2.214569
335.8459, 2.244552
336.3280, 2.299461
336.8101, 2.299960
337.2922, 2.179343
337.7743, 2.103603
338.2564, 2.122882
338.7386, 2.167298
339.2206, 2.165631
339.7028, 2.101903
340.1849, 2.025544
340.6670, 2.021009
341.1491, 2.144386
341.6312, 2.197850
342.1133, 2.113569
342.5955, 2.025005
343.0776, 2.018920
343.5597, 2.086893
344.0418, 2.154462
344.5239, 2.145820
345.0060, 2.054579
345.4882, 1.999868
345.9703, 2.015220
346.4524, 2.037278
346.9345, 2.049037
347.4166, 2.055623
347.8987, 2.071768
348.3809, 2.109314
348.8630, 2.158119
349.3451, 2.174391
349.8272, 2.135174
350.3093, 2.097328
350.7914, 2.075533
351.2736, 2.058571
351.7557, 2.033339
352.2378, 1.995330
352.7199, 1.954338
353.2020, 1.922979
353.6841, 1.894804
354.1663, 1.897228
354.6484, 1.976740
355.1305, 2.053684
355.6126, 2.077662
356.0947, 2.047360
356.5768, 1.998211
357.0590, 1.955233
357.5411, 1.917730
358.0232, 1.909850
358.5053, 1.958240
358.9874, 2.008430
359.4695, 2.041432
359.9517, 2.058887
360.4338, 2.065510
360.9159, 2.061787
361.3980, 2.050673
361.8801, 2.042865
362.3622, 2.044718
362.8444, 2.035383
363.3265, 1.986572
363.8086, 1.932841
364.2907, 1.916308
364.7728, 1.954050
365.2549, 2.005772
365.7371, 2.015965
366.2192, 1.979484
366.7013, 1.949649
367.1834, 1.949955
367.6655, 1.951591
368.1476, 1.928603
368.6298, 1.881554
369.1119, 1.838194
369.5940, 1.810611
370.0761, 1.801415
370.5582, 1.832396
371.0403, 1.933327
371.5225, 2.023145
372.0046, 2.039110
372.4867, 2.003490
372.9688, 1.964143
373.4509, 1.927222
373.9330, 1.903833
374.4152, 1.922887
374.8973, 1.991290
375.3794, 2.042809
375.8615, 2.037642
376.3436, 1.997229
376.8257, 1.950229
377.3079, 1.889671
377.7900, 1.846332
378.2721, 1.855744
378.7542, 1.905315
379.2363, 1.938910
379.7184, 1.937081
380.2006, 1.920347
380.6827, 1.920341
381.1648, 1.937448
381.6469, 1.934167
382.1290, 1.870924
382.6111, 1.791395
383.0933, 1.763114
383.5754, 1.795520
384.0575, 1.840703
384.5396, 1.865550
385.0217, 1.869666
385.5038, 1.864438
385.9860, 1.834625
386.4681, 1.809591
386.9502, 1.810961
387.4323, 1.833077
387.9144, 1.860386
388.3965, 1.891313
388.8787, 1.913399
389.3608, 1.884012
389.8429, 1.760427
390.3250, 1.682759
390.8071, 1.706217
391.2892, 1.779190
391.7714, 1.846402
392.2535, 1.894200
392.7356, 1.927277
393.2177, 1.950374
393.6998, 1.962588
394.1819, 1.965025
394.6641, 1.971315
395.1462, 1.956791
395.6283, 1.877462
396.1104, 1.760797
396.5925, 1.689568
397.0746, 1.722392
397.5568, 1.837471
398.0389, 1.914137
398.5210, 1.911372
399.0031, 1.917917
399.4852, 1.962946
399.9673, 2.013241
400.4495, 2.024958
400.9316, 1.986675
401.4137, 1.933159
401.8958, 1.922188
402.3779, 1.984882
402.8600, 2.004432
403.3422, 1.925476
403.8243, 1.858729
404.3064, 1.882850
404.7885, 1.973608
405.2706, 2.044056
405.7527, 2.021125
406.2349, 1.920077
406.7170, 1.865240
407.1991, 1.893224
407.6812, 1.917519
408.1633, 1.910690
408.6454, 1.892694
409.1276, 1.882841
409.6097, 1.887847
410.0918, 1.910054
410.5739, 1.970867
411.0560, 2.089773
411.5381, 2.139866
412.0203, 2.004895
412.5024, 1.876166
412.9845, 1.888034
413.4666, 2.019497
413.9487, 2.138875
414.4308, 2.139253
414.9130, 2.052356
415.3951, 1.999099
415.8772, 1.989721
416.3593, 1.989109
416.8414, 1.985327
417.3235, 1.955868
417.8057, 1.979372
418.2878, 1.991323
418.7699, 1.992342
419.2520, 1.949685
419.7341, 1.963426
420.2162, 1.954566
420.6984, 1.944778
421.1805, 1.966457
421.6626, 1.930153
422.1447, 1.951333
422.6268, 1.949567
423.1089, 1.958302
423.5911, 1.944296
424.0732, 1.937314
424.5553, 1.926617
425.0374, 1.900373
425.5195, 1.890086
426.0016, 1.891339
426.4838, 1.874944
426.9659, 1.825321
427.4480, 1.775139
427.9301, 1.739112
428.4122, 1.713341
428.8943, 1.687616
429.3765, 1.657129
429.8586, 1.631342
430.3407, 1.629045
430.8228, 1.672414
431.3049, 1.689718
431.7870, 1.653019
432.2692, 1.610612
432.7513, 1.595874
433.2334, 1.610395
433.7155, 1.642204
434.1976, 1.685592
434.6797, 1.737781
435.1619, 1.757688
435.6440, 1.729526
436.1261, 1.685505
436.6082, 1.603261
437.0903, 1.519186
437.5724, 1.479551
438.0546, 1.499282
438.5367, 1.546554
439.0188, 1.569034
439.5009, 1.552800
439.9830, 1.556842
440.4651, 1.618999
440.9473, 1.669204
441.4294, 1.665244
441.9115, 1.620369
442.3936, 1.576189
442.8757, 1.559006
443.3578, 1.563755
443.8400, 1.580420
444.3221, 1.625260
444.8042, 1.640907
445.2863, 1.557087
445.7684, 1.461051
446.2505, 1.446904
446.7327, 1.538295
447.2148, 1.639786
447.6969, 1.660601
448.1790, 1.615299
448.6611, 1.585326
449.1432, 1.586007
449.6254, 1.597939
450.1075, 1.608985
450.5896, 1.618352
451.0717, 1.622447
451.5538, 1.613461
452.0359, 1.603687
452.5181, 1.606302
453.0002, 1.619857
453.4823, 1.635537
453.9644, 1.652581
454.4465, 1.665483
454.9286, 1.660255
455.4108, 1.635038
455.8929, 1.603167
456.3750, 1.547698
456.8571, 1.497797
457.3392, 1.492364
457.8214, 1.533723
458.3035, 1.585763
458.7856, 1.617196
459.2677, 1.627793
459.7498, 1.641310
460.2319, 1.674476
460.7141, 1.691123
461.1962, 1.658956
461.6783, 1.611039
462.1604, 1.602511
462.6425, 1.652793
463.1246, 1.720392
463.6068, 1.728035
464.0889, 1.635639
464.5710, 1.589999
465.0531, 1.626010
465.5352, 1.673223
466.0173, 1.708603
466.4995, 1.727437
466.9816, 1.727244
467.4637, 1.703356
467.9458, 1.662775
468.4279, 1.623375
468.9100, 1.575244
469.3922, 1.554178
469.8743, 1.615603
470.3564, 1.680813
470.8385, 1.667694
471.3206, 1.566043
471.8027, 1.477513
472.2849, 1.506460
472.7670, 1.617174
473.2491, 1.666680
473.7312, 1.625642
474.2133, 1.571380
474.6954, 1.558641
475.1776, 1.574282
475.6597, 1.590424
476.1418, 1.607542
476.6239, 1.618087
477.1060, 1.611485
477.5881, 1.593537
478.0703, 1.578886
478.5524, 1.570553
479.0345, 1.575311
479.5166, 1.610455
479.9987, 1.689931
480.4808, 1.731919
480.9630, 1.709144
481.4451, 1.666618
481.9272, 1.627914
482.4093, 1.595996
482.8914, 1.568990
483.3735, 1.545040
483.8557, 1.526930
484.3378, 1.525576
484.8199, 1.575561
485.3020, 1.591616
485.7841, 1.535779
486.2662, 1.470855
486.7484, 1.440037
487.2305, 1.450876
487.7126, 1.494561
488.1947, 1.575956
488.6768, 1.689456
489.1589, 1.742558
489.6411, 1.693114
490.1232, 1.648808
490.6053, 1.654426
491.0874, 1.677759
491.5695, 1.679391
492.0516, 1.647097
492.5338, 1.609511
493.0159, 1.597820
493.4980, 1.609163
493.9801, 1.619600
494.4622, 1.628804
494.9443, 1.630766
495.4265, 1.609148
495.9086, 1.574925
496.3907, 1.561209
496.8728, 1.582700
497.3549, 1.621638
497.8370, 1.686445
498.3192, 1.761456
498.8013, 1.774808
499.2834, 1.684484
499.7655, 1.562343
500.2476, 1.531385
500.7297, 1.625775
501.2119, 1.688938
501.6940, 1.698469
502.1761, 1.684567
502.6582, 1.661158
503.1403, 1.632750
503.6224, 1.601316
504.1045, 1.566088
504.5866, 1.534948
505.0688, 1.539021
505.5509, 1.629849
506.0330, 1.673473
506.5151, 1.627183
506.9972, 1.561656
507.4793, 1.521190
507.9615, 1.513166
508.4436, 1.531041
508.9257, 1.585176
509.4078, 1.661241
509.8899, 1.659026
510.3720, 1.532081
510.8542, 1.428278
511.3363, 1.421585
511.8184, 1.455086
512.3005, 1.477459
512.7827, 1.479409
513.2648, 1.472078
513.7469, 1.460248
514.2290, 1.445727
514.7111, 1.428885
515.1932, 1.405573
515.6754, 1.402256
516.1575, 1.460443
516.6396, 1.557770
517.1217, 1.591821
517.6038, 1.495238
518.0859, 1.408984
518.5681, 1.403317
519.0502, 1.448451
519.5323, 1.506364
520.0144, 1.565493
520.4965, 1.599750
520.9786, 1.570749
521.4608, 1.461166
521.9429, 1.394242
522.4250, 1.387225
522.9071, 1.395987
523.3892, 1.419166
523.8713, 1.443836
524.3535, 1.449494
524.8356, 1.428025
525.3177, 1.397406
525.7998, 1.385887
526.2819, 1.394496
526.7640, 1.418401
527.2462, 1.489888
527.7283, 1.541285
528.2104, 1.526047
528.6925, 1.467047
529.1746, 1.416420
529.6567, 1.393773
530.1389, 1.393581
530.6210, 1.418226
531.1031, 1.465692
531.5852, 1.504270
532.0673, 1.535331
532.5494, 1.537952
533.0316, 1.455937
533.5137, 1.296048
533.9958, 1.197288
534.4779, 1.227444
534.9600, 1.295934
535.4421, 1.349686
535.9243, 1.382012
536.4064, 1.378934
536.8885, 1.329598
537.3706, 1.262187
537.8527, 1.237422
538.3348, 1.281174
538.8170, 1.317815
539.2991, 1.339127
539.7812, 1.361111
540.2633, 1.409975
540.7454, 1.468039
541.2275, 1.485286
541.7097, 1.425388
542.1918, 1.324475
542.6739, 1.279202
543.1560, 1.304781
543.6381, 1.337114
544.1202, 1.375977
544.6024, 1.408077
545.0845, 1.427113
545.5666, 1.432189
546.0487, 1.421395
546.5308, 1.376034
547.0129, 1.323316
547.4951, 1.306975
547.9772, 1.326372
548.4593, 1.365285
548.9414, 1.430258
549.4235, 1.495229
549.9056, 1.501242
550.3878, 1.436125
550.8699, 1.397256
551.3520, 1.426688
551.8341, 1.471024
552.3162, 1.489401
552.7983, 1.482098
553.2805, 1.462046
553.7626, 1.434772
554.2447, 1.407695
554.7268, 1.403456
555.2089, 1.440420
555.6910, 1.467979
556.1732, 1.487233
556.6553, 1.495963
557.1374, 1.493495
557.6195, 1.479433
558.1016, 1.449998
558.5837, 1.395051
559.0659, 1.334257
559.5480, 1.321150
560.0301, 1.365435
560.5122, 1.400021
560.9943, 1.404973
561.4764, 1.393518
561.9586, 1.372769
562.4407, 1.344417
562.9228, 1.330840
563.4049, 1.358913
563.8870, 1.392910
564.3691, 1.379369
564.8513, 1.330398
565.3334, 1.322481
565.8155, 1.399706
566.2976, 1.507687
566.7797, 1.541058
567.2618, 1.454912
567.7440, 1.394169
568.2261, 1.363000
568.7082, 1.353451
569.1903, 1.378330
569.6724, 1.420022
570.1545, 1.437627
570.6367, 1.407342
571.1188, 1.358647
571.6009, 1.364338
572.0830, 1.451260
572.5651, 1.488623
573.0472, 1.417072
573.5294, 1.336629
574.0115, 1.290757
574.4936, 1.279189
574.9757, 1.298785
575.4578, 1.368988
575.9399, 1.441384
576.4221, 1.456768
576.9042, 1.422641
577.3863, 1.375236
577.8684, 1.316693
578.3505, 1.272870
578.8326, 1.284285
579.3148, 1.356617
579.7969, 1.392699
580.2790, 1.356844
580.7611, 1.318824
581.2432, 1.316237
581.7253, 1.333241
582.2075, 1.342445
582.6896, 1.334135
583.1717, 1.314771
583.6538, 1.290624
584.1359, 1.258984
584.6180, 1.242141
585.1002, 1.248523
585.5823, 1.260440
586.0643, 1.266929
586.5464, 1.277563
587.0286, 1.315522
587.5107, 1.390988
587.9928, 1.448515
588.4749, 1.411967
588.9570, 1.309961
589.4391, 1.261514
589.9213, 1.288964
590.4034, 1.322684
590.8855, 1.310461
591.3676, 1.267937
591.8497, 1.255514
592.3318, 1.292938
592.8140, 1.326116
593.2961, 1.333934
593.7782, 1.331149
594.2603, 1.342088
594.7424, 1.364204
595.2245, 1.362701
595.7067, 1.303694
596.1888, 1.203333
596.6709, 1.156523
597.1530, 1.198793
597.6351, 1.234034
598.1172, 1.254794
598.5994, 1.261103
599.0815, 1.238951
599.5636, 1.197786
600.0457, 1.178972
600.5278, 1.231033
601.0099, 1.307610
601.4921, 1.307032
601.9742, 1.228019
602.4563, 1.169055
602.9384, 1.169863
603.4205, 1.197931
603.9026, 1.212100
604.3848, 1.213209
604.8669, 1.203750
605.3490, 1.153679
605.8311, 1.121590
606.3132, 1.165465
606.7953, 1.253915
607.2775, 1.320685
607.7596, 1.339411
608.2417, 1.322655
608.7238, 1.284964
609.2059, 1.219612
609.6880, 1.166560
610.1702, 1.120072
610.6523, 1.094060
611.1344, 1.111527
611.6165, 1.144964
612.0986, 1.150163
612.5807, 1.111809
613.0629, 1.079204
613.5450, 1.118868
614.0271, 1.201518
614.5092, 1.218778
614.9913, 1.149602
615.4734, 1.094095
615.9556, 1.128083
616.4377, 1.220688
616.9198, 1.261297
617.4019, 1.216526
617.8840, 1.189410
618.3661, 1.216127
618.8483, 1.257910
619.3304, 1.292433
619.8125, 1.309973
620.2946, 1.289616
620.7767, 1.212510
621.2589, 1.106960
621.7410, 1.059776
622.2231, 1.089080
622.7052, 1.123338
623.1873, 1.163699
623.6694, 1.197124
624.1516, 1.217495
624.6337, 1.224676
625.1158, 1.217293
625.5979, 1.183294
626.0800, 1.151235
626.5621, 1.152169
627.0443, 1.179715
627.5264, 1.218289
628.0085, 1.267221
628.4906, 1.301046
628.9727, 1.288891
629.4548, 1.230577
629.9370, 1.199372
630.4191, 1.222538
630.9012, 1.234260
631.3833, 1.209652
631.8654, 1.172608
632.3475, 1.147159
632.8297, 1.137233
633.3118, 1.133145
633.7939, 1.126134
634.2760, 1.118431
634.7581, 1.122485
635.2402, 1.143859
635.7224, 1.153945
636.2045, 1.128376
636.6866, 1.101738
637.1687, 1.117534
637.6508, 1.172983
638.1329, 1.212201
638.6151, 1.219004
639.0972, 1.201878
639.5793, 1.144608
640.0614, 1.069895
640.5435, 1.041380
641.0256, 1.081879
641.5078, 1.145521
641.9899, 1.170005
642.4720, 1.149287
642.9541, 1.139201
643.4362, 1.165088
643.9183, 1.171606
644.4005, 1.118851
644.8826, 1.055215
645.3647, 1.035724
645.8468, 1.070386
646.3289, 1.125439
646.8110, 1.188911
647.2932, 1.249114
647.7753, 1.268331
648.2574, 1.243930
648.7395, 1.226497
649.2216, 1.244037
649.7037, 1.273570
650.1859, 1.272027
650.6680, 1.231951
651.1501, 1.196855
651.6322, 1.134599
652.1143, 1.112655
652.5964, 1.224192
653.0786, 1.392053
653.5607, 1.464683
654.0428, 1.387966
654.5249, 1.255511
655.0070, 1.194648
655.4891, 1.208276
655.9713, 1.214245
656.4534, 1.209909
656.9355, 1.203056
657.4176, 1.179563
657.8997, 1.163934
658.3818, 1.198040
658.8640, 1.295681
659.3461, 1.369604
659.8282, 1.372817
660.3103, 1.337315
660.7924, 1.289058
661.2745, 1.234253
661.7567, 1.178771
662.2388, 1.123068
662.7209, 1.086301
663.2030, 1.111280
663.6851, 1.230518
664.1672, 1.305180
664.6494, 1.314046
665.1315, 1.300585
665.6136, 1.265077
666.0957, 1.221101
666.5778, 1.179689
667.0599, 1.142786
667.5421, 1.132201
668.0242, 1.198679
668.5063, 1.299509
668.9884, 1.309622
669.4705, 1.219682
669.9526, 1.164930
670.4348, 1.232894
670.9169, 1.359072
671.3990, 1.399348
671.8811, 1.304293
672.3632, 1.243552
672.8453, 1.249992
673.3275, 1.261767
673.8096, 1.240233
674.2917, 1.201614
674.7738, 1.178662
675.2559, 1.184083
675.7380, 1.201110
676.2202, 1.205817
676.7023, 1.200885
677.1844, 1.219759
677.6665, 1.275547
678.1486, 1.313246
678.6307, 1.288816
679.1129, 1.237926
679.5950, 1.231988
680.0771, 1.283335
680.5592, 1.322983
681.0413, 1.331333
681.5234, 1.324358
682.0056, 1.300364
682.4877, 1.272401
682.9698, 1.274307
683.4519, 1.319838
683.9340, 1.372347
684.4161, 1.371595
684.8983, 1.311217
685.3804, 1.273044
685.8625, 1.262847
686.3446, 1.265186
686.8267, 1.285459
687.3088, 1.308553
687.7910, 1.317009
688.2731, 1.308306
688.7552, 1.293381
689.2373, 1.261927
689.7194, 1.237550
690.2015, 1.259376
690.6837, 1.312302
691.1658, 1.343336
691.6479, 1.330275
692.1300, 1.289791
692.6121, 1.241590
693.0942, 1.180972
693.5764, 1.148442
694.0585, 1.152804
694.5406, 1.175179
695.0227, 1.236297
695.5048, 1.296445
695.9869, 1.302034
696.4691, 1.248253
696.9512, 1.207909
697.4333, 1.238283
697.9154, 1.297369
698.3975, 1.343726
698.8796, 1.370864
699.3618, 1.339020
699.8439, 1.226181
700.3260, 1.113733
700.8081, 1.115681
701.2902, 1.246570
701.7723, 1.353883
702.2545, 1.486717
702.7366, 1.532650
703.2187, 1.387811
703.7008, 1.198027
704.1829, 1.097910
704.6650, 1.103458
705.1472, 1.155681
705.6293, 1.246354
706.1114, 1.338866
706.5935, 1.359738
707.0756, 1.321253
707.5577, 1.312592
708.0399, 1.367331
708.5220, 1.418902
709.0041, 1.389001
709.4862, 1.277296
709.9683, 1.203610
710.4504, 1.175282
710.9326, 1.172572
711.4147, 1.216466
711.8968, 1.267279
712.3789, 1.287250
712.8610, 1.279274
713.3431, 1.273672
713.8253, 1.291468
714.3074, 1.317005
714.7895, 1.330578
715.2716, 1.331301
715.7537, 1.307355
716.2358, 1.251216
716.7180, 1.195055
717.2001, 1.162890
717.6822, 1.153978
718.1643, 1.164593
718.6464, 1.215394
719.1285, 1.255011
719.6107, 1.273292
720.0928, 1.283213
720.5749, 1.294022
721.0570, 1.304743
721.5391, 1.309559
722.0212, 1.305110
722.5034, 1.296374
722.9855, 1.289081
723.4676, 1.283195
723.9497, 1.274788
724.4318, 1.260305
724.9139, 1.266787
725.3961, 1.324928
725.8782, 1.406151
726.3603, 1.426590
726.8424, 1.355051
727.3245, 1.296715
727.8066, 1.246139
728.2888, 1.220655
728.7709, 1.258385
729.2530, 1.320066
729.7351, 1.330635
730.2172, 1.265701
730.6993, 1.190212
731.1815, 1.177960
731.6636, 1.213088
732.1457, 1.236492
732.6278, 1.245776
733.1099, 1.252707
733.5920, 1.258929
734.0742, 1.271350
734.5563, 1.306705
735.0384, 1.376715
735.5205, 1.406039
736.0026, 1.359589
736.4847, 1.314180
736.9669, 1.297712
737.4490, 1.296749
737.9311, 1.294591
738.4132, 1.288385
738.8953, 1.285766
739.3774, 1.296579
739.8596, 1.311408
740.3417, 1.306047
740.8238, 1.282265
741.3059, 1.271029
741.7880, 1.283578
742.2701, 1.298691
742.7523, 1.294012
743.2344, 1.271509
743.7165, 1.261904
744.1986, 1.265242
744.6807, 1.280258
745.1628, 1.324714
745.6450, 1.366067
746.1271, 1.375452
746.6092, 1.359409
747.0913, 1.344180
747.5734, 1.343809
748.0555, 1.343737
748.5377, 1.322551
749.0198, 1.286246
749.5019, 1.253574
749.9840, 1.225952
750.4661, 1.219561
750.9482, 1.249802
751.4304, 1.299771
751.9125, 1.328549
752.3946, 1.330442
752.8767, 1.323256
753.3588, 1.281126
753.8409, 1.259002
754.3231, 1.297440
754.8052, 1.362005
755.2873, 1.407883
755.7694, 1.423811
756.2515, 1.419106
756.7336, 1.382081
757.2158, 1.338255
757.6979, 1.339443
758.1800, 1.377947
758.6621, 1.404608
759.1442, 1.402563
759.6263, 1.382075
760.1085, 1.349928
760.5906, 1.306096
761.0727, 1.298336
761.5548, 1.366249
762.0369, 1.411397
762.5190, 1.398489
763.0012, 1.375922
763.4833, 1.382480
763.9654, 1.412620
764.4475, 1.436204
764.9296, 1.447217
765.4117, 1.437708
765.8939, 1.378635
766.3760, 1.301958
766.8581, 1.271276
767.3402, 1.291348
767.8223, 1.325293
768.3044, 1.351532
768.7866, 1.368287
769.2687, 1.366129
769.7508, 1.332619
770.2329, 1.327021
770.7150, 1.367407
771.1971, 1.413072
771.6793, 1.452530
772.1614, 1.482980
772.6435, 1.500473
773.1256, 1.504614
773.6077, 1.495440
774.0898, 1.457365
774.5720, 1.419953
775.0541, 1.415517
775.5362, 1.428544
776.0183, 1.420745
776.5004, 1.383569
776.9825, 1.350224
777.4647, 1.358096
777.9468, 1.396911
778.4289, 1.412889
778.9110, 1.400817
779.3931, 1.395072
779.8752, 1.408635
780.3574, 1.423125
780.8395, 1.412146
781.3216, 1.385340
781.8037, 1.393238
782.2858, 1.482807
782.7679, 1.541993
783.2501, 1.515609
783.7322, 1.471452
784.2143, 1.470845
784.6964, 1.501552
785.1785, 1.511058
785.6606, 1.473840
786.1428, 1.436834
786.6249, 1.483867
787.1070, 1.583349
787.5891, 1.587635
788.0712, 1.484685
788.5533, 1.395808
789.0355, 1.378488
789.5176, 1.395581
789.9997, 1.385393
790.4818, 1.334843
790.9639, 1.339762
791.4460, 1.462686
791.9282, 1.559029
792.4103, 1.578202
792.8924, 1.570265
793.3745, 1.585150
793.8566, 1.621458
794.3387, 1.640014
794.8209, 1.606568
795.3030, 1.570911
795.7851, 1.600278
796.2672, 1.659463
796.7493, 1.660965
797.2314, 1.597971
797.7136, 1.541454
798.1957, 1.538838
798.6778, 1.567352
799.1599, 1.567189
799.6420, 1.523300
800.1241, 1.515046
800.6063, 1.566273
801.0884, 1.618429
801.5705, 1.650624
802.0526, 1.665257
802.5347, 1.653665
803.0168, 1.611321
803.4990, 1.599688
803.9811, 1.677779
804.4632, 1.748221
804.9453, 1.745260
805.4274, 1.697035
805.9095, 1.634172
806.3917, 1.571581
806.8738, 1.534311
807.3559, 1.546164
807.8380, 1.589372
808.3201, 1.632131
808.8022, 1.673682
809.2844, 1.682124
809.7665, 1.643396
810.2486, 1.612125
810.7307, 1.632102
811.2128, 1.683807
811.6949, 1.705487
812.1771, 1.668613
812.6592, 1.659943
813.1413, 1.705938
813.6234, 1.750271
814.1055, 1.778922
814.5876, 1.785925
815.0698, 1.749390
815.5519, 1.670105
816.0340, 1.618766
816.5161, 1.664193
816.9982, 1.741528
817.4803, 1.773507
817.9625, 1.775286
818.4446, 1.794429
818.9267, 1.840012
819.4088, 1.873395
819.8909, 1.857933
820.3730, 1.811833
820.8552, 1.805004
821.3373, 1.851527
821.8194, 1.871899
822.3015, 1.835806
822.7836, 1.809065
823.2657, 1.836092
823.7479, 1.898257
824.2300, 1.966646
824.7121, 2.054811
825.1942, 2.092935
825.6763, 2.010333
826.1584, 1.933836
826.6406, 1.946705
827.1227, 2.007543
827.6048, 2.057380
828.0869, 2.081249
828.5690, 2.088698
829.0511, 2.078501
829.5333, 2.065513
830.0154, 2.074610
830.4975, 2.104036
830.9796, 2.151227
831.4617, 2.216438
831.9438, 2.274469
832.4260, 2.309246
832.9081, 2.319454
833.3902, 2.292413
833.8723, 2.181016
834.3544, 2.157586
834.8365, 2.286747
835.3187, 2.423759
835.8008, 2.514525
836.2829, 2.579859
836.7650, 2.653006
837.2471, 2.737425
837.7292, 2.784219
838.2114, 2.728084
838.6935, 2.682785
839.1756, 2.727996
839.6577, 2.824671
840.1398, 2.923280
840.6219, 3.013073
841.1041, 3.101494
841.5862, 3.197140
842.0683, 3.282233
842.5504, 3.304973
843.0325, 3.280627
843.5146, 3.320154
843.9968, 3.439116
844.4789, 3.575989
844.9610, 3.703926
845.4431, 3.816482
845.9252, 3.897147
846.4073, 3.934644
846.8895, 3.998830
847.3716, 4.123496
847.8537, 4.229387
848.3358, 4.271157
848.8179, 4.309647
849.3000, 4.408435
849.7822, 4.557867
850.2643, 4.690142
850.7464, 4.773256
851.2285, 4.852725
851.7106, 4.965666
852.1927, 5.081706
852.6749, 5.160812
853.1570, 5.210001
853.6391, 5.263247
854.1212, 5.335962
854.6033, 5.411387
855.0854, 5.454712
855.5676, 5.479932
856.0497, 5.570607
856.5318, 5.730578
857.0139, 5.847341
857.4960, 5.878515
857.9781, 5.876583
858.4603, 5.895364
858.9424, 5.932396
859.4245, 5.960323
859.9066, 5.994776
860.3887, 5.992575
860.8708, 5.916054
861.3530, 5.838340
861.8351, 5.808300
862.3172, 5.800281
862.7993, 5.767007
863.2814, 5.698998
863.7635, 5.611931
864.2457, 5.497250
864.7278, 5.380010
865.2099, 5.270485
865.6920, 5.176465
866.1741, 5.132065
866.6563, 5.129320
867.1384, 5.083887
867.6205, 4.915164
868.1026, 4.695922
868.5847, 4.579811
869.0668, 4.547054
869.5490, 4.460536
870.0311, 4.298924
870.5132, 4.138732
870.9953, 4.021794
871.4774, 3.937659
871.9595, 3.870873
872.4417, 3.832949
872.9238, 3.746248
873.4059, 3.562032
873.8880, 3.405627
874.3701, 3.328204
874.8522, 3.283537
875.3344, 3.238706
875.8165, 3.193400
876.2986, 3.152904
876.7807, 3.121078
877.2628, 3.090234
877.7449, 3.065974
878.2271, 3.034758
878.7092, 2.982994
879.1913, 2.915047
879.6734, 2.833169
880.1555, 2.739679
880.6376, 2.671981
881.1198, 2.695791
881.6019, 2.754388
882.0840, 2.730493
882.5661, 2.643082
883.0482, 2.579764
883.5303, 2.562811
884.0125, 2.562860
884.4946, 2.557863
884.9767, 2.545082
885.4588, 2.510660
885.9409, 2.447017
886.4230, 2.406436
886.9052, 2.404741
887.3873, 2.398006
887.8694, 2.361051
888.3515, 2.308784
888.8336, 2.262245
889.3157, 2.220335
889.7979, 2.193189
890.2800, 2.211002
890.7621, 2.204505
891.2442, 2.128065
891.7263, 2.041830
892.2084, 2.000371
892.6906, 1.995438
893.1727, 1.988347
893.6548, 1.965521
894.1369, 1.938007
894.6190, 1.911009
895.1011, 1.884935
895.5833, 1.847503
896.0654, 1.813447
896.5475, 1.837969
897.0296, 1.928501
897.5117, 1.990386
897.9938, 1.917074
898.4760, 1.770239
898.9581, 1.721990
899.4402, 1.763456
899.9223, 1.785531
900.4044, 1.769161
900.8865, 1.741768
901.3687, 1.717206
901.8508, 1.700302
902.3329, 1.704410
902.8150, 1.737799
903.2971, 1.750010
903.7792, 1.727067
904.2614, 1.707181
904.7435, 1.712373
905.2256, 1.716244
905.7077, 1.685514
906.1898, 1.629170
906.6719, 1.598278
907.1541, 1.619345
907.6362, 1.634015
908.1183, 1.637418
908.6004, 1.620688
909.0825, 1.568347
909.5646, 1.494884
910.0468, 1.411124
910.5289, 1.323896
911.0110, 1.278462
911.4931, 1.341126
911.9752, 1.429880
912.4573, 1.458729
912.9395, 1.445122
913.4216, 1.415674
913.9037, 1.381402
914.3858, 1.362562
914.8679, 1.371381
915.3500, 1.402481
915.8321, 1.460707
916.3142, 1.538036
916.7963, 1.571142
917.2784, 1.556974
917.7606, 1.514728
918.2427, 1.442264
918.7248, 1.381621
919.2069, 1.385241
919.6890, 1.440234
920.1711, 1.442150
920.6533, 1.353502
921.1354, 1.302598
921.6175, 1.324316
922.0996, 1.352765
922.5817, 1.358379
923.0638, 1.347500
923.5460, 1.319475
924.0281, 1.268265
924.5102, 1.257114
924.9923, 1.355464
925.4744, 1.418255
925.9565, 1.339828
926.4387, 1.245873
926.9208, 1.276559
927.4029, 1.395751
927.8850, 1.464293
928.3671, 1.426374
928.8492, 1.364974
929.3314, 1.316452
929.8135, 1.290629
930.2956, 1.318639
930.7777, 1.372941
931.2598, 1.392885
931.7419, 1.365984
932.2241, 1.320599
932.7062, 1.272495
933.1883, 1.234779
933.6704, 1.239437
934.1525, 1.276666
934.6346, 1.303432
935.1168, 1.315424
935.5989, 1.323008
936.0810, 1.331015
936.5631, 1.336265
937.0452, 1.333822
937.5273, 1.324170
938.0095, 1.312658
938.4916, 1.293700
938.9737, 1.299771
939.4558, 1.354996
939.9379, 1.398692
940.4200, 1.381605
940.9022, 1.326959
941.3843, 1.294650
941.8664, 1.295864
942.3485, 1.284768
942.8306, 1.238412
943.3127, 1.209790
943.7949, 1.228670
944.2770, 1.258616
944.7591, 1.267272
945.2412, 1.257421
945.7233, 1.248325
946.2054, 1.241862
946.6876, 1.241720
947.1697, 1.253618
947.6518, 1.268051
948.1339, 1.291135
948.6160, 1.305899
949.0981, 1.266961
949.5803, 1.178858
950.0624, 1.135773
950.5445, 1.223552
951.0266, 1.337281
951.5087, 1.381114
951.9908, 1.375383
952.4730, 1.336215
952.9551, 1.280391
953.4372, 1.252288
953.9193, 1.269915
954.4014, 1.306476
954.8835, 1.338568
955.3657, 1.362536
955.8478, 1.372221
956.3299, 1.365629
956.8120, 1.312850
957.2941, 1.207608
957.7762, 1.133135
958.2584, 1.147476
958.7405, 1.207829
959.2226, 1.224648
959.7047, 1.193261
960.1868, 1.200417
960.6689, 1.258325
961.1511, 1.307176
961.6332, 1.333663
962.1153, 1.338042
962.5974, 1.314764
963.0795, 1.270850
963.5616, 1.236419
964.0438, 1.208200
964.5259, 1.196612
965.0080, 1.221427
965.4901, 1.237362
965.9722, 1.205572
966.4543, 1.174125
966.9365, 1.208271
967.4186, 1.298838
967.9007, 1.348647
968.3828, 1.322241
968.8649, 1.287196
969.3470, 1.237233
969.8292, 1.204083
970.3113, 1.219249
970.7934, 1.259989
971.2755, 1.294099
971.7576, 1.314764
972.2397, 1.324197
972.7219, 1.330865
973.2040, 1.317838
973.6861, 1.242114
974.1682, 1.163748
974.6503, 1.173569
975.1324, 1.240543
975.6146, 1.256254
976.0967, 1.183951
976.5788, 1.119749
977.0609, 1.174446
977.5430, 1.265558
978.0251, 1.276803
978.5073, 1.232776
978.9894, 1.179556
979.4715, 1.131569
979.9536, 1.111671
980.4357, 1.133026
980.9178, 1.172081
981.4000, 1.206989
981.8821, 1.230880
982.3642, 1.201581
982.8463, 1.127549
983.3284, 1.093202
983.8105, 1.119823
984.2927, 1.143485
984.7748, 1.113896
985.2569, 1.059444
985.7390, 1.046029
986.2211, 1.075753
986.7032, 1.110970
987.1854, 1.157441
987.6675, 1.168966
988.1496, 1.119887
988.6317, 1.064759
989.1138, 1.056015
989.5959, 1.083012
990.0781, 1.101369
990.5602, 1.112903
991.0423, 1.108622
991.5244, 1.074018
992.0065, 1.050750
992.4886, 1.060883
992.9708, 1.082949
993.4529, 1.098059
993.9350, 1.105350
994.4171, 1.094265
994.8992, 1.047794
995.3813, 1.009512
995.8635, 0.9685604
996.3456, 0.9500936
996.8277, 0.9957789
997.3098, 1.051554
997.7919, 1.035615
998.2740, 0.9507881
998.7562, 0.9094829
999.2383, 0.9686353
999.7204, 1.024195
1000.203, 1.053637
1000.685, 1.066303
1001.167, 1.059981
1001.649, 1.045168
1002.131, 1.032460
1002.613, 1.024967
1003.095, 1.035472
1003.577, 1.089342
1004.059, 1.138225
1004.542, 1.172953
1005.024, 1.175529
1005.506, 1.093330
1005.988, 0.9730254
1006.470, 0.9221859
1006.952, 0.9674839
1007.434, 1.017162
1007.916, 1.002499
1008.398, 0.9704508
1008.881, 0.9677179
1009.363, 0.9757163
1009.845, 0.9547084
1010.327, 0.9181709
1010.809, 0.9274161
1011.291, 1.003903
1011.773, 1.077293
1012.255, 1.060094
1012.738, 1.016548
1013.220, 1.072878
1013.702, 1.177340
1014.184, 1.196301
1014.666, 1.125770
1015.148, 1.041968
1015.630, 0.9822633
1016.112, 0.9564521
1016.594, 0.9954097
1017.077, 1.067792
1017.559, 1.081671
1018.041, 1.049734
1018.523, 1.038615
1019.005, 1.057608
1019.487, 1.067063
1019.969, 1.043551
1020.451, 1.011972
1020.934, 1.016124
1021.416, 1.045508
1021.898, 1.028688
1022.380, 0.9676784
1022.862, 0.9358943
1023.344, 0.9479592
1023.826, 0.9902218
1024.308, 1.060517
1024.791, 1.129457
1025.273, 1.139217
1025.755, 1.091888
1026.237, 1.062259
1026.719, 1.051809
1027.201, 1.050862
1027.683, 1.062186
1028.165, 1.057310
1028.647, 1.007082
1029.130, 0.9490894
1029.612, 0.9709004
1030.094, 1.083151
1030.576, 1.131638
1031.058, 1.096854
1031.540, 1.067449
1032.022, 1.069745
1032.504, 1.061953
1032.986, 1.001290
1033.469, 0.9244529
1033.951, 0.9214846
1034.433, 1.012756
1034.915, 1.048562
1035.397, 0.9893640
1035.879, 0.9619974
1036.361, 1.014849
1036.843, 1.074211
1037.326, 1.087442
1037.808, 1.070685
1038.290, 1.061253
1038.772, 1.062084
1039.254, 1.056534
1039.736, 1.032815
1040.218, 1.021677
1040.700, 1.040106
1041.182, 1.061139
1041.665, 1.066250
1042.147, 1.060380
1042.629, 1.057280
1043.111, 1.062517
1043.593, 1.046112
1044.075, 0.9887043
1044.557, 0.9354990
1045.039, 0.8836303
1045.521, 0.8503863
1046.004, 0.8531034
1046.486, 0.8815365
1046.968, 0.9166918
1047.450, 0.9601967
1047.932, 0.9930274
1048.414, 1.022637
1048.896, 1.028652
1049.378, 0.9779428
1049.861, 0.9285606
1050.343, 0.9347020
1050.825, 0.9682568
1051.307, 0.9653702
1051.789, 0.9130302
1052.271, 0.8780644
1052.753, 0.8696269
1053.235, 0.8854244
1053.718, 0.9564734
1054.200, 1.021499
1054.682, 1.021962
1055.164, 0.9878570
1055.646, 0.9830555
1056.128, 1.018790
1056.610, 1.042863
1057.092, 1.027702
1057.574, 1.017217
1058.057, 1.045447
1058.539, 1.066332
1059.021, 1.034379
1059.503, 0.9733915
1059.985, 0.9292752
1060.467, 0.9092765
1060.949, 0.8900377
1061.431, 0.8495677
1061.913, 0.8275897
1062.396, 0.8520966
1062.878, 0.8886408
1063.360, 0.9191751
1063.842, 0.9387184
1064.324, 0.9341745
1064.806, 0.9069083
1065.288, 0.9014007
1065.770, 0.9642392
1066.253, 1.010819
1066.735, 0.9893371
1067.217, 0.9551951
1067.699, 0.9507384
1068.181, 0.9628603
1068.663, 0.9673334
1069.145, 0.9604337
1069.627, 0.9502296
1070.109, 0.9342340
1070.592, 0.9247500
1071.074, 0.9293824
1071.556, 0.9404102
1072.038, 0.9549220
1072.520, 0.9704536
1073.002, 0.9908704
1073.484, 1.011776
1073.966, 1.008030
1074.448, 0.9582295
1074.931, 0.9100221
1075.413, 0.8867351
1075.895, 0.8725246
1076.377, 0.8508769
1076.859, 0.8342955
1077.341, 0.8455105
1077.823, 0.8805596
1078.305, 0.9107064
1078.788, 0.9251831
1079.270, 0.9371784
1079.752, 0.9611195
1080.234, 0.9755107
1080.716, 0.9634532
1081.198, 0.9353875
1081.680, 0.8839100
1082.162, 0.8290832
1082.644, 0.8362084
1083.127, 0.9411684
1083.609, 1.027745
1084.091, 1.046023
1084.573, 1.028543
1085.055, 0.9724143
1085.537, 0.9088091
1086.019, 0.8662500
1086.501, 0.8446068
1086.984, 0.8351516
1087.466, 0.8360656
1087.948, 0.8439878
1088.430, 0.8666659
1088.912, 0.8845854
1089.394, 0.8717038
1089.876, 0.8632905
1090.358, 0.9110242
1090.840, 0.9828129
1091.323, 1.003582
1091.805, 0.9580739
1092.287, 0.9197226
1092.769, 0.9326589
1093.251, 0.9357086
1093.733, 0.8815978
1094.215, 0.8286874
1094.697, 0.8355520
1095.179, 0.8695299
1095.662, 0.8617085
1096.144, 0.8090981
1096.626, 0.7985675
1097.108, 0.9045475
1097.590, 0.9820933
1098.072, 0.9642466
1098.554, 0.9248675
1099.036, 0.8949645
1099.519, 0.8810890
1100.001, 0.9026214
1100.483, 0.9490131
1100.965, 0.9558358
1101.447, 0.8818966
1101.929, 0.8263991
1102.411, 0.8115990
1102.893, 0.8247942
1103.375, 0.8857223
1103.858, 0.9515707
1104.340, 0.9814342
1104.822, 0.9781770
1105.304, 0.9582053
1105.786, 0.9117579
1106.268, 0.8910033
1106.750, 0.9461496
1107.232, 0.9741479
1107.714, 0.9003744
1108.197, 0.8243682
1108.679, 0.8366017
1109.161, 0.9029632
1109.643, 0.9447394
1110.125, 0.9564885
1110.607, 0.9425925
1111.089, 0.8652880
1111.571, 0.8172119
1112.054, 0.8375158
1112.536, 0.8679225
1113.018, 0.8772789
1113.500, 0.8750564
1113.982, 0.8761632
1114.464, 0.8808352
1114.946, 0.8837488
1115.428, 0.8864292
1115.911, 0.8849956
1116.393, 0.8858525
1116.875, 0.8724235
1117.357, 0.8118852
1117.839, 0.7593436
1118.321, 0.7870856
1118.803, 0.8774706
1119.285, 0.9255287
1119.767, 0.9092008
1120.250, 0.9068243
1120.732, 0.9313791
1121.214, 0.9427307
1121.696, 0.9241426
1122.178, 0.8974714
1122.660, 0.8808841
1123.142, 0.8684694
1123.624, 0.8402621
1124.106, 0.7879814
1124.589, 0.7908976
1125.071, 0.8741632
1125.553, 0.9199175
1126.035, 0.8890483
1126.517, 0.8729206
1126.999, 0.9371935
1127.481, 1.019385
1127.963, 1.012558
1128.446, 0.9284394
1128.928, 0.9117278
1129.410, 0.9731564
1129.892, 1.004100
1130.374, 0.9904675
1130.856, 0.9606829
1131.338, 0.9246115
1131.820, 0.8889230
1132.302, 0.8587382
1132.785, 0.8392271
1133.267, 0.8599744
1133.749, 0.9156958
1134.231, 0.9122458
1134.713, 0.8473545
1135.195, 0.7789322
1135.677, 0.7235787
1136.159, 0.7252169
1136.641, 0.8250169
1137.124, 0.9399393
1137.606, 0.8941066
1138.088, 0.7498974
1138.570, 0.7671429
1139.052, 0.9066064
1139.534, 0.9772863
1140.016, 0.9566365
1140.498, 0.9297857
1140.981, 0.9369514
1141.463, 0.9550813
1141.945, 0.9612705
1142.427, 0.9610733
1142.909, 0.9658001
1143.391, 0.9709624
1143.873, 0.9566573
1144.355, 0.9343155
1144.838, 0.9621034
1145.320, 1.041672
1145.802, 1.062252
1146.284, 0.9256117
1146.766, 0.7794873
1147.248, 0.7834297
1147.730, 0.8538712
1148.212, 0.9193355
1148.694, 0.9609991
1149.177, 0.9403059
1149.659, 0.8743575
1150.141, 0.8413299
1150.623, 0.8747482
1151.105, 0.9056643
1151.587, 0.8659992
1152.069, 0.8392465
1152.551, 0.9111880
1153.033, 1.000745
1153.516, 1.022104
1153.998, 0.9948348
1154.480, 0.9728556
1154.962, 0.9657269
1155.444, 0.9492930
1155.926, 0.8933979
1156.408, 0.8601487
1156.890, 0.8893034
1157.373, 0.9222019
1157.855, 0.9304494
1158.337, 0.9207402
1158.819, 0.8951311
1159.301, 0.8595036
1159.783, 0.8385601
1160.265, 0.8428919
1160.747, 0.8386198
1161.229, 0.7973596
1161.712, 0.7850770
1162.194, 0.8424307
1162.676, 0.9018031
1163.158, 0.9130481
1163.640, 0.9023647
1164.122, 0.9224616
1164.604, 0.9755117
1165.086, 0.9808882
1165.568, 0.9140127
1166.051, 0.8745920
1166.533, 0.8765848
1167.015, 0.8960323
1167.497, 0.9302356
1167.979, 0.9575126
1168.461, 0.9531502
1168.943, 0.9276826
1169.425, 0.9160561
1169.908, 0.9189413
1170.390, 0.9086487
1170.872, 0.8841116
1171.354, 0.8718424
1171.836, 0.8778005
1172.318, 0.9205781
1172.800, 1.017081
1173.282, 1.095919
1173.765, 1.032285
1174.247, 0.8926484
1174.729, 0.9006361
1175.211, 1.002596
1175.693, 0.9840344
1176.175, 0.8576724
1176.657, 0.7932143
1177.139, 0.8427800
1177.621, 0.9261239
1178.104, 0.9945801
1178.586, 1.035433
1179.068, 1.031687
1179.550, 0.9918053
1180.032, 0.8943283
1180.514, 0.7859567
1180.996, 0.7568609
1181.478, 0.7986029
1181.960, 0.8347288
1182.443, 0.8373573
1182.925, 0.8354565
1183.407, 0.8528983
1183.889, 0.8623427
1184.371, 0.8364893
1184.853, 0.8056891
1185.335, 0.7906259
1185.817, 0.7922555
1186.300, 0.8147805
1186.782, 0.8547422
1187.264, 0.8841224
1187.746, 0.8819044
1188.228, 0.9013030
1188.710, 1.005059
1189.192, 1.061505
1189.674, 0.9809058
1190.156, 0.8750240
1190.639, 0.8194277
1191.121, 0.8078699
1191.603, 0.8349352
1192.085, 0.9056500
1192.567, 0.9468073
1193.049, 0.9513149
1193.531, 0.9468234
1194.013, 0.9374398
1194.495, 0.9131218
1194.978, 0.8639555
1195.460, 0.8147030
1195.942, 0.7874138
1196.424, 0.7862370
1196.906, 0.8321115
1197.388, 0.9220611
1197.870, 1.003032
1198.352, 1.071298
1198.835, 1.079537
1199.317, 1.021838
1199.799, 0.9546347
1200.281, 0.9073943
1200.763, 0.8771698
1201.245, 0.8596613
1201.727, 0.8585058
1202.209, 0.8989702
1202.692, 0.9516857
1203.174, 0.9490544
1203.656, 0.9052628
1204.138, 0.8692099
1204.620, 0.8517892
1205.102, 0.8375152
1205.584, 0.8167231
1206.066, 0.8069891
1206.548, 0.8331264
1207.031, 0.8615187
1207.513, 0.8623651
1207.995, 0.8551046
1208.477, 0.8569226
1208.959, 0.8695257
1209.441, 0.8984311
1209.923, 0.9427373
1210.405, 0.9651347
1210.887, 0.9369107
1211.370, 0.9173983
1211.852, 0.9395531
1212.334, 0.9421921
1212.816, 0.8723398
1213.298, 0.7996253
1213.780, 0.7768482
1214.262, 0.7969447
1214.744, 0.8514089
1215.227, 0.9493988
1215.709, 0.9734079
1216.191, 0.8962384
1216.673, 0.8640878
1217.155, 0.9070218
1217.637, 0.9332513
1218.119, 0.8976840
1218.601, 0.8664563
1219.083, 0.9125022
1219.566, 0.9948235
1220.048, 1.009173
1220.530, 0.9712017
1221.012, 0.9562864
1221.494, 0.9587646
1221.976, 0.9370788
1222.458, 0.8894660
1222.940, 0.8482739
1223.422, 0.8284644
1223.905, 0.8267885
1224.387, 0.8543039
1224.869, 0.8769209
1225.351, 0.8390309
1225.833, 0.7912114
1226.315, 0.7990088
1226.797, 0.8392192
1227.279, 0.8809788
1227.762, 0.9094594
1228.244, 0.8883240
1228.726, 0.7895385
1229.208, 0.7383539
1229.690, 0.8066306
1230.172, 0.8882843
1230.654, 0.9843569
1231.136, 1.040652
1231.619, 0.9945210
1232.101, 0.9061676
1232.583, 0.8442811
1233.065, 0.8120102
1233.547, 0.8349712
1234.029, 0.9455052
1234.511, 0.9999939
1234.993, 0.9878339
1235.475, 0.9560695
1235.958, 0.9097604
1236.440, 0.8731366
1236.922, 0.8612272
1237.404, 0.8588768
1237.886, 0.8398826
1238.368, 0.8227127
1238.850, 0.8861952
1239.332, 1.000652
1239.814, 1.045178
1240.297, 1.022936
1240.779, 0.9716070
1241.261, 0.9107745
1241.743, 0.8864964
1242.225, 0.9247124
1242.707, 0.9686152
1243.189, 0.9650834
1243.671, 0.9477719
1244.154, 0.9348289
1244.636, 0.9352879
1245.118, 0.9806761
1245.600, 1.034620
1246.082, 1.022646
1246.564, 0.9520304
1247.046, 0.9190599
1247.528, 0.9640464
1248.010, 0.9919347
1248.493, 0.9845775
1248.975, 0.9611407
1249.457, 0.9078973
1249.939, 0.8649380
1250.421, 0.8607897
1250.903, 0.8707102
1251.385, 0.8583829
1251.867, 0.8316263
1252.349, 0.8398761
1252.832, 0.8876818
1253.314, 0.9083998
1253.796, 0.8993137
1254.278, 0.8931102
1254.760, 0.8968623
1255.242, 0.8890917
1255.724, 0.8576092
1256.206, 0.8334127
1256.689, 0.8570828
1257.171, 0.8999557
1257.653, 0.9086791
1258.135, 0.9074201
1258.617, 0.9591506
1259.099, 1.025291
1259.581, 1.000087
1260.063, 0.9001500
1260.546, 0.8592125
1261.028, 0.9289499
1261.510, 0.9988326
1261.992, 1.038999
1262.474, 1.041874
1262.956, 0.9633358
1263.438, 0.8926195
1263.920, 0.9055030
1264.402, 0.9411610
1264.885, 0.9164390
1265.367, 0.8528751
1265.849, 0.8301194
1266.331, 0.8545472
1266.813, 0.8811888
1267.295, 0.9146928
1267.777, 0.9260252
1268.259, 0.9087174
1268.741, 0.8826214
1269.224, 0.8547618
1269.706, 0.8424433
1270.188, 0.8643110
1270.670, 0.9030012
1271.152, 0.9271638
1271.634, 0.9430398
1272.116, 0.9576873
1272.598, 0.9793237
1273.081, 1.050291
1273.563, 1.142501
1274.045, 1.153177
1274.527, 1.060990
1275.009, 0.9743547
1275.491, 0.9501561
1275.973, 0.9365178
1276.455, 0.9069642
1276.938, 0.8822982
1277.420, 0.8756310
1277.902, 0.8773264
1278.384, 0.8765411
1278.866, 0.8786562
1279.348, 0.8979597
1279.830, 0.9332311
1280.312, 0.9548280
1280.794, 0.9648247
1281.276, 0.9479373
1281.759, 0.8956851
1282.241, 0.8655996
1282.723, 0.8750630
1283.205, 0.8768610
1283.687, 0.8402087
1284.169, 0.8075363
1284.651, 0.8398094
1285.133, 0.9026312
1285.616, 0.9369261
1286.098, 0.9426116
##END=



