##NAMES=Liskeardite
##RRUFFID=R060768
##IDEAL CHEMISTRY=(Al,Fe^3+^)_32_(As^5+^O_4_)_18_(OH)_42_(H_2_O)_22_&#183;52H_2_O
##LOCALITY=Penberthy Croft mine, St. Hilary, Cornwall, England
##OWNER=RRUFF
##SOURCE=Michael Scott
##DESCRIPTION=White fibrous earthy crust
##STATUS=The identification of this mineral is not yet confirmed.
##URL=rruff.info/R060768
119.117, 829.225
119.599, 836.969
120.081, 851.236
120.563, 869.015
121.046, 888.112
121.528, 911.853
122.010, 945.295
122.492, 987.965
122.974, 1042.391
123.456, 1110.611
123.938, 1189.175
124.420, 1276.644
124.902, 1374.052
125.385, 1478.419
125.867, 1582.381
126.349, 1697.542
126.831, 1791.941
127.313, 1852.714
127.795, 1890.454
128.277, 1922.128
128.760, 1959.009
129.242, 1998.407
129.724, 2020.229
130.206, 2011.823
130.688, 1998.342
131.170, 1989.989
131.652, 1982.021
132.134, 1965.069
132.616, 1932.053
133.098, 1882.851
133.581, 1827.310
134.063, 1760.616
134.545, 1691.492
135.027, 1615.850
135.509, 1538.642
135.991, 1470.496
136.473, 1421.018
136.955, 1391.264
137.438, 1370.516
137.920, 1361.152
138.402, 1357.573
138.884, 1359.206
139.366, 1365.141
139.848, 1373.595
140.330, 1382.386
140.812, 1390.153
141.294, 1405.804
141.777, 1430.749
142.259, 1460.390
142.741, 1494.258
143.223, 1531.175
143.705, 1567.810
144.187, 1600.536
144.669, 1627.722
145.151, 1656.802
145.633, 1692.741
146.116, 1726.817
146.598, 1756.050
147.080, 1778.976
147.562, 1791.452
148.044, 1787.383
148.526, 1758.954
149.008, 1736.543
149.490, 1726.823
149.973, 1719.000
150.455, 1701.949
150.937, 1673.802
151.419, 1644.201
151.901, 1626.024
152.383, 1624.139
152.865, 1616.214
153.347, 1597.132
153.829, 1573.236
154.312, 1550.500
154.794, 1530.339
155.276, 1511.555
155.758, 1492.779
156.240, 1473.699
156.722, 1455.679
157.204, 1436.759
157.686, 1419.692
158.169, 1408.071
158.651, 1402.724
159.133, 1402.891
159.615, 1410.538
160.097, 1426.740
160.579, 1438.072
161.061, 1437.860
161.543, 1431.412
162.025, 1427.771
162.508, 1429.683
162.990, 1432.742
163.472, 1430.402
163.954, 1422.821
164.436, 1415.218
164.918, 1410.539
165.400, 1406.954
165.882, 1399.354
166.365, 1384.278
166.847, 1370.116
167.329, 1370.209
167.811, 1384.389
168.293, 1394.185
168.775, 1388.232
169.257, 1372.044
169.739, 1360.504
170.221, 1358.715
170.704, 1358.816
171.186, 1351.776
171.668, 1337.903
172.150, 1323.557
172.632, 1311.646
173.114, 1301.647
173.596, 1291.836
174.078, 1281.586
174.561, 1271.909
175.043, 1263.264
175.525, 1255.606
176.007, 1249.672
176.489, 1249.252
176.971, 1251.772
177.453, 1245.214
177.935, 1221.417
178.417, 1196.459
178.900, 1184.086
179.382, 1183.523
179.864, 1187.742
180.346, 1197.153
180.828, 1209.403
181.310, 1212.063
181.792, 1199.294
182.274, 1181.121
182.757, 1164.898
183.239, 1150.692
183.721, 1139.132
184.203, 1130.299
184.685, 1124.320
185.167, 1122.898
185.649, 1131.251
186.131, 1137.627
186.613, 1132.563
187.096, 1117.631
187.578, 1101.764
188.060, 1088.877
188.542, 1079.354
189.024, 1076.045
189.506, 1083.626
189.988, 1092.039
190.470, 1096.502
190.952, 1096.701
191.435, 1091.743
191.917, 1076.701
192.399, 1054.097
192.881, 1040.223
193.363, 1040.123
193.845, 1044.013
194.327, 1046.042
194.809, 1046.652
195.292, 1047.532
195.774, 1050.218
196.256, 1054.299
196.738, 1057.615
197.220, 1061.525
197.702, 1062.354
198.184, 1055.715
198.666, 1044.461
199.148, 1036.213
199.631, 1037.436
200.113, 1046.140
200.595, 1052.287
201.077, 1054.978
201.559, 1056.166
202.041, 1057.418
202.523, 1058.207
203.005, 1057.243
203.488, 1052.343
203.970, 1045.026
204.452, 1041.899
204.934, 1046.369
205.416, 1049.419
205.898, 1045.317
206.380, 1037.131
206.862, 1030.367
207.344, 1028.734
207.827, 1030.410
208.309, 1029.786
208.791, 1026.076
209.273, 1021.402
209.755, 1017.468
210.237, 1013.202
210.719, 1006.528
211.201, 994.849
211.684, 981.342
212.166, 974.693
212.648, 978.872
213.130, 981.031
213.612, 972.977
214.094, 960.962
214.576, 952.857
215.058, 953.053
215.540, 957.178
216.023, 955.640
216.505, 944.880
216.987, 938.802
217.469, 950.205
217.951, 965.824
218.433, 970.518
218.915, 956.732
219.397, 936.631
219.880, 929.930
220.362, 940.392
220.844, 949.572
221.326, 951.734
221.808, 949.347
222.290, 941.874
222.772, 927.509
223.254, 915.162
223.736, 918.820
224.219, 941.630
224.701, 959.546
225.183, 962.680
225.665, 959.412
226.147, 954.150
226.629, 947.178
227.111, 942.690
227.593, 947.915
228.076, 963.451
228.558, 971.918
229.040, 962.618
229.522, 949.635
230.004, 944.985
230.486, 949.711
230.968, 955.005
231.450, 951.914
231.932, 941.326
232.415, 935.765
232.897, 940.437
233.379, 947.708
233.861, 952.387
234.343, 954.298
234.825, 953.346
235.307, 947.979
235.789, 939.245
236.271, 931.854
236.754, 926.333
237.236, 922.367
237.718, 920.236
238.200, 919.503
238.682, 918.118
239.164, 915.844
239.646, 912.164
240.128, 904.784
240.611, 891.666
241.093, 879.337
241.575, 872.256
242.057, 869.508
242.539, 869.833
243.021, 875.653
243.503, 883.289
243.985, 886.943
244.467, 886.243
244.950, 882.906
245.432, 876.092
245.914, 867.545
246.396, 860.740
246.878, 855.939
247.360, 853.553
247.842, 855.359
248.324, 861.514
248.807, 866.431
249.289, 865.691
249.771, 862.049
250.253, 861.649
250.735, 867.029
251.217, 873.022
251.699, 874.610
252.181, 872.674
252.663, 873.857
253.146, 882.925
253.628, 895.238
254.110, 901.120
254.592, 898.673
255.074, 894.546
255.556, 889.121
256.038, 884.288
256.520, 886.570
257.003, 900.236
257.485, 917.931
257.967, 925.835
258.449, 922.144
258.931, 919.922
259.413, 925.585
259.895, 934.341
260.377, 937.676
260.859, 932.951
261.341, 927.188
261.824, 930.226
262.306, 943.775
262.788, 954.834
263.270, 964.299
263.752, 969.469
264.234, 964.916
264.716, 950.618
265.198, 936.862
265.681, 934.860
266.163, 946.657
266.645, 947.270
267.127, 922.958
267.609, 899.540
268.091, 893.771
268.573, 903.960
269.055, 919.488
269.538, 934.260
270.020, 947.844
270.502, 951.145
270.984, 934.029
271.466, 919.844
271.948, 919.550
272.430, 927.684
272.912, 932.597
273.394, 927.744
273.877, 916.481
274.359, 911.271
274.841, 918.977
275.323, 924.659
275.805, 927.432
276.287, 927.318
276.769, 922.495
277.251, 912.572
277.733, 902.314
278.216, 901.630
278.698, 923.808
279.180, 933.144
279.662, 918.933
280.144, 900.735
280.626, 893.665
281.108, 899.637
281.590, 909.532
282.073, 912.434
282.555, 906.184
283.037, 901.689
283.519, 896.181
284.001, 894.812
284.483, 901.917
284.965, 915.633
285.447, 930.734
285.930, 944.061
286.412, 955.350
286.894, 959.527
287.376, 950.852
287.858, 941.473
288.340, 935.144
288.822, 930.548
289.304, 924.595
289.786, 914.584
290.268, 904.177
290.751, 904.156
291.233, 919.504
291.715, 934.239
292.197, 943.892
292.679, 950.757
293.161, 956.753
293.643, 962.431
294.125, 967.375
294.608, 971.098
295.090, 973.588
295.572, 975.035
296.054, 975.998
296.536, 975.332
297.018, 970.540
297.500, 961.585
297.982, 955.127
298.465, 958.277
298.947, 968.616
299.429, 974.501
299.911, 972.026
300.393, 969.119
300.875, 973.493
301.357, 983.545
301.839, 992.774
302.321, 999.482
302.804, 1003.742
303.286, 1004.079
303.768, 999.817
304.250, 998.002
304.732, 1005.663
305.214, 1019.785
305.696, 1029.056
306.178, 1029.324
306.660, 1027.545
307.143, 1028.476
307.625, 1031.429
308.107, 1033.027
308.589, 1030.700
309.071, 1027.108
309.553, 1030.222
310.035, 1043.136
310.517, 1055.628
311.000, 1066.022
311.482, 1074.099
311.964, 1078.873
312.446, 1080.034
312.928, 1079.241
313.410, 1078.574
313.892, 1077.114
314.374, 1078.698
314.857, 1086.514
315.339, 1094.968
315.821, 1099.823
316.303, 1101.088
316.785, 1101.747
317.267, 1104.820
317.749, 1110.637
318.231, 1112.096
318.713, 1107.400
319.195, 1100.610
319.678, 1088.678
320.160, 1076.031
320.642, 1070.830
321.124, 1078.132
321.606, 1093.632
322.088, 1102.862
322.570, 1100.345
323.052, 1100.250
323.535, 1108.422
324.017, 1117.351
324.499, 1120.445
324.981, 1115.953
325.463, 1106.650
325.945, 1094.714
326.427, 1078.994
326.909, 1067.306
327.392, 1062.216
327.874, 1060.077
328.356, 1062.314
328.838, 1066.944
329.320, 1066.669
329.802, 1050.926
330.284, 1025.167
330.766, 1013.493
331.248, 1022.830
331.731, 1031.635
332.213, 1025.999
332.695, 1011.727
333.177, 997.828
333.659, 987.904
334.141, 978.419
334.623, 963.203
335.105, 942.724
335.587, 928.523
336.070, 928.281
336.552, 934.997
337.034, 936.648
337.516, 934.242
337.998, 924.595
338.480, 897.307
338.962, 863.470
339.444, 846.088
339.927, 852.021
340.409, 865.008
340.891, 865.180
341.373, 848.911
341.855, 839.334
342.337, 844.620
342.819, 851.198
343.301, 847.245
343.784, 834.450
344.266, 823.769
344.748, 823.234
345.230, 831.957
345.712, 840.336
346.194, 851.376
346.676, 858.681
347.158, 857.885
347.640, 853.615
348.122, 852.724
348.605, 857.820
349.087, 864.762
349.569, 864.829
350.051, 851.887
350.533, 845.480
351.015, 845.096
351.497, 851.442
351.979, 872.356
352.462, 903.498
352.944, 926.272
353.426, 919.542
353.908, 885.435
354.390, 863.883
354.872, 861.593
355.354, 862.808
355.836, 858.699
356.319, 853.477
356.801, 854.848
357.283, 868.551
357.765, 886.034
358.247, 894.870
358.729, 894.554
359.211, 891.826
359.693, 887.667
360.175, 883.138
360.658, 878.873
361.140, 874.376
361.622, 873.078
362.104, 877.475
362.586, 886.214
363.068, 898.309
363.550, 914.604
364.032, 927.827
364.514, 928.442
364.997, 915.990
365.479, 910.677
365.961, 920.824
366.443, 932.111
366.925, 934.102
367.407, 928.796
367.889, 924.975
368.371, 928.398
368.853, 935.683
369.336, 933.830
369.818, 906.577
370.300, 890.635
370.782, 900.221
371.264, 916.319
371.746, 918.227
372.228, 902.017
372.711, 880.838
373.193, 871.903
373.675, 878.797
374.157, 881.928
374.639, 875.916
375.121, 871.209
375.603, 874.335
376.085, 881.774
376.567, 884.968
377.049, 877.472
377.532, 863.815
378.014, 856.687
378.496, 857.731
378.978, 860.369
379.460, 865.164
379.942, 869.010
380.424, 868.341
380.906, 862.141
381.389, 854.899
381.871, 848.398
382.353, 843.419
382.835, 844.110
383.317, 852.856
383.799, 863.246
384.281, 869.187
384.763, 871.203
385.246, 871.514
385.728, 869.283
386.210, 866.437
386.692, 863.160
387.174, 860.224
387.656, 861.602
388.138, 870.572
388.620, 884.099
389.102, 890.916
389.585, 886.667
390.067, 881.872
390.549, 874.452
391.031, 868.674
391.513, 871.481
391.995, 883.131
392.477, 894.543
392.959, 894.076
393.441, 879.068
393.924, 869.003
394.406, 867.216
394.888, 867.264
395.370, 869.185
395.852, 871.200
396.334, 870.149
396.816, 863.752
397.298, 854.898
397.780, 850.417
398.263, 851.814
398.745, 851.712
399.227, 847.223
399.709, 840.948
400.191, 833.343
400.673, 824.510
401.155, 819.554
401.638, 826.285
402.120, 838.885
402.602, 842.027
403.084, 832.965
403.566, 820.549
404.048, 809.799
404.530, 801.163
405.012, 796.015
405.494, 796.910
405.977, 798.907
406.459, 799.854
406.941, 799.934
407.423, 799.662
407.905, 799.265
408.387, 798.430
408.869, 796.310
409.351, 790.330
409.833, 788.870
410.316, 794.975
410.798, 802.845
411.280, 810.842
411.762, 817.465
412.244, 819.414
412.726, 812.935
413.208, 800.222
413.690, 796.335
414.172, 808.867
414.655, 817.553
415.137, 814.273
415.619, 807.182
416.101, 805.794
416.583, 812.654
417.065, 818.203
417.547, 810.455
418.029, 791.255
418.512, 777.019
418.994, 770.440
419.476, 768.077
419.958, 769.476
420.440, 773.212
420.922, 774.372
421.404, 769.558
421.886, 763.550
422.368, 759.355
422.851, 757.190
423.333, 758.388
423.815, 764.330
424.297, 772.137
424.779, 775.560
425.261, 772.992
425.743, 769.076
426.225, 760.583
426.708, 753.288
427.190, 753.056
427.672, 759.194
428.154, 766.109
428.636, 769.412
429.118, 769.299
429.600, 768.047
430.082, 762.502
430.565, 760.488
431.047, 766.562
431.529, 775.147
432.011, 781.041
432.493, 782.776
432.975, 780.637
433.457, 772.703
433.939, 759.648
434.421, 750.909
434.904, 747.857
435.386, 748.830
435.868, 755.008
436.350, 764.401
436.832, 771.179
437.314, 772.509
437.796, 771.749
438.278, 770.219
438.760, 768.618
439.243, 770.750
439.725, 779.233
440.207, 788.893
440.689, 789.450
441.171, 774.044
441.653, 764.969
442.135, 766.298
442.617, 771.324
443.099, 777.351
443.582, 782.974
444.064, 785.426
444.546, 782.033
445.028, 774.686
445.510, 772.939
445.992, 777.803
446.474, 786.836
446.957, 807.822
447.439, 827.009
447.921, 830.835
448.403, 817.630
448.885, 800.382
449.367, 787.714
449.849, 779.860
450.331, 779.777
450.813, 791.125
451.296, 799.089
451.778, 788.455
452.260, 767.539
452.742, 758.126
453.224, 769.299
453.706, 782.876
454.188, 788.604
454.670, 790.011
455.152, 795.408
455.635, 807.284
456.117, 818.237
456.599, 818.102
457.081, 803.135
457.563, 794.700
458.045, 799.463
458.527, 802.794
459.009, 796.267
459.491, 784.464
459.974, 775.669
460.456, 773.857
460.938, 777.261
461.420, 784.304
461.902, 797.155
462.384, 803.570
462.866, 797.372
463.348, 788.090
463.831, 779.443
464.313, 772.529
464.795, 770.838
465.277, 780.970
465.759, 794.544
466.241, 800.168
466.723, 798.126
467.205, 792.915
467.687, 784.407
468.170, 776.407
468.652, 778.728
469.134, 796.882
469.616, 808.932
470.098, 806.807
470.580, 800.898
471.062, 798.748
471.544, 801.262
472.026, 807.251
472.509, 816.309
472.991, 827.539
473.473, 835.691
473.955, 840.951
474.437, 842.523
474.919, 836.516
475.401, 829.827
475.883, 828.606
476.366, 833.498
476.848, 839.812
477.330, 844.654
477.812, 847.951
478.294, 849.220
478.776, 848.269
479.258, 845.937
479.740, 840.918
480.223, 835.431
480.705, 835.157
481.187, 843.783
481.669, 850.880
482.151, 850.407
482.633, 846.808
483.115, 845.659
483.597, 848.093
484.079, 853.113
484.561, 860.148
485.044, 869.174
485.526, 876.717
486.008, 880.012
486.490, 884.929
486.972, 894.076
487.454, 904.609
487.936, 914.549
488.418, 923.063
488.901, 927.741
489.383, 923.629
489.865, 911.786
490.347, 904.495
490.829, 903.759
491.311, 904.805
491.793, 904.846
492.275, 904.430
492.758, 904.544
493.240, 904.402
493.722, 906.233
494.204, 912.690
494.686, 921.688
495.168, 929.370
495.650, 934.773
496.132, 939.671
496.614, 946.436
497.097, 955.757
497.579, 959.463
498.061, 950.950
498.543, 944.769
499.025, 947.996
499.507, 954.544
499.989, 955.976
500.471, 949.600
500.953, 940.499
501.436, 933.628
501.918, 929.045
502.400, 929.495
502.882, 937.786
503.364, 946.295
503.846, 948.548
504.328, 947.562
504.810, 949.867
505.293, 959.928
505.775, 968.592
506.257, 968.708
506.739, 963.767
507.221, 961.369
507.703, 963.390
508.185, 964.828
508.667, 959.197
509.150, 945.139
509.632, 940.008
510.114, 949.715
510.596, 960.971
511.078, 973.031
511.560, 983.579
512.042, 990.063
512.524, 991.697
513.006, 989.505
513.489, 981.184
513.971, 967.733
514.453, 966.053
514.935, 982.086
515.417, 999.264
515.899, 1007.017
516.381, 1008.348
516.863, 1009.079
517.346, 1010.781
517.828, 1010.459
518.310, 1005.782
518.792, 998.314
519.274, 989.452
519.756, 979.778
520.238, 972.435
520.720, 971.173
521.202, 975.921
521.685, 976.676
522.167, 970.447
522.649, 963.515
523.131, 951.292
523.613, 941.905
524.095, 947.392
524.577, 968.909
525.059, 988.797
525.541, 988.289
526.024, 972.062
526.506, 959.209
526.988, 950.027
527.470, 946.115
527.952, 951.440
528.434, 961.648
528.916, 966.138
529.398, 964.489
529.880, 958.240
530.363, 943.538
530.845, 927.086
531.327, 916.715
531.809, 912.497
532.291, 908.468
532.773, 899.776
533.255, 888.019
533.737, 881.312
534.219, 881.256
534.702, 883.406
535.184, 891.503
535.666, 898.058
536.148, 894.653
536.630, 882.662
537.112, 874.457
537.594, 882.519
538.076, 896.911
538.559, 900.827
539.041, 894.551
539.523, 885.320
540.005, 875.029
540.487, 865.061
540.969, 857.810
541.451, 853.816
541.933, 851.117
542.416, 849.646
542.898, 849.419
543.380, 853.361
543.862, 858.292
544.344, 856.845
544.826, 845.000
545.308, 828.330
545.790, 816.425
546.273, 809.239
546.755, 807.995
547.237, 819.231
547.719, 828.192
548.201, 820.755
548.683, 803.273
549.165, 793.662
549.647, 799.622
550.129, 810.814
550.612, 823.966
551.094, 836.440
551.576, 842.055
552.058, 839.281
552.540, 832.591
553.022, 826.431
553.504, 820.838
553.986, 815.396
554.468, 807.770
554.951, 803.194
555.433, 802.956
555.915, 806.037
556.397, 812.633
556.879, 822.364
557.361, 831.057
557.843, 834.458
558.325, 834.090
558.807, 834.506
559.290, 835.979
559.772, 836.855
560.254, 835.069
560.736, 832.964
561.218, 837.354
561.700, 852.453
562.182, 862.323
562.664, 859.992
563.146, 855.179
563.629, 856.499
564.111, 862.226
564.593, 864.446
565.075, 858.071
565.557, 847.914
566.039, 846.427
566.521, 856.628
567.003, 859.909
567.486, 846.787
567.968, 834.191
568.450, 835.493
568.932, 847.143
569.414, 857.254
569.896, 861.928
570.378, 864.914
570.860, 869.034
571.343, 873.318
571.825, 875.175
572.307, 874.051
572.789, 872.787
573.271, 874.431
573.753, 879.019
574.235, 883.721
574.717, 890.833
575.200, 894.842
575.682, 892.535
576.164, 888.119
576.646, 885.007
577.128, 883.960
577.610, 885.337
578.092, 893.040
578.574, 902.139
579.056, 901.670
579.539, 891.590
580.021, 879.771
580.503, 868.505
580.985, 859.808
581.467, 858.360
581.949, 869.287
582.431, 875.168
582.913, 872.879
583.395, 868.559
583.878, 862.851
584.360, 858.123
584.842, 859.280
585.324, 868.832
585.806, 879.671
586.288, 880.267
586.770, 871.315
587.252, 867.327
587.734, 871.734
588.217, 876.028
588.699, 874.341
589.181, 867.945
589.663, 861.527
590.145, 853.808
590.627, 848.313
591.109, 845.253
591.591, 845.457
592.073, 852.300
592.556, 864.104
593.038, 873.235
593.520, 873.818
594.002, 868.477
594.484, 866.208
594.966, 868.519
595.448, 868.228
595.930, 862.578
596.413, 855.275
596.895, 849.595
597.377, 845.001
597.859, 838.765
598.341, 828.512
598.823, 817.922
599.305, 807.318
599.787, 798.724
600.269, 799.186
600.752, 809.657
601.234, 816.949
601.716, 805.176
602.198, 775.069
602.680, 759.024
603.162, 765.125
603.644, 772.386
604.127, 781.300
604.609, 785.604
605.091, 775.960
605.573, 752.797
606.055, 733.721
606.537, 731.646
607.019, 736.244
607.501, 734.781
607.983, 728.322
608.466, 723.104
608.948, 721.523
609.430, 722.198
609.912, 723.392
610.394, 725.685
610.876, 725.613
611.358, 720.653
611.840, 716.116
612.322, 715.017
612.805, 714.442
613.287, 710.065
613.769, 700.817
614.251, 691.497
614.733, 686.144
615.215, 683.242
615.697, 678.528
616.179, 672.130
616.661, 670.779
617.144, 679.229
617.626, 691.945
618.108, 697.066
618.590, 690.481
619.072, 686.007
619.554, 687.353
620.036, 686.810
620.518, 679.520
621.000, 668.246
621.483, 656.659
621.965, 645.706
622.447, 639.322
622.929, 645.493
623.411, 659.559
623.893, 665.374
624.375, 661.023
624.857, 655.219
625.340, 653.292
625.822, 653.557
626.304, 650.923
626.786, 639.234
627.268, 635.266
627.750, 646.639
628.232, 658.968
628.714, 664.845
629.196, 664.703
629.679, 660.249
630.161, 651.450
630.643, 643.227
631.125, 642.950
631.607, 648.990
632.089, 653.245
632.571, 654.727
633.054, 654.099
633.536, 651.107
634.018, 646.578
634.500, 643.856
634.982, 645.013
635.464, 644.721
635.946, 637.898
636.428, 633.578
636.910, 642.917
637.393, 659.983
637.875, 667.607
638.357, 655.320
638.839, 636.925
639.321, 633.187
639.803, 641.583
640.285, 644.764
640.767, 639.263
641.250, 633.279
641.732, 632.801
642.214, 636.779
642.696, 640.013
643.178, 642.074
643.660, 644.055
644.142, 646.592
644.624, 648.617
645.106, 650.149
645.589, 650.482
646.071, 647.617
646.553, 639.773
647.035, 630.751
647.517, 626.450
647.999, 626.040
648.481, 623.185
648.963, 615.862
649.445, 612.838
649.928, 623.475
650.410, 643.570
650.892, 650.941
651.374, 631.647
651.856, 619.687
652.338, 622.377
652.820, 628.660
653.302, 630.864
653.784, 629.890
654.267, 631.124
654.749, 638.428
655.231, 645.105
655.713, 638.943
656.195, 623.976
656.677, 620.163
657.159, 631.719
657.641, 641.774
658.123, 636.679
658.606, 620.876
659.088, 613.485
659.570, 623.296
660.052, 629.125
660.534, 627.963
661.016, 625.283
661.498, 624.346
661.981, 624.688
662.463, 624.699
662.945, 623.968
663.427, 621.776
663.909, 615.460
664.391, 607.263
664.873, 604.228
665.355, 607.252
665.837, 610.727
666.320, 611.026
666.802, 608.916
667.284, 606.924
667.766, 606.317
668.248, 603.426
668.730, 593.538
669.212, 586.177
669.694, 588.094
670.177, 595.496
670.659, 601.030
671.141, 602.804
671.623, 600.808
672.105, 589.452
672.587, 576.492
673.069, 578.535
673.551, 595.006
674.033, 609.600
674.516, 612.873
674.998, 609.200
675.480, 609.120
675.962, 616.049
676.444, 615.763
676.926, 600.821
677.408, 587.567
677.890, 583.402
678.372, 585.111
678.855, 588.743
679.337, 594.591
679.819, 597.309
680.301, 590.427
680.783, 581.753
681.265, 580.416
681.747, 585.120
682.229, 589.743
682.711, 591.534
683.194, 592.413
683.676, 596.839
684.158, 605.668
684.640, 604.521
685.122, 587.054
685.604, 573.606
686.086, 575.534
686.568, 584.997
687.050, 590.315
687.533, 590.587
688.015, 592.328
688.497, 600.431
688.979, 607.093
689.461, 606.175
689.943, 600.690
690.425, 595.058
690.907, 590.983
691.390, 590.005
691.872, 595.702
692.354, 605.772
692.836, 608.893
693.318, 604.228
693.800, 601.369
694.282, 604.413
694.764, 608.976
695.247, 608.432
695.729, 601.603
696.211, 602.269
696.693, 621.781
697.175, 634.407
697.657, 628.400
698.139, 615.049
698.621, 602.211
699.104, 593.089
699.586, 593.735
700.068, 615.585
700.550, 641.049
701.032, 641.424
701.514, 622.431
701.996, 607.854
702.478, 603.233
702.960, 602.291
703.443, 600.252
703.925, 596.774
704.407, 588.568
704.889, 566.990
705.371, 556.724
705.853, 568.022
706.335, 584.104
706.817, 600.070
707.299, 612.915
707.782, 614.744
708.264, 597.802
708.746, 581.124
709.228, 576.771
709.710, 579.407
710.192, 582.757
710.674, 586.033
711.156, 590.787
711.638, 598.157
712.121, 605.486
712.603, 607.112
713.085, 602.515
713.567, 598.343
714.049, 594.810
714.531, 592.182
715.013, 591.754
715.495, 591.779
715.977, 588.187
716.460, 579.315
716.942, 572.934
717.424, 569.879
717.906, 569.813
718.388, 573.413
718.870, 579.530
719.352, 588.395
719.834, 599.472
720.317, 606.014
720.799, 596.927
721.281, 580.349
721.763, 575.428
722.245, 581.605
722.727, 592.766
723.209, 608.137
723.691, 620.540
724.174, 620.195
724.656, 606.838
725.138, 600.176
725.620, 606.972
726.102, 610.307
726.584, 603.024
727.066, 594.979
727.548, 595.586
728.031, 602.940
728.513, 605.892
728.995, 597.333
729.477, 587.748
729.959, 581.458
730.441, 579.664
730.923, 587.183
731.405, 602.141
731.887, 613.857
732.370, 615.136
732.852, 610.314
733.334, 608.263
733.816, 609.073
734.298, 610.434
734.780, 612.933
735.262, 613.248
735.744, 607.355
736.226, 598.940
736.709, 597.302
737.191, 604.063
737.673, 612.988
738.155, 633.436
738.637, 645.656
739.119, 630.798
739.601, 605.355
740.083, 594.517
740.565, 604.272
741.048, 617.441
741.530, 621.722
742.012, 621.635
742.494, 623.305
742.976, 626.487
743.458, 631.699
743.940, 639.026
744.422, 639.488
744.904, 620.541
745.387, 585.872
745.869, 572.469
746.351, 587.519
746.833, 603.489
747.315, 617.419
747.797, 627.674
748.279, 631.601
748.761, 630.562
749.244, 629.621
749.726, 631.645
750.208, 630.367
750.690, 617.293
751.172, 605.561
751.654, 609.818
752.136, 625.170
752.618, 636.363
753.101, 636.334
753.583, 631.633
754.065, 629.396
754.547, 628.443
755.029, 624.659
755.511, 618.069
755.993, 612.854
756.475, 610.665
756.958, 612.157
757.440, 619.519
757.922, 634.287
758.404, 641.288
758.886, 635.233
759.368, 630.270
759.850, 632.885
760.332, 636.716
760.814, 634.861
761.297, 627.896
761.779, 624.823
762.261, 631.615
762.743, 638.235
763.225, 640.762
763.707, 640.059
764.189, 635.910
764.671, 629.373
765.153, 623.855
765.636, 621.737
766.118, 620.298
766.600, 613.935
767.082, 604.564
767.564, 601.557
768.046, 606.052
768.528, 608.611
769.010, 602.856
769.492, 594.751
769.975, 597.456
770.457, 615.198
770.939, 626.568
771.421, 626.725
771.903, 627.523
772.385, 635.063
772.867, 644.091
773.349, 648.355
773.831, 647.512
774.314, 647.965
774.796, 653.016
775.278, 657.931
775.760, 662.647
776.242, 664.404
776.724, 655.083
777.206, 637.776
777.688, 630.247
778.171, 647.167
778.653, 672.074
779.135, 680.259
779.617, 674.854
780.099, 664.784
780.581, 651.445
781.063, 647.156
781.545, 660.957
782.028, 683.778
782.510, 694.307
782.992, 688.148
783.474, 688.490
783.956, 702.258
784.438, 711.177
784.920, 704.236
785.402, 690.617
785.885, 678.841
786.367, 668.799
786.849, 668.440
787.331, 688.935
787.813, 708.014
788.295, 716.838
788.777, 718.567
789.259, 713.703
789.741, 704.989
790.224, 701.121
790.706, 708.776
791.188, 719.507
791.670, 722.771
792.152, 721.547
792.634, 722.329
793.116, 726.155
793.598, 734.559
794.080, 748.963
794.563, 764.524
795.045, 771.623
795.527, 769.529
796.009, 766.729
796.491, 762.717
796.973, 759.443
797.455, 757.362
797.937, 756.727
798.419, 758.412
798.902, 762.741
799.384, 765.453
799.866, 767.284
800.348, 766.461
800.830, 759.287
801.312, 751.901
801.794, 750.591
802.276, 753.840
802.758, 753.929
803.241, 743.999
803.723, 740.090
804.205, 763.508
804.687, 793.657
805.169, 800.308
805.651, 787.667
806.133, 778.079
806.615, 781.150
807.098, 789.337
807.580, 794.804
808.062, 797.203
808.544, 791.667
809.026, 777.886
809.508, 773.776
809.990, 786.670
810.472, 804.585
810.955, 816.162
811.437, 821.506
811.919, 821.309
812.401, 810.983
812.883, 804.228
813.365, 805.250
813.847, 807.466
814.329, 809.008
814.812, 808.661
815.294, 802.481
815.776, 785.881
816.258, 776.888
816.740, 783.581
817.222, 796.090
817.704, 814.614
818.186, 831.782
818.668, 834.802
819.151, 822.304
819.633, 810.276
820.115, 810.784
820.597, 817.377
821.079, 824.170
821.561, 829.894
822.043, 829.857
822.525, 824.017
823.007, 818.625
823.490, 817.746
823.972, 821.018
824.454, 829.202
824.936, 842.404
825.418, 850.417
825.900, 851.306
826.382, 852.753
826.864, 857.970
827.346, 866.471
827.829, 879.070
828.311, 897.825
828.793, 905.122
829.275, 890.858
829.757, 879.086
830.239, 873.546
830.721, 872.761
831.203, 877.450
831.685, 886.167
832.168, 893.237
832.650, 894.655
833.132, 899.427
833.614, 916.049
834.096, 932.938
834.578, 938.845
835.060, 937.597
835.542, 937.411
836.024, 941.101
836.507, 949.633
836.989, 968.242
837.471, 989.313
837.953, 1001.218
838.435, 1005.826
838.917, 1008.614
839.399, 1011.123
839.881, 1013.583
840.364, 1015.922
840.846, 1018.951
841.328, 1025.454
841.810, 1035.424
842.292, 1044.390
842.774, 1051.978
843.256, 1057.816
843.738, 1061.565
844.221, 1063.658
844.703, 1064.835
845.185, 1065.055
845.667, 1064.366
846.149, 1059.718
846.631, 1058.911
847.113, 1066.481
847.595, 1076.736
848.078, 1085.799
848.560, 1093.561
849.042, 1099.877
849.524, 1108.939
850.006, 1110.302
850.488, 1093.567
850.970, 1075.528
851.452, 1068.549
851.934, 1069.459
852.417, 1070.755
852.899, 1070.333
853.381, 1069.460
853.863, 1067.177
854.345, 1066.396
854.827, 1072.639
855.309, 1081.871
855.791, 1086.300
856.273, 1084.515
856.756, 1079.594
857.238, 1073.392
857.720, 1066.203
858.202, 1057.928
858.684, 1049.007
859.166, 1041.051
859.648, 1034.338
860.130, 1030.744
860.612, 1031.347
861.095, 1034.544
861.577, 1038.995
862.059, 1044.573
862.541, 1040.783
863.023, 1022.881
863.505, 1015.248
863.987, 1029.679
864.469, 1045.091
864.951, 1042.085
865.434, 1024.613
865.916, 1012.560
866.398, 1007.565
866.880, 1005.318
867.362, 1006.642
867.844, 1009.687
868.326, 1014.311
868.808, 1019.911
869.291, 1026.884
869.773, 1035.364
870.255, 1039.300
870.737, 1031.708
871.219, 1025.942
871.701, 1030.947
872.183, 1038.241
872.665, 1036.764
873.148, 1029.572
873.630, 1029.392
874.112, 1042.233
874.594, 1058.905
875.076, 1076.182
875.558, 1090.797
876.040, 1097.896
876.522, 1099.103
877.005, 1098.590
877.487, 1097.633
877.969, 1095.197
878.451, 1089.248
878.933, 1082.773
879.415, 1080.987
879.897, 1083.792
880.379, 1092.808
880.861, 1107.673
881.344, 1120.130
881.826, 1125.532
882.308, 1125.141
882.790, 1119.481
883.272, 1108.634
883.754, 1102.238
884.236, 1100.121
884.718, 1105.430
885.200, 1122.787
885.683, 1137.009
886.165, 1130.005
886.647, 1107.675
887.129, 1107.105
887.611, 1147.392
888.093, 1163.641
888.575, 1130.809
889.057, 1104.209
889.539, 1119.962
890.022, 1152.887
890.504, 1161.711
890.986, 1142.671
891.468, 1132.698
891.950, 1138.070
892.432, 1147.529
892.914, 1164.156
893.396, 1178.666
893.878, 1181.716
894.361, 1176.647
894.843, 1173.985
895.325, 1176.941
895.807, 1180.364
896.289, 1178.014
896.771, 1179.467
897.253, 1199.009
897.735, 1223.509
898.218, 1230.198
898.700, 1217.638
899.182, 1206.942
899.664, 1211.259
900.146, 1220.788
900.628, 1232.033
901.110, 1239.270
901.592, 1227.130
902.075, 1202.377
902.557, 1191.803
903.039, 1206.098
903.521, 1224.910
904.003, 1223.951
904.485, 1212.375
904.967, 1210.871
905.449, 1217.328
905.932, 1224.789
906.414, 1231.255
906.896, 1232.847
907.378, 1226.773
907.860, 1214.214
908.342, 1194.067
908.824, 1167.691
909.306, 1153.641
909.788, 1153.298
910.271, 1157.211
910.753, 1163.350
911.235, 1165.491
911.717, 1155.934
912.199, 1136.860
912.681, 1122.201
913.163, 1113.077
913.645, 1103.759
914.127, 1093.634
914.610, 1083.145
915.092, 1072.474
915.574, 1061.559
916.056, 1050.147
916.538, 1038.130
917.020, 1026.376
917.502, 1015.770
917.984, 1003.795
918.466, 986.130
918.949, 970.789
919.431, 965.450
919.913, 966.896
920.395, 966.786
920.877, 968.143
921.359, 959.615
921.841, 928.174
922.323, 901.120
922.805, 891.515
923.288, 890.017
923.770, 887.106
924.252, 882.320
924.734, 879.023
925.216, 881.608
925.698, 879.945
926.180, 864.083
926.662, 849.058
927.145, 848.739
927.627, 856.006
928.109, 857.720
928.591, 851.336
929.073, 844.752
929.555, 841.208
930.037, 839.740
930.519, 843.487
931.002, 846.310
931.484, 838.930
931.966, 823.960
932.448, 810.030
932.930, 800.394
933.412, 796.044
933.894, 801.911
934.376, 810.265
934.859, 814.246
935.341, 812.776
935.823, 800.636
936.305, 780.142
936.787, 764.715
937.269, 762.618
937.751, 767.924
938.233, 778.377
938.715, 788.706
939.198, 785.712
939.680, 771.842
940.162, 756.838
940.644, 744.227
941.126, 737.916
941.608, 743.083
942.090, 752.586
942.572, 750.832
943.054, 740.177
943.537, 730.880
944.019, 723.930
944.501, 718.464
944.983, 714.098
945.465, 711.159
945.947, 710.040
946.429, 710.736
946.911, 715.351
947.393, 723.579
947.876, 721.399
948.358, 705.737
948.840, 693.543
949.322, 695.186
949.804, 702.037
950.286, 699.114
950.768, 686.755
951.250, 679.055
951.732, 676.244
952.215, 677.746
952.697, 685.468
953.179, 689.081
953.661, 679.198
954.143, 662.846
954.625, 658.159
955.107, 667.238
955.589, 676.813
956.072, 690.354
956.554, 692.659
957.036, 674.277
957.518, 652.841
958.000, 643.938
958.482, 645.610
958.964, 649.548
959.446, 655.904
959.929, 664.540
960.411, 678.835
960.893, 689.211
961.375, 692.717
961.857, 689.877
962.339, 678.323
962.821, 659.375
963.303, 649.956
963.786, 656.973
964.268, 660.783
964.750, 657.316
965.232, 654.550
965.714, 656.270
966.196, 660.558
966.678, 666.030
967.160, 672.935
967.642, 674.949
968.125, 665.666
968.607, 660.826
969.089, 666.064
969.571, 671.960
970.053, 671.188
970.535, 668.601
971.017, 674.582
971.499, 691.451
971.981, 698.918
972.464, 680.216
972.946, 672.266
973.428, 695.380
973.910, 720.619
974.392, 726.005
974.874, 719.115
975.356, 718.107
975.838, 726.163
976.320, 733.293
976.803, 738.038
977.285, 741.161
977.767, 739.382
978.249, 739.117
978.731, 747.502
979.213, 761.667
979.695, 773.849
980.177, 783.745
980.659, 787.293
981.142, 779.175
981.624, 769.691
982.106, 762.643
982.588, 757.176
983.070, 753.375
983.552, 750.212
984.034, 744.908
984.516, 737.004
984.999, 726.294
985.481, 706.253
985.963, 690.721
986.445, 693.453
986.927, 700.696
987.409, 695.342
987.891, 678.645
988.373, 664.073
988.856, 655.124
989.338, 649.937
989.820, 652.148
990.302, 653.253
990.784, 646.307
991.266, 635.890
991.748, 628.290
992.230, 623.694
992.713, 617.951
993.195, 608.141
993.677, 600.126
994.159, 593.073
994.641, 592.187
995.123, 608.297
995.605, 629.046
996.087, 634.119
996.569, 623.632
997.052, 619.316
997.534, 636.683
998.016, 648.209
998.498, 631.574
998.980, 613.404
999.462, 617.396
999.944, 632.121
1000.426, 638.110
1000.908, 633.133
1001.391, 629.183
1001.873, 632.709
1002.355, 635.542
1002.837, 632.333
1003.319, 628.310
1003.801, 629.140
1004.283, 631.439
1004.765, 626.580
1005.247, 614.821
1005.730, 612.054
1006.212, 635.921
1006.694, 653.783
1007.176, 643.425
1007.658, 627.257
1008.140, 622.603
1008.622, 625.658
1009.104, 628.797
1009.587, 630.341
1010.069, 629.905
1010.551, 624.475
1011.033, 620.896
1011.515, 623.910
1011.997, 628.457
1012.479, 632.894
1012.961, 634.855
1013.443, 627.997
1013.926, 612.476
1014.408, 604.957
1014.890, 619.564
1015.372, 632.971
1015.854, 635.853
1016.336, 633.205
1016.818, 627.371
1017.300, 619.447
1017.783, 608.364
1018.265, 594.672
1018.747, 588.582
1019.229, 600.639
1019.711, 611.284
1020.193, 614.984
1020.675, 613.022
1021.157, 600.659
1021.639, 586.021
1022.122, 582.852
1022.604, 592.560
1023.086, 601.450
1023.568, 609.731
1024.050, 610.789
1024.532, 594.530
1025.014, 578.505
1025.496, 574.821
1025.979, 579.109
1026.461, 584.577
1026.943, 590.318
1027.425, 596.107
1027.907, 603.293
1028.389, 608.492
1028.871, 612.009
1029.353, 612.097
1029.835, 603.426
1030.318, 592.990
1030.800, 591.644
1031.282, 599.857
1031.764, 606.943
1032.246, 615.292
1032.728, 616.443
1033.210, 597.283
1033.692, 583.715
1034.175, 596.115
1034.657, 617.913
1035.139, 626.261
1035.621, 620.804
1036.103, 616.649
1036.585, 616.960
1037.067, 615.246
1037.549, 607.291
1038.031, 601.608
1038.514, 603.912
1038.996, 609.090
1039.478, 610.803
1039.960, 609.381
1040.442, 609.499
1040.924, 612.451
1041.406, 614.618
1041.888, 616.037
1042.370, 616.402
1042.853, 614.876
1043.335, 612.937
1043.817, 611.759
1044.299, 611.539
1044.781, 613.783
1045.263, 619.443
1045.745, 625.664
1046.227, 635.638
1046.710, 638.398
1047.192, 626.005
1047.674, 611.834
1048.156, 609.049
1048.638, 615.347
1049.120, 621.175
1049.602, 626.988
1050.084, 630.587
1050.567, 632.220
1051.049, 630.153
1051.531, 622.589
1052.013, 614.886
1052.495, 611.440
1052.977, 611.694
1053.459, 614.760
1053.941, 621.070
1054.423, 624.390
1054.906, 624.153
1055.388, 626.160
1055.870, 632.437
1056.352, 637.608
1056.834, 637.925
1057.316, 633.588
1057.798, 621.523
1058.280, 603.251
1058.762, 602.206
1059.245, 617.367
1059.727, 626.188
1060.209, 624.009
1060.691, 619.924
1061.173, 619.676
1061.655, 619.423
1062.137, 611.291
1062.619, 598.713
1063.102, 594.782
1063.584, 597.956
1064.066, 601.477
1064.548, 604.356
1065.030, 608.706
1065.512, 615.596
1065.994, 623.264
1066.476, 632.861
1066.958, 639.318
1067.441, 625.600
1067.923, 615.385
1068.405, 627.658
1068.887, 634.471
1069.369, 636.120
1069.851, 617.133
1070.333, 624.793
1070.815, 621.774
1071.297, 618.317
1071.780, 629.727
1072.262, 613.741
1072.744, 623.457
1073.226, 623.316
1073.708, 624.784
1074.190, 623.877
1074.672, 621.733
1075.154, 618.189
1075.637, 615.071
1076.119, 614.793
1076.601, 614.350
1077.083, 609.455
1077.565, 603.391
1078.047, 602.825
1078.529, 607.149
1079.011, 606.944
1079.493, 594.160
1079.976, 587.972
1080.458, 605.309
1080.940, 619.286
1081.422, 606.904
1081.904, 589.700
1082.386, 595.863
1082.868, 619.116
1083.350, 628.148
1083.833, 611.727
1084.315, 602.307
1084.797, 610.681
1085.279, 616.685
1085.761, 612.551
1086.243, 606.219
1086.725, 601.427
1087.207, 599.409
1087.689, 603.978
1088.172, 616.983
1088.654, 624.771
1089.136, 625.894
1089.618, 625.121
1090.100, 622.812
1090.582, 619.323
1091.064, 613.915
1091.546, 609.022
1092.028, 608.120
1092.511, 611.174
1092.993, 620.635
1093.475, 638.801
1093.957, 639.302
1094.439, 617.256
1094.921, 598.828
1095.403, 594.798
1095.885, 596.843
1096.368, 596.196
1096.850, 595.092
1097.332, 602.067
1097.814, 614.618
1098.296, 616.399
1098.778, 608.376
1099.260, 604.024
1099.742, 606.956
1100.224, 613.323
1100.707, 621.397
1101.189, 626.163
1101.671, 615.020
1102.153, 599.412
1102.635, 604.477
1103.117, 620.874
1103.599, 624.463
1104.081, 614.962
1104.563, 610.381
1105.046, 618.998
1105.528, 626.690
1106.010, 621.993
1106.492, 612.411
1106.974, 599.959
1107.456, 589.707
1107.938, 589.315
1108.420, 595.270
1108.903, 598.870
1109.385, 598.209
1109.867, 598.321
1110.349, 603.943
1110.831, 606.605
1111.313, 599.761
1111.795, 593.077
1112.277, 592.638
1112.760, 595.998
1113.242, 602.349
1113.724, 610.339
1114.206, 608.728
1114.688, 584.289
1115.170, 573.785
1115.652, 584.883
1116.134, 597.567
1116.616, 607.628
1117.099, 614.873
1117.581, 619.080
1118.063, 620.396
1118.545, 618.843
1119.027, 614.100
1119.509, 609.981
1119.991, 606.436
1120.473, 603.872
1120.955, 602.287
1121.438, 602.551
1121.920, 605.388
1122.402, 608.838
1122.884, 610.565
1123.366, 610.503
1123.848, 607.260
1124.330, 601.898
1124.812, 600.152
1125.295, 601.836
1125.777, 602.270
1126.259, 600.159
1126.741, 599.322
1127.223, 602.634
1127.705, 608.677
1128.187, 619.272
1128.669, 628.727
1129.151, 626.873
1129.634, 618.635
1130.116, 614.441
1130.598, 614.290
1131.080, 609.432
1131.562, 595.058
1132.044, 585.449
1132.526, 590.701
1133.008, 599.690
1133.490, 610.757
1133.973, 618.422
1134.455, 616.769
1134.937, 608.595
1135.419, 596.854
1135.901, 581.394
1136.383, 578.819
1136.865, 608.430
1137.347, 622.976
1137.830, 609.143
1138.312, 593.474
1138.794, 584.636
1139.276, 580.794
1139.758, 580.856
1140.240, 583.962
1140.722, 586.754
1141.204, 589.111
1141.687, 591.437
1142.169, 593.319
1142.651, 599.939
1143.133, 613.120
1143.615, 623.980
1144.097, 627.465
1144.579, 621.593
1145.061, 596.332
1145.543, 564.123
1146.026, 568.479
1146.508, 597.273
1146.990, 611.795
1147.472, 610.097
1147.954, 604.370
1148.436, 599.089
1148.918, 594.136
1149.400, 588.864
1149.882, 585.198
1150.365, 583.531
1150.847, 585.714
1151.329, 600.882
1151.811, 616.762
1152.293, 610.092
1152.775, 586.591
1153.257, 578.098
1153.739, 597.681
1154.222, 609.232
1154.704, 591.830
1155.186, 579.808
1155.668, 589.502
1156.150, 602.341
1156.632, 606.657
1157.114, 605.537
1157.596, 602.781
1158.078, 598.528
1158.561, 595.303
1159.043, 591.057
1159.525, 598.013
1160.007, 622.320
1160.489, 630.612
1160.971, 608.575
1161.453, 585.950
1161.935, 587.779
1162.417, 602.628
1162.900, 608.900
1163.382, 608.106
1163.864, 606.552
1164.346, 604.299
1164.828, 601.445
1165.310, 597.919
1165.792, 592.408
1166.274, 584.650
1166.757, 579.799
1167.239, 584.064
1167.721, 589.770
1168.203, 588.202
1168.685, 585.335
1169.167, 589.065
1169.649, 595.242
1170.131, 595.102
1170.614, 589.642
1171.096, 589.709
1171.578, 601.514
1172.060, 607.339
1172.542, 592.903
1173.024, 586.059
1173.506, 605.812
1173.988, 624.148
1174.470, 621.466
1174.953, 609.113
1175.435, 604.456
1175.917, 607.174
1176.399, 614.729
1176.881, 630.371
1177.363, 625.020
1177.845, 593.688
1178.327, 575.466
1178.809, 583.291
1179.292, 598.532
1179.774, 607.520
1180.256, 612.016
1180.738, 614.799
1181.220, 615.303
1181.702, 611.381
1182.184, 604.336
1182.666, 593.808
1183.149, 583.411
1183.631, 585.951
1184.113, 604.250
1184.595, 619.274
1185.077, 618.681
1185.559, 613.698
1186.041, 607.506
1186.523, 602.703
1187.005, 600.223
1187.488, 600.812
1187.970, 609.135
1188.452, 621.274
1188.934, 621.101
1189.416, 603.118
1189.898, 593.190
1190.380, 594.332
1190.862, 596.565
1191.344, 599.310
1191.827, 599.794
1192.309, 595.662
1192.791, 592.404
1193.273, 597.174
1193.755, 606.442
1194.237, 610.171
1194.719, 608.749
1195.201, 601.253
1195.684, 590.266
1196.166, 588.468
1196.648, 596.588
1197.130, 602.691
1197.612, 600.810
1198.094, 599.900
1198.576, 612.227
1199.058, 623.278
1199.541, 616.704
1200.023, 606.730
1200.505, 608.306
1200.987, 616.198
1201.469, 624.079
1201.951, 629.101
1202.433, 619.205
1202.915, 603.696
1203.397, 620.873
1203.880, 630.113
1204.362, 631.848
1204.844, 603.589
1205.326, 614.060
1205.808, 609.011
1206.290, 603.324
1206.772, 619.247
1207.254, 595.351
1207.736, 610.931
1208.219, 610.751
1208.701, 617.785
1209.183, 609.202
1209.665, 605.442
1210.147, 604.086
1210.629, 591.672
1211.111, 597.323
1211.593, 606.411
1212.076, 606.023
1212.558, 602.307
1213.040, 597.981
1213.522, 595.864
1214.004, 602.665
1214.486, 611.998
1214.968, 609.567
1215.450, 595.676
1215.932, 591.362
1216.415, 607.318
1216.897, 617.108
1217.379, 617.447
1217.861, 616.857
1218.343, 618.302
1218.825, 616.195
1219.307, 605.334
1219.789, 593.972
1220.271, 595.561
1220.754, 605.931
1221.236, 606.841
1221.718, 600.726
1222.200, 599.563
1222.682, 603.470
1223.164, 610.873
1223.646, 619.585
1224.128, 619.479
1224.611, 603.945
1225.093, 591.794
1225.575, 601.197
1226.057, 614.863
1226.539, 624.321
1227.021, 628.718
1227.503, 624.399
1227.985, 616.436
1228.468, 611.944
1228.950, 611.440
1229.432, 613.781
1229.914, 619.972
1230.396, 625.903
1230.878, 631.439
1231.360, 637.498
1231.842, 644.810
1232.324, 650.181
1232.807, 652.005
1233.289, 649.934
1233.771, 642.299
1234.253, 632.869
1234.735, 635.065
1235.217, 639.839
1235.699, 621.529
1236.181, 642.848
1236.663, 654.548
1237.146, 657.143
1237.628, 623.373
1238.110, 636.563
1238.592, 630.933
1239.074, 624.532
1239.556, 644.332
1240.038, 615.851
1240.520, 635.235
1241.003, 635.511
1241.485, 644.533
1241.967, 634.619
1242.449, 630.554
1242.931, 645.430
1243.413, 649.819
1243.895, 637.725
1244.377, 647.303
1244.859, 618.161
1245.342, 626.141
1245.824, 649.565
1246.306, 647.952
1246.788, 639.854
1247.270, 638.787
1247.752, 640.105
1248.234, 639.539
1248.716, 638.001
1249.198, 636.187
1249.681, 634.146
1250.163, 631.508
1250.645, 628.764
1251.127, 626.032
1251.609, 623.367
1252.091, 626.343
1252.573, 643.145
1253.055, 648.574
1253.538, 636.507
1254.020, 629.075
1254.502, 633.749
1254.984, 636.947
1255.466, 629.337
1255.948, 619.171
1256.430, 618.356
1256.912, 623.327
1257.395, 626.633
1257.877, 628.271
1258.359, 626.839
1258.841, 624.212
1259.323, 625.003
1259.805, 629.319
1260.287, 634.319
1260.769, 639.460
1261.251, 641.335
1261.734, 634.823
1262.216, 630.356
1262.698, 633.724
1263.180, 636.323
1263.662, 632.585
1264.144, 628.807
##END=



