##NAMES=Lithiophosphate
##RRUFFID=R100092
##IDEAL CHEMISTRY=Li_3_PO_4_
##LOCALITY=Cachoeira mine, Itinga, Minas Gerais, Brazil
##OWNER=RRUFF
##SOURCE=Luiz Menezes 
##DESCRIPTION=Colorless fragments and prismatic crystals
##STATUS=The identification of this mineral has been confirmed by single-crystal X-ray diffraction.
##URL=rruff.info/R100092
132.9952, 83.80791
133.4774, 83.96645
133.9595, 84.48645
134.4416, 84.96923
134.9237, 85.00432
135.4058, 84.51787
135.8879, 84.10307
136.3701, 83.97314
136.8522, 83.88650
137.3343, 83.69743
137.8164, 83.37059
138.2985, 82.99265
138.7806, 82.76917
139.2628, 83.07534
139.7449, 82.79311
140.2270, 81.30665
140.7091, 79.52471
141.1912, 78.26756
141.6733, 77.90956
142.1555, 78.22006
142.6376, 78.42249
143.1197, 78.50980
143.6018, 78.48292
144.0839, 78.32767
144.5660, 78.05690
145.0482, 77.68587
145.5303, 77.21974
146.0124, 76.66280
146.4945, 76.03777
146.9766, 74.82240
147.4587, 74.04729
147.9409, 74.62003
148.4230, 76.22250
148.9051, 77.33128
149.3872, 76.56229
149.8693, 74.34513
150.3514, 73.40730
150.8336, 75.09256
151.3157, 77.27483
151.7978, 77.91927
152.2799, 76.81592
152.7620, 75.41280
153.2441, 74.85554
153.7263, 74.75391
154.2084, 74.45280
154.6905, 73.41518
155.1726, 72.08120
155.6547, 71.48728
156.1368, 71.97324
156.6190, 72.62875
157.1011, 72.89958
157.5832, 72.95036
158.0653, 73.11380
158.5474, 73.70669
159.0295, 74.67571
159.5117, 75.32150
159.9938, 75.71752
160.4759, 75.64343
160.9580, 74.76097
161.4401, 73.30249
161.9222, 71.82276
162.4044, 70.81541
162.8865, 70.33601
163.3686, 69.99788
163.8507, 69.88174
164.3328, 69.82235
164.8149, 69.78987
165.2971, 69.75935
165.7792, 69.68916
166.2613, 69.52219
166.7434, 69.20554
167.2255, 68.94601
167.7076, 68.80195
168.1898, 68.66659
168.6719, 68.46868
169.1540, 68.19261
169.6361, 67.86906
170.1182, 67.54100
170.6003, 67.22285
171.0825, 66.85556
171.5646, 66.23807
172.0467, 65.64764
172.5288, 65.42221
173.0109, 65.67213
173.4930, 66.21201
173.9752, 66.91512
174.4573, 67.91238
174.9394, 68.40979
175.4215, 67.71601
175.9036, 66.35884
176.3857, 65.54167
176.8679, 65.69059
177.3500, 66.38696
177.8321, 67.09177
178.3142, 67.82148
178.7963, 68.45687
179.2784, 68.71036
179.7606, 68.67925
180.2427, 69.20292
180.7248, 71.07338
181.2069, 73.08875
181.6890, 74.27287
182.1711, 74.55037
182.6533, 74.19308
183.1354, 73.20369
183.6175, 71.45039
184.0996, 70.11252
184.5817, 70.09794
185.0638, 70.19833
185.5460, 69.51880
186.0281, 67.89755
186.5102, 66.18546
186.9923, 65.69650
187.4744, 67.01368
187.9565, 68.02422
188.4387, 68.64915
188.9208, 68.81510
189.4029, 68.24987
189.8850, 66.91618
190.3671, 65.30669
190.8492, 64.33427
191.3314, 64.26673
191.8135, 64.51223
192.2956, 65.33537
192.7777, 66.26263
193.2598, 66.83625
193.7419, 66.88206
194.2241, 66.62282
194.7062, 66.59261
195.1883, 66.52503
195.6704, 67.07913
196.1525, 68.67728
196.6346, 70.77144
197.1168, 72.92583
197.5989, 74.98513
198.0810, 76.67170
198.5631, 77.09000
199.0452, 75.58792
199.5273, 73.79800
200.0095, 71.74360
200.4916, 69.59364
200.9737, 67.49390
201.4558, 65.39810
201.9379, 63.60525
202.4200, 63.11409
202.9022, 64.73652
203.3843, 65.96893
203.8664, 65.64664
204.3485, 64.21454
204.8306, 62.85630
205.3127, 62.00692
205.7949, 61.62926
206.2770, 61.56283
206.7591, 61.83759
207.2412, 62.30665
207.7233, 63.06106
208.2054, 64.02635
208.6876, 64.70963
209.1697, 64.82620
209.6518, 64.59205
210.1339, 64.32243
210.6160, 63.96272
211.0981, 63.75929
211.5803, 64.05547
212.0624, 64.85273
212.5445, 65.43742
213.0266, 65.32728
213.5087, 65.02169
213.9908, 64.99718
214.4730, 65.34949
214.9551, 65.83198
215.4372, 66.12593
215.9193, 66.17162
216.4014, 66.41039
216.8836, 67.12581
217.3657, 68.00227
217.8478, 68.82191
218.3299, 69.52604
218.8120, 70.28108
219.2941, 71.21580
219.7763, 72.19653
220.2584, 73.83377
220.7405, 76.66558
221.2226, 79.88916
221.7047, 82.98535
222.1868, 85.81276
222.6690, 88.56737
223.1511, 91.50088
223.6332, 94.50209
224.1153, 98.03000
224.5974, 103.4562
225.0795, 108.5161
225.5617, 111.7688
226.0438, 112.7489
226.5259, 111.6610
227.0080, 108.6810
227.4901, 102.7644
227.9722, 96.72454
228.4544, 90.13484
228.9365, 83.80179
229.4186, 78.34573
229.9007, 73.96117
230.3828, 70.50516
230.8649, 67.76569
231.3471, 65.65298
231.8292, 64.57826
232.3113, 65.48540
232.7934, 66.78761
233.2755, 66.97826
233.7576, 65.70597
234.2398, 63.98846
234.7219, 63.54859
235.2040, 65.47550
235.6861, 66.81658
236.1682, 67.15269
236.6503, 67.14554
237.1325, 67.36489
237.6146, 67.96284
238.0967, 68.74971
238.5788, 69.41089
239.0609, 69.67478
239.5430, 70.51769
240.0252, 72.57548
240.5073, 74.92850
240.9894, 76.64836
241.4715, 77.52235
241.9536, 77.94303
242.4357, 78.50083
242.9179, 79.38737
243.4000, 79.46034
243.8821, 78.33627
244.3642, 76.46929
244.8463, 74.09513
245.3284, 71.20986
245.8106, 68.49304
246.2927, 66.90917
246.7748, 66.50302
247.2569, 65.88857
247.7390, 64.72220
248.2211, 63.30088
248.7033, 61.87689
249.1854, 60.45224
249.6675, 59.28414
250.1496, 58.77246
250.6317, 58.81719
251.1138, 58.82966
251.5960, 58.69374
252.0781, 58.45941
252.5602, 58.22127
253.0423, 58.01201
253.5244, 57.66652
254.0065, 56.80939
254.4887, 55.66553
254.9708, 54.90051
255.4529, 54.88577
255.9350, 55.26251
256.4171, 55.56066
256.8992, 55.75816
257.3813, 55.91595
257.8635, 56.17181
258.3456, 56.41169
258.8277, 56.39649
259.3098, 55.88239
259.7919, 55.18052
260.2740, 54.68082
260.7562, 54.36359
261.2383, 54.33329
261.7204, 55.09520
262.2025, 56.07483
262.6846, 56.48713
263.1667, 55.83137
263.6489, 54.85006
264.1310, 54.69466
264.6131, 55.57917
265.0952, 56.35796
265.5773, 56.58292
266.0594, 56.41052
266.5416, 55.84562
267.0237, 54.77180
267.5058, 53.62193
267.9879, 52.98826
268.4700, 52.95314
268.9521, 53.06658
269.4343, 53.29680
269.9164, 53.55727
270.3985, 53.81335
270.8806, 54.06566
271.3627, 54.22866
271.8448, 54.09685
272.3270, 53.55884
272.8091, 53.30604
273.2912, 53.99907
273.7733, 54.71816
274.2554, 54.75584
274.7375, 54.01747
275.2197, 53.19423
275.7018, 53.14219
276.1839, 54.00690
276.6660, 54.69242
277.1481, 54.99268
277.6302, 55.10160
278.1124, 55.07031
278.5945, 54.91493
279.0766, 54.65777
279.5587, 54.16515
280.0408, 53.34446
280.5229, 53.12134
281.0051, 54.52502
281.4872, 55.69804
281.9693, 55.61556
282.4514, 54.52114
282.9335, 53.41453
283.4156, 53.20541
283.8978, 53.91675
284.3799, 54.43663
284.8620, 54.68396
285.3441, 54.79596
285.8262, 54.82597
286.3083, 54.75945
286.7905, 54.53364
287.2726, 54.04042
287.7547, 53.33346
288.2368, 52.94812
288.7189, 53.04736
289.2010, 53.31437
289.6832, 53.79264
290.1653, 54.34797
290.6474, 54.77815
291.1295, 54.94393
291.6116, 54.93268
292.0938, 55.11492
292.5759, 55.73014
293.0580, 56.19297
293.5401, 56.31708
294.0222, 56.27211
294.5043, 56.24619
294.9865, 56.32404
295.4686, 56.45497
295.9507, 56.50587
296.4328, 56.38655
296.9149, 56.35148
297.3970, 56.51637
297.8792, 56.71840
298.3613, 56.70669
298.8434, 56.43451
299.3255, 56.23577
299.8076, 56.80285
300.2897, 58.84251
300.7719, 60.01468
301.2540, 59.58036
301.7361, 58.84900
302.2182, 58.52649
302.7003, 58.78642
303.1824, 59.50409
303.6646, 60.63295
304.1467, 62.37401
304.6288, 63.77647
305.1109, 64.40559
305.5930, 65.10345
306.0751, 66.60897
306.5573, 68.65331
307.0394, 70.20486
307.5215, 70.14917
308.0036, 68.31447
308.4857, 67.40009
308.9678, 67.79383
309.4500, 68.78095
309.9321, 70.54887
310.4142, 72.76777
310.8963, 74.83938
311.3784, 76.33607
311.8605, 77.35924
312.3427, 78.68340
312.8248, 80.71793
313.3069, 82.60374
313.7890, 83.96560
314.2711, 85.15737
314.7532, 86.61305
315.2354, 88.53190
315.7175, 90.89776
316.1996, 93.67721
316.6817, 97.28031
317.1638, 100.6809
317.6459, 103.3537
318.1281, 106.0160
318.6102, 109.3696
319.0923, 113.6145
319.5744, 118.3100
320.0565, 122.6840
320.5386, 126.3850
321.0208, 130.5857
321.5029, 136.0001
321.9850, 141.3363
322.4671, 145.8975
322.9492, 149.5679
323.4313, 152.5634
323.9135, 155.2575
324.3956, 157.8342
324.8777, 159.0849
325.3598, 158.9322
325.8419, 157.5246
326.3240, 154.3058
326.8062, 149.7614
327.2883, 144.9953
327.7704, 140.7803
328.2525, 137.1109
328.7346, 133.7320
329.2167, 130.9209
329.6989, 128.0870
330.1810, 124.8225
330.6631, 121.4967
331.1452, 118.6158
331.6273, 116.4204
332.1094, 114.9338
332.5916, 114.3046
333.0737, 115.0632
333.5558, 115.8194
334.0379, 116.0837
334.5200, 116.3571
335.0021, 117.1497
335.4843, 118.6203
335.9664, 120.4546
336.4485, 122.1014
336.9306, 123.3872
337.4127, 125.0256
337.8948, 127.0454
338.3770, 129.4485
338.8591, 132.3135
339.3412, 135.6224
339.8233, 139.1945
340.3055, 142.8490
340.7876, 146.5448
341.2697, 150.5917
341.7518, 155.1532
342.2339, 159.9184
342.7160, 164.8280
343.1982, 169.8532
343.6803, 174.9854
344.1624, 180.2619
344.6445, 185.6342
345.1266, 190.8008
345.6087, 195.3979
346.0909, 200.4126
346.5730, 206.1070
347.0551, 212.3522
347.5372, 219.1387
348.0193, 226.7013
348.5014, 234.2271
348.9836, 240.4394
349.4657, 245.3202
349.9478, 248.8250
350.4299, 250.0716
350.9120, 250.4668
351.3941, 251.0057
351.8763, 251.8692
352.3584, 252.4699
352.8405, 252.1845
353.3226, 250.9975
353.8047, 249.4476
354.2868, 247.7364
354.7690, 245.4668
355.2511, 242.1326
355.7332, 237.9583
356.2153, 233.9245
356.6974, 230.7920
357.1795, 228.3295
357.6617, 225.5568
358.1438, 222.2182
358.6259, 219.1273
359.1080, 216.6389
359.5901, 214.7057
360.0722, 213.2920
360.5544, 212.4000
361.0365, 212.0089
361.5186, 211.9856
362.0007, 212.2775
362.4828, 213.3974
362.9649, 215.8689
363.4471, 219.1693
363.9292, 222.6550
364.4113, 226.2036
364.8934, 230.2504
365.3755, 234.9564
365.8576, 240.3861
366.3398, 247.0239
366.8219, 255.4655
367.3040, 264.5154
367.7861, 272.7437
368.2682, 280.2533
368.7503, 288.3083
369.2325, 298.0936
369.7146, 308.5945
370.1967, 318.3384
370.6788, 327.3455
371.1609, 334.8842
371.6430, 340.6104
372.1252, 344.3140
372.6073, 345.2188
373.0894, 342.2849
373.5715, 337.2345
374.0536, 331.4205
374.5357, 324.7563
375.0179, 316.3853
375.5000, 305.7070
375.9821, 293.2838
376.4642, 280.2534
376.9463, 266.0938
377.4284, 252.6967
377.9106, 240.8959
378.3927, 230.3299
378.8748, 220.2606
379.3569, 210.4396
379.8390, 201.5278
380.3211, 194.5033
380.8033, 189.6832
381.2854, 185.1649
381.7675, 180.2857
382.2496, 176.0756
382.7317, 173.5016
383.2138, 172.5158
383.6960, 172.2265
384.1781, 171.9431
384.6602, 171.7290
385.1423, 172.4898
385.6244, 174.5107
386.1065, 176.9753
386.5887, 179.6522
387.0708, 182.5754
387.5529, 185.8475
388.0350, 189.5208
388.5171, 193.5395
388.9992, 197.8188
389.4814, 202.9044
389.9635, 207.3646
390.4456, 211.1387
390.9277, 214.3465
391.4098, 217.5282
391.8919, 220.4984
392.3741, 222.1105
392.8562, 221.0738
393.3383, 217.1183
393.8204, 212.4521
394.3025, 207.4454
394.7846, 201.4093
395.2668, 193.5733
395.7489, 184.5625
396.2310, 175.3553
396.7131, 166.4389
397.1952, 157.9727
397.6773, 150.5220
398.1595, 144.7108
398.6416, 138.9009
399.1237, 132.3100
399.6058, 125.9575
400.0879, 121.0290
400.5700, 117.6686
401.0522, 114.5815
401.5343, 109.8291
402.0164, 102.9410
402.4985, 97.33068
402.9806, 93.97916
403.4627, 91.19364
403.9449, 88.30161
404.4270, 85.38599
404.9091, 82.79184
405.3912, 80.77258
405.8733, 79.20598
406.3554, 77.74032
406.8376, 76.35805
407.3197, 75.09605
407.8018, 74.15157
408.2839, 73.25024
408.7660, 72.02209
409.2481, 70.28845
409.7303, 68.66096
410.2124, 67.87068
410.6945, 67.86085
411.1766, 67.66968
411.6587, 66.87489
412.1408, 66.13443
412.6230, 66.27775
413.1051, 67.15421
413.5872, 67.61185
414.0693, 66.69382
414.5514, 65.23536
415.0335, 64.63289
415.5157, 65.02094
415.9978, 65.63706
416.4799, 66.13061
416.9620, 66.45225
417.4441, 66.50016
417.9262, 66.03426
418.4084, 65.60787
418.8905, 65.46347
419.3726, 65.59799
419.8547, 66.06016
420.3368, 66.91374
420.8189, 67.94272
421.3011, 68.75871
421.7832, 69.24417
422.2653, 70.02344
422.7474, 71.41293
423.2295, 72.95467
423.7116, 74.12314
424.1938, 74.96416
424.6759, 76.08170
425.1580, 77.99149
425.6401, 80.64473
426.1222, 83.20446
426.6043, 86.02316
427.0865, 88.35832
427.5686, 89.48289
428.0507, 90.18870
428.5328, 91.62615
429.0149, 94.23096
429.4970, 97.47050
429.9792, 100.4059
430.4613, 102.7129
430.9434, 105.4755
431.4255, 109.2013
431.9076, 112.8643
432.3897, 115.5885
432.8719, 117.6645
433.3540, 120.1549
433.8361, 123.9027
434.3182, 128.7681
434.8003, 133.7984
435.2824, 138.6909
435.7646, 144.2447
436.2467, 150.5269
436.7288, 157.5136
437.2109, 165.2072
437.6930, 173.6154
438.1751, 182.5093
438.6573, 191.7241
439.1394, 201.2745
439.6215, 210.9391
440.1036, 220.8661
440.5857, 230.7290
441.0678, 241.1069
441.5500, 251.4787
442.0321, 259.9686
442.5142, 265.9886
442.9963, 269.4302
443.4784, 270.2219
443.9605, 268.3989
444.4427, 263.5705
444.9248, 254.7400
445.4069, 242.9536
445.8890, 230.2273
446.3711, 216.2163
446.8532, 202.3431
447.3354, 189.4706
447.8175, 177.3316
448.2996, 165.0937
448.7817, 152.4465
449.2638, 140.6014
449.7459, 131.0233
450.2281, 123.8771
450.7102, 117.4908
451.1923, 112.0108
451.6744, 107.0915
452.1565, 102.4402
452.6386, 98.16943
453.1208, 94.69298
453.6029, 92.23093
454.0850, 90.61910
454.5671, 89.41398
455.0492, 89.07214
455.5313, 88.52756
456.0135, 87.39536
456.4956, 86.30507
456.9777, 85.82788
457.4598, 85.98567
457.9419, 86.30405
458.4240, 86.25076
458.9062, 85.80960
459.3883, 86.26688
459.8704, 88.60779
460.3525, 90.78799
460.8346, 92.19732
461.3167, 93.25845
461.7989, 94.49398
462.2810, 96.10770
462.7631, 97.84615
463.2452, 100.0108
463.7273, 102.0897
464.2094, 104.5052
464.6916, 107.1826
465.1737, 110.3555
465.6558, 114.3689
466.1379, 119.0186
466.6200, 123.6286
467.1021, 127.4885
467.5843, 131.2276
468.0664, 136.0625
468.5485, 142.0647
469.0306, 148.8087
469.5127, 156.2487
469.9948, 164.3095
470.4770, 172.8294
470.9591, 182.0336
471.4412, 190.8311
471.9233, 198.8728
472.4054, 206.1065
472.8875, 212.4283
473.3697, 217.8375
473.8518, 222.1657
474.3339, 225.4409
474.8160, 227.4938
475.2981, 227.3363
475.7802, 223.9499
476.2624, 219.5051
476.7445, 214.2852
477.2266, 208.7845
477.7087, 203.9530
478.1908, 200.1362
478.6729, 196.8385
479.1551, 193.2049
479.6372, 189.1718
480.1193, 184.8727
480.6014, 180.1248
481.0835, 175.2928
481.5656, 170.9440
482.0478, 166.7244
482.5299, 161.7403
483.0120, 155.4286
483.4941, 147.8913
483.9762, 139.5197
484.4583, 129.4498
484.9405, 120.3479
485.4226, 112.9564
485.9047, 106.4595
486.3868, 100.4257
486.8689, 94.74309
487.3510, 89.40784
487.8332, 84.33132
488.3153, 79.59664
488.7974, 75.45705
489.2795, 71.94430
489.7616, 68.99648
490.2437, 66.79209
490.7259, 65.08465
491.2080, 63.55684
491.6901, 62.27981
492.1722, 60.95181
492.6543, 59.24504
493.1364, 57.31340
493.6186, 55.58919
494.1007, 54.15938
494.5828, 53.00602
495.0649, 52.20372
495.5470, 51.80324
496.0291, 51.09570
496.5113, 49.34923
496.9934, 47.94579
497.4755, 48.13550
497.9576, 49.31281
498.4397, 49.87290
498.9218, 49.01221
499.4040, 47.43029
499.8861, 46.73597
500.3682, 47.81121
500.8503, 48.15639
501.3324, 47.18858
501.8145, 46.07804
502.2967, 45.58495
502.7788, 45.61510
503.2609, 45.57558
503.7430, 44.98439
504.2251, 44.08700
504.7072, 43.91843
505.1894, 44.87378
505.6715, 45.65289
506.1536, 45.85306
506.6357, 45.79951
507.1178, 45.67240
507.5999, 45.50966
508.0821, 45.39226
508.5642, 45.44836
509.0463, 45.59480
509.5284, 45.56810
510.0105, 45.32604
510.4926, 45.02097
510.9748, 44.60587
511.4569, 44.24006
511.9390, 44.30384
512.4211, 45.07088
512.9032, 45.80343
513.3853, 46.08782
513.8674, 46.10969
514.3495, 46.18522
514.8317, 46.38590
515.3138, 46.59358
515.7959, 46.68201
516.2780, 46.64016
516.7601, 46.64472
517.2422, 46.49001
517.7244, 46.60156
518.2065, 47.36327
518.6886, 48.40047
519.1707, 49.18779
519.6528, 49.53719
520.1349, 49.62223
520.6171, 49.67351
521.0992, 49.66841
521.5813, 49.71864
522.0634, 49.38745
522.5455, 49.58001
523.0276, 51.14071
523.5098, 53.39088
523.9919, 54.97588
524.4740, 55.14251
524.9561, 54.86763
525.4382, 55.76188
525.9203, 57.84890
526.4025, 59.39746
526.8846, 59.68370
527.3667, 59.72787
527.8488, 60.77169
528.3309, 62.60188
528.8130, 63.79696
529.2952, 63.16429
529.7773, 62.31391
530.2594, 62.82621
530.7415, 64.49435
531.2236, 66.36269
531.7057, 68.13328
532.1879, 69.52053
532.6700, 69.93948
533.1521, 68.99546
533.6342, 67.89189
534.1163, 66.42223
534.5984, 64.99525
535.0806, 64.09647
535.5627, 63.49325
536.0448, 62.45530
536.5269, 60.49850
537.0090, 57.96360
537.4911, 55.89523
537.9733, 54.35095
538.4554, 53.12678
538.9375, 52.25683
539.4196, 51.63196
539.9017, 51.47987
540.3839, 51.59489
540.8660, 51.19694
541.3481, 49.35380
541.8302, 46.89996
542.3123, 45.83801
542.7944, 46.31909
543.2766, 46.89800
543.7587, 47.19080
544.2408, 47.13576
544.7229, 46.46533
545.2050, 45.03163
545.6871, 44.27543
546.1693, 45.62257
546.6514, 47.31801
547.1335, 47.09731
547.6156, 45.11782
548.0977, 43.39418
548.5798, 43.17411
549.0620, 44.05813
549.5441, 44.69682
550.0262, 44.85569
550.5083, 45.06783
550.9904, 45.39460
551.4725, 45.72978
551.9547, 46.07952
552.4368, 46.37748
552.9189, 46.41696
553.4010, 45.97127
553.8831, 45.22973
554.3652, 44.97911
554.8474, 45.36133
555.3295, 45.88013
555.8116, 46.48247
556.2937, 47.13141
556.7758, 47.85090
557.2579, 48.62081
557.7401, 49.28909
558.2222, 49.67670
558.7043, 49.93860
559.1864, 50.38578
559.6685, 51.02448
560.1506, 51.56295
560.6328, 51.73071
561.1149, 51.82876
561.5970, 52.63564
562.0791, 54.41801
562.5612, 55.89252
563.0433, 56.40020
563.5255, 56.81995
564.0076, 58.01447
564.4897, 59.87205
564.9718, 61.61237
565.4539, 62.68867
565.9360, 63.44587
566.4182, 65.04929
566.9003, 67.90334
567.3824, 70.89650
567.8645, 73.69703
568.3466, 76.81255
568.8287, 81.01810
569.3109, 85.92668
569.7930, 90.03060
570.2751, 92.05614
570.7572, 93.08955
571.2393, 95.38716
571.7214, 99.00191
572.2036, 103.1353
572.6857, 107.7659
573.1678, 112.5242
573.6499, 116.8097
574.1320, 120.6185
574.6141, 125.0954
575.0963, 130.4588
575.5784, 136.6712
576.0605, 143.5936
576.5426, 151.3046
577.0247, 160.3228
577.5068, 170.9413
577.9890, 182.3882
578.4711, 193.0605
578.9532, 201.6497
579.4353, 212.9304
579.9174, 227.4785
580.3995, 243.7767
580.8817, 261.9328
581.3638, 281.1017
581.8459, 300.2560
582.3280, 319.0874
582.8101, 336.4824
583.2922, 351.2946
583.7744, 363.6100
584.2565, 371.6489
584.7386, 376.0680
585.2207, 374.7216
585.7029, 365.6383
586.1850, 350.0646
586.6671, 330.4864
587.1492, 305.2867
587.6313, 279.0981
588.1135, 254.3709
588.5956, 231.2783
589.0777, 210.3050
589.5598, 191.6164
590.0419, 174.6888
590.5240, 159.0138
591.0062, 144.6137
591.4883, 132.4007
591.9704, 123.0700
592.4525, 114.7760
592.9346, 107.0816
593.4167, 100.1875
593.8989, 94.40535
594.3810, 89.77232
594.8631, 85.83466
595.3452, 82.18968
595.8273, 78.84445
596.3094, 75.80814
596.7916, 73.09827
597.2737, 70.63008
597.7558, 68.14008
598.2379, 65.99045
598.7200, 64.79499
599.2021, 64.73205
599.6843, 64.50539
600.1664, 63.34729
600.6485, 61.68069
601.1306, 59.80567
601.6127, 57.86185
602.0948, 56.71186
602.5770, 57.00990
603.0591, 58.16764
603.5412, 58.54978
604.0233, 57.31059
604.5054, 56.67276
604.9875, 57.13916
605.4697, 57.75349
605.9518, 57.84491
606.4339, 57.56435
606.9160, 57.45858
607.3981, 57.85278
607.8802, 58.48959
608.3624, 58.83149
608.8445, 58.82616
609.3266, 58.93188
609.8087, 59.20850
610.2908, 59.63210
610.7729, 60.16736
611.2551, 60.82300
611.7372, 61.64109
612.2193, 62.66785
612.7014, 63.81551
613.1835, 65.14675
613.6656, 66.53435
614.1478, 67.63278
614.6299, 68.35538
615.1120, 69.05888
615.5941, 70.09856
616.0762, 71.47771
616.5583, 72.92634
617.0405, 74.56551
617.5226, 76.12955
618.0047, 77.95805
618.4868, 79.46548
618.9689, 79.95632
619.4510, 79.41551
619.9332, 78.52348
620.4153, 77.85424
620.8974, 77.28951
621.3795, 76.39698
621.8616, 75.14070
622.3438, 73.74797
622.8259, 72.27607
623.3080, 70.72652
623.7901, 69.12303
624.2722, 67.46642
624.7543, 65.72855
625.2365, 63.68871
625.7186, 61.73122
626.2007, 60.34071
626.6828, 59.31294
627.1649, 58.03929
627.6470, 56.25089
628.1292, 54.27466
628.6113, 52.59336
629.0934, 51.18551
629.5755, 50.15478
630.0576, 49.74932
630.5397, 49.47689
631.0219, 49.35313
631.5040, 49.21904
631.9861, 48.82412
632.4682, 48.08781
632.9503, 47.32784
633.4324, 46.96297
633.9146, 46.80721
634.3967, 46.17982
634.8788, 44.97437
635.3609, 43.83710
635.8430, 43.17035
636.3251, 42.82277
636.8073, 42.35777
637.2894, 41.63776
637.7715, 41.13526
638.2536, 41.14682
638.7357, 41.21483
639.2178, 40.97249
639.7000, 40.47048
640.1821, 39.90363
640.6642, 39.35968
641.1463, 38.95710
641.6284, 39.03345
642.1105, 39.74061
642.5927, 40.11206
643.0748, 39.99689
643.5569, 39.60474
644.0390, 38.90199
644.5211, 38.05761
645.0032, 37.39760
645.4854, 36.96481
645.9675, 36.80440
646.4496, 37.12367
646.9317, 37.68327
647.4138, 38.10046
647.8959, 38.30636
648.3781, 38.19230
648.8602, 37.58819
649.3423, 36.68156
649.8244, 36.38686
650.3065, 37.27329
650.7886, 37.93441
651.2708, 38.28955
651.7529, 38.44480
652.2350, 38.40471
652.7171, 38.22433
653.1992, 38.03879
653.6813, 37.95626
654.1635, 37.80597
654.6456, 37.12809
655.1277, 36.00230
655.6098, 35.53590
656.0919, 36.13686
656.5740, 36.86176
657.0562, 36.88410
657.5383, 36.28906
658.0204, 35.84966
658.5025, 35.51869
658.9846, 35.40540
659.4667, 35.78578
659.9489, 36.25309
660.4310, 36.31901
660.9131, 35.98799
661.3952, 35.63668
661.8773, 35.53383
662.3594, 35.63284
662.8416, 35.79847
663.3237, 36.06524
663.8058, 36.28221
664.2879, 36.52805
664.7700, 36.59812
665.2521, 36.17553
665.7343, 35.44666
666.2164, 35.05109
666.6985, 35.29577
667.1806, 35.75126
667.6627, 36.27985
668.1448, 36.76171
668.6270, 36.94389
669.1091, 36.78473
669.5912, 36.42721
670.0733, 35.94757
670.5554, 35.40089
671.0375, 35.18562
671.5197, 35.51174
672.0018, 35.83522
672.4839, 36.39087
672.9660, 36.68144
673.4481, 36.04200
673.9302, 34.79260
674.4124, 34.02813
674.8945, 34.45472
675.3766, 35.37285
675.8587, 36.00087
676.3408, 36.36901
676.8229, 36.64799
677.3051, 36.89754
677.7872, 36.89225
678.2693, 36.32936
678.7514, 35.28657
679.2335, 34.67030
679.7156, 34.68523
680.1978, 34.80092
680.6799, 34.95115
681.1620, 35.16677
681.6441, 35.56758
682.1262, 36.07606
682.6083, 36.43727
683.0905, 36.50682
683.5726, 36.31051
684.0547, 35.76301
684.5368, 34.86733
685.0189, 34.27850
685.5010, 34.12360
685.9832, 34.30215
686.4653, 34.85221
686.9474, 35.69731
687.4295, 36.42091
687.9116, 37.40986
688.3937, 37.73080
688.8759, 36.46225
689.3580, 34.82915
689.8401, 34.01998
690.3222, 34.10606
690.8043, 34.63684
691.2864, 35.37195
691.7686, 36.15844
692.2507, 36.62264
692.7328, 36.73613
693.2149, 36.69696
693.6970, 36.45496
694.1791, 36.17311
694.6613, 35.82003
695.1434, 35.52395
695.6255, 35.65943
696.1076, 36.66539
696.5897, 37.32344
697.0718, 36.68916
697.5540, 35.63237
698.0361, 35.22227
698.5182, 35.48006
699.0003, 35.91118
699.4824, 36.25154
699.9645, 36.35425
700.4467, 35.63511
700.9288, 33.54537
701.4109, 32.74344
701.8930, 34.46131
702.3751, 36.17126
702.8572, 36.54416
703.3394, 36.10857
703.8215, 35.76087
704.3036, 35.72660
704.7857, 35.60936
705.2678, 35.00263
705.7499, 34.27694
706.2321, 33.87381
706.7142, 33.83990
707.1963, 34.24621
707.6784, 35.18660
708.1605, 36.24372
708.6426, 36.52936
709.1248, 35.73365
709.6069, 35.27729
710.0890, 35.47227
710.5711, 35.64439
711.0532, 35.60074
711.5353, 35.38533
712.0175, 34.94253
712.4996, 34.23886
712.9817, 33.85406
713.4638, 34.45000
713.9459, 35.39867
714.4280, 35.85714
714.9102, 35.83818
715.3923, 35.56783
715.8744, 35.11694
716.3565, 34.63895
716.8386, 34.30765
717.3207, 34.06279
717.8029, 34.41553
718.2850, 36.28060
718.7671, 37.59814
719.2492, 37.58252
719.7313, 37.01613
720.2134, 36.64966
720.6956, 36.57431
721.1777, 36.47014
721.6598, 35.92232
722.1419, 35.39693
722.6240, 35.66314
723.1061, 36.51442
723.5883, 37.17156
724.0704, 37.41299
724.5525, 37.25163
725.0346, 36.57561
725.5167, 35.41999
725.9988, 35.07236
726.4810, 36.72144
726.9631, 37.45191
727.4452, 35.95008
727.9273, 34.23035
728.4094, 33.87932
728.8915, 34.73588
729.3737, 35.72035
729.8558, 36.53282
730.3379, 36.93111
730.8200, 36.23063
731.3021, 34.94146
731.7842, 34.63208
732.2664, 35.55976
732.7485, 36.59436
733.2306, 36.88389
733.7127, 36.60889
734.1948, 36.48180
734.6769, 36.61757
735.1591, 36.69313
735.6412, 36.62229
736.1233, 36.57177
736.6054, 36.65429
737.0875, 36.81110
737.5696, 36.94476
738.0518, 37.03773
738.5339, 37.02600
739.0160, 36.66828
739.4981, 36.24488
739.9802, 36.40473
740.4623, 37.10662
740.9445, 37.58952
741.4266, 37.42892
741.9087, 37.06136
742.3908, 37.36586
742.8729, 38.71064
743.3550, 39.12547
743.8372, 37.43300
744.3193, 36.21649
744.8014, 36.58764
745.2835, 37.53523
745.7656, 37.91468
746.2477, 37.58714
746.7299, 37.26962
747.2120, 37.34667
747.6941, 37.64509
748.1762, 38.03234
748.6583, 38.47371
749.1404, 38.95178
749.6226, 39.45445
750.1047, 39.64510
750.5868, 39.07165
751.0689, 37.85909
751.5510, 37.42885
752.0331, 38.46425
752.5153, 38.96714
752.9974, 37.97095
753.4795, 36.91333
753.9616, 36.79957
754.4437, 37.39090
754.9258, 37.81039
755.4080, 37.71409
755.8901, 37.54051
756.3722, 37.53458
756.8543, 37.66393
757.3364, 37.93359
757.8185, 38.30701
758.3007, 38.65441
758.7828, 38.90227
759.2649, 39.03809
759.7470, 38.99141
760.2291, 38.68225
760.7112, 38.59359
761.1934, 38.90371
761.6755, 39.17416
762.1576, 39.11784
762.6397, 38.94428
763.1218, 38.94769
763.6039, 39.18232
764.0861, 39.30786
764.5682, 39.14167
765.0503, 38.88332
765.5324, 38.66407
766.0145, 38.47737
766.4966, 38.24356
766.9788, 37.96172
767.4609, 37.80665
767.9430, 37.95459
768.4251, 38.38107
768.9072, 39.08266
769.3893, 40.20343
769.8715, 40.78528
770.3536, 40.29913
770.8357, 39.62229
771.3178, 39.63499
771.7999, 40.19160
772.2820, 40.53646
772.7642, 40.39357
773.2463, 40.35109
773.7284, 40.86305
774.2105, 41.31316
774.6926, 40.90976
775.1747, 39.94096
775.6569, 39.43913
776.1390, 39.96277
776.6211, 40.71321
777.1032, 40.40224
777.5853, 39.28170
778.0674, 38.87122
778.5496, 39.34839
779.0317, 39.88403
779.5138, 40.02005
779.9959, 40.07898
780.4780, 40.76438
780.9601, 42.50969
781.4423, 43.05824
781.9244, 41.02010
782.4065, 39.52639
782.8886, 40.23684
783.3707, 41.58716
783.8528, 41.72091
784.3350, 40.54675
784.8171, 39.50020
785.2992, 39.57274
785.7813, 40.08814
786.2634, 40.17323
786.7455, 39.95683
787.2277, 39.81810
787.7098, 39.83679
788.1919, 40.08765
788.6740, 40.68577
789.1561, 41.47136
789.6382, 41.82975
790.1204, 41.54858
790.6025, 41.34647
791.0846, 41.12318
791.5667, 41.14088
792.0488, 41.93874
792.5309, 42.88737
793.0131, 42.88451
793.4952, 41.61341
793.9773, 40.42053
794.4594, 39.71260
794.9415, 39.54421
795.4236, 40.35366
795.9058, 41.68681
796.3879, 42.49354
796.8700, 42.47375
797.3521, 42.17562
797.8342, 42.13458
798.3163, 42.31838
798.7985, 42.57768
799.2806, 42.93110
799.7627, 43.28019
800.2448, 43.72022
800.7269, 43.95044
801.2090, 43.56157
801.6912, 42.70118
802.1733, 42.19896
802.6554, 42.36635
803.1375, 42.39848
803.6196, 41.92805
804.1017, 41.47227
804.5839, 41.26497
805.0660, 41.40110
805.5481, 42.18853
806.0302, 43.75055
806.5123, 45.07967
806.9944, 44.97017
807.4766, 43.93237
807.9587, 43.00573
808.4408, 42.26300
808.9229, 42.16816
809.4050, 42.98101
809.8871, 43.92628
810.3693, 44.03727
810.8514, 43.32403
811.3335, 42.87355
811.8156, 42.62191
812.2977, 42.74599
812.7798, 43.74458
813.2620, 44.68560
813.7441, 44.85530
814.2262, 44.46307
814.7083, 44.19236
815.1904, 44.31674
815.6725, 44.35024
816.1547, 43.70615
816.6368, 43.04224
817.1189, 43.26260
817.6010, 44.16732
818.0831, 45.02459
818.5652, 45.51298
819.0474, 45.60981
819.5295, 45.11451
820.0116, 44.13429
820.4937, 43.71866
820.9758, 43.96118
821.4579, 44.21513
821.9401, 44.29327
822.4222, 44.27654
822.9043, 44.20335
823.3864, 44.08406
823.8685, 44.14341
824.3506, 44.74805
824.8328, 45.01087
825.3149, 44.24598
825.7970, 43.58666
826.2791, 44.10022
826.7612, 45.35120
827.2433, 46.16632
827.7255, 46.08167
828.2076, 45.85125
828.6897, 46.29403
829.1718, 46.91582
829.6539, 46.77071
830.1360, 45.98582
830.6182, 45.35437
831.1003, 45.17836
831.5824, 45.14961
832.0645, 44.84174
832.5466, 44.31957
833.0287, 44.49203
833.5109, 45.64561
833.9930, 46.65100
834.4751, 47.42202
834.9572, 47.79935
835.4393, 47.33827
835.9214, 46.37179
836.4036, 45.89753
836.8857, 46.25463
837.3678, 46.56883
837.8499, 46.43896
838.3320, 46.36993
838.8141, 46.94508
839.2963, 47.78659
839.7784, 48.07831
840.2605, 47.60048
840.7426, 47.10287
841.2247, 47.48175
841.7068, 48.19550
842.1890, 48.07653
842.6711, 47.26782
843.1532, 46.46727
843.6353, 45.83984
844.1174, 45.75549
844.5995, 46.66938
845.0817, 48.25680
845.5638, 48.95879
846.0459, 48.34141
846.5280, 48.06546
847.0101, 48.61460
847.4922, 49.04225
847.9744, 48.60357
848.4565, 47.85004
848.9386, 47.69234
849.4207, 48.30257
849.9028, 48.75086
850.3849, 48.64365
850.8671, 48.46003
851.3492, 48.28807
851.8313, 48.31533
852.3134, 48.97671
852.7955, 50.17035
853.2776, 51.11000
853.7598, 51.23167
854.2419, 50.90278
854.7240, 50.53993
855.2061, 50.20119
855.6882, 50.20863
856.1703, 50.59161
856.6525, 50.91290
857.1346, 50.93949
857.6167, 50.70500
858.0988, 50.17738
858.5809, 49.19993
859.0630, 49.02771
859.5452, 50.22670
860.0273, 51.22328
860.5094, 51.42027
860.9915, 51.31332
861.4736, 51.30334
861.9557, 51.37896
862.4379, 51.41759
862.9200, 51.32718
863.4021, 51.29786
863.8842, 51.36358
864.3663, 51.54408
864.8484, 52.09443
865.3306, 52.73634
865.8127, 52.70383
866.2948, 51.71302
866.7769, 50.79775
867.2590, 51.22679
867.7411, 52.35932
868.2233, 52.84786
868.7054, 52.76471
869.1875, 52.67026
869.6696, 52.72570
870.1517, 52.74097
870.6339, 52.50760
871.1160, 52.11993
871.5981, 52.03782
872.0802, 52.38261
872.5623, 52.58911
873.0444, 52.54443
873.5266, 52.45165
874.0087, 52.36618
874.4908, 52.33118
874.9729, 52.45709
875.4550, 52.79579
875.9371, 52.99661
876.4193, 52.72517
876.9014, 52.64950
877.3835, 53.45520
877.8656, 54.32373
878.3477, 54.17800
878.8298, 53.16952
879.3120, 52.44554
879.7941, 52.66367
880.2762, 53.12373
880.7583, 52.98897
881.2404, 52.70488
881.7225, 53.24958
882.2047, 54.48317
882.6868, 55.42280
883.1689, 55.64393
883.6510, 55.42371
884.1331, 55.00909
884.6152, 54.46849
885.0974, 54.35445
885.5795, 54.70362
886.0616, 55.25524
886.5437, 56.04833
887.0258, 56.78986
887.5079, 57.26872
887.9901, 57.49519
888.4722, 57.48706
888.9543, 56.77146
889.4364, 56.73539
889.9185, 57.77467
890.4006, 59.01555
890.8828, 60.49478
891.3649, 61.76883
891.8470, 62.15936
892.3291, 61.66890
892.8112, 61.34848
893.2933, 61.83788
893.7755, 62.37427
894.2576, 62.45179
894.7397, 62.32175
895.2218, 62.16915
895.7039, 62.11398
896.1860, 62.44039
896.6682, 63.30334
897.1503, 64.24078
897.6324, 64.61470
898.1145, 64.63118
898.5966, 64.93410
899.0787, 65.50592
899.5609, 65.94127
900.0430, 66.08879
900.5251, 66.45897
901.0072, 67.60641
901.4893, 69.33362
901.9714, 70.70105
902.4536, 71.72834
902.9357, 72.24948
903.4178, 71.80051
903.8999, 71.65894
904.3820, 72.77036
904.8641, 74.44814
905.3463, 75.48107
905.8284, 75.77930
906.3105, 76.18750
906.7926, 76.69894
907.2747, 77.41029
907.7568, 78.30688
908.2390, 79.45178
908.7211, 80.95129
909.2032, 82.75183
909.6853, 84.77438
910.1674, 87.08470
910.6495, 89.19950
911.1317, 90.63051
911.6138, 91.83940
912.0959, 93.14875
912.5780, 94.70740
913.0601, 96.80231
913.5422, 99.48777
914.0244, 102.4773
914.5065, 105.5866
914.9886, 108.7426
915.4707, 111.5597
915.9528, 114.2151
916.4349, 118.0820
916.9171, 123.3355
917.3992, 128.7416
917.8813, 133.6587
918.3634, 138.2288
918.8455, 142.5282
919.3276, 146.4552
919.8098, 152.2084
920.2919, 160.4558
920.7740, 168.8533
921.2561, 176.6128
921.7382, 184.6990
922.2203, 193.6829
922.7025, 203.6905
923.1846, 215.0943
923.6667, 227.7562
924.1488, 242.1984
924.6309, 258.4780
925.1130, 276.5477
925.5952, 295.5092
926.0773, 316.8576
926.5594, 342.5954
927.0415, 372.5999
927.5236, 404.7591
928.0057, 437.6615
928.4879, 473.2207
928.9700, 513.6368
929.4521, 556.7088
929.9342, 600.5156
930.4163, 644.7187
930.8984, 689.6099
931.3806, 735.3792
931.8627, 782.3039
932.3448, 829.9855
932.8269, 879.4963
933.3090, 931.4569
933.7911, 987.1262
934.2733, 1050.964
934.7554, 1123.848
935.2375, 1203.820
935.7196, 1289.015
936.2017, 1382.678
936.6838, 1489.562
937.1660, 1609.780
937.6481, 1744.557
938.1302, 1894.451
938.6123, 2057.848
939.0944, 2238.914
939.5765, 2425.434
940.0587, 2611.273
940.5408, 2793.174
941.0229, 2939.149
941.5050, 3066.883
941.9871, 3126.355
942.4692, 3114.747
942.9514, 3034.247
943.4335, 2862.245
943.9156, 2634.485
944.3977, 2384.871
944.8798, 2117.155
945.3619, 1861.054
945.8441, 1612.833
946.3262, 1391.537
946.8083, 1206.624
947.2904, 1049.427
947.7725, 913.6140
948.2546, 797.2960
948.7368, 700.4621
949.2189, 622.7959
949.7010, 557.0294
950.1831, 499.1357
950.6652, 449.1452
951.1473, 408.5970
951.6295, 375.0110
952.1116, 345.0543
952.5937, 317.7723
953.0758, 293.2355
953.5579, 271.3556
954.0400, 252.0661
954.5222, 235.6925
955.0043, 221.7179
955.4864, 208.4411
955.9685, 195.9650
956.4506, 185.1629
956.9327, 176.2977
957.4149, 168.2368
957.8970, 159.9016
958.3791, 151.6392
958.8612, 144.3493
959.3433, 138.0782
959.8254, 132.4913
960.3076, 127.5887
960.7897, 123.2980
961.2718, 119.6803
961.7539, 116.5372
962.2360, 113.7782
962.7181, 111.3520
963.2003, 108.2446
963.6824, 103.8827
964.1645, 100.0284
964.6466, 97.13779
965.1287, 94.42334
965.6108, 91.27068
966.0930, 88.14050
966.5751, 85.78703
967.0572, 84.29259
967.5393, 82.85288
968.0214, 81.49108
968.5035, 80.04079
968.9857, 78.37268
969.4678, 76.67197
969.9499, 75.00244
970.4320, 73.41957
970.9141, 72.06113
971.3962, 71.01817
971.8784, 69.73170
972.3605, 67.69466
972.8426, 65.61425
973.3247, 63.69372
973.8068, 62.20137
974.2889, 61.70518
974.7711, 61.96305
975.2532, 62.00590
975.7353, 61.39698
976.2174, 60.40536
976.6995, 59.05646
977.1816, 57.62354
977.6638, 56.37975
978.1459, 55.39640
978.6280, 54.88163
979.1101, 54.82056
979.5922, 54.93119
980.0743, 55.07393
980.5565, 55.01379
981.0386, 54.09514
981.5207, 52.66744
982.0028, 52.09474
982.4849, 52.35950
982.9670, 52.60061
983.4492, 52.52851
983.9313, 52.30944
984.4134, 52.11121
984.8955, 51.86653
985.3776, 51.24728
985.8597, 50.22837
986.3419, 49.70397
986.8240, 49.80172
987.3061, 50.05221
987.7882, 50.32990
988.2703, 50.43039
988.7524, 50.02643
989.2346, 49.20189
989.7167, 48.88690
990.1988, 49.24409
990.6809, 49.64271
991.1630, 50.16890
991.6451, 50.43420
992.1273, 49.99931
992.6094, 49.41463
993.0915, 49.62089
993.5736, 50.68988
994.0557, 51.18953
994.5378, 50.30036
995.0200, 50.04834
995.5021, 51.31611
995.9842, 52.52836
996.4663, 52.71751
996.9484, 52.35194
997.4305, 52.21727
997.9127, 52.39017
998.3948, 52.53699
998.8769, 51.90921
999.3590, 52.17813
999.8411, 54.96196
1000.323, 57.82033
1000.805, 58.45647
1001.287, 57.81766
1001.770, 58.08172
1002.252, 59.75268
1002.734, 61.55481
1003.216, 63.08306
1003.698, 64.43882
1004.180, 65.21011
1004.662, 66.18201
1005.144, 68.22181
1005.627, 71.22256
1006.109, 74.61007
1006.591, 78.18453
1007.073, 82.17850
1007.555, 86.32925
1008.037, 91.35174
1008.519, 98.46121
1009.001, 106.6234
1009.483, 114.2472
1009.966, 121.1903
1010.448, 127.9694
1010.930, 134.7596
1011.412, 141.7216
1011.894, 148.6672
1012.376, 156.0449
1012.858, 164.4213
1013.340, 173.9235
1013.823, 185.0030
1014.305, 197.6062
1014.787, 210.8842
1015.269, 224.1857
1015.751, 239.3725
1016.233, 258.8853
1016.715, 282.1994
1017.197, 308.0369
1017.679, 336.2235
1018.162, 366.6604
1018.644, 399.3237
1019.126, 436.0555
1019.608, 478.4440
1020.090, 521.3971
1020.572, 558.7748
1021.054, 589.3206
1021.536, 606.5225
1022.018, 610.1702
1022.501, 596.8121
1022.983, 565.2119
1023.465, 520.1402
1023.947, 463.5475
1024.429, 401.2422
1024.911, 344.0379
1025.393, 291.8034
1025.875, 247.5369
1026.358, 211.3802
1026.840, 182.5978
1027.322, 161.7052
1027.804, 145.0444
1028.286, 129.9327
1028.768, 116.7999
1029.250, 106.8080
1029.732, 100.1831
1030.214, 95.49790
1030.697, 93.27195
1031.179, 91.21530
1031.661, 88.65366
1032.143, 86.25264
1032.625, 84.49708
1033.107, 83.30840
1033.589, 82.49638
1034.071, 82.11805
1034.553, 81.84799
1035.036, 81.59433
1035.518, 81.61333
1036.000, 81.71900
1036.482, 82.48876
1036.964, 84.46085
1037.446, 87.42197
1037.928, 90.72143
1038.410, 94.40675
1038.893, 98.23956
1039.375, 101.1258
1039.857, 105.9070
1040.339, 113.5452
1040.821, 123.0116
1041.303, 133.8758
1041.785, 145.9220
1042.267, 158.6345
1042.750, 172.9946
1043.232, 184.7041
1043.714, 196.2082
1044.196, 201.6170
1044.678, 198.5070
1045.160, 189.8188
1045.642, 175.3057
1046.124, 157.3534
1046.606, 140.9301
1047.089, 125.9361
1047.571, 114.3722
1048.053, 107.7564
1048.535, 102.9195
1049.017, 100.4977
1049.499, 98.13004
1049.981, 93.96407
1050.463, 88.53991
1050.945, 83.13992
1051.428, 77.87487
1051.910, 72.84820
1052.392, 67.85099
1052.874, 63.43263
1053.356, 59.90173
1053.838, 56.86356
1054.320, 54.00397
1054.802, 51.42587
1055.285, 49.28611
1055.767, 47.59076
1056.249, 46.69078
1056.731, 47.31676
1057.213, 47.91346
1057.695, 47.78645
1058.177, 47.53649
1058.659, 47.78007
1059.141, 48.19606
1059.624, 48.14766
1060.106, 47.52562
1060.588, 46.64251
1061.070, 45.56242
1061.552, 44.28426
1062.034, 42.47597
1062.516, 40.79159
1062.998, 39.95574
1063.480, 39.52179
1063.963, 38.56623
1064.445, 36.99025
1064.927, 35.83434
1065.409, 35.87389
1065.891, 35.86986
1066.373, 35.13866
1066.855, 34.35170
1067.337, 34.08145
1067.820, 34.08245
1068.302, 33.89771
1068.784, 33.48537
1069.266, 33.17492
1069.748, 33.10059
1070.230, 33.13345
1070.712, 33.46767
1071.194, 33.63329
1071.677, 33.01574
1072.159, 32.14922
1072.641, 31.82578
1073.123, 32.08411
1073.605, 32.44967
1074.087, 32.84572
1074.569, 33.09354
1075.051, 33.10810
1075.533, 32.94583
1076.016, 32.38667
1076.498, 31.84203
1076.980, 32.08134
1077.462, 32.88322
1077.944, 33.05674
1078.426, 32.07001
1078.908, 30.90363
1079.390, 29.52079
1079.873, 28.65588
1080.355, 29.31335
1080.837, 30.39562
1081.319, 30.49779
1081.801, 29.84156
1082.283, 29.63265
1082.765, 30.32179
1083.247, 30.80914
1083.729, 30.27488
1084.212, 29.77954
1084.694, 30.18801
1085.176, 30.74259
1085.658, 30.57955
1086.140, 29.90913
1086.622, 29.37686
1087.104, 29.13445
1087.586, 29.05780
1088.068, 29.39734
1088.551, 29.50353
1089.033, 28.68252
1089.515, 27.82682
1089.997, 27.80481
1090.479, 28.30745
1090.961, 28.67552
1091.443, 28.78956
1091.925, 28.87561
1092.408, 29.09935
1092.890, 29.20020
1093.372, 28.89732
1093.854, 28.61557
1094.336, 28.71216
1094.818, 29.00455
1095.300, 29.26160
1095.782, 29.42599
1096.265, 29.38197
1096.747, 28.88687
1097.229, 28.58904
1097.711, 28.91448
1098.193, 29.26075
1098.675, 29.38098
1099.157, 29.25245
1099.639, 28.71120
1100.121, 27.90205
1100.604, 27.40031
1101.086, 27.38654
1101.568, 27.49075
1102.050, 27.76846
1102.532, 27.95499
1103.014, 27.54151
1103.496, 27.32403
1103.978, 28.48253
1104.460, 30.34159
1104.943, 31.00953
1105.425, 30.00401
1105.907, 29.12808
1106.389, 28.76671
1106.871, 28.48919
1107.353, 28.15762
1107.835, 27.88207
1108.317, 27.74673
1108.800, 27.71829
1109.282, 27.71252
1109.764, 27.71837
1110.246, 27.92254
1110.728, 28.84545
1111.210, 29.21003
1111.692, 28.27857
1112.174, 27.41044
1112.656, 27.27277
1113.139, 27.54087
1113.621, 27.95343
1114.103, 28.46035
1114.585, 28.60423
1115.067, 28.13428
1115.549, 27.74573
1116.031, 27.33295
1116.513, 27.15726
1116.995, 27.39212
1117.478, 27.80203
1117.960, 28.27598
1118.442, 28.74032
1118.924, 28.94031
1119.406, 28.76178
1119.888, 28.77774
1120.370, 29.09122
1120.852, 29.38873
1121.335, 29.62275
1121.817, 29.78520
1122.299, 29.81563
1122.781, 29.83613
1123.263, 30.12125
1123.745, 30.68276
1124.227, 30.83527
1124.709, 30.47055
1125.192, 30.04145
1125.674, 29.49355
1126.156, 29.25734
1126.638, 29.63140
1127.120, 30.15538
1127.602, 30.27304
1128.084, 30.07602
1128.566, 29.99669
1129.048, 30.03358
1129.531, 30.23752
1130.013, 30.64383
1130.495, 30.96051
1130.977, 31.07828
1131.459, 31.23803
1131.941, 31.69203
1132.423, 32.13354
1132.905, 31.75335
1133.387, 31.59486
1133.870, 30.11988
1134.352, 30.18755
1134.834, 29.62839
1135.316, 28.23381
1135.798, 27.72229
1136.280, 29.07895
1136.762, 30.97792
1137.244, 31.75170
1137.727, 31.69675
1138.209, 31.70495
1138.691, 31.69466
1139.173, 31.13076
1139.655, 30.11576
1140.137, 29.63760
1140.619, 29.99267
1141.101, 30.36654
1141.583, 30.09101
1142.066, 29.88545
1142.548, 29.02236
1143.030, 28.57184
1143.512, 27.43397
1143.994, 26.10824
1144.476, 26.37736
1144.958, 28.11491
1145.440, 28.93503
1145.922, 27.57120
1146.405, 26.01197
1146.887, 26.27786
1147.369, 27.18098
1147.851, 27.57645
1148.333, 27.58572
1148.815, 27.22408
1149.297, 26.70922
1149.779, 26.46042
1150.262, 26.59827
1150.744, 27.02533
1151.226, 28.03177
1151.708, 28.73437
1152.190, 28.37568
1152.672, 27.65932
1153.154, 27.04877
1153.636, 26.55087
1154.119, 26.03161
1154.601, 25.55086
1155.083, 25.38857
1155.565, 25.60352
1156.047, 26.20443
1156.529, 27.96856
1157.011, 29.12465
1157.493, 28.49215
1157.975, 27.30705
1158.458, 26.38469
1158.940, 25.78212
1159.422, 25.41595
1159.904, 25.26184
1160.386, 25.64238
1160.868, 27.46166
1161.350, 28.45972
1161.832, 27.61338
1162.314, 26.94552
1162.797, 27.79551
1163.279, 28.69254
1163.761, 27.73087
1164.243, 25.48899
1164.725, 24.78781
1165.207, 26.23319
1165.689, 27.07238
1166.171, 27.10676
1166.654, 27.12440
1167.136, 27.31051
1167.618, 27.51117
1168.100, 27.60974
1168.582, 27.71095
1169.064, 28.05735
1169.546, 27.83042
1170.028, 28.41621
1170.510, 27.56530
1170.993, 27.09808
1171.475, 27.13062
1171.957, 27.45243
1172.439, 28.00110
1172.921, 28.30683
1173.403, 27.88706
1173.885, 27.17231
1174.367, 27.04248
1174.849, 27.33214
1175.332, 27.54058
1175.814, 27.64694
1176.296, 27.55313
1176.778, 27.32152
1177.260, 27.39938
1177.742, 27.99923
1178.224, 28.62625
1178.706, 28.80514
1179.189, 28.75363
1179.671, 28.72427
1180.153, 28.66768
1180.635, 28.50675
1181.117, 28.25792
1181.599, 27.86043
1182.081, 27.39440
1182.563, 27.31119
1183.046, 27.92295
1183.528, 28.61345
1184.010, 29.07885
1184.492, 29.42992
1184.974, 29.92827
1185.456, 30.19698
1185.938, 29.58764
1186.420, 28.49303
1186.902, 27.86367
1187.385, 27.86635
1187.867, 28.06132
1188.349, 28.37916
1188.831, 28.85913
1189.313, 30.06098
1189.795, 30.76947
1190.277, 29.86360
1190.759, 28.62671
1191.241, 28.38890
1191.724, 28.89610
1192.206, 29.14626
1192.688, 29.07533
1193.170, 28.97477
1193.652, 28.67619
1194.134, 28.97297
1194.616, 30.29224
1195.098, 31.30848
1195.581, 31.24648
1196.063, 30.56810
1196.545, 29.79929
1197.027, 29.06888
1197.509, 29.00309
1197.991, 29.56087
1198.473, 30.18934
1198.955, 30.81717
1199.438, 30.96835
1199.920, 30.54470
1200.402, 30.12292
1200.884, 30.10556
1201.366, 30.06852
1201.848, 29.10316
1202.330, 29.38906
1202.812, 28.28461
1203.294, 29.42176
1203.776, 30.19798
1204.259, 30.45163
1204.741, 30.02744
1205.223, 29.03901
1205.705, 28.55505
1206.187, 29.38959
1206.669, 30.34487
1207.151, 30.72113
1207.633, 30.75043
1208.116, 30.26993
1208.598, 29.81281
1209.080, 30.10414
1209.562, 30.90410
1210.044, 31.45667
1210.526, 31.61199
1211.008, 31.76947
1211.490, 32.25893
1211.973, 32.37490
1212.455, 31.64950
1212.937, 30.94071
1213.419, 30.52351
1213.901, 30.40002
1214.383, 30.73979
1214.865, 31.31204
1215.347, 31.27340
1215.829, 30.47563
1216.312, 30.13120
1216.794, 30.36434
1217.276, 30.38644
1217.758, 29.99762
1218.240, 29.88741
1218.722, 30.45781
1219.204, 30.95588
1219.686, 30.46381
1220.168, 29.44802
1220.651, 29.02151
1221.133, 29.12095
1221.615, 29.73813
1222.097, 30.64164
1222.579, 30.85233
1223.061, 30.31560
1223.543, 29.85145
1224.025, 29.84936
1224.508, 30.00537
1224.990, 30.04104
1225.472, 30.12146
1225.954, 30.53591
1226.436, 30.97890
1226.918, 31.01342
1227.400, 30.86496
1227.882, 31.04590
1228.365, 31.48687
1228.847, 31.52355
1229.329, 30.83570
1229.811, 30.31985
1230.293, 30.24589
1230.775, 30.34893
1231.257, 30.88957
1231.739, 31.20235
1232.221, 30.75011
1232.703, 29.89292
1233.186, 28.81056
1233.668, 27.69913
1234.150, 28.04575
1234.632, 30.54827
1235.114, 31.61537
1235.596, 30.85649
1236.078, 30.43593
1236.560, 30.89904
1237.043, 31.44753
1237.525, 31.65794
1238.007, 31.44177
1238.489, 30.52715
1238.971, 30.60575
1239.453, 29.26552
1239.935, 29.88350
1240.417, 29.80867
1240.900, 29.13806
1241.382, 28.40690
1241.864, 27.83455
1242.346, 27.82816
1242.828, 28.60682
1243.310, 29.40575
1243.792, 29.49046
1244.274, 29.50070
1244.756, 30.14165
1245.239, 30.77448
1245.721, 30.65883
1246.203, 30.18094
1246.685, 29.96598
1247.167, 30.04092
1247.649, 30.08176
1248.131, 29.92080
1248.613, 30.10065
1249.095, 31.50763
1249.578, 31.96076
1250.060, 30.40832
1250.542, 28.90949
1251.024, 28.45446
1251.506, 28.64711
1251.988, 29.13157
1252.470, 29.76621
1252.952, 29.93292
1253.435, 29.61465
1253.917, 29.63574
1254.399, 29.99042
1254.881, 30.07798
1255.363, 29.82022
1255.845, 29.84613
1256.327, 30.43337
1256.809, 30.85711
1257.292, 30.32140
1257.774, 29.51696
1258.256, 29.35809
1258.738, 29.55892
1259.220, 29.79284
1259.702, 30.03519
1260.184, 30.38989
1260.666, 30.74750
1261.148, 30.72341
1261.630, 30.20969
1262.113, 29.82451
1262.595, 29.92156
1263.077, 29.98577
1263.559, 29.90381
1264.041, 29.71655
1264.523, 29.10199
1265.005, 28.74196
1265.487, 29.61696
1265.970, 30.91975
1266.452, 30.61426
1266.934, 28.65748
1267.416, 28.09543
1267.898, 29.17792
1268.380, 29.74189
1268.862, 29.56609
1269.344, 28.97835
1269.827, 28.07374
1270.309, 27.97027
1270.791, 29.58043
1271.273, 31.49181
1271.755, 31.54217
1272.237, 30.64856
1272.719, 30.28303
1273.201, 30.33671
1273.683, 30.94658
1274.166, 31.68781
1274.648, 31.51236
1275.130, 30.43067
1275.612, 29.66008
1276.094, 29.76359
1276.576, 29.71170
1277.058, 28.68268
1277.540, 27.99760
1278.022, 28.53005
1278.505, 29.17157
1278.987, 29.02642
1279.469, 28.73734
1279.951, 29.22521
1280.433, 30.16349
1280.915, 30.04141
1281.397, 30.40639
1281.879, 30.83843
1282.362, 30.35301
1282.844, 31.29685
1283.326, 31.01637
1283.808, 30.76687
1284.290, 31.07100
1284.772, 31.23237
1285.254, 30.68236
1285.736, 29.42101
##END=



