##NAMES=Lotharmeyerite
##RRUFFID=R060862
##IDEAL CHEMISTRY=CaZn^2+^_2_(As^5+^O_4_)_2_&#183;2H_2_O
##LOCALITY=Mapimi, Durango, Mexico
##OWNER=RRUFF
##SOURCE=Michael Scott
##DESCRIPTION=Dark reddish brown bladed crystals, crystal structure is reported by Yang et al (2012)
##STATUS=The identification of this mineral is confirmed by single-crystal X-ray diffraction and chemical analysis.
##URL=rruff.info/R060862
##MEASURED CHEMISTRY=Ca_0.99_(Zn_1.01_Mn^+3^_0.85_)_Σ=1.86_(As_1.03_O_4_)_2_·[(OH)_0.85_ (H_2_O)_1.17_] ; (Total low,  mineral unstable under electron beam, blades are lotharmeyerite, botryoidal material is Mn oxide?)
91.60352, 699.1767
92.08563, 686.7881
92.56775, 685.3041
93.04987, 700.6061
93.53198, 719.1075
94.01410, 728.9424
94.49622, 730.1645
94.97833, 725.8578
95.46045, 718.3414
95.94257, 707.5413
96.42468, 697.9024
96.90680, 690.3213
97.38892, 683.5558
97.87103, 677.7855
98.35315, 671.8619
98.83527, 664.5111
99.31738, 656.1982
99.79950, 646.6051
100.2816, 637.9229
100.7637, 629.4517
101.2458, 621.8139
101.7280, 615.6790
102.2101, 611.1237
102.6922, 607.7642
103.1743, 605.1374
103.6564, 603.0380
104.1385, 601.5516
104.6207, 600.9896
105.1028, 601.0888
105.5849, 601.0886
106.0670, 601.1103
106.5491, 600.2337
107.0313, 597.4556
107.5134, 592.4711
107.9955, 586.9258
108.4776, 582.2469
108.9597, 578.3428
109.4418, 575.6321
109.9240, 575.1750
110.4061, 575.3777
110.8882, 575.0078
111.3703, 573.5502
111.8524, 571.5450
112.3345, 570.4494
112.8167, 570.7958
113.2988, 571.4781
113.7809, 572.6289
114.2630, 573.9161
114.7451, 574.8549
115.2272, 575.0776
115.7094, 574.6657
116.1915, 575.2222
116.6736, 577.7838
117.1557, 580.1265
117.6378, 581.3140
118.1199, 581.5417
118.6021, 581.6158
119.0842, 582.1179
119.5663, 583.1181
120.0484, 584.6262
120.5305, 586.6409
121.0126, 589.1346
121.4948, 592.2642
121.9769, 596.1115
122.4590, 600.0264
122.9411, 603.4640
123.4232, 606.4732
123.9053, 608.8822
124.3875, 610.0984
124.8696, 610.6238
125.3517, 611.8747
125.8338, 614.2991
126.3159, 617.1443
126.7980, 619.6556
127.2802, 621.9651
127.7623, 624.6589
128.2444, 628.2964
128.7265, 632.9318
129.2086, 637.7833
129.6907, 642.8137
130.1729, 648.0676
130.6550, 653.5928
131.1371, 659.3857
131.6192, 665.3808
132.1013, 671.5236
132.5834, 678.1523
133.0656, 684.3459
133.5477, 689.2869
134.0298, 694.3226
134.5119, 700.4875
134.9940, 708.1102
135.4761, 716.8416
135.9583, 725.8486
136.4404, 735.2171
136.9225, 744.7401
137.4046, 754.4825
137.8867, 764.3982
138.3688, 774.4682
138.8510, 784.8735
139.3331, 795.1625
139.8152, 803.7347
140.2973, 810.1239
140.7794, 815.9890
141.2615, 822.3331
141.7437, 828.8567
142.2258, 834.3140
142.7079, 837.8337
143.1900, 839.7795
143.6721, 841.4205
144.1542, 843.1875
144.6364, 844.1843
145.1185, 843.4669
145.6006, 840.9141
146.0827, 837.3725
146.5648, 833.3840
147.0469, 828.5790
147.5291, 822.2758
148.0112, 813.9554
148.4933, 804.2972
148.9754, 794.7947
149.4575, 785.4511
149.9396, 776.1837
150.4218, 766.6352
150.9039, 757.1475
151.3860, 748.3041
151.8681, 740.5336
152.3502, 733.6239
152.8323, 726.1780
153.3145, 717.0448
153.7966, 708.4637
154.2787, 700.7734
154.7608, 693.9492
155.2429, 687.8350
155.7250, 682.3350
156.2072, 677.5101
156.6893, 672.5486
157.1714, 667.7210
157.6535, 662.5248
158.1356, 656.6934
158.6177, 650.2543
159.0999, 643.3519
159.5820, 636.0602
160.0641, 628.2594
160.5462, 620.7286
161.0283, 613.6069
161.5104, 606.6826
161.9926, 600.0530
162.4747, 593.7269
162.9568, 586.9843
163.4389, 578.7360
163.9210, 569.0709
164.4031, 560.3079
164.8853, 553.2767
165.3674, 547.2509
165.8495, 541.2821
166.3316, 535.1345
166.8137, 529.2621
167.2958, 524.2969
167.7780, 520.0131
168.2601, 515.6172
168.7422, 510.6218
169.2243, 505.1778
169.7064, 499.9247
170.1885, 494.6998
170.6707, 490.0605
171.1528, 486.3668
171.6349, 483.5042
172.1170, 480.9517
172.5991, 478.2748
173.0812, 475.4520
173.5634, 472.9721
174.0455, 471.1121
174.5276, 469.4144
175.0097, 467.7404
175.4918, 466.0663
175.9739, 464.4161
176.4561, 462.7982
176.9382, 461.1390
177.4203, 459.7339
177.9024, 458.5324
178.3845, 457.5845
178.8666, 457.0585
179.3488, 456.9059
179.8309, 456.8393
180.3130, 456.4675
180.7951, 455.6256
181.2772, 454.8241
181.7593, 454.1134
182.2415, 453.4090
182.7236, 452.6119
183.2057, 451.7128
183.6878, 450.8316
184.1699, 450.1404
184.6520, 449.6377
185.1342, 449.4116
185.6163, 449.8372
186.0984, 450.3897
186.5805, 450.5034
187.0626, 450.0058
187.5447, 449.1183
188.0269, 448.0636
188.5090, 446.6636
188.9911, 445.7673
189.4732, 445.6960
189.9553, 446.2324
190.4374, 447.1664
190.9196, 448.6622
191.4017, 450.0424
191.8838, 450.3443
192.3659, 449.6060
192.8480, 448.3513
193.3301, 446.1292
193.8123, 443.4106
194.2944, 442.0904
194.7765, 443.4026
195.2586, 445.3867
195.7407, 445.9095
196.2228, 444.9495
196.7050, 443.6995
197.1871, 442.9982
197.6692, 442.8209
198.1513, 442.5954
198.6334, 442.2640
199.1155, 441.7980
199.5977, 441.1624
200.0798, 440.3618
200.5619, 439.4840
201.0440, 438.6054
201.5261, 437.7261
202.0082, 436.8256
202.4904, 435.5317
202.9725, 434.4909
203.4546, 434.1833
203.9367, 434.6011
204.4188, 435.2412
204.9009, 435.5089
205.3831, 435.3349
205.8652, 434.9748
206.3473, 434.3529
206.8294, 433.6327
207.3115, 432.7311
207.7936, 431.7232
208.2758, 430.9369
208.7579, 430.8799
209.2400, 431.9292
209.7221, 432.9308
210.2042, 434.0154
210.6863, 434.9717
211.1685, 435.7204
211.6506, 436.2198
212.1327, 436.3938
212.6148, 436.0834
213.0969, 434.8432
213.5790, 434.0714
214.0612, 434.1479
214.5433, 434.4214
215.0254, 434.2742
215.5075, 433.5924
215.9896, 432.8611
216.4718, 432.8127
216.9539, 433.9196
217.4360, 434.5907
217.9181, 434.5805
218.4002, 434.2341
218.8823, 433.8961
219.3645, 433.6510
219.8466, 433.3280
220.3287, 432.5843
220.8108, 431.2604
221.2929, 430.4203
221.7750, 430.8208
222.2572, 431.5479
222.7393, 431.3438
223.2214, 429.8624
223.7035, 427.9782
224.1856, 426.8851
224.6677, 426.5226
225.1499, 425.8169
225.6320, 423.9394
226.1141, 421.6844
226.5962, 420.6293
227.0783, 421.4294
227.5604, 422.2407
228.0426, 420.9703
228.5247, 418.0701
229.0068, 415.0592
229.4889, 412.2632
229.9710, 409.8009
230.4531, 407.9843
230.9353, 407.0055
231.4174, 406.3792
231.8995, 406.0716
232.3816, 405.8676
232.8637, 405.1043
233.3458, 403.0346
233.8280, 400.1159
234.3101, 397.7879
234.7922, 396.1852
235.2743, 395.0963
235.7564, 394.5845
236.2385, 394.4201
236.7207, 394.1090
237.2028, 393.1025
237.6849, 391.7113
238.1670, 391.3966
238.6491, 393.1462
239.1312, 394.5015
239.6134, 394.5400
240.0955, 393.5634
240.5776, 391.9931
241.0597, 389.8105
241.5418, 387.2998
242.0239, 385.9404
242.5061, 386.5175
242.9882, 387.2559
243.4703, 387.9398
243.9524, 388.3720
244.4345, 388.2190
244.9166, 387.1910
245.3988, 385.5439
245.8809, 384.5483
246.3630, 385.0445
246.8451, 385.1142
247.3272, 384.2067
247.8093, 382.7164
248.2915, 381.0970
248.7736, 379.5695
249.2557, 378.1816
249.7378, 377.1429
250.2199, 376.6125
250.7020, 376.2800
251.1842, 376.4667
251.6663, 376.7086
252.1484, 376.4062
252.6305, 375.2606
253.1126, 373.5531
253.5947, 372.1310
254.0769, 370.9458
254.5590, 370.1929
255.0411, 370.2921
255.5232, 370.6646
256.0053, 370.6817
256.4874, 370.0781
256.9695, 369.0313
257.4517, 367.9708
257.9338, 366.8390
258.4159, 365.7588
258.8980, 364.6827
259.3801, 363.6749
259.8622, 362.7813
260.3444, 362.0191
260.8265, 361.3984
261.3086, 360.9550
261.7907, 360.9998
262.2728, 360.7005
262.7549, 359.7612
263.2371, 358.6077
263.7192, 357.7241
264.2013, 357.2281
264.6834, 356.7893
265.1655, 355.8830
265.6476, 354.1765
266.1298, 352.8202
266.6119, 351.8535
267.0940, 351.2313
267.5761, 351.0685
268.0582, 351.3600
268.5403, 351.6924
269.0225, 351.5900
269.5046, 350.9554
269.9867, 350.2000
270.4688, 349.0311
270.9509, 347.9362
271.4330, 347.4789
271.9152, 347.6909
272.3973, 347.9199
272.8794, 347.4637
273.3615, 346.2627
273.8436, 345.5485
274.3257, 345.8947
274.8079, 346.3382
275.2900, 346.1197
275.7721, 345.2113
276.2542, 343.9875
276.7363, 342.5434
277.2184, 340.9981
277.7006, 340.0077
278.1827, 339.9725
278.6648, 340.1827
279.1469, 340.0453
279.6290, 339.6264
280.1111, 339.5551
280.5933, 340.3920
281.0754, 341.8144
281.5575, 342.6502
282.0396, 342.4557
282.5217, 342.2223
283.0038, 342.5938
283.4860, 343.4785
283.9681, 344.4577
284.4502, 345.5458
284.9323, 346.4143
285.4144, 346.3439
285.8965, 344.8086
286.3787, 343.6388
286.8608, 344.1083
287.3429, 345.8339
287.8250, 347.4398
288.3071, 348.4715
288.7892, 349.1992
289.2714, 350.0842
289.7535, 351.1753
290.2356, 352.0435
290.7177, 352.0821
291.1998, 351.7300
291.6819, 352.1712
292.1641, 353.7409
292.6462, 356.0484
293.1283, 358.9738
293.6104, 362.4176
294.0925, 365.4511
294.5746, 367.2639
295.0568, 368.4815
295.5389, 370.4047
296.0210, 373.3205
296.5031, 376.5269
296.9852, 379.4942
297.4673, 382.2879
297.9495, 385.0911
298.4316, 387.9883
298.9137, 390.9076
299.3958, 393.6769
299.8779, 396.2388
300.3600, 398.9246
300.8422, 402.1544
301.3243, 405.6282
301.8064, 408.7434
302.2885, 411.0620
302.7706, 413.3070
303.2527, 416.3631
303.7349, 420.2867
304.2170, 424.4016
304.6991, 428.4856
305.1812, 432.5409
305.6633, 436.5721
306.1454, 440.5857
306.6276, 444.5315
307.1097, 448.3834
307.5918, 452.1329
308.0739, 455.7072
308.5560, 458.6812
309.0381, 461.8160
309.5203, 466.1271
310.0024, 471.7902
310.4845, 477.2293
310.9666, 481.1030
311.4487, 483.7376
311.9308, 486.7102
312.4130, 490.3601
312.8951, 494.3595
313.3772, 498.6774
313.8593, 503.2033
314.3414, 506.9779
314.8235, 509.1796
315.3057, 510.2984
315.7878, 511.5897
316.2699, 513.1434
316.7520, 514.8830
317.2341, 516.8034
317.7162, 518.8506
318.1984, 520.9437
318.6805, 523.1771
319.1626, 525.3777
319.6447, 527.1599
320.1268, 528.4097
320.6089, 529.8214
321.0911, 531.8921
321.5732, 534.3649
322.0553, 536.9689
322.5374, 539.8607
323.0195, 542.5478
323.5016, 544.2664
323.9838, 545.0162
324.4659, 546.0810
324.9480, 547.8699
325.4301, 550.3260
325.9122, 553.3331
326.3943, 556.9651
326.8765, 560.8638
327.3586, 564.6754
327.8407, 568.5020
328.3228, 572.8590
328.8049, 577.9990
329.2870, 583.5422
329.7692, 589.1059
330.2513, 594.6735
330.7334, 600.2262
331.2155, 605.4651
331.6976, 610.6874
332.1797, 616.7714
332.6619, 624.1237
333.1440, 631.4446
333.6261, 637.4586
334.1082, 642.5980
334.5903, 647.8896
335.0724, 653.5413
335.5546, 659.5081
336.0367, 665.9766
336.5188, 673.0110
337.0009, 679.5626
337.4830, 684.6832
337.9651, 689.0114
338.4473, 693.7715
338.9294, 699.4255
339.4115, 705.0075
339.8936, 709.7401
340.3758, 713.6960
340.8579, 717.1794
341.3400, 720.0022
341.8221, 722.7441
342.3042, 726.4286
342.7863, 731.2938
343.2685, 735.8126
343.7506, 739.1810
344.2327, 741.6563
344.7148, 743.7947
345.1969, 745.6481
345.6790, 747.3577
346.1612, 749.3486
346.6433, 751.5364
347.1254, 752.8141
347.6075, 752.5281
348.0896, 751.3528
348.5717, 750.0422
349.0539, 748.6532
349.5360, 747.1735
350.0181, 745.9203
350.5002, 744.5351
350.9823, 741.7224
351.4644, 736.2385
351.9466, 730.3268
352.4287, 725.4998
352.9108, 721.5799
353.3929, 717.7767
353.8750, 714.1121
354.3571, 709.9176
354.8393, 703.5018
355.3214, 694.2976
355.8035, 684.6219
356.2856, 675.3054
356.7677, 666.0988
357.2498, 656.5883
357.7320, 646.6488
358.2141, 636.3563
358.6962, 625.5743
359.1783, 614.2097
359.6604, 602.9567
360.1425, 591.9203
360.6247, 580.9533
361.1068, 569.7303
361.5889, 558.2203
362.0710, 547.4259
362.5531, 538.4131
363.0352, 531.1072
363.5174, 522.6533
363.9995, 512.0383
364.4816, 501.3538
364.9637, 491.4102
365.4458, 482.2032
365.9279, 473.5869
366.4101, 465.4923
366.8922, 457.9384
367.3743, 451.1849
367.8564, 446.4332
368.3385, 440.7210
368.8206, 432.4087
369.3028, 423.4669
369.7849, 416.4816
370.2670, 412.1329
370.7491, 408.6996
371.2312, 403.7102
371.7133, 396.2018
372.1955, 390.2303
372.6776, 386.8702
373.1597, 384.0380
373.6418, 380.6433
374.1239, 376.5818
374.6060, 372.0913
375.0882, 367.2473
375.5703, 362.0894
376.0524, 357.3355
376.5345, 352.5047
377.0166, 348.5775
377.4987, 346.2833
377.9809, 344.8947
378.4630, 343.4852
378.9451, 341.6320
379.4272, 339.3140
379.9093, 336.3827
380.3914, 331.7682
380.8736, 328.3682
381.3557, 327.0293
381.8378, 326.2723
382.3199, 325.0702
382.8020, 323.2416
383.2841, 321.1624
383.7663, 319.1855
384.2484, 317.2548
384.7305, 315.7645
385.2126, 315.3031
385.6947, 314.7188
386.1768, 313.4387
386.6590, 311.7669
387.1411, 310.3412
387.6232, 309.5550
388.1053, 309.2660
388.5874, 308.9789
389.0695, 308.6574
389.5517, 308.4122
390.0338, 308.5270
390.5159, 308.5805
390.9980, 308.0861
391.4801, 306.9165
391.9622, 305.5777
392.4444, 304.6083
392.9265, 304.0068
393.4086, 303.8160
393.8907, 304.3204
394.3728, 305.0077
394.8549, 305.6093
395.3371, 306.1339
395.8192, 306.6724
396.3013, 307.2760
396.7834, 307.9398
397.2655, 308.5957
397.7477, 309.1444
398.2298, 309.9437
398.7119, 311.3747
399.1940, 313.1093
399.6761, 314.7540
400.1582, 316.2234
400.6404, 317.5477
401.1225, 318.7575
401.6046, 319.8589
402.0867, 320.7785
402.5688, 321.3481
403.0509, 321.8918
403.5331, 322.9305
404.0152, 324.4847
404.4973, 325.6888
404.9794, 325.6589
405.4615, 325.1749
405.9436, 325.7997
406.4258, 327.8366
406.9079, 329.9066
407.3900, 330.6458
407.8721, 330.3904
408.3542, 330.9549
408.8363, 333.2871
409.3185, 335.7313
409.8006, 337.3154
410.2827, 338.1307
410.7648, 338.3883
411.2469, 338.0516
411.7290, 337.4697
412.2112, 337.4845
412.6933, 338.3198
413.1754, 339.0797
413.6575, 339.5066
414.1396, 339.8386
414.6217, 340.3532
415.1039, 341.0849
415.5860, 341.8448
416.0681, 342.4388
416.5502, 342.8435
417.0323, 343.3193
417.5144, 344.0067
417.9966, 344.6062
418.4787, 345.0581
418.9608, 345.3260
419.4429, 345.3187
419.9250, 344.9768
420.4071, 344.4414
420.8893, 344.1313
421.3714, 344.6339
421.8535, 344.4356
422.3356, 342.7466
422.8177, 340.9111
423.2998, 340.1147
423.7820, 340.4049
424.2641, 340.8744
424.7462, 340.5659
425.2283, 339.4180
425.7104, 338.3879
426.1925, 337.7041
426.6747, 336.8866
427.1568, 335.4517
427.6389, 333.8715
428.1210, 332.9525
428.6031, 333.1472
429.0852, 333.9113
429.5674, 334.1364
430.0495, 333.6785
430.5316, 333.2100
431.0137, 332.7528
431.4958, 332.4344
431.9779, 332.4180
432.4601, 332.6869
432.9422, 332.9749
433.4243, 333.1900
433.9064, 333.2806
434.3885, 332.9116
434.8706, 331.7902
435.3528, 330.8564
435.8349, 330.8642
436.3170, 331.4373
436.7991, 331.9839
437.2812, 332.2850
437.7633, 332.6189
438.2455, 333.3192
438.7276, 334.3288
439.2097, 335.1885
439.6918, 335.6062
440.1739, 336.0004
440.6560, 337.1217
441.1382, 339.0296
441.6203, 340.7232
442.1024, 341.9203
442.5845, 342.7603
443.0666, 343.2555
443.5487, 343.4492
444.0309, 343.7460
444.5130, 344.5303
444.9951, 345.7051
445.4772, 346.3760
445.9593, 346.0317
446.4414, 345.8533
446.9236, 346.1479
447.4057, 346.8477
447.8878, 348.1163
448.3699, 349.9783
448.8520, 351.6130
449.3341, 351.6141
449.8163, 348.9007
450.2984, 347.6543
450.7805, 348.8189
451.2626, 350.3435
451.7447, 351.4370
452.2268, 351.9881
452.7090, 352.0142
453.1911, 351.4649
453.6732, 350.5216
454.1553, 349.9851
454.6374, 350.2388
455.1195, 350.2429
455.6017, 349.6976
456.0838, 348.9570
456.5659, 348.2671
457.0480, 347.6885
457.5301, 347.2370
458.0122, 347.0261
458.4944, 347.0451
458.9765, 346.7591
459.4586, 345.9459
459.9407, 345.1318
460.4228, 344.6436
460.9049, 344.3362
461.3871, 343.9304
461.8692, 343.2464
462.3513, 342.5619
462.8334, 342.1723
463.3155, 342.0775
463.7976, 342.3743
464.2798, 343.4814
464.7619, 344.5189
465.2440, 344.1040
465.7261, 342.2021
466.2082, 340.8818
466.6903, 341.3576
467.1725, 342.5048
467.6546, 342.8225
468.1367, 342.2497
468.6188, 341.9129
469.1009, 342.6929
469.5830, 344.2846
470.0652, 345.1520
470.5473, 344.6361
471.0294, 344.3289
471.5115, 344.7973
471.9936, 345.6255
472.4757, 346.2183
472.9579, 346.4465
473.4400, 346.7373
473.9221, 347.6102
474.4042, 349.1428
474.8863, 350.8225
475.3684, 353.1096
475.8506, 355.0563
476.3327, 356.0166
476.8148, 356.4506
477.2969, 357.2283
477.7790, 358.7830
478.2611, 360.6081
478.7433, 361.4058
479.2254, 360.4200
479.7075, 360.5630
480.1896, 362.7482
480.6717, 365.6571
481.1538, 368.9450
481.6360, 372.4022
482.1181, 375.5931
482.6002, 378.1552
483.0823, 380.2523
483.5644, 382.3283
484.0465, 384.3203
484.5287, 386.4845
485.0108, 388.7725
485.4929, 391.3957
485.9750, 394.6772
486.4571, 398.6996
486.9392, 403.0188
487.4214, 407.5539
487.9035, 412.1703
488.3856, 416.3596
488.8677, 419.9798
489.3498, 423.9120
489.8319, 429.0010
490.3141, 435.2079
490.7962, 441.1641
491.2783, 446.6861
491.7604, 452.2079
492.2425, 457.5369
492.7246, 463.1032
493.2068, 469.9623
493.6889, 478.4586
494.1710, 487.5393
494.6531, 495.4080
495.1352, 501.4724
495.6173, 508.1772
496.0995, 515.5371
496.5816, 523.4137
497.0637, 531.9382
497.5458, 540.8870
498.0279, 549.8434
498.5100, 558.5861
498.9922, 567.1762
499.4743, 576.0101
499.9564, 585.3483
500.4385, 594.2107
500.9206, 601.9160
501.4027, 609.5943
501.8849, 618.0995
502.3670, 627.3054
502.8491, 636.1331
503.3312, 643.6926
503.8133, 650.3821
504.2954, 657.3271
504.7776, 664.6432
505.2597, 671.5551
505.7418, 677.6553
506.2239, 683.0950
506.7060, 688.1141
507.1881, 692.6510
507.6703, 697.0248
508.1524, 701.8388
508.6345, 706.4520
509.1166, 709.6902
509.5987, 711.3895
510.0808, 712.2977
510.5630, 712.9092
511.0451, 713.2374
511.5272, 713.5325
512.0093, 714.7755
512.4914, 714.8368
512.9735, 712.0099
513.4556, 708.0888
513.9377, 705.8292
514.4199, 705.8220
514.9020, 705.8134
515.3841, 702.8083
515.8662, 696.2444
516.3483, 690.6171
516.8304, 686.8952
517.3126, 683.1277
517.7947, 679.1826
518.2768, 674.7430
518.7589, 669.2307
519.2410, 662.3708
519.7231, 655.0933
520.2053, 648.6699
520.6874, 643.1581
521.1695, 637.9054
521.6516, 633.2248
522.1337, 628.2623
522.6158, 622.2618
523.0980, 615.5358
523.5801, 608.9597
524.0622, 602.8975
524.5443, 597.0906
525.0264, 591.2772
525.5085, 585.4652
525.9907, 580.0638
526.4728, 575.3148
526.9549, 570.7413
527.4370, 565.6300
527.9191, 559.8756
528.4012, 554.0369
528.8834, 547.8453
529.3655, 541.8622
529.8476, 536.6989
530.3297, 532.0837
530.8118, 527.2560
531.2939, 521.7889
531.7761, 515.9313
532.2582, 510.3019
532.7403, 504.8925
533.2224, 499.7498
533.7045, 495.2647
534.1866, 490.6823
534.6688, 485.3501
535.1509, 479.4749
535.6330, 473.7979
536.1151, 468.8639
536.5972, 464.3723
537.0793, 459.4174
537.5615, 453.9175
538.0436, 448.4117
538.5257, 443.1797
539.0078, 437.9580
539.4899, 432.5789
539.9720, 427.0234
540.4542, 421.2489
540.9363, 415.0011
541.4184, 408.6627
541.9005, 402.7296
542.3826, 397.2227
542.8647, 392.1403
543.3469, 387.5475
543.8290, 383.2737
544.3111, 378.8667
544.7932, 374.3272
545.2753, 369.7178
545.7574, 364.9875
546.2396, 360.1986
546.7217, 355.3265
547.2038, 350.4214
547.6859, 345.7009
548.1680, 341.2831
548.6501, 337.1772
549.1323, 333.4447
549.6144, 330.3515
550.0965, 327.2091
550.5786, 323.6866
551.0607, 320.2716
551.5428, 317.4672
552.0250, 315.1978
552.5071, 312.8633
552.9892, 309.8749
553.4713, 306.5420
553.9534, 303.7168
554.4355, 301.4401
554.9177, 299.5271
555.3998, 298.3045
555.8819, 297.1043
556.3640, 294.9005
556.8461, 291.5265
557.3282, 288.4183
557.8104, 286.0856
558.2925, 284.3215
558.7746, 283.1392
559.2567, 282.4106
559.7388, 281.4099
560.2209, 279.6073
560.7031, 277.3520
561.1852, 275.7549
561.6673, 275.3663
562.1494, 274.8694
562.6315, 274.6196
563.1136, 273.9668
563.5958, 271.8536
564.0779, 268.7702
564.5600, 266.5404
565.0421, 266.5840
565.5242, 268.1780
566.0063, 268.8409
566.4885, 268.1680
566.9706, 267.7393
567.4527, 268.5716
567.9348, 269.2726
568.4169, 268.6368
568.8990, 266.8029
569.3812, 265.1151
569.8633, 264.1574
570.3454, 263.8278
570.8275, 264.3531
571.3096, 265.6342
571.7917, 266.2348
572.2739, 265.3586
572.7560, 263.7938
573.2381, 262.9120
573.7202, 262.7831
574.2023, 262.9817
574.6844, 264.0490
575.1666, 264.9317
575.6487, 264.5826
576.1308, 263.4391
576.6129, 262.7674
577.0950, 263.2448
577.5771, 264.3330
578.0593, 264.8741
578.5414, 264.7915
579.0235, 264.3621
579.5056, 263.3523
579.9877, 262.2135
580.4698, 260.8955
580.9520, 259.6197
581.4341, 258.8698
581.9162, 259.0065
582.3983, 259.4568
582.8804, 259.5165
583.3625, 259.2023
583.8447, 258.7309
584.3268, 258.2433
584.8089, 257.4001
585.2910, 255.5219
585.7732, 252.7666
586.2553, 250.8267
586.7374, 250.5345
587.2195, 250.3748
587.7017, 249.6432
588.1838, 248.4943
588.6659, 247.1582
589.1480, 245.7217
589.6301, 244.3087
590.1122, 243.0664
590.5944, 242.0089
591.0765, 240.9991
591.5586, 240.4197
592.0407, 239.4128
592.5228, 237.6336
593.0049, 235.3852
593.4871, 233.0094
593.9692, 230.5874
594.4513, 228.0748
594.9334, 225.2885
595.4155, 222.3361
595.8976, 219.7190
596.3798, 217.4895
596.8619, 215.5265
597.3440, 214.0394
597.8261, 212.6686
598.3082, 210.5482
598.7903, 207.3304
599.2725, 204.2515
599.7546, 201.8472
600.2367, 199.6915
600.7188, 197.3647
601.2009, 194.8313
601.6830, 192.2555
602.1652, 189.7292
602.6473, 187.2539
603.1294, 184.8042
603.6115, 182.0977
604.0936, 179.9604
604.5757, 178.9164
605.0579, 177.9864
605.5400, 176.5337
606.0221, 174.6581
606.5042, 172.8303
606.9863, 171.3437
607.4684, 170.0127
607.9506, 168.5140
608.4327, 166.8504
608.9148, 165.2581
609.3969, 163.8345
609.8790, 162.4333
610.3611, 160.8501
610.8433, 159.1021
611.3254, 157.5146
611.8075, 156.3262
612.2896, 155.0926
612.7717, 153.4200
613.2538, 151.5884
613.7360, 150.1021
614.2181, 149.0981
614.7002, 148.3046
615.1823, 147.3781
615.6644, 146.2991
616.1465, 145.4929
616.6287, 145.1185
617.1108, 144.8142
617.5929, 144.7450
618.0750, 144.5534
618.5571, 143.8048
619.0392, 142.4352
619.5214, 140.9018
620.0035, 139.4145
620.4856, 138.0450
620.9677, 136.9308
621.4498, 136.0804
621.9319, 135.5228
622.4141, 135.3266
622.8962, 135.3766
623.3783, 135.5069
623.8604, 135.9051
624.3425, 135.7987
624.8246, 134.6224
625.3068, 133.3405
625.7889, 132.5552
626.2710, 132.2084
626.7531, 132.1169
627.2352, 132.2052
627.7173, 132.1497
628.1995, 131.1233
628.6816, 128.7609
629.1637, 127.4737
629.6458, 128.0596
630.1279, 128.8994
630.6100, 129.2319
631.0922, 129.2291
631.5743, 129.2062
632.0564, 129.2812
632.5385, 129.2251
633.0206, 128.6788
633.5027, 127.9349
633.9849, 127.7822
634.4670, 128.3071
634.9491, 128.3424
635.4312, 126.7743
635.9133, 124.1891
636.3954, 123.3713
636.8776, 126.9262
637.3597, 128.7609
637.8418, 127.0618
638.3239, 124.9065
638.8060, 124.7178
639.2881, 126.1209
639.7703, 127.1761
640.2524, 126.6681
640.7345, 125.3098
641.2166, 124.3725
641.6987, 123.8575
642.1808, 123.7068
642.6630, 124.1052
643.1451, 124.5452
643.6272, 124.5805
644.1093, 124.2811
644.5914, 123.8482
645.0735, 123.1625
645.5557, 122.5189
646.0378, 121.8092
646.5199, 121.3274
647.0020, 121.8480
647.4841, 123.3283
647.9662, 124.4428
648.4484, 123.9056
648.9305, 122.0103
649.4126, 120.8341
649.8947, 120.7181
650.3768, 120.7097
650.8589, 120.6120
651.3411, 120.5855
651.8232, 120.8046
652.3053, 121.2235
652.7874, 121.5941
653.2695, 121.8308
653.7516, 121.9211
654.2338, 121.8695
654.7159, 121.6620
655.1980, 121.1673
655.6801, 120.3028
656.1622, 119.4139
656.6443, 118.9012
657.1265, 118.7928
657.6086, 118.5404
658.0907, 118.0647
658.5728, 117.5676
659.0549, 116.8563
659.5370, 116.2882
660.0192, 116.3568
660.5013, 117.0396
660.9834, 117.7583
661.4655, 118.1187
661.9476, 118.1135
662.4297, 117.5235
662.9119, 116.2176
663.3940, 115.4008
663.8761, 115.6446
664.3582, 116.2940
664.8403, 116.6375
665.3224, 116.6974
665.8046, 116.6145
666.2867, 115.9952
666.7688, 115.6724
667.2509, 116.6303
667.7330, 118.0254
668.2151, 118.2971
668.6973, 117.1266
669.1794, 115.6827
669.6615, 115.1586
670.1436, 115.5019
670.6257, 116.0198
671.1078, 117.1132
671.5900, 117.5539
672.0721, 116.2804
672.5542, 114.7232
673.0363, 114.0520
673.5184, 114.2632
674.0005, 114.4981
674.4827, 114.3515
674.9648, 114.0934
675.4469, 113.9558
675.9290, 113.9304
676.4111, 114.0135
676.8932, 114.2067
677.3754, 114.3990
677.8575, 114.4729
678.3396, 114.4307
678.8217, 114.2141
679.3038, 113.3915
679.7859, 112.9585
680.2681, 113.5352
680.7502, 114.2659
681.2323, 114.2710
681.7144, 113.5518
682.1965, 112.8887
682.6786, 112.8967
683.1608, 113.1979
683.6429, 113.0399
684.1250, 112.5140
684.6071, 112.5153
685.0892, 113.4407
685.5714, 114.5042
686.0535, 114.7818
686.5356, 114.2142
687.0177, 113.8415
687.4998, 113.7511
687.9819, 113.7249
688.4641, 113.8826
688.9462, 113.9689
689.4283, 113.6319
689.9104, 112.9048
690.3925, 112.1918
690.8746, 111.7092
691.3568, 111.5427
691.8389, 112.0906
692.3210, 113.3943
692.8031, 114.3582
693.2852, 114.6758
693.7673, 114.5922
694.2495, 114.1297
694.7316, 113.3547
695.2137, 113.2235
695.6958, 114.7027
696.1779, 115.7016
696.6600, 115.0828
697.1422, 113.8604
697.6243, 113.0187
698.1064, 112.7705
698.5885, 113.0678
699.0706, 114.0381
699.5527, 115.2425
700.0349, 115.1904
700.5170, 113.5829
700.9991, 112.6889
701.4812, 113.2843
701.9633, 114.2316
702.4454, 114.5230
702.9276, 114.3641
703.4097, 114.4514
703.8918, 115.0667
704.3739, 115.6779
704.8560, 116.1459
705.3381, 116.4456
705.8203, 116.4141
706.3024, 116.1395
706.7845, 116.0630
707.2666, 116.5102
707.7487, 117.2770
708.2308, 117.8419
708.7130, 118.2254
709.1951, 118.2754
709.6772, 117.6735
710.1593, 117.1328
710.6414, 117.3792
711.1235, 117.9751
711.6057, 117.8424
712.0878, 116.2141
712.5699, 115.2462
713.0520, 116.6351
713.5341, 118.8611
714.0162, 120.1368
714.4984, 120.4343
714.9805, 120.5863
715.4626, 121.0570
715.9447, 121.7473
716.4268, 122.5481
716.9089, 123.6252
717.3911, 124.0280
717.8732, 123.0888
718.3553, 122.3605
718.8374, 122.8498
719.3195, 123.8684
719.8016, 124.3853
720.2838, 124.1651
720.7659, 123.9829
721.2480, 124.2418
721.7301, 124.7008
722.2122, 125.1511
722.6943, 125.5680
723.1765, 125.8425
723.6586, 125.9189
724.1407, 126.2103
724.6228, 127.4765
725.1049, 129.9001
725.5870, 131.6036
726.0692, 132.1983
726.5513, 132.6847
727.0334, 133.1194
727.5155, 133.7826
727.9976, 135.2045
728.4797, 137.3866
728.9619, 139.0831
729.4440, 139.2225
729.9261, 139.1163
730.4082, 140.0596
730.8903, 141.6852
731.3724, 142.9900
731.8546, 143.7027
732.3367, 144.4329
732.8188, 145.9272
733.3009, 148.0625
733.7830, 149.2929
734.2651, 149.0251
734.7473, 149.1352
735.2294, 150.0975
735.7115, 151.5416
736.1936, 153.4368
736.6757, 155.6395
737.1578, 157.6261
737.6400, 159.3512
738.1221, 160.6673
738.6042, 161.0211
739.0863, 161.0807
739.5684, 162.0549
740.0505, 164.0036
740.5327, 165.9746
741.0148, 167.2662
741.4969, 168.1189
741.9790, 169.3096
742.4611, 170.9898
742.9432, 172.4276
743.4254, 173.3338
743.9075, 174.2587
744.3896, 175.4570
744.8717, 176.9003
745.3538, 178.6131
745.8359, 180.7541
746.3181, 182.6562
746.8002, 183.8408
747.2823, 184.7592
747.7644, 185.8574
748.2465, 187.1167
748.7286, 188.3657
749.2108, 189.5229
749.6929, 190.6232
750.1750, 191.7629
750.6571, 192.9586
751.1392, 193.8850
751.6213, 194.5472
752.1035, 194.9250
752.5856, 194.7816
753.0677, 194.5022
753.5498, 194.5171
754.0319, 194.8343
754.5140, 195.3786
754.9962, 196.2471
755.4783, 197.2155
755.9604, 198.1541
756.4425, 199.0957
756.9246, 200.2854
757.4067, 201.6644
757.8889, 202.5580
758.3710, 202.2309
758.8531, 201.1615
759.3352, 200.9816
759.8173, 201.7604
760.2994, 202.9118
760.7816, 204.6356
761.2637, 206.1253
761.7458, 206.7208
762.2279, 206.4784
762.7100, 205.7763
763.1921, 204.1194
763.6743, 202.7869
764.1564, 202.0481
764.6385, 201.7740
765.1206, 202.1481
765.6027, 202.8764
766.0848, 203.2995
766.5670, 203.1112
767.0491, 202.5599
767.5312, 201.7960
768.0133, 200.9125
768.4954, 200.5169
768.9775, 200.7064
769.4597, 200.8432
769.9418, 200.6087
770.4239, 200.1622
770.9060, 199.7483
771.3881, 199.3273
771.8702, 199.1231
772.3524, 199.2890
772.8345, 199.4785
773.3166, 199.8537
773.7987, 200.0237
774.2808, 199.4539
774.7629, 198.1520
775.2451, 196.7046
775.7272, 195.2843
776.2093, 194.1580
776.6914, 193.9668
777.1735, 194.4639
777.6556, 194.5681
778.1378, 194.0180
778.6199, 193.4413
779.1020, 193.4202
779.5841, 193.7918
780.0662, 193.6528
780.5483, 192.1931
781.0305, 191.7743
781.5126, 193.8315
781.9947, 195.6318
782.4768, 195.6630
782.9589, 194.5332
783.4410, 193.3621
783.9232, 192.3209
784.4053, 191.7632
784.8874, 192.4276
785.3695, 193.3405
785.8516, 193.0469
786.3337, 191.8799
786.8159, 191.2751
787.2980, 191.8015
787.7801, 192.7401
788.2622, 193.1600
788.7443, 193.0770
789.2264, 193.0711
789.7086, 193.1794
790.1907, 193.2521
790.6728, 193.1096
791.1549, 193.0487
791.6370, 193.4333
792.1191, 194.1971
792.6013, 194.8730
793.0834, 195.3607
793.5655, 195.7920
794.0476, 195.9842
794.5297, 196.3001
795.0118, 197.4116
795.4940, 199.0455
795.9761, 200.0789
796.4582, 199.8267
796.9403, 199.1349
797.4224, 199.3247
797.9045, 200.2544
798.3867, 200.9220
798.8688, 201.1998
799.3509, 201.6230
799.8330, 202.4941
800.3151, 203.6256
800.7972, 204.6865
801.2794, 205.7120
801.7615, 206.5331
802.2436, 206.6814
802.7257, 207.2211
803.2078, 208.7803
803.6899, 210.6762
804.1721, 212.2693
804.6542, 213.4711
805.1363, 214.4518
805.6184, 214.9132
806.1005, 215.6447
806.5826, 217.8624
807.0648, 220.8918
807.5469, 223.1059
808.0290, 224.3011
808.5111, 225.4027
808.9932, 227.0456
809.4753, 229.1251
809.9575, 231.4432
810.4396, 234.1101
810.9217, 236.5415
811.4038, 238.5220
811.8859, 240.5558
812.3680, 242.7951
812.8502, 245.2877
813.3323, 248.1167
813.8144, 251.2929
814.2965, 254.7084
814.7786, 258.5994
815.2607, 262.4644
815.7429, 266.0218
816.2250, 269.3542
816.7071, 272.2491
817.1892, 274.8898
817.6713, 278.3923
818.1534, 283.9883
818.6356, 290.3469
819.1177, 294.5323
819.5998, 296.8899
820.0819, 300.2578
820.5640, 305.2125
821.0461, 310.4995
821.5283, 315.3182
822.0104, 319.7366
822.4925, 323.9084
822.9746, 327.7905
823.4567, 331.5876
823.9388, 334.9878
824.4210, 338.6807
824.9031, 343.0428
825.3852, 347.7955
825.8673, 352.6962
826.3494, 357.7098
826.8315, 362.3578
827.3137, 365.9489
827.7958, 369.5403
828.2779, 374.4818
828.7600, 379.8969
829.2421, 383.9410
829.7242, 386.4405
830.2064, 388.8685
830.6885, 392.3605
831.1706, 396.5568
831.6527, 400.7704
832.1348, 405.0021
832.6169, 408.4587
833.0991, 410.9007
833.5812, 412.9705
834.0633, 414.9162
834.5454, 416.8368
835.0275, 419.0193
835.5096, 421.5979
835.9918, 423.9909
836.4739, 426.2614
836.9560, 428.2720
837.4381, 430.0638
837.9202, 431.5215
838.4023, 432.5518
838.8845, 433.1345
839.3666, 433.2589
839.8487, 432.6328
840.3308, 431.9142
840.8129, 431.8593
841.2950, 432.1797
841.7772, 432.3914
842.2593, 432.3827
842.7414, 432.0758
843.2235, 431.4310
843.7056, 430.4153
844.1877, 428.8279
844.6699, 426.6024
845.1520, 424.7751
845.6341, 423.5515
846.1162, 422.2519
846.5983, 420.6385
847.0804, 418.7467
847.5626, 416.4850
848.0447, 413.8015
848.5268, 411.5060
849.0089, 410.0453
849.4910, 408.4422
849.9731, 406.4570
850.4553, 404.1794
850.9374, 401.5927
851.4195, 398.7932
851.9016, 395.9670
852.3837, 393.0956
852.8658, 390.5298
853.3480, 388.9503
853.8301, 387.7047
854.3122, 385.3572
854.7943, 382.1347
855.2764, 379.6493
855.7585, 378.6159
856.2407, 378.0345
856.7228, 376.5234
857.2049, 374.1967
857.6870, 372.4791
858.1691, 371.4795
858.6512, 370.7032
859.1334, 370.0883
859.6155, 369.5588
860.0976, 368.9348
860.5797, 368.3180
861.0618, 368.2417
861.5439, 368.9091
862.0261, 369.7618
862.5082, 370.8385
862.9903, 371.9940
863.4724, 373.2907
863.9545, 374.5519
864.4366, 375.2520
864.9188, 375.3137
865.4009, 376.1125
865.8830, 379.4367
866.3651, 383.2729
866.8472, 385.0806
867.3293, 385.5976
867.8115, 386.6957
868.2936, 388.7539
868.7757, 391.1457
869.2578, 393.4757
869.7399, 395.5306
870.2220, 396.5382
870.7042, 396.4155
871.1863, 397.0179
871.6684, 398.6639
872.1505, 400.5147
872.6326, 402.5537
873.1147, 404.0566
873.5969, 403.5665
874.0790, 400.5138
874.5611, 398.5454
875.0432, 398.8295
875.5253, 398.6254
876.0074, 397.4154
876.4896, 395.3996
876.9717, 392.5154
877.4538, 388.9667
877.9359, 385.3801
878.4180, 382.1128
878.9001, 378.4461
879.3823, 373.7985
879.8644, 368.6037
880.3465, 362.9042
880.8286, 357.1115
881.3107, 352.2752
881.7928, 348.7228
882.2750, 345.3895
882.7571, 341.2910
883.2392, 336.4610
883.7213, 330.6390
884.2034, 323.9362
884.6855, 318.4848
885.1677, 314.9511
885.6498, 311.5175
886.1319, 306.7045
886.6140, 300.9257
887.0961, 295.5533
887.5782, 290.5630
888.0604, 286.0369
888.5425, 282.2774
889.0246, 278.5753
889.5067, 274.6138
889.9888, 270.5721
890.4709, 266.6001
890.9531, 262.6933
891.4352, 259.0242
891.9173, 255.6746
892.3994, 252.4836
892.8815, 249.4557
893.3636, 246.5005
893.8458, 243.5802
894.3279, 240.6518
894.8100, 237.6241
895.2921, 234.4508
895.7742, 231.2394
896.2563, 227.9017
896.7385, 224.7023
897.2206, 222.3607
897.7027, 220.6547
898.1848, 218.7025
898.6669, 216.2169
899.1490, 213.3911
899.6312, 210.2527
900.1133, 207.1043
900.5954, 205.3739
901.0775, 205.2483
901.5596, 204.4476
902.0417, 202.6598
902.5239, 200.0983
903.0060, 196.4827
903.4881, 192.5878
903.9702, 190.0551
904.4523, 189.2776
904.9344, 188.3040
905.4166, 187.1745
905.8987, 185.7932
906.3808, 183.9101
906.8629, 181.9314
907.3450, 180.1159
907.8271, 178.5101
908.3093, 177.2455
908.7914, 176.5414
909.2735, 175.7714
909.7556, 174.4858
910.2377, 173.1555
910.7198, 172.3890
911.2020, 171.8536
911.6841, 170.6688
912.1662, 168.6660
912.6483, 166.9160
913.1304, 166.6528
913.6125, 166.8800
914.0947, 165.8775
914.5768, 163.9899
915.0589, 162.3285
915.5410, 161.0666
916.0231, 159.8126
916.5052, 158.2995
916.9874, 156.7136
917.4695, 155.5279
917.9516, 154.7771
918.4337, 153.1911
918.9158, 150.4611
919.3979, 148.3164
919.8801, 147.5166
920.3622, 147.1999
920.8443, 146.5179
921.3264, 145.4969
921.8085, 144.4496
922.2906, 143.5363
922.7728, 142.3225
923.2549, 140.8341
923.7370, 139.0082
924.2191, 136.4001
924.7012, 133.6250
925.1833, 131.7619
925.6655, 130.9764
926.1476, 129.8608
926.6297, 127.6235
927.1118, 125.4035
927.5939, 123.8638
928.0760, 122.5715
928.5582, 120.9597
929.0403, 119.1205
929.5224, 117.5691
930.0045, 116.5340
930.4866, 115.7693
930.9688, 115.3483
931.4509, 114.8666
931.9330, 113.5293
932.4151, 111.5724
932.8972, 109.7113
933.3793, 108.1853
933.8615, 107.1114
934.3436, 106.7032
934.8257, 106.5857
935.3078, 105.8044
935.7899, 104.4014
936.2720, 102.7710
936.7542, 100.8872
937.2363, 99.79420
937.7184, 100.1667
938.2005, 101.1059
938.6826, 101.2910
939.1647, 100.7089
939.6469, 99.87373
940.1290, 98.49251
940.6111, 97.59975
941.0932, 97.74335
941.5753, 97.97334
942.0574, 97.70930
942.5396, 97.01105
943.0217, 95.92518
943.5038, 94.00117
943.9859, 93.08043
944.4680, 94.20409
944.9501, 95.26401
945.4323, 95.62643
945.9144, 95.43456
946.3965, 94.50460
946.8786, 93.12718
947.3607, 92.49817
947.8428, 93.47108
948.3250, 94.24973
948.8071, 93.37276
949.2892, 92.28230
949.7713, 92.63639
950.2534, 93.75854
950.7355, 94.07549
951.2177, 93.23200
951.6998, 92.15820
952.1819, 91.21886
952.6640, 90.86646
953.1461, 92.61378
953.6282, 95.19875
954.1104, 95.18026
954.5925, 92.63036
955.0746, 90.49644
955.5567, 90.23210
956.0388, 90.83245
956.5209, 91.06340
957.0031, 90.95341
957.4852, 90.47634
957.9673, 89.63634
958.4494, 89.47202
958.9315, 90.31768
959.4136, 91.01908
959.8958, 90.64895
960.3779, 89.69710
960.8600, 89.50874
961.3421, 90.35567
961.8242, 90.52949
962.3063, 89.74268
962.7885, 88.96844
963.2706, 88.40836
963.7527, 88.13416
964.2348, 88.27039
964.7169, 88.77335
965.1990, 89.32845
965.6812, 90.27892
966.1633, 90.74508
966.6454, 90.55698
967.1275, 90.07891
967.6096, 89.12461
968.0917, 88.16233
968.5739, 87.87707
969.0560, 88.26885
969.5381, 88.48193
970.0202, 88.15295
970.5023, 87.82321
970.9844, 87.54422
971.4666, 87.46504
971.9487, 87.90867
972.4308, 88.58174
972.9129, 88.87757
973.3950, 88.64436
973.8771, 88.37270
974.3593, 88.38864
974.8414, 88.45435
975.3235, 88.27831
975.8056, 88.06242
976.2877, 88.22083
976.7698, 88.65365
977.2520, 88.82169
977.7341, 88.46532
978.2162, 88.00416
978.6983, 88.05741
979.1804, 88.23026
979.6625, 87.53843
980.1447, 86.29919
980.6268, 85.69040
981.1089, 85.91148
981.5910, 86.21079
982.0731, 86.05429
982.5552, 85.79930
983.0374, 86.35473
983.5195, 86.02597
984.0016, 85.66548
984.4837, 85.92397
984.9658, 84.89462
985.4479, 84.84843
985.9301, 85.13785
986.4122, 85.17272
986.8943, 85.05935
987.3764, 85.26516
987.8585, 85.91788
988.3406, 85.93494
988.8228, 84.97507
989.3049, 84.40834
989.7870, 84.97507
990.2691, 85.84658
990.7512, 85.99361
991.2333, 85.49712
991.7155, 85.41385
992.1976, 86.24630
992.6797, 86.39087
993.1618, 85.06499
993.6439, 83.97887
994.1260, 84.20865
994.6082, 84.98253
995.0903, 85.12374
995.5724, 84.59914
996.0545, 84.45335
996.5366, 85.33727
997.0187, 85.72462
997.5009, 84.98352
997.9830, 84.07371
998.4651, 83.42843
998.9472, 83.07447
999.4293, 83.08995
999.9114, 83.50412
1000.394, 83.80956
1000.876, 83.81973
1001.358, 83.75301
1001.840, 83.79890
1002.322, 83.72190
1002.804, 83.12107
1003.286, 82.26719
1003.768, 81.82623
1004.250, 82.00313
1004.733, 82.19002
1005.215, 81.98071
1005.697, 81.74995
1006.179, 81.80329
1006.661, 81.98726
1007.143, 82.16291
1007.625, 82.26578
1008.107, 82.17451
1008.590, 81.82254
1009.072, 81.48235
1009.554, 81.47909
1010.036, 81.53397
1010.518, 81.19181
1011.000, 80.69345
1011.482, 80.54691
1011.964, 80.78849
1012.446, 81.18806
1012.929, 81.66154
1013.411, 81.86169
1013.893, 81.05077
1014.375, 79.82739
1014.857, 79.51259
1015.339, 79.88358
1015.821, 80.07783
1016.303, 79.89686
1016.786, 79.53422
1017.268, 79.10442
1017.750, 78.67182
1018.232, 78.25439
1018.714, 77.92139
1019.196, 77.99538
1019.678, 78.45543
1020.160, 79.13363
1020.642, 79.98068
1021.125, 80.55654
1021.607, 80.47694
1022.089, 80.02161
1022.571, 79.86057
1023.053, 79.96695
1023.535, 79.79182
1024.017, 79.30089
1024.499, 78.95396
1024.981, 78.92558
1025.464, 78.81480
1025.946, 78.18662
1026.428, 77.32769
1026.910, 77.21790
1027.392, 77.95752
1027.874, 78.56175
1028.356, 79.08990
1028.838, 78.92609
1029.321, 77.61124
1029.803, 76.24117
1030.285, 75.87535
1030.767, 76.35225
1031.249, 77.09187
1031.731, 78.48893
1032.213, 78.48527
1032.695, 76.33250
1033.177, 74.57162
1033.660, 74.23147
1034.142, 74.48794
1034.624, 74.50736
1035.106, 74.36433
1035.588, 74.55931
1036.070, 75.45659
1036.552, 75.78046
1037.034, 75.05261
1037.516, 74.54977
1037.999, 74.97459
1038.481, 75.60151
1038.963, 75.65668
1039.445, 75.20609
1039.927, 74.75231
1040.409, 74.08754
1040.891, 73.79345
1041.373, 74.38045
1041.856, 74.68950
1042.338, 73.99264
1042.820, 73.03725
1043.302, 72.55837
1043.784, 72.51755
1044.266, 72.58188
1044.748, 72.92140
1045.230, 73.06413
1045.713, 72.72325
1046.195, 72.49758
1046.677, 72.74647
1047.159, 73.14198
1047.641, 73.42250
1048.123, 73.54298
1048.605, 73.32903
1049.087, 72.59341
1049.569, 71.82736
1050.052, 70.86357
1050.534, 70.16423
1051.016, 70.08922
1051.498, 70.28456
1051.980, 70.39960
1052.462, 70.41358
1052.944, 70.39927
1053.426, 70.37978
1053.908, 70.31126
1054.391, 70.26134
1054.873, 70.07084
1055.355, 69.40868
1055.837, 68.73621
1056.319, 68.71231
1056.801, 69.21303
1057.283, 69.38044
1057.765, 68.83039
1058.248, 68.37635
1058.730, 68.43594
1059.212, 68.44718
1059.694, 67.97443
1060.176, 67.36885
1060.658, 67.06218
1061.140, 67.02706
1061.622, 66.94903
1062.104, 66.72663
1062.587, 66.50735
1063.069, 66.35159
1063.551, 66.20647
1064.033, 66.14788
1064.515, 66.00774
1064.997, 65.44180
1065.479, 64.60859
1065.961, 64.15321
1066.443, 64.35578
1066.926, 64.60521
1067.408, 64.68507
1067.890, 64.70226
1068.372, 64.54196
1068.854, 64.48305
1069.336, 64.99149
1069.818, 65.88148
1070.300, 66.50890
1070.783, 66.71175
1071.265, 66.53872
1071.747, 65.44466
1072.229, 64.63862
1072.711, 65.30740
1073.193, 66.30000
1073.675, 66.16298
1074.157, 65.22744
1074.640, 64.86586
1075.122, 65.55498
1075.604, 66.07244
1076.086, 65.70945
1076.568, 65.19250
1077.050, 64.90501
1077.532, 64.71176
1078.014, 64.61153
1078.496, 64.44286
1078.979, 63.68229
1079.461, 62.13305
1079.943, 61.25012
1080.425, 62.43763
1080.907, 63.57021
1081.389, 62.96678
1081.871, 62.19138
1082.353, 63.13457
1082.836, 65.00353
1083.318, 65.87080
1083.800, 65.30611
1084.282, 64.39884
1084.764, 63.07771
1085.246, 62.21723
1085.728, 62.79409
1086.210, 63.51967
1086.693, 63.13457
1087.175, 62.12630
1087.657, 61.51344
1088.139, 61.46385
1088.621, 61.41128
1089.103, 61.06829
1089.585, 60.76551
1090.067, 60.85688
1090.549, 60.83142
1091.031, 59.98285
1091.514, 58.92115
1091.996, 58.70021
1092.478, 59.34579
1092.960, 59.81678
1093.442, 59.63506
1093.924, 59.47539
1094.406, 59.59450
1094.888, 59.81147
1095.371, 60.25237
1095.853, 60.56323
1096.335, 60.02912
1096.817, 58.87372
1097.299, 58.49822
1097.781, 59.74994
1098.263, 60.56704
1098.745, 59.76023
1099.228, 58.99158
1099.710, 59.39730
1100.192, 60.08415
1100.674, 60.01228
1101.156, 59.34117
1101.638, 58.86535
1102.120, 58.74178
1102.602, 58.78765
1103.084, 59.19313
1103.567, 59.45671
1104.049, 59.42281
1104.531, 59.12682
1105.013, 58.13813
1105.495, 57.02670
1105.977, 57.32499
1106.459, 59.55231
1106.941, 60.84749
1107.423, 59.90545
1107.906, 59.13709
1108.388, 59.60225
1108.870, 60.00624
1109.352, 59.30481
1109.834, 58.04480
1110.316, 57.13626
1110.798, 56.62574
1111.280, 56.48903
1111.763, 56.97892
1112.245, 57.45594
1112.727, 57.92185
1113.209, 58.27007
1113.691, 58.56581
1114.173, 58.64063
1114.655, 58.08661
1115.137, 56.98528
1115.620, 56.43198
1116.102, 56.65890
1116.584, 57.05174
1117.066, 58.24290
1117.548, 58.60787
1118.030, 56.70647
1118.512, 54.70317
1118.994, 54.83624
1119.476, 56.55883
1119.958, 57.70068
1120.441, 58.26025
1120.923, 58.18472
1121.405, 57.07036
1121.887, 56.20829
1122.369, 55.95020
1122.851, 55.99230
1123.333, 56.14385
1123.815, 56.42533
1124.298, 57.00736
1124.780, 58.00260
1125.262, 57.60555
1125.744, 55.04356
1126.226, 54.17318
1126.708, 56.19284
1127.190, 58.17582
1127.672, 58.53917
1128.155, 57.89606
1128.637, 56.98100
1129.119, 55.90673
1129.601, 55.75684
1130.083, 56.64439
1130.565, 57.21547
1131.047, 57.33242
1131.529, 57.06710
1132.011, 56.37769
1132.494, 55.86160
1132.976, 56.22449
1133.458, 55.67923
1133.940, 55.45355
1134.422, 55.51357
1134.904, 55.00463
1135.386, 55.24853
1135.868, 55.58216
1136.350, 55.82164
1136.833, 56.01575
1137.315, 56.22184
1137.797, 56.25486
1138.279, 55.62251
1138.761, 54.59690
1139.243, 54.06933
1139.725, 54.01465
1140.207, 54.47663
1140.690, 55.33445
1141.172, 55.88449
1141.654, 55.79498
1142.136, 55.34634
1142.618, 54.65601
1143.100, 54.00100
1143.582, 53.95295
1144.064, 54.25483
1144.547, 54.37097
1145.029, 54.32232
1145.511, 54.37295
1145.993, 54.59253
1146.475, 54.84595
1146.957, 55.05978
1147.439, 55.22326
1147.921, 55.32037
1148.403, 55.36577
1148.885, 55.40258
1149.368, 55.38754
1149.850, 55.16137
1150.332, 54.79335
1150.814, 54.65337
1151.296, 54.95032
1151.778, 55.14526
1152.260, 54.81300
1152.742, 54.38796
1153.225, 54.21514
1153.707, 54.06033
1154.189, 53.28204
1154.671, 52.41608
1155.153, 52.94517
1155.635, 55.18818
1156.117, 56.75695
1156.599, 56.58469
1157.082, 56.07999
1157.564, 55.24961
1158.046, 54.68824
1158.528, 55.08483
1159.010, 55.76610
1159.492, 55.82687
1159.974, 55.28327
1160.456, 54.71569
1160.938, 53.93733
1161.421, 53.58790
1161.903, 53.95420
1162.385, 54.38879
1162.867, 55.02555
1163.349, 55.28434
1163.831, 54.34654
1164.313, 52.91283
1164.795, 52.81013
1165.277, 54.27715
1165.760, 55.02980
1166.242, 54.83393
1166.724, 54.69085
1167.206, 54.82397
1167.688, 54.76483
1168.170, 54.20112
1168.652, 53.53242
1169.134, 53.27428
1169.617, 53.35453
1170.099, 53.42205
1170.581, 53.47484
1171.063, 53.84478
1171.545, 54.55742
1172.027, 54.82244
1172.509, 54.39518
1172.991, 53.81407
1173.474, 53.46568
1173.956, 53.33763
1174.438, 53.57429
1174.920, 53.22670
1175.402, 53.70579
1175.884, 53.00943
1176.366, 52.65938
1176.848, 52.78502
1177.330, 53.44346
1177.813, 54.62193
1178.295, 55.53020
1178.777, 55.27473
1179.259, 54.67963
1179.741, 54.90780
1180.223, 55.35558
1180.705, 55.07273
1181.187, 54.32615
1181.669, 53.82454
1182.152, 53.66106
1182.634, 53.40786
1183.116, 52.79277
1183.598, 52.36681
1184.080, 52.49448
1184.562, 52.87324
1185.044, 53.55486
1185.526, 54.17234
1186.009, 54.36010
1186.491, 54.18243
1186.973, 53.74049
1187.455, 53.01191
1187.937, 52.78327
1188.419, 54.01303
1188.901, 54.55170
1189.383, 52.98445
1189.865, 51.80399
1190.348, 52.78300
1190.830, 54.38631
1191.312, 55.09405
1191.794, 54.98981
1192.276, 54.42434
1192.758, 53.05204
1193.240, 52.48291
1193.722, 53.17193
1194.204, 53.20485
1194.687, 51.84916
1195.169, 50.75267
1195.651, 51.05954
1196.133, 50.44178
1196.615, 51.85077
1197.097, 51.12641
1197.579, 51.66177
1198.061, 53.30315
1198.544, 52.40239
1199.026, 48.88316
1199.508, 47.08856
1199.990, 48.42402
1200.472, 50.46733
1200.954, 51.34571
1201.436, 51.64266
1201.918, 52.14469
1202.401, 52.76430
1202.883, 53.65580
1203.365, 54.39634
1203.847, 53.71111
1204.329, 51.90411
1204.811, 50.51376
1205.293, 50.12196
1205.775, 50.35723
1206.257, 51.29633
1206.740, 52.31178
1207.222, 53.14240
1207.704, 53.65677
1208.186, 53.61468
1208.668, 53.24849
1209.150, 52.90925
1209.632, 52.59603
1210.114, 51.96075
1210.596, 50.53128
1211.079, 50.10380
1211.561, 52.46217
1212.043, 53.89045
1212.525, 52.22383
1213.007, 50.41142
1213.489, 50.57450
1213.971, 51.58000
1214.453, 51.59398
1214.936, 50.70374
1215.418, 50.53648
1215.900, 51.23041
1216.382, 52.25925
1216.864, 53.84853
1217.346, 54.54942
1217.828, 53.78584
1218.310, 52.61492
1218.792, 51.75784
1219.275, 51.29945
1219.757, 51.51116
1220.239, 52.22780
1220.721, 52.76153
1221.203, 53.07672
1221.685, 52.83575
1222.167, 52.13824
1222.649, 51.76136
1223.131, 51.93879
1223.614, 52.03307
1224.096, 51.48853
1224.578, 50.87938
1225.060, 50.97676
1225.542, 51.24017
1226.024, 50.83976
1226.506, 50.26668
1226.988, 50.36232
1227.471, 51.03676
1227.953, 51.78626
1228.435, 52.48260
1228.917, 52.83295
1229.399, 52.35931
1229.881, 52.04505
1230.363, 52.38902
1230.845, 52.78041
1231.328, 53.01611
1231.810, 52.98944
1232.292, 52.31580
1232.774, 51.28456
1233.256, 51.14208
1233.738, 50.75869
1234.220, 50.26081
1234.702, 50.84964
1235.184, 50.07830
1235.667, 50.65378
1236.149, 51.68649
1236.631, 52.81063
1237.113, 53.75605
1237.595, 54.19403
1238.077, 54.21342
1238.559, 53.99903
1239.041, 53.61050
1239.523, 53.34304
1240.006, 53.19640
1240.488, 53.18298
1240.970, 53.23999
1241.452, 52.99747
1241.934, 52.26728
1242.416, 51.49168
1242.898, 51.09256
1243.380, 50.82570
1243.863, 50.40936
1244.345, 50.01971
1244.827, 49.67047
1245.309, 49.59107
1245.791, 50.21617
1246.273, 51.48391
1246.755, 52.94753
1247.237, 54.85859
1247.719, 55.68872
1248.202, 54.14484
1248.684, 52.81861
1249.166, 52.78558
1249.648, 52.78981
1250.130, 51.73396
1250.612, 50.73846
1251.094, 51.58096
1251.576, 53.82259
1252.058, 54.46906
1252.541, 53.21349
1253.023, 52.73349
1253.505, 53.21058
1253.987, 52.87456
1254.469, 51.28609
1254.951, 50.21466
1255.433, 50.70107
1255.915, 51.75491
1256.398, 52.21589
1256.880, 52.37162
1257.362, 52.77467
1257.844, 53.29593
1258.326, 53.79858
1258.808, 54.15564
1259.290, 54.01075
1259.772, 53.44452
1260.255, 53.03999
1260.737, 53.03215
1261.219, 53.21725
1261.701, 53.70798
1262.183, 54.07001
1262.665, 54.32770
1263.147, 54.13299
1263.629, 52.60242
1264.111, 50.86956
1264.594, 50.76678
1265.076, 51.99282
1265.558, 52.48306
1266.040, 51.81389
1266.522, 52.07916
1267.004, 53.79871
1267.486, 54.46248
1267.968, 53.30529
1268.450, 52.53086
1268.933, 53.33162
1269.415, 54.52207
1269.897, 54.76871
1270.379, 54.44452
1270.861, 54.46594
1271.343, 54.66637
1271.825, 54.36661
1272.307, 53.82615
1272.790, 53.99868
1273.272, 54.84185
1273.754, 55.58089
1274.236, 55.91316
1274.718, 55.74224
1275.200, 54.53646
1275.682, 53.51962
1276.164, 53.51548
1276.646, 53.85049
1277.129, 54.31776
1277.611, 54.64019
1278.093, 54.34045
1278.575, 53.67473
1279.057, 53.57806
1279.539, 54.18957
1280.021, 54.42196
1280.503, 54.05802
1280.985, 53.94879
1281.468, 54.33247
1281.950, 54.39567
1282.432, 53.76676
1282.914, 53.12608
1283.396, 53.03052
1283.878, 53.31182
1284.360, 53.72636
1284.842, 54.21239
1285.325, 54.60075
1285.807, 54.90313
##END=



