##NAMES=Macfallite
##RRUFFID=R060391
##IDEAL CHEMISTRY=Ca_2_Mn^3+^_3_(SiO_4_)(Si_2_O_7_)(OH)_3_
##LOCALITY=near Manganese Lake, Copper Harbor, Keweenaw County, Michigan, USA
##OWNER=RRUFF
##SOURCE=Michael Scott
##DESCRIPTION=Reddish-brown radial aggregate of bladed crystals associated with braunite, quartz, calcite
##STATUS=The identification of this mineral has been confirmed by single-crystal X-ray diffraction.
##URL=rruff.info/R060391
111.8186, 232.1447
112.3007, 230.2617
112.7828, 228.5463
113.2649, 226.7577
113.7471, 224.9568
114.2292, 224.1282
114.7113, 225.5570
115.1934, 226.7982
115.6755, 226.7909
116.1576, 225.6640
116.6397, 224.1546
117.1219, 222.9202
117.6040, 221.8336
118.0861, 221.4948
118.5682, 222.9523
119.0503, 224.2646
119.5324, 223.9932
120.0146, 221.9576
120.4967, 219.2707
120.9788, 217.8068
121.4609, 218.7903
121.9430, 219.2817
122.4251, 219.0000
122.9073, 218.3175
123.3894, 217.6027
123.8715, 216.9696
124.3536, 216.4745
124.8357, 216.3040
125.3178, 216.4566
125.8000, 216.7900
126.2821, 217.5408
126.7642, 218.5240
127.2463, 218.9630
127.7284, 218.1630
128.2105, 216.8280
128.6927, 216.2783
129.1748, 216.8611
129.6569, 217.7303
130.1390, 218.1139
130.6211, 217.9684
131.1032, 217.5975
131.5854, 216.8255
132.0675, 216.0076
132.5496, 215.5228
133.0317, 215.5792
133.5138, 215.9528
133.9959, 216.1557
134.4781, 216.3270
134.9602, 216.0334
135.4423, 214.4897
135.9244, 212.6141
136.4065, 211.7308
136.8886, 212.8057
137.3708, 215.6405
137.8529, 217.3734
138.3350, 217.3049
138.8171, 216.7589
139.2992, 215.7114
139.7813, 214.3909
140.2635, 213.2055
140.7456, 212.5580
141.2277, 212.5662
141.7098, 211.9433
142.1919, 209.9609
142.6740, 208.0840
143.1561, 207.3240
143.6383, 207.6564
144.1204, 208.0586
144.6025, 207.3406
145.0846, 205.2344
145.5667, 204.0727
146.0488, 204.9469
146.5310, 206.3568
147.0131, 206.7534
147.4952, 205.8389
147.9773, 204.0663
148.4594, 201.1899
148.9415, 197.4510
149.4237, 194.7798
149.9058, 194.9141
150.3879, 196.7387
150.8700, 196.9718
151.3521, 194.1591
151.8342, 190.8787
152.3164, 189.3067
152.7985, 189.2917
153.2806, 189.6433
153.7627, 189.6136
154.2448, 189.2011
154.7269, 188.5116
155.2091, 186.9695
155.6912, 185.6032
156.1733, 185.1054
156.6554, 185.4614
157.1375, 186.0065
157.6196, 185.8804
158.1018, 184.7593
158.5839, 183.9056
159.0660, 183.6569
159.5481, 183.4767
160.0302, 183.0183
160.5123, 182.2023
160.9945, 181.2044
161.4766, 180.3483
161.9587, 179.8347
162.4408, 179.1451
162.9229, 177.9614
163.4050, 176.7638
163.8871, 176.0136
164.3693, 175.8786
164.8514, 176.1856
165.3335, 176.5405
165.8156, 177.0999
166.2977, 177.4877
166.7798, 177.5722
167.2620, 177.4789
167.7441, 177.3774
168.2262, 177.3288
168.7083, 177.3445
169.1904, 177.4726
169.6725, 177.7753
170.1547, 178.0522
170.6368, 178.4434
171.1189, 178.8040
171.6010, 178.4944
172.0831, 176.7379
172.5652, 174.5492
173.0474, 173.9638
173.5295, 175.6736
174.0116, 177.6556
174.4937, 178.0986
174.9758, 177.0085
175.4579, 176.4572
175.9401, 178.0215
176.4222, 180.2717
176.9043, 181.6288
177.3864, 181.6603
177.8685, 181.1135
178.3506, 180.9120
178.8328, 181.1452
179.3149, 181.4106
179.7970, 181.3288
180.2791, 181.3205
180.7612, 181.7965
181.2433, 182.9349
181.7255, 184.5210
182.2076, 186.1686
182.6897, 188.1144
183.1718, 189.6422
183.6539, 190.6829
184.1360, 191.2938
184.6181, 191.4313
185.1003, 191.0495
185.5824, 190.3353
186.0645, 189.9607
186.5466, 190.2595
187.0287, 190.5181
187.5108, 190.7397
187.9930, 190.8447
188.4751, 190.7219
188.9572, 190.3023
189.4393, 189.6365
189.9214, 189.0019
190.4035, 188.0776
190.8857, 187.5422
191.3678, 187.8002
191.8499, 188.5190
192.3320, 189.1336
192.8141, 189.3000
193.2962, 189.0780
193.7784, 188.9189
194.2605, 188.9648
194.7426, 188.9109
195.2247, 188.7627
195.7068, 188.4500
196.1889, 187.7822
196.6711, 186.6153
197.1532, 184.9804
197.6353, 183.2000
198.1174, 180.9202
198.5995, 178.8177
199.0816, 177.2969
199.5638, 176.3043
200.0459, 175.4959
200.5280, 174.6716
201.0101, 173.9022
201.4922, 173.4000
201.9743, 173.7416
202.4565, 173.7769
202.9386, 171.9973
203.4207, 168.3277
203.9028, 165.4302
204.3849, 165.5498
204.8670, 167.0967
205.3492, 167.7823
205.8313, 166.9042
206.3134, 165.4072
206.7955, 164.4258
207.2776, 164.0464
207.7597, 163.7849
208.2419, 163.6461
208.7240, 163.4276
209.2061, 162.8066
209.6882, 161.5174
210.1703, 160.1143
210.6524, 159.6570
211.1346, 160.5442
211.6167, 161.3667
212.0988, 161.8147
212.5809, 161.9345
213.0630, 161.7312
213.5451, 161.1946
214.0273, 160.3863
214.5094, 159.3514
214.9915, 157.6397
215.4736, 156.5722
215.9557, 156.8484
216.4378, 157.5784
216.9200, 157.8023
217.4021, 157.0760
217.8842, 155.8377
218.3663, 155.3393
218.8484, 156.1997
219.3305, 156.9644
219.8127, 157.7192
220.2948, 158.2042
220.7769, 158.0671
221.2590, 157.1470
221.7411, 155.7141
222.2232, 154.5604
222.7054, 153.7219
223.1875, 153.1776
223.6696, 153.0450
224.1517, 153.1592
224.6338, 153.4285
225.1159, 153.8167
225.5980, 154.1714
226.0802, 154.0389
226.5623, 152.6896
227.0444, 151.7139
227.5265, 151.5535
228.0086, 151.7375
228.4907, 151.5838
228.9729, 150.7826
229.4550, 149.7043
229.9371, 149.3858
230.4192, 150.9393
230.9013, 151.4935
231.3834, 149.8433
231.8656, 147.0950
232.3477, 144.8568
232.8298, 143.7508
233.3119, 143.3835
233.7940, 142.9262
234.2761, 142.2034
234.7583, 141.8078
235.2404, 142.4260
235.7225, 143.3887
236.2046, 143.3571
236.6867, 141.6765
237.1688, 139.3814
237.6510, 138.5169
238.1331, 139.3935
238.6152, 139.5976
239.0973, 137.5941
239.5794, 134.3863
240.0615, 132.2648
240.5437, 132.1181
241.0258, 132.6295
241.5079, 131.9514
241.9900, 130.1087
242.4721, 128.3866
242.9542, 127.3999
243.4364, 126.9409
243.9185, 126.5173
244.4006, 126.1039
244.8827, 125.5755
245.3648, 124.9008
245.8469, 124.0767
246.3290, 122.9049
246.8112, 120.6750
247.2933, 117.9684
247.7754, 116.7504
248.2575, 118.0762
248.7396, 119.5730
249.2217, 119.3750
249.7039, 117.8245
250.1860, 115.9931
250.6681, 114.2150
251.1502, 112.5752
251.6323, 111.3595
252.1144, 110.6099
252.5966, 110.2997
253.0787, 110.8976
253.5608, 111.8921
254.0429, 112.0719
254.5250, 110.0955
255.0071, 106.7365
255.4893, 105.1336
255.9714, 106.3083
256.4535, 107.6940
256.9356, 108.2371
257.4177, 108.1682
257.8998, 107.7998
258.3820, 107.1194
258.8641, 106.3460
259.3462, 106.3599
259.8283, 107.8498
260.3104, 108.9926
260.7925, 108.9758
261.2747, 108.3826
261.7568, 107.9630
262.2389, 108.0865
262.7210, 108.6143
263.2031, 109.1840
263.6852, 109.9505
264.1674, 110.4707
264.6495, 110.6087
265.1316, 110.5071
265.6137, 110.2541
266.0958, 109.8733
266.5779, 109.4908
267.0601, 109.5005
267.5422, 110.5051
268.0243, 110.7658
268.5064, 109.2434
268.9885, 107.4045
269.4706, 106.6681
269.9528, 107.5117
270.4349, 109.1705
270.9170, 110.2626
271.3991, 110.8238
271.8812, 110.6351
272.3633, 108.8378
272.8455, 106.9573
273.3276, 106.1992
273.8097, 106.8296
274.2918, 108.2390
274.7739, 109.6098
275.2560, 111.2334
275.7382, 112.1313
276.2202, 111.4548
276.7024, 110.8382
277.1845, 111.6250
277.6666, 113.8155
278.1487, 116.1580
278.6308, 117.0953
279.1129, 116.1624
279.5951, 115.3794
280.0772, 114.7326
280.5593, 114.2112
281.0414, 113.7284
281.5235, 113.3374
282.0056, 113.2516
282.4878, 113.7489
282.9699, 114.9886
283.4520, 115.6539
283.9341, 115.6513
284.4162, 115.2728
284.8983, 114.4638
285.3805, 113.3542
285.8626, 112.1482
286.3447, 110.9385
286.8268, 109.7411
287.3089, 109.3499
287.7910, 110.7036
288.2732, 111.7903
288.7553, 112.0928
289.2374, 111.7021
289.7195, 110.7553
290.2016, 109.2708
290.6837, 107.4349
291.1659, 106.2787
291.6480, 106.1739
292.1301, 106.3142
292.6122, 107.0001
293.0943, 107.7484
293.5764, 107.8053
294.0586, 106.8056
294.5407, 105.1668
295.0228, 104.0156
295.5049, 103.6934
295.9870, 103.4777
296.4691, 103.5708
296.9513, 103.6618
297.4334, 103.3665
297.9155, 102.5716
298.3976, 101.5243
298.8797, 100.6181
299.3618, 99.76539
299.8440, 99.29179
300.3261, 99.46307
300.8082, 99.84028
301.2903, 100.1285
301.7724, 100.2502
302.2545, 100.2116
302.7367, 99.99754
303.2188, 99.53423
303.7009, 99.18068
304.1830, 98.93916
304.6651, 98.78989
305.1472, 98.74270
305.6294, 98.78419
306.1115, 98.87380
306.5936, 98.98699
307.0757, 99.12777
307.5578, 99.19740
308.0399, 99.11939
308.5221, 99.05927
309.0042, 99.18201
309.4863, 99.39280
309.9684, 99.38088
310.4505, 98.88509
310.9326, 98.04563
311.4148, 97.88686
311.8969, 98.79002
312.3790, 99.81384
312.8611, 101.0497
313.3432, 102.2053
313.8253, 102.6750
314.3075, 102.1236
314.7896, 101.1091
315.2717, 101.0903
315.7538, 103.0884
316.2359, 104.6130
316.7180, 105.0932
317.2001, 105.1716
317.6823, 105.8028
318.1644, 107.2265
318.6465, 108.4340
319.1286, 107.7358
319.6107, 103.4815
320.0928, 101.4124
320.5750, 103.2286
321.0571, 105.9776
321.5392, 107.3962
322.0213, 107.2534
322.5034, 106.7674
322.9855, 107.2115
323.4677, 108.8240
323.9498, 109.5453
324.4319, 108.4699
324.9140, 107.4853
325.3961, 107.5467
325.8782, 108.5281
326.3604, 109.9083
326.8425, 111.4287
327.3246, 113.0068
327.8067, 113.6840
328.2888, 112.1407
328.7709, 111.3217
329.2531, 112.7202
329.7352, 115.2094
330.2173, 116.9135
330.6994, 116.9270
331.1815, 115.7821
331.6636, 114.9047
332.1458, 113.9424
332.6279, 113.7455
333.1100, 114.6516
333.5921, 116.1793
334.0742, 118.2364
334.5563, 120.6758
335.0385, 122.6912
335.5206, 122.9504
336.0027, 120.2240
336.4848, 118.9173
336.9669, 119.8653
337.4490, 121.3966
337.9312, 122.6372
338.4133, 123.4296
338.8954, 123.8252
339.3775, 123.7809
339.8596, 123.2005
340.3417, 123.4140
340.8239, 125.1203
341.3060, 126.7778
341.7881, 127.8374
342.2702, 128.4324
342.7523, 128.8689
343.2344, 129.3125
343.7166, 129.8019
344.1987, 130.5252
344.6808, 131.3050
345.1629, 132.5791
345.6450, 134.9368
346.1271, 137.5816
346.6093, 139.6494
347.0914, 140.8113
347.5735, 141.3517
348.0556, 141.7899
348.5377, 142.3154
349.0198, 142.3504
349.5020, 141.2414
349.9841, 140.1948
350.4662, 140.0753
350.9483, 140.9414
351.4304, 142.2931
351.9125, 143.6878
352.3947, 145.2168
352.8768, 146.1539
353.3589, 146.1102
353.8410, 145.8678
354.3231, 145.3896
354.8052, 144.9273
355.2874, 144.9835
355.7695, 145.9984
356.2516, 147.7116
356.7337, 148.6814
357.2158, 148.9170
357.6979, 148.2619
358.1800, 145.8604
358.6621, 142.9750
359.1443, 141.0644
359.6264, 140.6753
360.1085, 141.0757
360.5906, 140.9091
361.0727, 139.8421
361.5548, 139.0823
362.0370, 139.4807
362.5191, 139.6600
363.0012, 138.6619
363.4833, 136.4590
363.9654, 133.7871
364.4475, 131.1663
364.9297, 128.5569
365.4118, 126.7035
365.8939, 126.5005
366.3760, 126.0929
366.8581, 124.5611
367.3402, 122.2889
367.8224, 120.1138
368.3045, 118.5748
368.7866, 117.4428
369.2687, 115.9665
369.7508, 113.8446
370.2329, 112.0674
370.7151, 111.0522
371.1972, 110.4704
371.6793, 110.1888
372.1614, 110.2496
372.6435, 110.0303
373.1256, 108.2307
373.6078, 104.6379
374.0899, 102.6435
374.5720, 104.3663
375.0541, 106.7076
375.5362, 107.3704
376.0183, 106.3996
376.5005, 105.0948
376.9826, 104.2020
377.4647, 103.6430
377.9468, 103.1197
378.4289, 102.5919
378.9110, 102.1532
379.3932, 102.0779
379.8753, 102.1211
380.3574, 101.7244
380.8395, 100.1210
381.3216, 98.54817
381.8037, 98.88144
382.2859, 101.1669
382.7680, 103.0992
383.2501, 103.5667
383.7322, 103.1368
384.2143, 102.8474
384.6964, 102.8084
385.1786, 102.5911
385.6607, 101.5382
386.1428, 100.1126
386.6249, 99.69862
387.1070, 100.8461
387.5891, 102.4221
388.0713, 103.0450
388.5534, 102.8139
389.0355, 102.7267
389.5176, 103.4655
389.9997, 104.1400
390.4818, 103.5616
390.9640, 101.7616
391.4461, 100.1723
391.9282, 99.79269
392.4103, 100.4531
392.8924, 101.0225
393.3745, 101.7546
393.8567, 102.1319
394.3388, 101.5842
394.8209, 100.5765
395.3030, 100.1409
395.7851, 100.7206
396.2672, 101.6309
396.7494, 101.6130
397.2315, 100.1119
397.7136, 98.98505
398.1957, 98.56523
398.6778, 98.36814
399.1599, 97.77263
399.6420, 96.84895
400.1241, 96.49995
400.6063, 97.75253
401.0884, 100.7138
401.5705, 101.6563
402.0526, 98.89260
402.5347, 96.28861
403.0168, 94.87719
403.4990, 94.43520
403.9811, 94.66874
404.4632, 95.45185
404.9453, 96.41368
405.4274, 96.61026
405.9095, 95.39223
406.3917, 94.48241
406.8738, 93.97256
407.3559, 93.72717
407.8380, 93.82249
408.3201, 94.15765
408.8022, 94.34196
409.2844, 93.93269
409.7665, 92.88520
410.2486, 91.96486
410.7307, 91.20846
411.2128, 90.55425
411.6949, 89.88716
412.1771, 89.32832
412.6592, 89.14967
413.1413, 89.55994
413.6234, 90.16660
414.1055, 89.98965
414.5876, 88.62109
415.0698, 87.71461
415.5519, 87.93496
416.0340, 88.57699
416.5161, 89.40054
416.9982, 90.31662
417.4803, 90.87540
417.9625, 90.52354
418.4446, 89.40108
418.9267, 88.40484
419.4088, 87.45129
419.8909, 86.91360
420.3730, 87.26717
420.8552, 88.16623
421.3373, 88.94070
421.8194, 89.44619
422.3015, 89.64935
422.7836, 89.34926
423.2657, 88.55485
423.7479, 87.94457
424.2300, 87.84953
424.7121, 88.03584
425.1942, 88.12078
425.6763, 88.08896
426.1584, 88.04138
426.6406, 88.04434
427.1227, 88.05339
427.6048, 87.96159
428.0869, 87.74113
428.5690, 87.53557
429.0511, 87.40260
429.5333, 87.37862
430.0154, 87.77791
430.4975, 88.85609
430.9796, 90.11967
431.4617, 91.79585
431.9438, 93.45609
432.4260, 93.83020
432.9081, 92.16179
433.3902, 89.48240
433.8723, 88.26866
434.3544, 89.89529
434.8365, 90.74612
435.3187, 89.82835
435.8008, 88.67311
436.2829, 88.66907
436.7650, 89.87386
437.2471, 91.36269
437.7292, 92.31879
438.2114, 92.74204
438.6935, 92.75382
439.1756, 91.84262
439.6577, 91.08427
440.1398, 90.92362
440.6219, 90.99734
441.1040, 90.68053
441.5862, 89.71560
442.0683, 88.65712
442.5504, 88.65726
443.0325, 90.22046
443.5146, 91.29301
443.9967, 91.51698
444.4789, 91.35783
444.9610, 90.71540
445.4431, 89.81945
445.9252, 89.33292
446.4073, 89.95391
446.8894, 91.33358
447.3716, 92.02657
447.8537, 91.66825
448.3358, 91.53331
448.8179, 92.72021
449.3000, 94.19444
449.7821, 94.71702
450.2643, 93.87646
450.7464, 92.82810
451.2285, 92.50956
451.7106, 92.83048
452.1927, 93.41801
452.6748, 94.31905
453.1570, 95.21653
453.6391, 95.78770
454.1212, 96.08239
454.6033, 96.23524
455.0854, 95.65630
455.5675, 95.40441
456.0497, 96.94822
456.5318, 99.94622
457.0139, 102.2835
457.4960, 102.7852
457.9781, 102.0580
458.4602, 101.6997
458.9424, 101.7735
459.4245, 101.9999
459.9066, 102.4430
460.3887, 102.9538
460.8708, 103.3191
461.3529, 103.5385
461.8351, 103.8666
462.3172, 104.5763
462.7993, 105.6810
463.2814, 106.6166
463.7635, 107.4289
464.2456, 108.0337
464.7278, 108.2949
465.2099, 108.3771
465.6920, 108.5276
466.1741, 108.8387
466.6562, 109.1528
467.1383, 109.0616
467.6205, 108.1382
468.1026, 108.1519
468.5847, 110.4841
469.0668, 112.5772
469.5489, 112.9100
470.0310, 111.9919
470.5132, 111.4009
470.9953, 112.2562
471.4774, 113.9404
471.9595, 114.8135
472.4416, 114.6570
472.9237, 114.5073
473.4059, 114.9968
473.8880, 115.4827
474.3701, 115.2633
474.8522, 114.2392
475.3343, 113.2213
475.8164, 112.7126
476.2986, 112.6043
476.7807, 112.7325
477.2628, 113.1573
477.7449, 113.3872
478.2270, 112.9320
478.7091, 111.9495
479.1913, 111.1672
479.6734, 110.8442
480.1555, 110.4805
480.6376, 109.5003
481.1197, 108.3268
481.6018, 108.0782
482.0839, 109.1821
482.5660, 110.5091
483.0482, 110.4357
483.5303, 108.4634
484.0124, 106.7865
484.4945, 105.2870
484.9766, 104.1740
485.4587, 103.9273
485.9409, 104.1515
486.4230, 103.8737
486.9051, 102.5088
487.3872, 100.5192
487.8693, 99.24870
488.3514, 98.91158
488.8336, 98.92342
489.3157, 99.92788
489.7978, 100.6749
490.2799, 100.0309
490.7620, 98.19001
491.2441, 96.40358
491.7263, 95.74782
492.2084, 95.97617
492.6905, 95.84743
493.1726, 95.13477
493.6547, 94.61401
494.1368, 94.68404
494.6190, 95.07140
495.1011, 95.53060
495.5832, 96.01543
496.0653, 96.59701
496.5474, 97.62184
497.0295, 98.79367
497.5117, 98.99769
497.9938, 97.83533
498.4759, 96.70578
498.9580, 96.97830
499.4401, 98.33778
499.9222, 99.02319
500.4044, 98.52345
500.8865, 97.74915
501.3686, 96.54842
501.8507, 95.48849
502.3328, 96.07801
502.8149, 98.89150
503.2971, 102.2599
503.7792, 103.7916
504.2613, 102.9254
504.7434, 102.1383
505.2255, 101.0062
505.7076, 100.3570
506.1898, 100.9825
506.6719, 102.3516
507.1540, 103.4432
507.6361, 103.7315
508.1182, 103.3535
508.6003, 102.3887
509.0825, 100.0882
509.5646, 99.21992
510.0467, 101.3264
510.5288, 103.8397
511.0109, 105.5974
511.4930, 106.5456
511.9752, 106.9956
512.4573, 107.0128
512.9394, 106.7410
513.4215, 106.5374
513.9036, 106.4385
514.3857, 106.1369
514.8679, 105.1626
515.3500, 104.1978
515.8321, 104.2105
516.3142, 105.3344
516.7963, 106.3673
517.2784, 106.8133
517.7606, 106.8581
518.2427, 106.6542
518.7248, 106.2398
519.2069, 105.8870
519.6890, 105.7650
520.1711, 105.8554
520.6533, 106.0810
521.1354, 106.6458
521.6175, 107.0551
522.0996, 107.2490
522.5817, 107.2372
523.0638, 107.0725
523.5460, 106.7367
524.0281, 106.0496
524.5102, 104.7364
524.9923, 102.8357
525.4744, 101.6278
525.9565, 101.6618
526.4387, 101.7207
526.9208, 101.8953
527.4029, 101.7966
527.8850, 100.8760
528.3671, 99.03606
528.8492, 97.00063
529.3314, 95.57516
529.8135, 94.68632
530.2956, 93.46728
530.7777, 91.51201
531.2598, 89.98348
531.7419, 90.19027
532.2241, 91.18027
532.7062, 91.34115
533.1883, 89.96407
533.6704, 88.57111
534.1525, 88.39725
534.6346, 88.96276
535.1168, 89.11430
535.5989, 88.57471
536.0810, 87.77663
536.5631, 87.10246
537.0452, 86.55623
537.5273, 86.20759
538.0095, 85.94022
538.4916, 85.97701
538.9737, 86.61037
539.4558, 87.52988
539.9379, 88.37379
540.4200, 88.99817
540.9022, 89.29518
541.3843, 89.01646
541.8664, 87.98872
542.3485, 87.36855
542.8306, 87.44584
543.3127, 87.64552
543.7948, 87.89053
544.2769, 88.11375
544.7590, 88.23396
545.2411, 88.22184
545.7233, 88.10310
546.2054, 87.83836
546.6875, 87.44621
547.1696, 87.17273
547.6517, 86.92613
548.1339, 87.04677
548.6160, 88.01727
549.0981, 89.60183
549.5802, 91.23293
550.0623, 93.42732
550.5444, 94.97122
551.0266, 94.61770
551.5087, 93.06384
551.9908, 91.86650
552.4729, 91.49292
552.9550, 91.60952
553.4371, 91.83253
553.9193, 92.17031
554.4014, 92.58427
554.8835, 93.22961
555.3656, 93.76994
555.8477, 93.94631
556.3298, 93.98874
556.8120, 94.32661
557.2941, 95.09880
557.7762, 95.87069
558.2583, 95.93648
558.7404, 95.18287
559.2225, 94.69231
559.7047, 94.78493
560.1868, 94.75842
560.6689, 93.78572
561.1510, 92.60291
561.6331, 92.59264
562.1152, 94.50036
562.5974, 96.73473
563.0795, 97.93736
563.5616, 98.25709
564.0437, 98.14070
564.5258, 97.59966
565.0079, 96.98906
565.4901, 96.65549
565.9722, 96.58130
566.4543, 96.34201
566.9364, 95.41231
567.4185, 94.91640
567.9006, 95.47370
568.3828, 96.65236
568.8649, 98.09000
569.3470, 99.58653
569.8291, 100.5779
570.3112, 100.1853
570.7933, 98.25492
571.2755, 97.72332
571.7576, 99.79480
572.2397, 101.8067
572.7218, 103.1963
573.2039, 104.1610
573.6860, 104.8933
574.1682, 105.4515
574.6503, 105.9333
575.1324, 106.2948
575.6145, 106.6315
576.0966, 107.5234
576.5787, 109.2161
577.0609, 110.6217
577.5430, 110.9391
578.0251, 110.5227
578.5072, 110.2106
578.9893, 109.8114
579.4714, 109.9855
579.9536, 111.4816
580.4357, 113.4298
580.9178, 114.7339
581.3999, 115.2990
581.8820, 115.7477
582.3641, 116.5821
582.8463, 117.6771
583.3284, 118.3008
583.8105, 118.0096
584.2926, 117.8791
584.7747, 118.4848
585.2568, 118.9030
585.7390, 117.9903
586.2211, 116.0489
586.7032, 114.7282
587.1853, 115.5352
587.6674, 117.5634
588.1495, 118.2712
588.6317, 117.4679
589.1138, 116.5112
589.5959, 115.7651
590.0780, 115.1135
590.5601, 114.3706
591.0422, 113.5375
591.5244, 112.9157
592.0065, 113.0664
592.4886, 113.1015
592.9707, 112.0560
593.4528, 110.1675
593.9349, 108.3402
594.4171, 106.9888
594.8992, 105.7924
595.3813, 104.1555
595.8634, 101.8415
596.3455, 99.77644
596.8276, 98.18868
597.3098, 96.57495
597.7919, 94.39586
598.2740, 92.12415
598.7561, 90.65433
599.2382, 90.37566
599.7203, 90.49403
600.2025, 89.94420
600.6846, 88.74163
601.1667, 87.53179
601.6488, 86.39812
602.1309, 85.23178
602.6130, 83.91753
603.0952, 82.52373
603.5773, 81.21548
604.0594, 80.01217
604.5415, 78.88934
605.0236, 77.78772
605.5057, 76.76944
605.9879, 75.95579
606.4700, 75.35762
606.9521, 74.88894
607.4342, 74.52419
607.9163, 74.21539
608.3984, 73.57134
608.8806, 71.90801
609.3627, 70.87198
609.8448, 71.21692
610.3269, 71.75830
610.8090, 71.60979
611.2911, 70.73161
611.7733, 69.52199
612.2554, 68.05206
612.7375, 66.62122
613.2196, 66.07539
613.7017, 66.51524
614.1838, 66.69875
614.6660, 65.99621
615.1481, 65.20033
615.6302, 65.58606
616.1123, 67.04367
616.5944, 67.51372
617.0765, 65.62260
617.5587, 63.52045
618.0408, 62.69154
618.5229, 62.75988
619.0050, 62.88887
619.4871, 62.77550
619.9692, 62.38687
620.4514, 61.60490
620.9335, 60.31388
621.4156, 59.49105
621.8977, 59.44247
622.3798, 59.52551
622.8619, 59.63412
623.3441, 59.75792
623.8262, 59.97789
624.3083, 60.29971
624.7904, 60.38818
625.2725, 59.67854
625.7546, 58.54617
626.2367, 58.15587
626.7188, 58.63368
627.2009, 59.03252
627.6830, 58.84136
628.1652, 58.27801
628.6473, 57.84344
629.1294, 57.62614
629.6115, 57.24231
630.0936, 56.17011
630.5757, 55.30844
631.0579, 55.66642
631.5400, 56.78582
632.0221, 57.42253
632.5042, 56.94270
632.9863, 55.72200
633.4684, 54.22039
633.9506, 52.14534
634.4327, 51.26757
634.9148, 52.44802
635.3969, 53.89178
635.8790, 55.09206
636.3611, 55.83692
636.8433, 55.57612
637.3254, 53.80262
637.8075, 52.21297
638.2896, 52.29731
638.7717, 53.35333
639.2538, 53.98382
639.7360, 54.00787
640.2181, 54.17714
640.7002, 55.15492
641.1823, 56.57850
641.6644, 56.96852
642.1465, 55.46578
642.6287, 54.05916
643.1108, 52.54231
643.5929, 51.32577
644.0750, 50.79811
644.5571, 50.81258
645.0392, 50.89870
645.5214, 50.77668
646.0035, 50.66216
646.4856, 50.97865
646.9677, 51.72429
647.4498, 52.46296
647.9319, 53.25623
648.4141, 53.74137
648.8962, 53.52151
649.3783, 52.72261
649.8604, 51.80159
650.3425, 50.22880
650.8246, 49.30639
651.3068, 50.24705
651.7889, 51.75702
652.2710, 52.05317
652.7531, 51.05559
653.2352, 50.07304
653.7173, 50.13088
654.1995, 51.01440
654.6816, 51.90280
655.1637, 52.99723
655.6458, 53.60598
656.1279, 53.03979
656.6100, 52.43689
657.0922, 52.56551
657.5743, 53.23649
658.0564, 53.71651
658.5385, 53.72049
659.0206, 53.43183
659.5027, 52.87481
659.9849, 52.16806
660.4670, 51.54250
660.9491, 51.04098
661.4312, 51.04475
661.9133, 52.08838
662.3954, 54.03634
662.8776, 54.93162
663.3597, 53.56691
663.8418, 52.72256
664.3239, 53.03237
664.8060, 53.68224
665.2881, 54.03661
665.7703, 54.07569
666.2524, 54.08033
666.7345, 54.14342
667.2166, 54.40578
667.6987, 55.38677
668.1808, 57.05054
668.6630, 57.91957
669.1451, 57.35320
669.6272, 56.60661
670.1093, 57.01410
670.5914, 58.45968
671.0735, 59.33581
671.5557, 59.35244
672.0378, 59.12165
672.5199, 58.37292
673.0020, 57.74651
673.4841, 58.20914
673.9662, 59.66640
674.4484, 60.99058
674.9305, 61.30228
675.4126, 60.84916
675.8947, 60.43561
676.3768, 60.08086
676.8589, 59.65596
677.3411, 58.86723
677.8232, 58.31147
678.3053, 58.71270
678.7874, 59.76848
679.2695, 60.35876
679.7516, 59.98344
680.2338, 59.39343
680.7159, 58.90196
681.1980, 58.53072
681.6801, 58.46133
682.1622, 58.64718
682.6443, 58.53172
683.1265, 57.58888
683.6086, 56.05366
684.0907, 55.07501
684.5728, 54.85728
685.0549, 54.75243
685.5370, 55.01534
686.0192, 55.06650
686.5013, 54.27752
686.9834, 52.98604
687.4655, 52.22083
687.9476, 52.66446
688.4297, 53.21117
688.9119, 52.88615
689.3940, 51.91897
689.8761, 50.54409
690.3582, 48.83643
690.8403, 47.90004
691.3224, 48.76619
691.8046, 50.94560
692.2867, 52.11480
692.7688, 51.57291
693.2509, 51.11700
693.7330, 50.83015
694.2151, 50.63908
694.6973, 50.64522
695.1794, 50.69860
695.6615, 50.43603
696.1436, 49.63157
696.6257, 48.70761
697.1078, 47.89645
697.5900, 47.33775
698.0721, 47.84861
698.5542, 49.64538
699.0363, 50.88013
699.5184, 50.09864
700.0005, 47.94973
700.4827, 46.70990
700.9648, 46.78643
701.4469, 47.15815
701.9290, 48.33495
702.4111, 49.31296
702.8932, 49.34844
703.3754, 48.74709
703.8575, 48.21075
704.3396, 48.03611
704.8217, 47.93106
705.3038, 47.28342
705.7859, 46.34568
706.2681, 46.63385
706.7502, 48.50276
707.2323, 49.87141
707.7144, 49.39049
708.1965, 47.83651
708.6786, 46.99293
709.1607, 47.08628
709.6428, 47.17823
710.1249, 47.08652
710.6071, 47.09874
711.0892, 47.67690
711.5713, 48.38007
712.0534, 48.35764
712.5355, 47.35291
713.0176, 46.14048
713.4998, 45.51556
713.9819, 45.42547
714.4640, 45.63953
714.9461, 46.20214
715.4282, 46.77298
715.9103, 47.27066
716.3925, 47.62965
716.8746, 47.68525
717.3567, 47.39351
717.8388, 47.22591
718.3209, 47.30600
718.8030, 47.42611
719.2852, 47.61011
719.7673, 47.71906
720.2494, 47.49325
720.7315, 46.92342
721.2136, 46.37879
721.6957, 46.31093
722.1779, 46.48287
722.6600, 45.80048
723.1421, 44.06619
723.6242, 43.26386
724.1063, 44.36931
724.5884, 45.95498
725.0706, 46.38741
725.5527, 45.78231
726.0348, 45.67459
726.5169, 46.51078
726.9990, 47.40598
727.4811, 48.34627
727.9633, 49.02168
728.4454, 48.87597
728.9275, 48.05359
729.4096, 47.41938
729.8917, 47.65044
730.3738, 48.20288
730.8560, 47.79869
731.3381, 46.40498
731.8202, 45.24498
732.3023, 44.54236
732.7844, 44.00360
733.2665, 43.13322
733.7487, 42.29219
734.2308, 42.82035
734.7129, 45.94763
735.1950, 48.10159
735.6771, 48.07259
736.1592, 47.22623
736.6414, 46.18991
737.1235, 45.29710
737.6056, 45.08042
738.0877, 45.79245
738.5698, 46.83304
739.0519, 47.63847
739.5341, 48.13161
740.0162, 47.30422
740.4983, 44.72728
740.9804, 42.65192
741.4625, 42.29750
741.9446, 42.99250
742.4268, 43.62587
742.9089, 44.25255
743.3910, 44.56669
743.8731, 44.22577
744.3552, 43.91032
744.8373, 43.85076
745.3195, 44.06459
745.8016, 44.76249
746.2837, 45.87174
746.7658, 46.63261
747.2479, 46.00438
747.7300, 44.71298
748.2122, 45.06685
748.6943, 47.10120
749.1764, 48.39122
749.6585, 48.11791
750.1406, 47.24115
750.6227, 46.63393
751.1049, 46.29887
751.5870, 46.11527
752.0691, 46.63897
752.5512, 46.55641
753.0333, 44.56639
753.5154, 42.71475
753.9976, 43.03039
754.4797, 45.07911
754.9618, 47.04106
755.4439, 48.07984
755.9260, 48.33716
756.4081, 47.70763
756.8903, 46.41866
757.3724, 45.39487
757.8545, 44.74700
758.3366, 44.33973
758.8187, 44.06939
759.3008, 44.01839
759.7830, 44.44513
760.2651, 45.84682
760.7472, 46.53933
761.2293, 45.92078
761.7114, 45.31465
762.1935, 45.17540
762.6757, 45.40768
763.1578, 45.98615
763.6399, 46.87275
764.1220, 47.53334
764.6041, 47.40755
765.0862, 46.92680
765.5684, 46.65512
766.0505, 46.61028
766.5326, 46.93325
767.0147, 47.69793
767.4968, 48.32357
767.9789, 48.09564
768.4611, 47.06441
768.9432, 46.47904
769.4253, 46.60824
769.9074, 46.72402
770.3895, 46.36045
770.8716, 46.25734
771.3538, 47.33113
771.8359, 49.11314
772.3180, 50.03316
772.8001, 49.19139
773.2822, 48.20301
773.7643, 48.33987
774.2465, 48.92530
774.7286, 48.93373
775.2107, 48.34758
775.6928, 47.64865
776.1749, 47.07244
776.6570, 46.81513
777.1392, 47.41710
777.6213, 49.07763
778.1034, 50.15468
778.5855, 50.50028
779.0676, 50.51074
779.5497, 49.94518
780.0319, 49.38286
780.5140, 49.88435
780.9961, 51.60286
781.4782, 52.25305
781.9603, 50.05946
782.4424, 47.95575
782.9246, 47.85276
783.4067, 48.82175
783.8888, 49.45877
784.3709, 49.50023
784.8530, 49.55248
785.3351, 50.17135
785.8173, 51.01887
786.2994, 51.22351
786.7815, 50.78359
787.2636, 50.08733
787.7457, 48.98436
788.2278, 48.40739
788.7100, 49.38993
789.1921, 51.39501
789.6742, 52.24162
790.1563, 51.09673
790.6384, 50.38819
791.1205, 50.87915
791.6026, 51.19761
792.0847, 50.02871
792.5668, 48.34688
793.0490, 48.03656
793.5311, 49.62213
794.0132, 51.22854
794.4953, 51.06373
794.9774, 50.02962
795.4595, 49.71342
795.9417, 50.04366
796.4238, 50.40806
796.9059, 50.61221
797.3880, 50.68556
797.8701, 50.60289
798.3522, 50.39928
798.8344, 50.70218
799.3165, 52.04005
799.7986, 52.86650
800.2807, 52.38538
800.7628, 51.81485
801.2449, 52.10291
801.7271, 52.86523
802.2092, 52.96431
802.6913, 51.87088
803.1734, 50.76200
803.6555, 50.19590
804.1376, 49.95630
804.6198, 49.84571
805.1019, 49.84744
805.5840, 50.01265
806.0661, 50.36117
806.5482, 50.79641
807.0303, 51.29618
807.5125, 51.80930
807.9946, 51.74707
808.4767, 51.00438
808.9588, 50.22972
809.4409, 49.48158
809.9230, 49.05146
810.4052, 49.43268
810.8873, 50.62440
811.3694, 51.34203
811.8515, 51.35825
812.3336, 51.21595
812.8157, 50.85702
813.2979, 50.51351
813.7800, 50.36634
814.2621, 50.39659
814.7442, 50.43656
815.2263, 50.35042
815.7084, 50.59442
816.1906, 52.10907
816.6727, 54.10323
817.1548, 54.88109
817.6369, 54.43325
818.1190, 53.51256
818.6011, 52.39589
819.0833, 51.53956
819.5654, 51.70871
820.0475, 52.95795
820.5296, 53.67292
821.0117, 53.72637
821.4938, 53.50373
821.9760, 52.72890
822.4581, 52.04335
822.9402, 52.14428
823.4223, 52.84000
823.9044, 53.19209
824.3865, 52.42177
824.8687, 52.19537
825.3508, 53.90757
825.8329, 55.89066
826.3150, 56.40657
826.7971, 55.72949
827.2792, 55.05422
827.7614, 54.90695
828.2435, 54.93239
828.7256, 54.65871
829.2077, 54.19195
829.6898, 53.99828
830.1719, 54.08917
830.6541, 53.97253
831.1362, 53.37593
831.6183, 52.85622
832.1004, 53.14667
832.5825, 54.22944
833.0646, 54.93047
833.5468, 54.97477
834.0289, 55.05248
834.5110, 55.14238
834.9931, 55.38243
835.4752, 56.16578
835.9573, 57.13647
836.4395, 57.42429
836.9216, 56.73034
837.4037, 55.60751
837.8858, 53.46997
838.3679, 51.71858
838.8500, 52.53211
839.3322, 54.90012
839.8143, 55.93892
840.2964, 54.73252
840.7785, 53.10807
841.2606, 53.10471
841.7427, 54.30944
842.2249, 55.09369
842.7070, 55.43247
843.1891, 55.87774
843.6712, 56.60465
844.1533, 57.31730
844.6354, 57.76977
845.1176, 57.99239
845.5997, 58.13063
846.0818, 58.24711
846.5639, 58.17070
847.0460, 57.69460
847.5281, 57.25514
848.0103, 57.06119
848.4924, 57.03157
848.9745, 57.12255
849.4566, 57.32452
849.9387, 57.24035
850.4208, 56.08532
850.9030, 55.08131
851.3851, 55.85560
851.8672, 57.43907
852.3493, 57.72752
852.8314, 56.50196
853.3135, 55.40828
853.7957, 55.74255
854.2778, 56.87047
854.7599, 57.28418
855.2420, 57.00684
855.7241, 57.21045
856.2062, 58.08961
856.6884, 59.11674
857.1705, 60.11678
857.6526, 60.94283
858.1347, 61.28918
858.6168, 61.02974
859.0989, 60.85136
859.5811, 60.83113
860.0632, 60.78930
860.5453, 60.71592
861.0274, 60.57975
861.5095, 60.12862
861.9916, 59.54596
862.4738, 59.65487
862.9559, 61.29751
863.4380, 62.62154
863.9201, 62.04676
864.4022, 60.74730
864.8843, 59.88744
865.3665, 59.64452
865.8486, 60.30368
866.3307, 61.94064
866.8128, 63.42214
867.2949, 63.12126
867.7770, 61.48045
868.2592, 60.41791
868.7413, 59.94212
869.2234, 59.66486
869.7055, 59.49912
870.1876, 59.41322
870.6697, 59.37711
871.1519, 59.39624
871.6340, 59.52140
872.1161, 59.97263
872.5981, 60.10539
873.0803, 59.86418
873.5624, 59.31982
874.0445, 57.74393
874.5266, 56.22621
875.0087, 56.74886
875.4908, 59.71292
875.9730, 61.63759
876.4551, 60.33712
876.9372, 58.72191
877.4193, 58.72190
877.9014, 59.42103
878.3835, 59.69105
878.8657, 59.31400
879.3478, 58.33444
879.8299, 56.61665
880.3120, 54.95407
880.7941, 54.51293
881.2762, 55.02273
881.7584, 55.71316
882.2405, 56.50108
882.7226, 57.28935
883.2047, 58.05307
883.6868, 58.63038
884.1689, 58.75394
884.6511, 58.44275
885.1332, 58.34497
885.6153, 58.64595
886.0974, 58.58681
886.5795, 57.43346
887.0616, 56.63880
887.5438, 57.69348
888.0259, 59.96075
888.5080, 61.58776
888.9901, 62.69884
889.4722, 62.76271
889.9543, 60.72136
890.4365, 58.68320
890.9186, 57.69732
891.4007, 57.42598
891.8828, 57.35532
892.3649, 57.39827
892.8470, 57.76454
893.3292, 58.86877
893.8113, 59.97309
894.2934, 60.17167
894.7755, 59.95980
895.2576, 60.43203
895.7397, 61.46471
896.2219, 61.73672
896.7040, 60.53081
897.1861, 58.94426
897.6682, 58.72042
898.1503, 59.66213
898.6324, 60.13597
899.1146, 60.09937
899.5967, 60.15695
900.0788, 60.50869
900.5609, 60.97509
901.0430, 61.44946
901.5251, 61.87303
902.0073, 61.85937
902.4894, 61.16676
902.9715, 60.52809
903.4536, 59.90704
903.9357, 59.43000
904.4178, 59.21740
904.9000, 59.14680
905.3821, 58.93707
905.8642, 58.53521
906.3463, 58.71948
906.8284, 60.57592
907.3105, 61.97313
907.7927, 61.26878
908.2748, 60.08254
908.7569, 60.24213
909.2390, 61.54525
909.7211, 62.64326
910.2032, 62.91373
910.6854, 62.97536
911.1675, 63.51700
911.6496, 64.15307
912.1317, 64.25261
912.6138, 63.86610
913.0959, 63.04446
913.5781, 61.88864
914.0602, 61.37837
914.5423, 62.64082
915.0244, 64.88707
915.5065, 65.56863
915.9886, 64.67048
916.4708, 64.34568
916.9529, 65.00615
917.4350, 65.33469
917.9171, 64.36311
918.3992, 63.11326
918.8813, 63.55204
919.3635, 66.07122
919.8456, 67.24361
920.3277, 65.95965
920.8098, 65.15533
921.2919, 66.07990
921.7740, 67.11765
922.2562, 66.99827
922.7383, 66.08714
923.2204, 65.51805
923.7025, 65.50739
924.1846, 65.61845
924.6667, 65.99458
925.1489, 66.19728
925.6310, 65.87291
926.1131, 65.25748
926.5952, 64.60775
927.0773, 64.00785
927.5594, 63.54931
928.0416, 63.22853
928.5237, 63.16128
929.0058, 63.75550
929.4879, 64.51293
929.9700, 64.63632
930.4521, 64.14686
930.9343, 63.37616
931.4164, 62.48103
931.8985, 61.68201
932.3806, 61.22634
932.8627, 61.08230
933.3448, 61.40741
933.8270, 62.09788
934.3091, 61.73134
934.7912, 59.93299
935.2733, 58.34291
935.7554, 58.12616
936.2375, 58.90224
936.7197, 59.94852
937.2018, 61.52571
937.6839, 61.73874
938.1660, 59.93151
938.6481, 58.43867
939.1302, 58.24432
939.6124, 58.38723
940.0945, 57.94312
940.5766, 56.95097
941.0587, 55.75740
941.5408, 53.57748
942.0229, 52.39542
942.5051, 53.36245
942.9872, 54.18160
943.4693, 53.36076
943.9514, 51.90929
944.4335, 51.19305
944.9156, 51.38084
945.3978, 51.96444
945.8799, 53.57634
946.3620, 54.55780
946.8441, 53.59053
947.3262, 51.92761
947.8083, 50.55644
948.2905, 49.68269
948.7726, 49.48098
949.2547, 50.02443
949.7368, 50.58570
950.2189, 50.95922
950.7010, 50.70541
951.1832, 48.50097
951.6653, 45.34217
952.1474, 43.67402
952.6295, 43.84531
953.1116, 44.74530
953.5938, 45.73836
954.0759, 46.54965
954.5580, 46.45120
955.0400, 45.71666
955.5222, 46.17193
956.0043, 47.82422
956.4864, 48.17900
956.9685, 46.29994
957.4506, 44.10474
957.9327, 43.51626
958.4149, 44.09587
958.8970, 43.93336
959.3791, 42.78950
959.8612, 42.12719
960.3433, 42.15729
960.8254, 42.39448
961.3076, 42.73304
961.7897, 43.02356
962.2718, 43.04030
962.7539, 42.77782
963.2360, 42.54956
963.7181, 42.46437
964.2003, 42.24438
964.6824, 41.86621
965.1645, 41.35137
965.6466, 40.28437
966.1287, 39.25266
966.6108, 39.52657
967.0930, 41.41911
967.5751, 42.42081
968.0572, 41.39782
968.5393, 40.15464
969.0214, 39.19423
969.5035, 38.49791
969.9857, 37.97048
970.4678, 37.68521
970.9499, 38.01295
971.4320, 39.20987
971.9141, 39.90154
972.3962, 38.71319
972.8784, 37.22779
973.3605, 36.79029
973.8426, 37.03256
974.3247, 37.52657
974.8068, 38.02962
975.2889, 37.99780
975.7711, 37.00217
976.2532, 36.08717
976.7353, 36.86797
977.2174, 38.30144
977.6995, 38.16602
978.1816, 36.91438
978.6638, 36.66208
979.1459, 37.86429
979.6280, 38.86629
980.1101, 38.26694
980.5922, 36.84890
981.0743, 36.29678
981.5565, 36.43017
982.0386, 36.01918
982.5207, 35.00076
983.0028, 34.22868
983.4849, 34.01607
983.9670, 34.41805
984.4492, 35.65376
984.9313, 37.40110
985.4134, 37.97068
985.8955, 37.12576
986.3776, 37.03589
986.8597, 38.25875
987.3419, 38.81216
987.8240, 37.30217
988.3061, 35.47441
988.7882, 36.04875
989.2703, 39.00307
989.7524, 40.42205
990.2346, 39.60513
990.7167, 38.76830
991.1988, 37.84015
991.6809, 37.44637
992.1630, 38.72457
992.6451, 40.35802
993.1273, 39.58997
993.6094, 35.87556
994.0915, 33.78976
994.5736, 34.53422
995.0557, 35.31264
995.5378, 35.68172
996.0200, 35.84922
996.5021, 35.81735
996.9842, 35.73241
997.4663, 36.00216
997.9484, 36.81465
998.4305, 36.94973
998.9127, 34.93712
999.3948, 33.64323
999.8769, 35.10758
1000.359, 37.19133
1000.841, 37.94894
1001.323, 37.56665
1001.805, 36.99402
1002.287, 36.46285
1002.770, 36.05981
1003.252, 35.94284
1003.734, 35.84982
1004.216, 35.54295
1004.698, 35.16987
1005.180, 34.96726
1005.662, 34.90078
1006.144, 34.62209
1006.627, 33.88288
1007.109, 33.64823
1007.591, 35.52484
1008.073, 37.66460
1008.555, 37.69502
1009.037, 36.38365
1009.519, 35.05102
1010.001, 34.13688
1010.483, 34.12111
1010.966, 35.39836
1011.448, 36.82710
1011.930, 37.02935
1012.412, 36.43443
1012.894, 35.57263
1013.376, 34.69061
1013.858, 34.52250
1014.340, 35.18172
1014.823, 36.21410
1015.305, 37.39910
1015.787, 38.24433
1016.269, 37.65780
1016.751, 36.05227
1017.233, 34.80817
1017.715, 34.03238
1018.197, 34.13470
1018.679, 35.21253
1019.162, 36.64132
1019.644, 38.07285
1020.126, 38.93777
1020.608, 37.14197
1021.090, 33.06646
1021.572, 32.54990
1022.054, 35.94911
1022.536, 37.95508
1023.018, 36.76295
1023.501, 34.64455
1023.983, 33.48414
1024.465, 33.23817
1024.947, 34.00536
1025.429, 35.92633
1025.911, 37.19213
1026.393, 37.75903
1026.875, 37.45271
1027.358, 35.95473
1027.840, 34.40479
1028.322, 33.98705
1028.804, 34.36896
1029.286, 34.07013
1029.768, 32.65943
1030.250, 32.51563
1030.732, 34.33838
1031.214, 35.63348
1031.697, 35.43403
1032.179, 34.50795
1032.661, 33.48462
1033.143, 32.42762
1033.625, 31.63141
1034.107, 30.98821
1034.589, 30.90970
1035.071, 31.70588
1035.553, 32.53063
1036.036, 33.30275
1036.518, 33.72139
1037.000, 33.26051
1037.482, 32.13680
1037.964, 31.61985
1038.446, 31.95690
1038.928, 32.43265
1039.410, 33.45047
1039.893, 34.05564
1040.375, 33.66085
1040.857, 32.92472
1041.339, 32.43092
1041.821, 32.14956
1042.303, 31.91311
1042.785, 31.44877
1043.267, 31.55416
1043.750, 32.69242
1044.232, 33.86766
1044.714, 35.13331
1045.196, 35.96339
1045.678, 35.35758
1046.160, 33.77462
1046.642, 33.48409
1047.124, 36.03994
1047.606, 36.84180
1048.089, 33.01249
1048.571, 30.11812
1049.053, 31.62981
1049.535, 34.14792
1050.017, 33.96832
1050.499, 31.70256
1050.981, 30.66050
1051.463, 31.89223
1051.945, 32.92701
1052.428, 33.18906
1052.910, 33.21856
1053.392, 33.47936
1053.874, 33.45474
1054.356, 32.11592
1054.838, 30.02197
1055.320, 29.21055
1055.802, 30.43429
1056.285, 31.74676
1056.767, 32.99517
1057.249, 33.72502
1057.731, 33.62983
1058.213, 32.96813
1058.695, 31.52358
1059.177, 29.78865
1059.659, 29.14801
1060.141, 30.16084
1060.624, 31.11572
1061.106, 31.56003
1061.588, 31.63161
1062.070, 31.10875
1062.552, 30.48428
1063.034, 30.30092
1063.516, 30.42503
1063.998, 30.28358
1064.480, 29.64100
1064.963, 29.52618
1065.445, 31.23928
1065.927, 32.49121
1066.409, 31.53824
1066.891, 30.00691
1067.373, 29.40285
1067.855, 29.58808
1068.337, 29.83271
1068.820, 29.95365
1069.302, 30.32386
1069.784, 31.86346
1070.266, 32.74432
1070.748, 31.48401
1071.230, 29.59047
1071.712, 27.95750
1072.194, 26.97230
1072.677, 27.41905
1073.159, 29.41399
1073.641, 30.78409
1074.123, 29.99891
1074.605, 29.10565
1075.087, 29.05132
1075.569, 29.42596
1076.051, 30.21791
1076.533, 31.02039
1077.016, 31.10064
1077.498, 30.37902
1077.980, 29.65151
1078.462, 29.00941
1078.944, 28.78540
1079.426, 29.75373
1079.908, 30.60472
1080.390, 29.88832
1080.872, 28.51976
1081.354, 28.06229
1081.837, 28.66158
1082.319, 29.30176
1082.801, 29.87553
1083.283, 29.88323
1083.765, 28.24999
1084.247, 26.83872
1084.729, 27.40122
1085.211, 28.79833
1085.694, 29.52910
1086.176, 29.44405
1086.658, 29.00060
1087.140, 28.09623
1087.622, 27.56758
1088.104, 28.18479
1088.586, 28.81542
1089.068, 28.63416
1089.551, 28.14084
1090.033, 27.80062
1090.515, 27.72790
1090.997, 28.10206
1091.479, 29.10913
1091.961, 29.93173
1092.443, 30.32466
1092.925, 30.38075
1093.407, 29.87486
1093.890, 29.27541
1094.372, 29.15197
1094.854, 29.28553
1095.336, 28.82119
1095.818, 27.41673
1096.300, 27.14460
1096.782, 30.10074
1097.264, 32.40618
1097.746, 32.35327
1098.229, 31.24220
1098.711, 29.48291
1099.193, 27.70606
1099.675, 27.09140
1100.157, 27.79836
1100.639, 27.86950
1101.121, 25.37846
1101.603, 24.25798
1102.086, 27.38221
1102.568, 30.24630
1103.050, 29.23307
1103.532, 26.70107
1104.014, 26.12199
1104.496, 27.58443
1104.978, 28.89201
1105.460, 30.48266
1105.943, 30.54576
1106.425, 26.71908
1106.907, 23.82142
1107.389, 24.66137
1107.871, 26.99862
1108.353, 28.95832
1108.835, 30.30088
1109.317, 30.41390
1109.799, 28.76546
1110.281, 27.09474
1110.764, 24.72789
1111.246, 23.41765
1111.728, 24.63725
1112.210, 26.19854
1112.692, 25.96155
1113.174, 24.83025
1113.656, 25.33585
1114.138, 28.05160
1114.621, 29.79570
1115.103, 30.27495
1115.585, 30.24157
1116.067, 29.65996
1116.549, 28.77247
1117.031, 27.37054
1117.513, 26.02288
1117.995, 25.82093
1118.478, 26.78667
1118.960, 26.91298
1119.442, 25.42771
1119.924, 25.00275
1120.406, 26.40426
1120.888, 27.81296
1121.370, 28.64577
1121.852, 28.80129
1122.334, 27.99947
1122.817, 26.45678
1123.299, 25.29399
1123.781, 24.40269
1124.263, 24.48783
1124.745, 25.98370
1125.227, 26.85287
1125.709, 26.26008
1126.191, 25.55695
1126.673, 25.87747
1127.156, 26.85237
1127.638, 27.67828
1128.120, 28.36602
1128.602, 28.39633
1129.084, 27.70555
1129.566, 26.88396
1130.048, 25.97932
1130.530, 25.71618
1131.013, 26.61654
1131.495, 27.84522
1131.977, 28.21179
1132.459, 27.80297
1132.941, 26.63937
1133.423, 24.86545
1133.905, 24.98517
1134.387, 27.16033
1134.870, 28.78094
1135.352, 28.81790
1135.834, 27.91087
1136.316, 26.43073
1136.798, 25.07992
1137.280, 25.90368
1137.762, 28.05836
1138.244, 28.13104
1138.726, 26.53797
1139.208, 26.24483
1139.691, 27.81104
1140.173, 29.42232
1140.655, 29.97118
1141.137, 29.89493
1141.619, 29.55805
1142.101, 29.10817
1142.583, 28.98775
1143.065, 28.89967
1143.548, 27.77599
1144.030, 25.97197
1144.512, 25.43727
1144.994, 26.84798
1145.476, 28.05659
1145.958, 26.77789
1146.440, 25.23422
1146.922, 26.16061
1147.405, 27.76739
1147.887, 27.47519
1148.369, 26.13364
1148.851, 25.99400
1149.333, 27.30057
1149.815, 28.34110
1150.297, 28.25264
1150.779, 27.91205
1151.261, 27.58866
1151.744, 27.47119
1152.226, 28.06758
1152.708, 28.68115
1153.190, 28.25253
1153.672, 27.11273
1154.154, 26.58112
1154.636, 27.08014
1155.118, 27.24933
1155.600, 26.37153
1156.083, 25.53598
1156.565, 24.69046
1157.047, 24.45232
1157.529, 26.15195
1158.011, 28.27466
1158.493, 27.97143
1158.975, 25.17628
1159.457, 23.77525
1159.940, 25.21827
1160.422, 26.06488
1160.904, 25.84650
1161.386, 25.53306
1161.868, 25.23508
1162.350, 25.24256
1162.832, 25.96640
1163.314, 27.13752
1163.796, 27.93499
1164.279, 28.35250
1164.761, 28.32107
1165.243, 27.54560
1165.725, 27.47934
1166.207, 28.71015
1166.689, 29.54647
1167.171, 28.86774
1167.653, 27.74109
1168.135, 27.76569
1168.618, 28.65440
1169.100, 28.71429
1169.582, 27.95923
1170.064, 27.46747
1170.546, 27.32331
1171.028, 26.94937
1171.510, 26.15409
1171.992, 25.75695
1172.474, 26.49729
1172.957, 27.60743
1173.439, 27.60111
1173.921, 26.93394
1174.403, 27.00214
1174.885, 27.61086
1175.367, 28.07196
1175.849, 28.26689
1176.331, 28.39627
1176.814, 28.53102
1177.296, 28.14308
1177.778, 26.29608
1178.260, 24.31943
1178.742, 23.62117
1179.224, 23.84888
1179.706, 24.90997
1180.188, 26.34855
1180.671, 27.44313
1181.153, 28.04458
1181.635, 28.29304
1182.117, 28.16107
1182.599, 27.99034
1183.081, 28.01790
1183.563, 27.99996
1184.045, 27.67326
1184.527, 27.32248
1185.010, 27.24806
1185.492, 27.37415
1185.974, 27.45883
1186.456, 27.45960
1186.938, 27.60416
1187.420, 28.46656
1187.902, 28.65631
1188.384, 26.83515
1188.866, 25.69604
1189.349, 27.10152
1189.831, 29.05302
1190.313, 29.46582
1190.795, 28.69093
1191.277, 28.04678
1191.759, 27.38184
1192.241, 27.69571
1192.723, 29.53087
1193.206, 30.40006
1193.688, 29.72115
1194.170, 28.09383
1194.652, 25.54585
1195.134, 23.48377
1195.616, 24.20037
1196.098, 26.79576
1196.580, 27.11649
1197.063, 25.47842
1197.545, 25.40487
1198.027, 26.93264
1198.509, 27.55015
1198.991, 26.63587
1199.473, 26.17182
1199.955, 27.63657
1200.437, 29.24192
1200.919, 28.51054
1201.401, 26.44263
1201.884, 24.14169
1202.366, 22.15668
1202.848, 21.54198
1203.330, 22.18736
1203.812, 23.83477
1204.294, 26.18184
1204.776, 27.31205
1205.258, 25.16921
1205.741, 23.36466
1206.223, 24.84353
1206.705, 26.86951
1207.187, 27.48383
1207.669, 27.30107
1208.151, 26.96375
1208.633, 26.66989
1209.115, 26.78240
1209.598, 27.51346
1210.080, 27.76198
1210.562, 27.01990
1211.044, 26.29057
1211.526, 25.49348
1212.008, 25.10628
1212.490, 25.55672
1212.972, 26.32734
1213.454, 26.93310
1213.937, 27.30549
1214.419, 26.98622
1214.901, 25.67149
1215.383, 25.34152
1215.865, 26.23859
1216.347, 26.63396
1216.829, 26.09569
1217.311, 25.35681
1217.793, 24.80194
1218.276, 24.60058
1218.758, 25.11373
1219.240, 25.97646
1219.722, 25.93357
1220.204, 25.37467
1220.686, 26.06338
1221.168, 27.60966
1221.650, 27.80535
1222.133, 26.36102
1222.615, 25.18388
1223.097, 25.39414
1223.579, 25.68291
1224.061, 24.56524
1224.543, 23.27591
1225.025, 23.12461
1225.507, 23.41565
1225.990, 23.15826
1226.472, 22.72295
1226.954, 23.15970
1227.436, 24.51044
1227.918, 25.45142
1228.400, 25.39917
1228.882, 25.33416
1229.364, 25.27098
1229.846, 25.51159
1230.328, 26.74553
1230.811, 27.73975
1231.293, 27.36552
1231.775, 26.26340
1232.257, 25.56159
1232.739, 25.25985
1233.221, 25.35641
1233.703, 25.99776
1234.185, 26.37314
1234.668, 26.38416
1235.150, 26.41884
1235.632, 26.65836
1236.114, 26.34506
1236.596, 24.72654
1237.078, 23.04963
1237.560, 23.88640
1238.042, 26.27888
1238.525, 27.14302
1239.007, 26.81120
1239.489, 26.09463
1239.971, 25.27268
1240.453, 24.78519
1240.935, 24.76839
1241.417, 25.13323
1241.899, 25.90917
1242.381, 26.75283
1242.864, 27.81983
1243.346, 28.37834
1243.828, 27.49970
1244.310, 26.03584
1244.792, 24.73740
1245.274, 23.73202
1245.756, 23.01360
1246.238, 22.58743
1246.720, 22.74290
1247.203, 23.83920
1247.685, 25.02238
1248.167, 26.85775
1248.649, 27.74545
1249.131, 26.66672
1249.613, 25.37547
1250.095, 25.29183
1250.577, 25.72064
1251.059, 25.18814
1251.542, 23.84200
1252.024, 23.64264
1252.506, 24.57796
1252.988, 24.72686
1253.470, 23.99144
1253.952, 24.07413
1254.434, 25.45873
1254.916, 27.21548
1255.399, 28.79531
1255.881, 29.51196
1256.363, 27.42872
1256.845, 24.87706
1257.327, 26.03098
1257.809, 28.49325
1258.291, 28.35481
1258.773, 26.42083
1259.255, 25.31322
1259.738, 25.46593
1260.220, 25.57668
1260.702, 25.17899
1261.184, 24.71890
1261.666, 24.36041
1262.148, 23.93582
1262.630, 23.10196
1263.112, 22.47714
1263.594, 22.75317
1264.077, 23.29512
1264.559, 22.99265
1265.041, 22.05642
1265.523, 22.52120
1266.005, 24.87684
1266.487, 25.39716
1266.969, 23.66620
1267.451, 23.44125
1267.934, 25.66474
1268.416, 27.46285
1268.898, 27.21476
1269.380, 26.09109
1269.862, 25.31759
1270.344, 24.84253
1270.826, 24.54389
1271.308, 24.48855
1271.791, 24.86069
1272.273, 25.55111
1272.755, 26.56659
1273.237, 27.66064
1273.719, 27.92836
1274.201, 26.99149
1274.683, 26.49826
1275.165, 28.00675
1275.647, 28.91754
1276.130, 27.63601
1276.612, 26.20786
1277.094, 25.78964
1277.576, 25.86788
1278.058, 25.93396
1278.540, 25.99158
1279.022, 26.02273
1279.504, 26.00150
1279.986, 26.41924
1280.469, 27.40931
1280.951, 27.89728
1281.433, 27.74961
1281.915, 27.06423
1282.397, 25.86596
1282.879, 25.01885
1283.361, 25.25885
1283.843, 25.84037
1284.326, 25.88102
1284.808, 25.37657
##END=



