##NAMES=Mackinawite
##RRUFFID=R060388
##IDEAL CHEMISTRY=(Fe,Ni)_1-1.07_S
##LOCALITY=Hitura, Finland
##OWNER=RRUFF
##SOURCE=Michael Scott
##DESCRIPTION=Bronze thin tabular crystals in parallel packing
##STATUS=The identification of this mineral is not yet confirmed.
##URL=rruff.info/R060388
130.200, 3992.529
130.682, 4045.466
131.164, 4119.906
131.646, 4183.254
132.128, 4180.203
132.611, 4119.848
133.093, 4101.297
133.575, 4162.859
134.057, 4295.676
134.539, 4314.186
135.021, 4382.218
135.503, 4438.239
135.985, 4482.875
136.467, 4482.066
136.949, 4539.939
137.432, 4579.719
137.914, 4595.392
138.396, 4599.519
138.878, 4585.194
139.360, 4558.256
139.842, 4537.468
140.324, 4528.015
140.806, 4512.458
141.289, 4475.858
141.771, 4407.140
142.253, 4350.725
142.735, 4312.687
143.217, 4292.294
143.699, 4279.871
144.181, 4282.533
144.663, 4285.750
145.145, 4250.702
145.628, 4272.768
146.110, 4280.971
146.592, 4276.054
147.074, 4218.723
147.556, 4229.073
148.038, 4212.301
148.520, 4194.417
149.002, 4214.292
149.484, 4164.586
149.967, 4183.862
150.449, 4170.559
150.931, 4209.287
151.413, 4233.944
151.895, 4241.449
152.377, 4234.807
152.859, 4221.696
153.342, 4193.002
153.824, 4165.301
154.306, 4146.487
154.788, 4145.732
155.270, 4145.272
155.752, 4142.297
156.234, 4137.420
156.716, 4135.191
157.198, 4135.461
157.680, 4139.373
158.163, 4147.834
158.645, 4173.002
159.127, 4191.713
159.609, 4190.855
160.091, 4167.570
160.573, 4153.792
161.055, 4165.976
161.538, 4191.771
162.020, 4215.677
162.502, 4241.342
162.984, 4257.147
163.466, 4251.840
163.948, 4216.065
164.430, 4187.119
164.912, 4191.226
165.394, 4215.292
165.876, 4232.318
166.359, 4221.917
166.841, 4203.984
167.323, 4193.965
167.805, 4196.495
168.287, 4205.342
168.769, 4219.577
169.251, 4237.920
169.734, 4255.639
170.216, 4277.104
170.698, 4294.357
171.180, 4297.248
171.662, 4270.394
172.144, 4239.685
172.626, 4227.292
173.108, 4232.469
173.590, 4245.254
174.072, 4265.366
174.555, 4287.351
175.037, 4301.858
175.519, 4299.793
176.001, 4290.654
176.483, 4286.481
176.965, 4287.750
177.447, 4288.637
177.930, 4279.181
178.412, 4264.108
178.894, 4256.454
179.376, 4267.038
179.858, 4288.390
180.340, 4307.755
180.822, 4324.543
181.304, 4338.947
181.786, 4351.255
182.268, 4361.399
182.751, 4346.311
183.233, 4375.203
183.715, 4393.420
184.197, 4401.534
184.679, 4369.290
185.161, 4389.160
185.643, 4388.145
186.125, 4386.273
186.608, 4413.480
187.090, 4387.105
187.572, 4413.850
188.054, 4419.390
188.536, 4434.634
189.018, 4424.524
189.500, 4431.570
189.982, 4442.486
190.464, 4453.643
190.947, 4463.351
191.429, 4457.090
191.911, 4476.812
192.393, 4490.226
192.875, 4497.671
193.357, 4481.275
193.839, 4495.666
194.321, 4497.719
194.804, 4499.267
195.286, 4517.991
195.768, 4505.062
196.250, 4523.514
196.732, 4529.439
197.214, 4541.098
197.696, 4540.343
198.178, 4543.421
198.661, 4558.918
199.143, 4567.538
199.625, 4565.354
200.107, 4577.376
200.589, 4569.676
201.071, 4579.638
201.553, 4593.377
202.035, 4609.533
202.517, 4619.080
202.999, 4616.063
203.482, 4633.191
203.964, 4680.406
204.446, 4716.008
204.928, 4766.608
205.410, 4813.569
205.892, 4857.084
206.374, 4886.843
206.857, 4934.368
207.339, 4974.768
207.821, 5018.696
208.303, 5081.096
208.785, 5147.829
209.267, 5201.625
209.749, 5246.501
210.231, 5297.471
210.713, 5351.480
211.195, 5417.303
211.678, 5509.531
212.160, 5644.173
212.642, 5749.075
213.124, 5802.347
213.606, 5811.333
214.088, 5857.793
214.570, 5955.308
215.053, 6066.469
215.535, 6155.804
216.017, 6215.334
216.499, 6276.293
216.981, 6351.357
217.463, 6441.395
217.945, 6499.112
218.427, 6521.311
218.909, 6514.907
219.391, 6487.775
219.874, 6440.009
220.356, 6369.399
220.838, 6269.737
221.320, 6135.232
221.802, 6016.217
222.284, 5918.149
222.766, 5830.058
223.249, 5729.901
223.731, 5604.038
224.213, 5496.237
224.695, 5421.814
225.177, 5387.607
225.659, 5360.558
226.141, 5343.786
226.623, 5332.124
227.105, 5313.713
227.587, 5276.376
228.070, 5253.920
228.552, 5263.885
229.034, 5324.334
229.516, 5360.753
229.998, 5361.822
230.480, 5342.656
230.962, 5338.026
231.445, 5353.663
231.927, 5374.276
232.409, 5394.924
232.891, 5420.558
233.373, 5433.720
233.855, 5427.203
234.337, 5409.560
234.819, 5407.125
235.301, 5429.761
235.783, 5453.050
236.266, 5465.141
236.748, 5463.051
237.230, 5456.192
237.712, 5443.415
238.194, 5426.102
238.676, 5410.432
239.158, 5399.566
239.640, 5386.466
240.123, 5366.883
240.605, 5337.915
241.087, 5308.853
241.569, 5281.356
242.051, 5254.659
242.533, 5222.711
243.015, 5181.708
243.497, 5140.994
243.980, 5105.743
244.462, 5073.854
244.944, 5051.852
245.426, 5042.728
245.908, 5044.928
246.390, 5046.696
246.872, 5049.296
247.354, 5049.479
247.836, 5045.029
248.319, 5035.708
248.801, 5021.285
249.283, 4998.224
249.765, 4967.787
250.247, 4947.813
250.729, 4939.889
251.211, 4940.739
251.693, 4949.420
252.176, 4972.268
252.658, 4989.305
253.140, 4994.976
253.622, 4990.256
254.104, 4994.243
254.586, 5010.048
255.068, 5031.393
255.550, 5052.124
256.032, 5071.036
256.515, 5093.489
256.997, 5121.903
257.479, 5156.220
257.961, 5184.886
258.443, 5204.395
258.925, 5222.223
259.407, 5246.128
259.889, 5279.334
260.371, 5309.257
260.854, 5330.325
261.336, 5342.652
261.818, 5366.180
262.300, 5404.285
262.782, 5448.523
263.264, 5488.262
263.746, 5518.850
264.228, 5558.087
264.711, 5613.395
265.193, 5684.108
265.675, 5744.953
266.157, 5788.326
266.639, 5832.218
267.121, 5902.278
267.603, 6008.492
268.085, 6100.776
268.568, 6155.148
269.050, 6172.961
269.532, 6240.084
270.014, 6371.435
270.496, 6526.011
270.978, 6660.260
271.460, 6773.850
271.942, 6861.100
272.424, 6907.339
272.906, 6915.457
273.389, 6962.783
273.871, 7058.367
274.353, 7176.343
274.835, 7286.132
275.317, 7384.828
275.799, 7493.100
276.281, 7621.597
276.763, 7768.132
277.246, 7899.415
277.728, 8011.930
278.210, 8117.669
278.692, 8232.679
279.174, 8360.327
279.656, 8478.535
280.138, 8580.162
280.620, 8666.549
281.103, 8752.043
281.585, 8838.637
282.067, 8917.319
282.549, 8976.120
283.031, 9014.613
283.513, 9045.650
283.995, 9074.915
284.477, 9100.354
284.959, 9108.603
285.442, 9098.367
285.924, 9077.181
286.406, 9050.810
286.888, 9019.595
287.370, 8988.695
287.852, 8959.779
288.334, 8932.673
288.816, 8919.241
289.298, 8924.942
289.781, 8906.177
290.263, 8796.551
290.745, 8608.526
291.227, 8433.587
291.709, 8311.448
292.191, 8223.736
292.673, 8121.204
293.155, 8003.213
293.638, 7877.047
294.120, 7744.789
294.602, 7609.489
295.084, 7486.071
295.566, 7388.390
296.048, 7303.271
296.530, 7203.047
297.012, 7088.593
297.495, 6968.583
297.977, 6845.034
298.459, 6722.493
298.941, 6609.334
299.423, 6510.690
299.905, 6423.260
300.387, 6343.129
300.869, 6270.754
301.351, 6200.007
301.834, 6126.720
302.316, 6051.533
302.798, 5977.108
303.280, 5896.849
303.762, 5822.660
304.244, 5769.036
304.726, 5734.825
305.208, 5703.698
305.690, 5664.739
306.173, 5621.090
306.655, 5578.606
307.137, 5542.838
307.619, 5504.391
308.101, 5448.794
308.583, 5379.097
309.065, 5317.380
309.547, 5285.165
310.030, 5265.480
310.512, 5239.703
310.994, 5196.578
311.476, 5153.281
311.958, 5125.364
312.440, 5109.095
312.922, 5088.567
313.404, 5049.233
313.887, 5005.108
314.369, 4968.543
314.851, 4948.660
315.333, 4928.439
315.815, 4895.936
316.297, 4855.741
316.779, 4824.059
317.261, 4813.003
317.743, 4809.086
318.225, 4804.229
318.708, 4800.150
319.190, 4789.805
319.672, 4763.083
320.154, 4727.585
320.636, 4703.521
321.118, 4709.770
321.600, 4719.068
322.082, 4716.800
322.565, 4691.616
323.047, 4671.674
323.529, 4663.133
324.011, 4663.068
324.493, 4664.728
324.975, 4666.611
325.457, 4670.416
325.939, 4677.977
326.422, 4695.783
326.904, 4704.150
327.386, 4699.135
327.868, 4684.277
328.350, 4665.707
328.832, 4624.862
329.314, 4599.213
329.796, 4606.079
330.278, 4667.278
330.761, 4693.438
331.243, 4660.666
331.725, 4604.761
332.207, 4577.627
332.689, 4595.591
333.171, 4616.815
333.653, 4632.229
334.135, 4642.186
334.617, 4643.096
335.100, 4629.612
335.582, 4612.640
336.064, 4605.848
336.546, 4612.082
337.028, 4620.759
337.510, 4630.828
337.992, 4642.154
338.474, 4646.584
338.957, 4641.433
339.439, 4634.625
339.921, 4637.510
340.403, 4653.227
340.885, 4655.163
341.367, 4629.750
341.849, 4586.572
342.331, 4575.296
342.814, 4601.625
343.296, 4632.916
343.778, 4635.613
344.260, 4611.688
344.742, 4601.969
345.224, 4617.484
345.706, 4648.647
346.188, 4677.015
346.670, 4703.030
347.153, 4718.935
347.635, 4707.275
348.117, 4678.136
348.599, 4674.768
349.081, 4712.419
349.563, 4761.457
350.045, 4772.715
350.527, 4751.963
351.009, 4733.048
351.492, 4739.438
351.974, 4761.304
352.456, 4783.253
352.938, 4803.707
353.420, 4821.937
353.902, 4837.040
354.384, 4849.242
354.866, 4859.442
355.349, 4862.838
355.831, 4867.236
356.313, 4883.203
356.795, 4913.622
357.277, 4942.169
357.759, 4957.087
358.241, 4963.234
358.723, 4968.085
359.206, 4971.171
359.688, 4976.698
360.170, 4986.913
360.652, 5001.957
361.134, 5021.216
361.616, 5051.105
362.098, 5082.348
362.580, 5105.548
363.062, 5104.745
363.544, 5108.271
364.027, 5129.287
364.509, 5166.595
364.991, 5197.957
365.473, 5213.302
365.955, 5224.449
366.437, 5239.325
366.919, 5254.296
367.401, 5278.378
367.884, 5319.165
368.366, 5372.547
368.848, 5416.995
369.330, 5446.350
369.812, 5472.526
370.294, 5500.781
370.776, 5533.943
371.258, 5564.060
371.741, 5585.241
372.223, 5605.100
372.705, 5642.912
373.187, 5708.106
373.669, 5775.094
374.151, 5833.589
374.633, 5880.378
375.115, 5931.987
375.598, 5991.923
376.080, 6052.432
376.562, 6099.670
377.044, 6129.560
377.526, 6164.606
378.008, 6212.939
378.490, 6273.280
378.972, 6335.216
379.454, 6397.251
379.936, 6465.105
380.419, 6545.217
380.901, 6637.876
381.383, 6730.417
381.865, 6820.615
382.347, 6908.901
382.829, 6999.713
383.311, 7092.447
383.793, 7183.813
384.276, 7261.186
384.758, 7333.360
385.240, 7429.122
385.722, 7560.522
386.204, 7704.576
386.686, 7832.825
387.168, 7946.663
387.650, 8055.813
388.133, 8155.455
388.615, 8255.481
389.097, 8368.732
389.579, 8501.216
390.061, 8633.855
390.543, 8743.328
391.025, 8844.241
391.507, 8961.703
391.989, 9145.886
392.472, 9320.508
392.954, 9436.250
393.436, 9487.142
393.918, 9523.587
394.400, 9555.259
394.882, 9587.332
395.364, 9625.216
395.846, 9678.394
396.328, 9729.559
396.811, 9785.690
397.293, 9844.514
397.775, 9867.824
398.257, 9809.047
398.739, 9740.205
399.221, 9705.887
399.703, 9767.972
400.185, 9784.407
400.668, 9731.648
401.150, 9628.465
401.632, 9540.661
402.114, 9488.182
402.596, 9423.638
403.078, 9324.923
403.560, 9181.803
404.042, 9033.861
404.525, 8876.711
405.007, 8720.178
405.489, 8582.345
405.971, 8465.971
406.453, 8357.049
406.935, 8253.303
407.417, 8154.677
407.899, 8050.820
408.381, 7943.941
408.864, 7826.649
409.346, 7681.411
409.828, 7513.428
410.310, 7361.049
410.792, 7236.737
411.274, 7131.802
411.756, 7032.721
412.238, 6938.508
412.720, 6846.794
413.203, 6756.738
413.685, 6667.606
414.167, 6577.644
414.649, 6486.019
415.131, 6396.732
415.613, 6314.606
416.095, 6239.218
416.577, 6168.064
417.060, 6111.500
417.542, 6051.957
418.024, 5969.023
418.506, 5855.396
418.988, 5754.886
419.470, 5701.728
419.952, 5669.957
420.434, 5626.802
420.917, 5543.568
421.399, 5465.300
421.881, 5411.990
422.363, 5382.605
422.845, 5350.481
423.327, 5310.871
423.809, 5266.616
424.291, 5220.556
424.773, 5160.056
425.255, 5113.065
425.738, 5087.087
426.220, 5075.154
426.702, 5057.037
427.184, 5029.201
427.666, 5000.188
428.148, 4973.961
428.630, 4952.220
429.112, 4924.838
429.595, 4888.055
430.077, 4849.694
430.559, 4821.124
431.041, 4803.519
431.523, 4788.958
432.005, 4776.638
432.487, 4765.490
432.969, 4747.533
433.452, 4721.883
433.934, 4696.040
434.416, 4677.855
434.898, 4665.701
435.380, 4650.755
435.862, 4628.216
436.344, 4606.990
436.826, 4595.594
437.308, 4594.875
437.791, 4591.563
438.273, 4585.799
438.755, 4570.237
439.237, 4567.328
439.719, 4559.349
440.201, 4551.161
440.683, 4550.031
441.165, 4535.895
441.647, 4534.654
442.130, 4528.266
442.612, 4524.234
443.094, 4515.100
443.576, 4507.540
444.058, 4500.767
444.540, 4502.925
445.022, 4508.799
445.504, 4509.108
445.987, 4497.676
446.469, 4486.495
446.951, 4476.831
447.433, 4468.287
447.915, 4459.491
448.397, 4446.965
448.879, 4438.556
449.361, 4438.353
449.844, 4449.407
450.326, 4455.337
450.808, 4453.433
451.290, 4449.497
451.772, 4452.104
452.254, 4463.694
452.736, 4469.526
453.218, 4461.735
453.700, 4445.937
454.183, 4453.286
454.665, 4487.185
455.147, 4517.107
455.629, 4513.143
456.111, 4482.785
456.593, 4462.527
457.075, 4458.502
457.557, 4463.334
458.039, 4467.926
458.522, 4473.181
459.004, 4482.055
459.486, 4499.853
459.968, 4520.166
460.450, 4538.368
460.932, 4554.215
461.414, 4562.608
461.896, 4554.807
462.379, 4542.591
462.861, 4572.547
463.343, 4592.266
463.825, 4602.298
464.307, 4573.630
464.789, 4594.935
465.271, 4596.213
465.753, 4596.671
466.236, 4625.010
466.718, 4601.971
467.200, 4629.867
467.682, 4637.430
468.164, 4654.300
468.646, 4651.020
469.128, 4653.963
469.610, 4660.007
470.092, 4688.693
470.574, 4712.044
471.057, 4730.334
471.539, 4749.490
472.021, 4770.718
472.503, 4788.787
472.985, 4798.427
473.467, 4799.330
473.949, 4799.332
474.431, 4796.894
474.914, 4798.401
475.396, 4819.982
475.878, 4859.582
476.360, 4896.323
476.842, 4921.421
477.324, 4936.587
477.806, 4942.652
478.288, 4939.567
478.771, 4935.126
479.253, 4936.691
479.735, 4940.941
480.217, 4942.201
480.699, 4927.238
481.181, 4922.527
481.663, 4954.168
482.145, 5011.131
482.627, 5056.596
483.110, 5064.560
483.592, 5066.155
484.074, 5078.708
484.556, 5108.880
485.038, 5134.559
485.520, 5154.008
486.002, 5166.587
486.484, 5171.230
486.966, 5158.000
487.449, 5151.049
487.931, 5156.105
488.413, 5171.564
488.895, 5185.590
489.377, 5199.687
489.859, 5209.651
490.341, 5211.666
490.823, 5205.091
491.306, 5201.220
491.788, 5201.988
492.270, 5203.399
492.752, 5198.383
493.234, 5187.681
493.716, 5177.241
494.198, 5166.776
494.680, 5159.302
495.163, 5163.703
495.645, 5179.139
496.127, 5193.293
496.609, 5194.832
497.091, 5189.891
497.573, 5186.987
498.055, 5189.747
498.537, 5190.674
499.019, 5184.961
499.502, 5174.117
499.984, 5161.161
500.466, 5146.442
500.948, 5130.449
501.430, 5110.469
501.912, 5085.034
502.394, 5070.454
502.876, 5076.867
503.358, 5090.021
503.841, 5099.895
504.323, 5107.315
504.805, 5110.174
505.287, 5108.507
505.769, 5101.976
506.251, 5086.434
506.733, 5055.324
507.215, 5035.418
507.698, 5042.623
508.180, 5074.876
508.662, 5096.722
509.144, 5107.389
509.626, 5111.632
510.108, 5115.427
510.590, 5117.378
511.072, 5110.171
511.555, 5089.188
512.037, 5063.703
512.519, 5040.610
513.001, 5022.088
513.483, 5015.503
513.965, 5037.276
514.447, 5065.011
514.929, 5077.938
515.411, 5073.075
515.894, 5068.225
516.376, 5074.644
516.858, 5083.403
517.340, 5086.024
517.822, 5069.665
518.304, 5059.221
518.786, 5063.786
519.268, 5078.678
519.750, 5085.772
520.233, 5081.792
520.715, 5073.970
521.197, 5061.932
521.679, 5042.562
522.161, 5041.417
522.643, 5065.436
523.125, 5095.045
523.607, 5110.001
524.089, 5110.103
524.572, 5102.867
525.054, 5088.128
525.536, 5068.922
526.018, 5047.413
526.500, 5024.860
526.982, 5012.839
527.464, 5026.228
527.946, 5051.511
528.429, 5069.738
528.911, 5079.556
529.393, 5082.938
529.875, 5074.949
530.357, 5063.557
530.839, 5058.743
531.321, 5076.551
531.803, 5085.735
532.286, 5066.640
532.768, 5028.849
533.250, 5000.614
533.732, 4997.435
534.214, 4995.365
534.696, 4983.231
535.178, 4952.694
535.660, 4983.516
536.143, 4999.442
536.625, 5001.276
537.107, 4946.803
537.589, 4965.038
538.071, 4954.134
538.553, 4942.037
539.035, 4970.504
539.517, 4924.221
539.999, 4952.046
540.482, 4950.289
540.964, 4962.070
541.446, 4944.534
541.928, 4936.052
542.410, 4956.898
542.892, 4961.506
543.374, 4940.594
543.856, 4953.237
544.338, 4919.297
544.821, 4949.747
545.303, 4975.891
545.785, 4974.834
546.267, 4955.472
546.749, 4935.222
547.231, 4909.152
547.713, 4893.475
548.195, 4899.599
548.677, 4929.987
549.160, 4948.524
549.642, 4948.846
550.124, 4942.785
550.606, 4938.094
551.088, 4937.973
551.570, 4927.723
552.052, 4899.907
552.534, 4870.423
553.016, 4872.135
553.499, 4907.001
553.981, 4932.589
554.463, 4929.212
554.945, 4909.000
555.427, 4902.679
555.909, 4909.515
556.391, 4919.028
556.873, 4925.306
557.356, 4928.991
557.838, 4930.187
558.320, 4928.146
558.802, 4927.446
559.284, 4930.469
559.766, 4936.829
560.248, 4946.044
560.730, 4968.557
561.213, 4982.710
561.695, 4972.029
562.177, 4943.018
562.659, 4936.162
563.141, 4970.171
563.623, 5006.972
564.105, 5033.691
564.587, 5049.868
565.070, 5055.369
565.552, 5046.207
566.034, 5033.041
566.516, 5026.387
566.998, 5026.395
567.480, 5027.973
567.962, 5028.645
568.444, 5033.125
568.926, 5052.220
569.409, 5083.716
569.891, 5117.233
570.373, 5151.020
570.855, 5181.219
571.337, 5201.957
571.819, 5213.512
572.301, 5220.377
572.783, 5210.917
573.265, 5206.207
573.748, 5226.091
574.230, 5290.633
574.712, 5348.921
575.194, 5395.916
575.676, 5429.033
576.158, 5443.770
576.640, 5413.269
577.122, 5405.033
577.604, 5442.349
578.087, 5515.902
578.569, 5557.178
579.051, 5557.286
579.533, 5557.263
580.015, 5582.657
580.497, 5631.229
580.979, 5685.564
581.461, 5747.386
581.944, 5800.017
582.426, 5812.207
582.908, 5801.262
583.390, 5808.484
583.872, 5854.700
584.354, 5909.092
584.836, 5939.033
585.318, 5955.920
585.800, 5988.392
586.283, 6066.062
586.765, 6145.668
587.247, 6210.896
587.729, 6260.212
588.211, 6293.808
588.693, 6286.725
589.175, 6283.637
589.657, 6312.653
590.140, 6395.248
590.622, 6454.026
591.104, 6477.169
591.586, 6489.257
592.068, 6532.133
592.550, 6607.381
593.032, 6676.412
593.514, 6731.257
593.997, 6770.628
594.479, 6781.740
594.961, 6769.116
595.443, 6763.059
595.925, 6789.017
596.407, 6828.488
596.889, 6863.343
597.371, 6892.487
597.854, 6912.085
598.336, 6916.226
598.818, 6912.198
599.300, 6906.425
599.782, 6897.020
600.264, 6890.350
600.746, 6890.429
601.228, 6893.132
601.710, 6892.044
602.193, 6890.541
602.675, 6878.759
603.157, 6853.534
603.639, 6815.944
604.121, 6762.567
604.603, 6687.972
605.085, 6633.951
605.567, 6645.753
606.049, 6703.252
606.532, 6729.106
607.014, 6716.801
607.496, 6692.038
607.978, 6677.596
608.460, 6667.246
608.942, 6651.564
609.424, 6627.068
609.906, 6597.550
610.388, 6552.597
610.871, 6504.689
611.353, 6465.084
611.835, 6448.384
612.317, 6426.113
612.799, 6398.593
613.281, 6350.054
613.763, 6328.284
614.245, 6292.386
614.727, 6267.716
615.210, 6236.358
615.692, 6196.426
616.174, 6174.472
616.656, 6174.167
617.138, 6179.770
617.620, 6173.302
618.102, 6157.281
618.584, 6139.776
619.067, 6119.333
619.549, 6104.442
620.031, 6112.722
620.513, 6133.935
620.995, 6143.657
621.477, 6120.506
621.959, 6091.969
622.441, 6070.488
622.924, 6056.329
623.406, 6045.980
623.888, 6034.776
624.370, 6030.890
624.852, 6041.398
625.334, 6075.070
625.816, 6087.832
626.298, 6072.619
626.781, 6047.962
627.263, 6030.368
627.745, 6019.790
628.227, 6024.343
628.709, 6050.024
629.191, 6081.858
629.673, 6097.077
630.155, 6098.174
630.637, 6093.162
631.120, 6074.626
631.602, 6059.968
632.084, 6070.193
632.566, 6101.098
633.048, 6103.130
633.530, 6147.986
634.012, 6182.447
634.494, 6207.073
634.976, 6192.402
635.459, 6228.479
635.941, 6244.214
636.423, 6259.117
636.905, 6291.135
637.387, 6289.935
637.869, 6299.024
638.351, 6291.488
638.833, 6277.310
639.315, 6273.485
639.798, 6278.846
640.280, 6282.765
640.762, 6279.551
641.244, 6274.806
641.726, 6274.676
642.208, 6279.526
642.690, 6290.654
643.172, 6320.709
643.654, 6348.264
644.137, 6354.932
644.619, 6337.761
645.101, 6323.173
645.583, 6346.270
646.065, 6360.218
646.547, 6365.511
647.029, 6336.223
647.511, 6351.588
647.994, 6349.059
648.476, 6345.795
648.958, 6357.593
649.440, 6374.649
649.922, 6384.139
650.404, 6386.467
650.886, 6360.188
651.368, 6370.850
651.851, 6366.707
652.333, 6361.957
652.815, 6377.818
653.297, 6355.699
653.779, 6369.212
654.261, 6357.016
654.743, 6346.971
655.225, 6353.097
655.708, 6352.264
656.190, 6326.291
656.672, 6261.825
657.154, 6225.561
657.636, 6235.285
658.118, 6253.264
658.600, 6247.473
659.082, 6214.789
659.565, 6177.852
660.047, 6135.384
660.529, 6097.281
661.011, 6086.268
661.493, 6094.701
661.975, 6089.850
662.457, 6055.379
662.939, 6009.653
663.421, 5967.670
663.904, 5929.646
664.386, 5896.728
664.868, 5873.721
665.350, 5851.839
665.832, 5826.185
666.314, 5796.529
666.796, 5770.436
667.278, 5747.128
667.760, 5728.456
668.243, 5717.291
668.725, 5715.921
669.207, 5705.618
669.689, 5686.187
670.171, 5657.233
670.653, 5611.678
671.135, 5554.275
671.617, 5506.775
672.099, 5473.694
672.582, 5450.108
673.064, 5439.990
673.546, 5434.580
674.028, 5418.071
674.510, 5368.912
674.992, 5323.960
675.474, 5305.103
675.956, 5303.409
676.438, 5289.900
676.921, 5252.300
677.403, 5213.419
677.885, 5179.391
678.367, 5149.714
678.849, 5118.853
679.331, 5087.167
679.813, 5053.629
680.295, 5014.513
680.778, 4972.216
681.260, 4942.912
681.742, 4927.144
682.224, 4915.139
682.706, 4899.843
683.188, 4881.980
683.670, 4861.811
684.152, 4837.881
684.635, 4816.029
685.117, 4807.157
685.599, 4798.888
686.081, 4776.164
686.563, 4714.370
687.045, 4667.864
687.527, 4646.333
688.009, 4640.653
688.492, 4631.300
688.974, 4617.632
689.456, 4605.259
689.938, 4599.107
690.420, 4593.439
690.902, 4566.525
691.384, 4521.667
691.866, 4484.514
692.348, 4479.189
692.831, 4483.965
693.313, 4478.619
693.795, 4461.979
694.277, 4436.777
694.759, 4392.122
695.241, 4348.100
695.723, 4318.396
696.205, 4311.021
696.687, 4297.004
697.170, 4271.074
697.652, 4244.485
698.134, 4230.333
698.616, 4230.935
699.098, 4219.155
699.580, 4188.968
700.062, 4155.598
700.544, 4147.221
701.026, 4153.917
701.509, 4144.345
701.991, 4098.013
702.473, 4046.996
702.955, 4014.771
703.437, 3997.947
703.919, 3989.657
704.401, 4002.421
704.883, 4007.939
705.365, 3988.885
705.848, 3951.865
706.330, 3935.748
706.812, 3953.933
707.294, 3965.242
707.776, 3951.205
708.258, 3914.244
708.740, 3868.484
709.222, 3812.768
709.705, 3772.347
710.187, 3780.827
710.669, 3813.253
711.151, 3831.042
711.633, 3830.174
712.115, 3816.912
712.597, 3784.583
713.079, 3747.335
713.562, 3718.005
714.044, 3699.381
714.526, 3687.419
715.008, 3682.610
715.490, 3682.801
715.972, 3688.352
716.454, 3703.823
716.936, 3704.160
717.419, 3683.435
717.901, 3650.145
718.383, 3609.708
718.865, 3567.201
719.347, 3544.702
719.829, 3563.928
720.311, 3591.833
720.793, 3595.401
721.275, 3580.887
721.758, 3565.532
722.240, 3557.970
722.722, 3549.206
723.204, 3533.687
723.686, 3512.238
724.168, 3496.107
724.650, 3483.407
725.132, 3479.494
725.614, 3491.359
726.097, 3516.889
726.579, 3525.083
727.061, 3515.028
727.543, 3500.325
728.025, 3489.163
728.507, 3460.225
728.989, 3474.101
729.471, 3477.588
729.953, 3471.238
730.436, 3425.595
730.918, 3430.690
731.400, 3415.452
731.882, 3399.381
732.364, 3411.619
732.846, 3371.689
733.328, 3383.477
733.810, 3370.842
734.293, 3340.990
734.775, 3320.553
735.257, 3312.956
735.739, 3313.933
736.221, 3322.367
736.703, 3334.729
737.185, 3337.382
737.667, 3320.828
738.149, 3300.463
738.632, 3292.405
739.114, 3290.128
739.596, 3279.769
740.078, 3239.860
740.560, 3209.672
741.042, 3209.939
741.524, 3230.388
742.006, 3231.252
742.489, 3200.086
742.971, 3183.990
743.453, 3208.469
743.935, 3260.662
744.417, 3284.559
744.899, 3281.206
745.381, 3268.062
745.863, 3249.439
746.346, 3230.953
746.828, 3219.100
747.310, 3213.934
747.792, 3211.816
748.274, 3216.342
748.756, 3219.229
749.238, 3214.608
749.720, 3200.459
750.203, 3187.779
750.685, 3176.948
751.167, 3167.323
751.649, 3159.355
752.131, 3153.170
752.613, 3141.036
753.095, 3120.724
753.577, 3106.161
754.059, 3126.217
754.542, 3103.427
755.024, 3131.129
755.506, 3146.573
755.988, 3150.421
756.470, 3107.935
756.952, 3125.279
757.434, 3118.645
757.916, 3123.883
758.398, 3133.320
758.881, 3126.123
759.363, 3114.516
759.845, 3122.208
760.327, 3151.326
760.809, 3166.581
761.291, 3157.760
761.773, 3136.166
762.255, 3112.119
762.737, 3089.211
763.220, 3076.701
763.702, 3084.264
764.184, 3097.799
764.666, 3115.455
765.148, 3133.215
765.630, 3140.113
766.112, 3124.028
766.594, 3109.267
767.076, 3099.241
767.559, 3094.294
768.041, 3099.029
768.523, 3115.220
769.005, 3125.856
769.487, 3121.274
769.969, 3106.629
770.451, 3089.533
770.933, 3064.792
771.416, 3094.460
771.898, 3110.921
772.380, 3114.884
772.862, 3068.917
773.344, 3087.425
773.826, 3080.094
774.308, 3071.703
774.790, 3099.285
775.273, 3060.581
775.755, 3087.592
776.237, 3088.371
776.719, 3101.156
777.201, 3087.943
777.683, 3082.759
778.165, 3103.583
778.647, 3110.006
779.130, 3093.800
779.612, 3107.348
780.094, 3067.735
780.576, 3074.771
781.058, 3101.935
781.540, 3087.036
782.022, 3077.600
782.504, 3103.596
782.986, 3120.786
783.469, 3111.324
783.951, 3069.599
784.433, 3051.669
784.915, 3062.920
785.397, 3083.954
785.879, 3099.886
786.361, 3109.364
786.843, 3106.007
787.325, 3084.514
787.808, 3068.623
788.290, 3079.662
788.772, 3101.291
789.254, 3116.408
789.736, 3122.681
790.218, 3120.133
790.700, 3101.020
791.182, 3080.628
791.664, 3079.640
792.147, 3099.050
792.629, 3117.301
793.111, 3131.142
793.593, 3141.683
794.075, 3153.611
794.557, 3162.774
795.039, 3159.014
795.521, 3131.096
796.003, 3103.657
796.486, 3086.135
796.968, 3077.775
797.450, 3078.505
797.932, 3095.646
798.414, 3109.765
798.896, 3121.281
799.378, 3126.460
799.860, 3111.328
800.343, 3076.746
800.825, 3061.352
801.307, 3084.642
801.789, 3116.954
802.271, 3115.095
802.753, 3092.487
803.235, 3079.617
803.717, 3103.127
804.200, 3122.412
804.682, 3114.310
805.164, 3091.724
805.646, 3090.370
806.128, 3124.933
806.610, 3148.220
807.092, 3147.950
807.574, 3131.682
808.057, 3115.705
808.539, 3100.125
809.021, 3085.693
809.503, 3072.783
809.985, 3061.093
810.467, 3049.274
810.949, 3038.460
811.431, 3031.791
811.914, 3031.309
812.396, 3034.290
812.878, 3045.789
813.360, 3060.158
813.842, 3052.061
814.324, 3010.433
814.806, 2990.967
815.288, 3023.276
815.770, 3081.639
816.253, 3103.959
816.735, 3094.959
817.217, 3077.677
817.699, 3054.531
818.181, 3036.131
818.663, 3032.844
819.145, 3041.442
819.627, 3047.569
820.109, 3044.919
820.592, 3043.884
821.074, 3048.507
821.556, 3056.785
822.038, 3058.136
822.520, 3052.141
823.002, 3045.395
823.484, 3039.781
823.966, 3036.207
824.448, 3035.999
824.931, 3039.182
825.413, 3045.918
825.895, 3065.074
826.377, 3079.173
826.859, 3072.989
827.341, 3050.225
827.823, 3044.567
828.305, 3061.208
828.787, 3084.513
829.270, 3109.837
829.752, 3137.534
830.234, 3119.635
830.716, 3152.309
831.198, 3172.707
831.680, 3181.488
832.162, 3143.861
832.644, 3166.161
833.127, 3164.444
833.609, 3161.743
834.091, 3192.478
834.573, 3161.600
835.055, 3191.805
835.537, 3197.626
836.019, 3214.607
836.501, 3207.424
836.984, 3207.068
837.466, 3247.468
837.948, 3229.053
838.430, 3208.228
838.912, 3269.284
839.394, 3179.455
839.876, 3239.212
840.358, 3228.323
840.841, 3240.582
841.323, 3222.216
841.805, 3234.118
842.287, 3238.672
842.769, 3236.274
843.251, 3206.099
843.733, 3211.791
844.215, 3203.110
844.697, 3193.839
845.180, 3204.580
845.662, 3178.445
846.144, 3188.869
846.626, 3145.514
847.108, 3156.667
847.590, 3154.587
848.072, 3139.988
848.554, 3075.375
849.036, 3075.347
849.519, 3049.430
850.001, 3022.459
850.483, 3031.520
850.965, 2998.200
851.447, 2968.302
851.929, 2968.626
852.411, 2965.057
852.893, 2958.109
853.375, 2949.553
853.858, 2931.556
854.340, 2920.901
854.822, 2931.339
855.304, 2956.550
855.786, 2976.635
856.268, 2992.652
856.750, 2999.206
857.232, 2992.827
857.714, 2978.594
858.197, 2968.278
858.679, 2961.611
859.161, 2957.661
859.643, 2959.504
860.125, 2959.063
860.607, 2941.208
861.089, 2916.163
861.571, 2904.188
862.054, 2926.410
862.536, 2943.686
863.018, 2946.955
863.500, 2923.372
863.982, 2947.777
864.464, 2960.534
864.946, 2962.268
865.428, 2919.963
865.911, 2934.525
866.393, 2926.298
866.875, 2917.135
867.357, 2939.701
867.839, 2903.802
868.321, 2925.864
868.803, 2920.552
869.285, 2948.163
869.768, 2947.528
870.250, 2900.766
870.732, 2878.921
871.214, 2896.599
871.696, 2926.360
872.178, 2930.585
872.660, 2914.601
873.142, 2891.359
873.624, 2857.519
874.107, 2839.532
874.589, 2873.525
875.071, 2925.295
875.553, 2956.049
876.035, 2945.271
876.517, 2936.374
876.999, 2926.490
877.481, 2922.429
877.963, 2939.197
878.446, 2972.979
878.928, 2976.699
879.410, 2942.457
879.892, 2906.820
880.374, 2903.429
880.856, 2916.826
881.338, 2933.288
881.820, 2954.400
882.302, 2961.044
882.785, 2930.898
883.267, 2903.086
883.749, 2903.979
884.231, 2937.190
884.713, 2951.145
885.195, 2944.407
885.677, 2932.143
886.159, 2924.191
886.642, 2919.685
887.124, 2918.096
887.606, 2919.277
888.088, 2920.189
888.570, 2917.260
889.052, 2915.939
889.534, 2918.063
890.016, 2923.626
890.498, 2938.650
890.981, 2966.206
891.463, 2988.246
891.945, 2991.666
892.427, 2983.827
892.909, 2980.071
893.391, 2979.897
893.873, 2980.751
894.356, 2985.109
894.838, 2986.226
895.320, 2974.625
895.802, 2955.073
896.284, 2953.805
896.766, 2979.561
897.248, 2998.993
897.730, 2999.391
898.212, 2989.582
898.695, 2992.713
899.177, 3004.482
899.659, 3007.441
900.141, 2984.065
900.623, 2961.597
901.105, 2958.341
901.587, 2967.351
902.069, 2974.870
902.552, 2984.692
903.034, 2982.290
903.516, 2960.688
903.998, 2933.756
904.480, 2925.972
904.962, 2933.903
905.444, 2938.987
905.926, 2937.724
906.408, 2930.346
906.891, 2904.556
907.373, 2878.697
907.855, 2874.477
908.337, 2913.972
908.819, 2944.517
909.301, 2967.355
909.783, 2977.047
910.265, 2960.232
910.747, 2920.527
911.230, 2905.898
911.712, 2920.920
912.194, 2940.011
912.676, 2942.362
913.158, 2937.324
913.640, 2930.787
914.122, 2921.946
914.604, 2927.601
915.086, 2969.717
915.569, 3001.093
916.051, 2992.054
916.533, 2947.055
917.015, 2930.297
917.497, 2941.686
917.979, 2959.787
918.461, 2974.182
918.943, 2985.881
919.425, 2998.955
919.908, 3011.301
920.390, 3012.787
920.872, 2984.876
921.354, 2964.459
921.836, 2962.139
922.318, 2972.986
922.800, 2984.377
923.282, 2996.072
923.765, 2997.494
924.247, 2980.046
924.729, 2958.052
925.211, 2940.475
925.693, 2931.961
926.175, 2940.703
926.657, 2992.096
927.139, 3031.069
927.622, 3050.082
928.104, 3054.078
928.586, 3045.343
929.068, 3023.416
929.550, 3011.752
930.032, 3016.012
930.514, 3017.539
930.996, 2986.442
931.479, 2945.374
931.961, 2924.422
932.443, 2931.796
932.925, 2948.181
933.407, 2983.658
933.889, 3012.511
934.371, 3015.296
934.853, 2990.440
935.335, 2983.185
935.818, 2994.488
936.300, 3004.521
936.782, 2994.426
937.264, 2977.970
937.746, 2969.629
938.228, 2969.852
938.710, 2976.571
939.192, 3002.580
939.674, 3019.031
940.157, 3014.015
940.639, 2993.756
941.121, 2981.834
941.603, 2978.224
942.085, 2979.627
942.567, 2987.147
943.049, 2995.785
943.531, 3000.660
944.013, 3002.113
944.496, 3000.735
944.978, 2995.994
945.460, 2988.901
945.942, 2977.182
946.424, 2965.695
946.906, 2961.533
947.388, 2964.545
947.870, 2967.595
948.352, 2969.549
948.835, 2972.822
949.317, 2989.484
949.799, 2972.867
950.281, 2995.647
950.763, 3008.865
951.245, 3013.032
951.727, 2981.046
952.209, 2995.745
952.692, 2991.735
953.174, 2986.957
953.656, 3008.227
954.138, 2981.499
954.620, 3002.356
955.102, 3004.218
955.584, 3014.773
956.066, 3006.503
956.549, 3004.048
957.031, 3020.424
957.513, 3026.373
957.995, 3015.936
958.477, 3027.044
958.959, 2999.659
959.441, 3006.052
959.923, 3027.019
960.406, 3017.529
960.888, 3028.981
961.370, 3032.457
961.852, 2999.686
962.334, 3029.953
962.816, 3015.746
963.298, 2966.240
963.780, 2940.329
964.263, 2943.246
964.745, 2959.451
965.227, 2979.260
965.709, 2999.836
966.191, 3009.168
966.673, 3006.488
967.155, 3002.098
967.637, 3005.593
968.119, 3007.431
968.602, 2995.002
969.084, 2968.671
969.566, 2971.075
970.048, 3014.597
970.530, 3045.609
971.012, 3035.563
971.494, 3002.286
971.976, 2982.107
972.458, 2973.237
972.941, 2969.860
973.423, 2972.234
973.905, 2976.501
974.387, 2979.401
974.869, 2984.161
975.351, 2997.880
975.833, 3024.496
976.315, 3039.631
976.797, 3038.886
977.280, 3032.267
977.762, 3027.010
978.244, 3025.841
978.726, 3036.259
979.208, 3062.212
979.690, 3080.496
980.172, 3079.523
980.654, 3071.405
981.136, 3060.465
981.619, 3046.930
982.101, 3040.268
982.583, 3040.547
983.065, 3044.728
983.547, 3052.594
984.029, 3062.241
984.511, 3075.410
984.994, 3088.948
985.476, 3093.417
985.958, 3074.190
986.440, 3061.934
986.922, 3061.808
987.404, 3069.933
987.886, 3087.186
988.368, 3109.493
988.850, 3102.012
989.333, 3048.661
989.815, 3003.962
990.297, 3027.203
990.779, 3071.920
991.261, 3089.109
991.743, 3059.331
992.225, 3052.223
992.707, 3075.644
993.190, 3101.408
993.672, 3111.335
994.154, 3108.669
994.636, 3099.437
995.118, 3085.528
995.600, 3077.083
996.082, 3084.096
996.564, 3093.374
997.046, 3097.823
997.529, 3099.875
998.011, 3104.096
998.493, 3108.455
998.975, 3130.035
999.457, 3097.990
999.939, 3146.588
1000.421, 3175.610
1000.903, 3186.109
1001.385, 3122.604
1001.868, 3154.667
1002.350, 3148.427
1002.832, 3140.616
1003.314, 3186.121
1003.796, 3133.381
1004.278, 3178.040
1004.760, 3183.819
1005.242, 3207.392
1005.724, 3192.433
1006.207, 3189.384
1006.689, 3224.872
1007.171, 3239.016
1007.653, 3219.622
1008.135, 3244.327
1008.617, 3190.240
1009.099, 3205.294
1009.581, 3215.585
1010.064, 3222.140
1010.546, 3241.677
1011.028, 3266.171
1011.510, 3267.109
1011.992, 3229.927
1012.474, 3196.503
1012.956, 3190.812
1013.438, 3199.228
1013.920, 3212.491
1014.403, 3233.350
1014.885, 3234.962
1015.367, 3213.777
1015.849, 3198.054
1016.331, 3212.596
1016.813, 3241.056
1017.295, 3263.836
1017.777, 3280.189
1018.260, 3289.005
1018.742, 3277.840
1019.224, 3275.734
1019.706, 3294.799
1020.188, 3320.879
1020.670, 3325.966
1021.152, 3311.990
1021.634, 3295.219
1022.116, 3277.364
1022.599, 3266.116
1023.081, 3267.752
1023.563, 3279.219
1024.045, 3299.904
1024.527, 3332.924
1025.009, 3359.125
1025.491, 3379.468
1025.973, 3389.692
1026.456, 3379.407
1026.938, 3360.716
1027.420, 3368.508
1027.902, 3395.055
1028.384, 3411.438
1028.866, 3387.247
1029.348, 3371.004
1029.830, 3388.236
1030.313, 3417.601
1030.795, 3427.638
1031.277, 3417.766
1031.759, 3400.576
1032.241, 3375.822
1032.723, 3356.818
1033.205, 3361.070
1033.687, 3375.103
1034.169, 3385.470
1034.651, 3390.326
1035.134, 3392.436
1035.616, 3387.821
1036.098, 3389.564
1036.580, 3407.771
1037.062, 3433.966
1037.544, 3441.371
1038.026, 3433.364
1038.508, 3421.416
1038.991, 3403.016
1039.473, 3391.391
1039.955, 3395.614
1040.437, 3408.286
1040.919, 3422.442
1041.401, 3440.298
1041.883, 3441.010
1042.365, 3421.177
1042.848, 3401.942
1043.330, 3406.050
1043.812, 3419.894
1044.294, 3431.496
1044.776, 3439.227
1045.258, 3434.606
1045.740, 3397.728
1046.222, 3381.569
1046.704, 3410.179
1047.187, 3459.790
1047.669, 3472.983
1048.151, 3457.179
1048.633, 3439.798
1049.115, 3426.146
1049.597, 3420.312
1050.079, 3430.422
1050.561, 3445.780
1051.043, 3457.886
1051.526, 3468.607
1052.008, 3458.535
1052.490, 3424.887
1052.972, 3400.200
1053.454, 3415.787
1053.936, 3448.665
1054.418, 3479.932
1054.900, 3505.348
1055.383, 3511.086
1055.865, 3466.114
1056.347, 3445.139
1056.829, 3466.969
1057.311, 3505.427
1057.793, 3521.366
1058.275, 3518.380
1058.757, 3505.966
1059.240, 3483.969
1059.722, 3467.726
1060.204, 3469.948
1060.686, 3477.446
1061.168, 3481.508
1061.650, 3482.386
1062.132, 3487.814
1062.614, 3498.492
1063.096, 3503.798
1063.578, 3496.527
1064.061, 3484.578
1064.543, 3468.828
1065.025, 3456.632
1065.507, 3461.556
1065.989, 3518.834
1066.471, 3479.279
1066.953, 3528.271
1067.435, 3555.769
1067.918, 3562.927
1068.400, 3488.829
1068.882, 3519.658
1069.364, 3508.436
1069.846, 3495.491
1070.328, 3541.087
1070.810, 3478.808
1071.292, 3523.476
1071.775, 3525.452
1072.257, 3546.967
1072.739, 3526.173
1073.221, 3518.447
1073.703, 3553.044
1074.185, 3564.206
1074.667, 3538.542
1075.149, 3561.299
1075.631, 3497.542
1076.114, 3509.702
1076.596, 3516.633
1077.078, 3539.862
1077.560, 3554.358
1078.042, 3544.202
1078.524, 3521.953
1079.006, 3510.406
1079.488, 3507.432
1079.971, 3507.145
1080.453, 3514.234
1080.935, 3513.869
1081.417, 3497.754
1081.899, 3480.821
1082.381, 3483.504
1082.863, 3502.002
1083.345, 3506.087
1083.828, 3493.741
1084.310, 3485.527
1084.792, 3505.559
1085.274, 3524.745
1085.756, 3523.147
1086.238, 3504.614
1086.720, 3481.619
1087.202, 3451.128
1087.684, 3441.370
1088.167, 3464.379
1088.649, 3496.210
1089.131, 3509.798
1089.613, 3513.615
1090.095, 3519.698
1090.577, 3533.817
1091.059, 3531.836
1091.541, 3504.189
1092.023, 3480.350
1092.506, 3478.345
1092.988, 3490.689
1093.470, 3500.638
1093.952, 3507.745
1094.434, 3510.588
1094.916, 3504.219
1095.398, 3498.834
1095.880, 3495.081
1096.363, 3495.007
1096.845, 3500.861
1097.327, 3512.548
1097.809, 3535.408
1098.291, 3569.119
1098.773, 3586.087
1099.255, 3538.749
1099.737, 3492.902
1100.219, 3509.195
1100.702, 3567.850
1101.184, 3582.151
1101.666, 3541.782
1102.148, 3518.762
1102.630, 3532.257
1103.112, 3553.229
1103.594, 3542.168
1104.076, 3520.796
1104.558, 3520.129
1105.041, 3550.166
1105.523, 3561.699
1106.005, 3542.602
1106.487, 3525.486
1106.969, 3527.159
1107.451, 3538.844
1107.933, 3538.020
1108.415, 3529.547
1108.898, 3536.547
1109.380, 3539.793
1109.862, 3539.485
1110.344, 3524.974
1110.826, 3528.802
1111.308, 3525.282
1111.790, 3521.459
1112.272, 3527.869
1112.755, 3515.421
1113.237, 3521.668
1113.719, 3519.088
1114.201, 3524.161
1114.683, 3521.593
1115.165, 3516.882
1115.647, 3522.798
1116.129, 3540.820
1116.611, 3556.450
1117.094, 3568.735
1117.576, 3570.995
1118.058, 3547.099
1118.540, 3517.096
1119.022, 3500.857
1119.504, 3499.847
1119.986, 3494.203
1120.468, 3478.191
1120.950, 3475.163
1121.433, 3496.695
1121.915, 3525.375
1122.397, 3536.179
1122.879, 3533.629
1123.361, 3520.612
1123.843, 3488.172
1124.325, 3483.315
1124.807, 3527.264
1125.290, 3572.394
1125.772, 3593.986
1126.254, 3596.234
1126.736, 3588.221
1127.218, 3573.180
1127.700, 3562.564
1128.182, 3567.188
1128.664, 3569.083
1129.146, 3561.447
1129.629, 3549.427
1130.111, 3531.556
1130.593, 3509.154
1131.075, 3524.743
1131.557, 3576.456
1132.039, 3614.124
1132.521, 3584.054
1133.003, 3550.715
1133.485, 3563.109
1133.968, 3598.331
1134.450, 3605.494
1134.932, 3581.584
1135.414, 3555.052
1135.896, 3527.279
1136.378, 3515.700
1136.860, 3557.600
1137.342, 3608.495
1137.825, 3622.693
1138.307, 3598.524
1138.789, 3590.615
1139.271, 3606.531
1139.753, 3607.899
1140.235, 3575.567
1140.717, 3542.654
1141.199, 3568.091
1141.682, 3617.386
1142.164, 3636.926
1142.646, 3606.748
1143.128, 3591.806
1143.610, 3601.939
1144.092, 3614.880
1144.574, 3619.472
1145.056, 3619.544
1145.538, 3623.498
1146.021, 3630.150
1146.503, 3636.529
1146.985, 3643.686
1147.467, 3647.117
1147.949, 3644.473
1148.431, 3641.127
1148.913, 3639.518
1149.395, 3640.753
1149.878, 3656.885
1150.360, 3683.464
1150.842, 3694.428
1151.324, 3649.983
1151.806, 3620.253
1152.288, 3636.643
1152.770, 3672.426
1153.252, 3695.370
1153.734, 3706.455
1154.217, 3721.255
1154.699, 3740.684
1155.181, 3749.408
1155.663, 3723.508
1156.145, 3696.519
1156.627, 3688.321
1157.109, 3694.342
1157.591, 3709.003
1158.073, 3732.746
1158.556, 3740.113
1159.038, 3723.577
1159.520, 3708.533
1160.002, 3720.263
1160.484, 3740.506
1160.966, 3755.216
1161.448, 3763.700
1161.930, 3767.884
1162.413, 3767.381
1162.895, 3764.631
1163.377, 3758.600
1163.859, 3755.265
1164.341, 3766.969
1164.823, 3782.079
1165.305, 3785.327
1165.787, 3771.796
1166.270, 3764.423
1166.752, 3764.713
1167.234, 3764.572
1167.716, 3757.513
1168.198, 3750.904
1168.680, 3758.457
1169.162, 3773.062
1169.644, 3781.425
1170.126, 3770.780
1170.609, 3775.963
1171.091, 3803.333
1171.573, 3826.723
1172.055, 3819.111
1172.537, 3798.223
1173.019, 3798.915
1173.501, 3814.223
1173.983, 3822.228
1174.465, 3798.276
1174.948, 3796.618
1175.430, 3829.690
1175.912, 3866.272
1176.394, 3866.644
1176.876, 3848.328
1177.358, 3854.646
1177.840, 3882.795
1178.322, 3900.925
1178.805, 3882.840
1179.287, 3874.918
1179.769, 3889.506
1180.251, 3911.362
1180.733, 3915.645
1181.215, 3909.082
1181.697, 3912.427
1182.179, 3927.772
1182.661, 3935.640
1183.144, 3913.692
1183.626, 3901.132
1184.108, 3912.066
1184.590, 3937.254
1185.072, 3961.550
1185.554, 3982.228
1186.036, 3986.942
1186.518, 3971.012
1187.000, 3957.975
1187.483, 3959.522
1187.965, 3966.562
1188.447, 3977.304
1188.929, 3989.052
1189.411, 3990.693
1189.893, 3984.993
1190.375, 3985.308
1190.857, 4000.268
1191.340, 4006.539
1191.822, 3972.434
1192.304, 3947.010
1192.786, 3965.622
1193.268, 4019.513
1193.750, 4049.525
1194.232, 4058.705
1194.714, 4063.369
1195.197, 4074.237
1195.679, 4074.564
1196.161, 4039.636
1196.643, 4004.680
1197.125, 3999.123
1197.607, 4021.839
1198.089, 4045.828
1198.571, 4070.240
1199.053, 4089.760
1199.536, 4095.948
1200.018, 4102.704
1200.500, 4122.019
1200.982, 4141.480
1201.464, 4145.333
1201.946, 4133.476
1202.428, 4135.601
1202.910, 4151.313
1203.392, 4164.889
1203.875, 4162.744
1204.357, 4159.954
1204.839, 4165.604
1205.321, 4175.017
1205.803, 4181.407
1206.285, 4184.806
1206.767, 4187.565
1207.249, 4189.981
1207.732, 4199.374
1208.214, 4231.990
1208.696, 4261.618
1209.178, 4268.437
1209.660, 4262.830
1210.142, 4262.725
1210.624, 4268.013
1211.106, 4270.230
1211.589, 4268.049
1212.071, 4272.979
1212.553, 4303.337
1213.035, 4333.900
1213.517, 4343.021
1213.999, 4341.248
1214.481, 4359.675
1214.963, 4396.773
1215.445, 4410.258
1215.927, 4387.816
1216.410, 4430.603
1216.892, 4457.543
1217.374, 4469.507
1217.856, 4421.623
1218.338, 4451.018
1218.820, 4449.443
1219.302, 4446.599
1219.784, 4486.871
1220.267, 4447.705
1220.749, 4487.293
1221.231, 4495.438
1221.713, 4517.975
1222.195, 4509.349
1222.677, 4510.349
1223.159, 4542.521
1223.641, 4557.431
1224.124, 4529.392
1224.606, 4535.750
1225.088, 4548.639
1225.570, 4562.715
1226.052, 4572.405
1226.534, 4570.341
1227.016, 4560.077
1227.498, 4567.826
1227.980, 4592.778
1228.463, 4629.989
1228.945, 4688.013
1229.427, 4732.126
1229.909, 4729.713
1230.391, 4715.626
1230.873, 4714.267
1231.355, 4725.037
1231.837, 4749.939
1232.320, 4785.170
1232.802, 4802.930
1233.284, 4778.602
1233.766, 4760.085
1234.248, 4772.056
1234.730, 4798.340
1235.212, 4829.125
1235.694, 4863.798
1236.177, 4900.963
1236.659, 4938.997
1237.141, 4967.286
1237.623, 4971.298
1238.105, 4979.547
1238.587, 5020.641
1239.069, 5052.088
1239.551, 5026.875
1240.033, 4958.969
1240.516, 4950.844
1240.998, 4992.557
1241.480, 5036.021
1241.962, 5055.805
1242.444, 5077.668
1242.926, 5111.872
1243.408, 5145.832
1243.890, 5169.558
1244.372, 5183.805
1244.855, 5187.891
1245.337, 5183.790
1245.819, 5180.181
1246.301, 5174.683
1246.783, 5178.836
1247.265, 5192.320
1247.747, 5216.958
1248.229, 5262.265
1248.712, 5317.699
1249.194, 5356.499
1249.676, 5378.531
1250.158, 5388.971
1250.640, 5377.778
1251.122, 5373.063
1251.604, 5379.705
1252.086, 5390.626
1252.568, 5397.073
1253.051, 5403.567
1253.533, 5421.359
1254.015, 5448.353
1254.497, 5473.499
1254.979, 5492.185
1255.461, 5511.922
1255.943, 5533.313
1256.425, 5555.532
1256.907, 5574.817
1257.390, 5571.205
1257.872, 5611.798
1258.354, 5641.655
1258.836, 5661.351
1259.318, 5640.442
1259.800, 5671.964
1260.282, 5682.472
1260.764, 5692.122
1261.247, 5731.051
1261.729, 5716.052
1262.211, 5754.488
1262.693, 5771.590
1263.175, 5798.458
1263.657, 5804.184
1264.139, 5816.441
1264.621, 5849.842
1265.104, 5871.570
1265.586, 5874.866
1266.068, 5902.351
1266.550, 5886.613
1267.032, 5908.803
1267.514, 5947.363
1267.996, 5951.718
1268.478, 5979.593
1268.960, 5998.508
1269.443, 5976.755
1269.925, 6008.751
1270.407, 6073.563
1270.889, 6098.656
1271.371, 6099.290
1271.853, 6106.263
1272.335, 6119.375
1272.817, 6138.692
1273.299, 6164.057
1273.782, 6193.119
1274.264, 6235.870
1274.746, 6267.628
1275.228, 6268.762
1275.710, 6258.963
1276.192, 6282.364
1276.674, 6330.487
1277.156, 6366.065
1277.639, 6384.008
1278.121, 6392.737
1278.603, 6381.968
1279.085, 6382.437
1279.567, 6408.152
1280.049, 6443.364
1280.531, 6465.554
1281.013, 6475.329
1281.495, 6468.030
1281.978, 6444.032
1282.460, 6435.871
1282.942, 6468.071
1283.424, 6487.698
1283.906, 6475.829
1284.388, 6464.260
1284.870, 6511.266
1285.352, 6582.425
1285.834, 6622.603
1286.317, 6627.029
1286.799, 6630.932
1287.281, 6639.799
1287.763, 6641.999
1288.245, 6634.132
1288.727, 6622.895
1289.209, 6603.146
1289.691, 6593.504
1290.174, 6623.925
1290.656, 6689.157
1291.138, 6732.942
1291.620, 6755.953
1292.102, 6746.107
1292.584, 6696.066
1293.066, 6649.325
1293.548, 6641.518
1294.031, 6656.429
1294.513, 6695.011
1294.995, 6740.996
1295.477, 6745.025
1295.959, 6711.250
1296.441, 6697.205
1296.923, 6712.752
1297.405, 6729.371
1297.887, 6741.890
1298.370, 6753.509
1298.852, 6740.665
1299.334, 6703.232
1299.816, 6677.369
1300.298, 6661.988
1300.780, 6655.214
1301.262, 6656.856
1301.744, 6658.247
##END=



