##NAMES=Magadiite
##RRUFFID=R060994
##IDEAL CHEMISTRY=Na_2_Si_14_O_29_&#183;11H_2_O
##LOCALITY=Trinity Lake, Trinity County, California, USA
##OWNER=RRUFF
##SOURCE=Bob Jenkins
##DESCRIPTION=White compacted fine-grained silt
##STATUS=The identification of this mineral is not yet confirmed.
##URL=rruff.info/R060994
147.0752, 110484.6
147.5573, 111136.2
148.0394, 111625.4
148.5215, 112009.2
149.0037, 112358.5
149.4858, 112658.2
149.9679, 112932.7
150.4500, 113192.5
150.9321, 113443.5
151.4142, 113668.0
151.8963, 113856.2
152.3785, 114028.5
152.8606, 114214.7
153.3427, 114446.5
153.8248, 114685.4
154.3069, 114915.9
154.7890, 115108.5
155.2712, 115363.5
155.7533, 115709.4
156.2354, 116133.0
156.7175, 116600.1
157.1996, 117106.6
157.6817, 117657.6
158.1639, 118256.7
158.6460, 118935.9
159.1281, 119615.9
159.6102, 120273.0
160.0923, 120904.5
160.5744, 121517.0
161.0566, 122065.1
161.5387, 122605.2
162.0208, 123180.5
162.5029, 123883.2
162.9850, 124542.0
163.4671, 125074.1
163.9493, 125476.5
164.4314, 125834.9
164.9135, 126182.4
165.3956, 126509.6
165.8777, 126806.9
166.3598, 127056.5
166.8419, 127291.9
167.3241, 127559.7
167.8062, 127873.5
168.2883, 128126.8
168.7704, 128202.1
169.2525, 128185.2
169.7346, 128214.8
170.2168, 128427.5
170.6989, 128679.9
171.1810, 128820.2
171.6631, 128811.4
172.1452, 128820.9
172.6273, 128998.6
173.1095, 129301.3
173.5916, 129626.8
174.0737, 129923.6
174.5558, 130211.0
175.0379, 130516.7
175.5201, 130856.8
176.0022, 131185.0
176.4843, 131417.1
176.9664, 131577.1
177.4485, 131769.4
177.9306, 132093.9
178.4128, 132489.5
178.8949, 132849.3
179.3770, 133143.2
179.8591, 133410.2
180.3412, 133699.4
180.8233, 134012.0
181.3054, 134335.7
181.7876, 134670.2
182.2697, 135010.1
182.7518, 135351.2
183.2339, 135686.9
183.7160, 136022.9
184.1981, 136356.6
184.6803, 136687.2
185.1624, 137032.3
185.6445, 137448.8
186.1266, 137906.7
186.6087, 138290.1
187.0908, 138546.7
187.5730, 138707.0
188.0551, 138815.5
188.5372, 138862.1
189.0193, 138946.5
189.5014, 139233.7
189.9835, 139700.7
190.4657, 140070.3
190.9478, 140202.3
191.4299, 140158.2
191.9120, 140229.2
192.3941, 140440.6
192.8762, 140670.7
193.3584, 140737.5
193.8405, 140642.3
194.3226, 140594.6
194.8047, 140698.0
195.2868, 140939.7
195.7689, 141161.2
196.2510, 141366.7
196.7332, 141554.7
197.2153, 141697.4
197.6974, 141788.1
198.1795, 141933.1
198.6616, 142226.1
199.1437, 142677.9
199.6259, 142988.0
200.1080, 143117.5
200.5901, 143158.9
201.0722, 143272.5
201.5543, 143462.5
202.0364, 143695.5
202.5186, 143961.1
203.0007, 144259.3
203.4828, 144559.3
203.9649, 144860.9
204.4470, 145153.2
204.9291, 145393.3
205.4113, 145554.4
205.8934, 145742.0
206.3755, 146045.3
206.8576, 146501.8
207.3397, 146839.2
207.8218, 147023.0
208.3040, 147085.7
208.7861, 147107.5
209.2682, 147065.5
209.7503, 147052.9
210.2324, 147152.5
210.7145, 147412.7
211.1967, 147604.0
211.6788, 147685.6
212.1609, 147694.6
212.6430, 147783.2
213.1251, 147990.6
213.6072, 148209.7
214.0893, 148351.2
214.5715, 148359.9
215.0536, 148472.4
215.5357, 148748.1
216.0178, 149151.4
216.4999, 149460.2
216.9820, 149620.4
217.4642, 149752.7
217.9463, 149946.8
218.4284, 150213.6
218.9105, 150490.3
219.3926, 150778.3
219.8747, 151068.6
220.3569, 151310.1
220.8390, 151495.3
221.3211, 151643.9
221.8032, 151774.4
222.2853, 151882.3
222.7674, 151995.4
223.2496, 152141.4
223.7317, 152319.8
224.2138, 152387.5
224.6959, 152248.6
225.1780, 152121.3
225.6601, 152216.1
226.1423, 152651.7
226.6244, 153057.6
227.1065, 153352.3
227.5886, 153535.9
228.0707, 153751.9
228.5528, 154021.7
229.0349, 154298.5
229.5171, 154527.1
229.9992, 154667.6
230.4813, 154839.2
230.9634, 155086.1
231.4455, 155418.7
231.9276, 155649.8
232.4098, 155732.8
232.8919, 155759.4
233.3740, 155819.5
233.8561, 155912.0
234.3382, 156045.3
234.8203, 156248.6
235.3025, 156535.3
235.7846, 156724.8
236.2667, 156761.0
236.7488, 156753.0
237.2309, 156822.1
237.7130, 156994.3
238.1952, 157201.0
238.6773, 157436.9
239.1594, 157707.5
239.6415, 157970.5
240.1236, 158250.0
240.6057, 158508.2
241.0879, 158692.1
241.5700, 158740.0
242.0521, 158821.5
242.5342, 158979.7
243.0163, 159221.7
243.4984, 159472.9
243.9805, 159723.8
244.4627, 159983.9
244.9448, 160271.6
245.4269, 160623.9
245.9090, 160921.6
246.3911, 161105.8
246.8732, 161140.7
247.3554, 161289.7
247.8375, 161624.6
248.3196, 162007.9
248.8017, 162266.0
249.2838, 162350.6
249.7659, 162394.5
250.2481, 162432.2
250.7302, 162470.6
251.2123, 162485.2
251.6944, 162469.3
252.1765, 162450.8
252.6586, 162466.5
253.1408, 162541.2
253.6229, 162624.5
254.1050, 162719.3
254.5871, 162836.8
255.0692, 162894.3
255.5513, 162833.9
256.0334, 162773.1
256.5156, 162872.5
256.9977, 163210.0
257.4798, 163543.6
257.9619, 163793.4
258.4440, 163942.5
258.9261, 164166.4
259.4083, 164493.8
259.8904, 164856.6
260.3725, 165154.9
260.8546, 165341.8
261.3367, 165568.3
261.8188, 165889.7
262.3010, 166318.0
262.7831, 166674.0
263.2652, 166952.6
263.7473, 167163.4
264.2294, 167309.1
264.7115, 167357.5
265.1937, 167424.0
265.6758, 167560.6
266.1579, 167770.6
266.6400, 167874.5
267.1221, 167825.7
267.6042, 167743.2
268.0864, 167776.0
268.5685, 167960.0
269.0506, 168156.2
269.5327, 168342.8
270.0148, 168521.9
270.4969, 168654.3
270.9791, 168734.2
271.4612, 168786.4
271.9433, 168822.8
272.4254, 168829.8
272.9075, 168893.4
273.3896, 169044.2
273.8718, 169277.0
274.3539, 169545.3
274.8360, 169875.6
275.3181, 170186.0
275.8002, 170361.2
276.2823, 170371.8
276.7645, 170430.9
277.2466, 170597.9
277.7287, 170860.0
278.2108, 171128.5
278.6929, 171409.1
279.1750, 171671.9
279.6572, 171880.8
280.1393, 172030.4
280.6214, 172163.7
281.1035, 172274.0
281.5856, 172374.0
282.0677, 172542.9
282.5498, 172793.6
283.0320, 173050.2
283.5141, 173241.6
283.9962, 173369.0
284.4783, 173484.0
284.9604, 173602.1
285.4425, 173718.4
285.9247, 173803.0
286.4068, 173854.0
286.8889, 173906.4
287.3710, 174004.9
287.8531, 174143.8
288.3352, 174243.3
288.8174, 174259.8
289.2995, 174249.5
289.7816, 174378.6
290.2637, 174647.7
290.7458, 174916.5
291.2279, 175063.3
291.7101, 175108.0
292.1922, 175155.0
292.6743, 175229.6
293.1564, 175306.5
293.6385, 175326.0
294.1206, 175291.9
294.6028, 175266.1
295.0849, 175296.9
295.5670, 175375.4
296.0491, 175480.0
296.5312, 175628.9
297.0133, 175774.2
297.4955, 175807.1
297.9776, 175752.2
298.4597, 175751.3
298.9418, 175918.8
299.4239, 176205.2
299.9060, 176517.5
300.3882, 176845.4
300.8703, 177173.4
301.3524, 177444.9
301.8345, 177678.8
302.3166, 177959.1
302.7987, 178370.6
303.2809, 178836.5
303.7630, 179264.3
304.2451, 179635.3
304.7272, 179948.0
305.2093, 180147.4
305.6914, 180273.1
306.1736, 180427.4
306.6557, 180731.5
307.1378, 181060.2
307.6199, 181280.5
308.1020, 181377.3
308.5841, 181423.2
309.0663, 181462.9
309.5484, 181498.8
310.0305, 181530.3
310.5126, 181574.3
310.9947, 181609.4
311.4768, 181603.4
311.9589, 181550.7
312.4410, 181527.0
312.9232, 181614.6
313.4053, 181750.1
313.8874, 181847.0
314.3695, 181787.3
314.8516, 181753.0
315.3337, 181888.5
315.8159, 182198.5
316.2980, 182440.6
316.7801, 182412.2
317.2622, 182306.5
317.7443, 182319.1
318.2264, 182672.3
318.7086, 183003.0
319.1907, 183153.1
319.6728, 183139.0
320.1549, 183163.3
320.6370, 183300.0
321.1191, 183491.1
321.6013, 183694.0
322.0834, 183950.7
322.5655, 184154.7
323.0476, 184215.0
323.5297, 184169.6
324.0118, 184240.5
324.4940, 184555.7
324.9761, 184927.6
325.4582, 185256.3
325.9403, 185512.8
326.4224, 185745.7
326.9045, 185954.5
327.3867, 186140.0
327.8688, 186307.7
328.3509, 186479.3
328.8330, 186613.1
329.3151, 186684.7
329.7972, 186600.8
330.2794, 186630.8
330.7615, 186853.0
331.2436, 187175.6
331.7257, 187400.3
332.2078, 187453.9
332.6899, 187516.3
333.1721, 187658.0
333.6542, 187915.1
334.1363, 188121.9
334.6184, 188272.8
335.1005, 188385.0
335.5826, 188477.0
336.0648, 188528.2
336.5469, 188609.0
337.0290, 188737.3
337.5111, 188912.6
337.9932, 189132.0
338.4753, 189416.9
338.9575, 189695.8
339.4396, 189879.6
339.9217, 189942.7
340.4038, 190027.0
340.8859, 190184.7
341.3680, 190391.8
341.8502, 190508.6
342.3323, 190521.0
342.8144, 190502.9
343.2965, 190523.5
343.7786, 190585.6
344.2607, 190627.7
344.7428, 190627.2
345.2249, 190623.4
345.7071, 190722.5
346.1892, 190932.5
346.6713, 191164.8
347.1534, 191355.6
347.6355, 191516.7
348.1176, 191694.7
348.5998, 191884.3
349.0819, 192107.0
349.5640, 192408.8
350.0461, 192778.7
350.5282, 193152.0
351.0103, 193507.2
351.4925, 193831.3
351.9746, 194109.4
352.4567, 194334.8
352.9388, 194512.2
353.4209, 194656.4
353.9030, 194758.3
354.3852, 194796.6
354.8673, 194702.1
355.3494, 194580.5
355.8315, 194552.3
356.3136, 194628.9
356.7957, 194724.7
357.2779, 194796.2
357.7600, 194852.9
358.2421, 194904.8
358.7242, 194927.0
359.2063, 194972.4
359.6884, 195084.3
360.1706, 195255.4
360.6527, 195423.1
361.1348, 195529.0
361.6169, 195631.2
362.0990, 195777.7
362.5811, 196031.9
363.0633, 196261.7
363.5454, 196414.9
364.0275, 196504.6
364.5096, 196582.7
364.9917, 196628.8
365.4738, 196689.9
365.9560, 196791.9
366.4381, 196954.3
366.9202, 197132.7
367.4023, 197350.3
367.8844, 197584.3
368.3665, 197788.1
368.8487, 197929.3
369.3308, 198075.7
369.8129, 198249.9
370.2950, 198464.2
370.7771, 198657.4
371.2592, 198829.2
371.7414, 198979.0
372.2235, 199098.7
372.7056, 199134.3
373.1877, 199232.0
373.6698, 199436.1
374.1519, 199736.8
374.6340, 199996.5
375.1161, 200195.3
375.5983, 200369.8
376.0804, 200552.8
376.5625, 200748.5
377.0446, 200911.1
377.5267, 201019.1
378.0089, 201098.3
378.4910, 201246.3
378.9731, 201482.0
379.4552, 201687.8
379.9373, 201778.5
380.4194, 201766.3
380.9016, 201748.4
381.3837, 201727.3
381.8658, 201734.0
382.3479, 201821.5
382.8300, 201987.6
383.3121, 202193.3
383.7943, 202414.6
384.2764, 202659.8
384.7585, 202963.4
385.2406, 203324.9
385.7227, 203696.0
386.2048, 204026.1
386.6870, 204314.7
387.1691, 204565.4
387.6512, 204715.3
388.1333, 204858.3
388.6154, 205142.6
389.0975, 205541.0
389.5797, 205861.7
390.0618, 205898.2
390.5439, 205820.3
391.0260, 205817.0
391.5081, 205998.0
391.9902, 206168.2
392.4724, 206193.4
392.9545, 206129.2
393.4366, 206119.2
393.9187, 206285.9
394.4008, 206487.3
394.8829, 206661.6
395.3651, 206816.6
395.8472, 206902.3
396.3293, 206808.6
396.8114, 206665.2
397.2935, 206646.4
397.7756, 206840.0
398.2578, 207095.2
398.7399, 207407.5
399.2220, 207787.3
399.7041, 208062.6
400.1862, 208136.0
400.6683, 208167.4
401.1505, 208279.8
401.6326, 208548.9
402.1147, 208773.4
402.5968, 208929.0
403.0789, 209029.1
403.5610, 209125.0
404.0432, 209216.9
404.5253, 209311.4
405.0074, 209414.6
405.4895, 209531.1
405.9716, 209637.5
406.4537, 209723.3
406.9358, 209812.2
407.4179, 209950.5
407.9001, 210142.5
408.3822, 210335.3
408.8643, 210498.3
409.3464, 210641.0
409.8285, 210822.3
410.3106, 211043.6
410.7928, 211288.4
411.2749, 211588.7
411.7570, 211915.2
412.2391, 212128.0
412.7212, 212127.9
413.2033, 212064.2
413.6855, 212162.0
414.1676, 212404.6
414.6497, 212700.6
415.1318, 212999.6
415.6139, 213305.9
416.0960, 213627.6
416.5782, 213979.0
417.0603, 214302.2
417.5424, 214559.8
418.0245, 214751.8
418.5066, 214880.1
418.9887, 214885.0
419.4709, 214873.5
419.9530, 214912.2
420.4351, 215009.9
420.9172, 215109.7
421.3993, 215213.8
421.8814, 215307.2
422.3636, 215376.8
422.8457, 215379.1
423.3278, 215412.4
423.8099, 215535.0
424.2920, 215728.4
424.7741, 215845.5
425.2563, 215777.4
425.7384, 215726.5
426.2205, 215792.2
426.7026, 216069.7
427.1847, 216251.9
427.6668, 216262.4
428.1490, 216215.0
428.6311, 216321.1
429.1132, 216646.0
429.5953, 216956.3
430.0774, 217168.4
430.5595, 217284.3
431.0417, 217418.7
431.5238, 217577.8
432.0059, 217730.2
432.4880, 217829.0
432.9701, 217876.3
433.4522, 217973.7
433.9344, 218168.2
434.4165, 218397.9
434.8986, 218514.5
435.3807, 218528.7
435.8628, 218562.0
436.3449, 218739.4
436.8270, 218987.7
437.3091, 219133.2
437.7913, 219141.9
438.2734, 219145.2
438.7555, 219264.8
439.2376, 219469.5
439.7197, 219697.5
440.2018, 219972.0
440.6840, 220218.0
441.1661, 220343.1
441.6482, 220355.4
442.1303, 220401.9
442.6124, 220576.9
443.0945, 220802.3
443.5767, 221013.9
444.0588, 221205.8
444.5409, 221372.7
445.0230, 221521.7
445.5051, 221647.8
445.9872, 221735.8
446.4694, 221755.4
446.9515, 221769.4
447.4336, 221791.2
447.9157, 221811.3
448.3978, 221893.7
448.8799, 222074.7
449.3621, 222293.4
449.8442, 222496.5
450.3263, 222712.7
450.8084, 222831.2
451.2905, 222767.9
451.7726, 222591.9
452.2548, 222657.0
452.7369, 223018.3
453.2190, 223425.2
453.7011, 223744.1
454.1832, 223972.3
454.6653, 224113.3
455.1475, 224150.5
455.6296, 224148.7
456.1117, 224199.1
456.5938, 224296.0
457.0759, 224403.1
457.5580, 224526.4
458.0402, 224644.2
458.5223, 224716.0
459.0044, 224745.1
459.4865, 224751.1
459.9686, 224701.9
460.4507, 224656.3
460.9329, 224695.2
461.4150, 224857.6
461.8971, 225072.0
462.3792, 225340.5
462.8613, 225627.3
463.3434, 225859.2
463.8256, 225897.9
464.3077, 225960.4
464.7898, 226200.0
465.2719, 226673.2
465.7540, 227020.3
466.2361, 227036.2
466.7182, 226963.9
467.2003, 227015.1
467.6825, 227301.5
468.1646, 227587.4
468.6467, 227867.1
469.1288, 228132.6
469.6109, 228347.8
470.0930, 228475.2
470.5752, 228607.4
471.0573, 228792.2
471.5394, 229039.8
472.0215, 229262.0
472.5036, 229462.4
472.9857, 229622.7
473.4679, 229718.6
473.9500, 229749.3
474.4321, 229728.4
474.9142, 229635.0
475.3963, 229514.6
475.8784, 229491.1
476.3606, 229565.4
476.8427, 229660.7
477.3248, 229730.9
477.8069, 229790.8
478.2890, 229859.3
478.7711, 229941.4
479.2533, 230050.1
479.7354, 230225.4
480.2175, 230434.2
480.6996, 230613.2
481.1817, 230648.9
481.6638, 230710.4
482.1460, 230884.9
482.6281, 231165.5
483.1102, 231510.5
483.5923, 231968.5
484.0744, 232426.6
484.5565, 232807.8
485.0387, 233062.3
485.5208, 233267.4
486.0029, 233373.2
486.4850, 233436.4
486.9671, 233572.1
487.4492, 233878.3
487.9314, 234114.8
488.4135, 234222.9
488.8956, 234206.6
489.3777, 234098.5
489.8598, 233844.0
490.3419, 233640.9
490.8241, 233715.4
491.3062, 234097.3
491.7883, 234330.1
492.2704, 234332.1
492.7525, 234210.7
493.2346, 234125.6
493.7168, 234080.4
494.1989, 234102.0
494.6810, 234230.2
495.1631, 234420.2
495.6452, 234609.4
496.1273, 234791.6
496.6095, 234937.1
497.0916, 234994.0
497.5737, 235003.7
498.0558, 235016.0
498.5379, 235019.4
499.0200, 235072.5
499.5021, 235250.6
499.9843, 235508.7
500.4664, 235734.5
500.9485, 235872.2
501.4306, 235990.1
501.9127, 236106.8
502.3948, 236219.6
502.8770, 236365.5
503.3591, 236583.5
503.8412, 236809.0
504.3233, 236989.6
504.8054, 237065.5
505.2875, 237190.4
505.7697, 237367.0
506.2518, 237596.0
506.7339, 237907.9
507.2160, 238337.3
507.6981, 238702.3
508.1802, 238902.9
508.6624, 238954.9
509.1445, 239015.8
509.6266, 239087.9
510.1087, 239177.9
510.5908, 239320.1
511.0729, 239493.0
511.5551, 239607.1
512.0372, 239606.3
512.5193, 239613.6
513.0014, 239787.5
513.4835, 240093.3
513.9656, 240424.8
514.4478, 240797.5
514.9299, 241122.1
515.4120, 241281.5
515.8941, 241254.8
516.3762, 241301.7
516.8583, 241581.0
517.3405, 241943.1
517.8226, 242265.2
518.3047, 242528.3
518.7868, 242740.6
519.2689, 242850.1
519.7510, 242909.8
520.2332, 243049.9
520.7153, 243311.2
521.1974, 243587.8
521.6795, 243872.3
522.1616, 244170.0
522.6437, 244325.2
523.1259, 244303.2
523.6080, 244232.9
524.0901, 244206.5
524.5722, 244226.2
525.0543, 244331.8
525.5364, 244549.2
526.0186, 244809.7
526.5007, 245002.1
526.9828, 245135.0
527.4649, 245261.6
527.9470, 245415.9
528.4291, 245570.8
528.9113, 245703.2
529.3934, 245810.2
529.8755, 245885.6
530.3576, 245887.0
530.8397, 245873.9
531.3218, 245908.5
531.8040, 246044.8
532.2861, 246151.1
532.7682, 246175.5
533.2503, 246147.5
533.7324, 246113.6
534.2145, 246070.6
534.6967, 246041.3
535.1788, 246025.2
535.6609, 246026.4
536.1430, 246083.7
536.6251, 246216.9
537.1072, 246380.3
537.5894, 246545.9
538.0715, 246712.0
538.5536, 246905.5
539.0357, 247139.7
539.5178, 247369.3
539.9999, 247481.6
540.4821, 247494.5
540.9642, 247631.6
541.4463, 248024.4
541.9284, 248525.2
542.4105, 248895.0
542.8926, 249142.0
543.3748, 249338.9
543.8568, 249501.8
544.3389, 249645.6
544.8210, 249778.8
545.3032, 249896.9
545.7853, 250037.5
546.2674, 250260.8
546.7495, 250500.2
547.2316, 250685.8
547.7137, 250761.1
548.1959, 250833.2
548.6780, 250948.8
549.1601, 251085.5
549.6422, 251155.2
550.1243, 251104.6
550.6064, 251066.4
551.0886, 251080.1
551.5707, 251145.9
552.0528, 251294.4
552.5349, 251563.2
553.0170, 251815.0
553.4991, 251899.0
553.9813, 251824.3
554.4634, 251743.4
554.9455, 251648.8
555.4276, 251626.6
555.9097, 251894.3
556.3918, 252368.5
556.8740, 252758.1
557.3561, 252879.1
557.8382, 252881.2
558.3203, 252881.9
558.8024, 252889.8
559.2845, 252945.3
559.7667, 253071.4
560.2488, 253254.0
560.7309, 253500.1
561.2130, 253868.6
561.6951, 254156.6
562.1772, 254248.0
562.6594, 254265.2
563.1415, 254361.3
563.6236, 254513.1
564.1057, 254780.0
564.5878, 255251.7
565.0699, 255835.6
565.5521, 256120.3
566.0342, 256011.6
566.5163, 255925.9
566.9984, 256116.1
567.4805, 256550.8
567.9626, 256899.4
568.4448, 257163.8
568.9269, 257348.2
569.4090, 257427.8
569.8911, 257435.6
570.3732, 257447.1
570.8553, 257476.0
571.3375, 257525.1
571.8196, 257592.4
572.3017, 257681.7
572.7838, 257799.0
573.2659, 258004.6
573.7480, 258185.0
574.2302, 258265.8
574.7123, 258248.5
575.1944, 258268.5
575.6765, 258418.9
576.1586, 258559.3
576.6407, 258613.3
577.1229, 258526.1
577.6050, 258520.2
578.0871, 258637.3
578.5692, 258796.0
579.0513, 258879.3
579.5334, 258876.8
580.0156, 258911.2
580.4977, 259005.6
580.9798, 259158.4
581.4619, 259400.0
581.9440, 259715.2
582.4261, 259991.6
582.9083, 260102.3
583.3904, 260154.0
583.8725, 260304.7
584.3546, 260554.8
584.8367, 260812.8
585.3188, 261001.7
585.8010, 261177.8
586.2831, 261403.1
586.7652, 261740.8
587.2473, 262024.7
587.7294, 262197.6
588.2115, 262296.4
588.6937, 262378.8
589.1758, 262439.2
589.6579, 262499.0
590.1400, 262554.6
590.6221, 262613.3
591.1042, 262709.3
591.5864, 262843.9
592.0685, 263013.1
592.5506, 263220.7
593.0327, 263466.6
593.5148, 263760.8
593.9969, 264119.9
594.4791, 264416.5
594.9612, 264460.3
595.4433, 264360.4
595.9254, 264340.9
596.4075, 264461.2
596.8896, 264656.5
597.3718, 264922.0
597.8539, 265219.0
598.3360, 265475.5
598.8181, 265632.6
599.3002, 265777.3
599.7823, 265913.2
600.2645, 266049.0
600.7466, 266274.2
601.2287, 266686.3
601.7108, 267082.6
602.1929, 267361.7
602.6750, 267483.2
603.1572, 267700.0
603.6393, 268051.4
604.1214, 268420.0
604.6035, 268654.0
605.0856, 268761.0
605.5677, 268982.3
606.0498, 269386.5
606.5319, 269857.4
607.0140, 270258.4
607.4962, 270586.1
607.9783, 270838.9
608.4604, 270888.7
608.9425, 270953.0
609.4246, 271269.0
609.9067, 271789.2
610.3889, 272238.9
610.8710, 272490.3
611.3531, 272645.1
611.8352, 272736.0
612.3173, 272732.8
612.7994, 272808.1
613.2816, 273046.3
613.7637, 273308.4
614.2458, 273461.0
614.7279, 273436.0
615.2100, 273564.6
615.6921, 273931.6
616.1743, 274394.6
616.6564, 274668.4
617.1385, 274763.8
617.6206, 274877.9
618.1027, 275108.3
618.5848, 275381.9
619.0670, 275545.4
619.5491, 275623.1
620.0312, 275752.7
620.5133, 276092.2
620.9954, 276464.7
621.4775, 276680.1
621.9597, 276698.3
622.4418, 276806.5
622.9239, 277256.2
623.4060, 277735.4
623.8881, 278005.7
624.3702, 277793.4
624.8524, 277757.3
625.3345, 278014.5
625.8166, 278366.0
626.2987, 278494.4
626.7808, 278358.7
627.2629, 278202.2
627.7451, 278063.7
628.2272, 277960.6
628.7093, 277978.4
629.1914, 278106.1
629.6735, 278181.2
630.1556, 278079.1
630.6378, 277887.6
631.1199, 277707.4
631.6020, 277545.5
632.0841, 277424.3
632.5662, 277350.7
633.0483, 277331.2
633.5305, 277374.0
634.0126, 277490.6
634.4947, 277647.2
634.9768, 277935.7
635.4589, 278210.3
635.9410, 278304.2
636.4232, 278102.1
636.9053, 277954.6
637.3874, 277912.2
637.8695, 277932.2
638.3516, 277908.8
638.8337, 277834.4
639.3159, 277787.4
639.7980, 277800.8
640.2801, 277860.8
640.7622, 277955.5
641.2443, 278080.9
641.7264, 278185.1
642.2086, 278232.6
642.6907, 278251.1
643.1728, 278261.2
643.6549, 278268.1
644.1370, 278298.1
644.6191, 278357.2
645.1013, 278454.5
645.5834, 278596.2
646.0655, 278759.3
646.5476, 279011.8
647.0297, 279427.5
647.5118, 279871.5
647.9940, 280085.5
648.4761, 279968.2
648.9582, 280047.7
649.4403, 280508.8
649.9224, 281153.9
650.4045, 281519.2
650.8867, 281624.6
651.3688, 281670.4
651.8509, 281756.3
652.3330, 281848.8
652.8151, 281916.2
653.2972, 281958.3
653.7794, 281962.6
654.2615, 281846.7
654.7436, 281754.7
655.2257, 281819.1
655.7078, 282132.3
656.1899, 282342.4
656.6721, 282366.9
657.1542, 282297.7
657.6363, 282187.5
658.1184, 281993.6
658.6005, 281880.6
659.0826, 281875.5
659.5648, 281925.4
660.0469, 281962.7
660.5290, 281984.1
661.0111, 281952.9
661.4932, 281830.7
661.9753, 281691.9
662.4575, 281664.3
662.9396, 281726.9
663.4217, 281793.3
663.9038, 281785.3
664.3859, 281806.5
664.8680, 281986.2
665.3502, 282314.3
665.8323, 282514.8
666.3144, 282339.1
666.7965, 282168.5
667.2786, 282180.4
667.7607, 282393.5
668.2428, 282676.7
668.7249, 283046.7
669.2070, 283420.5
669.6891, 283717.5
670.1713, 283929.7
670.6534, 284098.4
671.1355, 284226.5
671.6176, 284294.2
672.0997, 284284.7
672.5818, 284200.9
673.0640, 284040.0
673.5461, 283740.9
674.0282, 283468.5
674.5103, 283386.5
674.9924, 283431.0
675.4745, 283435.2
675.9567, 283304.7
676.4388, 283201.8
676.9209, 283214.6
677.4030, 283329.0
677.8851, 283376.9
678.3672, 283315.6
678.8494, 283273.5
679.3315, 283282.7
679.8136, 283339.9
680.2957, 283574.8
680.7778, 283988.4
681.2599, 284404.8
681.7421, 284595.5
682.2242, 284679.8
682.7063, 284910.7
683.1884, 285345.5
683.6705, 285785.9
684.1526, 286133.6
684.6348, 286392.4
685.1169, 286571.5
685.5990, 286648.9
686.0811, 286684.6
686.5632, 286656.3
687.0453, 286615.3
687.5275, 286641.9
688.0096, 286770.0
688.4917, 286907.4
688.9738, 287032.9
689.4559, 287167.1
689.9380, 287388.6
690.4202, 287690.8
690.9023, 287956.4
691.3844, 288085.1
691.8665, 288146.4
692.3486, 288271.3
692.8307, 288439.4
693.3129, 288540.6
693.7950, 288364.5
694.2771, 288200.6
694.7592, 288284.1
695.2413, 288683.3
695.7234, 288983.8
696.2056, 289076.5
696.6877, 289088.6
697.1698, 289098.6
697.6519, 289133.9
698.1340, 289086.9
698.6161, 288947.8
699.0983, 288773.0
699.5804, 288589.7
700.0625, 288422.3
700.5446, 288385.8
701.0267, 288525.4
701.5089, 288745.8
701.9910, 288982.3
702.4731, 289217.6
702.9552, 289419.3
703.4373, 289602.9
703.9194, 289715.8
704.4016, 289685.7
704.8837, 289561.2
705.3658, 289490.0
705.8479, 289484.5
706.3300, 289520.8
706.8121, 289605.6
707.2943, 289726.7
707.7764, 289806.3
708.2585, 289836.0
708.7406, 289892.7
709.2227, 290065.3
709.7048, 290297.4
710.1870, 290408.3
710.6691, 290404.5
711.1512, 290396.1
711.6333, 290451.9
712.1154, 290548.2
712.5975, 290659.7
713.0797, 290781.0
713.5618, 290935.3
714.0439, 291177.3
714.5260, 291417.0
715.0081, 291583.7
715.4902, 291635.9
715.9724, 291676.6
716.4545, 291667.5
716.9366, 291697.7
717.4187, 291930.5
717.9008, 292348.8
718.3829, 292646.5
718.8651, 292736.9
719.3472, 292766.1
719.8293, 292919.5
720.3114, 293156.6
720.7935, 293395.0
721.2756, 293638.6
721.7578, 293838.5
722.2399, 293924.0
722.7220, 293946.7
723.2041, 294042.2
723.6862, 294417.3
724.1683, 294616.6
724.6505, 294435.5
725.1326, 293988.4
725.6147, 293899.8
726.0968, 294224.8
726.5789, 294590.2
727.0610, 294827.9
727.5432, 294962.4
728.0253, 295048.0
728.5073, 295089.0
728.9894, 295120.0
729.4716, 295147.3
729.9537, 295191.2
730.4358, 295279.1
730.9179, 295418.8
731.4000, 295556.6
731.8821, 295700.9
732.3643, 295824.2
732.8464, 295903.7
733.3285, 295912.8
733.8106, 295951.6
734.2927, 295998.9
734.7748, 296108.5
735.2570, 296391.4
735.7391, 296810.7
736.2212, 297092.1
736.7033, 297185.4
737.1854, 297199.1
737.6675, 297245.5
738.1497, 297293.1
738.6318, 297285.7
739.1139, 297145.3
739.5960, 297066.1
740.0781, 297188.3
740.5602, 297414.3
741.0424, 297573.6
741.5245, 297564.9
742.0066, 297667.1
742.4887, 297955.9
742.9708, 298345.4
743.4529, 298609.4
743.9351, 298735.4
744.4172, 298961.3
744.8993, 299407.5
745.3814, 299942.6
745.8635, 300372.8
746.3456, 300702.8
746.8278, 300966.3
747.3099, 301140.1
747.7920, 301274.6
748.2741, 301425.6
748.7562, 301581.1
749.2383, 301620.8
749.7205, 301446.6
750.2026, 301290.6
750.6847, 301269.3
751.1668, 301381.9
751.6489, 301357.4
752.1310, 301181.6
752.6132, 301037.0
753.0953, 301046.2
753.5774, 301182.7
754.0595, 301401.2
754.5416, 301694.0
755.0237, 301961.0
755.5059, 302070.4
755.9880, 302150.0
756.4701, 302320.6
756.9522, 302620.0
757.4343, 302847.3
757.9164, 302986.5
758.3986, 303010.8
758.8807, 302872.2
759.3628, 302510.9
759.8449, 302276.0
760.3270, 302211.0
760.8091, 302203.3
761.2913, 302093.8
761.7734, 301949.8
762.2555, 301983.2
762.7376, 302264.8
763.2197, 302630.3
763.7018, 303036.2
764.1840, 303411.5
764.6661, 303664.6
765.1482, 303621.0
765.6303, 303658.8
766.1124, 303848.3
766.5945, 304131.9
767.0767, 304433.7
767.5588, 304724.4
768.0409, 305094.2
768.5230, 305577.3
769.0051, 306079.9
769.4872, 306421.2
769.9694, 306635.5
770.4515, 306892.9
770.9336, 307318.3
771.4157, 307712.0
771.8978, 307909.6
772.3799, 307944.3
772.8621, 307884.9
773.3442, 307604.4
773.8263, 307420.3
774.3084, 307507.9
774.7905, 307755.4
775.2726, 307797.5
775.7548, 307551.0
776.2369, 307432.5
776.7190, 307643.8
777.2011, 308039.9
777.6832, 308196.8
778.1653, 308154.8
778.6475, 308130.9
779.1296, 308200.9
779.6117, 308368.2
780.0938, 308679.2
780.5759, 309098.0
781.0580, 309482.3
781.5402, 309849.4
782.0223, 310091.0
782.5044, 310121.2
782.9865, 309957.9
783.4686, 309887.2
783.9507, 309906.9
784.4329, 310020.3
784.9150, 310283.1
785.3971, 310643.6
785.8792, 310906.3
786.3613, 311082.3
786.8434, 311231.7
787.3256, 311389.2
787.8077, 311551.1
788.2898, 311711.2
788.7719, 311869.2
789.2540, 312053.2
789.7361, 312241.9
790.2183, 312481.1
790.7003, 312785.3
791.1824, 313154.3
791.6646, 313589.9
792.1467, 314107.8
792.6288, 314587.1
793.1109, 314960.7
793.5930, 315214.2
794.0751, 315277.8
794.5573, 315142.9
795.0394, 315026.7
795.5215, 315087.4
796.0036, 315239.9
796.4857, 315447.8
796.9678, 315754.9
797.4500, 315932.1
797.9321, 315879.0
798.4142, 315787.5
798.8963, 315795.3
799.3784, 315927.8
799.8605, 316013.2
800.3427, 316047.4
800.8248, 316059.4
801.3069, 316032.3
801.7890, 316012.5
802.2711, 316117.8
802.7532, 316380.9
803.2354, 316634.6
803.7175, 316764.1
804.1996, 316846.2
804.6817, 316951.6
805.1638, 317109.7
805.6459, 317251.9
806.1281, 317388.5
806.6102, 317495.8
807.0923, 317514.2
807.5744, 317445.9
808.0565, 317529.0
808.5386, 317804.9
809.0208, 318127.7
809.5029, 318342.9
809.9850, 318494.8
810.4671, 318657.5
810.9492, 318861.5
811.4313, 319029.9
811.9135, 319097.5
812.3956, 319126.5
812.8777, 319173.6
813.3598, 319192.3
813.8419, 319355.6
814.3240, 319756.0
814.8062, 320146.3
815.2883, 320132.7
815.7704, 319799.2
816.2525, 319687.8
816.7346, 319926.9
817.2167, 320244.2
817.6989, 320418.8
818.1810, 320498.7
818.6631, 320542.3
819.1452, 320520.2
819.6273, 320555.6
820.1094, 320763.3
820.5916, 320996.4
821.0737, 321081.3
821.5558, 320953.7
822.0379, 320972.4
822.5200, 321187.7
823.0021, 321516.2
823.4843, 321907.9
823.9664, 322321.3
824.4485, 322654.9
824.9306, 322874.8
825.4127, 323022.3
825.8948, 323033.4
826.3770, 323018.1
826.8591, 323107.8
827.3412, 323358.6
827.8233, 323677.2
828.3054, 324155.3
828.7875, 324588.9
829.2697, 324661.2
829.7518, 324370.4
830.2339, 324132.8
830.7160, 324011.3
831.1981, 323963.9
831.6802, 324036.8
832.1624, 324128.7
832.6445, 324046.0
833.1266, 323604.1
833.6087, 323270.9
834.0908, 323292.9
834.5729, 323479.6
835.0551, 323611.3
835.5372, 323702.1
836.0193, 323683.0
836.5014, 323513.8
836.9835, 323308.8
837.4656, 323235.4
837.9478, 323260.8
838.4299, 323250.3
838.9120, 323159.0
839.3941, 323094.5
839.8762, 323234.0
840.3583, 323411.5
840.8405, 323426.2
841.3226, 323113.4
841.8047, 322835.0
842.2868, 322599.1
842.7689, 322418.4
843.2510, 322327.3
843.7332, 322330.4
844.2153, 322294.1
844.6974, 322198.4
845.1795, 322069.0
845.6616, 321947.0
846.1437, 321807.0
846.6259, 321594.8
847.1080, 321263.8
847.5901, 320965.5
848.0722, 320810.9
848.5543, 320689.8
849.0364, 320498.7
849.5186, 320220.3
850.0007, 319912.3
850.4828, 319556.6
850.9649, 319233.3
851.4470, 319064.3
851.9291, 319011.0
852.4112, 318912.4
852.8933, 318749.7
853.3754, 318573.5
853.8575, 318347.0
854.3397, 318176.1
854.8218, 318182.3
855.3039, 318481.4
855.7860, 318681.7
856.2681, 318672.9
856.7502, 318657.1
857.2324, 318806.6
857.7145, 319120.7
858.1966, 319345.5
858.6787, 319459.4
859.1608, 319559.1
859.6429, 319768.2
860.1251, 319991.9
860.6072, 320078.0
861.0893, 319985.3
861.5714, 319958.3
862.0535, 320133.3
862.5356, 320362.3
863.0178, 320582.6
863.4999, 320814.3
863.9820, 320853.7
864.4641, 320670.4
864.9462, 320424.7
865.4283, 320193.7
865.9105, 320004.2
866.3926, 319963.4
866.8747, 320066.0
867.3568, 320113.8
867.8389, 319862.3
868.3210, 319624.2
868.8032, 319688.9
869.2853, 320119.9
869.7674, 320177.6
870.2495, 319636.8
870.7316, 319171.8
871.2137, 319149.9
871.6959, 319490.7
872.1780, 319800.9
872.6601, 320076.9
873.1422, 320263.1
873.6243, 320260.2
874.1064, 320195.8
874.5886, 320117.0
875.0707, 320046.2
875.5528, 320139.4
876.0349, 320607.3
876.5170, 321020.6
876.9991, 321245.8
877.4813, 321317.2
877.9634, 321396.0
878.4455, 321481.9
878.9276, 321581.3
879.4097, 321690.7
879.8918, 321825.8
880.3740, 322070.4
880.8561, 322366.2
881.3382, 322544.9
881.8203, 322430.6
882.3024, 322320.6
882.7845, 322305.0
883.2667, 322360.2
883.7488, 322417.5
884.2309, 322450.2
884.7130, 322639.9
885.1951, 323103.6
885.6772, 323615.3
886.1594, 323770.0
886.6415, 323677.9
887.1236, 323614.3
887.6057, 323696.7
888.0878, 323806.4
888.5699, 323870.6
889.0521, 323941.8
889.5342, 324101.3
890.0163, 324392.0
890.4984, 324669.5
890.9805, 324906.4
891.4626, 325165.4
891.9448, 325582.1
892.4269, 326089.8
892.9090, 326469.0
893.3911, 326639.4
893.8732, 326784.2
894.3553, 327050.3
894.8375, 327333.6
895.3196, 327520.5
895.8017, 327525.3
896.2838, 327573.9
896.7659, 327702.2
897.2480, 327811.2
897.7302, 327845.3
898.2123, 327799.2
898.6944, 327569.9
899.1765, 327155.5
899.6586, 326764.9
900.1407, 326632.8
900.6229, 326579.5
901.1050, 326436.1
901.5871, 326175.4
902.0692, 325983.4
902.5513, 325899.5
903.0334, 325859.7
903.5156, 325836.2
903.9977, 325825.7
904.4798, 325824.4
904.9619, 325826.8
905.4440, 325817.9
905.9261, 325720.3
906.4083, 325647.3
906.8904, 325720.9
907.3725, 325926.3
907.8546, 326173.7
908.3367, 326567.5
908.8188, 326843.3
909.3010, 326919.8
909.7831, 326830.5
910.2652, 326619.1
910.7473, 326284.7
911.2294, 326150.9
911.7115, 326444.1
912.1937, 326848.8
912.6758, 326961.5
913.1579, 326876.6
913.6400, 326793.5
914.1221, 326706.3
914.6042, 326718.4
915.0863, 326947.7
915.5684, 327220.1
916.0505, 327240.6
916.5327, 326979.1
917.0148, 326873.4
917.4969, 327028.2
917.9790, 327236.2
918.4611, 327199.3
918.9432, 327072.8
919.4254, 327095.0
919.9075, 327337.4
920.3896, 327691.3
920.8717, 328312.4
921.3538, 328880.1
921.8359, 329082.7
922.3181, 328789.4
922.8002, 328906.5
923.2823, 329476.0
923.7644, 330125.1
924.2465, 330501.4
924.7286, 330732.6
925.2108, 331015.6
925.6929, 331357.8
926.1750, 331643.7
926.6571, 331794.9
927.1392, 331910.1
927.6213, 332065.8
928.1035, 332248.4
928.5856, 332262.8
929.0677, 332087.5
929.5498, 331961.4
930.0319, 332076.6
930.5140, 332263.5
930.9962, 332220.0
931.4783, 332007.0
931.9604, 331814.1
932.4425, 331747.1
932.9246, 331682.5
933.4067, 331515.0
933.8889, 331341.1
934.3710, 331384.8
934.8531, 331688.3
935.3352, 331894.6
935.8173, 331896.1
936.2994, 331845.2
936.7816, 331967.6
937.2637, 332182.2
937.7458, 332338.2
938.2279, 332374.8
938.7100, 332393.4
939.1921, 332402.5
939.6743, 332424.0
940.1564, 332495.3
940.6385, 332646.6
941.1206, 332679.2
941.6027, 332583.6
942.0848, 332412.8
942.5670, 332115.6
943.0491, 331822.7
943.5312, 331759.0
944.0133, 331939.4
944.4954, 332099.3
944.9775, 332148.5
945.4597, 332143.3
945.9418, 332109.1
946.4239, 332048.0
946.9060, 331940.7
947.3881, 331779.4
947.8702, 331712.1
948.3524, 331895.5
948.8345, 332141.5
949.3166, 332130.8
949.7987, 331966.2
950.2808, 331919.7
950.7629, 332246.8
951.2451, 332505.0
951.7272, 332511.8
952.2093, 332440.0
952.6914, 332655.6
953.1735, 333175.1
953.6556, 333436.6
954.1378, 333279.2
954.6199, 333033.3
955.1020, 333051.3
955.5841, 333212.8
956.0662, 333363.0
956.5483, 333472.0
957.0305, 333569.8
957.5126, 333681.6
957.9947, 333772.5
958.4768, 333806.6
958.9589, 333786.1
959.4410, 333806.8
959.9232, 333869.1
960.4053, 334013.3
960.8874, 334372.5
961.3695, 334749.6
961.8516, 334924.4
962.3337, 334906.7
962.8159, 334897.1
963.2980, 334891.3
963.7801, 334961.5
964.2622, 335201.8
964.7443, 335486.7
965.2264, 335349.9
965.7086, 334856.5
966.1907, 334466.3
966.6728, 334353.3
967.1549, 334393.4
967.6370, 334596.8
968.1191, 334856.9
968.6013, 335002.8
969.0834, 334859.4
969.5655, 334887.9
970.0476, 335176.9
970.5297, 335500.6
971.0118, 335597.4
971.4940, 335515.7
971.9761, 335418.1
972.4582, 335316.9
972.9403, 335315.1
973.4224, 335588.9
973.9045, 335903.6
974.3867, 336029.9
974.8688, 335944.2
975.3508, 336176.2
975.8329, 336863.8
976.3151, 337404.7
976.7972, 337418.3
977.2793, 337132.6
977.7614, 337032.0
978.2435, 337087.8
978.7256, 337204.9
979.2078, 337383.0
979.6899, 337551.4
980.1720, 337677.3
980.6541, 337771.8
981.1362, 337870.1
981.6183, 337987.3
982.1005, 338020.3
982.5826, 337946.6
983.0647, 337839.3
983.5468, 337807.0
984.0289, 337799.4
984.5110, 337726.2
984.9932, 337559.9
985.4753, 337412.6
985.9574, 337264.8
986.4395, 337209.3
986.9216, 337334.5
987.4037, 337632.5
987.8859, 337789.7
988.3680, 337804.7
988.8501, 337785.8
989.3322, 337760.9
989.8143, 337762.1
990.2964, 337869.0
990.7786, 338035.7
991.2607, 338100.5
991.7428, 337860.4
992.2249, 337800.4
992.7070, 338092.3
993.1891, 338486.3
993.6713, 338435.9
994.1534, 338056.6
994.6355, 337910.8
995.1176, 338158.7
995.5997, 338522.8
996.0818, 338932.7
996.5640, 339276.9
997.0461, 339407.8
997.5282, 339241.0
998.0103, 339204.2
998.4924, 339314.7
998.9745, 339492.5
999.4567, 339710.8
999.9388, 339943.4
1000.421, 340098.9
1000.903, 340197.8
1001.385, 340353.2
1001.867, 340791.3
1002.349, 341101.2
1002.831, 341008.5
1003.314, 340694.8
1003.796, 340552.0
1004.278, 340586.7
1004.760, 340732.8
1005.242, 341019.7
1005.724, 341288.7
1006.206, 341348.3
1006.688, 341278.1
1007.171, 341171.2
1007.653, 340996.6
1008.135, 340964.7
1008.617, 341227.1
1009.099, 341461.7
1009.581, 341407.9
1010.063, 341103.4
1010.545, 340982.2
1011.027, 341030.2
1011.510, 341105.6
1011.992, 341111.2
1012.474, 341111.5
1012.956, 341137.7
1013.438, 341191.6
1013.920, 341291.7
1014.402, 341488.5
1014.884, 341550.6
1015.367, 341370.6
1015.849, 341173.0
1016.331, 341423.6
1016.813, 341912.6
1017.295, 342148.8
1017.777, 341949.2
1018.259, 341768.1
1018.741, 341827.0
1019.223, 341945.1
1019.706, 342016.1
1020.188, 342042.8
1020.670, 341950.9
1021.152, 341729.6
1021.634, 341677.4
1022.116, 342127.9
1022.598, 342738.3
1023.080, 343198.3
1023.563, 343508.6
1024.045, 343692.8
1024.527, 343634.3
1025.009, 343626.1
1025.491, 343724.8
1025.973, 343849.9
1026.455, 343829.6
1026.937, 343715.9
1027.419, 343752.3
1027.901, 344016.6
1028.384, 344240.0
1028.866, 344216.0
1029.348, 344114.9
1029.830, 344063.3
1030.312, 344072.0
1030.794, 344177.7
1031.276, 344426.7
1031.758, 344549.4
1032.241, 344284.4
1032.723, 343894.4
1033.205, 343756.8
1033.687, 343823.1
1034.169, 343951.8
1034.651, 344092.4
1035.133, 344293.0
1035.615, 344577.6
1036.098, 344884.3
1036.580, 345123.3
1037.062, 345293.3
1037.544, 345445.2
1038.026, 345574.8
1038.508, 345698.3
1038.990, 345870.2
1039.472, 346001.3
1039.954, 346011.4
1040.437, 345895.5
1040.919, 345742.6
1041.401, 345527.9
1041.883, 345419.4
1042.365, 345585.4
1042.847, 345807.0
1043.329, 345613.1
1043.811, 345169.6
1044.293, 344841.5
1044.776, 344852.3
1045.258, 344879.0
1045.740, 344886.9
1046.222, 344866.9
1046.704, 344783.0
1047.186, 344638.6
1047.668, 344567.2
1048.150, 344570.9
1048.633, 344641.7
1049.115, 344786.3
1049.597, 344980.2
1050.079, 345231.9
1050.561, 345527.6
1051.043, 345770.8
1051.525, 345951.6
1052.007, 346093.7
1052.490, 346180.8
1052.972, 346271.7
1053.454, 346461.5
1053.936, 346721.6
1054.418, 347009.6
1054.900, 347333.2
1055.382, 347595.2
1055.864, 347739.9
1056.346, 347823.2
1056.828, 347883.3
1057.311, 347912.9
1057.793, 347783.2
1058.275, 347508.4
1058.757, 347336.2
1059.239, 347563.1
1059.721, 347819.9
1060.203, 347905.8
1060.685, 347826.4
1061.168, 347596.2
1061.650, 347170.4
1062.132, 346798.7
1062.614, 346516.9
1063.096, 346326.5
1063.578, 346303.7
1064.060, 346344.4
1064.542, 346231.8
1065.025, 345911.6
1065.507, 345749.8
1065.989, 346014.3
1066.471, 346271.7
1066.953, 346345.5
1067.435, 346287.8
1067.917, 346304.9
1068.399, 346392.9
1068.881, 346532.0
1069.364, 346775.1
1069.846, 346967.9
1070.328, 346881.8
1070.810, 346751.8
1071.292, 346905.9
1071.774, 347469.6
1072.256, 347810.3
1072.738, 347892.2
1073.220, 347822.8
1073.703, 347563.5
1074.185, 347282.0
1074.667, 347242.8
1075.149, 347411.6
1075.631, 347522.5
1076.113, 347497.3
1076.595, 347447.6
1077.077, 347412.4
1077.559, 347363.0
1078.042, 347234.6
1078.524, 347053.6
1079.006, 346865.3
1079.488, 346671.4
1079.970, 346560.0
1080.452, 346673.8
1080.934, 346805.8
1081.416, 346781.6
1081.899, 346613.4
1082.381, 346653.1
1082.863, 346897.7
1083.345, 347224.7
1083.827, 347610.3
1084.309, 347986.4
1084.791, 348277.0
1085.273, 348512.5
1085.755, 348764.4
1086.238, 349112.7
1086.720, 349297.3
1087.202, 349288.2
1087.684, 349174.7
1088.166, 348951.5
1088.648, 348725.7
1089.130, 348747.8
1089.612, 349006.1
1090.094, 349220.5
1090.577, 349193.5
1091.059, 349248.3
1091.541, 349561.3
1092.023, 349949.7
1092.505, 349902.0
1092.987, 349522.1
1093.469, 349415.0
1093.951, 349762.2
1094.434, 350170.2
1094.916, 350435.7
1095.398, 350589.9
1095.880, 350626.1
1096.362, 350541.9
1096.844, 350532.3
1097.326, 350599.6
1097.808, 350679.8
1098.291, 350756.2
1098.773, 350814.1
1099.255, 350812.9
1099.737, 350791.0
1100.219, 350819.1
1100.701, 351008.0
1101.183, 351072.2
1101.665, 350965.0
1102.147, 350848.7
1102.630, 350888.3
1103.112, 351027.6
1103.594, 351163.2
1104.076, 351282.2
1104.558, 351366.0
1105.040, 351350.4
1105.522, 351352.9
1106.004, 351398.8
1106.486, 351477.5
1106.969, 351614.2
1107.451, 351779.0
1107.933, 351803.7
1108.415, 351651.5
1108.897, 351405.0
1109.379, 351026.9
1109.861, 350669.3
1110.343, 350463.8
1110.826, 350404.1
1111.308, 350315.3
1111.790, 350199.5
1112.272, 350138.0
1112.754, 350194.5
1113.236, 350275.0
1113.718, 350241.0
1114.200, 350175.2
1114.682, 350213.5
1115.165, 350488.9
1115.647, 350534.3
1116.129, 350269.3
1116.611, 350008.1
1117.093, 350038.1
1117.575, 350207.1
1118.057, 350249.1
1118.539, 350185.2
1119.021, 350126.0
1119.504, 350165.6
1119.986, 350132.8
1120.468, 349957.9
1120.950, 349780.6
1121.432, 349855.1
1121.914, 350099.5
1122.396, 350203.6
1122.878, 350135.6
1123.361, 350053.5
1123.843, 349986.3
1124.325, 349997.5
1124.807, 350122.3
1125.289, 350338.3
1125.771, 350568.4
1126.253, 350813.2
1126.735, 351131.3
1127.218, 351557.8
1127.700, 351972.2
1128.182, 352270.4
1128.664, 352498.5
1129.146, 352672.8
1129.628, 352771.7
1130.110, 353044.4
1130.592, 353513.1
1131.074, 353825.6
1131.557, 353685.2
1132.039, 353400.0
1132.521, 353328.5
1133.003, 353381.6
1133.485, 353401.8
1133.967, 353394.1
1134.449, 353327.8
1134.931, 353218.2
1135.413, 353055.7
1135.896, 352748.1
1136.378, 352441.2
1136.860, 352464.0
1137.342, 352748.5
1137.824, 352883.2
1138.306, 352524.8
1138.788, 352290.2
1139.270, 352282.2
1139.752, 352404.5
1140.235, 352531.7
1140.717, 352656.6
1141.199, 352786.9
1141.681, 352914.9
1142.163, 353003.9
1142.645, 353141.2
1143.127, 353083.8
1143.609, 352654.6
1144.092, 352018.9
1144.574, 351790.3
1145.056, 351896.9
1145.538, 351845.2
1146.020, 351435.8
1146.502, 351085.2
1146.984, 351185.7
1147.466, 351376.1
1147.948, 351339.4
1148.431, 351087.3
1148.913, 351050.8
1149.395, 351226.5
1149.877, 351513.7
1150.359, 351909.5
1150.841, 352310.0
1151.323, 352650.4
1151.805, 352921.4
1152.287, 353112.7
1152.770, 353194.3
1153.252, 353243.1
1153.734, 353243.3
1154.216, 353275.5
1154.698, 353477.1
1155.180, 353684.9
1155.662, 353653.8
1156.144, 353481.6
1156.627, 353543.4
1157.109, 354056.2
1157.591, 354293.5
1158.073, 354129.7
1158.555, 353862.1
1159.037, 353761.0
1159.519, 353796.1
1160.001, 354004.8
1160.484, 354362.2
1160.966, 354489.0
1161.448, 354214.2
1161.930, 353893.7
1162.412, 353583.8
1162.894, 353304.4
1163.376, 353164.9
1163.858, 353064.8
1164.340, 352730.1
1164.823, 352044.2
1165.305, 351647.9
1165.787, 351980.1
1166.269, 352245.9
1166.751, 352072.9
1167.233, 351678.3
1167.715, 351690.6
1168.197, 352000.6
1168.679, 352243.1
1169.162, 352239.7
1169.644, 352298.1
1170.126, 352572.1
1170.608, 352872.9
1171.090, 353074.6
1171.572, 353185.8
1172.054, 353286.2
1172.536, 353388.1
1173.019, 353600.8
1173.501, 354146.9
1173.983, 354599.0
1174.465, 354735.7
1174.947, 354724.2
1175.429, 354684.0
1175.911, 354621.3
1176.393, 354708.2
1176.875, 354944.4
1177.358, 355177.1
1177.840, 355452.1
1178.322, 355552.0
1178.804, 355143.3
1179.286, 354564.1
1179.768, 354429.7
1180.250, 354750.5
1180.732, 355080.5
1181.214, 355373.8
1181.697, 355624.1
1182.179, 355819.8
1182.661, 355972.9
1183.143, 356061.4
1183.625, 356106.8
1184.107, 356241.1
1184.589, 356483.1
1185.071, 356420.1
1185.554, 355910.3
1186.036, 355401.5
1186.518, 355433.7
1187.000, 355589.3
1187.482, 355418.1
1187.964, 354938.1
1188.446, 354809.1
1188.928, 355097.3
1189.411, 355179.5
1189.893, 354778.3
1190.375, 354312.8
1190.857, 354282.1
1191.339, 354433.1
1191.821, 354478.8
1192.303, 354381.3
1192.785, 354227.3
1193.267, 353984.8
1193.750, 353877.8
1194.232, 354060.3
1194.714, 354358.0
1195.196, 354679.7
1195.678, 354929.0
1196.160, 354928.6
1196.642, 354532.5
1197.124, 354249.7
1197.606, 354075.2
1198.089, 354017.6
1198.571, 354166.6
1199.053, 354374.5
1199.535, 354464.3
1200.017, 354467.6
1200.499, 354446.8
1200.981, 354354.4
1201.463, 354405.3
1201.945, 354640.9
1202.428, 354874.1
1202.910, 354920.0
1203.392, 354883.3
1203.874, 354898.4
1204.356, 354954.5
1204.838, 354989.9
1205.320, 354941.9
1205.802, 355021.4
1206.285, 355294.3
1206.767, 355522.5
1207.249, 355301.4
1207.731, 354966.9
1208.213, 355039.3
1208.695, 355492.2
1209.177, 355827.3
1209.659, 355967.1
1210.141, 356009.6
1210.624, 355932.2
1211.106, 355875.4
1211.588, 356142.9
1212.070, 356475.4
1212.552, 356438.4
1213.034, 355992.1
1213.516, 355711.5
1213.998, 355655.9
1214.480, 355774.9
1214.963, 356138.2
1215.445, 356473.8
1215.927, 356269.4
1216.409, 355828.9
1216.891, 355642.9
1217.373, 355838.5
1217.855, 355821.8
1218.337, 355452.2
1218.820, 355185.6
1219.302, 355242.9
1219.784, 355401.8
1220.266, 355230.8
1220.748, 354941.4
1221.230, 354904.8
1221.712, 355307.3
1222.194, 355438.6
1222.677, 355157.1
1223.159, 354931.4
1223.641, 354976.7
1224.123, 355203.2
1224.605, 355578.5
1225.087, 355989.8
1225.569, 356228.2
1226.051, 356126.6
1226.533, 356151.1
1227.016, 356348.8
1227.498, 356533.8
1227.980, 356589.7
1228.462, 356570.4
1228.944, 356482.9
1229.426, 356402.6
1229.908, 356488.5
1230.390, 356989.8
1230.872, 357183.9
1231.355, 356990.4
1231.837, 356822.1
1232.319, 357099.0
1232.801, 357500.8
1233.283, 357549.4
1233.765, 357375.8
1234.247, 357302.1
1234.729, 357380.3
1235.212, 357550.1
1235.694, 357823.6
1236.176, 358089.4
1236.658, 358257.1
1237.140, 358348.4
1237.622, 358398.6
1238.104, 358388.0
1238.586, 358245.4
1239.068, 357901.2
1239.551, 357695.1
1240.033, 357677.7
1240.515, 357701.8
1240.997, 357606.8
1241.479, 357524.0
1241.961, 357673.6
1242.443, 357969.0
1242.925, 358023.1
1243.407, 357746.3
1243.890, 357625.8
1244.372, 357729.1
1244.854, 357910.9
1245.336, 358032.0
1245.818, 358149.8
1246.300, 358282.8
1246.782, 358441.1
1247.264, 358709.0
1247.747, 359113.2
1248.229, 359307.7
1248.711, 359218.2
1249.193, 359003.2
1249.675, 358702.0
1250.157, 358431.3
1250.639, 358385.2
1251.121, 358472.0
1251.604, 358256.0
1252.086, 357735.0
1252.568, 357382.9
1253.050, 357325.1
1253.532, 357302.6
1254.014, 357016.8
1254.496, 356771.3
1254.978, 356813.9
1255.460, 357070.5
1255.943, 357312.0
1256.425, 357529.5
1256.907, 357717.3
1257.389, 357862.5
1257.871, 357991.9
1258.353, 358182.2
1258.835, 358281.1
1259.317, 358193.8
1259.799, 357947.7
1260.281, 357565.9
1260.764, 357109.0
1261.246, 356976.8
1261.728, 357380.1
1262.210, 357682.4
1262.692, 357616.4
1263.174, 357289.0
1263.656, 356664.5
1264.138, 355913.2
1264.621, 355631.4
1265.103, 355722.0
1265.585, 355828.6
1266.067, 355847.9
1266.549, 355910.4
1267.031, 355981.7
1267.513, 356218.3
1267.995, 356760.5
1268.478, 357449.3
1268.960, 357841.0
1269.442, 358035.0
1269.924, 358293.3
1270.406, 358687.1
1270.888, 359103.9
1271.370, 359551.7
1271.852, 359908.7
1272.334, 360086.5
1272.817, 360144.0
1273.299, 360181.0
1273.781, 360205.2
1274.263, 360250.9
1274.745, 360387.1
1275.227, 360361.0
1275.709, 360124.9
1276.191, 359932.6
1276.673, 360017.6
1277.156, 360122.6
1277.638, 359756.8
1278.120, 359196.6
1278.602, 358898.1
1279.084, 359030.1
1279.566, 359061.8
1280.048, 358986.2
1280.530, 358887.6
1281.013, 358764.3
1281.495, 358697.3
1281.977, 358779.2
1282.459, 358954.0
1282.941, 359165.3
1283.423, 359425.5
1283.905, 359473.3
1284.387, 359302.7
1284.870, 359238.2
1285.352, 359559.8
1285.834, 359902.6
1286.316, 360032.0
1286.798, 360039.3
1287.280, 360034.3
1287.762, 360018.3
1288.244, 359997.5
1288.726, 359970.2
1289.208, 359914.8
1289.691, 359782.0
1290.173, 359684.4
1290.655, 359719.1
1291.137, 359779.4
1291.619, 359752.7
1292.101, 359641.6
1292.583, 359665.4
1293.065, 359840.0
1293.548, 359934.8
1294.030, 359733.0
1294.512, 359529.3
1294.994, 359359.3
1295.476, 359200.3
1295.958, 358925.3
1296.440, 358608.3
1296.922, 358707.1
##END=



