##NAMES=Magnesiohulsite
##RRUFFID=R070223
##IDEAL CHEMISTRY=Mg_2_Fe^3+^O_2_(BO_3_)
##LOCALITY=Iten'yurginskoye Deposit, Chukotka (Tchukotka) Okrug, Chukot Peninsula, Far-Eastern Region, Russia
##OWNER=RRUFF
##SOURCE=Michael Scott
##DESCRIPTION=Radiating black fibrous crystals
##STATUS=The identification of this mineral is not yet confirmed.
##URL=rruff.info/R070223
171.8392, 2304.352
172.3213, 2294.350
172.8034, 2295.629
173.2856, 2301.670
173.7677, 2308.987
174.2498, 2316.810
174.7319, 2322.396
175.2140, 2320.827
175.6961, 2316.729
176.1783, 2318.049
176.6604, 2328.480
177.1425, 2340.640
177.6246, 2345.489
178.1067, 2343.662
178.5888, 2339.580
179.0710, 2332.280
179.5531, 2325.085
180.0352, 2326.516
180.5173, 2342.160
180.9994, 2363.712
181.4815, 2375.872
181.9637, 2379.064
182.4458, 2383.184
182.9279, 2402.672
183.4100, 2431.846
183.8921, 2448.765
184.3742, 2440.056
184.8564, 2418.223
185.3385, 2413.820
185.8206, 2427.798
186.3027, 2447.226
186.7848, 2460.591
187.2669, 2468.260
187.7491, 2473.595
188.2312, 2477.492
188.7133, 2479.944
189.1954, 2480.193
189.6775, 2477.698
190.1596, 2475.421
190.6418, 2478.582
191.1239, 2486.969
191.6060, 2492.637
192.0881, 2491.567
192.5702, 2484.438
193.0524, 2475.987
193.5345, 2465.058
194.0166, 2455.835
194.4987, 2457.459
194.9808, 2470.803
195.4629, 2481.815
195.9451, 2483.044
196.4272, 2474.697
196.9093, 2465.839
197.3914, 2456.521
197.8735, 2447.058
198.3556, 2437.910
198.8378, 2429.065
199.3199, 2420.804
199.8020, 2411.518
200.2841, 2400.680
200.7662, 2399.613
201.2483, 2413.198
201.7305, 2433.045
202.2126, 2436.711
202.6947, 2420.579
203.1768, 2401.758
203.6589, 2390.201
204.1410, 2386.765
204.6232, 2385.280
205.1053, 2385.289
205.5874, 2386.873
206.0695, 2390.214
206.5516, 2395.188
207.0337, 2402.251
207.5159, 2413.397
207.9980, 2430.423
208.4801, 2441.567
208.9622, 2443.411
209.4443, 2438.303
209.9264, 2438.268
210.4086, 2445.241
210.8907, 2453.427
211.3728, 2457.246
211.8549, 2454.041
212.3370, 2455.793
212.8191, 2465.042
213.3013, 2480.994
213.7834, 2498.928
214.2655, 2521.840
214.7476, 2541.965
215.2297, 2550.912
215.7118, 2543.733
216.1940, 2539.231
216.6761, 2540.352
217.1582, 2547.006
217.6403, 2558.672
218.1224, 2578.680
218.6045, 2599.069
219.0867, 2611.404
219.5688, 2611.714
220.0509, 2613.192
220.5330, 2619.067
221.0151, 2629.552
221.4972, 2638.396
221.9794, 2647.735
222.4615, 2653.153
222.9436, 2649.229
223.4257, 2631.917
223.9078, 2613.360
224.3899, 2596.622
224.8721, 2581.753
225.3542, 2565.039
225.8363, 2545.427
226.3184, 2524.836
226.8005, 2504.480
227.2827, 2481.894
227.7648, 2464.974
228.2469, 2459.642
228.7290, 2469.671
229.2111, 2460.611
229.6932, 2420.654
230.1754, 2371.296
230.6575, 2340.938
231.1396, 2338.981
231.6217, 2339.856
232.1038, 2336.189
232.5859, 2326.199
233.0681, 2322.013
233.5502, 2328.495
234.0323, 2337.301
234.5144, 2335.254
234.9965, 2314.492
235.4786, 2296.199
235.9608, 2287.399
236.4429, 2290.556
236.9250, 2292.265
237.4071, 2292.513
237.8892, 2291.297
238.3713, 2287.975
238.8535, 2279.356
239.3356, 2274.104
239.8177, 2276.901
240.2998, 2292.366
240.7819, 2297.297
241.2640, 2285.877
241.7462, 2267.390
242.2283, 2259.036
242.7104, 2270.201
243.1925, 2275.920
243.6746, 2265.316
244.1567, 2229.803
244.6389, 2208.146
245.1210, 2207.620
245.6031, 2216.614
246.0852, 2213.514
246.5673, 2189.428
247.0494, 2168.448
247.5316, 2160.366
248.0137, 2170.558
248.4958, 2175.250
248.9779, 2172.143
249.4600, 2164.792
249.9421, 2159.483
250.4243, 2155.688
250.9064, 2154.884
251.3885, 2159.635
251.8706, 2175.120
252.3527, 2177.528
252.8348, 2160.021
253.3170, 2133.718
253.7991, 2120.924
254.2812, 2128.998
254.7633, 2136.717
255.2454, 2135.513
255.7275, 2122.313
256.2097, 2111.350
256.6918, 2102.138
257.1739, 2095.613
257.6560, 2094.254
258.1381, 2100.835
258.6202, 2106.839
259.1024, 2108.198
259.5845, 2102.682
260.0666, 2102.373
260.5487, 2110.343
261.0308, 2121.180
261.5129, 2123.945
261.9951, 2114.260
262.4772, 2106.957
262.9593, 2109.553
263.4414, 2125.614
263.9235, 2134.367
264.4056, 2134.152
264.8878, 2128.239
265.3699, 2121.519
265.8520, 2112.856
266.3341, 2106.500
266.8162, 2105.208
267.2983, 2110.387
267.7805, 2111.594
268.2626, 2108.249
268.7447, 2101.532
269.2268, 2091.130
269.7089, 2073.927
270.1910, 2064.364
270.6732, 2072.468
271.1553, 2101.452
271.6374, 2113.585
272.1195, 2102.597
272.6016, 2083.958
273.0837, 2085.899
273.5659, 2113.230
274.0480, 2136.448
274.5301, 2141.786
275.0122, 2128.368
275.4943, 2122.153
275.9764, 2125.231
276.4586, 2131.585
276.9407, 2131.547
277.4228, 2124.301
277.9049, 2117.762
278.3870, 2114.373
278.8691, 2114.154
279.3513, 2119.510
279.8334, 2132.844
280.3155, 2145.572
280.7976, 2142.769
281.2798, 2123.612
281.7619, 2108.891
282.2440, 2109.117
282.7261, 2121.818
283.2082, 2127.735
283.6903, 2125.901
284.1725, 2120.833
284.6546, 2116.198
285.1367, 2112.182
285.6188, 2112.809
286.1009, 2121.269
286.5830, 2135.701
287.0652, 2149.213
287.5473, 2162.055
288.0294, 2171.763
288.5115, 2173.832
288.9936, 2169.146
289.4757, 2164.942
289.9579, 2163.184
290.4400, 2163.731
290.9221, 2165.965
291.4042, 2169.830
291.8863, 2176.090
292.3684, 2187.834
292.8506, 2203.400
293.3327, 2215.552
293.8148, 2220.036
294.2969, 2220.925
294.7790, 2226.745
295.2611, 2237.536
295.7433, 2249.037
296.2254, 2258.891
296.7075, 2266.805
297.1896, 2271.601
297.6717, 2272.420
298.1538, 2270.574
298.6360, 2266.691
299.1181, 2261.020
299.6002, 2256.911
300.0823, 2258.766
300.5644, 2263.769
301.0465, 2266.288
301.5287, 2263.072
302.0108, 2259.011
302.4929, 2260.736
302.9750, 2267.250
303.4571, 2272.754
303.9392, 2274.219
304.4214, 2272.096
304.9035, 2266.415
305.3856, 2255.254
305.8677, 2243.845
306.3498, 2235.963
306.8319, 2231.561
307.3141, 2230.379
307.7962, 2234.860
308.2783, 2241.319
308.7604, 2246.889
309.2425, 2252.368
309.7246, 2253.567
310.2068, 2242.740
310.6889, 2224.884
311.1710, 2212.838
311.6531, 2216.678
312.1352, 2226.311
312.6173, 2236.221
313.0995, 2248.285
313.5816, 2252.140
314.0637, 2233.414
314.5458, 2203.639
315.0279, 2184.366
315.5100, 2193.256
315.9922, 2207.734
316.4743, 2215.884
316.9564, 2215.084
317.4385, 2213.113
317.9206, 2211.190
318.4027, 2209.932
318.8849, 2210.198
319.3670, 2213.935
319.8491, 2217.729
320.3312, 2219.730
320.8133, 2219.192
321.2954, 2220.718
321.7776, 2227.254
322.2597, 2235.508
322.7418, 2241.969
323.2239, 2243.575
323.7060, 2245.895
324.1881, 2250.451
324.6703, 2257.468
325.1524, 2264.474
325.6345, 2270.628
326.1166, 2276.991
326.5987, 2284.510
327.0808, 2296.273
327.5630, 2305.535
328.0451, 2310.661
328.5272, 2311.865
329.0093, 2313.948
329.4914, 2319.078
329.9735, 2323.089
330.4557, 2322.651
330.9378, 2311.915
331.4199, 2306.967
331.9020, 2309.807
332.3841, 2319.492
332.8662, 2332.391
333.3484, 2352.125
333.8305, 2369.383
334.3126, 2377.964
334.7947, 2373.536
335.2768, 2373.686
335.7589, 2380.316
336.2411, 2391.426
336.7232, 2404.025
337.2053, 2420.839
337.6874, 2430.872
338.1695, 2425.367
338.6516, 2401.519
339.1338, 2387.958
339.6159, 2387.662
340.0980, 2393.972
340.5801, 2396.110
341.0622, 2393.765
341.5443, 2390.122
342.0265, 2383.162
342.5086, 2374.345
342.9907, 2380.429
343.4728, 2404.666
343.9549, 2430.846
344.4370, 2437.550
344.9192, 2426.410
345.4013, 2412.659
345.8834, 2400.359
346.3655, 2389.726
346.8476, 2381.892
347.3297, 2376.890
347.8119, 2374.179
348.2940, 2373.474
348.7761, 2374.742
349.2582, 2378.277
349.7403, 2386.514
350.2225, 2394.719
350.7046, 2395.174
351.1867, 2388.650
351.6688, 2381.058
352.1509, 2375.601
352.6331, 2372.058
353.1152, 2370.266
353.5973, 2370.683
354.0794, 2371.918
354.5615, 2372.129
355.0436, 2372.010
355.5258, 2373.670
356.0079, 2381.933
356.4900, 2390.452
356.9721, 2392.298
357.4542, 2383.803
357.9363, 2377.490
358.4185, 2383.874
358.9006, 2396.828
359.3827, 2405.755
359.8648, 2404.279
360.3469, 2399.489
360.8290, 2394.243
361.3112, 2388.534
361.7933, 2384.289
362.2754, 2381.587
362.7575, 2380.811
363.2396, 2382.380
363.7217, 2386.544
364.2039, 2392.894
364.6860, 2403.354
365.1681, 2417.995
365.6502, 2427.945
366.1323, 2429.674
366.6144, 2428.027
367.0966, 2426.301
367.5787, 2423.713
368.0608, 2422.173
368.5429, 2421.854
369.0250, 2422.698
369.5071, 2424.127
369.9893, 2423.548
370.4714, 2426.510
370.9535, 2437.073
371.4356, 2462.495
371.9177, 2478.533
372.3998, 2482.763
372.8820, 2478.521
373.3641, 2471.431
373.8462, 2458.190
374.3283, 2450.803
374.8104, 2456.864
375.2925, 2478.286
375.7747, 2489.536
376.2568, 2487.035
376.7389, 2481.642
377.2210, 2490.429
377.7031, 2514.689
378.1852, 2534.465
378.6674, 2543.347
379.1495, 2542.927
379.6316, 2538.989
380.1137, 2531.194
380.5958, 2523.256
381.0779, 2517.638
381.5601, 2514.543
382.0422, 2516.029
382.5243, 2524.947
383.0064, 2535.560
383.4885, 2535.122
383.9706, 2525.502
384.4528, 2520.485
384.9349, 2536.898
385.4170, 2562.151
385.8991, 2573.389
386.3812, 2563.302
386.8633, 2552.109
387.3455, 2562.602
387.8276, 2586.603
388.3097, 2605.583
388.7918, 2604.919
389.2739, 2598.660
389.7560, 2598.356
390.2382, 2605.372
390.7203, 2612.531
391.2024, 2615.759
391.6845, 2617.060
392.1666, 2618.785
392.6487, 2617.430
393.1309, 2620.659
393.6130, 2635.402
394.0951, 2660.278
394.5772, 2678.889
395.0593, 2681.163
395.5414, 2679.619
396.0236, 2682.049
396.5057, 2694.259
396.9878, 2704.898
397.4699, 2712.865
397.9520, 2718.466
398.4341, 2722.444
398.9163, 2719.374
399.3984, 2720.356
399.8805, 2730.887
400.3626, 2756.842
400.8447, 2774.377
401.3268, 2778.889
401.8090, 2778.360
402.2911, 2785.627
402.7732, 2806.133
403.2553, 2819.399
403.7374, 2815.530
404.2195, 2796.286
404.7017, 2796.544
405.1838, 2821.954
405.6659, 2851.758
406.1480, 2866.374
406.6301, 2865.669
407.1122, 2864.454
407.5944, 2864.533
408.0765, 2866.517
408.5586, 2874.779
409.0407, 2889.154
409.5228, 2898.477
410.0049, 2889.283
410.4871, 2869.150
410.9692, 2861.285
411.4513, 2870.417
411.9334, 2882.143
412.4155, 2878.198
412.8976, 2863.139
413.3798, 2850.353
413.8619, 2844.391
414.3440, 2844.445
414.8261, 2852.368
415.3082, 2868.099
415.7903, 2881.668
416.2725, 2885.978
416.7546, 2884.842
417.2367, 2882.707
417.7188, 2883.819
418.2009, 2881.068
418.6830, 2864.687
419.1652, 2839.922
419.6473, 2826.668
420.1294, 2841.812
420.6115, 2862.512
421.0937, 2877.144
421.5758, 2883.624
422.0579, 2884.536
422.5400, 2874.599
423.0221, 2860.460
423.5042, 2852.832
423.9864, 2854.673
424.4685, 2860.244
424.9506, 2870.637
425.4327, 2886.650
425.9148, 2894.806
426.3969, 2890.644
426.8791, 2883.717
427.3612, 2882.869
427.8433, 2890.850
428.3254, 2896.074
428.8075, 2896.017
429.2896, 2892.458
429.7718, 2892.135
430.2539, 2895.923
430.7360, 2898.342
431.2181, 2895.188
431.7002, 2886.914
432.1823, 2879.191
432.6645, 2871.407
433.1466, 2867.145
433.6287, 2876.321
434.1108, 2895.463
434.5929, 2906.839
435.0750, 2894.284
435.5572, 2873.125
436.0393, 2875.191
436.5214, 2899.250
437.0035, 2919.216
437.4856, 2906.153
437.9677, 2878.702
438.4499, 2863.974
438.9320, 2875.792
439.4141, 2890.079
439.8962, 2887.560
440.3783, 2873.940
440.8604, 2863.851
441.3426, 2861.056
441.8247, 2865.785
442.3068, 2881.439
442.7889, 2912.060
443.2710, 2935.704
443.7531, 2947.792
444.2353, 2949.380
444.7174, 2941.835
445.1995, 2903.334
445.6816, 2879.872
446.1637, 2885.829
446.6458, 2917.914
447.1280, 2942.330
447.6101, 2956.483
448.0922, 2965.861
448.5743, 2972.680
449.0564, 2975.187
449.5385, 2981.001
450.0207, 2994.024
450.5028, 3007.067
450.9849, 3003.669
451.4670, 2980.124
451.9491, 2958.917
452.4312, 2946.929
452.9134, 2944.307
453.3955, 2954.911
453.8776, 2980.484
454.3597, 3006.515
454.8418, 3017.651
455.3239, 3016.694
455.8061, 3014.430
456.2882, 3012.439
456.7703, 3011.552
457.2524, 3015.307
457.7345, 3022.016
458.2166, 3024.806
458.6988, 3012.531
459.1809, 2997.706
459.6630, 2995.521
460.1451, 3008.954
460.6272, 3024.139
461.1093, 3032.943
461.5915, 3038.147
462.0736, 3043.010
462.5557, 3053.698
463.0378, 3059.271
463.5199, 3050.415
464.0020, 3029.920
464.4842, 3018.376
464.9663, 3028.260
465.4484, 3042.245
465.9305, 3051.785
466.4126, 3059.435
466.8947, 3057.198
467.3769, 3036.659
467.8590, 3009.953
468.3411, 2997.934
468.8232, 3009.581
469.3053, 3018.107
469.7874, 3015.330
470.2696, 3002.007
470.7517, 2992.130
471.2338, 2986.220
471.7159, 2982.203
472.1980, 2979.639
472.6801, 2978.399
473.1623, 2972.520
473.6444, 2958.693
474.1265, 2944.632
474.6086, 2947.672
475.0907, 2964.885
475.5728, 2977.319
476.0550, 2968.024
476.5371, 2949.953
477.0192, 2946.239
477.5013, 2957.797
477.9834, 2969.403
478.4655, 2966.785
478.9477, 2957.942
479.4298, 2953.584
479.9119, 2960.808
480.3940, 2968.230
480.8761, 2966.931
481.3582, 2960.710
481.8404, 2960.549
482.3225, 2980.015
482.8046, 2998.109
483.2867, 3004.316
483.7688, 2993.950
484.2509, 2984.874
484.7331, 2979.651
485.2152, 2975.848
485.6973, 2970.561
486.1794, 2958.582
486.6615, 2954.645
487.1436, 2964.916
487.6258, 2984.984
488.1079, 2993.368
488.5900, 2987.414
489.0721, 2976.884
489.5542, 2965.283
490.0363, 2952.502
490.5185, 2945.709
491.0006, 2946.575
491.4827, 2948.656
491.9648, 2939.797
492.4470, 2923.022
492.9291, 2915.761
493.4112, 2928.723
493.8933, 2950.409
494.3754, 2964.253
494.8575, 2970.950
495.3397, 2974.068
495.8218, 2974.502
496.3039, 2973.362
496.7860, 2971.400
497.2681, 2968.144
497.7502, 2966.297
498.2324, 2969.369
498.7145, 2974.117
499.1966, 2976.189
499.6787, 2975.134
500.1608, 2970.333
500.6429, 2957.662
501.1251, 2938.166
501.6072, 2927.846
502.0893, 2934.881
502.5714, 2944.895
503.0535, 2951.005
503.5356, 2950.145
504.0178, 2953.110
504.4999, 2962.395
504.9820, 2973.201
505.4641, 2978.109
505.9462, 2976.260
506.4283, 2973.050
506.9105, 2970.457
507.3926, 2967.583
507.8747, 2958.789
508.3568, 2943.568
508.8389, 2931.334
509.3210, 2931.195
509.8032, 2939.285
510.2853, 2943.997
510.7674, 2942.767
511.2495, 2942.936
511.7316, 2954.913
512.2137, 2973.758
512.6959, 2989.225
513.1780, 2999.355
513.6601, 3002.934
514.1422, 2994.603
514.6243, 2976.627
515.1064, 2964.131
515.5886, 2967.338
516.0707, 2974.839
516.5528, 2980.249
517.0349, 2984.225
517.5170, 2983.115
517.9991, 2968.308
518.4813, 2951.442
518.9634, 2948.318
519.4455, 2969.996
519.9276, 2986.314
520.4097, 2989.892
520.8918, 2982.698
521.3740, 2977.814
521.8561, 2975.543
522.3382, 2974.578
522.8203, 2973.480
523.3024, 2972.448
523.7845, 2974.876
524.2667, 2981.112
524.7488, 2990.379
525.2309, 3006.072
525.7130, 3025.049
526.1951, 3036.221
526.6772, 3035.590
527.1594, 3025.593
527.6415, 2999.861
528.1236, 2964.008
528.6057, 2942.275
529.0878, 2965.083
529.5699, 2996.695
530.0521, 3009.242
530.5342, 2995.709
531.0163, 2979.358
531.4984, 2961.195
531.9805, 2946.600
532.4626, 2941.168
532.9448, 2954.215
533.4269, 2966.387
533.9090, 2976.441
534.3911, 2984.156
534.8732, 2988.454
535.3553, 2989.696
535.8375, 2986.790
536.3196, 2977.937
536.8017, 2962.579
537.2838, 2949.204
537.7659, 2936.051
538.2480, 2930.335
538.7302, 2947.773
539.2123, 2983.635
539.6944, 3002.719
540.1765, 2993.128
540.6586, 2971.366
541.1407, 2956.708
541.6229, 2948.751
542.1050, 2945.698
542.5871, 2949.304
543.0692, 2955.596
543.5513, 2963.405
544.0334, 2972.480
544.5156, 2975.031
544.9977, 2960.717
545.4798, 2942.217
545.9619, 2929.717
546.4440, 2928.646
546.9261, 2928.388
547.4083, 2929.359
547.8904, 2929.870
548.3725, 2926.642
548.8546, 2916.481
549.3367, 2907.705
549.8188, 2901.864
550.3010, 2899.003
550.7831, 2900.290
551.2652, 2906.634
551.7473, 2914.122
552.2294, 2922.852
552.7115, 2931.844
553.1937, 2928.414
553.6758, 2909.452
554.1579, 2886.830
554.6400, 2874.763
555.1221, 2870.891
555.6042, 2868.559
556.0864, 2864.026
556.5685, 2861.310
557.0506, 2866.484
557.5327, 2877.395
558.0148, 2885.955
558.4969, 2889.431
558.9791, 2888.425
559.4612, 2879.945
559.9433, 2860.113
560.4254, 2851.893
560.9075, 2877.397
561.3896, 2906.119
561.8718, 2910.583
562.3539, 2868.028
562.8360, 2840.196
563.3181, 2835.824
563.8002, 2847.079
564.2823, 2858.197
564.7645, 2871.477
565.2466, 2873.029
565.7287, 2849.088
566.2108, 2808.269
566.6929, 2798.191
567.1750, 2820.112
567.6572, 2846.113
568.1393, 2850.054
568.6214, 2841.498
569.1035, 2839.782
569.5856, 2849.041
570.0677, 2860.716
570.5499, 2874.186
571.0320, 2884.128
571.5141, 2882.289
571.9962, 2844.966
572.4783, 2815.870
572.9604, 2819.074
573.4426, 2848.294
573.9247, 2870.273
574.4068, 2874.042
574.8889, 2874.548
575.3710, 2877.582
575.8531, 2884.230
576.3353, 2887.016
576.8174, 2883.524
577.2995, 2879.715
577.7816, 2884.665
578.2637, 2900.376
578.7458, 2899.924
579.2280, 2873.618
579.7101, 2840.128
580.1922, 2835.243
580.6743, 2854.736
581.1564, 2874.739
581.6385, 2885.588
582.1207, 2889.987
582.6028, 2889.976
583.0849, 2885.904
583.5670, 2880.501
584.0491, 2873.207
584.5313, 2866.615
585.0134, 2863.458
585.4955, 2865.878
585.9776, 2866.042
586.4597, 2855.856
586.9418, 2845.001
587.4240, 2845.089
587.9061, 2868.395
588.3882, 2883.666
588.8703, 2885.229
589.3524, 2877.261
589.8345, 2871.748
590.3167, 2869.111
590.7988, 2867.421
591.2809, 2867.405
591.7630, 2867.895
592.2451, 2860.965
592.7272, 2846.286
593.2094, 2832.222
593.6915, 2824.066
594.1736, 2821.811
594.6557, 2826.736
595.1378, 2840.340
595.6199, 2855.152
596.1021, 2872.699
596.5842, 2886.001
597.0663, 2885.084
597.5485, 2841.194
598.0306, 2809.446
598.5127, 2816.662
598.9948, 2853.135
599.4769, 2876.010
599.9590, 2875.117
600.4412, 2869.910
600.9233, 2867.200
601.4054, 2867.592
601.8875, 2858.664
602.3696, 2835.693
602.8517, 2815.175
603.3339, 2815.546
603.8160, 2834.709
604.2981, 2844.538
604.7802, 2840.585
605.2623, 2831.149
605.7444, 2824.041
606.2266, 2819.824
606.7087, 2820.514
607.1908, 2831.765
607.6729, 2843.012
608.1550, 2844.240
608.6371, 2838.243
609.1193, 2834.149
609.6014, 2813.673
610.0835, 2840.281
610.5656, 2856.288
611.0477, 2862.264
611.5298, 2828.161
612.0120, 2845.812
612.4941, 2842.721
612.9762, 2838.781
613.4583, 2863.714
613.9404, 2835.441
614.4225, 2859.917
614.9047, 2863.337
615.3868, 2876.393
615.8689, 2868.581
616.3510, 2867.215
616.8331, 2886.723
617.3152, 2894.673
617.7974, 2884.460
618.2795, 2898.128
618.7616, 2869.126
619.2437, 2877.569
619.7258, 2902.167
620.2079, 2893.002
620.6901, 2907.052
621.1722, 2912.261
621.6543, 2877.289
622.1364, 2912.196
622.6185, 2916.882
623.1006, 2890.538
623.5828, 2923.051
624.0649, 2900.986
624.5470, 2898.401
625.0291, 2914.538
625.5112, 2910.245
625.9933, 2909.896
626.4755, 2916.930
626.9576, 2928.091
627.4397, 2937.073
627.9218, 2944.068
628.4039, 2950.546
628.8860, 2957.777
629.3682, 2964.643
629.8503, 2970.781
630.3324, 2975.773
630.8145, 2976.285
631.2966, 2965.320
631.7787, 2952.695
632.2609, 2945.573
632.7430, 2946.024
633.2251, 2947.417
633.7072, 2947.232
634.1893, 2948.308
634.6714, 2953.492
635.1536, 2966.450
635.6357, 2975.733
636.1178, 2981.135
636.5999, 2981.769
637.0820, 2971.807
637.5641, 2950.502
638.0463, 2939.421
638.5284, 2950.220
639.0105, 2971.351
639.4926, 2978.495
639.9747, 2974.038
640.4568, 2971.629
640.9390, 2981.047
641.4211, 2995.376
641.9032, 3011.674
642.3853, 3029.626
642.8674, 3037.613
643.3495, 3019.473
643.8317, 2997.415
644.3138, 2987.303
644.7959, 3000.955
645.2780, 3006.802
645.7601, 2998.243
646.2422, 2987.657
646.7244, 2991.430
647.2065, 3013.148
647.6886, 3030.881
648.1707, 3041.333
648.6528, 3044.948
649.1349, 3038.332
649.6171, 3023.476
650.0992, 3014.241
650.5813, 3022.915
651.0634, 3037.123
651.5455, 3039.718
652.0276, 3033.133
652.5098, 3030.319
652.9919, 3043.851
653.4740, 3058.912
653.9561, 3065.840
654.4382, 3062.378
654.9203, 3058.668
655.4025, 3048.878
655.8846, 3044.959
656.3667, 3056.902
656.8488, 3092.784
657.3309, 3121.843
657.8130, 3145.739
658.2952, 3158.065
658.7773, 3141.763
659.2594, 3099.832
659.7415, 3070.206
660.2236, 3064.754
660.7057, 3072.801
661.1879, 3086.011
661.6700, 3100.963
662.1521, 3107.880
662.6342, 3091.872
663.1163, 3075.092
663.5984, 3075.537
664.0806, 3090.498
664.5627, 3095.602
665.0448, 3076.481
665.5269, 3053.666
666.0090, 3034.657
666.4911, 3019.312
666.9733, 3010.666
667.4554, 3010.901
667.9375, 3013.508
668.4196, 3013.453
668.9017, 3010.792
669.3839, 3007.544
669.8660, 3003.914
670.3481, 2999.676
670.8302, 2994.415
671.3123, 2988.370
671.7944, 2982.012
672.2766, 2975.410
672.7587, 2968.758
673.2408, 2964.741
673.7229, 2960.454
674.2050, 2950.155
674.6871, 2918.463
675.1693, 2895.648
675.6514, 2897.939
676.1335, 2918.113
676.6156, 2916.311
677.0977, 2881.505
677.5798, 2850.136
678.0620, 2842.691
678.5441, 2855.251
679.0262, 2845.820
679.5083, 2812.786
679.9904, 2782.921
680.4725, 2785.031
680.9547, 2802.672
681.4368, 2804.965
681.9189, 2786.816
682.4010, 2768.189
682.8831, 2765.204
683.3652, 2767.313
683.8474, 2763.699
684.3295, 2746.163
684.8116, 2732.016
685.2937, 2724.822
685.7758, 2721.864
686.2579, 2719.956
686.7401, 2718.815
687.2222, 2720.343
687.7043, 2727.642
688.1864, 2735.174
688.6685, 2728.106
689.1506, 2707.134
689.6328, 2683.346
690.1149, 2657.004
690.5970, 2633.568
691.0791, 2621.758
691.5612, 2620.440
692.0433, 2623.962
692.5255, 2639.349
693.0076, 2650.520
693.4897, 2642.478
693.9718, 2611.711
694.4539, 2593.686
694.9360, 2601.564
695.4182, 2615.601
695.9003, 2626.156
696.3824, 2632.474
696.8645, 2638.531
697.3466, 2645.525
697.8287, 2649.104
698.3109, 2642.070
698.7930, 2626.619
699.2751, 2614.110
699.7572, 2606.497
700.2393, 2602.646
700.7214, 2602.033
701.2036, 2604.288
701.6857, 2608.938
702.1678, 2622.916
702.6499, 2630.972
703.1320, 2622.834
703.6141, 2604.666
704.0963, 2591.832
704.5784, 2584.805
705.0605, 2583.882
705.5426, 2592.533
706.0247, 2607.116
706.5068, 2610.623
706.9890, 2602.210
707.4711, 2590.032
707.9532, 2573.739
708.4353, 2557.795
708.9174, 2556.749
709.3995, 2569.289
709.8817, 2582.859
710.3638, 2591.963
710.8459, 2596.149
711.3280, 2592.337
711.8101, 2578.783
712.2922, 2570.835
712.7744, 2581.445
713.2565, 2592.653
713.7386, 2591.906
714.2207, 2572.707
714.7028, 2557.673
715.1849, 2545.734
715.6671, 2539.597
716.1492, 2544.244
716.6313, 2558.721
717.1134, 2572.018
717.5955, 2581.887
718.0776, 2590.939
718.5598, 2606.756
719.0419, 2623.359
719.5240, 2628.845
720.0061, 2610.232
720.4882, 2590.339
720.9703, 2581.396
721.4525, 2578.598
721.9346, 2570.828
722.4167, 2545.797
722.8988, 2529.924
723.3809, 2530.723
723.8630, 2544.072
724.3452, 2553.887
724.8273, 2559.857
725.3094, 2564.466
725.7915, 2570.527
726.2736, 2575.403
726.7557, 2567.399
727.2379, 2548.858
727.7200, 2538.237
728.2021, 2560.513
728.6842, 2586.509
729.1663, 2590.145
729.6484, 2568.599
730.1306, 2547.512
730.6127, 2530.069
731.0948, 2518.726
731.5769, 2515.504
732.0590, 2523.161
732.5411, 2527.183
733.0233, 2526.810
733.5054, 2524.501
733.9875, 2520.271
734.4696, 2515.166
734.9517, 2518.200
735.4338, 2531.335
735.9160, 2546.778
736.3981, 2562.261
736.8802, 2573.163
737.3623, 2570.641
737.8444, 2540.985
738.3266, 2519.769
738.8087, 2527.530
739.2908, 2549.381
739.7729, 2563.916
740.2551, 2570.699
740.7372, 2568.709
741.2193, 2553.461
741.7014, 2533.026
742.1835, 2524.403
742.6656, 2527.736
743.1478, 2536.428
743.6299, 2551.930
744.1120, 2567.211
744.5941, 2569.523
745.0762, 2561.964
745.5583, 2554.223
746.0405, 2547.860
746.5226, 2545.689
747.0047, 2551.087
747.4868, 2562.806
747.9689, 2573.912
748.4510, 2588.528
748.9332, 2595.668
749.4153, 2588.463
749.8974, 2568.887
750.3795, 2560.208
750.8616, 2563.127
751.3438, 2571.409
751.8259, 2588.010
752.3080, 2605.672
752.7901, 2602.134
753.2722, 2578.250
753.7543, 2559.260
754.2365, 2566.778
754.7186, 2582.836
755.2007, 2594.969
755.6828, 2602.454
756.1649, 2601.690
756.6470, 2582.072
757.1292, 2562.859
757.6113, 2556.745
758.0934, 2567.933
758.5755, 2572.443
759.0576, 2568.564
759.5397, 2563.828
760.0219, 2566.649
760.5040, 2575.100
760.9861, 2584.147
761.4682, 2593.745
761.9503, 2599.341
762.4324, 2595.697
762.9146, 2586.702
763.3967, 2576.780
763.8788, 2565.718
764.3609, 2555.837
764.8430, 2544.217
765.3251, 2535.969
765.8073, 2539.771
766.2894, 2561.919
766.7715, 2569.563
767.2536, 2553.849
767.7357, 2529.865
768.2178, 2525.579
768.7000, 2535.916
769.1821, 2538.526
769.6642, 2518.504
770.1463, 2500.681
770.6284, 2514.585
771.1105, 2545.052
771.5927, 2562.761
772.0748, 2541.427
772.5569, 2526.553
773.0390, 2534.448
773.5211, 2555.056
774.0032, 2562.776
774.4854, 2554.989
774.9675, 2543.098
775.4496, 2526.532
775.9317, 2511.518
776.4138, 2520.507
776.8959, 2548.309
777.3781, 2567.163
777.8602, 2550.206
778.3423, 2528.022
778.8244, 2529.189
779.3065, 2548.381
779.7886, 2561.830
780.2708, 2555.710
780.7529, 2549.679
781.2350, 2551.643
781.7171, 2560.244
782.1992, 2562.434
782.6813, 2557.240
783.1635, 2549.351
783.6456, 2538.657
784.1277, 2527.495
784.6098, 2523.351
785.0919, 2525.997
785.5740, 2532.686
786.0562, 2546.761
786.5383, 2560.470
787.0204, 2566.200
787.5025, 2563.615
787.9846, 2561.492
788.4667, 2566.885
788.9489, 2568.036
789.4310, 2556.178
789.9131, 2529.726
790.3952, 2525.448
790.8773, 2548.032
791.3594, 2571.075
791.8416, 2572.285
792.3237, 2559.006
792.8058, 2550.358
793.2879, 2547.177
793.7700, 2545.015
794.2521, 2540.029
794.7343, 2535.228
795.2164, 2532.807
795.6985, 2532.819
796.1806, 2536.663
796.6627, 2550.081
797.1448, 2561.071
797.6270, 2560.306
798.1091, 2545.673
798.5912, 2536.525
799.0733, 2533.399
799.5554, 2533.155
800.0375, 2532.200
800.5197, 2532.056
801.0018, 2537.179
801.4839, 2549.036
801.9660, 2558.396
802.4481, 2559.269
802.9302, 2555.439
803.4124, 2548.918
803.8945, 2533.472
804.3766, 2532.272
804.8587, 2556.744
805.3408, 2580.373
805.8229, 2573.358
806.3051, 2535.991
806.7872, 2514.883
807.2693, 2514.992
807.7514, 2525.211
808.2335, 2541.720
808.7156, 2558.122
809.1978, 2563.307
809.6799, 2551.526
810.1620, 2540.129
810.6441, 2533.112
811.1262, 2531.799
811.6083, 2538.730
812.0905, 2563.792
812.5726, 2573.142
813.0547, 2562.205
813.5368, 2542.961
814.0189, 2525.171
814.5010, 2510.212
814.9832, 2508.429
815.4653, 2523.795
815.9474, 2541.260
816.4295, 2548.595
816.9116, 2549.238
817.3937, 2546.178
817.8759, 2532.454
818.3580, 2530.432
818.8401, 2560.469
819.3222, 2593.765
819.8043, 2600.081
820.2864, 2570.514
820.7686, 2557.614
821.2507, 2570.537
821.7328, 2587.501
822.2149, 2574.345
822.6970, 2543.309
823.1791, 2525.781
823.6613, 2531.265
824.1434, 2543.478
824.6255, 2557.782
825.1076, 2570.155
825.5897, 2575.889
826.0718, 2566.516
826.5540, 2562.060
827.0361, 2567.134
827.5182, 2571.862
828.0003, 2560.679
828.4824, 2533.973
828.9645, 2518.565
829.4467, 2519.701
829.9288, 2527.771
830.4109, 2535.096
830.8930, 2541.048
831.3751, 2544.771
831.8572, 2546.065
832.3394, 2544.943
832.8215, 2535.603
833.3036, 2527.108
833.7857, 2530.493
834.2678, 2553.251
834.7499, 2565.394
835.2321, 2563.409
835.7142, 2554.307
836.1963, 2542.526
836.6784, 2530.503
837.1605, 2529.998
837.6426, 2546.180
838.1248, 2560.566
838.6069, 2553.274
839.0890, 2538.966
839.5711, 2534.270
840.0532, 2549.835
840.5353, 2561.964
841.0175, 2568.929
841.4996, 2572.260
841.9817, 2571.875
842.4638, 2567.429
842.9459, 2569.021
843.4280, 2578.722
843.9102, 2588.661
844.3923, 2591.823
844.8744, 2588.885
845.3565, 2578.786
845.8386, 2557.591
846.3207, 2543.305
846.8029, 2549.844
847.2850, 2562.301
847.7671, 2566.991
848.2492, 2558.371
848.7313, 2557.878
849.2134, 2568.846
849.6956, 2579.433
850.1777, 2576.117
850.6598, 2562.475
851.1419, 2549.878
851.6240, 2539.326
852.1061, 2533.212
852.5883, 2535.502
853.0704, 2541.644
853.5525, 2547.696
854.0346, 2553.031
854.5167, 2558.216
854.9988, 2563.770
855.4810, 2568.581
855.9631, 2572.036
856.4452, 2574.143
856.9273, 2573.578
857.4094, 2569.975
857.8915, 2568.269
858.3737, 2575.274
858.8558, 2585.490
859.3379, 2592.366
859.8200, 2595.039
860.3021, 2594.810
860.7842, 2589.214
861.2664, 2583.342
861.7485, 2580.353
862.2306, 2580.638
862.7127, 2578.077
863.1948, 2570.786
863.6769, 2568.854
864.1591, 2590.150
864.6412, 2619.652
865.1233, 2616.140
865.6054, 2580.966
866.0875, 2549.085
866.5696, 2542.485
867.0518, 2544.642
867.5339, 2545.675
868.0160, 2544.831
868.4981, 2546.935
868.9802, 2551.782
869.4623, 2560.480
869.9445, 2578.788
870.4266, 2601.025
870.9087, 2595.208
871.3908, 2563.942
871.8729, 2535.776
872.3550, 2529.255
872.8372, 2531.953
873.3193, 2535.204
873.8014, 2538.761
874.2835, 2543.120
874.7656, 2545.001
875.2477, 2552.584
875.7299, 2572.702
876.2120, 2599.062
876.6941, 2603.654
877.1762, 2586.535
877.6583, 2574.285
878.1404, 2582.622
878.6226, 2597.651
879.1047, 2600.458
879.5869, 2595.069
880.0690, 2591.917
880.5511, 2600.224
881.0332, 2605.170
881.5153, 2600.604
881.9974, 2590.500
882.4796, 2580.837
882.9617, 2570.087
883.4438, 2570.239
883.9259, 2588.257
884.4080, 2609.963
884.8901, 2610.956
885.3723, 2598.073
885.8544, 2587.380
886.3365, 2586.758
886.8186, 2585.642
887.3007, 2576.055
887.7828, 2564.737
888.2650, 2561.860
888.7471, 2573.057
889.2292, 2576.627
889.7113, 2567.838
890.1934, 2557.741
890.6755, 2566.273
891.1577, 2585.454
891.6398, 2587.606
892.1219, 2564.089
892.6040, 2541.450
893.0861, 2541.083
893.5682, 2548.774
894.0504, 2550.454
894.5325, 2538.177
895.0146, 2536.805
895.4967, 2551.662
895.9788, 2567.571
896.4609, 2569.788
896.9431, 2560.968
897.4252, 2556.820
897.9073, 2558.188
898.3894, 2563.752
898.8715, 2579.936
899.3536, 2594.627
899.8358, 2593.991
900.3179, 2574.895
900.8000, 2567.738
901.2821, 2588.756
901.7642, 2602.084
902.2463, 2584.987
902.7285, 2544.361
903.2106, 2534.847
903.6927, 2555.411
904.1748, 2576.674
904.6569, 2576.634
905.1390, 2571.702
905.6212, 2579.244
906.1033, 2596.834
906.5854, 2612.943
907.0675, 2632.217
907.5496, 2638.770
908.0317, 2622.343
908.5139, 2593.378
908.9960, 2587.188
909.4781, 2603.929
909.9602, 2612.970
910.4423, 2597.872
910.9244, 2579.210
911.4066, 2587.798
911.8887, 2609.784
912.3708, 2619.740
912.8529, 2589.595
913.3350, 2571.941
913.8171, 2583.868
914.2993, 2606.942
914.7814, 2618.025
915.2635, 2616.709
915.7456, 2605.906
916.2277, 2583.090
916.7098, 2563.633
917.1920, 2573.264
917.6741, 2594.866
918.1562, 2601.488
918.6383, 2582.302
919.1204, 2567.351
919.6025, 2566.374
920.0847, 2572.345
920.5668, 2581.977
921.0489, 2596.378
921.5310, 2606.804
922.0131, 2613.129
922.4952, 2616.353
922.9774, 2616.714
923.4595, 2614.729
923.9416, 2610.043
924.4237, 2602.974
924.9058, 2597.640
925.3879, 2595.309
925.8701, 2595.544
926.3522, 2598.337
926.8343, 2603.469
927.3164, 2610.974
927.7985, 2621.960
928.2806, 2624.763
928.7628, 2605.492
929.2449, 2583.043
929.7270, 2593.671
930.2091, 2625.791
930.6912, 2648.318
931.1733, 2646.546
931.6555, 2635.169
932.1376, 2608.154
932.6197, 2578.671
933.1018, 2571.903
933.5839, 2591.813
934.0660, 2603.363
934.5482, 2598.461
935.0303, 2589.079
935.5124, 2591.443
935.9945, 2600.014
936.4766, 2605.202
936.9587, 2604.538
937.4409, 2601.222
937.9230, 2588.360
938.4051, 2579.431
938.8872, 2587.127
939.3693, 2616.393
939.8514, 2632.775
940.3336, 2634.994
940.8157, 2632.216
941.2978, 2630.151
941.7799, 2628.811
942.2620, 2627.563
942.7441, 2626.548
943.2263, 2628.385
943.7084, 2639.030
944.1905, 2647.237
944.6726, 2645.747
945.1547, 2637.526
945.6368, 2643.608
946.1190, 2665.055
946.6011, 2683.704
947.0832, 2690.824
947.5653, 2691.490
948.0474, 2691.607
948.5295, 2690.794
949.0117, 2688.161
949.4938, 2679.752
949.9759, 2674.327
950.4580, 2675.324
950.9401, 2678.640
951.4222, 2677.927
951.9044, 2673.121
952.3865, 2668.257
952.8686, 2663.845
953.3507, 2660.143
953.8328, 2658.823
954.3149, 2657.714
954.7971, 2653.306
955.2792, 2643.283
955.7613, 2636.839
956.2434, 2637.849
956.7255, 2639.692
957.2076, 2637.593
957.6898, 2631.782
958.1719, 2632.544
958.6540, 2639.739
959.1361, 2643.558
959.6182, 2629.721
960.1003, 2615.345
960.5825, 2620.404
961.0646, 2641.138
961.5467, 2652.252
962.0288, 2644.114
962.5109, 2632.909
962.9930, 2619.469
963.4752, 2607.886
963.9573, 2614.514
964.4394, 2635.141
964.9215, 2642.940
965.4036, 2623.542
965.8857, 2599.675
966.3679, 2583.949
966.8500, 2577.127
967.3321, 2581.052
967.8142, 2610.503
968.2963, 2622.071
968.7784, 2608.909
969.2606, 2591.130
969.7427, 2591.367
970.2248, 2604.139
970.7069, 2608.152
971.1890, 2601.904
971.6711, 2578.415
972.1533, 2603.024
972.6354, 2617.031
973.1175, 2621.007
973.5996, 2584.906
974.0817, 2600.556
974.5638, 2595.467
975.0460, 2589.527
975.5281, 2612.461
976.0102, 2582.188
976.4923, 2604.665
976.9744, 2606.084
977.4565, 2617.141
977.9387, 2607.331
978.4208, 2603.965
978.9029, 2621.474
979.3850, 2627.425
979.8671, 2615.211
980.3492, 2626.881
980.8314, 2595.880
981.3135, 2602.323
981.7956, 2624.921
982.2777, 2613.757
982.7598, 2625.808
983.2419, 2629.017
983.7241, 2592.046
984.2062, 2624.953
984.6883, 2627.640
985.1704, 2599.297
985.6525, 2629.810
986.1346, 2605.745
986.6168, 2601.161
987.0989, 2611.238
987.5810, 2606.031
988.0631, 2624.921
988.5452, 2620.597
989.0273, 2614.199
989.5095, 2616.852
989.9916, 2593.857
990.4737, 2618.444
990.9558, 2610.529
991.4379, 2618.770
991.9200, 2630.673
992.4022, 2614.536
992.8843, 2628.084
993.3664, 2595.598
993.8485, 2601.630
994.3306, 2603.515
994.8127, 2630.020
995.2949, 2597.758
995.7770, 2602.720
996.2591, 2623.532
996.7412, 2622.167
997.2233, 2630.073
997.7054, 2610.530
998.1876, 2616.775
998.6697, 2615.911
999.1518, 2639.609
999.6339, 2643.917
1000.116, 2624.839
1000.598, 2605.861
1001.080, 2631.327
1001.562, 2614.668
1002.044, 2620.735
1002.527, 2603.331
1003.009, 2606.193
1003.491, 2608.733
1003.973, 2621.661
1004.455, 2603.089
1004.937, 2625.378
1005.419, 2624.051
1005.901, 2629.680
1006.384, 2634.536
1006.866, 2607.699
1007.348, 2606.843
1007.830, 2643.160
1008.312, 2622.785
1008.794, 2613.852
1009.276, 2613.054
1009.758, 2650.645
1010.240, 2652.553
1010.723, 2611.811
1011.205, 2647.710
1011.687, 2636.457
1012.169, 2639.217
1012.651, 2636.864
1013.133, 2636.024
1013.615, 2615.936
1014.097, 2621.214
1014.580, 2647.118
1015.062, 2637.858
1015.544, 2652.492
1016.026, 2623.581
1016.508, 2620.517
1016.990, 2624.314
1017.472, 2630.613
1017.954, 2616.920
1018.436, 2643.209
1018.919, 2642.877
1019.401, 2619.475
1019.883, 2621.099
1020.365, 2618.567
1020.847, 2659.293
1021.329, 2640.545
1021.811, 2617.585
1022.293, 2641.774
1022.776, 2650.852
1023.258, 2639.498
1023.740, 2639.001
1024.222, 2617.907
1024.704, 2628.398
1025.186, 2628.027
1025.668, 2645.554
1026.150, 2624.543
1026.632, 2647.896
1027.115, 2627.920
1027.597, 2653.070
1028.079, 2632.177
1028.561, 2652.299
1029.043, 2623.464
1029.525, 2630.063
1030.007, 2639.472
1030.489, 2657.953
1030.972, 2641.556
1031.454, 2662.188
1031.936, 2650.324
1032.418, 2659.612
1032.900, 2657.170
1033.382, 2640.048
1033.864, 2664.332
1034.346, 2650.852
1034.828, 2662.871
1035.311, 2633.589
1035.793, 2654.515
1036.275, 2664.632
1036.757, 2672.521
1037.239, 2671.046
1037.721, 2665.397
1038.203, 2666.297
1038.685, 2656.267
1039.167, 2630.276
1039.650, 2637.403
1040.132, 2654.546
1040.614, 2666.724
1041.096, 2645.281
1041.578, 2660.020
1042.060, 2658.468
1042.542, 2672.332
1043.024, 2656.645
1043.507, 2676.140
1043.989, 2648.332
1044.471, 2671.400
1044.953, 2680.663
1045.435, 2637.965
1045.917, 2680.605
1046.399, 2646.193
1046.881, 2657.203
1047.364, 2665.348
1047.846, 2651.193
1048.328, 2680.380
1048.810, 2640.387
1049.292, 2649.215
1049.774, 2676.149
1050.256, 2659.401
1050.738, 2685.470
1051.220, 2668.514
1051.703, 2642.521
1052.185, 2679.989
1052.667, 2677.055
1053.149, 2682.542
1053.631, 2675.378
1054.113, 2673.228
1054.595, 2687.967
1055.077, 2700.442
1055.559, 2699.111
1056.042, 2686.684
1056.524, 2681.300
1057.006, 2682.537
1057.488, 2686.935
1057.970, 2700.106
1058.452, 2708.091
1058.934, 2696.565
1059.416, 2675.458
1059.899, 2664.003
1060.381, 2664.967
1060.863, 2666.752
1061.345, 2668.247
1061.827, 2671.315
1062.309, 2676.654
1062.791, 2685.485
1063.273, 2705.537
1063.755, 2736.659
1064.238, 2748.861
1064.720, 2710.771
1065.202, 2683.342
1065.684, 2688.700
1066.166, 2713.729
1066.648, 2722.244
1067.130, 2717.033
1067.612, 2711.654
1068.094, 2710.791
1068.577, 2709.761
1069.059, 2704.039
1069.541, 2697.963
1070.023, 2696.654
1070.505, 2702.170
1070.987, 2698.127
1071.469, 2683.062
1071.951, 2672.193
1072.434, 2680.307
1072.916, 2695.199
1073.398, 2704.402
1073.880, 2708.156
1074.362, 2708.088
1074.844, 2699.358
1075.326, 2695.694
1075.808, 2699.447
1076.291, 2707.646
1076.773, 2720.272
1077.255, 2733.605
1077.737, 2732.571
1078.219, 2713.961
1078.701, 2704.132
1079.183, 2730.256
1079.665, 2754.659
1080.147, 2757.719
1080.630, 2742.914
1081.112, 2728.253
1081.594, 2713.981
1082.076, 2708.529
1082.558, 2719.511
1083.040, 2731.946
1083.522, 2733.161
1084.004, 2727.363
1084.486, 2719.345
1084.969, 2706.327
1085.451, 2701.034
1085.933, 2704.940
1086.415, 2711.179
1086.897, 2713.755
1087.379, 2715.552
1087.861, 2726.287
1088.343, 2741.973
1088.826, 2745.576
1089.308, 2713.759
1089.790, 2692.568
1090.272, 2692.536
1090.754, 2703.740
1091.236, 2714.223
1091.718, 2722.831
1092.200, 2721.164
1092.682, 2706.871
1093.165, 2698.499
1093.647, 2714.920
1094.129, 2734.454
1094.611, 2743.519
1095.093, 2743.344
1095.575, 2743.891
1096.057, 2745.396
1096.539, 2741.114
1097.022, 2726.387
1097.504, 2709.441
1097.986, 2690.798
1098.468, 2678.702
1098.950, 2687.242
1099.432, 2733.159
1099.914, 2759.272
1100.396, 2762.078
1100.879, 2755.162
1101.361, 2743.753
1101.843, 2731.309
1102.325, 2725.426
1102.807, 2724.532
1103.289, 2722.654
1103.771, 2709.261
1104.253, 2707.307
1104.735, 2726.443
1105.218, 2750.542
1105.700, 2756.152
1106.182, 2746.580
1106.664, 2734.439
1107.146, 2720.868
1107.628, 2715.730
1108.110, 2733.499
1108.592, 2752.954
1109.074, 2763.028
1109.557, 2764.867
1110.039, 2760.664
1110.521, 2750.265
1111.003, 2742.974
1111.485, 2741.201
1111.967, 2744.433
1112.449, 2761.582
1112.931, 2778.029
1113.414, 2774.097
1113.896, 2741.108
1114.378, 2726.071
1114.860, 2731.884
1115.342, 2743.250
1115.824, 2755.399
1116.306, 2764.641
1116.788, 2763.795
1117.271, 2755.594
1117.753, 2746.070
1118.235, 2727.931
1118.717, 2724.170
1119.199, 2741.976
1119.681, 2762.919
1120.163, 2768.933
1120.645, 2763.391
1121.127, 2754.471
1121.609, 2743.015
1122.092, 2732.456
1122.574, 2719.774
1123.056, 2714.691
1123.538, 2722.385
1124.020, 2737.165
1124.502, 2749.847
1124.984, 2759.988
1125.466, 2761.963
1125.949, 2753.581
1126.431, 2747.057
1126.913, 2757.872
1127.395, 2767.676
1127.877, 2757.908
1128.359, 2732.636
1128.841, 2729.401
1129.323, 2749.765
1129.806, 2763.370
1130.288, 2755.774
1130.770, 2744.354
1131.252, 2748.206
1131.734, 2758.160
1132.216, 2762.229
1132.698, 2758.105
1133.180, 2750.496
1133.662, 2737.904
1134.145, 2728.367
1134.627, 2728.164
1135.109, 2733.326
1135.591, 2739.484
1136.073, 2745.829
1136.555, 2750.143
1137.037, 2754.539
1137.519, 2750.667
1138.001, 2732.854
1138.484, 2717.790
1138.966, 2727.863
1139.448, 2752.919
1139.930, 2769.808
1140.412, 2777.453
1140.894, 2778.393
1141.376, 2766.489
1141.858, 2757.031
1142.341, 2752.466
1142.823, 2753.904
1143.305, 2769.307
1143.787, 2793.469
1144.269, 2801.227
1144.751, 2787.085
1145.233, 2771.250
1145.715, 2755.871
1146.198, 2752.493
1146.680, 2772.995
1147.162, 2809.129
1147.644, 2821.109
1148.126, 2810.052
1148.608, 2789.186
1149.090, 2756.351
1149.572, 2731.437
1150.054, 2733.847
1150.536, 2748.402
1151.019, 2762.235
1151.501, 2775.251
1151.983, 2779.968
1152.465, 2776.076
1152.947, 2772.185
1153.429, 2772.498
1153.911, 2775.387
1154.393, 2781.399
1154.876, 2788.264
1155.358, 2791.548
1155.840, 2788.942
1156.322, 2789.531
1156.804, 2793.958
1157.286, 2798.957
1157.768, 2803.813
1158.250, 2806.387
1158.733, 2802.935
1159.215, 2794.694
1159.697, 2785.927
1160.179, 2772.830
1160.661, 2770.483
1161.143, 2784.072
1161.625, 2798.980
1162.107, 2796.438
1162.589, 2784.655
1163.072, 2778.771
1163.554, 2779.249
1164.036, 2772.434
1164.518, 2739.810
1165.000, 2727.261
1165.482, 2753.117
1165.964, 2792.619
1166.446, 2797.358
1166.928, 2781.472
1167.411, 2777.942
1167.893, 2795.002
1168.375, 2808.504
1168.857, 2808.301
1169.339, 2805.990
1169.821, 2806.156
1170.303, 2807.009
1170.785, 2800.838
1171.268, 2790.698
1171.750, 2787.274
1172.232, 2797.450
1172.714, 2805.552
1173.196, 2801.116
1173.678, 2796.997
1174.160, 2804.090
1174.642, 2818.722
1175.125, 2810.204
1175.607, 2783.629
1176.089, 2767.660
1176.571, 2789.344
1177.053, 2806.450
1177.535, 2786.004
1178.017, 2763.517
1178.499, 2778.059
1178.981, 2829.014
1179.464, 2849.970
1179.946, 2841.604
1180.428, 2827.021
1180.910, 2813.860
1181.392, 2805.970
1181.874, 2811.264
1182.356, 2820.081
1182.838, 2814.659
1183.320, 2794.014
1183.803, 2790.772
1184.285, 2807.982
1184.767, 2825.201
1185.249, 2825.430
1185.731, 2822.040
1186.213, 2824.940
1186.695, 2831.342
1187.177, 2832.726
1187.660, 2828.856
1188.142, 2820.769
1188.624, 2806.983
1189.106, 2802.842
1189.588, 2838.621
1190.070, 2875.873
1190.552, 2878.755
1191.034, 2851.316
1191.516, 2830.961
1191.999, 2817.356
1192.481, 2815.046
1192.963, 2827.158
1193.445, 2842.732
1193.927, 2853.691
1194.409, 2860.624
1194.891, 2863.647
1195.373, 2862.822
1195.855, 2859.504
1196.338, 2853.502
1196.820, 2845.710
1197.302, 2833.424
1197.784, 2825.993
1198.266, 2840.494
1198.748, 2862.384
1199.230, 2871.875
1199.712, 2864.030
1200.195, 2864.669
1200.677, 2875.586
1201.159, 2882.090
1201.641, 2872.346
1202.123, 2859.208
1202.605, 2854.266
1203.087, 2857.227
1203.569, 2869.658
1204.052, 2901.450
1204.534, 2909.377
1205.016, 2889.658
1205.498, 2869.093
1205.980, 2861.598
1206.462, 2866.835
1206.944, 2898.959
1207.426, 2941.095
1207.908, 2950.298
1208.391, 2906.348
1208.873, 2880.787
1209.355, 2877.949
1209.837, 2884.946
1210.319, 2896.494
1210.801, 2907.469
1211.283, 2908.662
1211.765, 2903.880
1212.247, 2907.901
1212.730, 2926.499
1213.212, 2938.328
1213.694, 2940.830
1214.176, 2937.866
1214.658, 2933.295
1215.140, 2925.276
1215.622, 2905.938
1216.104, 2879.398
1216.587, 2870.465
1217.069, 2882.818
1217.551, 2906.143
1218.033, 2942.879
1218.515, 2972.386
1218.997, 2966.462
1219.479, 2944.162
1219.961, 2922.312
1220.443, 2903.792
1220.926, 2898.770
1221.408, 2910.886
1221.890, 2923.788
1222.372, 2935.384
1222.854, 2940.540
1223.336, 2925.648
1223.818, 2905.610
1224.300, 2898.501
1224.782, 2907.086
1225.265, 2912.370
1225.747, 2912.830
1226.229, 2917.886
1226.711, 2932.943
1227.193, 2946.783
1227.675, 2941.656
1228.157, 2929.988
1228.639, 2928.550
1229.122, 2940.687
1229.604, 2939.891
1230.086, 2923.854
1230.568, 2909.810
1231.050, 2903.119
1231.532, 2903.944
1232.014, 2920.795
1232.496, 2940.610
1232.979, 2944.517
1233.461, 2928.430
1233.943, 2926.143
1234.425, 2938.940
1234.907, 2953.044
1235.389, 2963.271
1235.871, 2969.947
1236.353, 2973.520
1236.835, 2973.942
1237.318, 2970.072
1237.800, 2961.007
1238.282, 2956.156
1238.764, 2955.628
1239.246, 2958.009
1239.728, 2966.062
1240.210, 2972.215
1240.692, 2967.622
1241.175, 2958.406
1241.657, 2953.410
1242.139, 2953.958
1242.621, 2950.827
1243.103, 2943.946
1243.585, 2936.154
1244.067, 2927.150
1244.549, 2919.865
1245.031, 2913.718
1245.514, 2912.256
1245.996, 2921.549
1246.478, 2943.411
1246.960, 2953.961
1247.442, 2953.215
1247.924, 2949.116
1248.406, 2942.488
1248.888, 2938.679
1249.370, 2943.902
1249.853, 2951.796
1250.335, 2952.307
1250.817, 2945.917
1251.299, 2952.501
1251.781, 2971.485
1252.263, 2982.288
1252.745, 2962.212
1253.227, 2942.755
1253.710, 2934.035
1254.192, 2936.691
1254.674, 2959.693
1255.156, 2997.977
1255.638, 3010.784
1256.120, 2997.990
1256.602, 2987.992
1257.084, 3009.106
1257.567, 3017.855
1258.049, 2992.017
1258.531, 2958.582
1259.013, 2958.828
1259.495, 2983.330
1259.977, 2999.589
1260.459, 3005.125
1260.941, 3004.078
1261.423, 2991.175
1261.906, 2981.186
1262.388, 2976.571
1262.870, 2977.477
1263.352, 2986.675
1263.834, 3000.770
1264.316, 3013.592
1264.798, 3024.043
1265.280, 3028.128
1265.762, 3022.987
1266.245, 3012.579
1266.727, 2994.752
1267.209, 2978.332
1267.691, 2977.404
1268.173, 2985.200
1268.655, 2990.335
1269.137, 2992.108
1269.619, 2998.220
1270.102, 3014.231
1270.584, 3020.381
1271.066, 3009.911
1271.548, 2997.295
1272.030, 3002.440
1272.512, 3014.818
1272.994, 3023.301
1273.476, 3026.587
1273.958, 3026.770
1274.441, 3023.949
1274.923, 3017.215
1275.405, 3005.064
1275.887, 2995.117
1276.369, 2993.647
1276.851, 2999.495
1277.333, 3018.647
1277.815, 3045.884
1278.297, 3048.103
1278.780, 3023.781
1279.262, 3006.525
1279.744, 3004.236
1280.226, 3009.255
1280.708, 3021.016
1281.190, 3032.625
1281.672, 3038.522
1282.154, 3040.347
1282.637, 3045.024
1283.119, 3051.677
1283.601, 3049.676
1284.083, 3034.836
1284.565, 3025.759
1285.047, 3039.582
1285.529, 3056.076
1286.011, 3067.352
1286.494, 3072.388
1286.976, 3065.936
1287.458, 3050.551
1287.940, 3033.786
1288.422, 3016.632
1288.904, 3002.848
1289.386, 2990.166
1289.868, 2986.941
1290.350, 2997.458
1290.833, 3017.125
1291.315, 3044.143
1291.797, 3071.049
1292.279, 3080.990
1292.761, 3068.748
1293.243, 3059.187
1293.725, 3057.475
1294.207, 3051.989
1294.689, 3035.587
1295.172, 3021.376
1295.654, 3035.198
1296.136, 3059.253
1296.618, 3069.480
1297.100, 3060.983
1297.582, 3053.867
1298.064, 3048.255
1298.546, 3042.945
1299.029, 3036.915
1299.511, 3033.146
1299.993, 3039.552
1300.475, 3046.256
1300.957, 3042.426
1301.439, 3029.459
1301.921, 3012.213
1302.403, 2991.235
1302.885, 2985.629
1303.368, 3004.250
1303.850, 3023.067
1304.332, 3024.125
1304.814, 3020.509
1305.296, 3019.108
1305.778, 3020.626
1306.260, 3031.119
1306.742, 3047.117
##END=



