##NAMES=Magnesioferrite
##RRUFFID=R060869
##IDEAL CHEMISTRY=MgFe^3+^_2_O_4_
##LOCALITY=Langban, Filipstad, Varmland, Sweden
##OWNER=RRUFF
##SOURCE=Michael Scott
##DESCRIPTION=Black semimetallic massive
##STATUS=The identification of this mineral is confirmed by single-crystal X-ray diffraction and chemical analysis.
##URL=rruff.info/R060869
##MEASURED CHEMISTRY=(Mg_0.67_Mn^2+^_0.30_Fe^2+^_0.03_)_Σ=1_(Fe^3+^_1.97_Al_0.03_)_Σ=2_O_4_
8.391797e+001, 1.789409e+002
8.440009e+001, 1.730788e+002
8.488220e+001, 1.773632e+002
8.536432e+001, 1.887299e+002
8.584644e+001, 1.961316e+002
8.632855e+001, 1.915670e+002
8.681067e+001, 1.815981e+002
8.729279e+001, 1.723396e+002
8.777490e+001, 1.646344e+002
8.825701e+001, 1.591087e+002
8.873913e+001, 1.574129e+002
8.922124e+001, 1.594883e+002
8.970336e+001, 1.614538e+002
9.018548e+001, 1.598614e+002
9.066759e+001, 1.559133e+002
9.114971e+001, 1.521117e+002
9.163183e+001, 1.488387e+002
9.211395e+001, 1.466452e+002
9.259606e+001, 1.471390e+002
9.307818e+001, 1.511883e+002
9.356030e+001, 1.554022e+002
9.404241e+001, 1.550531e+002
9.452453e+001, 1.504254e+002
9.500665e+001, 1.445615e+002
9.548875e+001, 1.378865e+002
9.597087e+001, 1.309828e+002
9.645299e+001, 1.275298e+002
9.693510e+001, 1.287319e+002
9.741722e+001, 1.332922e+002
9.789934e+001, 1.380113e+002
9.838145e+001, 1.431478e+002
9.886357e+001, 1.473923e+002
9.934569e+001, 1.496464e+002
9.982780e+001, 1.498949e+002
1.003099e+002, 1.483008e+002
1.007920e+002, 1.439897e+002
1.012742e+002, 1.369483e+002
1.017563e+002, 1.329022e+002
1.022384e+002, 1.324436e+002
1.027205e+002, 1.342371e+002
1.032026e+002, 1.369133e+002
1.036847e+002, 1.417656e+002
1.041668e+002, 1.447524e+002
1.046490e+002, 1.437153e+002
1.051311e+002, 1.356290e+002
1.056132e+002, 1.314524e+002
1.060953e+002, 1.339009e+002
1.065774e+002, 1.402138e+002
1.070595e+002, 1.412944e+002
1.075417e+002, 1.295024e+002
1.080238e+002, 1.193819e+002
1.085059e+002, 1.183023e+002
1.089880e+002, 1.385080e+002
1.094701e+002, 1.532698e+002
1.099522e+002, 1.590790e+002
1.104344e+002, 1.565054e+002
1.109165e+002, 1.551470e+002
1.113986e+002, 1.545679e+002
1.118807e+002, 1.558414e+002
1.123628e+002, 1.598016e+002
1.128449e+002, 1.701488e+002
1.133271e+002, 1.797786e+002
1.138092e+002, 1.864759e+002
1.142913e+002, 1.895223e+002
1.147734e+002, 1.934923e+002
1.152555e+002, 2.013633e+002
1.157376e+002, 2.104409e+002
1.162198e+002, 2.170448e+002
1.167019e+002, 2.154850e+002
1.171840e+002, 2.143437e+002
1.176661e+002, 2.190135e+002
1.181482e+002, 2.330558e+002
1.186303e+002, 2.460941e+002
1.191124e+002, 2.491935e+002
1.195946e+002, 2.467122e+002
1.200767e+002, 2.495832e+002
1.205588e+002, 2.719869e+002
1.210409e+002, 2.984581e+002
1.215230e+002, 3.140931e+002
1.220051e+002, 3.077724e+002
1.224873e+002, 2.979717e+002
1.229694e+002, 3.006307e+002
1.234515e+002, 3.143347e+002
1.239336e+002, 3.296039e+002
1.244157e+002, 3.409810e+002
1.248979e+002, 3.492209e+002
1.253800e+002, 3.555927e+002
1.258621e+002, 3.593620e+002
1.263442e+002, 3.620273e+002
1.268263e+002, 3.659655e+002
1.273084e+002, 3.712444e+002
1.277905e+002, 3.764575e+002
1.282727e+002, 3.793802e+002
1.287548e+002, 3.807250e+002
1.292369e+002, 3.831130e+002
1.297190e+002, 3.900307e+002
1.302011e+002, 3.991187e+002
1.306832e+002, 4.026176e+002
1.311654e+002, 3.991912e+002
1.316475e+002, 3.928803e+002
1.321296e+002, 3.897792e+002
1.326117e+002, 3.898005e+002
1.330938e+002, 3.901816e+002
1.335759e+002, 3.891890e+002
1.340581e+002, 3.869145e+002
1.345402e+002, 3.847697e+002
1.350223e+002, 3.825241e+002
1.355044e+002, 3.807807e+002
1.359865e+002, 3.807271e+002
1.364686e+002, 3.820509e+002
1.369508e+002, 3.863893e+002
1.374329e+002, 3.965051e+002
1.379150e+002, 4.134096e+002
1.383971e+002, 4.283028e+002
1.388792e+002, 4.403513e+002
1.393613e+002, 4.492803e+002
1.398434e+002, 4.527249e+002
1.403256e+002, 4.496543e+002
1.408077e+002, 4.429330e+002
1.412898e+002, 4.341536e+002
1.417719e+002, 4.207639e+002
1.422540e+002, 4.123561e+002
1.427361e+002, 4.130483e+002
1.432183e+002, 4.247249e+002
1.437004e+002, 4.308698e+002
1.441825e+002, 4.285665e+002
1.446646e+002, 4.226778e+002
1.451467e+002, 4.209625e+002
1.456288e+002, 4.272261e+002
1.461110e+002, 4.322953e+002
1.465931e+002, 4.329633e+002
1.470752e+002, 4.265298e+002
1.475573e+002, 4.217811e+002
1.480394e+002, 4.197772e+002
1.485215e+002, 4.194060e+002
1.490037e+002, 4.177589e+002
1.494858e+002, 4.116872e+002
1.499679e+002, 4.070359e+002
1.504500e+002, 4.061025e+002
1.509321e+002, 4.131566e+002
1.514142e+002, 4.187978e+002
1.518964e+002, 4.235702e+002
1.523785e+002, 4.271547e+002
1.528606e+002, 4.278784e+002
1.533427e+002, 4.220366e+002
1.538248e+002, 4.156711e+002
1.543069e+002, 4.122161e+002
1.547890e+002, 4.148719e+002
1.552712e+002, 4.174818e+002
1.557533e+002, 4.196241e+002
1.562354e+002, 4.212089e+002
1.567175e+002, 4.208694e+002
1.571996e+002, 4.152313e+002
1.576817e+002, 4.089320e+002
1.581639e+002, 4.059335e+002
1.586460e+002, 4.121515e+002
1.591281e+002, 4.173091e+002
1.596102e+002, 4.167384e+002
1.600923e+002, 4.095441e+002
1.605744e+002, 4.041106e+002
1.610566e+002, 4.022005e+002
1.615387e+002, 4.038849e+002
1.620208e+002, 4.092536e+002
1.625029e+002, 4.252168e+002
1.629850e+002, 4.397969e+002
1.634671e+002, 4.456259e+002
1.639493e+002, 4.398988e+002
1.644314e+002, 4.335077e+002
1.649135e+002, 4.326123e+002
1.653956e+002, 4.346177e+002
1.658777e+002, 4.347724e+002
1.663598e+002, 4.260176e+002
1.668420e+002, 4.174205e+002
1.673241e+002, 4.173525e+002
1.678062e+002, 4.312469e+002
1.682883e+002, 4.440932e+002
1.687704e+002, 4.434041e+002
1.692525e+002, 4.332350e+002
1.697346e+002, 4.252722e+002
1.702168e+002, 4.305450e+002
1.706989e+002, 4.398063e+002
1.711810e+002, 4.424889e+002
1.716631e+002, 4.321617e+002
1.721452e+002, 4.203244e+002
1.726273e+002, 4.185968e+002
1.731095e+002, 4.252074e+002
1.735916e+002, 4.307655e+002
1.740737e+002, 4.259720e+002
1.745558e+002, 4.164943e+002
1.750379e+002, 4.113289e+002
1.755201e+002, 4.142350e+002
1.760022e+002, 4.216173e+002
1.764843e+002, 4.305389e+002
1.769664e+002, 4.408046e+002
1.774485e+002, 4.499745e+002
1.779306e+002, 4.566695e+002
1.784128e+002, 4.607284e+002
1.788949e+002, 4.619368e+002
1.793770e+002, 4.597078e+002
1.798591e+002, 4.547338e+002
1.803412e+002, 4.467236e+002
1.808233e+002, 4.353242e+002
1.813055e+002, 4.253769e+002
1.817876e+002, 4.222010e+002
1.822697e+002, 4.246827e+002
1.827518e+002, 4.286350e+002
1.832339e+002, 4.334853e+002
1.837160e+002, 4.384679e+002
1.841982e+002, 4.410836e+002
1.846803e+002, 4.409496e+002
1.851624e+002, 4.402019e+002
1.856445e+002, 4.422222e+002
1.861266e+002, 4.464737e+002
1.866087e+002, 4.493091e+002
1.870908e+002, 4.467292e+002
1.875730e+002, 4.407007e+002
1.880551e+002, 4.401322e+002
1.885372e+002, 4.466698e+002
1.890193e+002, 4.555049e+002
1.895014e+002, 4.587741e+002
1.899835e+002, 4.566521e+002
1.904657e+002, 4.545722e+002
1.909478e+002, 4.564011e+002
1.914299e+002, 4.614957e+002
1.919120e+002, 4.646384e+002
1.923941e+002, 4.652476e+002
1.928762e+002, 4.639872e+002
1.933584e+002, 4.609712e+002
1.938405e+002, 4.559592e+002
1.943226e+002, 4.529529e+002
1.948047e+002, 4.570884e+002
1.952868e+002, 4.680010e+002
1.957689e+002, 4.724258e+002
1.962511e+002, 4.670209e+002
1.967332e+002, 4.557220e+002
1.972153e+002, 4.498817e+002
1.976974e+002, 4.502371e+002
1.981795e+002, 4.515443e+002
1.986616e+002, 4.488925e+002
1.991438e+002, 4.418029e+002
1.996259e+002, 4.389194e+002
2.001080e+002, 4.430119e+002
2.005901e+002, 4.518789e+002
2.010722e+002, 4.563562e+002
2.015543e+002, 4.556101e+002
2.020364e+002, 4.534814e+002
2.025186e+002, 4.538840e+002
2.030007e+002, 4.575750e+002
2.034828e+002, 4.578597e+002
2.039649e+002, 4.518616e+002
2.044470e+002, 4.409901e+002
2.049291e+002, 4.358174e+002
2.054113e+002, 4.375526e+002
2.058934e+002, 4.419153e+002
2.063755e+002, 4.449720e+002
2.068576e+002, 4.463855e+002
2.073397e+002, 4.480949e+002
2.078218e+002, 4.511130e+002
2.083040e+002, 4.552281e+002
2.087861e+002, 4.559428e+002
2.092682e+002, 4.517648e+002
2.097503e+002, 4.468012e+002
2.102324e+002, 4.462241e+002
2.107145e+002, 4.518347e+002
2.111967e+002, 4.556943e+002
2.116788e+002, 4.550276e+002
2.121609e+002, 4.496126e+002
2.126430e+002, 4.475720e+002
2.131251e+002, 4.509046e+002
2.136072e+002, 4.550522e+002
2.140894e+002, 4.540663e+002
2.145715e+002, 4.461801e+002
2.150536e+002, 4.376513e+002
2.155357e+002, 4.293996e+002
2.160178e+002, 4.208575e+002
2.164999e+002, 4.176823e+002
2.169820e+002, 4.220798e+002
2.174642e+002, 4.296492e+002
2.179463e+002, 4.343573e+002
2.184284e+002, 4.354994e+002
2.189105e+002, 4.351984e+002
2.193926e+002, 4.339650e+002
2.198747e+002, 4.317458e+002
2.203569e+002, 4.287752e+002
2.208390e+002, 4.243730e+002
2.213211e+002, 4.197419e+002
2.218032e+002, 4.165725e+002
2.222853e+002, 4.147845e+002
2.227674e+002, 4.147382e+002
2.232496e+002, 4.172071e+002
2.237317e+002, 4.236307e+002
2.242138e+002, 4.273640e+002
2.246959e+002, 4.283064e+002
2.251780e+002, 4.266715e+002
2.256601e+002, 4.221217e+002
2.261423e+002, 4.118191e+002
2.266244e+002, 4.036343e+002
2.271065e+002, 4.013517e+002
2.275886e+002, 4.081443e+002
2.280707e+002, 4.112872e+002
2.285528e+002, 4.090699e+002
2.290350e+002, 4.039091e+002
2.295171e+002, 4.012397e+002
2.299992e+002, 4.027735e+002
2.304813e+002, 4.039584e+002
2.309634e+002, 4.023374e+002
2.314455e+002, 3.947240e+002
2.319276e+002, 3.925305e+002
2.324098e+002, 3.981002e+002
2.328919e+002, 4.084408e+002
2.333740e+002, 4.155991e+002
2.338561e+002, 4.173065e+002
2.343382e+002, 4.193514e+002
2.348203e+002, 4.250694e+002
2.353025e+002, 4.393028e+002
2.357846e+002, 4.462162e+002
2.362667e+002, 4.439300e+002
2.367488e+002, 4.347250e+002
2.372309e+002, 4.243825e+002
2.377130e+002, 4.107706e+002
2.381952e+002, 3.992686e+002
2.386773e+002, 3.926538e+002
2.391594e+002, 3.935413e+002
2.396415e+002, 3.935163e+002
2.401236e+002, 3.914061e+002
2.406057e+002, 3.884727e+002
2.410879e+002, 3.886854e+002
2.415700e+002, 3.936904e+002
2.420521e+002, 3.995079e+002
2.425342e+002, 4.042172e+002
2.430163e+002, 4.070324e+002
2.434984e+002, 4.105211e+002
2.439806e+002, 4.155007e+002
2.444627e+002, 4.211118e+002
2.449448e+002, 4.244808e+002
2.454269e+002, 4.248563e+002
2.459090e+002, 4.239787e+002
2.463911e+002, 4.225244e+002
2.468732e+002, 4.199268e+002
2.473554e+002, 4.176770e+002
2.478375e+002, 4.141279e+002
2.483196e+002, 4.110805e+002
2.488017e+002, 4.155730e+002
2.492838e+002, 4.329622e+002
2.497659e+002, 4.500528e+002
2.502481e+002, 4.601508e+002
2.507302e+002, 4.608990e+002
2.512123e+002, 4.600040e+002
2.516944e+002, 4.570141e+002
2.521765e+002, 4.527112e+002
2.526586e+002, 4.497163e+002
2.531408e+002, 4.488222e+002
2.536229e+002, 4.480767e+002
2.541050e+002, 4.467152e+002
2.545871e+002, 4.454349e+002
2.550692e+002, 4.413888e+002
2.555513e+002, 4.316443e+002
2.560334e+002, 4.194893e+002
2.565156e+002, 4.166200e+002
2.569977e+002, 4.279822e+002
2.574798e+002, 4.406617e+002
2.579619e+002, 4.481184e+002
2.584440e+002, 4.497760e+002
2.589261e+002, 4.471175e+002
2.594083e+002, 4.366352e+002
2.598904e+002, 4.226437e+002
2.603725e+002, 4.206330e+002
2.608546e+002, 4.365777e+002
2.613367e+002, 4.536240e+002
2.618188e+002, 4.627271e+002
2.623010e+002, 4.618206e+002
2.627831e+002, 4.591377e+002
2.632652e+002, 4.536147e+002
2.637473e+002, 4.470473e+002
2.642294e+002, 4.457344e+002
2.647115e+002, 4.528053e+002
2.651937e+002, 4.585747e+002
2.656758e+002, 4.562603e+002
2.661579e+002, 4.423014e+002
2.666400e+002, 4.348678e+002
2.671221e+002, 4.370330e+002
2.676042e+002, 4.452015e+002
2.680864e+002, 4.488544e+002
2.685685e+002, 4.461259e+002
2.690506e+002, 4.436725e+002
2.695327e+002, 4.459550e+002
2.700148e+002, 4.547020e+002
2.704969e+002, 4.593427e+002
2.709791e+002, 4.581638e+002
2.714612e+002, 4.535658e+002
2.719433e+002, 4.520253e+002
2.724254e+002, 4.548628e+002
2.729075e+002, 4.564726e+002
2.733896e+002, 4.518327e+002
2.738718e+002, 4.390987e+002
2.743539e+002, 4.351235e+002
2.748360e+002, 4.431581e+002
2.753181e+002, 4.576390e+002
2.758002e+002, 4.662760e+002
2.762823e+002, 4.679884e+002
2.767645e+002, 4.686196e+002
2.772466e+002, 4.721998e+002
2.777287e+002, 4.793499e+002
2.782108e+002, 4.802011e+002
2.786929e+002, 4.720870e+002
2.791750e+002, 4.608697e+002
2.796572e+002, 4.596100e+002
2.801393e+002, 4.699742e+002
2.806214e+002, 4.782599e+002
2.811035e+002, 4.749117e+002
2.815856e+002, 4.600616e+002
2.820677e+002, 4.536531e+002
2.825499e+002, 4.581025e+002
2.830320e+002, 4.674747e+002
2.835141e+002, 4.721988e+002
2.839962e+002, 4.720964e+002
2.844783e+002, 4.704347e+002
2.849604e+002, 4.692430e+002
2.854425e+002, 4.682426e+002
2.859247e+002, 4.627019e+002
2.864068e+002, 4.508955e+002
2.868889e+002, 4.393972e+002
2.873710e+002, 4.392225e+002
2.878531e+002, 4.500467e+002
2.883352e+002, 4.616495e+002
2.888174e+002, 4.714320e+002
2.892995e+002, 4.787252e+002
2.897816e+002, 4.783598e+002
2.902637e+002, 4.689923e+002
2.907458e+002, 4.574984e+002
2.912279e+002, 4.530822e+002
2.917101e+002, 4.549450e+002
2.921922e+002, 4.568227e+002
2.926743e+002, 4.541293e+002
2.931564e+002, 4.493270e+002
2.936385e+002, 4.505838e+002
2.941206e+002, 4.583798e+002
2.946028e+002, 4.689438e+002
2.950849e+002, 4.810550e+002
2.955670e+002, 4.934184e+002
2.960491e+002, 5.005390e+002
2.965312e+002, 4.969517e+002
2.970133e+002, 4.875005e+002
2.974955e+002, 4.815242e+002
2.979776e+002, 4.791705e+002
2.984597e+002, 4.795872e+002
2.989418e+002, 4.850235e+002
2.994239e+002, 4.929821e+002
2.999060e+002, 4.965655e+002
3.003882e+002, 4.880030e+002
3.008703e+002, 4.763598e+002
3.013524e+002, 4.777090e+002
3.018345e+002, 4.916642e+002
3.023166e+002, 5.051608e+002
3.027987e+002, 5.050047e+002
3.032809e+002, 4.971277e+002
3.037630e+002, 4.927501e+002
3.042451e+002, 4.986424e+002
3.047272e+002, 5.071073e+002
3.052093e+002, 5.083972e+002
3.056914e+002, 5.033412e+002
3.061736e+002, 4.995645e+002
3.066557e+002, 5.040904e+002
3.071378e+002, 5.126230e+002
3.076199e+002, 5.192032e+002
3.081020e+002, 5.210779e+002
3.085841e+002, 5.219017e+002
3.090663e+002, 5.268036e+002
3.095484e+002, 5.343303e+002
3.100305e+002, 5.370220e+002
3.105126e+002, 5.229434e+002
3.109947e+002, 5.053097e+002
3.114768e+002, 4.978309e+002
3.119590e+002, 5.075004e+002
3.124411e+002, 5.219479e+002
3.129232e+002, 5.369000e+002
3.134053e+002, 5.512388e+002
3.138874e+002, 5.611103e+002
3.143695e+002, 5.621494e+002
3.148517e+002, 5.598296e+002
3.153337e+002, 5.578376e+002
3.158159e+002, 5.560983e+002
3.162980e+002, 5.563782e+002
3.167801e+002, 5.599930e+002
3.172622e+002, 5.662063e+002
3.177443e+002, 5.733925e+002
3.182264e+002, 5.842950e+002
3.187086e+002, 5.934813e+002
3.191907e+002, 5.979987e+002
3.196728e+002, 5.969267e+002
3.201549e+002, 5.927329e+002
3.206370e+002, 5.811171e+002
3.211191e+002, 5.675939e+002
3.216013e+002, 5.610145e+002
3.220834e+002, 5.690405e+002
3.225655e+002, 5.796500e+002
3.230476e+002, 5.895820e+002
3.235297e+002, 5.995193e+002
3.240118e+002, 6.049042e+002
3.244940e+002, 5.991714e+002
3.249761e+002, 5.904076e+002
3.254582e+002, 5.883392e+002
3.259403e+002, 5.986588e+002
3.264224e+002, 6.112217e+002
3.269045e+002, 6.259717e+002
3.273867e+002, 6.444253e+002
3.278688e+002, 6.547961e+002
3.283509e+002, 6.503057e+002
3.288330e+002, 6.409870e+002
3.293151e+002, 6.355294e+002
3.297972e+002, 6.349257e+002
3.302794e+002, 6.370483e+002
3.307615e+002, 6.430583e+002
3.312436e+002, 6.529590e+002
3.317257e+002, 6.596268e+002
3.322078e+002, 6.628511e+002
3.326899e+002, 6.631448e+002
3.331721e+002, 6.600867e+002
3.336542e+002, 6.493888e+002
3.341363e+002, 6.441581e+002
3.346184e+002, 6.483466e+002
3.351005e+002, 6.596024e+002
3.355826e+002, 6.648489e+002
3.360648e+002, 6.619683e+002
3.365469e+002, 6.566763e+002
3.370290e+002, 6.522848e+002
3.375111e+002, 6.490815e+002
3.379932e+002, 6.455732e+002
3.384753e+002, 6.413395e+002
3.389575e+002, 6.369176e+002
3.394396e+002, 6.331086e+002
3.399217e+002, 6.292148e+002
3.404038e+002, 6.283403e+002
3.408859e+002, 6.342988e+002
3.413680e+002, 6.478698e+002
3.418502e+002, 6.549995e+002
3.423323e+002, 6.541218e+002
3.428144e+002, 6.483082e+002
3.432965e+002, 6.422802e+002
3.437786e+002, 6.360126e+002
3.442607e+002, 6.293077e+002
3.447429e+002, 6.219412e+002
3.452250e+002, 6.140029e+002
3.457071e+002, 6.052518e+002
3.461892e+002, 5.950992e+002
3.466713e+002, 5.862646e+002
3.471534e+002, 5.815701e+002
3.476355e+002, 5.808780e+002
3.481176e+002, 5.831822e+002
3.485998e+002, 5.908305e+002
3.490819e+002, 6.003904e+002
3.495640e+002, 6.033569e+002
3.500461e+002, 5.995861e+002
3.505282e+002, 5.935682e+002
3.510103e+002, 5.889030e+002
3.514925e+002, 5.850823e+002
3.519746e+002, 5.806334e+002
3.524567e+002, 5.736498e+002
3.529388e+002, 5.672906e+002
3.534209e+002, 5.667175e+002
3.539030e+002, 5.711569e+002
3.543852e+002, 5.754030e+002
3.548673e+002, 5.746724e+002
3.553494e+002, 5.720487e+002
3.558315e+002, 5.720320e+002
3.563136e+002, 5.776728e+002
3.567957e+002, 5.824875e+002
3.572779e+002, 5.813239e+002
3.577600e+002, 5.751644e+002
3.582421e+002, 5.669728e+002
3.587242e+002, 5.526879e+002
3.592063e+002, 5.403152e+002
3.596884e+002, 5.363630e+002
3.601706e+002, 5.430186e+002
3.606527e+002, 5.541655e+002
3.611348e+002, 5.734734e+002
3.616169e+002, 5.945415e+002
3.620990e+002, 6.065103e+002
3.625811e+002, 5.998372e+002
3.630633e+002, 5.884278e+002
3.635454e+002, 5.767318e+002
3.640275e+002, 5.644675e+002
3.645096e+002, 5.567228e+002
3.649917e+002, 5.595590e+002
3.654738e+002, 5.655902e+002
3.659560e+002, 5.672612e+002
3.664381e+002, 5.572430e+002
3.669202e+002, 5.489922e+002
3.674023e+002, 5.455154e+002
3.678844e+002, 5.469221e+002
3.683665e+002, 5.495901e+002
3.688487e+002, 5.562844e+002
3.693308e+002, 5.623114e+002
3.698129e+002, 5.645626e+002
3.702950e+002, 5.598776e+002
3.707771e+002, 5.560531e+002
3.712592e+002, 5.537899e+002
3.717414e+002, 5.528042e+002
3.722235e+002, 5.517924e+002
3.727056e+002, 5.504343e+002
3.731877e+002, 5.494701e+002
3.736698e+002, 5.492176e+002
3.741519e+002, 5.496072e+002
3.746341e+002, 5.510320e+002
3.751162e+002, 5.541102e+002
3.755983e+002, 5.576865e+002
3.760804e+002, 5.594106e+002
3.765625e+002, 5.589323e+002
3.770446e+002, 5.577668e+002
3.775267e+002, 5.566193e+002
3.780089e+002, 5.554935e+002
3.784910e+002, 5.527328e+002
3.789731e+002, 5.476370e+002
3.794552e+002, 5.429210e+002
3.799373e+002, 5.439034e+002
3.804194e+002, 5.504893e+002
3.809016e+002, 5.524067e+002
3.813837e+002, 5.436771e+002
3.818658e+002, 5.290372e+002
3.823479e+002, 5.237121e+002
3.828300e+002, 5.279105e+002
3.833121e+002, 5.350548e+002
3.837943e+002, 5.418536e+002
3.842764e+002, 5.472513e+002
3.847585e+002, 5.475597e+002
3.852406e+002, 5.404605e+002
3.857227e+002, 5.302112e+002
3.862048e+002, 5.203635e+002
3.866870e+002, 5.117788e+002
3.871691e+002, 5.085881e+002
3.876512e+002, 5.181400e+002
3.881333e+002, 5.328438e+002
3.886154e+002, 5.431849e+002
3.890975e+002, 5.473210e+002
3.895797e+002, 5.485894e+002
3.900618e+002, 5.484426e+002
3.905439e+002, 5.473671e+002
3.910260e+002, 5.462639e+002
3.915081e+002, 5.482031e+002
3.919902e+002, 5.482767e+002
3.924724e+002, 5.409786e+002
3.929545e+002, 5.254637e+002
3.934366e+002, 5.143030e+002
3.939187e+002, 5.178405e+002
3.944008e+002, 5.263993e+002
3.948829e+002, 5.305815e+002
3.953651e+002, 5.187783e+002
3.958472e+002, 5.115806e+002
3.963293e+002, 5.204182e+002
3.968114e+002, 5.421147e+002
3.972935e+002, 5.531511e+002
3.977756e+002, 5.394584e+002
3.982578e+002, 5.211086e+002
3.987399e+002, 5.088057e+002
3.992220e+002, 5.072026e+002
3.997041e+002, 5.062203e+002
4.001862e+002, 5.056377e+002
4.006683e+002, 5.056400e+002
4.011505e+002, 5.065959e+002
4.016326e+002, 5.079859e+002
4.021147e+002, 5.110960e+002
4.025968e+002, 5.171155e+002
4.030789e+002, 5.272507e+002
4.035610e+002, 5.342360e+002
4.040432e+002, 5.377729e+002
4.045253e+002, 5.385201e+002
4.050074e+002, 5.363679e+002
4.054895e+002, 5.299233e+002
4.059716e+002, 5.259387e+002
4.064537e+002, 5.267043e+002
4.069359e+002, 5.313488e+002
4.074180e+002, 5.349348e+002
4.079001e+002, 5.374282e+002
4.083822e+002, 5.390351e+002
4.088643e+002, 5.393601e+002
4.093464e+002, 5.385855e+002
4.098285e+002, 5.392299e+002
4.103106e+002, 5.423112e+002
4.107928e+002, 5.459012e+002
4.112749e+002, 5.461604e+002
4.117570e+002, 5.434424e+002
4.122391e+002, 5.408672e+002
4.127212e+002, 5.398289e+002
4.132033e+002, 5.402638e+002
4.136855e+002, 5.428387e+002
4.141676e+002, 5.479791e+002
4.146497e+002, 5.522908e+002
4.151318e+002, 5.516788e+002
4.156139e+002, 5.479035e+002
4.160960e+002, 5.443880e+002
4.165782e+002, 5.430384e+002
4.170603e+002, 5.421130e+002
4.175424e+002, 5.406698e+002
4.180245e+002, 5.386105e+002
4.185066e+002, 5.351570e+002
4.189887e+002, 5.257663e+002
4.194709e+002, 5.169022e+002
4.199530e+002, 5.144839e+002
4.204351e+002, 5.250798e+002
4.209172e+002, 5.350223e+002
4.213993e+002, 5.395060e+002
4.218814e+002, 5.398503e+002
4.223636e+002, 5.394531e+002
4.228457e+002, 5.388582e+002
4.233278e+002, 5.378939e+002
4.238099e+002, 5.361160e+002
4.242920e+002, 5.324181e+002
4.247741e+002, 5.310426e+002
4.252563e+002, 5.336788e+002
4.257384e+002, 5.380469e+002
4.262205e+002, 5.414455e+002
4.267026e+002, 5.428936e+002
4.271847e+002, 5.450370e+002
4.276668e+002, 5.494144e+002
4.281490e+002, 5.556839e+002
4.286311e+002, 5.570939e+002
4.291132e+002, 5.516894e+002
4.295953e+002, 5.447404e+002
4.300774e+002, 5.396619e+002
4.305595e+002, 5.363431e+002
4.310417e+002, 5.357097e+002
4.315238e+002, 5.387776e+002
4.320059e+002, 5.435511e+002
4.324880e+002, 5.444258e+002
4.329701e+002, 5.410012e+002
4.334522e+002, 5.404600e+002
4.339344e+002, 5.500161e+002
4.344165e+002, 5.663772e+002
4.348986e+002, 5.732095e+002
4.353807e+002, 5.693143e+002
4.358628e+002, 5.627883e+002
4.363449e+002, 5.628061e+002
4.368271e+002, 5.672938e+002
4.373092e+002, 5.701174e+002
4.377913e+002, 5.680041e+002
4.382734e+002, 5.643254e+002
4.387555e+002, 5.638037e+002
4.392376e+002, 5.657620e+002
4.397197e+002, 5.662740e+002
4.402018e+002, 5.609131e+002
4.406840e+002, 5.537736e+002
4.411661e+002, 5.482597e+002
4.416482e+002, 5.438160e+002
4.421303e+002, 5.444171e+002
4.426124e+002, 5.583740e+002
4.430945e+002, 5.781069e+002
4.435767e+002, 5.899908e+002
4.440588e+002, 5.814579e+002
4.445409e+002, 5.717146e+002
4.450230e+002, 5.683751e+002
4.455051e+002, 5.724186e+002
4.459872e+002, 5.774886e+002
4.464694e+002, 5.858881e+002
4.469515e+002, 5.930515e+002
4.474336e+002, 5.953217e+002
4.479157e+002, 5.882496e+002
4.483978e+002, 5.821938e+002
4.488799e+002, 5.764807e+002
4.493621e+002, 5.722452e+002
4.498442e+002, 5.745483e+002
4.503263e+002, 5.868346e+002
4.508084e+002, 5.994711e+002
4.512905e+002, 6.094786e+002
4.517726e+002, 6.177991e+002
4.522548e+002, 6.158291e+002
4.527369e+002, 6.000828e+002
4.532190e+002, 5.802668e+002
4.537011e+002, 5.677177e+002
4.541832e+002, 5.625299e+002
4.546653e+002, 5.651650e+002
4.551475e+002, 5.792408e+002
4.556296e+002, 5.996545e+002
4.561117e+002, 6.128273e+002
4.565938e+002, 6.186637e+002
4.570759e+002, 6.186956e+002
4.575580e+002, 6.090728e+002
4.580402e+002, 5.948973e+002
4.585223e+002, 5.882769e+002
4.590044e+002, 5.924664e+002
4.594865e+002, 6.004370e+002
4.599686e+002, 6.059212e+002
4.604507e+002, 6.097138e+002
4.609329e+002, 6.138443e+002
4.614150e+002, 6.209599e+002
4.618971e+002, 6.274614e+002
4.623792e+002, 6.300993e+002
4.628613e+002, 6.286834e+002
4.633434e+002, 6.275322e+002
4.638256e+002, 6.307051e+002
4.643077e+002, 6.339578e+002
4.647898e+002, 6.336864e+002
4.652719e+002, 6.214281e+002
4.657540e+002, 6.141501e+002
4.662361e+002, 6.192576e+002
4.667183e+002, 6.323636e+002
4.672004e+002, 6.395026e+002
4.676825e+002, 6.316826e+002
4.681646e+002, 6.256031e+002
4.686467e+002, 6.278008e+002
4.691288e+002, 6.418528e+002
4.696110e+002, 6.499115e+002
4.700930e+002, 6.500602e+002
4.705752e+002, 6.463199e+002
4.710573e+002, 6.418533e+002
4.715394e+002, 6.349081e+002
4.720215e+002, 6.344653e+002
4.725036e+002, 6.452688e+002
4.729857e+002, 6.628109e+002
4.734679e+002, 6.687845e+002
4.739500e+002, 6.620372e+002
4.744321e+002, 6.537651e+002
4.749142e+002, 6.499438e+002
4.753963e+002, 6.504747e+002
4.758784e+002, 6.566613e+002
4.763606e+002, 6.699957e+002
4.768427e+002, 6.826025e+002
4.773248e+002, 6.837151e+002
4.778069e+002, 6.764225e+002
4.782890e+002, 6.688441e+002
4.787711e+002, 6.637229e+002
4.792533e+002, 6.603534e+002
4.797354e+002, 6.580039e+002
4.802175e+002, 6.567307e+002
4.806996e+002, 6.569115e+002
4.811817e+002, 6.595147e+002
4.816638e+002, 6.632316e+002
4.821460e+002, 6.668610e+002
4.826281e+002, 6.695707e+002
4.831102e+002, 6.733500e+002
4.835923e+002, 6.807841e+002
4.840744e+002, 6.893312e+002
4.845565e+002, 6.948408e+002
4.850387e+002, 6.923813e+002
4.855208e+002, 6.907780e+002
4.860029e+002, 6.943605e+002
4.864850e+002, 7.035270e+002
4.869671e+002, 7.054210e+002
4.874492e+002, 6.949563e+002
4.879314e+002, 6.825877e+002
4.884135e+002, 6.757008e+002
4.888956e+002, 6.770809e+002
4.893777e+002, 6.757392e+002
4.898598e+002, 6.697661e+002
4.903419e+002, 6.619685e+002
4.908241e+002, 6.576357e+002
4.913062e+002, 6.568647e+002
4.917883e+002, 6.590893e+002
4.922704e+002, 6.666984e+002
4.927525e+002, 6.774126e+002
4.932346e+002, 6.790395e+002
4.937168e+002, 6.709921e+002
4.941989e+002, 6.624319e+002
4.946810e+002, 6.639382e+002
4.951631e+002, 6.712356e+002
4.956452e+002, 6.734368e+002
4.961273e+002, 6.660131e+002
4.966095e+002, 6.567892e+002
4.970916e+002, 6.530742e+002
4.975737e+002, 6.539558e+002
4.980558e+002, 6.572870e+002
4.985379e+002, 6.660930e+002
4.990201e+002, 6.739545e+002
4.995022e+002, 6.755552e+002
4.999843e+002, 6.702428e+002
5.004664e+002, 6.652490e+002
5.009485e+002, 6.640251e+002
5.014306e+002, 6.638281e+002
5.019127e+002, 6.624990e+002
5.023948e+002, 6.555696e+002
5.028770e+002, 6.524774e+002
5.033591e+002, 6.564268e+002
5.038412e+002, 6.647311e+002
5.043233e+002, 6.706531e+002
5.048054e+002, 6.714799e+002
5.052875e+002, 6.740956e+002
5.057697e+002, 6.830558e+002
5.062518e+002, 6.996952e+002
5.067339e+002, 7.027428e+002
5.072160e+002, 6.873124e+002
5.076981e+002, 6.692966e+002
5.081802e+002, 6.656537e+002
5.086624e+002, 6.763753e+002
5.091445e+002, 6.858360e+002
5.096266e+002, 6.914149e+002
5.101087e+002, 6.942725e+002
5.105908e+002, 6.950897e+002
5.110729e+002, 6.944025e+002
5.115551e+002, 6.956852e+002
5.120372e+002, 7.050573e+002
5.125193e+002, 7.158989e+002
5.130014e+002, 7.164821e+002
5.134835e+002, 7.063381e+002
5.139656e+002, 6.965562e+002
5.144478e+002, 6.948422e+002
5.149299e+002, 6.978143e+002
5.154120e+002, 7.016769e+002
5.158941e+002, 7.046975e+002
5.163762e+002, 7.094492e+002
5.168583e+002, 7.201549e+002
5.173405e+002, 7.333400e+002
5.178226e+002, 7.407991e+002
5.183047e+002, 7.340390e+002
5.187868e+002, 7.275386e+002
5.192689e+002, 7.264340e+002
5.197510e+002, 7.314310e+002
5.202332e+002, 7.368196e+002
5.207153e+002, 7.418118e+002
5.211974e+002, 7.478766e+002
5.216795e+002, 7.571373e+002
5.221616e+002, 7.721456e+002
5.226437e+002, 7.812109e+002
5.231259e+002, 7.812223e+002
5.236080e+002, 7.766959e+002
5.240901e+002, 7.776636e+002
5.245722e+002, 7.845014e+002
5.250543e+002, 7.915671e+002
5.255364e+002, 7.979008e+002
5.260186e+002, 8.025154e+002
5.265007e+002, 8.006325e+002
5.269828e+002, 7.922216e+002
5.274649e+002, 7.841384e+002
5.279470e+002, 7.831213e+002
5.284291e+002, 7.860818e+002
5.289113e+002, 7.875813e+002
5.293934e+002, 7.854189e+002
5.298755e+002, 7.841661e+002
5.303576e+002, 7.890842e+002
5.308397e+002, 7.970518e+002
5.313218e+002, 8.023213e+002
5.318040e+002, 8.042135e+002
5.322861e+002, 8.014705e+002
5.327682e+002, 7.903998e+002
5.332503e+002, 7.710975e+002
5.337324e+002, 7.580042e+002
5.342145e+002, 7.580677e+002
5.346967e+002, 7.611581e+002
5.351788e+002, 7.615374e+002
5.356609e+002, 7.554348e+002
5.361430e+002, 7.544402e+002
5.366251e+002, 7.609745e+002
5.371072e+002, 7.706189e+002
5.375894e+002, 7.765485e+002
5.380715e+002, 7.784669e+002
5.385536e+002, 7.777203e+002
5.390357e+002, 7.728406e+002
5.395178e+002, 7.661219e+002
5.399999e+002, 7.676819e+002
5.404821e+002, 7.777244e+002
5.409642e+002, 7.874520e+002
5.414463e+002, 7.900592e+002
5.419284e+002, 7.878544e+002
5.424105e+002, 7.857966e+002
5.428926e+002, 7.842057e+002
5.433748e+002, 7.838893e+002
5.438569e+002, 7.865061e+002
5.443390e+002, 7.906932e+002
5.448211e+002, 7.943521e+002
5.453032e+002, 7.961553e+002
5.457853e+002, 7.978457e+002
5.462675e+002, 8.004103e+002
5.467495e+002, 8.036115e+002
5.472316e+002, 8.065906e+002
5.477137e+002, 8.085482e+002
5.481959e+002, 8.107267e+002
5.486780e+002, 8.141466e+002
5.491601e+002, 8.197307e+002
5.496422e+002, 8.228257e+002
5.501243e+002, 8.217752e+002
5.506064e+002, 8.197734e+002
5.510886e+002, 8.197120e+002
5.515707e+002, 8.221676e+002
5.520528e+002, 8.245945e+002
5.525349e+002, 8.264121e+002
5.530170e+002, 8.282814e+002
5.534991e+002, 8.332025e+002
5.539813e+002, 8.413467e+002
5.544634e+002, 8.454774e+002
5.549455e+002, 8.377512e+002
5.554276e+002, 8.241779e+002
5.559097e+002, 8.226202e+002
5.563918e+002, 8.327449e+002
5.568740e+002, 8.444784e+002
5.573561e+002, 8.506555e+002
5.578382e+002, 8.534255e+002
5.583203e+002, 8.550369e+002
5.588024e+002, 8.548582e+002
5.592845e+002, 8.567100e+002
5.597667e+002, 8.650196e+002
5.602488e+002, 8.762812e+002
5.607309e+002, 8.852222e+002
5.612130e+002, 8.888228e+002
5.616951e+002, 8.914476e+002
5.621772e+002, 8.945032e+002
5.626594e+002, 8.978628e+002
5.631415e+002, 8.997560e+002
5.636236e+002, 8.986713e+002
5.641057e+002, 8.977996e+002
5.645878e+002, 8.976307e+002
5.650699e+002, 8.968191e+002
5.655521e+002, 9.049706e+002
5.660342e+002, 9.265092e+002
5.665163e+002, 9.483428e+002
5.669984e+002, 9.517720e+002
5.674805e+002, 9.374568e+002
5.679626e+002, 9.309259e+002
5.684448e+002, 9.390429e+002
5.689269e+002, 9.553036e+002
5.694090e+002, 9.704981e+002
5.698911e+002, 9.846125e+002
5.703732e+002, 9.982556e+002
5.708553e+002, 1.014061e+003
5.713375e+002, 1.028092e+003
5.718196e+002, 1.033993e+003
5.723017e+002, 1.032002e+003
5.727838e+002, 1.031310e+003
5.732659e+002, 1.037657e+003
5.737480e+002, 1.046675e+003
5.742302e+002, 1.055012e+003
5.747123e+002, 1.061271e+003
5.751944e+002, 1.068141e+003
5.756765e+002, 1.075778e+003
5.761586e+002, 1.084391e+003
5.766407e+002, 1.094082e+003
5.771229e+002, 1.104087e+003
5.776050e+002, 1.116886e+003
5.780871e+002, 1.133867e+003
5.785692e+002, 1.154175e+003
5.790513e+002, 1.172131e+003
5.795334e+002, 1.187184e+003
5.800156e+002, 1.202510e+003
5.804977e+002, 1.220158e+003
5.809798e+002, 1.239776e+003
5.814619e+002, 1.260735e+003
5.819440e+002, 1.283438e+003
5.824261e+002, 1.302443e+003
5.829083e+002, 1.303773e+003
5.833904e+002, 1.298555e+003
5.838725e+002, 1.310114e+003
5.843546e+002, 1.353266e+003
5.848367e+002, 1.397484e+003
5.853188e+002, 1.416662e+003
5.858010e+002, 1.421351e+003
5.862831e+002, 1.433290e+003
5.867652e+002, 1.468539e+003
5.872473e+002, 1.504552e+003
5.877294e+002, 1.532004e+003
5.882115e+002, 1.550755e+003
5.886937e+002, 1.572425e+003
5.891758e+002, 1.599755e+003
5.896579e+002, 1.627684e+003
5.901400e+002, 1.652610e+003
5.906221e+002, 1.671413e+003
5.911042e+002, 1.700796e+003
5.915864e+002, 1.744791e+003
5.920685e+002, 1.791216e+003
5.925506e+002, 1.822691e+003
5.930327e+002, 1.839799e+003
5.935148e+002, 1.862118e+003
5.939969e+002, 1.895636e+003
5.944791e+002, 1.934058e+003
5.949612e+002, 1.968099e+003
5.954433e+002, 1.998405e+003
5.959254e+002, 2.026835e+003
5.964075e+002, 2.050493e+003
5.968896e+002, 2.075466e+003
5.973718e+002, 2.110256e+003
5.978539e+002, 2.154151e+003
5.983360e+002, 2.192703e+003
5.988181e+002, 2.215163e+003
5.993002e+002, 2.232730e+003
5.997823e+002, 2.251991e+003
6.002645e+002, 2.270247e+003
6.007466e+002, 2.298697e+003
6.012287e+002, 2.347402e+003
6.017108e+002, 2.400796e+003
6.021929e+002, 2.441402e+003
6.026750e+002, 2.466081e+003
6.031572e+002, 2.484267e+003
6.036393e+002, 2.494919e+003
6.041214e+002, 2.501857e+003
6.046035e+002, 2.515963e+003
6.050856e+002, 2.537521e+003
6.055677e+002, 2.562303e+003
6.060499e+002, 2.592366e+003
6.065320e+002, 2.623636e+003
6.070141e+002, 2.645995e+003
6.074962e+002, 2.659529e+003
6.079783e+002, 2.667189e+003
6.084604e+002, 2.669654e+003
6.089425e+002, 2.667977e+003
6.094246e+002, 2.661030e+003
6.099067e+002, 2.644922e+003
6.103889e+002, 2.636757e+003
6.108710e+002, 2.654761e+003
6.113531e+002, 2.680961e+003
6.118352e+002, 2.694048e+003
6.123173e+002, 2.684778e+003
6.127994e+002, 2.668719e+003
6.132816e+002, 2.644274e+003
6.137637e+002, 2.614846e+003
6.142458e+002, 2.590155e+003
6.147279e+002, 2.571619e+003
6.152100e+002, 2.554556e+003
6.156921e+002, 2.538375e+003
6.161743e+002, 2.522451e+003
6.166564e+002, 2.502220e+003
6.171385e+002, 2.477424e+003
6.176206e+002, 2.451603e+003
6.181027e+002, 2.426099e+003
6.185848e+002, 2.401702e+003
6.190670e+002, 2.380987e+003
6.195491e+002, 2.365228e+003
6.200312e+002, 2.346343e+003
6.205133e+002, 2.313830e+003
6.209954e+002, 2.275022e+003
6.214775e+002, 2.239748e+003
6.219597e+002, 2.214580e+003
6.224418e+002, 2.188891e+003
6.229239e+002, 2.155099e+003
6.234060e+002, 2.118176e+003
6.238881e+002, 2.089869e+003
6.243702e+002, 2.086506e+003
6.248524e+002, 2.073581e+003
6.253345e+002, 2.037878e+003
6.258166e+002, 1.982024e+003
6.262987e+002, 1.945639e+003
6.267808e+002, 1.935408e+003
6.272629e+002, 1.923522e+003
6.277451e+002, 1.887896e+003
6.282272e+002, 1.832047e+003
6.287093e+002, 1.791401e+003
6.291914e+002, 1.768268e+003
6.296735e+002, 1.751379e+003
6.301556e+002, 1.731106e+003
6.306378e+002, 1.708856e+003
6.311199e+002, 1.687739e+003
6.316020e+002, 1.669384e+003
6.320841e+002, 1.650411e+003
6.325662e+002, 1.627135e+003
6.330483e+002, 1.601897e+003
6.335305e+002, 1.578524e+003
6.340126e+002, 1.559708e+003
6.344947e+002, 1.542000e+003
6.349768e+002, 1.524856e+003
6.354589e+002, 1.508076e+003
6.359410e+002, 1.491008e+003
6.364232e+002, 1.471739e+003
6.369053e+002, 1.455170e+003
6.373874e+002, 1.445174e+003
6.378695e+002, 1.441876e+003
6.383516e+002, 1.428776e+003
6.388337e+002, 1.403864e+003
6.393159e+002, 1.378481e+003
6.397980e+002, 1.363267e+003
6.402801e+002, 1.355578e+003
6.407622e+002, 1.345636e+003
6.412443e+002, 1.331279e+003
6.417264e+002, 1.318681e+003
6.422086e+002, 1.317565e+003
6.426907e+002, 1.321186e+003
6.431728e+002, 1.318991e+003
6.436549e+002, 1.301225e+003
6.441370e+002, 1.284555e+003
6.446191e+002, 1.276195e+003
6.451013e+002, 1.273888e+003
6.455834e+002, 1.271734e+003
6.460655e+002, 1.270398e+003
6.465476e+002, 1.267390e+003
6.470297e+002, 1.262278e+003
6.475118e+002, 1.254990e+003
6.479940e+002, 1.244457e+003
6.484761e+002, 1.228451e+003
6.489582e+002, 1.215286e+003
6.494403e+002, 1.210806e+003
6.499224e+002, 1.214130e+003
6.504045e+002, 1.217169e+003
6.508867e+002, 1.219778e+003
6.513688e+002, 1.221928e+003
6.518509e+002, 1.226482e+003
6.523330e+002, 1.229890e+003
6.528151e+002, 1.224135e+003
6.532972e+002, 1.203637e+003
6.537794e+002, 1.185499e+003
6.542615e+002, 1.183090e+003
6.547436e+002, 1.189129e+003
6.552257e+002, 1.193396e+003
6.557078e+002, 1.192460e+003
6.561899e+002, 1.190557e+003
6.566721e+002, 1.187512e+003
6.571542e+002, 1.184151e+003
6.576363e+002, 1.183504e+003
6.581184e+002, 1.188311e+003
6.586005e+002, 1.189395e+003
6.590826e+002, 1.182351e+003
6.595648e+002, 1.168692e+003
6.600469e+002, 1.159203e+003
6.605290e+002, 1.154232e+003
6.610111e+002, 1.147447e+003
6.614932e+002, 1.128312e+003
6.619753e+002, 1.105748e+003
6.624575e+002, 1.101543e+003
6.629396e+002, 1.118101e+003
6.634217e+002, 1.132894e+003
6.639038e+002, 1.126685e+003
6.643859e+002, 1.111759e+003
6.648680e+002, 1.100628e+003
6.653502e+002, 1.096569e+003
6.658323e+002, 1.095116e+003
6.663144e+002, 1.097870e+003
6.667965e+002, 1.101647e+003
6.672786e+002, 1.101956e+003
6.677607e+002, 1.096009e+003
6.682429e+002, 1.091933e+003
6.687250e+002, 1.091774e+003
6.692071e+002, 1.093544e+003
6.696892e+002, 1.091646e+003
6.701713e+002, 1.085850e+003
6.706534e+002, 1.079980e+003
6.711355e+002, 1.074394e+003
6.716176e+002, 1.070403e+003
6.720997e+002, 1.074669e+003
6.725818e+002, 1.085288e+003
6.730640e+002, 1.089516e+003
6.735461e+002, 1.069529e+003
6.740282e+002, 1.046229e+003
6.745103e+002, 1.040429e+003
6.749924e+002, 1.055311e+003
6.754745e+002, 1.064472e+003
6.759567e+002, 1.050866e+003
6.764388e+002, 1.034258e+003
6.769209e+002, 1.029463e+003
6.774030e+002, 1.044877e+003
6.778851e+002, 1.052933e+003
6.783672e+002, 1.051454e+003
6.788494e+002, 1.045275e+003
6.793315e+002, 1.040079e+003
6.798136e+002, 1.036009e+003
6.802957e+002, 1.028927e+003
6.807778e+002, 1.016088e+003
6.812599e+002, 1.004515e+003
6.817421e+002, 1.010653e+003
6.822242e+002, 1.028213e+003
6.827063e+002, 1.037586e+003
6.831884e+002, 1.020757e+003
6.836705e+002, 1.000968e+003
6.841526e+002, 9.984766e+002
6.846348e+002, 1.008292e+003
6.851169e+002, 1.013499e+003
6.855990e+002, 9.996083e+002
6.860811e+002, 9.884986e+002
6.865632e+002, 9.917061e+002
6.870453e+002, 1.008954e+003
6.875275e+002, 1.019375e+003
6.880096e+002, 1.022031e+003
6.884917e+002, 1.019438e+003
6.889738e+002, 1.011105e+003
6.894559e+002, 9.969871e+002
6.899380e+002, 9.868107e+002
6.904202e+002, 9.807314e+002
6.909023e+002, 9.778844e+002
6.913844e+002, 9.809988e+002
6.918665e+002, 9.861211e+002
6.923486e+002, 9.844340e+002
6.928307e+002, 9.728947e+002
6.933129e+002, 9.605247e+002
6.937950e+002, 9.524716e+002
6.942771e+002, 9.476531e+002
6.947592e+002, 9.447630e+002
6.952413e+002, 9.424355e+002
6.957234e+002, 9.432745e+002
6.962056e+002, 9.522748e+002
6.966877e+002, 9.633604e+002
6.971698e+002, 9.640408e+002
6.976519e+002, 9.482136e+002
6.981340e+002, 9.392274e+002
6.986161e+002, 9.451457e+002
6.990983e+002, 9.601562e+002
6.995804e+002, 9.674492e+002
7.000625e+002, 9.671961e+002
7.005446e+002, 9.627654e+002
7.010267e+002, 9.523404e+002
7.015089e+002, 9.406616e+002
7.019910e+002, 9.365031e+002
7.024731e+002, 9.385690e+002
7.029552e+002, 9.371487e+002
7.034373e+002, 9.230303e+002
7.039194e+002, 9.066820e+002
7.044016e+002, 8.940889e+002
7.048837e+002, 8.859066e+002
7.053658e+002, 8.811556e+002
7.058479e+002, 8.792689e+002
7.063300e+002, 8.809990e+002
7.068121e+002, 8.885386e+002
7.072943e+002, 9.049529e+002
7.077764e+002, 9.122122e+002
7.082585e+002, 9.084803e+002
7.087406e+002, 9.002537e+002
7.092227e+002, 8.974401e+002
7.097048e+002, 8.970858e+002
7.101870e+002, 8.841350e+002
7.106691e+002, 8.488780e+002
7.111512e+002, 8.205081e+002
7.116333e+002, 8.360965e+002
7.121154e+002, 8.744576e+002
7.125975e+002, 9.011151e+002
7.130797e+002, 8.996978e+002
7.135618e+002, 8.903482e+002
7.140439e+002, 8.736643e+002
7.145260e+002, 8.535269e+002
7.150081e+002, 8.399844e+002
7.154902e+002, 8.360867e+002
7.159724e+002, 8.337968e+002
7.164545e+002, 8.319591e+002
7.169366e+002, 8.300860e+002
7.174187e+002, 8.255668e+002
7.179008e+002, 8.182323e+002
7.183829e+002, 8.121921e+002
7.188651e+002, 8.084261e+002
7.193472e+002, 8.078568e+002
7.198293e+002, 8.158264e+002
7.203114e+002, 8.305919e+002
7.207935e+002, 8.392302e+002
7.212756e+002, 8.264138e+002
7.217578e+002, 8.100143e+002
7.222399e+002, 8.043854e+002
7.227220e+002, 8.128469e+002
7.232041e+002, 8.160120e+002
7.236862e+002, 8.078976e+002
7.241683e+002, 7.964518e+002
7.246505e+002, 7.850381e+002
7.251326e+002, 7.720596e+002
7.256147e+002, 7.668560e+002
7.260968e+002, 7.711523e+002
7.265789e+002, 7.784877e+002
7.270610e+002, 7.839337e+002
7.275432e+002, 7.868621e+002
7.280253e+002, 7.832055e+002
7.285074e+002, 7.706729e+002
7.289895e+002, 7.586676e+002
7.294716e+002, 7.585132e+002
7.299537e+002, 7.640093e+002
7.304359e+002, 7.661703e+002
7.309180e+002, 7.590874e+002
7.314001e+002, 7.528069e+002
7.318822e+002, 7.497799e+002
7.323643e+002, 7.493737e+002
7.328464e+002, 7.501465e+002
7.333285e+002, 7.520949e+002
7.338106e+002, 7.557383e+002
7.342927e+002, 7.632164e+002
7.347748e+002, 7.708121e+002
7.352570e+002, 7.664382e+002
7.357391e+002, 7.506913e+002
7.362212e+002, 7.389999e+002
7.367033e+002, 7.408882e+002
7.371854e+002, 7.481093e+002
7.376675e+002, 7.484000e+002
7.381497e+002, 7.433156e+002
7.386318e+002, 7.388558e+002
7.391139e+002, 7.381761e+002
7.395960e+002, 7.388313e+002
7.400781e+002, 7.411375e+002
7.405602e+002, 7.448759e+002
7.410424e+002, 7.431070e+002
7.415245e+002, 7.282476e+002
7.420066e+002, 7.176985e+002
7.424887e+002, 7.216563e+002
7.429708e+002, 7.399641e+002
7.434529e+002, 7.466810e+002
7.439351e+002, 7.404695e+002
7.444172e+002, 7.316102e+002
7.448993e+002, 7.281137e+002
7.453814e+002, 7.279281e+002
7.458635e+002, 7.247860e+002
7.463456e+002, 7.179337e+002
7.468278e+002, 7.157477e+002
7.473099e+002, 7.330737e+002
7.477920e+002, 7.524327e+002
7.482741e+002, 7.563476e+002
7.487562e+002, 7.326133e+002
7.492383e+002, 7.180629e+002
7.497205e+002, 7.268336e+002
7.502026e+002, 7.391195e+002
7.506847e+002, 7.386978e+002
7.511668e+002, 7.240736e+002
7.516489e+002, 6.997108e+002
7.521310e+002, 6.598615e+002
7.526132e+002, 6.258683e+002
7.530953e+002, 6.383395e+002
7.535774e+002, 6.836100e+002
7.540595e+002, 7.088534e+002
7.545416e+002, 6.941422e+002
7.550237e+002, 6.747057e+002
7.555059e+002, 6.838099e+002
7.559880e+002, 7.072980e+002
7.564701e+002, 7.234161e+002
7.569522e+002, 7.182581e+002
7.574343e+002, 7.133976e+002
7.579164e+002, 7.140113e+002
7.583986e+002, 7.175044e+002
7.588807e+002, 7.193035e+002
7.593628e+002, 7.191232e+002
7.598449e+002, 7.180728e+002
7.603270e+002, 7.161498e+002
7.608091e+002, 7.138682e+002
7.612913e+002, 7.129965e+002
7.617734e+002, 7.131740e+002
7.622555e+002, 7.119151e+002
7.627376e+002, 7.061783e+002
7.632197e+002, 6.999219e+002
7.637018e+002, 6.972512e+002
7.641840e+002, 6.973821e+002
7.646661e+002, 6.975624e+002
7.651482e+002, 6.929778e+002
7.656303e+002, 6.921378e+002
7.661124e+002, 7.021962e+002
7.665945e+002, 7.207995e+002
7.670767e+002, 7.279116e+002
7.675588e+002, 7.200981e+002
7.680409e+002, 7.093450e+002
7.685230e+002, 6.989304e+002
7.690051e+002, 6.901577e+002
7.694872e+002, 6.913754e+002
7.699694e+002, 7.020657e+002
7.704515e+002, 7.115757e+002
7.709336e+002, 7.120467e+002
7.714157e+002, 7.076414e+002
7.718978e+002, 7.014926e+002
7.723799e+002, 6.939115e+002
7.728621e+002, 6.886381e+002
7.733442e+002, 6.879208e+002
7.738263e+002, 6.891971e+002
7.743084e+002, 6.912701e+002
7.747905e+002, 6.942261e+002
7.752726e+002, 6.976477e+002
7.757548e+002, 7.027659e+002
7.762369e+002, 7.056152e+002
7.767190e+002, 7.005823e+002
7.772011e+002, 6.895566e+002
7.776832e+002, 6.866366e+002
7.781653e+002, 6.929240e+002
7.786475e+002, 7.001065e+002
7.791296e+002, 7.006629e+002
7.796117e+002, 6.980667e+002
7.800938e+002, 6.967607e+002
7.805759e+002, 6.983351e+002
7.810580e+002, 6.977741e+002
7.815402e+002, 6.887253e+002
7.820223e+002, 6.800130e+002
7.825044e+002, 6.795549e+002
7.829865e+002, 6.927344e+002
7.834686e+002, 6.998389e+002
7.839507e+002, 6.990879e+002
7.844329e+002, 6.953959e+002
7.849150e+002, 6.935588e+002
7.853971e+002, 6.935544e+002
7.858792e+002, 6.961891e+002
7.863613e+002, 7.025996e+002
7.868434e+002, 7.072035e+002
7.873256e+002, 7.013577e+002
7.878077e+002, 6.916006e+002
7.882898e+002, 6.867797e+002
7.887719e+002, 6.933839e+002
7.892540e+002, 6.982419e+002
7.897361e+002, 6.965408e+002
7.902183e+002, 6.922760e+002
7.907004e+002, 6.896051e+002
7.911825e+002, 6.876489e+002
7.916646e+002, 6.913090e+002
7.921467e+002, 7.039320e+002
7.926288e+002, 7.168690e+002
7.931110e+002, 7.122100e+002
7.935930e+002, 6.950582e+002
7.940751e+002, 6.873522e+002
7.945573e+002, 6.999517e+002
7.950394e+002, 7.148378e+002
7.955215e+002, 7.163647e+002
7.960036e+002, 7.092424e+002
7.964857e+002, 7.009597e+002
7.969678e+002, 6.884472e+002
7.974500e+002, 6.817159e+002
7.979321e+002, 6.851391e+002
7.984142e+002, 6.939518e+002
7.988963e+002, 6.991887e+002
7.993784e+002, 6.999695e+002
7.998605e+002, 7.022609e+002
8.003427e+002, 7.088303e+002
8.008248e+002, 7.153351e+002
8.013069e+002, 7.133632e+002
8.017890e+002, 7.045109e+002
8.022711e+002, 6.940010e+002
8.027532e+002, 6.796086e+002
8.032354e+002, 6.692705e+002
8.037175e+002, 6.694302e+002
8.041996e+002, 6.772435e+002
8.046817e+002, 6.860143e+002
8.051638e+002, 6.965148e+002
8.056459e+002, 7.052559e+002
8.061281e+002, 7.119824e+002
8.066102e+002, 7.164605e+002
8.070923e+002, 7.167853e+002
8.075744e+002, 7.125714e+002
8.080565e+002, 7.107137e+002
8.085386e+002, 7.145950e+002
8.090208e+002, 7.210624e+002
8.095029e+002, 7.276261e+002
8.099850e+002, 7.325982e+002
8.104671e+002, 7.307335e+002
8.109492e+002, 7.110745e+002
8.114313e+002, 6.926470e+002
8.119135e+002, 6.840627e+002
8.123956e+002, 6.842244e+002
8.128777e+002, 6.887192e+002
8.133598e+002, 7.040792e+002
8.138419e+002, 7.104910e+002
8.143240e+002, 6.985193e+002
8.148062e+002, 6.761298e+002
8.152883e+002, 6.707837e+002
8.157704e+002, 6.815410e+002
8.162525e+002, 6.926771e+002
8.167346e+002, 6.965825e+002
8.172167e+002, 6.972311e+002
8.176989e+002, 6.990271e+002
8.181810e+002, 7.015692e+002
8.186631e+002, 7.035527e+002
8.191452e+002, 7.057320e+002
8.196273e+002, 7.059828e+002
8.201094e+002, 7.017704e+002
8.205916e+002, 6.947741e+002
8.210737e+002, 6.917364e+002
8.215558e+002, 6.942419e+002
8.220379e+002, 6.953381e+002
8.225200e+002, 6.904627e+002
8.230021e+002, 6.838268e+002
8.234843e+002, 6.900031e+002
8.239664e+002, 7.062461e+002
8.244485e+002, 7.180985e+002
8.249306e+002, 7.148444e+002
8.254127e+002, 7.065001e+002
8.258948e+002, 6.973700e+002
8.263770e+002, 6.889987e+002
8.268591e+002, 6.868747e+002
8.273412e+002, 6.990595e+002
8.278233e+002, 7.099584e+002
8.283054e+002, 7.155965e+002
8.287875e+002, 7.169790e+002
8.292697e+002, 7.191738e+002
8.297518e+002, 7.225522e+002
8.302339e+002, 7.221838e+002
8.307160e+002, 7.130429e+002
8.311981e+002, 7.011152e+002
8.316802e+002, 6.979085e+002
8.321624e+002, 7.011263e+002
8.326445e+002, 7.026584e+002
8.331266e+002, 6.931915e+002
8.336087e+002, 6.864208e+002
8.340908e+002, 6.935173e+002
8.345729e+002, 7.104041e+002
8.350551e+002, 7.136490e+002
8.355372e+002, 6.933612e+002
8.360193e+002, 6.812833e+002
8.365014e+002, 6.902110e+002
8.369835e+002, 7.125010e+002
8.374656e+002, 7.242440e+002
8.379478e+002, 7.260161e+002
8.384299e+002, 7.230631e+002
8.389120e+002, 7.132579e+002
8.393941e+002, 7.036876e+002
8.398762e+002, 7.029489e+002
8.403583e+002, 7.081394e+002
8.408405e+002, 7.101303e+002
8.413226e+002, 7.022420e+002
8.418047e+002, 6.953063e+002
8.422868e+002, 6.917611e+002
8.427689e+002, 6.911194e+002
8.432510e+002, 6.922014e+002
8.437332e+002, 6.952405e+002
8.442153e+002, 6.983925e+002
8.446974e+002, 7.021888e+002
8.451795e+002, 7.043638e+002
8.456616e+002, 6.977642e+002
8.461437e+002, 6.856707e+002
8.466259e+002, 6.780543e+002
8.471080e+002, 6.824422e+002
8.475901e+002, 6.894778e+002
8.480722e+002, 6.957556e+002
8.485543e+002, 7.012585e+002
8.490364e+002, 7.064464e+002
8.495186e+002, 7.119941e+002
8.500007e+002, 7.159061e+002
8.504828e+002, 7.177026e+002
8.509649e+002, 7.176793e+002
8.514470e+002, 7.157838e+002
8.519291e+002, 7.123909e+002
8.524113e+002, 7.098545e+002
8.528934e+002, 7.094312e+002
8.533755e+002, 7.096946e+002
8.538576e+002, 7.103516e+002
8.543397e+002, 7.106234e+002
8.548218e+002, 7.089662e+002
8.553040e+002, 6.997040e+002
8.557860e+002, 6.954142e+002
8.562681e+002, 7.007746e+002
8.567502e+002, 7.105011e+002
8.572324e+002, 7.140395e+002
8.577145e+002, 7.108364e+002
8.581966e+002, 7.081671e+002
8.586787e+002, 7.075242e+002
8.591608e+002, 7.086924e+002
8.596429e+002, 7.134159e+002
8.601251e+002, 7.193934e+002
8.606072e+002, 7.218794e+002
8.610893e+002, 7.147792e+002
8.615714e+002, 7.102595e+002
8.620535e+002, 7.149946e+002
8.625356e+002, 7.242504e+002
8.630178e+002, 7.311071e+002
8.634999e+002, 7.364621e+002
8.639820e+002, 7.356022e+002
8.644641e+002, 7.256011e+002
8.649462e+002, 7.143401e+002
8.654283e+002, 7.164722e+002
8.659105e+002, 7.275430e+002
8.663926e+002, 7.330111e+002
8.668747e+002, 7.292881e+002
8.673568e+002, 7.197353e+002
8.678389e+002, 6.970016e+002
8.683210e+002, 6.746320e+002
8.688032e+002, 6.679266e+002
8.692853e+002, 6.982295e+002
8.697674e+002, 7.150073e+002
8.702495e+002, 7.123395e+002
8.707316e+002, 7.036818e+002
8.712137e+002, 7.043887e+002
8.716959e+002, 7.136565e+002
8.721780e+002, 7.184216e+002
8.726601e+002, 7.170765e+002
8.731422e+002, 7.129918e+002
8.736243e+002, 7.063182e+002
8.741064e+002, 7.001813e+002
8.745886e+002, 6.995065e+002
8.750707e+002, 7.076212e+002
8.755528e+002, 7.117761e+002
8.760349e+002, 7.040905e+002
8.765170e+002, 6.955694e+002
8.769991e+002, 6.929566e+002
8.774813e+002, 6.968401e+002
8.779634e+002, 7.038475e+002
8.784455e+002, 7.147004e+002
8.789276e+002, 7.240384e+002
8.794097e+002, 7.232744e+002
8.798918e+002, 7.193536e+002
8.803740e+002, 7.275391e+002
8.808561e+002, 7.489564e+002
8.813382e+002, 7.613457e+002
8.818203e+002, 7.458784e+002
8.823024e+002, 7.250124e+002
8.827845e+002, 7.106778e+002
8.832667e+002, 7.030945e+002
8.837488e+002, 7.040809e+002
8.842309e+002, 7.167787e+002
8.847130e+002, 7.271911e+002
8.851951e+002, 7.235647e+002
8.856772e+002, 7.116936e+002
8.861594e+002, 7.086664e+002
8.866415e+002, 7.136323e+002
8.871236e+002, 7.205135e+002
8.876057e+002, 7.298641e+002
8.880878e+002, 7.363829e+002
8.885699e+002, 7.342329e+002
8.890521e+002, 7.246097e+002
8.895342e+002, 7.210153e+002
8.900163e+002, 7.266198e+002
8.904984e+002, 7.326420e+002
8.909805e+002, 7.369968e+002
8.914626e+002, 7.393840e+002
8.919448e+002, 7.376423e+002
8.924269e+002, 7.325012e+002
8.929090e+002, 7.283654e+002
8.933911e+002, 7.272109e+002
8.938732e+002, 7.280526e+002
8.943553e+002, 7.307695e+002
8.948375e+002, 7.348400e+002
8.953196e+002, 7.389878e+002
8.958017e+002, 7.452722e+002
8.962838e+002, 7.481189e+002
8.967659e+002, 7.454469e+002
8.972480e+002, 7.401046e+002
8.977302e+002, 7.388206e+002
8.982123e+002, 7.410632e+002
8.986944e+002, 7.392330e+002
8.991765e+002, 7.302022e+002
8.996586e+002, 7.193983e+002
9.001407e+002, 7.082304e+002
9.006229e+002, 7.004861e+002
9.011050e+002, 7.023734e+002
9.015871e+002, 7.290217e+002
9.020692e+002, 7.440690e+002
9.025513e+002, 7.370776e+002
9.030334e+002, 7.238025e+002
9.035156e+002, 7.220663e+002
9.039977e+002, 7.326102e+002
9.044798e+002, 7.373527e+002
9.049619e+002, 7.338964e+002
9.054440e+002, 7.290692e+002
9.059261e+002, 7.282863e+002
9.064083e+002, 7.311096e+002
9.068904e+002, 7.389876e+002
9.073725e+002, 7.541948e+002
9.078546e+002, 7.626176e+002
9.083367e+002, 7.528307e+002
9.088188e+002, 7.409967e+002
9.093010e+002, 7.372825e+002
9.097831e+002, 7.426016e+002
9.102652e+002, 7.436760e+002
9.107473e+002, 7.400505e+002
9.112294e+002, 7.361138e+002
9.117115e+002, 7.366161e+002
9.121937e+002, 7.381576e+002
9.126758e+002, 7.330507e+002
9.131579e+002, 7.222684e+002
9.136400e+002, 7.166832e+002
9.141221e+002, 7.241241e+002
9.146042e+002, 7.347500e+002
9.150864e+002, 7.463130e+002
9.155685e+002, 7.578211e+002
9.160506e+002, 7.630815e+002
9.165327e+002, 7.619420e+002
9.170148e+002, 7.548990e+002
9.174969e+002, 7.380629e+002
9.179790e+002, 7.194869e+002
9.184611e+002, 7.141856e+002
9.189432e+002, 7.191609e+002
9.194254e+002, 7.257985e+002
9.199075e+002, 7.333879e+002
9.203896e+002, 7.385831e+002
9.208717e+002, 7.374271e+002
9.213538e+002, 7.338048e+002
9.218359e+002, 7.355298e+002
9.223181e+002, 7.445828e+002
9.228002e+002, 7.502061e+002
9.232823e+002, 7.505283e+002
9.237644e+002, 7.465255e+002
9.242465e+002, 7.343159e+002
9.247286e+002, 7.198516e+002
9.252108e+002, 7.177507e+002
9.256929e+002, 7.384640e+002
9.261750e+002, 7.536187e+002
9.266571e+002, 7.459658e+002
9.271392e+002, 7.298860e+002
9.276213e+002, 7.183386e+002
9.281035e+002, 7.106188e+002
9.285856e+002, 7.119944e+002
9.290677e+002, 7.241083e+002
9.295498e+002, 7.392725e+002
9.300319e+002, 7.544819e+002
9.305140e+002, 7.666230e+002
9.309962e+002, 7.668337e+002
9.314783e+002, 7.545419e+002
9.319604e+002, 7.441953e+002
9.324425e+002, 7.440930e+002
9.329246e+002, 7.472917e+002
9.334067e+002, 7.500448e+002
9.338889e+002, 7.522443e+002
9.343710e+002, 7.560875e+002
9.348531e+002, 7.627467e+002
9.353352e+002, 7.655705e+002
9.358173e+002, 7.588461e+002
9.362994e+002, 7.475974e+002
9.367816e+002, 7.414626e+002
9.372637e+002, 7.399258e+002
9.377458e+002, 7.413927e+002
9.382279e+002, 7.472510e+002
9.387100e+002, 7.536066e+002
9.391921e+002, 7.605528e+002
9.396743e+002, 7.663942e+002
9.401564e+002, 7.665631e+002
9.406385e+002, 7.586994e+002
9.411206e+002, 7.559963e+002
9.416027e+002, 7.624877e+002
9.420848e+002, 7.716401e+002
9.425670e+002, 7.728603e+002
9.430491e+002, 7.695181e+002
9.435312e+002, 7.692474e+002
9.440133e+002, 7.769326e+002
9.444954e+002, 7.805959e+002
9.449775e+002, 7.716774e+002
9.454597e+002, 7.589028e+002
9.459418e+002, 7.498509e+002
9.464239e+002, 7.443085e+002
9.469060e+002, 7.437533e+002
9.473881e+002, 7.485648e+002
9.478702e+002, 7.563206e+002
9.483524e+002, 7.703393e+002
9.488345e+002, 7.836284e+002
9.493166e+002, 7.800216e+002
9.497987e+002, 7.594546e+002
9.502808e+002, 7.451606e+002
9.507629e+002, 7.551918e+002
9.512451e+002, 7.666490e+002
9.517272e+002, 7.689449e+002
9.522093e+002, 7.630620e+002
9.526914e+002, 7.557946e+002
9.531735e+002, 7.463207e+002
9.536556e+002, 7.433698e+002
9.541378e+002, 7.558605e+002
9.546199e+002, 7.718427e+002
9.551020e+002, 7.714243e+002
9.555841e+002, 7.604736e+002
9.560662e+002, 7.532104e+002
9.565483e+002, 7.593633e+002
9.570305e+002, 7.643558e+002
9.575126e+002, 7.645735e+002
9.579947e+002, 7.620152e+002
9.584768e+002, 7.591978e+002
9.589589e+002, 7.560861e+002
9.594410e+002, 7.529722e+002
9.599232e+002, 7.495739e+002
9.604053e+002, 7.476982e+002
9.608874e+002, 7.495350e+002
9.613695e+002, 7.539355e+002
9.618516e+002, 7.602473e+002
9.623337e+002, 7.696588e+002
9.628159e+002, 7.749539e+002
9.632980e+002, 7.714028e+002
9.637801e+002, 7.671788e+002
9.642622e+002, 7.672272e+002
9.647443e+002, 7.713881e+002
9.652264e+002, 7.729540e+002
9.657086e+002, 7.719741e+002
9.661907e+002, 7.715336e+002
9.666728e+002, 7.783430e+002
9.671549e+002, 7.830466e+002
9.676370e+002, 7.708400e+002
9.681191e+002, 7.466660e+002
9.686013e+002, 7.362933e+002
9.690834e+002, 7.568282e+002
9.695655e+002, 7.732990e+002
9.700476e+002, 7.791971e+002
9.705297e+002, 7.765154e+002
9.710118e+002, 7.646443e+002
9.714940e+002, 7.464511e+002
9.719761e+002, 7.404896e+002
9.724582e+002, 7.571577e+002
9.729403e+002, 7.755352e+002
9.734224e+002, 7.778585e+002
9.739045e+002, 7.735114e+002
9.743867e+002, 7.745927e+002
9.748688e+002, 7.902653e+002
9.753509e+002, 7.936092e+002
9.758330e+002, 7.799558e+002
9.763151e+002, 7.644086e+002
9.767972e+002, 7.616277e+002
9.772794e+002, 7.682614e+002
9.777615e+002, 7.744740e+002
9.782436e+002, 7.795800e+002
9.787257e+002, 7.826393e+002
9.792078e+002, 7.810416e+002
9.796899e+002, 7.790210e+002
9.801720e+002, 7.786412e+002
9.806541e+002, 7.800533e+002
9.811362e+002, 7.849525e+002
9.816183e+002, 7.955363e+002
9.821005e+002, 8.000375e+002
9.825826e+002, 7.924290e+002
9.830647e+002, 7.787731e+002
9.835468e+002, 7.688621e+002
9.840289e+002, 7.620116e+002
9.845110e+002, 7.565023e+002
9.849932e+002, 7.465252e+002
9.854753e+002, 7.448317e+002
9.859574e+002, 7.667112e+002
9.864395e+002, 7.916890e+002
9.869216e+002, 7.953345e+002
9.874037e+002, 7.738691e+002
9.878859e+002, 7.653893e+002
9.883680e+002, 7.738941e+002
9.888501e+002, 7.862630e+002
9.893322e+002, 7.916080e+002
9.898143e+002, 7.926002e+002
9.902964e+002, 7.910012e+002
9.907786e+002, 7.868632e+002
9.912607e+002, 7.867531e+002
9.917428e+002, 8.004785e+002
9.922249e+002, 8.074273e+002
9.927070e+002, 7.960936e+002
9.931891e+002, 7.720704e+002
9.936713e+002, 7.644581e+002
9.941534e+002, 7.716801e+002
9.946355e+002, 7.801596e+002
9.951176e+002, 7.846396e+002
9.955997e+002, 7.865782e+002
9.960818e+002, 7.859061e+002
9.965640e+002, 7.838099e+002
9.970461e+002, 7.825303e+002
9.975282e+002, 7.825169e+002
9.980103e+002, 7.829894e+002
9.984924e+002, 7.840635e+002
9.989745e+002, 7.852533e+002
9.994567e+002, 7.859001e+002
9.999388e+002, 7.861820e+002
1.000421e+003, 7.861246e+002
1.000903e+003, 7.856152e+002
1.001385e+003, 7.869954e+002
1.001867e+003, 7.929731e+002
1.002349e+003, 8.002114e+002
1.002831e+003, 8.083325e+002
1.003314e+003, 8.169609e+002
1.003796e+003, 8.151220e+002
1.004278e+003, 8.008387e+002
1.004760e+003, 7.887921e+002
1.005242e+003, 7.865724e+002
1.005724e+003, 7.899653e+002
1.006206e+003, 7.944446e+002
1.006688e+003, 7.990309e+002
1.007171e+003, 8.014734e+002
1.007653e+003, 8.004879e+002
1.008135e+003, 7.976596e+002
1.008617e+003, 7.906664e+002
1.009099e+003, 7.844789e+002
1.009581e+003, 7.876269e+002
1.010063e+003, 7.996024e+002
1.010545e+003, 8.047573e+002
1.011027e+003, 8.009990e+002
1.011510e+003, 7.951902e+002
1.011992e+003, 7.925413e+002
1.012474e+003, 7.911884e+002
1.012956e+003, 7.890021e+002
1.013438e+003, 7.855305e+002
1.013920e+003, 7.851812e+002
1.014402e+003, 7.896202e+002
1.014884e+003, 7.935249e+002
1.015367e+003, 7.943797e+002
1.015849e+003, 7.932977e+002
1.016331e+003, 7.935665e+002
1.016813e+003, 7.946701e+002
1.017295e+003, 7.947661e+002
1.017777e+003, 7.898454e+002
1.018259e+003, 7.876078e+002
1.018741e+003, 7.962009e+002
1.019223e+003, 8.066764e+002
1.019706e+003, 8.052188e+002
1.020188e+003, 7.876085e+002
1.020670e+003, 7.835961e+002
1.021152e+003, 7.975566e+002
1.021634e+003, 8.130135e+002
1.022116e+003, 8.081518e+002
1.022598e+003, 7.977054e+002
1.023080e+003, 8.040132e+002
1.023563e+003, 8.295752e+002
1.024045e+003, 8.462979e+002
1.024527e+003, 8.468141e+002
1.025009e+003, 8.375555e+002
1.025491e+003, 8.150060e+002
1.025973e+003, 7.866582e+002
1.026455e+003, 7.839347e+002
1.026937e+003, 8.025751e+002
1.027419e+003, 8.161177e+002
1.027901e+003, 8.112534e+002
1.028384e+003, 8.020430e+002
1.028866e+003, 7.934947e+002
1.029348e+003, 7.884351e+002
1.029830e+003, 7.920178e+002
1.030312e+003, 8.098870e+002
1.030794e+003, 8.194576e+002
1.031276e+003, 8.189727e+002
1.031758e+003, 8.148818e+002
1.032241e+003, 8.099841e+002
1.032723e+003, 8.071077e+002
1.033205e+003, 8.160640e+002
1.033687e+003, 8.354481e+002
1.034169e+003, 8.441107e+002
1.034651e+003, 8.173463e+002
1.035133e+003, 7.972416e+002
1.035615e+003, 8.015117e+002
1.036098e+003, 8.209464e+002
1.036580e+003, 8.251791e+002
1.037062e+003, 8.155558e+002
1.037544e+003, 8.119738e+002
1.038026e+003, 8.236597e+002
1.038508e+003, 8.347776e+002
1.038990e+003, 8.283355e+002
1.039472e+003, 8.146081e+002
1.039954e+003, 8.057164e+002
1.040437e+003, 8.034028e+002
1.040919e+003, 8.067000e+002
1.041401e+003, 8.178683e+002
1.041883e+003, 8.284422e+002
1.042365e+003, 8.333940e+002
1.042847e+003, 8.328623e+002
1.043329e+003, 8.230497e+002
1.043811e+003, 8.066148e+002
1.044293e+003, 7.974524e+002
1.044776e+003, 8.086404e+002
1.045258e+003, 8.206190e+002
1.045740e+003, 8.273542e+002
1.046222e+003, 8.301982e+002
1.046704e+003, 8.315809e+002
1.047186e+003, 8.314817e+002
1.047668e+003, 8.297906e+002
1.048150e+003, 8.261874e+002
1.048633e+003, 8.224954e+002
1.049115e+003, 8.195665e+002
1.049597e+003, 8.180545e+002
1.050079e+003, 8.192838e+002
1.050561e+003, 8.244214e+002
1.051043e+003, 8.266548e+002
1.051525e+003, 8.247617e+002
1.052007e+003, 8.228185e+002
1.052490e+003, 8.235280e+002
1.052972e+003, 8.253251e+002
1.053454e+003, 8.231867e+002
1.053936e+003, 8.185939e+002
1.054418e+003, 8.163069e+002
1.054900e+003, 8.175180e+002
1.055382e+003, 8.226300e+002
1.055864e+003, 8.380696e+002
1.056346e+003, 8.529568e+002
1.056828e+003, 8.521515e+002
1.057311e+003, 8.352493e+002
1.057793e+003, 8.242894e+002
1.058275e+003, 8.211802e+002
1.058757e+003, 8.234545e+002
1.059239e+003, 8.363293e+002
1.059721e+003, 8.480376e+002
1.060203e+003, 8.461644e+002
1.060685e+003, 8.305020e+002
1.061168e+003, 8.186778e+002
1.061650e+003, 8.117113e+002
1.062132e+003, 8.081165e+002
1.062614e+003, 8.083865e+002
1.063096e+003, 8.103726e+002
1.063578e+003, 8.103371e+002
1.064060e+003, 8.089136e+002
1.064542e+003, 8.074182e+002
1.065025e+003, 8.059883e+002
1.065507e+003, 8.050948e+002
1.065989e+003, 8.057628e+002
1.066471e+003, 8.061854e+002
1.066953e+003, 8.039944e+002
1.067435e+003, 7.993087e+002
1.067917e+003, 8.024529e+002
1.068399e+003, 8.130033e+002
1.068881e+003, 8.216776e+002
1.069364e+003, 8.181257e+002
1.069846e+003, 8.147274e+002
1.070328e+003, 8.233942e+002
1.070810e+003, 8.392063e+002
1.071292e+003, 8.468271e+002
1.071774e+003, 8.437333e+002
1.072256e+003, 8.392302e+002
1.072738e+003, 8.338562e+002
1.073220e+003, 8.301432e+002
1.073703e+003, 8.346998e+002
1.074185e+003, 8.416469e+002
1.074667e+003, 8.395856e+002
1.075149e+003, 8.257851e+002
1.075631e+003, 8.185557e+002
1.076113e+003, 8.297649e+002
1.076595e+003, 8.390773e+002
1.077077e+003, 8.384011e+002
1.077559e+003, 8.302666e+002
1.078042e+003, 8.208494e+002
1.078524e+003, 8.115311e+002
1.079006e+003, 8.090743e+002
1.079488e+003, 8.201456e+002
1.079970e+003, 8.319797e+002
1.080452e+003, 8.388336e+002
1.080934e+003, 8.418284e+002
1.081416e+003, 8.427097e+002
1.081899e+003, 8.413255e+002
1.082381e+003, 8.384426e+002
1.082863e+003, 8.339489e+002
1.083345e+003, 8.290261e+002
1.083827e+003, 8.227710e+002
1.084309e+003, 8.179138e+002
1.084791e+003, 8.178913e+002
1.085273e+003, 8.219537e+002
1.085755e+003, 8.265292e+002
1.086238e+003, 8.329047e+002
1.086720e+003, 8.355787e+002
1.087202e+003, 8.322170e+002
1.087684e+003, 8.276646e+002
1.088166e+003, 8.321597e+002
1.088648e+003, 8.406281e+002
1.089130e+003, 8.388804e+002
1.089612e+003, 8.229894e+002
1.090094e+003, 8.119341e+002
1.090577e+003, 8.168509e+002
1.091059e+003, 8.259022e+002
1.091541e+003, 8.349498e+002
1.092023e+003, 8.431613e+002
1.092505e+003, 8.447455e+002
1.092987e+003, 8.404770e+002
1.093469e+003, 8.380520e+002
1.093951e+003, 8.425765e+002
1.094434e+003, 8.466832e+002
1.094916e+003, 8.435338e+002
1.095398e+003, 8.375829e+002
1.095880e+003, 8.349869e+002
1.096362e+003, 8.379430e+002
1.096844e+003, 8.357468e+002
1.097326e+003, 8.271142e+002
1.097808e+003, 8.214751e+002
1.098291e+003, 8.307838e+002
1.098773e+003, 8.444062e+002
1.099255e+003, 8.486111e+002
1.099737e+003, 8.445007e+002
1.100219e+003, 8.373750e+002
1.100701e+003, 8.211333e+002
1.101183e+003, 8.144362e+002
1.101665e+003, 8.215947e+002
1.102147e+003, 8.361645e+002
1.102630e+003, 8.532398e+002
1.103112e+003, 8.692236e+002
1.103594e+003, 8.735620e+002
1.104076e+003, 8.640967e+002
1.104558e+003, 8.528914e+002
1.105040e+003, 8.406502e+002
1.105522e+003, 8.336821e+002
1.106004e+003, 8.368231e+002
1.106486e+003, 8.468517e+002
1.106969e+003, 8.484331e+002
1.107451e+003, 8.427306e+002
1.107933e+003, 8.406197e+002
1.108415e+003, 8.481188e+002
1.108897e+003, 8.554039e+002
1.109379e+003, 8.545469e+002
1.109861e+003, 8.500413e+002
1.110343e+003, 8.461163e+002
1.110826e+003, 8.422046e+002
1.111308e+003, 8.439518e+002
1.111790e+003, 8.519498e+002
1.112272e+003, 8.607077e+002
1.112754e+003, 8.684012e+002
1.113236e+003, 8.736060e+002
1.113718e+003, 8.747407e+002
1.114200e+003, 8.720456e+002
1.114682e+003, 8.656920e+002
1.115165e+003, 8.497233e+002
1.115647e+003, 8.426291e+002
1.116129e+003, 8.481194e+002
1.116611e+003, 8.575491e+002
1.117093e+003, 8.609395e+002
1.117575e+003, 8.611113e+002
1.118057e+003, 8.664341e+002
1.118539e+003, 8.767666e+002
1.119021e+003, 8.783378e+002
1.119504e+003, 8.521246e+002
1.119986e+003, 8.339381e+002
1.120468e+003, 8.370905e+002
1.120950e+003, 8.518541e+002
1.121432e+003, 8.554400e+002
1.121914e+003, 8.497869e+002
1.122396e+003, 8.426542e+002
1.122878e+003, 8.346972e+002
1.123361e+003, 8.309339e+002
1.123843e+003, 8.365121e+002
1.124325e+003, 8.457250e+002
1.124807e+003, 8.557061e+002
1.125289e+003, 8.660133e+002
1.125771e+003, 8.695809e+002
1.126253e+003, 8.665561e+002
1.126735e+003, 8.643047e+002
1.127218e+003, 8.667295e+002
1.127700e+003, 8.706094e+002
1.128182e+003, 8.774496e+002
1.128664e+003, 8.821616e+002
1.129146e+003, 8.750039e+002
1.129628e+003, 8.462372e+002
1.130110e+003, 8.398427e+002
1.130592e+003, 8.596313e+002
1.131074e+003, 8.804984e+002
1.131557e+003, 8.796531e+002
1.132039e+003, 8.705374e+002
1.132521e+003, 8.717517e+002
1.133003e+003, 8.802650e+002
1.133485e+003, 8.831400e+002
1.133967e+003, 8.730397e+002
1.134449e+003, 8.669681e+002
1.134931e+003, 8.676032e+002
1.135413e+003, 8.712500e+002
1.135896e+003, 8.745879e+002
1.136378e+003, 8.770245e+002
1.136860e+003, 8.774144e+002
1.137342e+003, 8.756422e+002
1.137824e+003, 8.721138e+002
1.138306e+003, 8.652377e+002
1.138788e+003, 8.583176e+002
1.139270e+003, 8.504909e+002
1.139752e+003, 8.447938e+002
1.140235e+003, 8.514178e+002
1.140717e+003, 8.665591e+002
1.141199e+003, 8.773346e+002
1.141681e+003, 8.802678e+002
1.142163e+003, 8.791695e+002
1.142645e+003, 8.718810e+002
1.143127e+003, 8.648782e+002
1.143609e+003, 8.624424e+002
1.144092e+003, 8.639800e+002
1.144574e+003, 8.640427e+002
1.145056e+003, 8.630715e+002
1.145538e+003, 8.655691e+002
1.146020e+003, 8.778368e+002
1.146502e+003, 8.876677e+002
1.146984e+003, 8.842789e+002
1.147466e+003, 8.754289e+002
1.147948e+003, 8.705176e+002
1.148431e+003, 8.705563e+002
1.148913e+003, 8.684984e+002
1.149395e+003, 8.640594e+002
1.149877e+003, 8.625995e+002
1.150359e+003, 8.728779e+002
1.150841e+003, 8.832350e+002
1.151323e+003, 8.807825e+002
1.151805e+003, 8.707338e+002
1.152287e+003, 8.677329e+002
1.152770e+003, 8.738875e+002
1.153252e+003, 8.831006e+002
1.153734e+003, 8.963815e+002
1.154216e+003, 9.052546e+002
1.154698e+003, 8.943705e+002
1.155180e+003, 8.784726e+002
1.155662e+003, 8.766447e+002
1.156144e+003, 8.886898e+002
1.156627e+003, 8.987352e+002
1.157109e+003, 9.061659e+002
1.157591e+003, 9.086654e+002
1.158073e+003, 9.043555e+002
1.158555e+003, 8.981723e+002
1.159037e+003, 8.964591e+002
1.159519e+003, 8.982546e+002
1.160001e+003, 9.027582e+002
1.160484e+003, 9.102815e+002
1.160966e+003, 9.159526e+002
1.161448e+003, 9.194324e+002
1.161930e+003, 9.199175e+002
1.162412e+003, 9.162996e+002
1.162894e+003, 9.103309e+002
1.163376e+003, 9.050932e+002
1.163858e+003, 9.010242e+002
1.164340e+003, 8.995684e+002
1.164823e+003, 9.021304e+002
1.165305e+003, 9.046893e+002
1.165787e+003, 9.084845e+002
1.166269e+003, 9.089114e+002
1.166751e+003, 8.996830e+002
1.167233e+003, 8.851616e+002
1.167715e+003, 8.899709e+002
1.168197e+003, 9.095546e+002
1.168679e+003, 9.234575e+002
1.169162e+003, 9.172416e+002
1.169644e+003, 9.104200e+002
1.170126e+003, 9.098818e+002
1.170608e+003, 9.113889e+002
1.171090e+003, 9.102106e+002
1.171572e+003, 9.068999e+002
1.172054e+003, 9.130071e+002
1.172536e+003, 9.276641e+002
1.173019e+003, 9.379169e+002
1.173501e+003, 9.326630e+002
1.173983e+003, 9.247101e+002
1.174465e+003, 9.176268e+002
1.174947e+003, 9.133683e+002
1.175429e+003, 9.176663e+002
1.175911e+003, 9.304576e+002
1.176393e+003, 9.302657e+002
1.176875e+003, 9.146725e+002
1.177358e+003, 9.020327e+002
1.177840e+003, 9.081046e+002
1.178322e+003, 9.203107e+002
1.178804e+003, 9.345587e+002
1.179286e+003, 9.475159e+002
1.179768e+003, 9.470530e+002
1.180250e+003, 9.323157e+002
1.180732e+003, 9.242601e+002
1.181214e+003, 9.276400e+002
1.181697e+003, 9.345145e+002
1.182179e+003, 9.402125e+002
1.182661e+003, 9.443642e+002
1.183143e+003, 9.465120e+002
1.183625e+003, 9.467046e+002
1.184107e+003, 9.443618e+002
1.184589e+003, 9.388059e+002
1.185071e+003, 9.379114e+002
1.185554e+003, 9.453760e+002
1.186036e+003, 9.547542e+002
1.186518e+003, 9.642159e+002
1.187000e+003, 9.687083e+002
1.187482e+003, 9.570643e+002
1.187964e+003, 9.250319e+002
1.188446e+003, 9.226075e+002
1.188928e+003, 9.559209e+002
1.189411e+003, 9.776489e+002
1.189893e+003, 9.566049e+002
1.190375e+003, 9.266077e+002
1.190857e+003, 9.331455e+002
1.191339e+003, 9.563008e+002
1.191821e+003, 9.652652e+002
1.192303e+003, 9.487847e+002
1.192785e+003, 9.422507e+002
1.193267e+003, 9.474045e+002
1.193750e+003, 9.539067e+002
1.194232e+003, 9.534327e+002
1.194714e+003, 9.516227e+002
1.195196e+003, 9.563380e+002
1.195678e+003, 9.653431e+002
1.196160e+003, 9.741165e+002
1.196642e+003, 9.851675e+002
1.197124e+003, 9.874323e+002
1.197606e+003, 9.785001e+002
1.198089e+003, 9.692388e+002
1.198571e+003, 9.718828e+002
1.199053e+003, 9.780087e+002
1.199535e+003, 9.750754e+002
1.200017e+003, 9.652376e+002
1.200499e+003, 9.571838e+002
1.200981e+003, 9.507537e+002
1.201463e+003, 9.500179e+002
1.201945e+003, 9.561650e+002
1.202428e+003, 9.654274e+002
1.202910e+003, 9.776322e+002
1.203392e+003, 9.881540e+002
1.203874e+003, 9.883585e+002
1.204356e+003, 9.792845e+002
1.204838e+003, 9.731128e+002
1.205320e+003, 9.731298e+002
1.205802e+003, 9.725624e+002
1.206285e+003, 9.695253e+002
1.206767e+003, 9.675250e+002
1.207249e+003, 9.738475e+002
1.207731e+003, 9.829658e+002
1.208213e+003, 9.861481e+002
1.208695e+003, 9.824167e+002
1.209177e+003, 9.776116e+002
1.209659e+003, 9.700189e+002
1.210141e+003, 9.677000e+002
1.210624e+003, 9.737195e+002
1.211106e+003, 9.839713e+002
1.211588e+003, 9.963336e+002
1.212070e+003, 1.006899e+003
1.212552e+003, 1.007541e+003
1.213034e+003, 9.952236e+002
1.213516e+003, 9.890863e+002
1.213998e+003, 9.950512e+002
1.214480e+003, 9.970289e+002
1.214963e+003, 9.872589e+002
1.215445e+003, 9.735793e+002
1.215927e+003, 9.688752e+002
1.216409e+003, 9.705614e+002
1.216891e+003, 9.747859e+002
1.217373e+003, 9.818874e+002
1.217855e+003, 9.868655e+002
1.218337e+003, 9.892148e+002
1.218820e+003, 9.904328e+002
1.219302e+003, 9.931346e+002
1.219784e+003, 9.929774e+002
1.220266e+003, 9.738725e+002
1.220748e+003, 9.477979e+002
1.221230e+003, 9.392366e+002
1.221712e+003, 9.669142e+002
1.222194e+003, 9.808251e+002
1.222677e+003, 9.746509e+002
1.223159e+003, 9.656603e+002
1.223641e+003, 9.631931e+002
1.224123e+003, 9.655567e+002
1.224605e+003, 9.715117e+002
1.225087e+003, 9.794758e+002
1.225569e+003, 9.859897e+002
1.226051e+003, 9.898229e+002
1.226533e+003, 9.923503e+002
1.227016e+003, 9.935089e+002
1.227498e+003, 9.936249e+002
1.227980e+003, 9.913339e+002
1.228462e+003, 9.891479e+002
1.228944e+003, 9.936057e+002
1.229426e+003, 1.001512e+003
1.229908e+003, 1.004342e+003
1.230390e+003, 9.977413e+002
1.230872e+003, 9.897396e+002
1.231355e+003, 9.800642e+002
1.231837e+003, 9.711484e+002
1.232319e+003, 9.627252e+002
1.232801e+003, 9.580859e+002
1.233283e+003, 9.646763e+002
1.233765e+003, 9.795142e+002
1.234247e+003, 9.922126e+002
1.234729e+003, 1.002313e+003
1.235212e+003, 1.006205e+003
1.235694e+003, 1.002620e+003
1.236176e+003, 9.965034e+002
1.236658e+003, 9.928573e+002
1.237140e+003, 9.895261e+002
1.237622e+003, 9.808478e+002
1.238104e+003, 9.693972e+002
1.238586e+003, 9.684319e+002
1.239068e+003, 9.830407e+002
1.239551e+003, 9.939297e+002
1.240033e+003, 9.986212e+002
1.240515e+003, 9.995417e+002
1.240997e+003, 9.975329e+002
1.241479e+003, 9.944696e+002
1.241961e+003, 9.927406e+002
1.242443e+003, 9.921164e+002
1.242925e+003, 9.895015e+002
1.243407e+003, 9.833577e+002
1.243890e+003, 9.826581e+002
1.244372e+003, 9.901499e+002
1.244854e+003, 9.971550e+002
1.245336e+003, 9.935067e+002
1.245818e+003, 9.853374e+002
1.246300e+003, 9.771719e+002
1.246782e+003, 9.698401e+002
1.247264e+003, 9.662440e+002
1.247747e+003, 9.666688e+002
1.248229e+003, 9.686296e+002
1.248711e+003, 9.716171e+002
1.249193e+003, 9.758976e+002
1.249675e+003, 9.856668e+002
1.250157e+003, 9.938848e+002
1.250639e+003, 9.916353e+002
1.251121e+003, 9.810276e+002
1.251604e+003, 9.779363e+002
1.252086e+003, 9.830120e+002
1.252568e+003, 9.825871e+002
1.253050e+003, 9.719551e+002
1.253532e+003, 9.614552e+002
1.254014e+003, 9.564547e+002
1.254496e+003, 9.586404e+002
1.254978e+003, 9.762470e+002
1.255460e+003, 1.003379e+003
1.255943e+003, 1.001357e+003
1.256425e+003, 9.718380e+002
1.256907e+003, 9.540472e+002
1.257389e+003, 9.614752e+002
1.257871e+003, 9.721257e+002
1.258353e+003, 9.682594e+002
1.258835e+003, 9.638193e+002
1.259317e+003, 9.708565e+002
1.259799e+003, 9.858591e+002
1.260281e+003, 9.875876e+002
1.260764e+003, 9.780572e+002
1.261246e+003, 9.701856e+002
1.261728e+003, 9.685204e+002
1.262210e+003, 9.675381e+002
1.262692e+003, 9.618635e+002
1.263174e+003, 9.588238e+002
1.263656e+003, 9.640611e+002
1.264138e+003, 9.748928e+002
1.264621e+003, 9.810215e+002
1.265103e+003, 9.823896e+002
1.265585e+003, 9.773876e+002
1.266067e+003, 9.610533e+002
1.266549e+003, 9.510236e+002
1.267031e+003, 9.575420e+002
1.267513e+003, 9.673397e+002
1.267995e+003, 9.749180e+002
1.268478e+003, 9.801226e+002
1.268960e+003, 9.806391e+002
1.269442e+003, 9.786547e+002
1.269924e+003, 9.811632e+002
1.270406e+003, 9.954374e+002
1.270888e+003, 1.000183e+003
1.271370e+003, 9.871704e+002
1.271852e+003, 9.757107e+002
1.272334e+003, 9.795640e+002
1.272817e+003, 9.902632e+002
1.273299e+003, 9.870468e+002
1.273781e+003, 9.761585e+002
1.274263e+003, 9.709290e+002
1.274745e+003, 9.771845e+002
1.275227e+003, 9.861958e+002
1.275709e+003, 1.000452e+003
1.276191e+003, 1.008356e+003
1.276673e+003, 9.982539e+002
1.277156e+003, 9.827751e+002
1.277638e+003, 9.840786e+002
1.278120e+003, 9.932878e+002
1.278602e+003, 9.937834e+002
1.279084e+003, 9.795543e+002
1.279566e+003, 9.648738e+002
1.280048e+003, 9.479623e+002
1.280530e+003, 9.416033e+002
1.281013e+003, 9.599946e+002
1.281495e+003, 9.856324e+002
1.281977e+003, 1.007766e+003
1.282459e+003, 1.021631e+003
1.282941e+003, 1.016963e+003
1.283423e+003, 9.885093e+002
1.283905e+003, 9.742302e+002
1.284387e+003, 9.742003e+002
1.284870e+003, 9.773483e+002
1.285352e+003, 9.775472e+002
1.285834e+003, 9.778800e+002
1.286316e+003, 9.824251e+002
1.286798e+003, 9.868414e+002
1.287280e+003, 9.847785e+002
1.287762e+003, 9.758017e+002
1.288244e+003, 9.744811e+002
1.288726e+003, 9.803623e+002
1.289208e+003, 9.895242e+002
1.289691e+003, 1.010700e+003
1.290173e+003, 1.020997e+003
1.290655e+003, 9.986854e+002
1.291137e+003, 9.721442e+002
1.291619e+003, 9.666827e+002
1.292101e+003, 9.784517e+002
1.292583e+003, 9.844767e+002
1.293065e+003, 9.850371e+002
1.293548e+003, 9.810186e+002
1.294030e+003, 9.634457e+002
1.294512e+003, 9.557101e+002
1.294994e+003, 9.651192e+002
1.295476e+003, 9.772123e+002
1.295958e+003, 9.786808e+002
1.296440e+003, 9.736935e+002
1.296922e+003, 9.724579e+002
1.297405e+003, 9.760643e+002
1.297887e+003, 9.817264e+002
1.298369e+003, 9.900038e+002
1.298851e+003, 9.898389e+002
1.299333e+003, 9.774134e+002
1.299815e+003, 9.678790e+002
1.300297e+003, 9.700812e+002
1.300779e+003, 9.840220e+002
##END=



