##NAMES=Magnesio-riebeckite
##RRUFFID=R070002
##IDEAL CHEMISTRY=[box]Na_2_(Mg_3_Fe^3+^_2_)Si_8_O_22_(OH)_2_
##LOCALITY=Alto Chapare, Cochabamba Department, Bolivia
##OWNER=RRUFF
##SOURCE=Michael Scott
##DESCRIPTION=Light bluish gray fibrous cloth-like fabric
##STATUS=The identification of this mineral has been confirmed by X-ray diffraction and chemical analysis
##URL=rruff.info/R070002
##MEASURED CHEMISTRY=(Na_1.92_Ca_0.08_K_0.04_)_Σ=2_(Mg_2.62_Fe^2+^_0.50_)_Σ=3.12_(Fe^3+^_1.84_Al_0.04_)_Σ=1.88_Si_8.00_O_22_(OH)_2_; OH estimated by stoichiometry; Fe^3+^ and Fe^2+^ splitted by charge balance
140.5386, 375.5823
141.0207, 373.5785
141.5028, 382.0129
141.9849, 397.7831
142.4670, 409.5831
142.9492, 413.3516
143.4313, 418.7399
143.9134, 432.2539
144.3955, 459.8849
144.8776, 484.5798
145.3597, 502.4425
145.8419, 513.6102
146.3240, 532.5471
146.8061, 562.6124
147.2882, 598.0237
147.7703, 633.6544
148.2524, 676.8329
148.7346, 712.3619
149.2167, 738.2400
149.6988, 754.5483
150.1809, 760.7639
150.6630, 757.2645
151.1452, 743.7153
151.6273, 719.6601
152.1094, 668.1057
152.5915, 620.9150
153.0736, 587.4172
153.5557, 571.9332
154.0379, 562.5743
154.5200, 562.0532
155.0021, 566.7614
155.4842, 569.1472
155.9663, 564.6932
156.4484, 559.8281
156.9306, 557.3233
157.4127, 555.5785
157.8948, 559.1064
158.3769, 570.7572
158.8590, 589.0846
159.3411, 608.5878
159.8233, 627.8571
160.3054, 647.6883
160.7875, 668.7087
161.2696, 691.0134
161.7517, 714.6021
162.2338, 739.4108
162.7160, 765.4964
163.1981, 793.5513
163.6802, 822.5135
164.1623, 854.0607
164.6444, 889.9800
165.1265, 936.1978
165.6087, 983.3278
166.0908, 1025.154
166.5729, 1061.460
167.0550, 1095.575
167.5371, 1134.732
168.0192, 1172.541
168.5014, 1198.760
168.9835, 1214.661
169.4656, 1213.416
169.9477, 1184.887
170.4298, 1124.251
170.9119, 1054.252
171.3941, 988.3963
171.8762, 926.9148
172.3583, 868.6675
172.8404, 810.4606
173.3225, 755.9191
173.8046, 710.1395
174.2868, 674.2618
174.7689, 646.7101
175.2510, 629.0073
175.7331, 619.6621
176.2152, 612.1021
176.6973, 601.3515
177.1795, 589.3099
177.6616, 579.6547
178.1437, 573.4240
178.6258, 569.6589
179.1079, 567.3649
179.5900, 566.5145
180.0722, 567.0193
180.5543, 570.5037
181.0364, 575.5488
181.5185, 577.8879
182.0006, 575.1790
182.4827, 569.6657
182.9649, 567.0537
183.4470, 567.6378
183.9291, 565.1771
184.4112, 549.3939
184.8933, 523.3010
185.3754, 502.6157
185.8576, 495.5280
186.3397, 498.0214
186.8218, 496.7331
187.3039, 491.0391
187.7860, 484.8415
188.2681, 482.8544
188.7503, 484.8718
189.2324, 488.1159
189.7145, 490.8961
190.1966, 493.6376
190.6787, 499.1541
191.1608, 507.8273
191.6430, 518.3122
192.1251, 529.6835
192.6072, 541.9652
193.0893, 552.4854
193.5714, 557.9839
194.0535, 558.9982
194.5357, 564.7144
195.0178, 576.2192
195.4999, 591.5301
195.9820, 607.6254
196.4641, 624.5992
196.9462, 641.0852
197.4284, 655.2316
197.9105, 666.8763
198.3926, 681.6332
198.8747, 700.1859
199.3568, 722.0676
199.8389, 746.8948
200.3211, 775.4713
200.8032, 803.6747
201.2853, 828.6127
201.7674, 850.0649
202.2495, 869.9822
202.7316, 887.6490
203.2138, 904.0346
203.6959, 923.5605
204.1780, 947.3450
204.6601, 971.1910
205.1422, 992.6456
205.6243, 1012.371
206.1065, 1026.197
206.5886, 1032.645
207.0707, 1032.230
207.5528, 1029.624
208.0349, 1024.631
208.5170, 1017.822
208.9992, 1009.831
209.4813, 1000.829
209.9634, 989.7271
210.4455, 974.9498
210.9276, 956.7498
211.4097, 943.4595
211.8919, 937.3299
212.3740, 932.8866
212.8561, 922.5209
213.3382, 902.4180
213.8203, 887.2404
214.3024, 883.3636
214.7846, 892.4999
215.2667, 891.7068
215.7488, 876.8130
216.2309, 856.5030
216.7130, 842.5890
217.1951, 837.6130
217.6773, 833.2701
218.1594, 827.0077
218.6415, 818.3597
219.1236, 809.6735
219.6057, 799.3781
220.0878, 790.1295
220.5700, 787.5997
221.0521, 796.8405
221.5342, 802.8463
222.0163, 798.4120
222.4984, 777.9184
222.9805, 768.2888
223.4627, 774.4123
223.9448, 788.7727
224.4269, 796.4396
224.9090, 794.4835
225.3911, 790.9825
225.8732, 788.7043
226.3554, 787.3895
226.8375, 788.4958
227.3196, 794.3257
227.8017, 801.7043
228.2838, 802.7302
228.7659, 794.2313
229.2481, 784.2787
229.7302, 776.8301
230.2123, 774.7938
230.6944, 768.5048
231.1765, 757.0392
231.6587, 741.5605
232.1408, 724.9205
232.6229, 706.3848
233.1050, 687.8937
233.5871, 670.8339
234.0692, 657.2053
234.5514, 640.0687
235.0335, 616.9272
235.5156, 590.2902
235.9977, 568.2094
236.4798, 551.0239
236.9619, 537.6266
237.4441, 527.5265
237.9262, 521.2630
238.4083, 517.5168
238.8904, 518.5142
239.3725, 522.2829
239.8546, 519.0063
240.3368, 503.5697
240.8189, 487.6555
241.3010, 478.3739
241.7831, 478.9843
242.2652, 479.5226
242.7473, 478.8760
243.2295, 477.4621
243.7116, 477.5725
244.1937, 478.7669
244.6758, 482.0315
245.1579, 488.2846
245.6400, 499.0835
246.1222, 509.8028
246.6043, 521.0586
247.0864, 532.2775
247.5685, 538.9458
248.0506, 539.1860
248.5327, 537.3506
249.0149, 536.2381
249.4970, 536.0957
249.9791, 536.1453
250.4612, 536.2904
250.9433, 536.5515
251.4254, 536.8418
251.9076, 536.1047
252.3897, 536.7944
252.8718, 541.7721
253.3539, 555.3591
253.8360, 562.7982
254.3181, 560.1357
254.8003, 548.7710
255.2824, 541.8131
255.7645, 541.7521
256.2466, 542.5623
256.7287, 539.3729
257.2108, 530.1101
257.6930, 521.8992
258.1751, 515.2947
258.6572, 510.3976
259.1393, 508.8534
259.6214, 512.0291
260.1035, 516.4931
260.5857, 519.1060
261.0678, 518.2698
261.5499, 520.3929
262.0320, 527.7449
262.5141, 539.4396
262.9962, 546.8218
263.4784, 548.0610
263.9605, 548.1785
264.4426, 551.2892
264.9247, 558.3251
265.4068, 565.5629
265.8889, 573.4191
266.3711, 581.2717
266.8532, 584.6533
267.3353, 582.4557
267.8174, 577.8569
268.2995, 573.0333
268.7816, 567.9263
269.2638, 562.9877
269.7459, 558.2448
270.2280, 553.7656
270.7101, 549.9126
271.1922, 546.8948
271.6743, 544.0602
272.1565, 540.9551
272.6386, 537.5158
273.1207, 533.9197
273.6028, 530.1880
274.0849, 526.3379
274.5670, 522.1976
275.0492, 517.5994
275.5313, 513.2665
276.0134, 509.6444
276.4955, 506.6645
276.9776, 505.0945
277.4597, 505.5688
277.9419, 507.4157
278.4240, 507.9588
278.9061, 506.9958
279.3882, 505.5775
279.8703, 503.2205
280.3524, 499.7718
280.8346, 501.7501
281.3167, 512.5936
281.7988, 528.1415
282.2809, 534.4465
282.7630, 530.3309
283.2451, 525.0939
283.7273, 526.4753
284.2094, 534.0990
284.6915, 541.1226
285.1736, 546.6525
285.6557, 550.6901
286.1378, 552.3986
286.6200, 551.5848
287.1021, 551.4221
287.5842, 553.4485
288.0663, 557.8419
288.5484, 566.9427
289.0305, 583.2498
289.5127, 601.6881
289.9948, 610.7737
290.4769, 610.6496
290.9590, 610.9747
291.4411, 620.0914
291.9232, 635.8393
292.4054, 649.4329
292.8875, 659.4904
293.3696, 667.2321
293.8517, 673.7408
294.3338, 679.2086
294.8159, 685.2565
295.2981, 693.6511
295.7802, 703.4741
296.2623, 712.3519
296.7444, 720.2232
297.2265, 726.3596
297.7086, 731.0317
298.1908, 733.6180
298.6729, 731.1569
299.1550, 718.6634
299.6371, 700.3718
300.1192, 683.3239
300.6013, 667.8732
301.0835, 655.6371
301.5656, 652.3500
302.0477, 654.9512
302.5298, 653.4150
303.0119, 638.0069
303.4940, 616.6232
303.9762, 599.8105
304.4583, 589.3668
304.9404, 581.0718
305.4225, 570.2532
305.9046, 558.7610
306.3867, 550.7346
306.8689, 550.5510
307.3510, 553.7814
307.8331, 556.5585
308.3152, 558.6351
308.7973, 559.6687
309.2794, 557.8781
309.7616, 554.9983
310.2437, 554.0123
310.7258, 558.2103
311.2079, 563.4760
311.6900, 567.7913
312.1721, 571.1459
312.6543, 571.3325
313.1364, 563.6752
313.6185, 552.9217
314.1006, 545.5493
314.5827, 546.1700
315.0648, 549.0194
315.5470, 553.0352
316.0291, 558.3186
316.5112, 558.7371
316.9933, 544.8469
317.4754, 527.4699
317.9576, 517.7775
318.4397, 524.5566
318.9218, 534.2781
319.4039, 544.3893
319.8860, 554.7052
320.3681, 560.3408
320.8503, 556.0184
321.3324, 548.6953
321.8145, 543.8563
322.2966, 541.0508
322.7787, 542.3295
323.2608, 551.5512
323.7430, 567.6021
324.2251, 577.5841
324.7072, 575.1401
325.1893, 569.3530
325.6714, 565.7116
326.1535, 564.4131
326.6357, 565.4584
327.1178, 570.2820
327.5999, 578.0834
328.0820, 584.1083
328.5641, 584.9216
329.0462, 586.9397
329.5284, 593.2978
330.0105, 607.0955
330.4926, 620.5952
330.9747, 635.0284
331.4568, 649.1055
331.9389, 658.4961
332.4211, 659.2936
332.9032, 660.6684
333.3853, 666.8632
333.8674, 680.2393
334.3495, 692.2236
334.8316, 703.0730
335.3138, 712.4955
335.7959, 719.6897
336.2780, 724.2953
336.7601, 727.5553
337.2422, 729.9445
337.7243, 731.5633
338.2065, 731.0255
338.6886, 726.9580
339.1707, 722.8521
339.6528, 725.1066
340.1349, 735.2688
340.6170, 742.8456
341.0992, 742.3580
341.5813, 735.0663
342.0634, 736.2465
342.5455, 747.6418
343.0276, 761.2535
343.5097, 767.9745
343.9919, 768.0116
344.4740, 766.4153
344.9561, 764.1066
345.4382, 761.4047
345.9203, 761.2014
346.4024, 763.9003
346.8846, 762.4114
347.3667, 746.3710
347.8488, 719.6396
348.3309, 698.2618
348.8130, 688.3412
349.2951, 683.3190
349.7773, 673.4810
350.2594, 659.1337
350.7415, 643.0323
351.2236, 624.4153
351.7057, 605.6418
352.1878, 590.7482
352.6700, 579.7538
353.1521, 574.1403
353.6342, 579.3604
354.1163, 592.3005
354.5984, 602.9849
355.0806, 603.8292
355.5627, 600.5545
356.0448, 598.1316
356.5269, 596.6472
357.0090, 598.3986
357.4911, 605.2108
357.9733, 616.3027
358.4554, 630.2772
358.9375, 648.7089
359.4196, 668.2159
359.9017, 687.0380
360.3839, 704.8516
360.8660, 722.0296
361.3481, 736.1750
361.8302, 750.6189
362.3123, 769.0983
362.7944, 800.2703
363.2766, 828.3785
363.7587, 844.3504
364.2408, 847.9267
364.7229, 860.1594
365.2050, 893.5931
365.6871, 932.2774
366.1693, 965.0384
366.6514, 986.0270
367.1335, 1006.306
367.6156, 1025.875
368.0977, 1045.267
368.5798, 1067.487
369.0620, 1096.294
369.5441, 1124.394
370.0262, 1148.798
370.5083, 1173.473
370.9904, 1187.438
371.4725, 1188.461
371.9547, 1179.323
372.4368, 1167.140
372.9189, 1152.849
373.4010, 1133.916
373.8831, 1108.585
374.3652, 1076.063
374.8474, 1043.247
375.3295, 1011.550
375.8116, 977.6666
376.2937, 933.0172
376.7758, 875.4710
377.2579, 823.5160
377.7401, 784.5628
378.2222, 757.2448
378.7043, 732.1458
379.1864, 709.7660
379.6685, 688.3563
380.1506, 665.1176
380.6328, 640.5775
381.1149, 620.8078
381.5970, 608.3766
382.0791, 600.5203
382.5612, 590.1034
383.0433, 577.2643
383.5255, 567.3923
384.0076, 567.9918
384.4897, 574.3232
384.9718, 574.7996
385.4539, 565.7285
385.9360, 554.0277
386.4182, 548.1152
386.9003, 546.3410
387.3824, 543.0409
387.8645, 533.9575
388.3466, 522.2305
388.8287, 509.7881
389.3109, 496.1355
389.7930, 486.3480
390.2751, 487.3650
390.7572, 494.0086
391.2393, 498.2720
391.7214, 496.6072
392.2036, 492.0672
392.6857, 485.0447
393.1678, 475.5843
393.6499, 467.7682
394.1320, 462.6769
394.6141, 460.0413
395.0963, 459.7058
395.5784, 464.0877
396.0605, 468.1336
396.5426, 472.0534
397.0247, 475.2845
397.5068, 474.5649
397.9890, 464.9910
398.4711, 454.9102
398.9532, 448.1739
399.4353, 445.7059
399.9174, 445.2721
400.3995, 449.1991
400.8817, 454.5105
401.3638, 454.6593
401.8459, 446.2635
402.3280, 438.2788
402.8101, 433.3085
403.2922, 431.3752
403.7744, 432.7516
404.2565, 438.7793
404.7386, 446.1609
405.2207, 451.2523
405.7028, 453.8021
406.1849, 455.5898
406.6671, 457.0299
407.1492, 458.0560
407.6313, 458.0562
408.1134, 456.8734
408.5955, 455.8284
409.0776, 457.1246
409.5598, 459.9615
410.0419, 459.4271
410.5240, 453.9293
411.0061, 446.2442
411.4882, 441.1861
411.9703, 438.2222
412.4525, 434.3412
412.9346, 424.5470
413.4167, 413.8189
413.8988, 412.0798
414.3809, 421.5480
414.8630, 429.6587
415.3452, 423.5174
415.8273, 408.7497
416.3094, 395.1705
416.7915, 386.6541
417.2736, 380.8380
417.7557, 376.2443
418.2379, 372.8683
418.7200, 371.6727
419.2021, 374.5498
419.6842, 379.0117
420.1663, 383.0762
420.6484, 387.5342
421.1306, 389.9926
421.6127, 387.3493
422.0948, 381.8469
422.5769, 380.3334
423.0590, 387.6707
423.5411, 396.0618
424.0233, 402.6452
424.5054, 407.3040
424.9875, 409.9392
425.4696, 407.8205
425.9517, 405.0521
426.4338, 407.6176
426.9160, 419.7224
427.3981, 429.4577
427.8802, 433.1298
428.3623, 431.0667
428.8444, 432.4939
429.3265, 438.7070
429.8087, 445.5649
430.2908, 450.3231
430.7729, 453.0406
431.2550, 451.9654
431.7371, 445.1961
432.2192, 436.4095
432.7014, 437.1090
433.1835, 447.1659
433.6656, 451.8357
434.1477, 435.6389
434.6298, 406.6712
435.1119, 393.0576
435.5941, 398.2194
436.0762, 407.2338
436.5583, 404.4211
437.0404, 393.0244
437.5225, 380.8919
438.0046, 368.4239
438.4868, 358.5300
438.9689, 356.9325
439.4510, 362.5069
439.9331, 364.9720
440.4152, 355.3025
440.8973, 341.0053
441.3795, 328.9971
441.8616, 321.2988
442.3437, 315.3489
442.8258, 310.8953
443.3079, 307.4557
443.7900, 304.0103
444.2722, 300.9004
444.7543, 297.2385
445.2364, 291.4565
445.7185, 281.5400
446.2006, 277.5200
446.6827, 285.5606
447.1649, 296.9475
447.6470, 303.2991
448.1291, 301.1001
448.6112, 299.5835
449.0933, 300.4592
449.5754, 303.2145
450.0576, 304.8406
450.5397, 305.4229
451.0218, 304.6915
451.5039, 302.3670
451.9860, 298.3044
452.4681, 293.0653
452.9503, 285.8212
453.4324, 278.8647
453.9145, 276.1558
454.3966, 277.6439
454.8787, 280.4511
455.3608, 285.7705
455.8430, 291.1844
456.3251, 286.9177
456.8072, 272.8683
457.2893, 261.4685
457.7714, 267.8173
458.2535, 284.1292
458.7357, 295.0788
459.2178, 295.0139
459.6999, 291.5302
460.1820, 289.0530
460.6641, 288.3319
461.1462, 291.4867
461.6284, 305.9799
462.1105, 320.2734
462.5926, 324.8045
463.0747, 316.4778
463.5568, 310.4936
464.0389, 313.5437
464.5211, 321.2339
465.0032, 328.8276
465.4853, 336.5429
465.9674, 342.9071
466.4495, 345.9884
466.9316, 346.4428
467.4138, 350.7269
467.8959, 361.0312
468.3780, 372.8275
468.8601, 384.4254
469.3422, 397.4209
469.8243, 405.7229
470.3065, 407.7780
470.7886, 406.6804
471.2707, 407.1007
471.7528, 408.9510
472.2349, 412.9644
472.7170, 420.2413
473.1992, 429.9463
473.6813, 438.4372
474.1634, 445.8581
474.6455, 450.5760
475.1276, 449.4284
475.6097, 444.1312
476.0919, 440.9037
476.5740, 441.6230
477.0561, 442.9908
477.5382, 441.0914
478.0203, 436.5413
478.5024, 431.2004
478.9846, 425.8650
479.4667, 420.2662
479.9488, 414.6164
480.4309, 408.9475
480.9130, 401.6895
481.3951, 388.8586
481.8773, 375.5768
482.3594, 366.7404
482.8415, 368.4817
483.3236, 369.4594
483.8057, 367.8149
484.2878, 363.5204
484.7700, 356.4342
485.2521, 341.0276
485.7342, 327.8915
486.2163, 320.7073
486.6984, 320.3302
487.1805, 322.9398
487.6627, 330.9737
488.1448, 339.4052
488.6269, 342.5274
489.1090, 339.3723
489.5911, 334.3533
490.0732, 327.2243
490.5554, 319.3547
491.0375, 315.2525
491.5196, 315.0557
492.0017, 317.1610
492.4838, 322.7675
492.9659, 330.1088
493.4481, 332.1076
493.9302, 327.5029
494.4123, 321.4269
494.8944, 320.0393
495.3765, 321.5018
495.8586, 321.4569
496.3408, 313.6233
496.8229, 307.3297
497.3050, 314.1573
497.7871, 331.1926
498.2692, 342.9711
498.7513, 334.1854
499.2335, 322.0997
499.7156, 319.5144
500.1977, 332.7508
500.6798, 344.6247
501.1619, 351.9837
501.6440, 355.4318
502.1262, 355.7948
502.6083, 345.2624
503.0904, 340.9026
503.5725, 347.8386
504.0546, 365.2029
504.5367, 378.6549
505.0189, 386.9272
505.5010, 393.4150
505.9831, 401.0106
506.4652, 410.5617
506.9473, 413.9859
507.4294, 408.3463
507.9116, 401.3780
508.3937, 407.0475
508.8758, 424.5469
509.3579, 439.7555
509.8400, 446.1983
510.3221, 447.4036
510.8043, 448.8529
511.2864, 450.8265
511.7685, 456.9402
512.2506, 473.9987
512.7327, 495.1533
513.2148, 511.5508
513.6970, 520.9669
514.1791, 527.4131
514.6612, 532.8719
515.1433, 537.0758
515.6254, 539.6984
516.1075, 537.4855
516.5897, 536.7040
517.0718, 539.6359
517.5539, 546.3057
518.0360, 554.6112
518.5181, 567.6109
519.0002, 579.6716
519.4824, 587.3890
519.9645, 587.6349
520.4466, 590.6733
520.9287, 597.6896
521.4108, 606.4841
521.8929, 612.8564
522.3751, 615.6326
522.8572, 621.6101
523.3393, 634.1657
523.8214, 651.2305
524.3035, 663.2134
524.7856, 670.0003
525.2678, 676.5117
525.7499, 686.5731
526.2320, 699.1374
526.7141, 710.3837
527.1962, 718.4338
527.6783, 730.5643
528.1605, 758.5642
528.6426, 794.9068
529.1247, 826.3826
529.6068, 842.8924
530.0889, 856.9578
530.5710, 875.4059
531.0532, 897.6823
531.5353, 921.7015
532.0174, 948.1525
532.4995, 974.9222
532.9816, 1000.934
533.4637, 1027.861
533.9459, 1050.343
534.4280, 1065.422
534.9101, 1077.903
535.3922, 1093.692
535.8743, 1114.458
536.3564, 1134.798
536.8386, 1155.033
537.3207, 1173.904
537.8028, 1186.617
538.2849, 1192.644
538.7670, 1195.169
539.2491, 1194.474
539.7313, 1191.476
540.2134, 1192.206
540.6955, 1197.733
541.1776, 1200.618
541.6597, 1194.324
542.1418, 1179.565
542.6240, 1157.114
543.1061, 1122.307
543.5882, 1086.514
544.0703, 1061.990
544.5524, 1044.351
545.0345, 1020.530
545.5167, 975.4691
545.9988, 930.6457
546.4809, 899.5623
546.9630, 886.5015
547.4451, 867.3162
547.9272, 833.7672
548.4094, 795.6774
548.8915, 760.2123
549.3736, 723.5276
549.8557, 697.3058
550.3378, 686.9160
550.8199, 684.8265
551.3021, 672.1988
551.7842, 645.9064
552.2663, 624.1110
552.7484, 616.2250
553.2305, 618.7606
553.7126, 613.7449
554.1948, 600.8203
554.6769, 586.3444
555.1590, 574.4262
555.6411, 564.9374
556.1232, 558.0942
556.6053, 554.3777
557.0875, 551.6868
557.5696, 548.3963
558.0517, 544.8140
558.5338, 541.5835
559.0159, 541.4921
559.4980, 539.3141
559.9802, 530.1609
560.4623, 515.3774
560.9444, 505.5608
561.4265, 507.5404
561.9086, 510.9290
562.3907, 510.8421
562.8729, 506.1138
563.3550, 501.3797
563.8371, 495.7659
564.3192, 491.1000
564.8013, 489.8479
565.2834, 492.7621
565.7656, 494.9079
566.2477, 494.9547
566.7298, 494.1829
567.2119, 496.5802
567.6940, 501.8647
568.1761, 505.2328
568.6583, 501.5346
569.1404, 495.0734
569.6225, 493.6256
570.1046, 497.3852
570.5867, 502.8651
571.0688, 508.4684
571.5510, 514.0336
572.0331, 519.3428
572.5152, 524.5945
572.9973, 529.2177
573.4794, 532.3295
573.9615, 534.8347
574.4437, 538.1188
574.9258, 546.0139
575.4079, 550.6094
575.8900, 548.2421
576.3721, 540.0117
576.8542, 537.8552
577.3364, 544.0433
577.8185, 551.8660
578.3006, 558.1824
578.7827, 563.0972
579.2648, 564.8290
579.7469, 562.9478
580.2291, 559.4589
580.7112, 554.4976
581.1933, 549.4213
581.6754, 550.4427
582.1575, 562.4493
582.6396, 575.9909
583.1218, 580.2606
583.6039, 577.1342
584.0860, 571.9266
584.5681, 565.1257
585.0502, 558.7414
585.5323, 555.0047
586.0145, 554.0262
586.4966, 550.6183
586.9787, 542.2819
587.4608, 531.8693
587.9429, 521.0258
588.4250, 509.2949
588.9072, 498.3428
589.3893, 489.2017
589.8714, 479.9961
590.3535, 467.6017
590.8356, 451.3427
591.3177, 434.9319
591.7999, 418.3931
592.2820, 402.9199
592.7641, 392.4175
593.2462, 386.7068
593.7283, 382.3716
594.2104, 378.1422
594.6926, 373.6664
595.1747, 368.3792
595.6568, 362.2530
596.1389, 355.5100
596.6210, 346.5230
597.1031, 337.9002
597.5853, 332.8817
598.0674, 335.1670
598.5495, 335.4289
599.0316, 327.8941
599.5137, 317.2817
599.9958, 311.7851
600.4780, 319.0720
600.9601, 321.7985
601.4423, 314.1104
601.9244, 298.8409
602.4065, 291.8733
602.8886, 295.2729
603.3707, 300.6065
603.8528, 304.5764
604.3350, 306.9513
604.8171, 304.0520
605.2992, 295.0576
605.7813, 286.7732
606.2634, 287.2024
606.7455, 292.8507
607.2277, 296.5313
607.7098, 296.3626
608.1919, 294.3940
608.6740, 290.5461
609.1561, 286.2189
609.6382, 284.0526
610.1204, 286.5203
610.6025, 289.6518
611.0846, 293.2491
611.5667, 296.9088
612.0488, 296.8825
612.5309, 288.3977
613.0131, 281.8110
613.4952, 282.8807
613.9773, 293.5550
614.4594, 296.0009
614.9415, 287.9780
615.4236, 277.5898
615.9058, 273.7228
616.3879, 275.5461
616.8700, 274.2856
617.3521, 267.1358
617.8342, 260.4314
618.3163, 264.3622
618.7985, 275.3526
619.2806, 284.5523
619.7627, 287.8914
620.2448, 288.4079
620.7269, 286.6833
621.2090, 283.4848
621.6912, 282.1529
622.1733, 287.1678
622.6554, 291.3951
623.1375, 290.3703
623.6196, 281.9314
624.1017, 278.9594
624.5839, 284.7581
625.0660, 292.1666
625.5481, 295.6943
626.0302, 294.6987
626.5123, 293.2802
626.9944, 291.1666
627.4766, 290.0481
627.9587, 293.8430
628.4408, 301.5757
628.9229, 307.3650
629.4050, 309.0893
629.8871, 308.0912
630.3693, 303.9236
630.8514, 297.9628
631.3335, 294.8011
631.8156, 300.4995
632.2977, 306.7568
632.7798, 306.6090
633.2620, 299.3181
633.7441, 297.3899
634.2262, 310.2715
634.7083, 323.7743
635.1904, 329.7368
635.6725, 325.7865
636.1547, 319.9752
636.6368, 310.4715
637.1189, 301.8619
637.6010, 300.2249
638.0831, 305.6703
638.5652, 313.0193
639.0474, 322.2683
639.5295, 331.1217
640.0116, 334.8149
640.4937, 334.4893
640.9758, 334.2327
641.4579, 335.3195
641.9401, 337.9012
642.4222, 343.9295
642.9043, 352.5274
643.3864, 357.4726
643.8685, 348.6629
644.3506, 341.8032
644.8328, 347.1786
645.3149, 371.1805
645.7970, 385.7354
646.2791, 385.3558
646.7612, 381.2818
647.2433, 383.0661
647.7255, 392.1189
648.2076, 398.8224
648.6897, 400.9280
649.1718, 403.4225
649.6539, 416.4827
650.1360, 437.7950
650.6182, 454.3618
651.1003, 460.1051
651.5824, 461.2083
652.0645, 462.6724
652.5466, 465.1365
653.0287, 470.5183
653.5109, 479.0443
653.9930, 491.4021
654.4751, 511.2593
654.9572, 538.6460
655.4393, 558.0155
655.9214, 559.6747
656.4036, 559.4586
656.8857, 564.4821
657.3678, 575.5286
657.8499, 588.2599
658.3320, 602.7028
658.8141, 618.6332
659.2963, 636.0911
659.7784, 655.0534
660.2605, 674.8625
660.7426, 696.2166
661.2247, 716.3726
661.7068, 730.6528
662.1890, 741.1732
662.6711, 752.5609
663.1532, 768.6072
663.6353, 784.2880
664.1174, 795.1166
664.5995, 803.1396
665.0817, 815.0602
665.5638, 843.2942
666.0459, 864.3998
666.5280, 867.8059
667.0101, 853.5399
667.4922, 848.6891
667.9744, 856.3029
668.4565, 866.6395
668.9386, 874.6529
669.4207, 880.3232
669.9028, 883.1306
670.3849, 882.9800
670.8671, 880.5132
671.3492, 875.0516
671.8313, 868.0568
672.3134, 862.6826
672.7955, 860.5375
673.2776, 857.5801
673.7598, 852.3055
674.2419, 844.1594
674.7240, 832.4476
675.2061, 814.1943
675.6882, 795.3881
676.1703, 776.8151
676.6525, 758.5790
677.1346, 741.4957
677.6167, 727.1512
678.0988, 710.3580
678.5809, 688.0950
679.0630, 662.0099
679.5452, 641.0707
680.0273, 625.4182
680.5094, 609.1046
680.9915, 587.1448
681.4736, 562.3088
681.9557, 538.9018
682.4379, 516.9753
682.9200, 498.5913
683.4021, 486.5524
683.8842, 477.7551
684.3663, 469.9052
684.8484, 464.1642
685.3306, 455.8525
685.8127, 441.5461
686.2948, 425.7372
686.7769, 412.4198
687.2590, 401.2457
687.7411, 393.9102
688.2233, 391.6009
688.7054, 391.8735
689.1875, 390.4908
689.6696, 387.5288
690.1517, 383.6178
690.6339, 378.5399
691.1160, 373.2117
691.5981, 369.1028
692.0802, 365.8698
692.5623, 362.4817
693.0444, 358.6062
693.5266, 354.2432
694.0087, 349.4350
694.4908, 344.1759
694.9729, 338.2468
695.4550, 329.0992
695.9371, 321.8139
696.4193, 319.0043
696.9014, 321.3651
697.3835, 323.4685
697.8656, 325.9216
698.3477, 326.2825
698.8298, 320.2384
699.3120, 309.6382
699.7941, 303.5926
700.2762, 303.5332
700.7583, 305.9693
701.2404, 310.2101
701.7225, 313.9231
702.2047, 313.3639
702.6868, 304.4526
703.1689, 295.8362
703.6510, 288.5992
704.1331, 284.2172
704.6152, 285.8304
705.0974, 301.2827
705.5795, 310.6194
706.0616, 308.3515
706.5437, 298.8448
707.0258, 295.8524
707.5079, 300.1771
707.9901, 303.6611
708.4722, 301.3469
708.9543, 296.6180
709.4364, 298.3869
709.9185, 305.7845
710.4006, 312.6040
710.8828, 316.4034
711.3649, 317.0443
711.8470, 312.5613
712.3291, 302.7467
712.8112, 296.2723
713.2933, 299.7067
713.7755, 304.1096
714.2576, 303.9085
714.7397, 297.0811
715.2218, 293.0969
715.7039, 292.1844
716.1860, 293.7433
716.6682, 299.7680
717.1503, 309.3930
717.6324, 309.9997
718.1145, 298.4087
718.5966, 284.7582
719.0787, 279.1562
719.5609, 279.6260
720.0430, 282.9832
720.5251, 291.1219
721.0072, 297.3528
721.4893, 296.4928
721.9714, 291.8812
722.4536, 289.4800
722.9357, 291.6104
723.4178, 294.1229
723.8999, 297.2076
724.3820, 300.0259
724.8641, 299.3135
725.3463, 294.3665
725.8284, 290.6766
726.3105, 290.6043
726.7926, 293.0227
727.2747, 296.4099
727.7568, 300.3452
728.2390, 302.3133
728.7211, 296.3808
729.2032, 291.0968
729.6853, 295.9595
730.1674, 310.8194
730.6495, 321.3990
731.1317, 320.9626
731.6138, 317.6644
732.0959, 315.3297
732.5780, 313.9293
733.0601, 314.0531
733.5422, 316.4920
734.0244, 318.5121
734.5065, 316.5070
734.9886, 311.4973
735.4707, 310.7055
735.9528, 314.9614
736.4349, 321.3266
736.9171, 329.5046
737.3992, 337.0044
737.8813, 340.2168
738.3634, 337.5290
738.8455, 332.4286
739.3276, 322.1923
739.8098, 311.9204
740.2919, 308.4985
740.7740, 317.0191
741.2561, 323.3435
741.7382, 325.2739
742.2203, 325.5869
742.7025, 330.2584
743.1846, 339.3048
743.6667, 345.1038
744.1488, 344.5680
744.6309, 341.1785
745.1130, 340.0071
745.5952, 340.2284
746.0773, 339.6034
746.5594, 336.1795
747.0415, 332.5211
747.5236, 330.3100
748.0057, 329.1078
748.4879, 326.8345
748.9700, 322.3730
749.4521, 317.8924
749.9342, 313.4213
750.4163, 309.2506
750.8984, 307.8849
751.3806, 309.5039
751.8627, 312.4989
752.3448, 317.8525
752.8269, 323.5063
753.3090, 323.2718
753.7911, 317.6703
754.2733, 312.8385
754.7554, 314.5747
755.2375, 317.3051
755.7196, 315.6385
756.2017, 308.0776
756.6838, 304.6054
757.1660, 311.2626
757.6481, 318.4368
758.1302, 320.4438
758.6123, 315.5274
759.0944, 314.9208
759.5765, 319.0441
760.0587, 326.0965
760.5408, 337.4582
761.0229, 350.3735
761.5050, 354.8283
761.9871, 348.4481
762.4692, 341.7303
762.9514, 344.0632
763.4335, 350.2728
763.9156, 354.6385
764.3977, 355.1585
764.8798, 355.1301
765.3619, 354.0900
765.8441, 353.3726
766.3262, 354.3761
766.8083, 357.1939
767.2904, 362.1781
767.7725, 370.9505
768.2546, 378.6418
768.7368, 375.4187
769.2189, 364.2700
769.7010, 356.8764
770.1831, 359.0375
770.6652, 361.9413
771.1473, 355.7106
771.6295, 345.1947
772.1116, 338.8911
772.5937, 343.9011
773.0758, 348.0781
773.5579, 348.7213
774.0400, 346.8307
774.5222, 344.4782
775.0043, 341.7475
775.4864, 338.2826
775.9685, 334.1602
776.4506, 329.1154
776.9327, 320.2957
777.4149, 309.0904
777.8970, 302.5357
778.3791, 309.6721
778.8612, 318.5291
779.3433, 317.1247
779.8254, 308.3365
780.3076, 302.9079
780.7897, 307.9898
781.2718, 312.7589
781.7539, 314.2138
782.2360, 312.5362
782.7181, 307.9059
783.2003, 298.8351
783.6824, 292.3996
784.1645, 292.7803
784.6466, 297.9971
785.1287, 302.3531
785.6108, 305.8701
786.0930, 308.5545
786.5751, 311.1349
787.0572, 312.3049
787.5393, 310.8290
788.0214, 306.7029
788.5035, 301.3452
788.9857, 293.1703
789.4678, 285.6794
789.9499, 279.4843
790.4320, 274.3563
790.9141, 276.4272
791.3962, 286.9599
791.8784, 298.6377
792.3605, 308.5360
792.8426, 315.3913
793.3247, 313.5456
793.8068, 303.0102
794.2889, 294.6829
794.7711, 300.1728
795.2532, 308.1685
795.7353, 308.5684
796.2174, 298.0081
796.6995, 292.0049
797.1816, 296.7480
797.6638, 301.5551
798.1459, 298.8157
798.6280, 287.0468
799.1101, 281.2911
799.5922, 281.9313
800.0743, 286.7248
800.5565, 298.2173
801.0386, 311.2874
801.5207, 313.4452
802.0028, 302.0720
802.4849, 291.8371
802.9670, 294.3635
803.4492, 299.9343
803.9313, 300.0516
804.4134, 289.2451
804.8955, 283.5515
805.3776, 285.3234
805.8597, 289.2172
806.3419, 290.1235
806.8240, 288.1059
807.3061, 288.8715
807.7882, 293.3221
808.2703, 297.2367
808.7524, 294.2312
809.2346, 288.5823
809.7167, 287.5934
810.1988, 294.5628
810.6809, 299.4680
811.1630, 295.4635
811.6451, 289.0604
812.1273, 286.3193
812.6094, 288.3825
813.0915, 292.4766
813.5736, 300.3678
814.0557, 306.9636
814.5378, 304.4895
815.0200, 294.8600
815.5021, 289.2463
815.9842, 289.7531
816.4663, 292.2114
816.9484, 293.0164
817.4305, 293.2998
817.9127, 294.5007
818.3948, 297.4673
818.8769, 300.3261
819.3590, 302.8260
819.8411, 304.9833
820.3232, 307.4499
820.8054, 311.3704
821.2875, 309.2681
821.7696, 298.8488
822.2517, 287.4788
822.7338, 284.3070
823.2159, 287.4008
823.6981, 291.9102
824.1802, 297.0731
824.6623, 302.5563
825.1444, 310.9008
825.6265, 318.1382
826.1086, 319.9289
826.5908, 307.7655
827.0729, 301.6862
827.5550, 304.7957
828.0371, 310.7216
828.5192, 311.2352
829.0013, 306.3191
829.4835, 304.4139
829.9656, 307.4050
830.4477, 310.2258
830.9298, 304.9063
831.4119, 296.2109
831.8940, 291.9504
832.3762, 295.6939
832.8583, 300.1408
833.3404, 303.2224
833.8225, 305.3933
834.3046, 307.4451
834.7867, 310.2975
835.2689, 309.7388
835.7510, 304.0690
836.2331, 298.3719
836.7152, 300.3057
837.1973, 307.8829
837.6794, 314.2394
838.1616, 318.2752
838.6437, 320.1715
839.1258, 318.7798
839.6079, 315.8885
840.0900, 313.2830
840.5721, 309.8503
841.0543, 309.9644
841.5364, 316.6761
842.0185, 323.9112
842.5006, 324.6212
842.9827, 318.1916
843.4648, 316.0539
843.9470, 319.9069
844.4291, 324.8305
844.9112, 325.1053
845.3933, 322.9839
845.8754, 322.1259
846.3575, 323.5460
846.8397, 325.1743
847.3218, 325.5864
847.8039, 326.2267
848.2860, 328.4757
848.7681, 333.4045
849.2502, 337.0823
849.7324, 339.4387
850.2145, 340.7194
850.6966, 339.6874
851.1787, 337.6645
851.6608, 341.2052
852.1429, 351.7543
852.6251, 359.2772
853.1072, 353.3539
853.5893, 342.4592
854.0714, 333.6905
854.5535, 327.4272
855.0356, 326.0023
855.5178, 331.0282
855.9999, 338.6224
856.4820, 347.6652
856.9641, 358.1922
857.4462, 361.3901
857.9283, 356.5029
858.4105, 350.6806
858.8926, 350.3076
859.3747, 352.7136
859.8568, 354.9040
860.3389, 356.5762
860.8210, 357.0159
861.3032, 351.9708
861.7853, 349.2339
862.2674, 354.8695
862.7495, 370.4947
863.2316, 376.1974
863.7137, 369.8714
864.1959, 362.9707
864.6780, 363.8598
865.1601, 370.2942
865.6422, 376.9453
866.1243, 383.7170
866.6064, 392.6275
867.0886, 410.7263
867.5707, 426.2238
868.0528, 429.1070
868.5349, 417.9039
869.0170, 415.4405
869.4991, 426.8604
869.9813, 436.8212
870.4634, 436.3079
870.9455, 428.6971
871.4276, 430.8750
871.9097, 441.9655
872.3918, 452.5892
872.8740, 457.2075
873.3561, 458.7170
873.8382, 456.9178
874.3203, 453.2489
874.8024, 455.0239
875.2845, 469.5888
875.7667, 483.0739
876.2488, 492.4105
876.7309, 498.0466
877.2130, 500.6238
877.6951, 500.0548
878.1772, 502.5547
878.6594, 511.4160
879.1415, 524.0714
879.6236, 540.6360
880.1057, 558.3105
880.5878, 569.8853
881.0699, 561.3435
881.5521, 559.2413
882.0342, 576.4684
882.5163, 603.8450
882.9984, 622.8245
883.4805, 631.5375
883.9626, 642.7161
884.4448, 661.2031
884.9269, 679.8011
885.4090, 684.4356
885.8911, 680.5786
886.3732, 681.2097
886.8553, 692.6161
887.3375, 706.2561
887.8196, 721.9957
888.3017, 736.0133
888.7838, 742.0108
889.2659, 733.4808
889.7480, 734.6483
890.2302, 750.0297
890.7123, 769.1551
891.1944, 777.2401
891.6765, 777.5274
892.1586, 780.5525
892.6407, 788.4105
893.1229, 798.4226
893.6050, 811.1359
894.0871, 823.6129
894.5692, 833.1185
895.0513, 838.3985
895.5334, 842.7848
896.0156, 846.3611
896.4977, 848.9593
896.9798, 849.4850
897.4619, 848.5973
897.9440, 853.3216
898.4261, 864.0211
898.9083, 868.2924
899.3904, 851.4515
899.8725, 827.2509
900.3546, 807.2852
900.8367, 792.6761
901.3188, 779.3964
901.8010, 766.5342
902.2831, 755.2610
902.7652, 747.2435
903.2473, 741.6151
903.7294, 732.0322
904.2115, 718.5552
904.6937, 702.7619
905.1758, 681.5660
905.6579, 661.5771
906.1400, 652.2395
906.6221, 650.6605
907.1042, 644.6584
907.5864, 627.5218
908.0685, 609.0656
908.5506, 589.8652
909.0327, 571.6718
909.5148, 561.1903
909.9969, 558.4121
910.4791, 554.4474
910.9612, 545.6130
911.4433, 535.2575
911.9254, 527.6630
912.4075, 521.7151
912.8896, 515.1380
913.3718, 504.7980
913.8539, 496.9320
914.3360, 493.7154
914.8181, 492.6101
915.3002, 491.3852
915.7823, 490.4201
916.2645, 482.9475
916.7466, 466.4413
917.2287, 450.5280
917.7108, 448.9792
918.1929, 454.0840
918.6750, 453.8075
919.1572, 443.9879
919.6393, 435.3933
920.1214, 431.1206
920.6035, 429.7181
921.0856, 430.4802
921.5677, 433.6008
922.0499, 438.1950
922.5320, 444.7173
923.0141, 449.3220
923.4962, 447.1993
923.9783, 441.9348
924.4604, 439.4307
924.9426, 439.6330
925.4247, 437.4936
925.9068, 426.5956
926.3889, 417.3600
926.8710, 414.2643
927.3531, 416.7343
927.8353, 421.8229
928.3174, 430.0750
928.7995, 435.6403
929.2816, 434.8095
929.7637, 430.8178
930.2459, 428.2409
930.7280, 426.7451
931.2101, 425.4771
931.6923, 422.9785
932.1744, 421.9343
932.6565, 423.9391
933.1386, 427.5300
933.6207, 431.1781
934.1028, 435.4058
934.5850, 434.6410
935.0671, 426.1941
935.5492, 417.9712
936.0313, 421.0077
936.5134, 431.2260
936.9955, 443.1276
937.4777, 457.9482
937.9598, 466.4953
938.4419, 459.2522
938.9240, 449.2463
939.4061, 445.8749
939.8882, 450.1472
940.3704, 455.7752
940.8525, 462.9857
941.3346, 470.2397
941.8167, 477.0359
942.2988, 482.6609
942.7809, 485.4435
943.2631, 485.5228
943.7452, 486.7194
944.2273, 491.1044
944.7094, 496.2873
945.1915, 501.2716
945.6736, 506.1989
946.1558, 511.4240
946.6379, 516.7227
947.1200, 525.8824
947.6021, 543.5536
948.0842, 562.3786
948.5663, 569.7635
949.0485, 570.7894
949.5306, 576.9126
950.0127, 599.5778
950.4948, 617.8970
950.9769, 624.2438
951.4590, 627.2788
951.9412, 640.3969
952.4233, 663.7715
952.9054, 685.8434
953.3875, 705.0377
953.8696, 722.3634
954.3517, 734.3382
954.8339, 747.5841
955.3160, 771.7437
955.7981, 811.7130
956.2802, 848.9632
956.7623, 874.7535
957.2444, 903.7373
957.7266, 945.8286
958.2087, 1000.429
958.6908, 1050.526
959.1729, 1096.396
959.6550, 1143.524
960.1371, 1197.237
960.6193, 1253.521
961.1014, 1305.443
961.5835, 1354.959
962.0656, 1414.429
962.5477, 1492.892
963.0298, 1571.006
963.5120, 1643.570
963.9941, 1715.343
964.4762, 1799.905
964.9583, 1895.562
965.4404, 1983.160
965.9225, 2056.682
966.4047, 2124.687
966.8868, 2194.840
967.3689, 2264.274
967.8510, 2328.610
968.3331, 2392.163
968.8152, 2442.479
969.2974, 2479.365
969.7795, 2505.032
970.2616, 2522.406
970.7437, 2530.604
971.2258, 2528.157
971.7079, 2514.798
972.1901, 2485.834
972.6722, 2428.157
973.1543, 2362.543
973.6364, 2307.518
974.1185, 2261.039
974.6006, 2186.063
975.0828, 2073.487
975.5649, 1965.978
976.0470, 1884.948
976.5291, 1816.144
977.0112, 1727.736
977.4933, 1625.492
977.9755, 1527.444
978.4576, 1435.328
978.9397, 1355.870
979.4218, 1296.224
979.9039, 1247.549
980.3860, 1200.152
980.8682, 1154.777
981.3503, 1102.656
981.8324, 1041.046
982.3145, 982.7338
982.7966, 942.0162
983.2787, 912.1368
983.7609, 882.9575
984.2430, 852.5210
984.7251, 828.4603
985.2072, 822.0485
985.6893, 813.0038
986.1714, 790.4056
986.6536, 756.8369
987.1357, 733.9681
987.6178, 721.6917
988.0999, 712.7097
988.5820, 704.6896
989.0641, 696.8338
989.5463, 688.4463
990.0284, 679.7041
990.5105, 671.1370
990.9926, 664.9232
991.4747, 655.1351
991.9568, 639.5344
992.4390, 622.5206
992.9211, 611.4014
993.4032, 604.6353
993.8853, 595.8380
994.3674, 583.7106
994.8495, 571.1736
995.3317, 561.5566
995.8138, 551.0911
996.2959, 534.3101
996.7780, 509.5567
997.2601, 497.6402
997.7422, 502.1664
998.2244, 506.4883
998.7065, 500.0883
999.1886, 488.0019
999.6707, 480.0140
1000.153, 475.6125
1000.635, 473.3152
1001.117, 477.8077
1001.599, 477.8650
1002.081, 465.7878
1002.563, 449.1753
1003.046, 440.0632
1003.528, 438.9349
1004.010, 437.3365
1004.492, 434.0457
1004.974, 429.6158
1005.456, 422.0308
1005.938, 414.9900
1006.420, 413.4339
1006.902, 419.0985
1007.385, 424.7284
1007.867, 432.8346
1008.349, 435.3715
1008.831, 424.8431
1009.313, 405.3816
1009.795, 400.9670
1010.277, 409.4990
1010.759, 417.0887
1011.242, 414.7483
1011.724, 410.4066
1012.206, 408.1908
1012.688, 407.6143
1013.170, 407.4131
1013.652, 407.3488
1014.134, 409.0716
1014.616, 414.2006
1015.098, 416.8429
1015.581, 404.2308
1016.063, 385.1861
1016.545, 377.9413
1017.027, 386.4079
1017.509, 395.0968
1017.991, 399.0958
1018.473, 400.3332
1018.955, 398.7801
1019.438, 395.0102
1019.920, 395.4203
1020.402, 400.0121
1020.884, 405.2079
1021.366, 412.1615
1021.848, 415.6487
1022.330, 405.1438
1022.812, 388.2056
1023.294, 380.3341
1023.777, 390.2409
1024.259, 400.5210
1024.741, 411.4803
1025.223, 420.0829
1025.705, 421.9959
1026.187, 418.6492
1026.669, 413.3951
1027.151, 406.5581
1027.633, 403.1090
1028.116, 409.3175
1028.598, 416.8976
1029.080, 420.1162
1029.562, 419.7001
1030.044, 422.9177
1030.526, 430.5900
1031.008, 434.7751
1031.490, 430.3912
1031.973, 423.9109
1032.455, 424.7148
1032.937, 429.6254
1033.419, 433.0551
1033.901, 432.1819
1034.383, 431.4647
1034.865, 431.3341
1035.347, 431.3634
1035.829, 430.1612
1036.312, 428.4715
1036.794, 432.5614
1037.276, 442.3632
1037.758, 449.5801
1038.240, 445.9800
1038.722, 440.2756
1039.204, 436.7812
1039.686, 436.0137
1040.168, 439.7388
1040.651, 449.4209
1041.133, 456.8977
1041.615, 459.6191
1042.097, 460.0696
1042.579, 460.6144
1043.061, 461.8794
1043.543, 465.0957
1044.025, 471.3504
1044.508, 477.2160
1044.990, 478.5975
1045.472, 483.6300
1045.954, 501.6392
1046.436, 530.3674
1046.918, 541.4493
1047.400, 536.3211
1047.882, 530.5867
1048.365, 534.8876
1048.847, 540.6576
1049.329, 542.0594
1049.811, 540.6744
1050.293, 541.7815
1050.775, 547.1421
1051.257, 548.7016
1051.739, 544.7735
1052.221, 538.5659
1052.703, 533.4752
1053.186, 529.0049
1053.668, 524.5360
1054.150, 520.0264
1054.632, 514.8829
1055.114, 509.8111
1055.596, 502.7644
1056.078, 491.7294
1056.560, 478.2396
1057.043, 470.3684
1057.525, 467.0846
1058.007, 461.7405
1058.489, 448.7202
1058.971, 436.4980
1059.453, 433.4484
1059.935, 432.9353
1060.417, 424.2043
1060.900, 401.8053
1061.382, 392.5392
1061.864, 399.5338
1062.346, 407.8981
1062.828, 401.2151
1063.310, 389.6277
1063.792, 388.9015
1064.274, 398.2067
1064.756, 403.3273
1065.239, 396.4807
1065.721, 389.8612
1066.203, 386.0819
1066.685, 383.9479
1067.167, 380.1687
1067.649, 375.6218
1068.131, 374.9312
1068.613, 380.7543
1069.095, 384.2220
1069.578, 375.0016
1070.060, 365.1077
1070.542, 365.4688
1071.024, 376.9534
1071.506, 379.3569
1071.988, 371.9709
1072.470, 365.2243
1072.952, 366.3929
1073.435, 370.1596
1073.917, 369.9832
1074.399, 367.9168
1074.881, 368.7183
1075.363, 378.1234
1075.845, 382.2108
1076.327, 379.2505
1076.809, 372.5204
1077.292, 362.5737
1077.774, 352.3307
1078.256, 351.1726
1078.738, 359.4578
1079.220, 365.7623
1079.702, 361.6965
1080.184, 357.4478
1080.666, 356.0775
1081.148, 358.0570
1081.630, 367.8310
1082.113, 384.6366
1082.595, 393.5736
1083.077, 388.0127
1083.559, 380.9627
1084.041, 385.8040
1084.523, 393.7779
1085.005, 394.1840
1085.487, 383.5173
1085.970, 380.9284
1086.452, 387.6371
1086.934, 397.0882
1087.416, 407.4257
1087.898, 416.5341
1088.380, 420.3685
1088.862, 420.3394
1089.344, 420.3207
1089.827, 422.3144
1090.309, 423.0883
1090.791, 420.9650
1091.273, 419.4523
1091.755, 424.4473
1092.237, 433.6764
1092.719, 436.7769
1093.201, 433.2022
1093.683, 431.6498
1094.166, 441.5661
1094.648, 450.3811
1095.130, 451.2456
1095.612, 446.0380
1096.094, 439.6367
1096.576, 431.9976
1097.058, 425.7683
1097.540, 422.1167
1098.023, 418.3531
1098.505, 410.8735
1098.987, 402.5152
1099.469, 396.1921
1099.951, 392.4835
1100.433, 390.2419
1100.915, 390.0086
1101.397, 389.1829
1101.880, 385.5237
1102.362, 381.1548
1102.844, 380.9483
1103.326, 382.9015
1103.808, 382.4643
1104.290, 376.7913
1104.772, 370.0844
1105.254, 361.3054
1105.736, 353.9821
1106.219, 352.3210
1106.701, 355.2358
1107.183, 359.3646
1107.665, 364.2341
1108.147, 366.6666
1108.629, 361.6582
1109.111, 357.4415
1109.593, 358.0689
1110.075, 361.7553
1110.558, 366.2485
1111.040, 371.4417
1111.522, 371.4384
1112.004, 364.6924
1112.486, 355.6690
1112.968, 344.9218
1113.450, 336.0687
1113.932, 333.8333
1114.415, 338.3573
1114.897, 340.2615
1115.379, 338.9337
1115.861, 338.2396
1116.343, 340.3310
1116.825, 342.7213
1117.307, 341.4717
1117.789, 338.3014
1118.271, 335.8097
1118.754, 333.8555
1119.236, 334.8421
1119.718, 340.2295
1120.200, 345.4653
1120.682, 347.4802
1121.164, 346.8562
1121.646, 344.1938
1122.128, 340.1848
1122.610, 337.4578
1123.093, 336.2169
1123.575, 337.9456
1124.057, 344.6674
1124.539, 352.3224
1125.021, 356.4396
1125.503, 357.0203
1125.985, 352.4268
1126.467, 342.6972
1126.950, 334.2672
1127.432, 330.5982
1127.914, 330.1397
1128.396, 334.6989
1128.878, 341.1876
1129.360, 340.6722
1129.842, 333.0505
1130.324, 325.2739
1130.807, 318.4142
1131.289, 313.7564
1131.771, 313.5560
1132.253, 315.2907
1132.735, 316.6919
1133.217, 317.5403
1133.699, 318.7142
1134.181, 320.3613
1134.663, 321.6410
1135.146, 322.7577
1135.628, 322.4279
1136.110, 317.5795
1136.592, 310.5800
1137.074, 305.0437
1137.556, 302.0754
1138.038, 300.4090
1138.520, 300.3146
1139.002, 300.7881
1139.485, 301.5880
1139.967, 302.2499
1140.449, 301.5813
1140.931, 299.8893
1141.413, 298.1658
1141.895, 294.3460
1142.377, 294.4828
1142.859, 301.2320
1143.342, 309.1783
1143.824, 312.0483
1144.306, 310.9621
1144.788, 310.4530
1145.270, 310.5471
1145.752, 307.7819
1146.234, 294.6566
1146.716, 285.1750
1147.198, 285.0377
1147.681, 291.0027
1148.163, 297.9064
1148.645, 305.3758
1149.127, 310.5690
1149.609, 313.2784
1150.091, 311.0817
1150.573, 295.1487
1151.055, 280.3741
1151.537, 278.6290
1152.020, 286.9975
1152.502, 289.2209
1152.984, 285.3348
1153.466, 282.2713
1153.948, 282.0831
1154.430, 284.0993
1154.912, 290.1833
1155.394, 296.6668
1155.877, 299.6435
1156.359, 299.1163
1156.841, 294.3883
1157.323, 284.7427
1157.805, 277.5661
1158.287, 278.7880
1158.769, 282.1439
1159.251, 280.6766
1159.734, 276.5150
1160.216, 273.3383
1160.698, 272.5196
1161.180, 269.8976
1161.662, 264.4209
1162.144, 261.6288
1162.626, 270.5870
1163.108, 281.9166
1163.590, 278.5867
1164.073, 265.4507
1164.555, 259.2310
1165.037, 268.8663
1165.519, 276.7899
1166.001, 282.1243
1166.483, 283.8109
1166.965, 276.8909
1167.447, 266.9922
1167.929, 267.4295
1168.412, 277.4443
1168.894, 281.1057
1169.376, 263.5526
1169.858, 254.6317
1170.340, 263.3690
1170.822, 277.9070
1171.304, 277.7214
1171.786, 268.2938
1172.269, 263.6946
1172.751, 266.1936
1173.233, 269.0284
1173.715, 270.6790
1174.197, 270.9163
1174.679, 269.3732
1175.161, 266.6128
1175.643, 262.8874
1176.125, 259.1631
1176.608, 258.7650
1177.090, 263.3481
1177.572, 268.2224
1178.054, 272.7206
1178.536, 275.3699
1179.018, 275.1406
1179.500, 272.4768
1179.982, 268.7175
1180.464, 264.3545
1180.947, 261.9552
1181.429, 263.5898
1181.911, 265.2704
1182.393, 264.4647
1182.875, 263.5181
1183.357, 265.0117
1183.839, 268.6393
1184.321, 266.0613
1184.804, 258.3764
1185.286, 254.5126
1185.768, 263.0225
1186.250, 272.5451
1186.732, 280.4863
1187.214, 284.1117
1187.696, 278.4702
1188.178, 263.0309
1188.661, 255.4307
1189.143, 256.0215
1189.625, 259.4100
1190.107, 263.8140
1190.589, 268.0081
1191.071, 272.8116
1191.553, 276.0964
1192.035, 272.4879
1192.517, 261.3038
1193.000, 258.3276
1193.482, 265.2685
1193.964, 271.9226
1194.446, 269.2158
1194.928, 264.2108
1195.410, 261.7962
1195.892, 261.1403
1196.374, 259.0416
1196.856, 255.3206
1197.339, 253.1320
1197.821, 253.1588
1198.303, 253.5010
1198.785, 252.0799
1199.267, 250.6334
1199.749, 251.0856
1200.231, 252.9471
1200.713, 252.8073
1201.196, 250.3976
1201.678, 249.9314
1202.160, 253.0058
1202.642, 255.9997
1203.124, 253.9158
1203.606, 251.2891
1204.088, 254.0951
1204.570, 261.9633
1205.052, 261.1124
1205.535, 250.4301
1206.017, 247.2460
1206.499, 260.7335
1206.981, 275.5545
1207.463, 273.4950
1207.945, 266.2856
1208.427, 269.2314
1208.909, 284.1805
1209.391, 285.1289
1209.874, 271.0430
1210.356, 257.7313
1210.838, 252.0676
1211.320, 250.2420
1211.802, 249.0195
1212.284, 249.0573
1212.766, 251.7718
1213.248, 257.8526
1213.731, 261.7742
1214.213, 263.5260
1214.695, 263.5912
1215.177, 261.5446
1215.659, 258.7543
1216.141, 254.3322
1216.623, 250.9583
1217.105, 253.6486
1217.588, 265.6808
1218.070, 269.2489
1218.552, 263.6314
1219.034, 259.0147
1219.516, 266.3483
1219.998, 274.0074
1220.480, 269.6661
1220.962, 259.0087
1221.444, 253.3690
1221.927, 253.9922
1222.409, 254.7083
1222.891, 255.1677
1223.373, 257.1556
1223.855, 267.5862
1224.337, 274.9063
1224.819, 264.5772
1225.301, 244.8669
1225.783, 236.5894
1226.266, 241.3188
1226.748, 248.5574
1227.230, 257.7199
1227.712, 265.5416
1228.194, 270.0730
1228.676, 271.6842
1229.158, 269.7517
1229.640, 265.1129
1230.123, 259.6560
1230.605, 252.9421
1231.087, 250.4523
1231.569, 253.1073
1232.051, 256.5502
1232.533, 258.3394
1233.015, 258.4742
1233.497, 255.5387
1233.979, 251.1062
1234.462, 249.7174
1234.944, 251.4430
1235.426, 254.2226
1235.908, 257.8139
1236.390, 261.5677
1236.872, 266.3106
1237.354, 269.7256
1237.836, 269.6805
1238.318, 267.0235
1238.801, 262.5797
1239.283, 256.5892
1239.765, 256.1090
1240.247, 263.3382
1240.729, 270.6440
1241.211, 273.2880
1241.693, 273.3378
1242.175, 271.8368
1242.658, 269.1245
1243.140, 264.7149
1243.622, 259.3110
1244.104, 259.6806
1244.586, 268.9131
1245.068, 276.0131
1245.550, 271.1342
1246.032, 264.8780
1246.515, 264.0515
1246.997, 266.4698
1247.479, 261.9043
1247.961, 252.3095
1248.443, 247.8272
1248.925, 252.0429
1249.407, 258.1617
1249.889, 265.9292
1250.371, 271.3694
1250.854, 273.0130
1251.336, 270.6439
1251.818, 259.3051
1252.300, 243.0401
1252.782, 237.6624
1253.264, 251.8886
1253.746, 262.6965
1254.228, 258.5830
1254.710, 254.0804
1255.193, 256.4891
1255.675, 263.1203
1256.157, 267.1497
1256.639, 268.6738
1257.121, 267.3292
1257.603, 260.7738
1258.085, 258.0192
1258.567, 263.1831
1259.050, 267.0282
1259.532, 263.0420
1260.014, 255.6552
1260.496, 256.2610
1260.978, 261.5603
1261.460, 264.2531
1261.942, 259.6644
1262.424, 260.1506
1262.906, 268.7928
1263.389, 275.6947
1263.871, 274.4597
1264.353, 268.7147
1264.835, 262.7644
1265.317, 257.4281
1265.799, 254.2838
1266.281, 254.1118
1266.763, 255.7477
1267.245, 259.8633
1267.728, 262.3426
1268.210, 259.1152
1268.692, 254.7001
1269.174, 255.2378
1269.656, 258.2627
1270.138, 259.4416
1270.620, 257.4202
1271.102, 258.8382
1271.585, 264.1790
1272.067, 266.9484
1272.549, 261.5275
1273.031, 253.9588
1273.513, 245.2423
1273.995, 240.0086
1274.477, 246.0956
1274.959, 265.9479
1275.442, 275.7444
1275.924, 275.7176
1276.406, 271.0614
1276.888, 259.5062
1277.370, 250.4375
1277.852, 251.7188
1278.334, 256.7203
1278.816, 258.1330
1279.298, 256.1208
1279.781, 259.3983
1280.263, 266.8208
1280.745, 270.4248
1281.227, 258.6535
1281.709, 252.1154
1282.191, 264.7623
1282.673, 277.3723
1283.155, 269.4307
1283.637, 247.0296
1284.120, 241.1301
1284.602, 249.1090
1285.084, 259.1875
1285.566, 270.8850
1286.048, 276.9421
1286.530, 275.7053
1287.012, 270.8611
1287.494, 262.6650
1287.977, 254.3862
1288.459, 255.5246
1288.941, 262.9778
1289.423, 267.7507
1289.905, 265.9681
1290.387, 263.1817
1290.869, 259.3719
1291.351, 255.0415
1291.833, 249.3602
1292.316, 244.3336
1292.798, 241.1090
1293.280, 240.8285
1293.762, 247.5498
1294.244, 266.1095
1294.726, 273.5990
1295.208, 268.7979
1295.690, 260.3075
1296.172, 248.4088
1296.655, 241.2474
1297.137, 250.0487
1297.619, 265.9453
1298.101, 273.9286
1298.583, 273.0465
1299.065, 276.2657
1299.547, 283.4853
1300.029, 287.8383
1300.512, 284.8792
1300.994, 278.4642
1301.476, 267.0004
1301.958, 255.6980
1302.440, 249.2868
1302.922, 247.5195
1303.404, 249.0128
1303.886, 253.2870
1304.369, 258.0056
1304.851, 264.1842
1305.333, 267.4237
1305.815, 266.1327
1306.297, 263.8075
1306.779, 263.4343
1307.261, 264.3941
1307.743, 265.6805
1308.225, 266.9689
1308.708, 267.3343
1309.190, 263.7342
1309.672, 265.1507
1310.154, 273.9380
1310.636, 279.7133
1311.118, 271.4858
1311.600, 258.2260
1312.082, 250.3275
1312.564, 246.1387
1313.047, 242.4826
1313.529, 239.1128
1314.011, 234.5160
1314.493, 228.5009
1314.975, 227.3544
1315.457, 240.8474
1315.939, 254.5445
1316.421, 258.1158
1316.904, 256.1933
##END=



