##NAMES=Magnetoplumbite
##RRUFFID=R060074
##IDEAL CHEMISTRY=Pb^2+^Fe^3+^_12_O_19_
##LOCALITY=Langban, Filipstad, Varmland, Sweden
##OWNER=RRUFF
##SOURCE=University of Arizona Mineral Museum
##DESCRIPTION=Black granular and massive
##STATUS=The identification of this mineral has been confirmed by X-ray diffraction and chemical analysis
##URL=rruff.info/R060074
##MEASURED CHEMISTRY=Pb_1.00_(Fe^3+^_7.48_Mn^3+^_3.09_Ti_0.60_Mn^2+^_0.48_Al_0.23_Zn_0.12_)_Î£=12_O_19_
93.56738, 97.49261
94.04950, 99.86744
94.53162, 101.7508
95.01373, 101.9242
95.49585, 100.9699
95.97797, 99.28034
96.46008, 96.97939
96.94220, 94.11967
97.42432, 91.41955
97.90643, 88.83678
98.38855, 86.47009
98.87067, 84.53143
99.35278, 83.05050
99.83490, 81.73398
100.3170, 79.93080
100.7991, 77.15076
101.2813, 74.30136
101.7634, 71.12367
102.2455, 67.97500
102.7276, 65.25143
103.2097, 63.16291
103.6918, 61.63604
104.1740, 60.30636
104.6561, 59.14375
105.1382, 58.12737
105.6203, 57.34409
106.1024, 56.73538
106.5845, 56.04496
107.0667, 55.04853
107.5488, 53.79323
108.0309, 52.56749
108.5130, 51.13260
108.9951, 49.84628
109.4772, 49.20930
109.9594, 49.37876
110.4415, 49.73148
110.9236, 49.89962
111.4057, 49.92092
111.8878, 49.84136
112.3699, 49.74045
112.8521, 49.58852
113.3342, 49.14295
113.8163, 48.04683
114.2984, 47.00702
114.7805, 46.32713
115.2626, 45.97254
115.7447, 45.78474
116.2269, 45.61602
116.7090, 45.46622
117.1911, 45.33995
117.6732, 45.31027
118.1553, 45.24791
118.6374, 45.03768
119.1196, 44.67669
119.6017, 44.28505
120.0838, 44.06614
120.5659, 44.22259
121.0480, 44.24679
121.5301, 44.13115
122.0123, 43.88976
122.4944, 43.52269
122.9765, 43.02564
123.4586, 42.42880
123.9407, 41.78990
124.4228, 41.01965
124.9050, 40.36930
125.3871, 39.97265
125.8692, 39.77854
126.3513, 39.60696
126.8334, 39.35828
127.3155, 39.10207
127.7977, 38.96506
128.2798, 38.99863
128.7619, 39.07574
129.2440, 39.10068
129.7261, 39.07731
130.2083, 38.97529
130.6904, 38.72676
131.1725, 38.41082
131.6546, 38.09059
132.1367, 37.79182
132.6188, 37.50253
133.1010, 37.17351
133.5831, 36.69331
134.0652, 36.37239
134.5473, 36.34573
135.0294, 36.49570
135.5115, 36.67489
135.9936, 36.80057
136.4758, 36.87099
136.9579, 36.84823
137.4400, 36.56740
137.9221, 36.34914
138.4042, 36.33844
138.8863, 36.46801
139.3685, 36.56888
139.8506, 36.49018
140.3327, 36.20245
140.8148, 35.92960
141.2969, 35.62943
141.7790, 35.37395
142.2612, 35.21328
142.7433, 35.14781
143.2254, 35.13664
143.7075, 35.14099
144.1896, 35.16271
144.6717, 35.20126
145.1539, 35.31144
145.6360, 35.41631
146.1181, 35.40830
146.6002, 35.25006
147.0823, 35.04863
147.5644, 34.94723
148.0466, 34.93122
148.5287, 34.88602
149.0108, 34.70119
149.4929, 34.43999
149.9750, 34.32705
150.4571, 34.49472
150.9393, 34.71162
151.4214, 34.77922
151.9035, 34.70389
152.3856, 34.58992
152.8677, 34.50089
153.3498, 34.43546
153.8320, 34.42105
154.3141, 34.54333
154.7962, 34.66487
155.2783, 34.70806
155.7604, 34.66560
156.2425, 34.59206
156.7247, 34.54498
157.2068, 34.49418
157.6889, 34.55552
158.1710, 34.85161
158.6531, 35.16942
159.1352, 35.35690
159.6174, 35.37011
160.0995, 35.27469
160.5816, 35.20233
161.0637, 35.20057
161.5458, 35.15645
162.0279, 35.02922
162.5101, 34.87601
162.9922, 34.75901
163.4743, 34.70525
163.9564, 34.69329
164.4385, 34.66058
164.9206, 34.57210
165.4028, 34.50879
165.8849, 34.48683
166.3670, 34.49902
166.8491, 34.54114
167.3312, 34.62199
167.8133, 34.71585
168.2955, 34.74509
168.7776, 34.68893
169.2597, 34.61111
169.7418, 34.51649
170.2239, 34.41510
170.7060, 34.36426
171.1882, 34.41858
171.6703, 34.53048
172.1524, 34.60589
172.6345, 34.64650
173.1166, 34.64098
173.5987, 34.56586
174.0809, 34.41462
174.5630, 34.25151
175.0451, 34.06273
175.5272, 33.89685
176.0093, 33.81973
176.4914, 33.87688
176.9736, 33.98362
177.4557, 34.00232
177.9378, 33.91133
178.4199, 33.77969
178.9020, 33.59705
179.3841, 33.40300
179.8663, 33.23844
180.3484, 33.12527
180.8305, 33.04804
181.3126, 32.95802
181.7947, 32.81584
182.2768, 32.72139
182.7590, 32.74111
183.2411, 32.80288
183.7232, 32.81327
184.2053, 32.71574
184.6874, 32.52991
185.1695, 32.37981
185.6517, 32.27988
186.1338, 32.20515
186.6159, 32.18622
187.0980, 32.18704
187.5801, 32.14956
188.0622, 32.03267
188.5444, 31.84365
189.0265, 31.67453
189.5086, 31.48925
189.9907, 31.35572
190.4728, 31.32723
190.9549, 31.37301
191.4371, 31.41426
191.9192, 31.39527
192.4013, 31.32049
192.8834, 31.26522
193.3655, 31.27815
193.8476, 31.26451
194.3298, 31.15233
194.8119, 30.95624
195.2940, 30.76620
195.7761, 30.64067
196.2582, 30.57976
196.7403, 30.53093
197.2225, 30.49047
197.7046, 30.46474
198.1867, 30.47745
198.6688, 30.52967
199.1509, 30.55040
199.6330, 30.45242
200.1152, 30.29225
200.5973, 30.19941
201.0794, 30.25478
201.5615, 30.34912
202.0436, 30.33347
202.5257, 30.18316
203.0079, 30.03236
203.4900, 29.94738
203.9721, 29.91271
204.4542, 29.92505
204.9363, 30.01478
205.4184, 30.12693
205.9006, 30.13239
206.3827, 29.95566
206.8648, 29.85101
207.3469, 30.00769
207.8290, 30.26851
208.3111, 30.43345
208.7933, 30.39038
209.2754, 30.20984
209.7575, 30.10210
210.2396, 30.12426
210.7217, 30.13179
211.2038, 30.06140
211.6860, 29.96030
212.1681, 29.88975
212.6502, 29.88691
213.1323, 29.93526
213.6144, 29.96273
214.0965, 29.99321
214.5787, 29.96541
215.0608, 29.78212
215.5429, 29.55559
216.0250, 29.45041
216.5071, 29.57078
216.9892, 29.86698
217.4713, 30.05487
217.9535, 30.08266
218.4356, 30.04335
218.9177, 29.88003
219.3998, 29.66773
219.8819, 29.51784
220.3640, 29.49805
220.8462, 29.58648
221.3283, 29.64025
221.8104, 29.61935
222.2925, 29.61056
222.7746, 29.63788
223.2567, 29.68919
223.7389, 29.74584
224.2210, 29.79997
224.7031, 29.84724
225.1852, 29.85949
225.6673, 29.82502
226.1494, 29.77742
226.6316, 29.71204
227.1137, 29.64015
227.5958, 29.58567
228.0779, 29.56313
228.5600, 29.56588
229.0421, 29.56710
229.5243, 29.55029
230.0064, 29.55173
230.4885, 29.60101
230.9706, 29.68210
231.4527, 29.75173
231.9348, 29.79302
232.4170, 29.80414
232.8991, 29.78465
233.3812, 29.72112
233.8633, 29.65553
234.3454, 29.60685
234.8275, 29.57362
235.3097, 29.54833
235.7918, 29.52323
236.2739, 29.51120
236.7560, 29.53498
237.2381, 29.60834
237.7202, 29.67561
238.2024, 29.68490
238.6845, 29.64724
239.1666, 29.64047
239.6487, 29.70879
240.1308, 29.80416
240.6129, 29.87580
241.0951, 29.92458
241.5772, 29.93670
242.0593, 29.86840
242.5414, 29.72839
243.0235, 29.66070
243.5056, 29.79484
243.9878, 29.92769
244.4699, 29.85346
244.9520, 29.56444
245.4341, 29.28385
245.9162, 29.21575
246.3983, 29.35890
246.8805, 29.49868
247.3626, 29.64592
247.8447, 29.73543
248.3268, 29.70056
248.8089, 29.55314
249.2910, 29.39215
249.7732, 29.31005
250.2553, 29.31018
250.7374, 29.29589
251.2195, 29.20967
251.7016, 29.15591
252.1837, 29.21383
252.6659, 29.36006
253.1480, 29.49819
253.6301, 29.52764
254.1122, 29.43868
254.5943, 29.39244
255.0764, 29.43552
255.5586, 29.48176
256.0407, 29.52094
256.5228, 29.53985
257.0049, 29.51056
257.4870, 29.38945
257.9691, 29.17265
258.4513, 29.04462
258.9334, 29.08549
259.4155, 29.14897
259.8976, 29.21673
260.3797, 29.27675
260.8618, 29.31373
261.3440, 29.31291
261.8261, 29.27603
262.3082, 29.25215
262.7903, 29.26333
263.2724, 29.26606
263.7545, 29.23984
264.2367, 29.19921
264.7188, 29.17166
265.2009, 29.17703
265.6830, 29.20966
266.1651, 29.22309
266.6472, 29.16544
267.1294, 29.14459
267.6115, 29.22319
268.0936, 29.34139
268.5757, 29.40218
269.0578, 29.34855
269.5399, 29.21468
270.0221, 29.15097
270.5042, 29.25792
270.9863, 29.32489
271.4684, 29.32244
271.9505, 29.27070
272.4326, 29.17867
272.9148, 29.04865
273.3969, 28.91530
273.8790, 28.87509
274.3611, 29.06186
274.8432, 29.18577
275.3253, 29.21637
275.8075, 29.18854
276.2896, 29.11073
276.7717, 28.98826
277.2538, 28.88749
277.7359, 28.94080
278.2180, 29.38086
278.7002, 29.61183
279.1823, 29.48446
279.6644, 29.22148
280.1465, 29.00999
280.6286, 28.90311
281.1107, 28.87361
281.5929, 28.88999
282.0750, 28.98186
282.5571, 29.04960
283.0392, 29.12566
283.5213, 29.15827
284.0034, 29.06669
284.4856, 28.85213
284.9677, 28.63965
285.4498, 28.57234
285.9319, 28.69222
286.4140, 28.75503
286.8961, 28.70373
287.3783, 28.64102
287.8604, 28.63598
288.3425, 28.69134
288.8246, 28.77997
289.3067, 28.89391
289.7888, 29.03097
290.2710, 29.07446
290.7531, 28.97975
291.2352, 28.84131
291.7173, 28.67280
292.1994, 28.49493
292.6815, 28.37751
293.1637, 28.37511
293.6458, 28.47183
294.1279, 28.55161
294.6100, 28.64539
295.0921, 28.69368
295.5742, 28.64356
296.0564, 28.52498
296.5385, 28.40619
297.0206, 28.30534
297.5027, 28.24670
297.9848, 28.32171
298.4669, 28.64908
298.9491, 28.88278
299.4312, 28.85252
299.9133, 28.66058
300.3954, 28.50713
300.8775, 28.46668
301.3596, 28.48044
301.8418, 28.43718
302.3239, 28.32519
302.8060, 28.21670
303.2881, 28.10980
303.7702, 28.02193
304.2523, 27.98989
304.7345, 28.02645
305.2166, 28.08245
305.6987, 28.09922
306.1808, 28.07616
306.6629, 28.02949
307.1451, 27.89429
307.6272, 27.77219
308.1093, 27.79862
308.5914, 27.98955
309.0735, 28.20010
309.5556, 28.30141
310.0378, 28.29443
310.5199, 28.29768
311.0020, 28.35116
311.4841, 28.39029
311.9662, 28.34052
312.4483, 28.21153
312.9305, 28.11228
313.4126, 28.12952
313.8947, 28.23167
314.3768, 28.26113
314.8589, 28.15511
315.3410, 28.04509
315.8232, 28.00369
316.3053, 28.01638
316.7874, 28.03233
317.2695, 28.02746
317.7516, 28.01289
318.2337, 28.01690
318.7159, 28.04646
319.1980, 28.07449
319.6801, 28.10161
320.1622, 28.11891
320.6443, 28.10493
321.1264, 28.04933
321.6086, 27.97212
322.0907, 27.89322
322.5728, 27.80301
323.0549, 27.76251
323.5370, 27.82207
324.0191, 27.92357
324.5013, 28.00232
324.9834, 28.04831
325.4655, 28.05313
325.9476, 27.98633
326.4297, 27.84850
326.9118, 27.76907
327.3940, 27.81976
327.8761, 27.89088
328.3582, 27.87137
328.8403, 27.76566
329.3224, 27.68367
329.8045, 27.71216
330.2867, 27.83480
330.7688, 27.91968
331.2509, 27.98927
331.7330, 28.00220
332.2151, 27.89132
332.6972, 27.69710
333.1794, 27.54763
333.6615, 27.50636
334.1436, 27.54548
334.6257, 27.59908
335.1078, 27.69781
335.5899, 27.74977
336.0721, 27.68852
336.5542, 27.57145
337.0363, 27.49182
337.5184, 27.47758
338.0005, 27.50611
338.4826, 27.55686
338.9648, 27.64653
339.4469, 27.68272
339.9290, 27.61893
340.4111, 27.51745
340.8932, 27.42518
341.3753, 27.35200
341.8574, 27.31859
342.3395, 27.36798
342.8217, 27.50895
343.3038, 27.51152
343.7859, 27.22574
344.2680, 26.93914
344.7501, 26.84021
345.2322, 26.89901
345.7144, 26.96775
346.1965, 26.95230
346.6786, 26.87163
347.1607, 26.83901
347.6428, 26.92575
348.1249, 26.96702
348.6071, 26.85810
349.0892, 26.68504
349.5713, 26.61185
350.0534, 26.71033
350.5355, 26.87858
351.0176, 26.90845
351.4998, 26.70373
351.9819, 26.53895
352.4640, 26.44304
352.9461, 26.38446
353.4282, 26.33398
353.9103, 26.28598
354.3925, 26.25366
354.8746, 26.25622
355.3567, 26.30626
355.8388, 26.32369
356.3209, 26.31116
356.8030, 26.26839
357.2852, 26.15202
357.7673, 25.99699
358.2494, 25.91173
358.7315, 25.98558
359.2136, 26.19453
359.6957, 26.29007
360.1779, 26.16177
360.6600, 26.05569
361.1421, 26.04500
361.6242, 26.07906
362.1063, 26.07923
362.5884, 26.01196
363.0706, 25.91371
363.5527, 25.86737
364.0348, 25.94138
364.5169, 25.96375
364.9990, 25.89772
365.4811, 25.80920
365.9633, 25.74672
366.4454, 25.71828
366.9275, 25.70136
367.4096, 25.66840
367.8917, 25.61169
368.3738, 25.58210
368.8560, 25.59955
369.3381, 25.62209
369.8202, 25.63906
370.3023, 25.64828
370.7844, 25.65178
371.2665, 25.65290
371.7487, 25.64696
372.2308, 25.60350
372.7129, 25.44915
373.1950, 25.35790
373.6771, 25.42090
374.1592, 25.52889
374.6414, 25.55663
375.1235, 25.46103
375.6056, 25.31164
376.0877, 25.22623
376.5698, 25.22223
377.0519, 25.23334
377.5341, 25.29825
378.0162, 25.34148
378.4983, 25.30536
378.9804, 25.19761
379.4625, 25.07936
379.9446, 25.00595
380.4268, 24.97625
380.9089, 24.94049
381.3910, 24.89558
381.8731, 24.84834
382.3552, 24.77846
382.8373, 24.71256
383.3195, 24.70212
383.8016, 24.78987
384.2837, 24.91550
384.7658, 24.94544
385.2479, 24.85030
385.7300, 24.75711
386.2122, 24.69731
386.6943, 24.66232
387.1764, 24.65417
387.6585, 24.67338
388.1406, 24.69885
388.6227, 24.70869
389.1049, 24.70457
389.5870, 24.71653
390.0691, 24.78730
390.5512, 24.81928
391.0333, 24.69773
391.5154, 24.46925
391.9976, 24.30815
392.4797, 24.34317
392.9618, 24.48285
393.4439, 24.56306
393.9260, 24.57640
394.4081, 24.56433
394.8903, 24.55341
395.3724, 24.52946
395.8545, 24.46000
396.3366, 24.30593
396.8187, 24.17101
397.3008, 24.13791
397.7830, 24.19204
398.2651, 24.27958
398.7472, 24.40646
399.2293, 24.52066
399.7114, 24.52462
400.1935, 24.41474
400.6757, 24.14015
401.1578, 24.36969
401.6399, 24.49092
402.1220, 24.50966
402.6041, 24.11893
403.0862, 24.25695
403.5684, 24.18306
404.0505, 24.10049
404.5326, 24.31292
405.0147, 23.98175
405.4968, 24.18951
405.9789, 24.18213
406.4611, 24.27321
406.9432, 24.15109
407.4253, 24.09482
407.9074, 24.25183
408.3895, 24.29074
408.8716, 24.14408
409.3538, 24.24142
409.8359, 23.90280
410.3180, 23.94674
410.8001, 24.15574
411.2822, 24.01980
411.7643, 24.12104
412.2465, 24.13195
412.7286, 23.73233
413.2107, 24.04666
413.6928, 24.05223
414.1749, 23.74077
414.6570, 24.03063
415.1392, 23.76288
415.6213, 23.69416
416.1034, 23.77523
416.5855, 23.70016
417.0676, 23.87126
417.5497, 23.76297
418.0319, 23.78574
418.5140, 23.79484
418.9961, 23.78601
419.4782, 23.74072
419.9603, 23.66628
420.4424, 23.60316
420.9246, 23.59397
421.4067, 23.64077
421.8888, 23.70154
422.3709, 23.83033
422.8530, 23.90602
423.3351, 23.84660
423.8173, 23.71908
424.2994, 23.63908
424.7815, 23.67152
425.2636, 23.74575
425.7457, 23.70842
426.2278, 23.51868
426.7100, 23.39670
427.1921, 23.47921
427.6742, 23.59872
428.1563, 23.63096
428.6384, 23.56779
429.1205, 23.48473
429.6027, 23.42262
430.0848, 23.38274
430.5669, 23.37421
431.0490, 23.40786
431.5311, 23.44667
432.0132, 23.45796
432.4954, 23.45548
432.9775, 23.46792
433.4596, 23.52546
433.9417, 23.57341
434.4238, 23.54214
434.9059, 23.44703
435.3881, 23.38490
435.8702, 23.39690
436.3523, 23.45281
436.8344, 23.52134
437.3165, 23.62138
437.7986, 23.64001
438.2808, 23.46139
438.7629, 23.23211
439.2450, 23.13471
439.7271, 23.18525
440.2092, 23.26140
440.6913, 23.26336
441.1735, 23.19535
441.6556, 23.15423
442.1377, 23.13880
442.6198, 23.14713
443.1019, 23.21770
443.5840, 23.30212
444.0662, 23.30851
444.5483, 23.20212
445.0304, 23.05541
445.5125, 22.99917
445.9946, 23.10096
446.4767, 23.13980
446.9589, 23.05386
447.4410, 22.96783
447.9231, 22.95575
448.4052, 23.01019
448.8873, 23.08863
449.3694, 23.16603
449.8516, 23.23597
450.3337, 23.25268
450.8158, 23.15907
451.2979, 23.10139
451.7800, 23.12524
452.2621, 23.18302
452.7443, 23.23668
453.2264, 23.27505
453.7085, 23.29700
454.1906, 23.29780
454.6727, 23.27684
455.1548, 23.25237
455.6370, 23.20946
456.1191, 23.18537
456.6012, 23.22869
457.0833, 23.30314
457.5654, 23.32185
458.0475, 23.20978
458.5297, 23.06586
459.0118, 23.05278
459.4939, 23.17476
459.9760, 23.26932
460.4581, 23.26530
460.9402, 23.21364
461.4224, 23.19019
461.9045, 23.19884
462.3866, 23.20014
462.8687, 23.13933
463.3508, 23.07618
463.8329, 23.12712
464.3151, 23.30675
464.7972, 23.47639
465.2793, 23.52622
465.7614, 23.46802
466.2435, 23.42308
466.7256, 23.41248
467.2078, 23.39072
467.6899, 23.33529
468.1720, 23.25951
468.6541, 23.17202
469.1362, 23.07659
469.6183, 23.00760
470.1005, 23.02012
470.5826, 23.14708
471.0647, 23.24974
471.5468, 23.33353
472.0289, 23.39198
472.5110, 23.40221
472.9932, 23.38524
473.4753, 23.39016
473.9574, 23.44946
474.4395, 23.53691
474.9216, 23.56772
475.4037, 23.51070
475.8859, 23.45824
476.3680, 23.41263
476.8501, 23.38156
477.3322, 23.37094
477.8143, 23.38091
478.2964, 23.40819
478.7786, 23.46204
479.2607, 23.53482
479.7428, 23.56785
480.2249, 23.53427
480.7070, 23.51950
481.1891, 23.56981
481.6713, 23.66087
482.1534, 23.78163
482.6355, 23.95332
483.1176, 24.07606
483.5997, 24.01535
484.0818, 23.82520
484.5640, 23.73196
485.0461, 23.80992
485.5282, 23.92008
486.0103, 23.89956
486.4924, 23.76766
486.9745, 23.69852
487.4567, 23.74786
487.9388, 23.83800
488.4209, 23.95084
488.9030, 24.06297
489.3851, 24.10195
489.8672, 24.02547
490.3494, 23.89354
490.8315, 23.82775
491.3136, 23.86671
491.7957, 23.90481
492.2778, 23.92669
492.7599, 23.95997
493.2421, 24.03795
493.7242, 24.14878
494.2063, 24.24724
494.6884, 24.30083
495.1705, 24.31606
495.6526, 24.32625
496.1348, 24.31883
496.6169, 24.32767
497.0990, 24.38439
497.5811, 24.44011
498.0632, 24.44459
498.5453, 24.39493
499.0275, 24.34040
499.5096, 24.32398
499.9917, 24.34362
500.4738, 24.38767
500.9559, 24.48594
501.4380, 24.54773
501.9202, 24.47024
502.4023, 24.34742
502.8844, 24.31879
503.3665, 24.44303
503.8486, 24.58311
504.3307, 24.61212
504.8129, 24.56227
505.2950, 24.55522
505.7771, 24.62954
506.2592, 24.70530
506.7413, 24.68690
507.2234, 24.58113
507.7055, 24.52243
508.1877, 24.56982
508.6698, 24.61906
509.1519, 24.57822
509.6340, 24.49442
510.1161, 24.48556
510.5982, 24.60248
511.0804, 24.78360
511.5625, 24.92747
512.0446, 25.04000
512.5267, 25.09256
513.0089, 25.05970
513.4910, 24.99850
513.9731, 24.91416
514.4552, 24.82726
514.9373, 24.77373
515.4194, 24.77637
515.9016, 24.81957
516.3837, 24.87108
516.8658, 24.95021
517.3479, 24.98355
517.8300, 24.92164
518.3121, 24.83880
518.7943, 24.76733
519.2764, 24.71340
519.7585, 24.68285
520.2406, 24.67448
520.7227, 24.69357
521.2048, 24.77894
521.6870, 24.94658
522.1691, 25.04283
522.6512, 24.95559
523.1333, 24.78688
523.6154, 24.71874
524.0975, 24.77941
524.5797, 24.80889
525.0618, 24.70106
525.5439, 24.55247
526.0260, 24.48843
526.5081, 24.51804
526.9902, 24.57876
527.4724, 24.62914
527.9545, 24.67127
528.4366, 24.71628
528.9187, 24.82161
529.4008, 24.85539
529.8829, 24.73123
530.3651, 24.56926
530.8472, 24.48126
531.3293, 24.48431
531.8114, 24.53357
532.2935, 24.59501
532.7756, 24.66620
533.2578, 24.69612
533.7399, 24.66983
534.2220, 24.62199
534.7041, 24.51861
535.1862, 24.42414
535.6683, 24.42451
536.1505, 24.53695
536.6326, 24.65453
537.1147, 24.66974
537.5968, 24.60353
538.0789, 24.55241
538.5610, 24.52525
539.0432, 24.50742
539.5253, 24.47671
540.0074, 24.45148
540.4895, 24.48137
540.9716, 24.62650
541.4537, 24.72854
541.9359, 24.65420
542.4180, 24.49537
542.9001, 24.42141
543.3822, 24.46753
543.8643, 24.53735
544.3464, 24.53197
544.8286, 24.44784
545.3107, 24.42004
545.7928, 24.44065
546.2749, 24.51761
546.7570, 24.71747
547.2391, 24.94580
547.7213, 25.09048
548.2034, 25.12210
548.6855, 25.09197
549.1676, 25.03732
549.6497, 24.95020
550.1318, 24.97886
550.6140, 25.22746
551.0961, 25.44505
551.5782, 25.51841
552.0603, 25.51597
552.5424, 25.53165
553.0245, 25.59722
553.5067, 25.64478
553.9888, 25.58309
554.4709, 25.44760
554.9530, 25.38039
555.4351, 25.41486
555.9172, 25.46862
556.3994, 25.47828
556.8815, 25.45087
557.3636, 25.43207
557.8457, 25.44760
558.3278, 25.44282
558.8099, 25.36974
559.2921, 25.27247
559.7742, 25.21678
560.2563, 25.21710
560.7384, 25.24348
561.2205, 25.26804
561.7026, 25.29173
562.1848, 25.29112
562.6669, 25.24031
563.1490, 25.19422
563.6311, 25.16850
564.1132, 25.15014
564.5953, 25.12233
565.0775, 25.08169
565.5596, 25.04204
566.0417, 25.01082
566.5238, 24.99020
567.0059, 25.00747
567.4880, 25.07907
567.9702, 25.15186
568.4523, 25.19548
568.9344, 25.22314
569.4165, 25.25733
569.8986, 25.31214
570.3807, 25.33500
570.8629, 25.25820
571.3450, 25.14197
571.8271, 25.09872
572.3092, 25.14196
572.7913, 25.19192
573.2734, 25.17894
573.7556, 25.12083
574.2377, 25.14666
574.7198, 25.37977
575.2019, 25.52760
575.6840, 25.48790
576.1661, 25.38945
576.6483, 25.34403
577.1304, 25.36602
577.6125, 25.41350
578.0946, 25.45788
578.5767, 25.49496
579.0588, 25.49269
579.5410, 25.42118
580.0231, 25.37925
580.5052, 25.41215
580.9873, 25.47447
581.4694, 25.54657
581.9515, 25.62259
582.4337, 25.66970
582.9158, 25.64059
583.3979, 25.58390
583.8800, 25.57496
584.3621, 25.61530
584.8442, 25.69127
585.3264, 25.81374
585.8085, 25.94293
586.2906, 25.98793
586.7727, 25.90768
587.2548, 25.87436
587.7369, 25.94884
588.2190, 26.03557
588.7011, 26.05962
589.1832, 26.03980
589.6653, 26.04701
590.1475, 26.12153
590.6296, 26.21816
591.1117, 26.22470
591.5938, 26.09075
592.0759, 26.02567
592.5580, 26.06392
593.0402, 26.15849
593.5223, 26.36277
594.0044, 26.60263
594.4865, 26.69956
594.9686, 26.52387
595.4507, 26.30085
595.9329, 26.30872
596.4150, 26.50529
596.8971, 26.66385
597.3792, 26.72992
597.8613, 26.76439
598.3434, 26.82567
598.8256, 26.91281
599.3077, 26.97692
599.7898, 27.02251
600.2719, 27.04059
600.7540, 26.99681
601.2361, 26.93688
601.7183, 26.92742
602.2004, 26.98071
602.6825, 27.05365
603.1646, 27.10270
603.6467, 27.12835
604.1288, 27.14365
604.6110, 27.09286
605.0931, 27.12450
605.5752, 27.33547
606.0573, 27.59801
606.5394, 27.80788
607.0215, 27.94551
607.5037, 28.02852
607.9858, 28.04605
608.4679, 28.02357
608.9500, 27.99003
609.4321, 27.94587
609.9142, 27.98301
610.3964, 28.18002
610.8785, 28.44266
611.3606, 28.57085
611.8427, 28.52764
612.3248, 28.49819
612.8069, 28.50982
613.2891, 28.53475
613.7712, 28.56028
614.2533, 28.58344
614.7354, 28.59820
615.2175, 28.60119
615.6996, 28.60595
616.1818, 28.64348
616.6639, 28.72607
617.1460, 28.78400
617.6281, 28.77719
618.1102, 28.78888
618.5923, 28.85580
619.0745, 28.96630
619.5566, 29.11209
620.0387, 29.31342
620.5208, 29.47766
621.0029, 29.49496
621.4850, 29.41813
621.9672, 29.37970
622.4493, 29.40069
622.9314, 29.45547
623.4135, 29.53542
623.8956, 29.63155
624.3777, 29.68680
624.8599, 29.67028
625.3420, 29.65983
625.8241, 29.66786
626.3062, 29.68380
626.7883, 29.70754
627.2704, 29.73220
627.7526, 29.73434
628.2347, 29.68989
628.7168, 29.62678
629.1989, 29.62973
629.6810, 29.71366
630.1631, 29.79559
630.6453, 29.88323
631.1274, 29.93438
631.6095, 29.88345
632.0916, 29.76225
632.5737, 29.70537
633.0558, 29.80441
633.5380, 29.93145
634.0201, 29.99732
634.5022, 30.01510
634.9843, 30.00772
635.4664, 29.98158
635.9485, 29.95625
636.4307, 29.95730
636.9128, 29.98548
637.3949, 29.97108
637.8770, 29.84427
638.3591, 29.76011
638.8412, 29.79726
639.3234, 29.85204
639.8055, 29.82438
640.2876, 29.70571
640.7697, 29.55752
641.2518, 29.39820
641.7339, 29.25648
642.2161, 29.23265
642.6982, 29.33757
643.1803, 29.40762
643.6624, 29.37867
644.1445, 29.30099
644.6266, 28.93336
645.1088, 29.13139
645.5909, 29.22112
646.0730, 29.20836
646.5551, 28.78613
647.0372, 28.89264
647.5193, 28.78726
648.0015, 28.67317
648.4836, 28.85410
648.9657, 28.49143
649.4478, 28.66768
649.9299, 28.62881
650.4120, 28.68839
650.8942, 28.53475
651.3763, 28.44698
651.8584, 28.57248
652.3405, 28.49392
652.8226, 28.46030
653.3047, 28.39198
653.7869, 28.32608
654.2690, 28.31194
654.7511, 28.29444
655.2332, 28.18422
655.7153, 27.99368
656.1974, 27.80422
656.6796, 27.64433
657.1617, 27.52487
657.6438, 27.46581
658.1259, 27.47843
658.6080, 27.50789
659.0901, 27.59789
659.5723, 27.65320
660.0544, 27.62932
660.5365, 27.55665
661.0186, 27.45957
661.5007, 27.35049
661.9828, 27.26949
662.4650, 27.29215
662.9471, 27.38036
663.4292, 27.37564
663.9113, 27.27055
664.3934, 27.09275
664.8755, 26.79259
665.3577, 26.48097
665.8398, 26.36687
666.3219, 26.47533
666.8040, 26.56222
667.2861, 26.60093
667.7682, 26.59488
668.2504, 26.52692
668.7325, 26.41972
669.2146, 26.30462
669.6967, 26.19607
670.1788, 26.11427
670.6609, 26.10290
671.1431, 26.16684
671.6252, 26.15312
672.1073, 26.01079
672.5894, 25.88642
673.0715, 25.86274
673.5536, 25.87305
674.0358, 25.85296
674.5179, 25.79568
675.0000, 25.72032
675.4821, 25.61581
675.9642, 25.51134
676.4464, 25.43228
676.9285, 25.16570
677.4106, 25.35077
677.8927, 25.42751
678.3748, 25.40177
678.8569, 24.96656
679.3391, 25.06008
679.8212, 24.94171
680.3033, 24.81466
680.7854, 24.98261
681.2675, 24.60696
681.7496, 24.77023
682.2318, 24.71836
682.7139, 24.76495
683.1960, 24.59836
683.6781, 24.49761
684.1602, 24.61012
684.6423, 24.60456
685.1245, 24.41654
685.6066, 24.37643
686.0887, 24.18122
686.5708, 23.93770
687.0529, 23.80666
687.5350, 23.81840
688.0172, 23.77333
688.4993, 23.60715
688.9814, 23.46619
689.4635, 23.41246
689.9456, 23.40136
690.4277, 23.38575
690.9099, 23.35297
691.3920, 23.30688
691.8741, 23.24535
692.3562, 23.17477
692.8383, 23.11437
693.3204, 23.06519
693.8026, 23.01513
694.2847, 22.96621
694.7668, 22.90523
695.2489, 22.80993
695.7310, 22.67799
696.2131, 22.56111
696.6953, 22.44276
697.1774, 22.36178
697.6595, 22.35682
698.1416, 22.38608
698.6237, 22.39667
699.1058, 22.38105
699.5880, 22.37270
700.0701, 22.41166
700.5522, 22.47105
701.0343, 22.44868
701.5164, 22.33186
701.9985, 22.20751
702.4807, 22.08031
702.9628, 21.97439
703.4449, 21.92970
703.9270, 21.93236
704.4091, 21.91741
704.8912, 21.86320
705.3734, 21.80469
705.8555, 21.76282
706.3376, 21.72254
706.8197, 21.66010
707.3018, 21.57636
707.7839, 21.49688
708.2661, 21.44153
708.7482, 21.40346
709.2303, 21.35707
709.7124, 21.29368
710.1945, 21.26370
710.6766, 21.30346
711.1588, 21.34216
711.6409, 21.32983
712.1230, 21.27860
712.6051, 21.21454
713.0872, 21.12085
713.5693, 21.05502
714.0515, 21.07920
714.5336, 21.12605
715.0157, 21.07109
715.4978, 20.89868
715.9799, 20.98265
716.4620, 21.01246
716.9442, 20.99102
717.4263, 20.76486
717.9084, 20.80306
718.3905, 20.73532
718.8726, 20.66323
719.3547, 20.73864
719.8369, 20.54224
720.3190, 20.61532
720.8011, 20.58083
721.2832, 20.59556
721.7653, 20.50370
722.2474, 20.44477
722.7296, 20.49245
723.2117, 20.48111
723.6938, 20.37697
724.1759, 20.39484
724.6580, 20.21861
725.1401, 20.23277
725.6223, 20.21260
726.1044, 20.14672
726.5865, 20.14887
727.0686, 20.29800
727.5507, 20.38757
728.0328, 20.27626
728.5150, 20.11535
728.9971, 20.07231
729.4792, 20.15985
729.9613, 20.22510
730.4434, 20.18635
730.9255, 20.11320
731.4077, 20.06381
731.8898, 20.03121
732.3719, 19.98562
732.8540, 19.92078
733.3361, 19.88195
733.8182, 19.92890
734.3004, 20.04734
734.7825, 20.07338
735.2646, 19.95834
735.7467, 19.85475
736.2288, 19.79254
736.7109, 19.75463
737.1931, 19.73548
737.6752, 19.73188
738.1573, 19.73412
738.6394, 19.75000
739.1215, 19.75567
739.6036, 19.72998
740.0858, 19.68594
740.5679, 19.62369
741.0500, 19.55550
741.5321, 19.55036
742.0142, 19.66645
742.4963, 19.84117
742.9785, 19.88692
743.4606, 19.76241
743.9427, 19.65851
744.4248, 19.56420
744.9069, 19.52503
745.3890, 19.60334
745.8712, 19.73621
746.3533, 19.81600
746.8354, 19.81628
747.3175, 19.81104
747.7996, 19.84386
748.2817, 19.87972
748.7639, 19.88380
749.2460, 19.85907
749.7281, 19.81815
750.2102, 19.76655
750.6923, 19.71416
751.1744, 19.66996
751.6566, 19.63392
752.1387, 19.63777
752.6208, 19.70638
753.1029, 19.75548
753.5850, 19.74034
754.0671, 19.70405
754.5493, 19.69534
755.0314, 19.71299
755.5135, 19.71796
755.9956, 19.70683
756.4777, 19.67403
756.9598, 19.57493
757.4420, 19.47118
757.9241, 19.47124
758.4062, 19.57702
758.8883, 19.68125
759.3704, 19.70076
759.8525, 19.66076
760.3347, 19.63174
760.8168, 19.61658
761.2989, 19.58036
761.7810, 19.49099
762.2631, 19.43209
762.7452, 19.50497
763.2274, 19.65223
763.7095, 19.69135
764.1916, 19.55320
764.6737, 19.37678
765.1558, 19.49842
765.6379, 19.56591
766.1201, 19.58215
766.6022, 19.39366
767.0843, 19.46953
767.5664, 19.43946
768.0485, 19.40505
768.5306, 19.51813
769.0128, 19.35942
769.4949, 19.47017
769.9770, 19.47335
770.4591, 19.52576
770.9412, 19.47157
771.4233, 19.45031
771.9055, 19.53568
772.3876, 19.56201
772.8697, 19.49555
773.3518, 19.55109
773.8339, 19.38865
774.3160, 19.41749
774.7982, 19.52886
775.2803, 19.46776
775.7624, 19.52525
776.2445, 19.53757
776.7266, 19.34464
777.2087, 19.50867
777.6909, 19.51833
778.1730, 19.45282
778.6551, 19.48090
779.1372, 19.46734
779.6193, 19.45458
780.1014, 19.47512
780.5836, 19.51029
781.0657, 19.50355
781.5478, 19.42261
782.0299, 19.37275
782.5120, 19.34012
782.9941, 19.35271
783.4763, 19.47743
783.9584, 19.62783
784.4405, 19.67830
784.9226, 19.60541
785.4047, 19.51784
785.8868, 19.47202
786.3690, 19.44886
786.8511, 19.43773
787.3332, 19.43059
787.8153, 19.40026
788.2974, 19.34077
788.7795, 19.28548
789.2617, 19.26579
789.7438, 19.28095
790.2259, 19.33335
790.7080, 19.44129
791.1901, 19.53280
791.6722, 19.61050
792.1544, 19.65088
792.6365, 19.60885
793.1186, 19.52014
793.6007, 19.48034
794.0828, 19.52644
794.5649, 19.56712
795.0471, 19.57104
795.5292, 19.55413
796.0113, 19.52433
796.4934, 19.48676
796.9755, 19.44268
797.4576, 19.39358
797.9398, 19.36085
798.4219, 19.38141
798.9040, 19.44409
799.3861, 19.48899
799.8682, 19.51674
800.3503, 19.51795
800.8325, 19.47950
801.3146, 19.43292
801.7967, 19.41205
802.2788, 19.41706
802.7609, 19.43975
803.2430, 19.50714
803.7252, 19.55361
804.2073, 19.54494
804.6894, 19.53076
805.1715, 19.54923
805.6536, 19.59665
806.1357, 19.65763
806.6179, 19.73497
807.1000, 19.78726
807.5821, 19.76720
808.0642, 19.69703
808.5463, 19.58582
809.0284, 19.45327
809.5106, 19.43361
809.9927, 19.60015
810.4748, 19.81875
810.9569, 19.86717
811.4390, 19.72661
811.9211, 19.65981
812.4033, 19.70533
812.8854, 19.75104
813.3675, 19.78197
813.8496, 19.78554
814.3317, 19.72812
814.8138, 19.62366
815.2960, 19.56372
815.7781, 19.58424
816.2602, 19.63371
816.7423, 19.72511
817.2244, 19.80918
817.7065, 19.81959
818.1887, 19.76887
818.6708, 19.71676
819.1529, 19.69367
819.6350, 19.68987
820.1171, 19.70535
820.5992, 19.73188
821.0814, 19.70482
821.5635, 19.61483
822.0456, 19.54776
822.5277, 19.54615
823.0098, 19.57154
823.4919, 19.56335
823.9741, 19.51224
824.4562, 19.51815
824.9383, 19.65334
825.4204, 19.74904
825.9025, 19.75479
826.3846, 19.72812
826.8668, 19.70867
827.3489, 19.69851
827.8310, 19.68718
828.3131, 19.66737
828.7952, 19.65379
829.2773, 19.67636
829.7595, 19.70202
830.2416, 19.66001
830.7237, 19.56801
831.2058, 19.52869
831.6879, 19.59047
832.1700, 19.67513
832.6522, 19.65490
833.1343, 19.53636
833.6164, 19.50754
834.0985, 19.59175
834.5806, 19.67902
835.0627, 19.75955
835.5449, 19.79617
836.0270, 19.71989
836.5091, 19.54281
836.9912, 19.44625
837.4733, 19.46717
837.9554, 19.51990
838.4376, 19.64455
838.9197, 19.74607
839.4018, 19.73732
839.8839, 19.65245
840.3660, 19.57115
840.8481, 19.52033
841.3303, 19.49801
841.8124, 19.50341
842.2945, 19.53570
842.7766, 19.62332
843.2587, 19.74293
843.7408, 19.77750
844.2230, 19.68940
844.7051, 19.57912
845.1872, 19.55512
845.6693, 19.60644
846.1514, 19.66717
846.6335, 19.75359
847.1157, 19.79196
847.5978, 19.75531
848.0799, 19.68851
848.5620, 19.58425
849.0441, 19.47980
849.5262, 19.48004
850.0084, 19.65494
850.4905, 19.74758
850.9726, 19.63545
851.4547, 19.50487
851.9368, 19.46489
852.4189, 19.47583
852.9011, 19.46985
853.3832, 19.43386
853.8653, 19.40224
854.3474, 19.40765
854.8295, 19.42243
855.3116, 19.40108
855.7938, 19.35524
856.2759, 19.32066
856.7580, 19.30373
857.2401, 19.29443
857.7222, 19.28425
858.2043, 19.28354
858.6865, 19.33241
859.1686, 19.45934
859.6507, 19.47940
860.1328, 19.32940
860.6149, 19.19707
861.0970, 19.16593
861.5792, 19.18471
862.0613, 19.19414
862.5434, 19.19419
863.0255, 19.18474
863.5076, 19.14514
863.9897, 19.12243
864.4719, 19.14564
864.9540, 19.18108
865.4361, 19.21114
865.9182, 19.22490
866.4003, 19.19948
866.8824, 19.11986
867.3646, 19.03547
867.8467, 18.98148
868.3288, 18.95953
868.8109, 18.98903
869.2930, 19.05679
869.7751, 19.10595
870.2573, 19.11613
870.7394, 19.09933
871.2215, 19.06464
871.7036, 19.01677
872.1857, 18.98075
872.6678, 18.95471
873.1500, 18.95518
873.6321, 19.00723
874.1142, 19.04154
874.5963, 18.99146
875.0784, 18.89312
875.5605, 18.85406
876.0427, 18.89794
876.5248, 18.92707
877.0069, 18.93499
877.4890, 18.92711
877.9711, 18.89059
878.4532, 18.84869
878.9354, 18.83178
879.4175, 18.83947
879.8996, 18.84488
880.3817, 18.85020
880.8638, 18.82460
881.3459, 18.71191
881.8281, 18.56421
882.3102, 18.46669
882.7923, 18.42298
883.2744, 18.40005
883.7565, 18.38177
884.2386, 18.35960
884.7208, 18.30885
885.2029, 18.23810
885.6850, 18.22953
886.1671, 18.28963
886.6492, 18.33940
887.1313, 18.35660
887.6135, 18.35315
888.0956, 18.34288
888.5777, 18.32240
889.0598, 18.26452
889.5419, 18.11707
890.0240, 18.02581
890.5062, 18.04499
890.9883, 18.06653
891.4704, 18.04614
891.9525, 17.99811
892.4346, 17.93207
892.9167, 17.84740
893.3989, 17.80531
893.8810, 17.86090
894.3631, 17.92626
894.8452, 17.97561
895.3273, 17.98853
895.8094, 17.91106
896.2916, 17.76880
896.7737, 17.66805
897.2558, 17.66685
897.7379, 17.71680
898.2200, 17.77496
898.7021, 17.83466
899.1843, 17.87927
899.6664, 17.90839
900.1485, 17.93314
900.6306, 17.95858
901.1127, 17.95011
901.5948, 17.85787
902.0770, 17.70205
902.5591, 17.61781
903.0412, 17.62184
903.5233, 17.62139
904.0054, 17.60054
904.4875, 17.57901
904.9697, 17.57898
905.4518, 17.58181
905.9339, 17.53534
906.4160, 17.40695
906.8981, 17.34409
907.3802, 17.42746
907.8624, 17.47937
908.3445, 17.40589
908.8266, 17.30364
909.3087, 17.26919
909.7908, 17.29592
910.2729, 17.31547
910.7551, 17.29412
911.2372, 17.28426
911.7193, 17.35037
912.2014, 17.41876
912.6835, 17.39399
913.1656, 17.30750
913.6478, 17.24564
914.1299, 17.23512
914.6120, 17.23279
915.0941, 17.19699
915.5762, 17.14440
916.0583, 17.10018
916.5404, 17.06852
917.0225, 17.07892
917.5046, 17.13550
917.9868, 17.19938
918.4689, 17.24849
918.9510, 17.28133
919.4331, 17.28938
919.9152, 17.26805
920.3973, 17.28028
920.8795, 17.34924
921.3616, 17.38204
921.8437, 17.33883
922.3258, 17.26475
922.8079, 17.18939
923.2900, 17.11777
923.7722, 17.00425
924.2543, 17.12386
924.7364, 17.18931
925.2185, 17.20352
925.7006, 17.01300
926.1827, 17.08685
926.6649, 17.05475
927.1470, 17.01830
927.6291, 17.12936
928.1112, 16.96861
928.5933, 17.07733
929.0754, 17.07848
929.5576, 17.12886
930.0397, 17.07265
930.5218, 17.04935
931.0039, 17.13269
931.4860, 17.15699
931.9681, 17.08850
932.4503, 17.14201
932.9324, 16.97754
933.4145, 17.00435
933.8966, 17.11369
934.3787, 17.05056
934.8608, 17.10602
935.3430, 17.11631
935.8251, 16.92135
936.3072, 17.04435
936.7893, 17.12173
937.2714, 17.06212
937.7535, 16.86279
938.2357, 16.79955
938.7178, 16.90938
939.1999, 17.02549
939.6820, 17.09395
940.1641, 17.11481
940.6462, 17.07148
941.1284, 16.97339
941.6105, 16.96144
942.0926, 17.13024
942.5747, 17.19654
943.0568, 17.03210
943.5389, 16.88395
944.0211, 16.91639
944.5032, 17.02148
944.9853, 17.03006
945.4674, 16.92461
945.9495, 16.84132
946.4316, 16.81016
946.9138, 16.79552
947.3959, 16.79418
947.8780, 16.79644
948.3601, 16.79522
948.8422, 16.79049
949.3243, 16.78373
949.8065, 16.77484
950.2886, 16.76879
950.7707, 16.79059
951.2528, 16.79703
951.7349, 16.69909
952.2170, 16.57452
952.6992, 16.58947
953.1813, 16.74384
953.6634, 16.86717
954.1455, 16.84807
954.6276, 16.77238
955.1097, 16.75705
955.5919, 16.77731
956.0740, 16.75296
956.5561, 16.69279
957.0382, 16.69003
957.5203, 16.77536
958.0024, 16.86842
958.4846, 16.88810
958.9667, 16.85262
959.4488, 16.82356
959.9309, 16.80159
960.4130, 16.76010
960.8951, 16.68427
961.3773, 16.66061
961.8594, 16.75037
962.3415, 16.87039
962.8236, 16.89141
963.3057, 16.81129
963.7878, 16.80271
964.2700, 16.93318
964.7521, 16.98333
965.2342, 16.86984
965.7163, 16.73536
966.1984, 16.63538
966.6805, 16.58637
967.1627, 16.64218
967.6448, 16.84188
968.1269, 16.94662
968.6090, 16.85641
969.0911, 16.77872
969.5732, 16.79007
970.0554, 16.82237
970.5375, 16.82775
971.0196, 16.80444
971.5017, 16.75089
971.9838, 16.64979
972.4659, 16.59606
972.9481, 16.66347
973.4302, 16.75574
973.9123, 16.83279
974.3944, 16.87851
974.8765, 16.85371
975.3586, 16.77686
975.8408, 16.73893
976.3229, 16.79745
976.8050, 16.85557
977.2871, 16.83053
977.7692, 16.75331
978.2513, 16.62913
978.7335, 16.49613
979.2156, 16.45632
979.6977, 16.52234
980.1798, 16.57729
980.6619, 16.52018
981.1440, 16.43623
981.6262, 16.48390
982.1083, 16.62200
982.5904, 16.72460
983.0725, 16.77990
983.5546, 16.77433
984.0367, 16.70311
984.5189, 16.63267
985.0010, 16.64033
985.4831, 16.69915
985.9652, 16.70747
986.4473, 16.66482
986.9294, 16.63531
987.4116, 16.62479
987.8937, 16.64589
988.3758, 16.71617
988.8579, 16.78474
989.3400, 16.77530
989.8221, 16.69241
990.3043, 16.64312
990.7864, 16.63893
991.2685, 16.62951
991.7506, 16.60287
992.2327, 16.58060
992.7148, 16.57898
993.1970, 16.58598
993.6791, 16.57823
994.1612, 16.55166
994.6433, 16.54084
995.1254, 16.53826
995.6075, 16.56287
996.0897, 16.68012
996.5718, 16.76208
997.0539, 16.68494
997.5360, 16.53226
998.0181, 16.47993
998.5002, 16.55946
998.9824, 16.61312
999.4645, 16.59492
999.9466, 16.57867
1000.429, 16.60784
1000.911, 16.63174
1001.393, 16.57658
1001.875, 16.48708
1002.357, 16.48794
1002.839, 16.62339
1003.321, 16.73564
1003.804, 16.73946
1004.286, 16.73052
1004.768, 16.78390
1005.250, 16.84390
1005.732, 16.84085
1006.214, 16.78261
1006.696, 16.71238
1007.178, 16.64169
1007.660, 16.59911
1008.143, 16.64459
1008.625, 16.68941
1009.107, 16.60938
1009.589, 16.48713
1010.071, 16.47321
1010.553, 16.56729
1011.035, 16.66403
1011.517, 16.71029
1012.000, 16.73166
1012.482, 16.74021
1012.964, 16.74896
1013.446, 16.79505
1013.928, 16.85475
1014.410, 16.85910
1014.892, 16.80223
1015.374, 16.74074
1015.856, 16.70909
1016.339, 16.69874
1016.821, 16.70867
1017.303, 16.72756
1017.785, 16.73026
1018.267, 16.71395
1018.749, 16.65613
1019.231, 16.55676
1019.713, 16.47926
1020.195, 16.46934
1020.678, 16.51591
1021.160, 16.63160
1021.642, 16.79352
1022.124, 16.82906
1022.606, 16.74110
1023.088, 16.72326
1023.570, 16.83549
1024.052, 16.92369
1024.535, 16.85137
1025.017, 16.69926
1025.499, 16.68357
1025.981, 16.80768
1026.463, 16.83532
1026.945, 16.74585
1027.427, 16.70207
1027.909, 16.75943
1028.391, 16.85271
1028.874, 16.93380
1029.356, 16.99400
1029.838, 17.00006
1030.320, 16.94009
1030.802, 16.89503
1031.284, 16.86892
1031.766, 16.84384
1032.248, 16.81005
1032.731, 16.78629
1033.213, 16.79472
1033.695, 16.82350
1034.177, 16.82705
1034.659, 16.79145
1035.141, 16.78268
1035.623, 16.82869
1036.105, 16.83579
1036.588, 16.73916
1037.070, 16.64687
1037.552, 16.66677
1038.034, 16.76902
1038.516, 16.83730
1038.998, 16.87424
1039.480, 16.86858
1039.962, 16.77335
1040.444, 16.70970
1040.927, 16.73449
1041.409, 16.78237
1041.891, 16.81483
1042.373, 16.82372
1042.855, 16.76876
1043.337, 16.58285
1043.819, 16.49171
1044.301, 16.53769
1044.783, 16.62200
1045.266, 16.75072
1045.748, 16.87915
1046.230, 16.99454
1046.712, 17.07891
1047.194, 17.06653
1047.676, 16.90367
1048.158, 16.79016
1048.640, 16.76623
1049.123, 16.76658
1049.605, 16.79027
1050.087, 16.81324
1050.569, 16.80569
1051.051, 16.78238
1051.533, 16.79306
1052.015, 16.86143
1052.497, 16.89357
1052.979, 16.83795
1053.462, 16.78822
1053.944, 16.77795
1054.426, 16.78773
1054.908, 16.80515
1055.390, 16.82758
1055.872, 16.86228
1056.354, 16.92263
1056.836, 16.92242
1057.318, 16.75898
1057.801, 16.63444
1058.283, 16.65391
1058.765, 16.72384
1059.247, 16.79910
1059.729, 16.85026
1060.211, 16.80749
1060.693, 16.64315
1061.175, 16.55465
1061.658, 16.66933
1062.140, 16.78798
1062.622, 16.81651
1063.104, 16.82122
1063.586, 16.88103
1064.068, 16.95612
1064.550, 16.94719
1065.032, 16.83366
1065.515, 16.73135
1065.997, 16.69067
1066.479, 16.66022
1066.961, 16.60965
1067.443, 16.56705
1067.925, 16.56414
1068.407, 16.58356
1068.889, 16.58954
1069.371, 16.57635
1069.854, 16.57218
1070.336, 16.57700
1070.818, 16.60809
1071.300, 16.71690
1071.782, 16.81317
1072.264, 16.80891
1072.746, 16.74809
1073.228, 16.71103
1073.710, 16.70746
1074.193, 16.68263
1074.675, 16.57389
1075.157, 16.51059
1075.639, 16.60294
1076.121, 16.71389
1076.603, 16.73512
1077.085, 16.70581
1077.567, 16.59463
1078.050, 16.71811
1078.532, 16.78743
1079.014, 16.80550
1079.496, 16.61884
1079.978, 16.69655
1080.460, 16.66831
1080.942, 16.63573
1081.424, 16.75065
1081.906, 16.59377
1082.389, 16.70635
1082.871, 16.71136
1083.353, 16.76561
1083.835, 16.71325
1084.317, 16.69382
1084.799, 16.78103
1085.281, 16.80919
1085.763, 16.74456
1086.245, 16.80193
1086.728, 16.64133
1087.210, 16.67200
1087.692, 16.78521
1088.174, 16.72594
1088.656, 16.78526
1089.138, 16.79942
1089.620, 16.60831
1090.102, 16.77418
1090.584, 16.78567
1091.067, 16.63864
1091.549, 16.79228
1092.031, 16.66711
1092.513, 16.64145
1092.995, 16.69069
1093.477, 16.66185
1093.959, 16.75611
1094.441, 16.73178
1094.924, 16.69686
1095.406, 16.70818
1095.888, 16.58847
1096.370, 16.71184
1096.852, 16.66916
1097.334, 16.70902
1097.816, 16.76759
1098.298, 16.68292
1098.781, 16.74989
1099.263, 16.58170
1099.745, 16.61028
1100.227, 16.61766
1100.709, 16.75083
1101.191, 16.58378
1101.673, 16.60689
1102.155, 16.71097
1102.637, 16.70175
1103.120, 16.73991
1103.602, 16.63783
1104.084, 16.66750
1104.566, 16.66084
1105.048, 16.77967
1105.530, 16.79943
1106.012, 16.69974
1106.494, 16.60055
1106.976, 16.72840
1107.459, 16.64107
1107.941, 16.66982
1108.423, 16.57868
1108.905, 16.59106
1109.387, 16.60180
1109.869, 16.66560
1110.351, 16.56849
1110.833, 16.68011
1111.316, 16.67109
1111.798, 16.69761
1112.280, 16.72018
1112.762, 16.58085
1113.244, 16.57423
1113.726, 16.75752
1114.208, 16.65120
1114.690, 16.60333
1115.172, 16.59701
1115.655, 16.78680
1116.137, 16.79431
1116.619, 16.58394
1117.101, 16.76509
1117.583, 16.70537
1118.065, 16.71723
1118.547, 16.70297
1119.029, 16.69645
1119.511, 16.59159
1119.994, 16.61632
1120.476, 16.74640
1120.958, 16.69686
1121.440, 16.76938
1121.922, 16.61945
1122.404, 16.60156
1122.886, 16.61872
1123.368, 16.64866
1123.851, 16.70331
1124.333, 16.64130
1124.815, 16.59808
1125.297, 16.56482
1125.779, 16.58846
1126.261, 16.71069
1126.743, 16.79830
1127.225, 16.77289
1127.708, 16.67537
1128.190, 16.54779
1128.672, 16.40321
1129.154, 16.38888
1129.636, 16.52671
1130.118, 16.63899
1130.600, 16.70805
1131.082, 16.76416
1131.564, 16.82288
1132.047, 16.85138
1132.529, 16.81421
1133.011, 16.72746
1133.493, 16.61865
1133.975, 16.49078
1134.457, 16.48485
1134.939, 16.60319
1135.421, 16.67380
1135.903, 16.65220
1136.386, 16.61053
1136.868, 16.73926
1137.350, 16.81384
1137.832, 16.83717
1138.314, 16.65576
1138.796, 16.73873
1139.278, 16.71575
1139.760, 16.68843
1140.243, 16.80861
1140.725, 16.65699
1141.207, 16.77482
1141.689, 16.78509
1142.171, 16.84459
1142.653, 16.79749
1143.135, 16.78332
1143.617, 16.87578
1144.099, 16.90920
1144.582, 16.84984
1145.064, 16.91247
1145.546, 16.75712
1146.028, 16.79305
1146.510, 16.91151
1146.992, 16.85750
1147.474, 16.92208
1147.956, 16.78823
1148.438, 16.83972
1148.921, 16.87669
1149.403, 16.83909
1149.885, 16.75408
1150.367, 16.73082
1150.849, 16.80919
1151.331, 16.89583
1151.813, 16.94564
1152.295, 16.96427
1152.778, 16.91942
1153.260, 16.87804
1153.742, 16.94408
1154.224, 17.04730
1154.706, 17.03069
1155.188, 16.89105
1155.670, 16.82048
1156.152, 16.93322
1156.635, 17.02073
1157.117, 16.97344
1157.599, 16.92121
1158.081, 16.93935
1158.563, 16.98512
1159.045, 17.01871
1159.527, 17.03834
1160.009, 17.05163
1160.491, 17.06096
1160.974, 17.05675
1161.456, 17.01510
1161.938, 16.99282
1162.420, 17.01957
1162.902, 17.04830
1163.384, 17.05848
1163.866, 17.05133
1164.348, 17.01690
1164.830, 16.95972
1165.313, 16.96085
1165.795, 17.06824
1166.277, 17.10220
1166.759, 17.01926
1167.241, 16.95609
1167.723, 16.96144
1168.205, 16.99152
1168.687, 17.01004
1169.170, 17.02642
1169.652, 17.07782
1170.134, 17.16634
1170.616, 17.11222
1171.098, 16.89840
1171.580, 16.82068
1172.062, 16.93700
1172.544, 17.05364
1173.026, 17.07409
1173.509, 17.05017
1173.991, 17.04077
1174.473, 17.03624
1174.955, 17.00267
1175.437, 16.95073
1175.919, 16.92791
1176.401, 16.93319
1176.883, 16.93443
1177.365, 16.92947
1177.848, 16.97796
1178.330, 17.12485
1178.812, 17.27485
1179.294, 17.31379
1179.776, 17.28934
1180.258, 17.24989
1180.740, 17.21110
1181.222, 17.21836
1181.705, 17.24727
1182.187, 17.20178
1182.669, 17.06290
1183.151, 16.96678
1183.633, 17.01773
1184.115, 17.09192
1184.597, 17.10323
1185.079, 17.10854
1185.562, 17.18527
1186.044, 17.26625
1186.526, 17.22913
1187.008, 17.10682
1187.490, 17.06711
1187.972, 17.17131
1188.454, 17.24680
1188.936, 17.22472
1189.418, 17.20725
1189.901, 17.25729
1190.383, 17.28845
1190.865, 17.20029
1191.347, 17.08306
1191.829, 17.10060
1192.311, 17.23908
1192.793, 17.26065
1193.275, 17.06657
1193.757, 17.01433
1194.240, 17.18823
1194.722, 17.31042
1195.204, 17.27941
1195.686, 17.21870
1196.168, 17.21200
1196.650, 17.26235
1197.132, 17.40483
1197.614, 17.62094
1198.097, 17.61087
1198.579, 17.37872
1199.061, 17.22669
1199.543, 17.19296
1200.025, 17.19676
1200.507, 17.20609
1200.989, 17.21822
1201.471, 17.23234
1201.953, 17.24190
1202.436, 17.21629
1202.918, 17.18674
1203.400, 17.24529
1203.882, 17.35567
1204.364, 17.42322
1204.846, 17.43385
1205.328, 17.40298
1205.810, 17.33797
1206.292, 17.28025
1206.775, 17.24221
1207.257, 17.24787
1207.739, 17.36315
1208.221, 17.48777
1208.703, 17.51366
1209.185, 17.48523
1209.667, 17.47867
1210.149, 17.49868
1210.632, 17.51418
1211.114, 17.52830
1211.596, 17.49847
1212.078, 17.35046
1212.560, 17.24540
1213.042, 17.25542
1213.524, 17.30372
1214.006, 17.35314
1214.489, 17.39938
1214.971, 17.44560
1215.453, 17.48779
1215.935, 17.47217
1216.417, 17.36975
1216.899, 17.30254
1217.381, 17.27425
1217.863, 17.28490
1218.345, 17.34389
1218.828, 17.40034
1219.310, 17.41886
1219.792, 17.41048
1220.274, 17.38227
1220.756, 17.34877
1221.238, 17.39764
1221.720, 17.50782
1222.202, 17.55614
1222.684, 17.53934
1223.167, 17.51353
1223.649, 17.49976
1224.131, 17.51742
1224.613, 17.58917
1225.095, 17.64156
1225.577, 17.55589
1226.059, 17.43868
1226.541, 17.40672
1227.024, 17.43987
1227.506, 17.53719
1227.988, 17.65753
1228.470, 17.71885
1228.952, 17.70440
1229.434, 17.66312
1229.916, 17.59306
1230.398, 17.53809
1230.880, 17.50560
1231.363, 17.50123
1231.845, 17.55437
1232.327, 17.61374
1232.809, 17.62972
1233.291, 17.61535
1233.773, 17.60766
1234.255, 17.60861
1234.737, 17.58664
1235.219, 17.51963
1235.702, 17.50364
1236.184, 17.57315
1236.666, 17.58979
1237.148, 17.47620
1237.630, 17.42337
1238.112, 17.62132
1238.594, 17.89887
1239.076, 17.86715
1239.559, 17.59770
1240.041, 17.48271
1240.523, 17.49443
1241.005, 17.50089
1241.487, 17.49022
1241.969, 17.52023
1242.451, 17.60241
1242.933, 17.64738
1243.416, 17.57678
1243.898, 17.49708
1244.380, 17.49948
1244.862, 17.56210
1245.344, 17.72145
1245.826, 17.88374
1246.308, 17.92636
1246.790, 17.87003
1247.272, 17.77616
1247.755, 17.65988
1248.237, 17.59855
1248.719, 17.63483
1249.201, 17.69423
1249.683, 17.79914
1250.165, 17.87888
1250.647, 17.90676
1251.129, 17.89875
1251.611, 17.84890
1252.094, 17.78738
1252.576, 17.77928
1253.058, 17.82282
1253.540, 17.84537
1254.022, 17.84549
1254.504, 17.83453
1254.986, 17.81253
1255.468, 17.80368
1255.951, 17.81578
1256.433, 17.85489
1256.915, 17.92924
1257.397, 18.00014
1257.879, 18.01759
1258.361, 17.98851
1258.843, 17.89673
1259.325, 17.78376
1259.807, 17.71914
1260.290, 17.70758
1260.772, 17.75641
1261.254, 17.85114
1261.736, 17.91181
1262.218, 17.89454
1262.700, 17.87518
1263.182, 17.88912
1263.664, 17.90911
1264.146, 17.93583
1264.629, 17.94953
1265.111, 17.89628
1265.593, 17.84376
1266.075, 17.93765
1266.557, 18.14503
1267.039, 18.18481
1267.521, 17.97354
1268.003, 17.88595
1268.486, 17.94768
1268.968, 18.03088
1269.450, 18.11457
1269.932, 18.17608
1270.414, 18.20477
1270.896, 18.18717
1271.378, 18.09529
1271.860, 17.97194
1272.343, 17.90352
1272.825, 17.88261
1273.307, 17.90360
1273.789, 17.95195
1274.271, 18.01005
1274.753, 18.06013
1275.235, 18.04314
1275.717, 17.94117
1276.199, 17.88839
1276.682, 18.01535
1277.164, 18.12770
1277.646, 18.09044
1278.128, 18.05532
1278.610, 18.15263
1279.092, 18.27245
1279.574, 18.30059
1280.056, 18.25316
1280.538, 18.17418
1281.021, 18.05781
1281.503, 18.03167
1281.985, 18.13730
1282.467, 18.16638
1282.949, 18.07969
1283.431, 18.04994
1283.913, 18.13895
1284.395, 18.21261
1284.878, 18.17160
1285.360, 18.10114
1285.842, 18.14032
1286.324, 18.23028
1286.806, 18.26829
1287.288, 18.25953
##END=



