##NAMES=Magnesiohulsite
##RRUFFID=R070223
##IDEAL CHEMISTRY=Mg_2_Fe^3+^O_2_(BO_3_)
##LOCALITY=Iten'yurginskoye Deposit, Chukotka (Tchukotka) Okrug, Chukot Peninsula, Far-Eastern Region, Russia
##OWNER=RRUFF
##SOURCE=Michael Scott
##DESCRIPTION=Radiating black fibrous crystals
##STATUS=The identification of this mineral is not yet confirmed.
##URL=rruff.info/R070223
169.7132, 1222.067
170.1953, 1228.018
170.6774, 1234.121
171.1595, 1238.199
171.6417, 1237.884
172.1238, 1235.477
172.6059, 1237.524
173.0880, 1247.151
173.5701, 1254.892
174.0522, 1255.305
174.5344, 1251.677
175.0165, 1248.614
175.4986, 1248.536
175.9807, 1250.348
176.4628, 1250.860
176.9449, 1248.989
177.4271, 1247.841
177.9092, 1249.517
178.3913, 1252.315
178.8734, 1253.335
179.3555, 1249.823
179.8376, 1244.875
180.3198, 1249.022
180.8019, 1270.448
181.2840, 1286.308
181.7661, 1285.967
182.2482, 1277.922
182.7303, 1272.257
183.2125, 1273.678
183.6946, 1280.848
184.1767, 1290.590
184.6588, 1305.349
185.1409, 1318.242
185.6230, 1329.357
186.1051, 1337.289
186.5873, 1339.087
187.0694, 1332.255
187.5515, 1321.686
188.0336, 1320.897
188.5157, 1335.849
188.9978, 1350.888
189.4800, 1367.020
189.9621, 1379.677
190.4442, 1382.288
190.9263, 1371.093
191.4084, 1353.184
191.8905, 1346.468
192.3727, 1358.852
192.8548, 1368.737
193.3369, 1370.851
193.8190, 1369.904
194.3011, 1370.317
194.7832, 1373.848
195.2654, 1379.316
195.7475, 1384.729
196.2296, 1392.713
196.7117, 1395.266
197.1938, 1386.220
197.6759, 1375.058
198.1581, 1370.223
198.6402, 1374.498
199.1223, 1384.218
199.6044, 1393.418
200.0865, 1404.689
200.5686, 1409.658
201.0508, 1402.096
201.5329, 1392.573
202.0150, 1390.699
202.4971, 1398.649
202.9792, 1409.353
203.4613, 1411.085
203.9435, 1399.561
204.4256, 1388.325
204.9077, 1374.879
205.3898, 1363.955
205.8719, 1361.178
206.3540, 1366.578
206.8362, 1372.957
207.3183, 1368.660
207.8004, 1345.271
208.2825, 1333.133
208.7646, 1340.335
209.2467, 1351.190
209.7289, 1357.008
210.2110, 1356.696
210.6931, 1354.487
211.1752, 1355.743
211.6573, 1362.413
212.1395, 1365.240
212.6216, 1361.683
213.1037, 1356.761
213.5858, 1351.727
214.0679, 1347.319
214.5500, 1344.554
215.0322, 1344.572
215.5143, 1347.663
215.9964, 1351.716
216.4785, 1359.240
216.9606, 1365.417
217.4427, 1368.310
217.9249, 1368.199
218.4070, 1366.426
218.8891, 1364.025
219.3712, 1360.999
219.8533, 1357.172
220.3354, 1345.256
220.8176, 1339.832
221.2997, 1352.054
221.7818, 1373.899
222.2639, 1389.166
222.7460, 1385.520
223.2281, 1364.992
223.7103, 1349.779
224.1924, 1341.514
224.6745, 1337.516
225.1566, 1339.492
225.6387, 1344.888
226.1208, 1350.979
226.6030, 1356.675
227.0851, 1360.742
227.5672, 1357.471
228.0493, 1338.203
228.5314, 1323.073
229.0135, 1316.976
229.4957, 1316.029
229.9778, 1316.981
230.4599, 1318.568
230.9420, 1318.705
231.4241, 1310.860
231.9062, 1284.731
232.3884, 1268.896
232.8705, 1271.583
233.3526, 1281.934
233.8347, 1291.342
234.3168, 1296.831
234.7989, 1299.806
235.2811, 1302.878
235.7632, 1307.399
236.2453, 1308.615
236.7274, 1301.184
237.2095, 1294.139
237.6916, 1295.168
238.1738, 1304.989
238.6559, 1316.464
239.1380, 1321.220
239.6201, 1318.579
240.1022, 1311.428
240.5843, 1292.956
241.0665, 1275.647
241.5486, 1265.068
242.0307, 1261.567
242.5128, 1262.793
242.9949, 1268.701
243.4770, 1280.284
243.9592, 1284.454
244.4413, 1271.943
244.9234, 1260.460
245.4055, 1257.324
245.8876, 1260.773
246.3697, 1265.086
246.8519, 1265.795
247.3340, 1263.567
247.8161, 1264.813
248.2982, 1274.380
248.7803, 1280.822
249.2624, 1277.628
249.7446, 1269.427
250.2267, 1263.952
250.7088, 1265.965
251.1909, 1272.669
251.6730, 1276.008
252.1551, 1274.958
252.6373, 1272.455
253.1194, 1268.523
253.6015, 1264.197
254.0836, 1261.484
254.5657, 1261.861
255.0478, 1261.203
255.5300, 1249.517
256.0121, 1221.130
256.4942, 1203.574
256.9763, 1216.485
257.4584, 1236.667
257.9406, 1247.199
258.4227, 1244.350
258.9048, 1237.672
259.3869, 1237.964
259.8690, 1245.680
260.3511, 1249.668
260.8333, 1245.493
261.3154, 1238.814
261.7975, 1233.123
262.2796, 1228.669
262.7617, 1225.355
263.2438, 1223.578
263.7260, 1223.058
264.2081, 1222.312
264.6902, 1221.551
265.1723, 1219.911
265.6544, 1215.883
266.1365, 1210.315
266.6187, 1206.170
267.1008, 1204.925
267.5829, 1206.027
268.0650, 1209.243
268.5471, 1215.746
269.0292, 1220.492
269.5114, 1216.996
269.9935, 1209.556
270.4756, 1205.639
270.9577, 1209.225
271.4398, 1215.432
271.9219, 1218.843
272.4041, 1219.388
272.8862, 1219.768
273.3683, 1222.352
273.8504, 1224.981
274.3325, 1223.581
274.8146, 1216.133
275.2968, 1207.958
275.7789, 1200.541
276.2610, 1194.777
276.7431, 1195.417
277.2252, 1206.750
277.7073, 1221.757
278.1895, 1228.690
278.6716, 1226.842
279.1537, 1222.888
279.6358, 1218.579
280.1179, 1213.839
280.6000, 1207.341
281.0822, 1198.135
281.5643, 1191.150
282.0464, 1193.836
282.5285, 1207.141
283.0106, 1217.725
283.4927, 1224.441
283.9749, 1227.590
284.4570, 1226.478
284.9391, 1221.378
285.4212, 1214.759
285.9033, 1207.592
286.3854, 1200.242
286.8676, 1198.994
287.3497, 1210.193
287.8318, 1220.757
288.3139, 1225.004
288.7960, 1223.539
289.2781, 1217.619
289.7603, 1207.003
290.2424, 1194.012
290.7245, 1188.870
291.2066, 1201.426
291.6887, 1209.112
292.1708, 1204.270
292.6530, 1194.249
293.1351, 1187.991
293.6172, 1188.652
294.0993, 1193.823
294.5814, 1199.542
295.0635, 1207.856
295.5457, 1212.545
296.0278, 1210.950
296.5099, 1207.919
296.9920, 1206.768
297.4741, 1207.870
297.9562, 1209.763
298.4384, 1211.144
298.9205, 1212.175
299.4026, 1211.452
299.8847, 1209.209
300.3668, 1205.056
300.8489, 1196.328
301.3311, 1185.563
301.8132, 1177.751
302.2953, 1176.249
302.7774, 1180.240
303.2595, 1185.720
303.7416, 1193.788
304.2238, 1201.805
304.7059, 1211.591
305.1880, 1220.056
305.6701, 1223.385
306.1522, 1220.067
306.6343, 1213.137
307.1165, 1206.213
307.5986, 1197.737
308.0807, 1195.247
308.5628, 1207.266
309.0449, 1220.797
309.5270, 1228.626
310.0091, 1229.976
310.4912, 1227.666
310.9734, 1222.921
311.4555, 1216.023
311.9376, 1210.013
312.4197, 1204.610
312.9018, 1201.014
313.3839, 1200.144
313.8661, 1201.426
314.3482, 1203.530
314.8303, 1208.162
315.3124, 1212.243
315.7945, 1208.286
316.2766, 1194.437
316.7588, 1183.490
317.2409, 1183.900
317.7230, 1191.332
318.2051, 1198.847
318.6872, 1206.177
319.1693, 1212.501
319.6515, 1217.685
320.1336, 1221.455
320.6157, 1222.289
321.0978, 1218.855
321.5799, 1213.513
322.0620, 1209.863
322.5442, 1207.962
323.0263, 1206.698
323.5084, 1205.427
323.9905, 1204.755
324.4726, 1206.204
324.9547, 1210.013
325.4369, 1213.221
325.9190, 1212.599
326.4011, 1207.654
326.8832, 1204.732
327.3653, 1205.826
327.8474, 1207.021
328.3296, 1205.561
328.8117, 1202.255
329.2938, 1199.475
329.7759, 1198.389
330.2580, 1199.258
330.7401, 1203.336
331.2223, 1213.094
331.7044, 1223.060
332.1865, 1237.791
332.6686, 1250.159
333.1507, 1249.391
333.6328, 1233.209
334.1150, 1213.176
334.5971, 1207.445
335.0792, 1223.801
335.5613, 1233.515
336.0434, 1233.761
336.5255, 1230.743
337.0077, 1224.813
337.4898, 1217.976
337.9719, 1214.875
338.4540, 1220.770
338.9361, 1233.951
339.4182, 1238.254
339.9004, 1225.441
340.3825, 1215.796
340.8646, 1218.444
341.3467, 1226.143
341.8288, 1228.824
342.3109, 1221.886
342.7931, 1212.700
343.2752, 1214.701
343.7573, 1230.486
344.2394, 1238.488
344.7215, 1224.642
345.2036, 1208.294
345.6858, 1206.620
346.1679, 1220.063
346.6500, 1233.056
347.1321, 1234.195
347.6142, 1227.421
348.0963, 1224.598
348.5785, 1228.655
349.0606, 1230.989
349.5427, 1220.003
350.0248, 1201.225
350.5069, 1191.745
350.9890, 1202.445
351.4712, 1217.244
351.9533, 1223.401
352.4354, 1222.016
352.9175, 1218.785
353.3996, 1215.601
353.8817, 1213.116
354.3639, 1213.328
354.8460, 1216.713
355.3281, 1221.008
355.8102, 1229.946
356.2923, 1237.636
356.7744, 1234.254
357.2566, 1218.469
357.7387, 1201.666
358.2208, 1197.406
358.7029, 1209.281
359.1850, 1213.607
359.6671, 1200.526
360.1493, 1190.773
360.6314, 1196.740
361.1135, 1213.217
361.5956, 1228.576
362.0777, 1236.284
362.5598, 1236.955
363.0420, 1232.163
363.5241, 1214.582
364.0062, 1203.542
364.4883, 1204.831
364.9704, 1210.590
365.4525, 1214.372
365.9347, 1214.778
366.4168, 1214.613
366.8989, 1217.967
367.3810, 1225.308
367.8631, 1228.115
368.3452, 1219.414
368.8274, 1214.324
369.3095, 1224.587
369.7916, 1244.111
370.2737, 1257.978
370.7558, 1256.916
371.2379, 1248.120
371.7201, 1243.132
372.2022, 1242.188
372.6843, 1242.872
373.1664, 1244.859
373.6485, 1247.590
374.1306, 1250.255
374.6128, 1252.922
375.0949, 1255.186
375.5770, 1256.334
376.0591, 1256.995
376.5412, 1259.129
377.0233, 1263.474
377.5055, 1266.448
377.9876, 1262.820
378.4697, 1251.630
378.9518, 1247.986
379.4339, 1258.192
379.9160, 1270.491
380.3982, 1279.588
380.8803, 1285.078
381.3624, 1285.921
381.8445, 1280.856
382.3266, 1273.252
382.8087, 1273.512
383.2909, 1296.059
383.7730, 1307.340
384.2551, 1298.378
384.7372, 1283.432
385.2193, 1272.821
385.7014, 1268.833
386.1836, 1269.271
386.6657, 1272.950
387.1478, 1280.232
387.6299, 1283.228
388.1120, 1274.248
388.5941, 1270.077
389.0763, 1281.992
389.5584, 1300.745
390.0405, 1310.298
390.5226, 1301.731
391.0047, 1287.554
391.4868, 1289.698
391.9690, 1310.322
392.4511, 1326.499
392.9332, 1330.137
393.4153, 1328.647
393.8974, 1329.798
394.3795, 1333.643
394.8617, 1334.859
395.3438, 1327.811
395.8259, 1317.511
396.3080, 1310.889
396.7901, 1308.368
397.2722, 1313.497
397.7544, 1332.617
398.2365, 1361.746
398.7186, 1379.890
399.2007, 1381.443
399.6828, 1378.480
400.1649, 1373.611
400.6471, 1367.742
401.1292, 1361.803
401.6113, 1356.062
402.0934, 1351.766
402.5755, 1350.750
403.0576, 1353.696
403.5398, 1358.226
404.0219, 1369.812
404.5040, 1377.770
404.9861, 1371.813
405.4682, 1357.481
405.9503, 1349.838
406.4325, 1359.739
406.9146, 1380.337
407.3967, 1386.075
407.8788, 1367.903
408.3609, 1353.342
408.8430, 1349.200
409.3252, 1349.374
409.8073, 1349.399
410.2894, 1348.541
410.7715, 1348.547
411.2536, 1352.013
411.7357, 1357.975
412.2179, 1360.879
412.7000, 1359.084
413.1821, 1357.299
413.6642, 1359.325
414.1463, 1363.655
414.6284, 1367.449
415.1106, 1370.433
415.5927, 1372.462
416.0748, 1374.339
416.5569, 1375.300
417.0390, 1371.953
417.5211, 1362.296
418.0033, 1351.126
418.4854, 1346.061
418.9675, 1349.808
419.4496, 1350.540
419.9317, 1345.116
420.4138, 1338.825
420.8960, 1334.361
421.3781, 1332.126
421.8602, 1332.459
422.3423, 1335.912
422.8244, 1341.378
423.3065, 1344.106
423.7887, 1343.294
424.2708, 1340.748
424.7529, 1331.923
425.2350, 1324.741
425.7171, 1329.000
426.1992, 1344.294
426.6814, 1357.618
427.1635, 1353.197
427.6456, 1333.087
428.1277, 1322.928
428.6098, 1326.389
429.0919, 1332.907
429.5741, 1337.754
430.0562, 1341.901
430.5383, 1347.373
431.0204, 1356.495
431.5025, 1363.022
431.9846, 1360.854
432.4668, 1351.632
432.9489, 1339.729
433.4310, 1324.724
433.9131, 1312.630
434.3952, 1311.756
434.8773, 1323.388
435.3595, 1333.817
435.8416, 1341.898
436.3237, 1348.971
436.8058, 1358.661
437.2879, 1368.096
437.7701, 1369.207
438.2522, 1357.365
438.7343, 1337.918
439.2164, 1324.442
439.6985, 1319.704
440.1806, 1316.411
440.6628, 1312.601
441.1449, 1311.357
441.6270, 1315.690
442.1091, 1324.731
442.5912, 1334.978
443.0733, 1344.622
443.5555, 1353.061
444.0376, 1358.125
444.5197, 1359.992
445.0018, 1357.896
445.4839, 1342.469
445.9660, 1327.699
446.4482, 1331.143
446.9303, 1357.586
447.4124, 1381.021
447.8945, 1383.811
448.3766, 1372.644
448.8587, 1358.636
449.3409, 1342.582
449.8230, 1332.457
450.3051, 1336.376
450.7872, 1352.798
451.2693, 1364.010
451.7514, 1369.043
452.2336, 1370.474
452.7157, 1367.189
453.1978, 1361.484
453.6799, 1355.672
454.1620, 1350.662
454.6441, 1347.818
455.1263, 1349.573
455.6084, 1357.351
456.0905, 1361.640
456.5726, 1357.733
457.0547, 1355.031
457.5368, 1356.166
458.0190, 1360.450
458.5011, 1367.470
458.9832, 1377.801
459.4653, 1387.200
459.9474, 1388.057
460.4295, 1380.201
460.9117, 1375.410
461.3938, 1377.277
461.8759, 1381.008
462.3580, 1382.735
462.8401, 1382.675
463.3222, 1381.696
463.8044, 1378.804
464.2865, 1376.055
464.7686, 1376.908
465.2507, 1379.919
465.7328, 1378.572
466.2149, 1369.316
466.6971, 1356.810
467.1792, 1350.262
467.6613, 1352.784
468.1434, 1355.151
468.6255, 1355.397
469.1076, 1357.182
469.5898, 1366.229
470.0719, 1379.065
470.5540, 1385.797
471.0361, 1379.624
471.5182, 1364.769
472.0003, 1352.910
472.4825, 1344.115
472.9646, 1338.373
473.4467, 1337.154
473.9288, 1338.111
474.4109, 1341.435
474.8930, 1346.426
475.3752, 1348.789
475.8573, 1340.845
476.3394, 1330.767
476.8215, 1336.029
477.3036, 1357.146
477.7857, 1373.553
478.2679, 1373.942
478.7500, 1363.981
479.2321, 1357.090
479.7142, 1354.231
480.1963, 1351.543
480.6784, 1348.117
481.1606, 1344.673
481.6427, 1341.380
482.1248, 1338.570
482.6069, 1337.732
483.0890, 1340.595
483.5711, 1345.678
484.0533, 1344.333
484.5354, 1330.601
485.0175, 1320.178
485.4996, 1314.151
485.9817, 1312.627
486.4638, 1318.168
486.9460, 1329.779
487.4281, 1339.934
487.9102, 1340.771
488.3923, 1335.728
488.8744, 1337.019
489.3565, 1346.609
489.8387, 1351.024
490.3208, 1338.394
490.8029, 1318.954
491.2850, 1315.111
491.7671, 1333.634
492.2492, 1347.891
492.7314, 1344.736
493.2135, 1334.917
493.6956, 1330.949
494.1777, 1333.636
494.6598, 1336.002
495.1419, 1332.502
495.6241, 1324.289
496.1062, 1318.775
496.5883, 1318.007
497.0704, 1317.242
497.5525, 1315.050
498.0346, 1313.313
498.5168, 1315.352
498.9989, 1320.443
499.4810, 1322.547
499.9631, 1313.901
500.4452, 1298.378
500.9273, 1291.539
501.4095, 1295.165
501.8916, 1300.040
502.3737, 1302.769
502.8558, 1304.100
503.3379, 1306.059
503.8200, 1309.797
504.3022, 1309.333
504.7843, 1297.114
505.2664, 1282.549
505.7485, 1278.397
506.2306, 1284.255
506.7127, 1289.438
507.1949, 1286.596
507.6770, 1277.697
508.1591, 1271.420
508.6412, 1270.707
509.1233, 1268.310
509.6054, 1258.892
510.0876, 1251.505
510.5697, 1254.595
511.0518, 1266.939
511.5339, 1280.184
512.0161, 1289.915
512.4982, 1295.234
512.9803, 1290.948
513.4624, 1274.538
513.9445, 1264.417
514.4266, 1270.803
514.9088, 1283.421
515.3909, 1288.523
515.8730, 1285.571
516.3551, 1282.688
516.8372, 1283.845
517.3193, 1285.032
517.8015, 1280.484
518.2836, 1272.009
518.7657, 1267.906
519.2478, 1273.035
519.7299, 1283.150
520.2120, 1287.835
520.6942, 1282.041
521.1763, 1280.500
521.6584, 1286.983
522.1405, 1293.673
522.6226, 1297.940
523.1047, 1298.905
523.5869, 1294.298
524.0690, 1280.355
524.5511, 1265.972
525.0332, 1269.689
525.5153, 1291.338
525.9974, 1303.444
526.4796, 1297.121
526.9617, 1283.163
527.4438, 1270.576
527.9259, 1259.420
528.4080, 1252.585
528.8901, 1249.745
529.3723, 1252.076
529.8544, 1264.390
530.3365, 1281.602
530.8186, 1294.947
531.3007, 1301.363
531.7828, 1300.991
532.2650, 1292.675
532.7471, 1274.107
533.2292, 1261.826
533.7113, 1259.829
534.1934, 1259.828
534.6755, 1258.495
535.1577, 1257.930
535.6398, 1262.661
536.1219, 1274.760
536.6040, 1284.883
537.0861, 1280.806
537.5682, 1267.629
538.0504, 1262.471
538.5325, 1267.969
539.0146, 1276.969
539.4967, 1286.554
539.9788, 1295.312
540.4609, 1296.365
540.9431, 1282.434
541.4252, 1271.677
541.9073, 1269.813
542.3894, 1271.413
542.8715, 1272.470
543.3536, 1271.849
543.8358, 1268.265
544.3179, 1259.339
544.8000, 1247.945
545.2821, 1247.901
545.7642, 1263.778
546.2463, 1278.491
546.7285, 1288.076
547.2106, 1294.526
547.6927, 1300.025
548.1748, 1304.328
548.6569, 1304.195
549.1390, 1292.930
549.6212, 1280.218
550.1033, 1278.808
550.5854, 1286.116
551.0675, 1289.839
551.5496, 1284.717
552.0317, 1275.652
552.5139, 1270.423
552.9960, 1269.840
553.4781, 1270.475
553.9602, 1275.569
554.4423, 1278.257
554.9244, 1273.331
555.4065, 1264.940
555.8886, 1259.774
556.3707, 1260.313
556.8528, 1263.179
557.3350, 1263.500
557.8171, 1262.002
558.2992, 1265.626
558.7813, 1276.864
559.2634, 1287.345
559.7455, 1291.419
560.2277, 1290.404
560.7098, 1289.083
561.1919, 1286.468
561.6740, 1285.349
562.1561, 1288.559
562.6382, 1292.505
563.1204, 1293.106
563.6025, 1290.283
564.0846, 1286.636
564.5667, 1283.958
565.0488, 1282.056
565.5309, 1259.045
566.0131, 1283.698
566.4952, 1296.999
566.9773, 1299.557
567.4594, 1259.195
567.9415, 1274.254
568.4236, 1267.104
568.9058, 1259.042
569.3879, 1281.902
569.8700, 1247.782
570.3521, 1270.152
570.8342, 1269.972
571.3163, 1280.113
571.7985, 1267.905
572.2806, 1262.601
572.7627, 1279.651
573.2448, 1284.323
573.7269, 1269.543
574.2090, 1280.340
574.6912, 1245.440
575.1733, 1250.639
575.6554, 1273.140
576.1375, 1259.484
576.6196, 1270.689
577.1017, 1272.425
577.5839, 1231.131
578.0660, 1264.672
578.5481, 1265.849
579.0302, 1233.796
579.5123, 1264.772
579.9944, 1237.300
580.4766, 1230.691
580.9587, 1239.782
581.4408, 1232.505
581.9229, 1251.034
582.4050, 1244.703
582.8871, 1236.151
583.3693, 1237.291
583.8514, 1210.966
584.3335, 1235.596
584.8156, 1225.419
585.2977, 1232.544
585.7798, 1243.590
586.2620, 1224.608
586.7441, 1237.417
587.2262, 1200.926
587.7083, 1205.686
588.1904, 1206.004
588.6725, 1232.688
589.1547, 1196.438
589.6368, 1200.051
590.1189, 1220.639
590.6010, 1217.476
591.0831, 1224.244
591.5652, 1201.614
592.0474, 1206.600
592.5295, 1203.975
593.0116, 1227.653
593.4937, 1207.557
593.9758, 1212.513
594.4579, 1226.336
594.9401, 1233.923
595.4222, 1231.877
595.9043, 1225.043
596.3864, 1209.352
596.8685, 1190.867
597.3506, 1185.370
597.8328, 1205.264
598.3149, 1227.059
598.7970, 1228.323
599.2791, 1215.050
599.7612, 1201.268
600.2433, 1189.615
600.7255, 1181.235
601.2076, 1177.185
601.6897, 1177.245
602.1718, 1179.600
602.6539, 1183.191
603.1360, 1190.828
603.6182, 1211.156
604.1003, 1228.903
604.5824, 1230.252
605.0645, 1217.521
605.5466, 1204.149
606.0287, 1197.104
606.5109, 1194.534
606.9930, 1195.522
607.4751, 1199.293
607.9572, 1198.625
608.4393, 1190.439
608.9214, 1182.566
609.4036, 1183.788
609.8857, 1194.157
610.3678, 1199.636
610.8499, 1200.051
611.3320, 1196.329
611.8141, 1162.885
612.2963, 1187.614
612.7784, 1200.989
613.2605, 1203.622
613.7426, 1163.335
614.2247, 1178.470
614.7068, 1171.394
615.1890, 1163.407
615.6711, 1186.343
616.1532, 1152.298
616.6353, 1174.743
617.1174, 1174.638
617.5995, 1184.854
618.0817, 1172.722
618.5638, 1167.492
619.0459, 1184.617
619.5280, 1189.365
620.0101, 1174.660
620.4922, 1185.532
620.9744, 1150.707
621.4565, 1155.981
621.9386, 1178.557
622.4207, 1164.976
622.9028, 1176.256
623.3849, 1178.068
623.8671, 1136.849
624.3492, 1170.464
624.8313, 1171.717
625.3134, 1139.739
625.7955, 1170.790
626.2776, 1143.393
626.7598, 1136.859
627.2419, 1146.025
627.7240, 1138.824
628.2061, 1157.427
628.6882, 1151.171
629.1703, 1142.694
629.6525, 1143.910
630.1346, 1117.659
630.6167, 1142.365
631.0988, 1132.263
631.5809, 1139.463
632.0630, 1150.585
632.5452, 1131.678
633.0273, 1144.562
633.5094, 1108.146
633.9915, 1134.088
634.4736, 1155.704
634.9557, 1167.849
635.4379, 1156.819
635.9200, 1143.834
636.4021, 1140.676
636.8842, 1143.410
637.3663, 1146.841
637.8484, 1149.022
638.3306, 1147.708
638.8127, 1139.406
639.2948, 1125.877
639.7769, 1118.145
640.2590, 1116.929
640.7411, 1119.309
641.2233, 1128.863
641.7054, 1137.410
642.1875, 1134.324
642.6696, 1120.794
643.1517, 1111.905
643.6339, 1116.133
644.1160, 1120.017
644.5981, 1114.942
645.0802, 1105.224
645.5623, 1096.954
646.0444, 1091.747
646.5266, 1088.816
647.0087, 1087.685
647.4908, 1088.088
647.9729, 1088.880
648.4550, 1090.136
648.9371, 1091.414
649.4193, 1092.246
649.9014, 1093.455
650.3835, 1095.767
650.8656, 1099.125
651.3477, 1103.346
651.8298, 1113.524
652.3120, 1118.764
652.7941, 1111.066
653.2762, 1096.808
653.7583, 1083.201
654.2404, 1072.149
654.7225, 1063.775
655.2047, 1058.437
655.6868, 1055.507
656.1689, 1052.135
656.6510, 1047.341
657.1331, 1049.050
657.6152, 1063.458
658.0974, 1078.254
658.5795, 1080.550
659.0616, 1073.190
659.5437, 1068.567
660.0258, 1067.359
660.5079, 1069.565
660.9901, 1079.342
661.4722, 1089.888
661.9543, 1093.827
662.4364, 1091.038
662.9185, 1085.566
663.4006, 1079.598
663.8828, 1074.004
664.3649, 1070.674
664.8470, 1069.642
665.3291, 1070.620
665.8112, 1075.786
666.2933, 1077.484
666.7755, 1067.691
667.2576, 1049.589
667.7397, 1037.184
668.2218, 1030.349
668.7039, 1029.326
669.1860, 1042.904
669.6682, 1055.148
670.1503, 1050.066
670.6324, 1032.586
671.1145, 1019.234
671.5966, 1018.443
672.0787, 1022.756
672.5609, 1022.465
673.0430, 1017.943
673.5251, 1011.586
674.0072, 1003.341
674.4893, 994.3156
674.9714, 983.5339
675.4536, 973.6671
675.9357, 972.3825
676.4178, 985.7988
676.8999, 994.4122
677.3820, 995.1693
677.8641, 993.6379
678.3463, 991.4340
678.8284, 989.3627
679.3105, 989.1345
679.7926, 991.2839
680.2747, 991.5632
680.7568, 983.8574
681.2390, 971.8492
681.7211, 963.9686
682.2032, 960.5473
682.6853, 961.2339
683.1674, 967.2783
683.6495, 972.5776
684.1317, 966.1226
684.6138, 943.5660
685.0959, 932.4536
685.5780, 941.4608
686.0601, 951.5464
686.5422, 961.2004
687.0244, 967.8843
687.5065, 967.9742
687.9886, 961.6053
688.4707, 954.7200
688.9528, 950.3895
689.4349, 947.4823
689.9171, 944.4744
690.3992, 941.8157
690.8813, 941.3255
691.3634, 943.4374
691.8455, 945.6539
692.3276, 945.1060
692.8098, 942.4177
693.2919, 943.5911
693.7740, 951.4918
694.2561, 956.8938
694.7382, 956.5298
695.2203, 954.5265
695.7025, 954.4893
696.1846, 955.3561
696.6667, 952.7724
697.1488, 942.3326
697.6309, 933.2355
698.1130, 929.8691
698.5952, 930.9318
699.0773, 937.7173
699.5594, 948.0073
700.0415, 953.3633
700.5236, 948.1102
701.0057, 937.5603
701.4879, 933.3873
701.9700, 936.0484
702.4521, 934.7588
702.9342, 926.8824
703.4163, 919.3458
703.8984, 916.2065
704.3806, 916.2294
704.8627, 916.3635
705.3448, 916.3594
705.8269, 917.1540
706.3090, 920.0995
706.7911, 922.6613
707.2733, 923.0886
707.7554, 922.1638
708.2375, 921.6712
708.7196, 922.0588
709.2017, 921.3280
709.6838, 914.6930
710.1660, 906.1964
710.6481, 908.9737
711.1302, 922.2520
711.6123, 929.5937
712.0944, 924.5474
712.5765, 913.9962
713.0587, 906.0892
713.5408, 900.9344
714.0229, 896.0789
714.5050, 889.4789
714.9871, 886.1293
715.4692, 888.0078
715.9514, 892.4047
716.4335, 898.1443
716.9156, 904.5448
717.3977, 909.9697
717.8798, 914.9481
718.3619, 917.0028
718.8441, 911.4551
719.3262, 902.7009
719.8083, 899.0433
720.2904, 900.8642
720.7725, 902.0289
721.2546, 898.2365
721.7368, 891.9303
722.2189, 888.8348
722.7010, 889.1507
723.1831, 891.4451
723.6652, 896.1975
724.1473, 901.8202
724.6295, 907.8041
725.1116, 913.9032
725.5937, 920.3289
726.0758, 928.5642
726.5579, 931.7133
727.0400, 924.5453
727.5222, 916.0157
728.0043, 910.2686
728.4864, 907.2153
728.9685, 906.8242
729.4506, 908.7686
729.9327, 910.6404
730.4149, 910.1090
730.8970, 908.0169
731.3791, 906.2651
731.8612, 904.7830
732.3433, 902.8461
732.8254, 900.1933
733.3076, 897.2882
733.7897, 894.5554
734.2718, 892.0046
734.7539, 889.4784
735.2360, 884.6556
735.7181, 883.8206
736.2003, 891.1260
736.6824, 899.2606
737.1645, 904.8680
737.6466, 907.6157
738.1287, 906.5941
738.6108, 898.8886
739.0930, 893.9847
739.5751, 903.4595
740.0572, 914.4223
740.5393, 907.8383
741.0214, 888.2975
741.5035, 875.0903
741.9857, 877.3694
742.4678, 886.8061
742.9499, 893.2701
743.4320, 896.6507
743.9141, 893.8077
744.3962, 882.5944
744.8784, 877.7936
745.3605, 889.1068
745.8426, 903.3572
746.3247, 900.5099
746.8068, 877.4352
747.2889, 867.0001
747.7711, 880.2101
748.2532, 890.9435
748.7353, 892.4932
749.2174, 889.4429
749.6995, 884.5634
750.1816, 879.0177
750.6638, 874.5225
751.1459, 870.7001
751.6280, 870.5145
752.1101, 880.4232
752.5922, 894.6055
753.0743, 900.8858
753.5565, 898.9371
754.0386, 898.2972
754.5207, 905.0624
755.0028, 912.6235
755.4849, 904.2412
755.9670, 876.3782
756.4492, 868.5568
756.9313, 890.6532
757.4134, 909.4967
757.8955, 908.6957
758.3776, 898.3752
758.8597, 893.9305
759.3419, 895.9734
759.8240, 896.4174
760.3061, 891.5142
760.7882, 888.6311
761.2703, 892.2916
761.7524, 898.2058
762.2346, 903.5547
762.7167, 906.8051
763.1988, 904.4317
763.6809, 891.6431
764.1630, 877.3842
764.6451, 873.0849
765.1273, 875.1462
765.6094, 873.1903
766.0915, 866.5800
766.5736, 864.8514
767.0557, 874.5424
767.5378, 889.6907
768.0200, 897.8397
768.5021, 898.6189
768.9842, 893.6917
769.4663, 879.8029
769.9484, 867.0663
770.4305, 857.8307
770.9127, 853.5705
771.3948, 858.5618
771.8769, 873.8985
772.3590, 883.2813
772.8411, 879.6631
773.3232, 875.9514
773.8054, 878.6420
774.2875, 882.7271
774.7696, 882.5667
775.2517, 878.0951
775.7338, 873.0610
776.2159, 870.0137
776.6981, 866.1813
777.1802, 854.0362
777.6623, 839.7990
778.1444, 841.5602
778.6265, 859.0137
779.1086, 872.1724
779.5908, 869.5127
780.0729, 858.4115
780.5550, 851.9359
781.0371, 850.4067
781.5192, 850.7806
782.0013, 853.8424
782.4835, 856.7899
782.9656, 859.0296
783.4477, 860.2140
783.9298, 860.6204
784.4119, 860.3706
784.8940, 855.2521
785.3762, 835.8188
785.8583, 823.5201
786.3404, 827.7220
786.8225, 838.5511
787.3046, 851.2046
787.7867, 862.6405
788.2689, 866.5605
788.7510, 858.1622
789.2331, 848.8510
789.7152, 849.1988
790.1973, 854.3584
790.6794, 857.3746
791.1616, 857.7268
791.6437, 856.2592
792.1258, 853.3236
792.6079, 849.9511
793.0900, 847.6719
793.5721, 846.2965
794.0543, 844.1080
794.5364, 841.2077
795.0185, 835.7088
795.5006, 823.9531
795.9827, 816.5246
796.4648, 827.5581
796.9470, 854.1741
797.4291, 864.9847
797.9112, 844.2434
798.3933, 830.0712
798.8754, 826.7894
799.3575, 827.8270
799.8397, 831.5491
800.3218, 836.2515
800.8039, 839.3960
801.2860, 840.3134
801.7681, 840.2407
802.2502, 838.7180
802.7324, 837.4262
803.2145, 838.0788
803.6966, 840.0524
804.1787, 842.0612
804.6608, 843.7889
805.1429, 845.7336
805.6251, 848.2886
806.1072, 851.3727
806.5893, 856.6105
807.0714, 863.0037
807.5535, 861.7008
808.0356, 850.8030
808.5178, 837.9470
808.9999, 827.1794
809.4820, 819.9127
809.9641, 820.8025
810.4462, 833.3992
810.9283, 841.2700
811.4105, 844.0991
811.8926, 842.6901
812.3747, 833.5550
812.8568, 822.7924
813.3389, 817.8240
813.8210, 818.6987
814.3032, 819.1923
814.7853, 816.8815
815.2674, 816.0099
815.7495, 819.4443
816.2316, 823.8324
816.7137, 826.4758
817.1959, 827.2490
817.6780, 826.3635
818.1601, 823.1276
818.6422, 822.0262
819.1243, 830.9743
819.6064, 842.1914
820.0886, 841.8385
820.5707, 832.3588
821.0528, 825.2020
821.5349, 824.3679
822.0170, 825.2794
822.4991, 822.1843
822.9813, 816.9669
823.4634, 818.3092
823.9455, 826.5343
824.4276, 836.2452
824.9097, 848.1960
825.3918, 853.2486
825.8740, 841.5349
826.3561, 819.8880
826.8382, 812.1334
827.3203, 827.3467
827.8024, 835.4991
828.2845, 833.0179
828.7667, 827.7266
829.2488, 822.7794
829.7309, 816.4081
830.2130, 803.8248
830.6951, 784.9683
831.1772, 774.8138
831.6594, 783.5776
832.1415, 793.6165
832.6236, 798.4189
833.1057, 799.9745
833.5878, 798.7839
834.0699, 796.4457
834.5521, 797.0111
835.0342, 802.8682
835.5163, 808.7175
835.9984, 810.0518
836.4805, 807.9780
836.9626, 800.9197
837.4448, 791.8893
837.9269, 792.9742
838.4090, 807.6415
838.8911, 823.3539
839.3732, 826.2776
839.8553, 820.1603
840.3375, 820.8185
840.8196, 828.5592
841.3017, 824.7773
841.7838, 803.4022
842.2659, 783.9126
842.7480, 779.4047
843.2302, 785.9293
843.7123, 794.2687
844.1944, 806.6996
844.6765, 813.3513
845.1586, 813.5499
845.6407, 808.9678
846.1229, 791.8425
846.6050, 775.9408
847.0871, 778.2590
847.5692, 797.0842
848.0513, 808.8999
848.5334, 802.8359
849.0156, 799.8585
849.4977, 811.8321
849.9798, 823.4639
850.4619, 819.7577
850.9440, 806.9510
851.4261, 801.7490
851.9083, 809.9695
852.3904, 814.4924
852.8725, 797.2022
853.3546, 776.3860
853.8367, 771.2629
854.3188, 777.6495
854.8010, 787.0414
855.2831, 796.9188
855.7652, 807.1900
856.2473, 818.7056
856.7294, 827.7703
857.2115, 825.8519
857.6937, 815.5032
858.1758, 808.3803
858.6579, 805.4833
859.1400, 801.0594
859.6221, 791.9270
860.1042, 783.5765
860.5864, 784.5050
861.0685, 794.3025
861.5506, 801.9202
862.0327, 807.6431
862.5148, 809.8371
862.9969, 807.1339
863.4791, 802.5947
863.9612, 797.1876
864.4433, 792.2065
864.9254, 792.6616
865.4075, 802.6811
865.8896, 809.5245
866.3718, 812.8383
866.8539, 813.5856
867.3360, 812.6598
867.8181, 808.9950
868.3002, 798.2415
868.7823, 781.4103
869.2645, 773.0627
869.7466, 785.2715
870.2287, 795.7843
870.7108, 796.1661
871.1929, 791.1825
871.6750, 781.1108
872.1572, 770.0850
872.6393, 767.2310
873.1214, 775.9501
873.6035, 783.8707
874.0856, 778.4615
874.5677, 770.5750
875.0499, 774.2205
875.5320, 784.3820
876.0141, 791.1370
876.4962, 792.0930
876.9783, 787.1135
877.4604, 774.6459
877.9426, 762.2386
878.4247, 763.5067
878.9068, 775.2833
879.3889, 788.2159
879.8710, 800.8326
880.3531, 804.3369
880.8353, 794.6094
881.3174, 782.9629
881.7995, 783.4412
882.2816, 793.7078
882.7637, 799.5518
883.2458, 801.0105
883.7280, 796.0317
884.2101, 781.0541
884.6922, 770.7177
885.1743, 776.4448
885.6564, 790.8608
886.1385, 798.4208
886.6207, 799.0580
887.1028, 792.4349
887.5849, 769.9274
888.0670, 754.1650
888.5491, 753.8737
889.0313, 760.2352
889.5134, 768.5377
889.9955, 777.3999
890.4776, 780.2483
890.9597, 770.5694
891.4418, 765.8683
891.9240, 773.1190
892.4061, 780.8843
892.8882, 784.1030
893.3703, 783.6436
893.8524, 779.2839
894.3345, 771.7484
894.8167, 768.3740
895.2988, 778.2561
895.7809, 785.5482
896.2630, 776.9778
896.7451, 765.2653
897.2272, 765.8930
897.7094, 774.8308
898.1915, 778.2183
898.6736, 771.0821
899.1557, 761.7204
899.6378, 752.3646
900.1199, 747.9626
900.6021, 760.0202
901.0842, 780.1697
901.5663, 790.2637
902.0484, 788.1661
902.5305, 783.6111
903.0126, 782.7399
903.4948, 781.8506
903.9769, 773.0475
904.4590, 760.1688
904.9411, 755.8784
905.4232, 759.9673
905.9053, 766.9905
906.3875, 775.1182
906.8696, 783.7857
907.3517, 793.6226
907.8338, 801.5550
908.3159, 795.1951
908.7980, 774.4225
909.2802, 758.1547
909.7623, 748.0338
910.2444, 745.6866
910.7265, 753.3096
911.2086, 764.9001
911.6907, 772.0281
912.1729, 774.7244
912.6550, 776.2534
913.1371, 776.0740
913.6192, 776.4949
914.1013, 778.1815
914.5834, 780.0313
915.0656, 781.3658
915.5477, 782.3531
916.0298, 783.5576
916.5119, 785.5683
916.9940, 785.6141
917.4761, 785.1673
917.9583, 780.6578
918.4404, 764.9543
918.9225, 750.2914
919.4046, 747.6923
919.8867, 754.3339
920.3688, 759.5567
920.8510, 762.9858
921.3331, 764.0650
921.8152, 759.2562
922.2973, 756.0746
922.7794, 760.7283
923.2615, 767.1069
923.7437, 767.6091
924.2258, 762.2820
924.7079, 756.8264
925.1900, 750.1505
925.6721, 748.2209
926.1542, 758.7397
926.6364, 770.0242
927.1185, 773.0789
927.6006, 769.9644
928.0827, 763.2531
928.5648, 754.4183
929.0469, 750.8236
929.5291, 762.8851
930.0112, 774.3677
930.4933, 770.7735
930.9754, 761.2281
931.4575, 755.8999
931.9396, 755.2938
932.4218, 757.8402
932.9039, 762.8290
933.3860, 765.4813
933.8681, 760.4838
934.3502, 751.8096
934.8323, 739.8898
935.3145, 729.8632
935.7966, 736.6355
936.2787, 757.8504
936.7608, 773.4793
937.2429, 772.6801
937.7250, 765.6979
938.2072, 764.9850
938.6893, 767.4056
939.1714, 765.3476
939.6535, 759.7599
940.1356, 754.5001
940.6177, 750.5911
941.0999, 748.1334
941.5820, 747.0203
942.0641, 748.3021
942.5462, 757.1138
943.0283, 770.4943
943.5104, 770.5338
943.9926, 757.7112
944.4747, 747.7774
944.9568, 745.5535
945.4389, 749.0736
945.9210, 758.0558
946.4031, 767.9957
946.8853, 763.5276
947.3674, 744.7571
947.8495, 735.7852
948.3316, 738.9095
948.8137, 742.2560
949.2958, 740.6093
949.7780, 741.1575
950.2601, 753.2850
950.7422, 773.6188
951.2243, 783.3445
951.7064, 780.6464
952.1885, 779.4083
952.6707, 781.8220
953.1528, 782.3829
953.6349, 778.7197
954.1170, 771.2921
954.5991, 759.2927
955.0812, 743.3248
955.5634, 735.8027
956.0455, 739.3854
956.5276, 743.6061
957.0097, 748.3973
957.4918, 751.1144
957.9739, 749.1226
958.4561, 745.5389
958.9382, 745.5765
959.4203, 749.5221
959.9024, 753.0311
960.3845, 755.8211
960.8666, 758.7599
961.3488, 762.2711
961.8309, 765.6840
962.3130, 771.1647
962.7951, 774.8941
963.2772, 767.1170
963.7593, 743.3014
964.2415, 732.3082
964.7236, 743.1721
965.2057, 753.7311
965.6878, 765.4919
966.1699, 770.7991
966.6520, 761.2422
967.1342, 742.4327
967.6163, 725.4161
968.0984, 707.5575
968.5805, 703.2671
969.0626, 727.4348
969.5447, 746.1822
970.0269, 749.2856
970.5090, 745.5320
970.9911, 736.5220
971.4732, 726.7736
971.9553, 728.8974
972.4374, 749.4858
972.9196, 762.3831
973.4017, 760.5816
973.8838, 755.0450
974.3659, 741.0981
974.8480, 732.1641
975.3301, 747.5284
975.8123, 777.4956
976.2944, 789.9932
976.7765, 774.4590
977.2586, 759.9611
977.7407, 752.0499
978.2228, 747.5879
978.7050, 748.5098
979.1871, 749.7134
979.6692, 743.7617
980.1513, 733.6038
980.6334, 730.9700
981.1155, 741.0219
981.5977, 750.3472
982.0798, 758.5482
982.5619, 760.8663
983.0440, 750.9037
983.5261, 736.6931
984.0082, 724.2427
984.4904, 715.6497
984.9725, 715.2999
985.4546, 727.0219
985.9367, 739.0364
986.4188, 751.7841
986.9009, 758.4109
987.3831, 749.3090
987.8652, 735.7247
988.3473, 730.4694
988.8294, 733.5957
989.3115, 738.7230
989.7936, 745.2690
990.2758, 749.6887
990.7579, 749.0306
991.2400, 747.3862
991.7221, 747.5010
992.2042, 748.0750
992.6863, 746.1760
993.1685, 742.8021
993.6506, 744.0189
994.1327, 755.5629
994.6148, 760.8560
995.0969, 746.4149
995.5790, 729.7776
996.0612, 720.1049
996.5433, 717.1463
997.0254, 722.2548
997.5075, 733.1974
997.9896, 741.5861
998.4717, 743.7036
998.9539, 745.5804
999.4360, 753.4327
999.9181, 758.3670
1000.400, 750.3621
1000.882, 738.1763
1001.364, 732.0715
1001.847, 733.0036
1002.329, 738.8324
1002.811, 751.7745
1003.293, 760.2227
1003.775, 756.7482
1004.257, 749.1158
1004.739, 739.7908
1005.221, 731.3395
1005.703, 725.9280
1006.186, 724.0923
1006.668, 726.8519
1007.150, 736.3387
1007.632, 744.3649
1008.114, 742.8276
1008.596, 743.4198
1009.078, 761.6732
1009.560, 781.0349
1010.043, 777.9260
1010.525, 756.2460
1011.007, 739.2439
1011.489, 734.2198
1011.971, 733.3819
1012.453, 739.1204
1012.935, 741.4399
1013.417, 728.3359
1013.899, 712.8171
1014.382, 709.9037
1014.864, 718.3735
1015.346, 729.6411
1015.828, 743.4183
1016.310, 750.7991
1016.792, 743.4659
1017.274, 734.6162
1017.756, 729.7634
1018.239, 728.3051
1018.721, 731.3447
1019.203, 736.7558
1019.685, 738.5192
1020.167, 734.2010
1020.649, 731.6174
1021.131, 732.7417
1021.613, 736.8696
1022.095, 746.9788
1022.578, 757.1362
1023.060, 762.0466
1023.542, 762.4944
1024.024, 761.3048
1024.506, 758.7983
1024.988, 755.9189
1025.470, 752.3929
1025.952, 749.2270
1026.435, 746.7864
1026.917, 744.8908
1027.399, 743.8546
1027.881, 743.1225
1028.363, 740.6706
1028.845, 735.5016
1029.327, 735.2284
1029.809, 748.0060
1030.292, 756.4348
1030.774, 751.6741
1031.256, 745.3052
1031.738, 748.6381
1032.220, 754.4647
1032.702, 745.9675
1033.184, 719.9938
1033.666, 708.8979
1034.148, 728.0126
1034.630, 744.5470
1035.113, 752.3255
1035.595, 757.2283
1036.077, 765.4324
1036.559, 771.2297
1037.041, 762.5814
1037.523, 738.6763
1038.005, 726.3310
1038.487, 735.5356
1038.970, 740.4366
1039.452, 736.3480
1039.934, 731.9376
1040.416, 731.5522
1040.898, 732.2340
1041.380, 729.2532
1041.862, 723.4074
1042.344, 724.2759
1042.827, 739.8128
1043.309, 743.8928
1043.791, 728.3981
1044.273, 714.7403
1044.755, 709.7265
1045.237, 711.2569
1045.719, 718.6270
1046.201, 730.3472
1046.683, 739.7396
1047.166, 747.1359
1047.648, 751.6725
1048.130, 754.6404
1048.612, 749.0477
1049.094, 727.1781
1049.576, 711.5017
1050.058, 724.6961
1050.540, 753.2896
1051.022, 759.5909
1051.505, 740.9433
1051.987, 724.4532
1052.469, 708.4551
1052.951, 708.9727
1053.433, 733.5828
1053.915, 753.5916
1054.397, 748.6268
1054.879, 731.4616
1055.361, 725.9679
1055.844, 730.8130
1056.326, 727.6586
1056.808, 716.5648
1057.290, 719.9374
1057.772, 741.8453
1058.254, 752.6763
1058.736, 735.7742
1059.218, 714.1302
1059.701, 720.3867
1060.183, 744.4339
1060.665, 752.8203
1061.147, 747.5121
1061.629, 736.2193
1062.111, 721.2626
1062.593, 712.1085
1063.075, 712.2720
1063.557, 715.6635
1064.040, 716.0729
1064.522, 716.8248
1065.004, 727.8322
1065.486, 742.5865
1065.968, 742.0544
1066.450, 730.0600
1066.932, 725.6304
1067.414, 732.5742
1067.896, 737.2592
1068.379, 729.6050
1068.861, 718.9399
1069.343, 714.2724
1069.825, 714.2756
1070.307, 720.0782
1070.789, 727.8599
1071.271, 729.7473
1071.753, 725.8358
1072.236, 721.9958
1072.718, 720.3339
1073.200, 723.0272
1073.682, 736.5687
1074.164, 749.8447
1074.646, 753.9797
1075.128, 752.1632
1075.610, 745.7382
1076.093, 737.7158
1076.575, 736.0475
1077.057, 743.2461
1077.539, 742.6946
1078.021, 714.0126
1078.503, 693.4424
1078.985, 703.9106
1079.467, 722.3372
1079.949, 733.9233
1080.432, 739.4490
1080.914, 741.6921
1081.396, 741.1482
1081.878, 740.1250
1082.360, 738.5085
1082.842, 737.2408
1083.324, 738.9539
1083.806, 738.0651
1084.288, 728.3358
1084.771, 717.5284
1085.253, 714.0594
1085.735, 716.9830
1086.217, 721.8600
1086.699, 729.9114
1087.181, 737.0684
1087.663, 747.2028
1088.145, 747.4209
1088.628, 727.4596
1089.110, 709.9877
1089.592, 713.7450
1090.074, 728.6974
1090.556, 733.1843
1091.038, 726.8873
1091.520, 717.9642
1092.002, 704.8420
1092.484, 701.0696
1092.967, 710.4573
1093.449, 718.1864
1093.931, 716.5659
1094.413, 710.6631
1094.895, 705.8583
1095.377, 703.3616
1095.859, 710.0029
1096.341, 724.0259
1096.823, 731.4576
1097.306, 731.5774
1097.788, 729.4896
1098.270, 726.9597
1098.752, 723.2319
1099.234, 716.6943
1099.716, 713.0161
1100.198, 726.8372
1100.680, 746.6548
1101.163, 746.0244
1101.645, 731.9886
1102.127, 724.2023
1102.609, 725.1428
1103.091, 726.5080
1103.573, 724.3682
1104.055, 723.2676
1104.537, 731.5041
1105.020, 737.6188
1105.502, 725.1545
1105.984, 708.9248
1106.466, 710.4183
1106.948, 722.3235
1107.430, 723.6669
1107.912, 710.6268
1108.394, 700.7426
1108.876, 704.7270
1109.359, 707.7051
1109.841, 698.0485
1110.323, 692.5616
1110.805, 707.2177
1111.287, 727.9535
1111.769, 737.2849
1112.251, 736.1598
1112.733, 735.7129
1113.215, 739.5154
1113.698, 737.1502
1114.180, 718.4642
1114.662, 709.6195
1115.144, 722.6594
1115.626, 738.2814
1116.108, 743.7043
1116.590, 743.1877
1117.072, 745.0386
1117.555, 749.2876
1118.037, 747.3467
1118.519, 737.5718
1119.001, 730.9269
1119.483, 728.9106
1119.965, 728.9545
1120.447, 730.3165
1120.929, 730.7813
1121.411, 727.4589
1121.894, 723.0302
1122.376, 726.5004
1122.858, 735.3953
1123.340, 735.5837
1123.822, 728.2715
1124.304, 724.0886
1124.786, 724.7483
1125.268, 722.4161
1125.750, 712.4626
1126.233, 701.1968
1126.715, 691.2535
1127.197, 688.1818
1127.679, 708.9915
1128.161, 736.2681
1128.643, 739.4833
1129.125, 724.5340
1129.607, 714.0621
1130.090, 714.0523
1130.572, 717.4485
1131.054, 723.1208
1131.536, 727.0392
1132.018, 729.6203
1132.500, 726.9968
1132.982, 708.4601
1133.464, 689.0646
1133.947, 688.4107
1134.429, 703.4589
1134.911, 717.4194
1135.393, 730.3550
1135.875, 735.0447
1136.357, 725.1664
1136.839, 715.0468
1137.321, 703.0698
1137.803, 697.8788
1138.286, 709.7888
1138.768, 724.3854
1139.250, 717.3204
1139.732, 692.6451
1140.214, 692.6290
1140.696, 723.0812
1141.178, 729.4626
1141.660, 705.3806
1142.142, 690.8607
1142.625, 699.0930
1143.107, 713.7416
1143.589, 723.1669
1144.071, 726.2336
1144.553, 715.4884
1145.035, 698.6299
1145.517, 703.3026
1145.999, 721.6214
1146.482, 729.0775
1146.964, 723.8559
1147.446, 712.8475
1147.928, 699.6110
1148.410, 694.4758
1148.892, 711.3745
1149.374, 728.6614
1149.856, 724.0019
1150.339, 713.2780
1150.821, 711.6900
1151.303, 715.1924
1151.785, 715.7827
1152.267, 713.6860
1152.749, 715.3582
1153.231, 724.3118
1153.713, 729.1698
1154.195, 724.7419
1154.677, 719.5280
1155.160, 715.1835
1155.642, 711.7377
1156.124, 707.7068
1156.606, 705.8309
1157.088, 712.2252
1157.570, 725.4103
1158.052, 726.1989
1158.534, 709.5818
1159.017, 705.1624
1159.499, 717.1746
1159.981, 723.5637
1160.463, 716.7801
1160.945, 712.6430
1161.427, 724.0105
1161.909, 737.3928
1162.391, 725.2863
1162.874, 698.3416
1163.356, 694.2686
1163.838, 706.0521
1164.320, 710.7307
1164.802, 708.2549
1165.284, 713.1554
1165.766, 728.6285
1166.248, 738.0742
1166.730, 728.2894
1167.213, 714.4778
1167.695, 706.4272
1168.177, 702.7792
1168.659, 704.3201
1169.141, 708.1449
1169.623, 710.3637
1170.105, 711.8326
1170.587, 717.3792
1171.069, 729.1434
1171.552, 733.9189
1172.034, 723.3810
1172.516, 715.0882
1172.998, 710.4380
1173.480, 710.2734
1173.962, 715.7207
1174.444, 725.4243
1174.926, 741.1442
1175.409, 757.5037
1175.891, 752.8990
1176.373, 725.0527
1176.855, 709.4192
1177.337, 706.2027
1177.819, 703.0720
1178.301, 697.8584
1178.783, 699.7358
1179.266, 713.2100
1179.748, 725.4918
1180.230, 721.1531
1180.712, 710.9599
1181.194, 714.8950
1181.676, 723.4922
1182.158, 718.6922
1182.640, 706.1169
1183.122, 698.3394
1183.604, 697.4334
1184.087, 701.6721
1184.569, 711.5947
1185.051, 717.4550
1185.533, 706.9619
1186.015, 702.1710
1186.497, 721.7380
1186.979, 740.2438
1187.461, 735.9624
1187.944, 722.4318
1188.426, 720.5310
1188.908, 727.8765
1189.390, 728.5269
1189.872, 718.9290
1190.354, 715.7916
1190.836, 720.8751
1191.318, 723.9652
1191.801, 722.1261
1192.283, 723.6447
1192.765, 733.7227
1193.247, 745.4376
1193.729, 750.4937
1194.211, 750.2614
1194.693, 746.6727
1195.175, 741.0901
1195.657, 737.1664
1196.140, 734.5406
1196.622, 730.9858
1197.104, 726.5729
1197.586, 723.9135
1198.068, 724.2786
1198.550, 725.2261
1199.032, 726.7596
1199.514, 726.4441
1199.996, 717.7852
1200.479, 711.9922
1200.961, 722.3847
1201.443, 738.5282
1201.925, 744.2172
1202.407, 740.0742
1202.889, 738.7038
1203.371, 743.5676
1203.853, 738.8788
1204.336, 718.9614
1204.818, 708.8209
1205.300, 715.3318
1205.782, 723.3854
1206.264, 724.9348
1206.746, 724.1432
1207.228, 725.5850
1207.710, 729.0892
1208.193, 735.3455
1208.675, 742.9176
1209.157, 749.6581
1209.639, 753.4590
1210.121, 746.5148
1210.603, 730.5533
1211.085, 716.0370
1211.567, 706.9135
1212.049, 707.4328
1212.531, 730.5089
1213.014, 749.8787
1213.496, 746.0059
1213.978, 739.8340
1214.460, 751.0771
1214.942, 764.6470
1215.424, 757.7280
1215.906, 736.4476
1216.388, 725.7768
1216.871, 727.5718
1217.353, 729.1420
1217.835, 731.1566
1218.317, 728.7830
1218.799, 719.8970
1219.281, 718.2648
1219.763, 730.2471
1220.245, 742.5984
1220.728, 743.2546
1221.210, 737.1494
1221.692, 731.5912
1222.174, 726.4691
1222.656, 719.9864
1223.138, 714.5219
1223.620, 716.3652
1224.102, 723.5482
1224.584, 729.3890
1225.067, 731.9774
1225.549, 732.1086
1226.031, 729.3433
1226.513, 725.6665
1226.995, 716.4639
1227.477, 713.3128
1227.959, 728.3347
1228.441, 743.9961
1228.923, 747.8928
1229.406, 743.3043
1229.888, 733.6030
1230.370, 720.3451
1230.852, 725.2574
1231.334, 749.7881
1231.816, 751.7822
1232.298, 730.0422
1232.780, 717.2979
1233.263, 721.4224
1233.745, 729.8009
1234.227, 735.4181
1234.709, 739.5820
1235.191, 746.9537
##END=



