##NAMES=Malhmoodite
##RRUFFID=R060462
##IDEAL CHEMISTRY=Fe^2+^Zr^4+^(P^5+^O_4_)_2_&#183;4H_2_O
##LOCALITY=Union Carbide Vanadium mine, Wilson Springs, Garland County, Arkansas, USA
##OWNER=RRUFF
##SOURCE=Michael Scott
##DESCRIPTION=White to cream spherical aggregates of acicular crystals associated with colorless albite, dark green aegirine, octahedral pyrochlore, and yellowish titanite.
##STATUS=The identification of this mineral is not yet confirmed.
##URL=rruff.info/R060462
158.0437, 0.0000000E+00
158.5258, 0.3659670
159.0079, 0.7330930
159.4900, 1.116699
159.9721, 1.127441
160.4542, 0.4613650
160.9364, 7.7637002E-02
161.4185, 2.6854999E-02
161.9006, 0.2250370
162.3827, 1.040222
162.8648, 3.208923
163.3469, 4.777527
163.8291, 4.638062
164.3112, 3.446838
164.7933, 2.504822
165.2754, 2.850464
165.7575, 3.405151
166.2396, 3.272888
166.7218, 1.902344
167.2039, 0.5481570
167.6860, 3.4240998E-02
168.1681, 0.3380130
168.6502, 1.073730
169.1323, 1.287720
169.6145, 1.550781
170.0966, 2.094666
170.5787, 2.808289
171.0608, 3.490540
171.5429, 3.981201
172.0250, 4.253357
172.5072, 4.179260
172.9893, 3.216675
173.4714, 1.975769
173.9535, 1.364502
174.4356, 1.915771
174.9177, 2.732300
175.3999, 2.777344
175.8820, 2.119202
176.3641, 1.365845
176.8462, 0.9526980
177.3283, 0.7565920
177.8104, 0.5248410
178.2926, 8.3618000E-02
178.7747, 0.3181760
179.2568, 0.1699220
179.7389, 0.5021970
180.2210, 1.194885
180.7031, 1.044250
181.1853, 0.5628050
181.6674, 0.6763920
182.1495, 1.116760
182.6316, 1.548096
183.1137, 2.047180
183.5958, 2.636536
184.0780, 3.123962
184.5601, 3.241089
185.0422, 3.065369
185.5243, 2.980774
186.0064, 3.216187
186.4885, 3.582397
186.9707, 3.558533
187.4528, 3.126099
187.9349, 2.515625
188.4170, 1.711670
188.8991, 0.8054810
189.3812, 0.6405640
189.8634, 1.746216
190.3455, 3.676636
190.8276, 4.198303
191.3097, 3.152466
191.7918, 1.794983
192.2739, 1.108704
192.7561, 1.195862
193.2382, 1.455200
193.7203, 1.695435
194.2024, 1.846436
194.6845, 2.096985
195.1666, 2.426086
195.6488, 2.856506
196.1309, 3.638855
196.6130, 4.829102
197.0951, 5.348755
197.5772, 4.465454
198.0593, 2.383362
198.5415, 1.535095
199.0236, 2.238159
199.5057, 3.378540
199.9878, 3.466187
200.4699, 2.391663
200.9520, 1.261780
201.4342, 0.4263310
201.9163, 0.1033330
202.3984, 0.3519900
202.8805, 0.1795040
203.3626, 4.8156999E-02
203.8447, 0.2913210
204.3269, 1.366638
204.8090, 2.167419
205.2911, 2.350037
205.7732, 1.914795
206.2553, 1.208130
206.7374, 0.1088870
207.2196, 1.026733
207.7017, 1.644409
208.1838, 1.573364
208.6659, 1.501892
209.1480, 1.630554
209.6301, 1.959412
210.1123, 2.335754
210.5944, 2.728760
211.0765, 3.187683
211.5586, 3.822144
212.0407, 4.712646
212.5228, 5.534241
213.0050, 6.170837
213.4871, 6.603455
213.9692, 7.040100
214.4513, 7.658142
214.9334, 8.083008
215.4155, 7.653564
215.8977, 5.951111
216.3798, 4.489319
216.8619, 3.802246
217.3440, 3.989868
217.8261, 4.270081
218.3082, 4.953735
218.7904, 5.435181
219.2725, 4.629944
219.7546, 1.703491
220.2367, 0.5844120
220.7188, 1.227417
221.2009, 7.9040997E-02
221.6831, 0.9583740
222.1652, 1.355164
222.6473, 1.398560
223.1294, 1.227844
223.6115, 0.7667850
224.0936, 0.2396240
224.5758, 0.4235230
225.0579, 1.342224
225.5400, 1.488647
226.0221, 0.3568120
226.5042, 1.133545
226.9863, 1.708557
227.4685, 0.8720090
227.9506, 2.7832000E-02
228.4327, 0.5247190
228.9148, 0.8035280
229.3969, 0.7207640
229.8790, 8.3374001E-02
230.3612, 0.7255860
230.8433, 1.189758
231.3254, 0.9611210
231.8075, 1.023010
232.2896, 1.815796
232.7717, 3.502319
233.2539, 4.279907
233.7360, 3.744019
234.2181, 2.645996
234.7002, 1.778137
235.1823, 1.085571
235.6644, 0.7798460
236.1466, 1.084473
236.6287, 2.100586
237.1108, 2.562195
237.5929, 2.277527
238.0750, 1.650940
238.5571, 1.091736
239.0393, 0.5070800
239.5214, 0.1687010
240.0035, 0.1790770
240.4856, 0.5593870
240.9677, 1.029297
241.4498, 1.444763
241.9320, 2.072754
242.4141, 3.288879
242.8962, 5.740540
243.3783, 7.493652
243.8604, 7.984619
244.3425, 7.198975
244.8247, 6.693604
245.3068, 6.426331
245.7889, 6.445435
246.2710, 6.836731
246.7531, 7.823730
247.2352, 8.719177
247.7174, 9.504639
248.1995, 10.15759
248.6816, 10.40106
249.1637, 10.04327
249.6458, 9.540039
250.1279, 9.240784
250.6101, 9.158264
251.0922, 9.351074
251.5743, 10.02905
252.0564, 11.09552
252.5385, 11.53827
253.0206, 10.89276
253.5028, 10.26123
253.9849, 10.47095
254.4670, 11.90210
254.9491, 13.22107
255.4312, 14.26538
255.9133, 15.05328
256.3955, 15.83203
256.8776, 16.72107
257.3597, 17.35309
257.8418, 17.35657
258.3239, 16.23529
258.8061, 15.80206
259.2882, 16.43445
259.7703, 17.79126
260.2524, 18.60870
260.7345, 18.69916
261.2166, 18.69312
261.6988, 18.94891
262.1809, 19.56421
262.6630, 20.07715
263.1451, 20.70959
263.6272, 21.23364
264.1093, 20.73810
264.5915, 18.73151
265.0736, 16.85736
265.5557, 16.02368
266.0378, 16.60413
266.5199, 16.74493
267.0020, 16.18176
267.4842, 15.36243
267.9663, 15.19702
268.4484, 15.71741
268.9305, 16.77570
269.4126, 18.46326
269.8947, 20.97644
270.3769, 23.04480
270.8590, 24.68488
271.3411, 25.84778
271.8232, 26.19696
272.3053, 25.40399
272.7874, 25.00244
273.2696, 25.80176
273.7517, 27.89990
274.2338, 29.02173
274.7159, 28.88269
275.1980, 28.30475
275.6801, 28.46484
276.1623, 29.49463
276.6444, 30.50055
277.1265, 31.19977
277.6086, 31.62933
278.0907, 32.17224
278.5728, 32.94958
279.0550, 33.58594
279.5371, 33.49890
280.0192, 32.65955
280.5013, 31.60535
280.9834, 30.26459
281.4655, 28.82819
281.9477, 28.39795
282.4298, 29.11078
282.9119, 30.12994
283.3940, 30.58057
283.8761, 30.51947
284.3582, 31.07330
284.8404, 32.74432
285.3225, 35.02985
285.8046, 36.26404
286.2867, 36.33044
286.7688, 36.28772
287.2509, 37.14545
287.7331, 38.78107
288.2152, 39.98053
288.6973, 40.44458
289.1794, 40.49512
289.6615, 40.90161
290.1436, 41.66132
290.6258, 42.18890
291.1079, 41.89972
291.5900, 41.00165
292.0721, 40.35840
292.5542, 40.06360
293.0363, 40.09912
293.5185, 40.56299
294.0006, 41.42236
294.4827, 42.29480
294.9648, 42.99719
295.4469, 43.56384
295.9290, 44.09918
296.4112, 44.63281
296.8933, 45.04468
297.3754, 44.93982
297.8575, 44.50745
298.3396, 44.45691
298.8217, 45.64862
299.3039, 47.30682
299.7860, 47.90552
300.2681, 47.35181
300.7502, 46.55811
301.2323, 46.20032
301.7144, 46.27917
302.1966, 46.81451
302.6787, 48.62213
303.1608, 50.46509
303.6429, 50.50366
304.1250, 48.82007
304.6071, 47.00226
305.0893, 46.19623
305.5714, 46.06360
306.0535, 46.07874
306.5356, 46.15302
307.0177, 46.29938
307.4998, 46.78229
307.9820, 47.46680
308.4641, 47.60675
308.9462, 45.86823
309.4283, 43.69861
309.9104, 42.83545
310.3925, 44.37415
310.8747, 46.08075
311.3568, 46.56232
311.8389, 46.03638
312.3210, 45.09747
312.8031, 43.54565
313.2852, 41.98645
313.7674, 40.95074
314.2495, 40.69336
314.7316, 40.49878
315.2137, 40.03015
315.6958, 39.44849
316.1779, 39.01477
316.6601, 38.85791
317.1422, 38.65887
317.6243, 38.09375
318.1064, 37.12213
318.5885, 36.60095
319.0706, 37.39240
319.5528, 38.57898
320.0349, 39.11786
320.5170, 37.97534
320.9991, 36.84961
321.4812, 36.27313
321.9633, 36.29260
322.4455, 36.55255
322.9276, 37.57581
323.4097, 38.41156
323.8918, 38.34778
324.3739, 36.08765
324.8560, 34.34705
325.3382, 33.64282
325.8203, 33.86139
326.3024, 34.24774
326.7845, 35.22034
327.2666, 35.98669
327.7487, 36.15741
328.2309, 35.39124
328.7130, 34.48053
329.1951, 33.27832
329.6772, 31.93549
330.1593, 30.82098
330.6414, 29.94366
331.1236, 29.31085
331.6057, 28.99579
332.0878, 29.22266
332.5699, 29.08636
333.0520, 28.40295
333.5341, 27.49048
334.0163, 26.81134
334.4984, 26.47083
334.9805, 26.19891
335.4626, 25.96539
335.9447, 25.78046
336.4268, 25.45935
336.9090, 24.93872
337.3911, 24.38129
337.8732, 24.00848
338.3553, 23.92694
338.8374, 23.53778
339.3195, 22.55011
339.8017, 21.18127
340.2838, 20.47644
340.7659, 20.55829
341.2480, 20.80969
341.7301, 20.79980
342.2122, 20.50958
342.6944, 20.20483
343.1765, 19.94220
343.6586, 19.62134
344.1407, 18.98016
344.6228, 18.01691
345.1049, 17.08771
345.5871, 16.44873
346.0692, 16.04639
346.5513, 15.61401
347.0334, 15.16321
347.5155, 14.66382
347.9977, 13.92487
348.4798, 13.04327
348.9619, 12.53802
349.4440, 12.95599
349.9261, 13.77716
350.4082, 13.98303
350.8904, 13.56769
351.3725, 12.75604
351.8546, 11.02539
352.3367, 9.060242
352.8188, 8.478027
353.3009, 10.78552
353.7831, 13.32855
354.2652, 12.66559
354.7473, 9.412415
355.2294, 6.411316
355.7115, 5.953674
356.1936, 6.470459
356.6758, 6.196411
357.1579, 4.581055
357.6400, 2.870117
358.1221, 1.972656
358.6042, 1.630798
359.0863, 1.291321
359.5685, 0.6044920
360.0506, 5.2979000E-02
360.5327, 0.3941650
361.0148, 0.3571780
361.4969, 0.3505860
361.9790, 0.7659300
362.4612, 1.223633
362.9433, 1.328613
363.4254, 0.4858400
363.9075, 0.2146000
364.3896, 0.2728880
364.8717, 0.2586670
365.3539, 0.5695190
365.8360, 0.3635250
366.3181, 3.0520000E-03
366.8002, 0.2943120
367.2823, 0.6204830
367.7644, 0.7168580
368.2466, 0.3581540
368.7287, 0.2620850
369.2108, 0.5957640
369.6929, 0.4885860
370.1750, 0.2488400
370.6571, 0.1019900
371.1393, 0.7451170
371.6214, 0.9279170
372.1035, 0.5764770
372.5856, 0.1575930
373.0677, 1.210754
373.5498, 3.103333
374.0320, 4.120300
374.5141, 3.477173
374.9962, 1.336609
375.4783, 0.4038090
375.9604, 1.045959
376.4425, 2.070435
376.9247, 2.545349
377.4068, 2.408447
377.8889, 2.092957
378.3710, 1.555786
378.8531, 0.9668580
379.3352, 0.8843990
379.8174, 1.373047
380.2995, 1.645508
380.7816, 1.141846
381.2637, 1.5869001E-02
381.7458, 1.089294
382.2279, 2.074097
382.7101, 2.839600
383.1922, 3.184509
383.6743, 3.153076
384.1564, 2.967468
384.6385, 2.487488
385.1206, 2.008057
385.6028, 2.195740
386.0849, 3.017944
386.5670, 3.837402
387.0491, 4.045532
387.5312, 3.955750
388.0133, 4.043701
388.4955, 4.348145
388.9776, 5.023621
389.4597, 6.813110
389.9418, 9.197266
390.4239, 10.67627
390.9060, 9.288452
391.3882, 7.446594
391.8703, 7.276489
392.3524, 9.371094
392.8345, 11.17175
393.3166, 10.94458
393.7987, 9.851013
394.2809, 9.364258
394.7630, 10.33514
395.2451, 11.55695
395.7272, 12.56952
396.2093, 13.38629
396.6914, 14.54553
397.1736, 17.11389
397.6557, 19.42303
398.1378, 20.44397
398.6199, 17.87695
399.1020, 16.79370
399.5841, 18.36523
400.0663, 21.46222
400.5484, 23.34241
401.0305, 22.92413
401.5126, 22.65393
401.9947, 23.52869
402.4768, 25.94513
402.9590, 27.29150
403.4411, 27.19635
403.9232, 26.46039
404.4053, 25.87561
404.8874, 25.36322
405.3695, 25.32520
405.8517, 25.96710
406.3338, 27.12854
406.8159, 28.05463
407.2980, 28.67407
407.7801, 29.43567
408.2622, 30.78455
408.7444, 32.66742
409.2265, 34.27368
409.7086, 35.54749
410.1907, 36.48016
410.6728, 36.85974
411.1549, 36.77979
411.6371, 36.87787
412.1192, 37.50800
412.6013, 38.48322
413.0834, 39.66461
413.5655, 41.03613
414.0476, 41.91541
414.5298, 41.09375
415.0119, 39.53467
415.4940, 38.88721
415.9761, 40.08289
416.4582, 41.62054
416.9403, 42.23651
417.4225, 42.17786
417.9046, 42.12250
418.3867, 42.58563
418.8688, 43.09186
419.3509, 43.27753
419.8330, 43.03992
420.3152, 42.74133
420.7973, 42.28961
421.2794, 42.01874
421.7615, 42.23859
422.2436, 43.70007
422.7257, 44.89026
423.2079, 45.28906
423.6900, 44.98285
424.1721, 44.92108
424.6542, 45.28162
425.1363, 45.78394
425.6184, 46.28723
426.1006, 46.66101
426.5827, 47.24188
427.0648, 48.23486
427.5469, 49.34625
428.0290, 49.98041
428.5111, 49.94977
428.9933, 49.84790
429.4754, 49.82837
429.9575, 49.88733
430.4396, 49.92419
430.9217, 49.85291
431.4038, 49.81512
431.8860, 50.03668
432.3681, 50.61261
432.8502, 51.57233
433.3323, 53.01184
433.8144, 54.42548
434.2965, 54.87408
434.7787, 54.43604
435.2608, 53.77802
435.7429, 53.24042
436.2250, 52.75336
436.7071, 52.00031
437.1892, 50.90833
437.6714, 50.02930
438.1535, 50.12421
438.6356, 50.83923
439.1177, 51.47675
439.5998, 51.32788
440.0819, 51.47412
440.5641, 53.55823
441.0462, 56.89728
441.5283, 59.03674
442.0104, 57.68872
442.4925, 55.39807
442.9746, 53.85150
443.4568, 53.36407
443.9389, 53.20105
444.4210, 53.42407
444.9031, 53.72571
445.3852, 53.73950
445.8673, 52.85516
446.3495, 52.21497
446.8316, 52.11334
447.3137, 52.50684
447.7958, 52.87549
448.2779, 53.56909
448.7600, 53.87128
449.2422, 53.33588
449.7243, 51.38373
450.2064, 50.03412
450.6885, 49.57428
451.1706, 49.45520
451.6527, 48.66309
452.1349, 46.96478
452.6170, 45.66895
453.0991, 45.32281
453.5812, 45.75433
454.0633, 45.95673
454.5454, 45.94550
455.0276, 45.74384
455.5097, 45.15918
455.9918, 44.29779
456.4739, 43.85565
456.9560, 43.97351
457.4381, 44.39551
457.9203, 44.97839
458.4024, 45.65613
458.8845, 46.12903
459.3666, 45.86530
459.8488, 45.33606
460.3309, 45.16113
460.8130, 45.34082
461.2951, 45.61633
461.7772, 45.98547
462.2593, 46.11322
462.7415, 45.67175
463.2236, 44.37555
463.7057, 43.19507
464.1878, 42.80261
464.6699, 42.82928
465.1520, 42.50592
465.6342, 40.78986
466.1163, 39.38855
466.5984, 39.09875
467.0805, 40.17786
467.5626, 40.54303
468.0447, 39.60138
468.5269, 38.39612
469.0090, 37.63867
469.4911, 37.64520
469.9732, 37.58014
470.4553, 37.49310
470.9374, 37.16089
471.4196, 35.94067
471.9017, 33.48181
472.3838, 31.56476
472.8659, 31.13873
473.3480, 31.99316
473.8301, 32.07751
474.3123, 31.34180
474.7944, 30.27124
475.2765, 29.11560
475.7586, 27.91840
476.2407, 26.97540
476.7228, 26.35114
477.2050, 26.16254
477.6871, 26.98181
478.1692, 28.41290
478.6513, 29.22034
479.1334, 28.21704
479.6155, 26.58344
480.0977, 25.36768
480.5798, 24.61615
481.0619, 24.11804
481.5440, 24.30719
482.0261, 24.40472
482.5082, 23.62164
482.9904, 20.69513
483.4725, 18.52356
483.9546, 18.72040
484.4367, 20.18622
484.9188, 20.59485
485.4009, 18.31909
485.8831, 16.27631
486.3652, 15.37061
486.8473, 15.71161
487.3294, 15.75189
487.8115, 15.45837
488.2936, 14.91095
488.7758, 14.01038
489.2579, 12.43109
489.7400, 11.72388
490.2221, 12.26392
490.7042, 13.39996
491.1863, 13.82623
491.6685, 13.50214
492.1506, 13.16083
492.6327, 13.19055
493.1148, 13.40936
493.5969, 13.06958
494.0790, 12.16589
494.5612, 11.40759
495.0433, 11.57196
495.5254, 12.24219
496.0075, 12.62018
496.4896, 12.51489
496.9717, 12.22766
497.4539, 11.98297
497.9360, 11.74884
498.4181, 11.47949
498.9002, 10.87305
499.3823, 10.46075
499.8644, 10.86957
500.3466, 11.96490
500.8287, 12.34131
501.3108, 10.96246
501.7929, 9.190491
502.2750, 7.796509
502.7571, 6.928650
503.2393, 6.276489
503.7214, 5.848206
504.2035, 5.624512
504.6856, 5.607422
505.1677, 5.952087
505.6498, 6.204163
506.1320, 6.282532
506.6141, 6.198669
507.0962, 6.029114
507.5783, 5.789795
508.0604, 5.377625
508.5425, 4.566956
509.0247, 3.425171
509.5068, 2.762939
509.9889, 2.678162
510.4710, 2.685486
510.9531, 2.133118
511.4352, 1.214050
511.9174, 0.4921260
512.3995, 0.1417850
512.8816, 6.9824003E-02
513.3637, 0.4009400
513.8458, 0.9779660
514.3279, 1.276428
514.8101, 1.062378
515.2922, 0.4581910
515.7743, 0.6984860
516.2564, 2.504456
516.7385, 3.726318
517.2206, 3.459778
517.7028, 2.679260
518.1849, 2.169617
518.6670, 2.763000
519.1491, 2.728760
519.6312, 1.430054
520.1133, 0.4445190
520.5955, 1.434143
521.0776, 1.228088
521.5597, 0.6477050
522.0418, 0.2705080
522.5239, 1.493958
523.0060, 1.948975
523.4882, 1.510925
523.9703, 0.8081670
524.4524, 0.2888790
524.9345, 5.1879998E-02
525.4166, 0.3904420
525.8987, 0.8041380
526.3809, 1.002258
526.8630, 0.3671880
527.3451, 0.8339840
527.8272, 1.740601
528.3093, 1.817078
528.7914, 1.612244
529.2736, 1.702271
529.7557, 2.010315
530.2378, 2.218628
530.7199, 2.052612
531.2020, 1.779907
531.6841, 1.617004
532.1663, 1.636719
532.6484, 1.487976
533.1305, 0.7681270
533.6126, 1.0864000E-02
534.0947, 0.3671260
534.5768, 0.2455440
535.0590, 0.6360470
535.5411, 0.8072510
536.0232, 0.7015990
536.5053, 1.8616000E-02
536.9874, 1.598450
537.4695, 2.810547
537.9517, 2.921326
538.4338, 2.036438
538.9159, 1.802368
539.3980, 2.317078
539.8801, 2.856506
540.3622, 2.528320
540.8444, 1.645325
541.3265, 1.566772
541.8086, 2.619995
542.2907, 3.969299
542.7728, 4.688354
543.2549, 4.991760
543.7371, 5.318054
544.2192, 5.901733
544.7013, 6.545532
545.1834, 7.183655
545.6655, 7.801636
546.1476, 8.294006
546.6298, 8.801147
547.1119, 9.035339
547.5940, 8.685608
548.0761, 7.437195
548.5582, 6.765503
549.0403, 6.911438
549.5225, 7.572998
550.0046, 8.592773
550.4867, 10.37347
550.9688, 11.55969
551.4509, 11.80865
551.9330, 11.55957
552.4152, 11.80597
552.8973, 12.60986
553.3794, 13.39465
553.8615, 14.07080
554.3436, 14.53070
554.8257, 14.17841
555.3079, 13.03943
555.7900, 12.03973
556.2721, 11.99677
556.7542, 12.52759
557.2363, 13.05231
557.7184, 13.51062
558.2006, 13.90973
558.6827, 14.11725
559.1648, 14.32080
559.6469, 14.76495
560.1290, 16.06445
560.6111, 17.03265
561.0933, 17.11530
561.5754, 16.56421
562.0575, 16.05890
562.5396, 15.70404
563.0217, 15.38422
563.5038, 15.00684
563.9860, 14.55634
564.4681, 14.47449
564.9502, 14.94019
565.4323, 15.44019
565.9144, 15.52655
566.3965, 15.15338
566.8787, 15.08881
567.3608, 15.42200
567.8429, 15.94470
568.3250, 16.38281
568.8071, 16.75024
569.2892, 17.09875
569.7714, 17.43811
570.2535, 17.76282
570.7356, 18.05902
571.2177, 18.35925
571.6998, 18.67084
572.1819, 18.99646
572.6641, 19.30988
573.1462, 19.63446
573.6283, 19.92316
574.1104, 19.91254
574.5925, 19.66431
575.0746, 19.16699
575.5568, 18.33606
576.0389, 16.67126
576.5210, 15.46973
577.0031, 14.78918
577.4852, 14.68152
577.9673, 15.30554
578.4495, 16.92108
578.9316, 17.93799
579.4137, 17.93054
579.8958, 17.17834
580.3779, 16.35638
580.8600, 15.51929
581.3422, 14.92841
581.8243, 14.74890
582.3064, 14.88141
582.7885, 15.22546
583.2706, 15.75861
583.7527, 16.17511
584.2349, 16.08649
584.7170, 15.81824
585.1991, 15.62390
585.6812, 15.50464
586.1633, 15.71863
586.6454, 16.80023
587.1276, 18.10089
587.6097, 18.82758
588.0918, 18.35657
588.5739, 17.95508
589.0560, 18.01892
589.5381, 18.26917
590.0203, 17.77216
590.5024, 16.08765
590.9845, 14.77686
591.4666, 14.55304
591.9487, 15.23187
592.4308, 15.38293
592.9130, 14.96277
593.3951, 14.43225
593.8772, 14.09534
594.3593, 13.97418
594.8414, 14.00031
595.3235, 14.14117
595.8057, 14.46838
596.2878, 15.35028
596.7699, 16.37354
597.2520, 16.88605
597.7341, 16.39746
598.2162, 15.78577
598.6984, 15.46106
599.1805, 15.31537
599.6626, 15.11017
600.1447, 14.79572
600.6268, 14.41882
601.1089, 13.89746
601.5911, 13.27484
602.0732, 13.01251
602.5553, 13.23364
603.0374, 13.60925
603.5195, 14.07947
604.0016, 14.66748
604.4838, 14.66235
604.9659, 13.92200
605.4480, 13.26971
605.9301, 13.79279
606.4122, 15.13593
606.8943, 16.01996
607.3765, 16.09235
607.8586, 15.99689
608.3407, 16.48236
608.8228, 17.25116
609.3049, 17.74915
609.7870, 17.50452
610.2692, 17.18799
610.7513, 17.00714
611.2334, 16.98602
611.7155, 17.20746
612.1976, 17.87891
612.6797, 18.60413
613.1619, 19.32739
613.6440, 20.06940
614.1261, 20.34985
614.6082, 19.87823
615.0903, 19.48425
615.5724, 19.93286
616.0546, 21.24573
616.5367, 21.80560
617.0188, 21.43695
617.5009, 20.72797
617.9830, 20.10718
618.4651, 19.69043
618.9473, 19.93536
619.4294, 21.32898
619.9115, 22.64624
620.3936, 22.37109
620.8757, 21.23523
621.3578, 20.71844
621.8400, 22.19397
622.3221, 23.65710
622.8042, 24.15991
623.2863, 23.83740
623.7684, 23.66632
624.2505, 23.76532
624.7327, 24.00085
625.2148, 24.34094
625.6969, 24.78845
626.1790, 25.31964
626.6611, 26.06934
627.1432, 26.51819
627.6254, 25.94482
628.1075, 24.48651
628.5896, 23.78674
629.0717, 24.05048
629.5538, 24.79376
630.0359, 25.76788
630.5181, 26.79663
631.0002, 27.49316
631.4823, 27.57434
631.9644, 27.61218
632.4465, 28.08777
632.9286, 28.81128
633.4108, 29.38763
633.8929, 29.39746
634.3750, 29.55164
634.8571, 30.11731
635.3392, 31.03906
635.8214, 31.92511
636.3035, 32.82068
636.7856, 33.55756
637.2677, 34.05243
637.7498, 34.28577
638.2319, 34.25867
638.7141, 33.90259
639.1962, 33.61652
639.6783, 33.83496
640.1604, 34.39233
640.6425, 34.70312
641.1246, 34.69543
641.6068, 34.69189
642.0889, 35.19189
642.5710, 35.88525
643.0531, 36.29047
643.5352, 36.05408
644.0173, 35.92902
644.4995, 36.26294
644.9816, 36.79938
645.4637, 37.13025
645.9458, 37.28595
646.4279, 37.24091
646.9100, 36.89557
647.3922, 36.32178
647.8743, 35.81940
648.3564, 35.31781
648.8385, 35.03308
649.3206, 34.96826
649.8027, 35.14789
650.2849, 35.95129
650.7670, 37.36169
651.2491, 38.38104
651.7312, 37.99780
652.2133, 36.86847
652.6954, 35.86523
653.1776, 35.08820
653.6597, 34.47321
654.1418, 34.16052
654.6239, 33.89056
655.1060, 33.40527
655.5881, 32.43713
656.0703, 31.66656
656.5524, 31.17273
657.0345, 30.86737
657.5166, 30.70978
657.9987, 30.96143
658.4808, 30.69971
658.9630, 29.49957
659.4451, 27.87415
659.9272, 26.90381
660.4093, 26.59888
660.8914, 26.90747
661.3735, 28.60284
661.8557, 30.24689
662.3378, 28.93176
662.8199, 25.30591
663.3020, 22.11975
663.7841, 21.24561
664.2662, 21.19910
664.7484, 21.09052
665.2305, 20.88678
665.7126, 20.60803
666.1947, 20.04517
666.6768, 19.54944
667.1589, 19.36536
667.6411, 19.58514
668.1232, 19.56573
668.6053, 19.09436
669.0874, 18.56787
669.5695, 18.27753
670.0516, 18.20111
670.5338, 18.58911
671.0159, 19.57788
671.4980, 20.45563
671.9801, 20.26111
672.4622, 19.26398
672.9443, 18.10352
673.4265, 17.01202
673.9086, 15.88702
674.3907, 14.48022
674.8728, 13.04401
675.3549, 12.05334
675.8370, 12.51379
676.3192, 12.52063
676.8013, 11.25897
677.2834, 9.166138
677.7655, 7.787170
678.2476, 7.367371
678.7297, 7.136230
679.2119, 6.790710
679.6940, 6.386292
680.1761, 6.262634
680.6582, 6.411682
681.1403, 6.731995
681.6224, 7.216187
682.1046, 7.773499
682.5867, 8.316345
683.0688, 8.837524
683.5509, 8.920105
684.0330, 7.743469
684.5151, 6.342224
684.9973, 5.640564
685.4794, 6.094788
685.9615, 6.301147
686.4436, 5.716553
686.9257, 5.025879
687.4078, 4.863831
687.8900, 5.654907
688.3721, 5.697266
688.8542, 4.633728
689.3363, 3.270996
689.8184, 3.019104
690.3005, 3.731079
690.7827, 4.015198
691.2648, 3.318909
691.7469, 2.408142
692.2290, 2.288269
692.7111, 2.716980
693.1932, 3.130310
693.6754, 3.508850
694.1575, 3.585938
694.6396, 3.085083
695.1217, 2.145569
695.6038, 1.265198
696.0859, 0.2646480
696.5681, 0.3430180
697.0502, 0.2584840
697.5323, 0.4212650
698.0144, 0.7120970
698.4965, 0.5961300
698.9786, 0.2151490
699.4608, 0.4046020
699.9429, 1.211304
700.4250, 2.194519
700.9071, 3.328552
701.3892, 3.989563
701.8713, 3.614807
702.3535, 2.569458
702.8356, 0.9008790
703.3177, 1.582214
703.7998, 3.070129
704.2819, 2.095703
704.7640, 0.3464360
705.2462, 0.9290160
705.7283, 1.771179
706.2104, 1.882141
706.6925, 0.9442750
707.1746, 0.2870480
707.6567, 0.9414060
708.1389, 0.9792480
708.6210, 1.052490
709.1031, 1.245056
709.5852, 1.505310
710.0673, 1.856995
710.5494, 2.224731
711.0316, 2.450928
711.5137, 2.569763
711.9958, 2.407227
712.4779, 1.521362
712.9600, 0.3388060
713.4421, 0.3411870
713.9243, 0.4701540
714.4064, 0.9035030
714.8885, 0.3160400
715.3706, 0.8859860
715.8527, 1.396484
716.3348, 1.011780
716.8170, 0.6333010
717.2991, 0.6173710
717.7812, 0.8236690
718.2633, 0.7745360
718.7454, 0.4970090
719.2275, 0.2301030
719.7097, 0.2118530
720.1918, 0.2285160
720.6739, 8.8744998E-02
721.1560, 0.6724240
721.6381, 0.9813840
722.1202, 0.4364010
722.6024, 0.1744380
723.0845, 0.3102420
723.5666, 0.1701660
724.0487, 0.1308590
724.5308, 0.7551880
725.0129, 1.626770
725.4951, 1.873657
725.9772, 1.459229
726.4593, 1.392456
726.9414, 1.723816
727.4235, 2.029907
727.9056, 1.888367
728.3878, 1.450195
728.8699, 1.049683
729.3520, 0.7669680
729.8341, 0.2531740
730.3162, 1.272583
730.7983, 2.838867
731.2805, 3.472290
731.7626, 2.161499
732.2447, 1.411194
732.7268, 1.675537
733.2089, 2.321045
733.6910, 2.662109
734.1732, 2.637634
734.6553, 2.515930
735.1374, 2.218994
735.6195, 2.076233
736.1016, 2.887695
736.5837, 4.314636
737.0659, 5.200195
737.5480, 5.143616
738.0301, 4.511963
738.5122, 2.956482
738.9943, 1.174561
739.4764, 0.3787840
739.9586, 2.379517
740.4407, 3.774353
740.9228, 3.154663
741.4049, 1.478088
741.8870, 0.8965450
742.3691, 1.840393
742.8513, 2.668518
743.3334, 2.991272
743.8155, 2.915588
744.2976, 2.653442
744.7797, 2.221924
745.2618, 1.721863
745.7440, 0.9666140
746.2261, 0.3403930
746.7082, 0.2650760
747.1903, 0.6713260
747.6724, 1.314636
748.1545, 2.821472
748.6367, 3.825256
749.1188, 3.335144
749.6009, 1.502930
750.0830, 0.6105350
750.5651, 0.9424440
751.0472, 1.601501
751.5294, 2.351868
752.0115, 3.125793
752.4936, 3.218994
752.9757, 2.641296
753.4578, 2.256104
753.9399, 2.952332
754.4221, 4.050232
754.9042, 4.575684
755.3863, 4.529724
755.8684, 4.545166
756.3505, 5.133972
756.8326, 5.719849
757.3148, 5.910400
757.7969, 5.577332
758.2790, 5.163025
758.7611, 4.395508
759.2432, 3.939087
759.7253, 4.553406
760.2075, 6.288452
760.6896, 6.943420
761.1717, 6.359131
761.6538, 5.542786
762.1359, 5.435059
762.6180, 5.693481
763.1002, 5.691101
763.5823, 5.310486
764.0644, 5.157715
764.5465, 6.186707
765.0286, 7.260681
765.5107, 7.203979
765.9929, 4.684021
766.4750, 4.285339
766.9571, 7.266418
767.4392, 10.71722
767.9213, 11.78583
768.4034, 10.42603
768.8856, 9.726746
769.3677, 10.08630
769.8498, 10.20062
770.3319, 7.952881
770.8140, 4.667297
771.2961, 2.782227
771.7783, 3.163147
772.2604, 3.891846
772.7425, 4.218018
773.2246, 4.199646
773.7067, 3.972290
774.1888, 3.359863
774.6710, 3.015686
775.1531, 3.000549
775.6352, 3.135864
776.1173, 3.191711
776.5994, 3.187317
777.0815, 3.583069
777.5637, 4.553223
778.0458, 5.487610
778.5279, 5.333191
779.0100, 4.702942
779.4921, 4.834290
779.9742, 6.710083
780.4564, 8.069641
780.9385, 7.418701
781.4206, 5.915222
781.9027, 5.032227
782.3848, 4.835815
782.8669, 5.183105
783.3491, 6.398865
783.8312, 7.876404
784.3133, 8.548584
784.7954, 8.409790
785.2775, 7.865234
785.7596, 6.837769
786.2418, 6.000977
786.7239, 6.733398
787.2060, 8.121460
787.6881, 8.508179
788.1702, 6.229248
788.6523, 4.338013
789.1345, 4.179504
789.6166, 5.024841
790.0987, 5.614807
790.5808, 5.798645
791.0629, 6.060791
791.5450, 6.526245
792.0272, 7.035095
792.5093, 7.138123
792.9914, 6.920959
793.4735, 7.026306
793.9556, 7.740295
794.4377, 8.651855
794.9199, 9.467407
795.4020, 10.11121
795.8841, 10.42291
796.3662, 9.635132
796.8483, 9.300659
797.3304, 10.31592
797.8126, 11.87744
798.2947, 12.48810
798.7768, 11.80701
799.2589, 11.13379
799.7410, 10.69537
800.2231, 10.41046
800.7053, 10.15283
801.1874, 9.915466
801.6695, 9.637329
802.1516, 9.277039
802.6337, 8.963562
803.1158, 8.962830
803.5980, 9.077454
804.0801, 8.952271
804.5622, 7.517151
805.0443, 7.215637
805.5264, 9.361694
806.0085, 12.33661
806.4907, 12.81952
806.9728, 10.24420
807.4549, 8.659241
807.9370, 9.139771
808.4191, 10.56232
808.9012, 10.96558
809.3834, 10.76007
809.8655, 11.14124
810.3476, 13.13843
810.8297, 14.94415
811.3118, 15.36530
811.7939, 14.90881
812.2761, 14.39935
812.7582, 13.60803
813.2403, 13.33026
813.7224, 13.84497
814.2045, 14.75568
814.6866, 15.43280
815.1688, 15.86755
815.6509, 15.86401
816.1330, 15.22852
816.6151, 14.50653
817.0972, 14.34735
817.5793, 14.62018
818.0615, 15.08026
818.5436, 15.79468
819.0257, 16.45923
819.5078, 17.09210
819.9899, 17.54333
820.4720, 17.55267
820.9542, 16.84174
821.4363, 16.36603
821.9184, 16.19006
822.4005, 16.37262
822.8826, 17.31763
823.3647, 18.78687
823.8469, 19.65167
824.3290, 19.54877
824.8111, 19.06158
825.2932, 18.45740
825.7753, 17.88287
826.2574, 17.54657
826.7396, 17.54211
827.2217, 17.73840
827.7038, 18.31018
828.1859, 18.95642
828.6681, 19.23175
829.1502, 19.03491
829.6323, 19.25177
830.1144, 20.01044
830.5966, 21.09894
831.0787, 22.58325
831.5608, 24.14136
832.0429, 25.20636
832.5250, 25.59137
833.0071, 25.60052
833.4893, 24.79797
833.9714, 23.94739
834.4535, 23.95294
834.9356, 25.67877
835.4177, 26.47321
835.8998, 25.99774
836.3820, 25.22388
836.8641, 25.24731
837.3462, 25.96130
837.8283, 26.54797
838.3104, 26.91949
838.7925, 27.12939
839.2747, 27.08893
839.7568, 27.03748
840.2389, 27.23517
840.7210, 27.76587
841.2031, 28.30878
841.6852, 28.78497
842.1674, 29.17291
842.6495, 29.50684
843.1316, 29.86163
843.6137, 29.91132
844.0958, 29.53949
844.5779, 29.18878
845.0601, 29.68610
845.5422, 30.44775
846.0243, 30.11890
846.5064, 28.54260
846.9885, 27.33185
847.4706, 27.99445
847.9528, 28.99530
848.4349, 29.30573
848.9170, 28.77106
849.3991, 28.41315
849.8812, 28.20825
850.3633, 28.17798
850.8455, 28.42914
851.3276, 28.87445
851.8097, 28.99866
852.2918, 28.88348
852.7739, 29.17059
853.2560, 30.81366
853.7382, 32.57990
854.2203, 33.29816
854.7024, 32.88928
855.1845, 32.38611
855.6666, 31.60345
856.1487, 31.28619
856.6309, 32.09186
857.1130, 33.79303
857.5951, 34.06287
858.0772, 32.76276
858.5593, 31.38757
859.0414, 30.86176
859.5236, 30.69080
860.0057, 30.00452
860.4878, 29.00586
860.9699, 28.36078
861.4520, 28.57086
861.9341, 29.03577
862.4163, 29.82190
862.8984, 30.71063
863.3805, 30.88159
863.8626, 29.94409
864.3447, 29.12500
864.8268, 28.81055
865.3090, 28.81451
865.7911, 28.93439
866.2732, 29.14246
866.7553, 29.10468
867.2374, 28.20270
867.7195, 27.42584
868.2017, 27.90186
868.6838, 28.78265
869.1659, 28.56793
869.6480, 26.26257
870.1301, 24.82446
870.6122, 24.75232
871.0944, 25.18866
871.5765, 24.99420
872.0586, 24.25952
872.5407, 23.37238
873.0228, 22.35706
873.5049, 21.44141
873.9871, 21.11224
874.4692, 20.85028
874.9513, 19.96204
875.4334, 17.72369
875.9155, 16.36230
876.3976, 16.35767
876.8798, 16.85071
877.3619, 17.27826
877.8440, 17.63788
878.3261, 17.85901
878.8082, 17.95160
879.2903, 17.73981
879.7725, 16.93622
880.2546, 15.81799
880.7367, 14.61255
881.2188, 13.34064
881.7009, 12.40094
882.1830, 12.29468
882.6652, 12.19714
883.1473, 11.55597
883.6294, 10.41443
884.1115, 10.32666
884.5936, 11.45856
885.0757, 12.46106
885.5579, 12.30737
886.0400, 11.63080
886.5221, 11.89240
887.0042, 12.76135
887.4863, 12.90045
887.9684, 10.60504
888.4506, 8.526978
888.9327, 8.203308
889.4148, 9.019287
889.8969, 8.812622
890.3790, 7.160889
890.8611, 6.032776
891.3433, 6.156250
891.8254, 6.768494
892.3075, 6.387146
892.7896, 5.293213
893.2717, 4.309204
893.7538, 3.764160
894.2360, 3.366638
894.7181, 2.933228
895.2002, 2.571899
895.6823, 2.471558
896.1644, 2.851868
896.6465, 2.984070
897.1287, 2.739014
897.6108, 2.415466
898.0929, 2.332397
898.5750, 2.478760
899.0571, 3.014893
899.5392, 4.085938
900.0214, 4.546204
900.5035, 2.786255
900.9856, 0.5243530
901.4677, 0.7252810
901.9498, 0.4597170
902.4319, 0.2224120
902.9141, 0.1934810
903.3962, 8.0017000E-02
903.8783, 1.293579
904.3604, 3.163208
904.8425, 3.317871
905.3246, 1.848572
905.8068, 0.2612300
906.2889, 0.5981450
906.7710, 1.023193
907.2531, 1.111267
907.7352, 0.9122920
908.2173, 0.7452390
908.6995, 0.3757320
909.1816, 0.4547120
909.6637, 1.270447
910.1458, 2.589050
910.6279, 3.985718
911.1100, 5.368103
911.5922, 5.863953
912.0743, 4.788147
912.5564, 3.212341
913.0385, 1.581421
913.5206, 0.3046880
914.0027, 4.4066999E-02
914.4849, 2.441162
914.9670, 3.786377
915.4491, 3.427490
915.9312, 2.370789
916.4133, 1.881409
916.8954, 1.927917
917.3776, 1.848328
917.8597, 1.516724
918.3418, 1.384338
918.8239, 1.988037
919.3060, 2.965271
919.7881, 4.139404
920.2703, 5.749634
920.7524, 6.131409
921.2345, 4.273315
921.7166, 2.195557
922.1987, 0.7656250
922.6808, 1.2820000E-03
923.1630, 0.8059690
923.6451, 3.157227
924.1272, 5.062622
924.6093, 4.758118
925.0914, 3.673523
925.5735, 3.073364
926.0557, 2.946350
926.5378, 3.002075
927.0199, 3.565735
927.5020, 3.809021
927.9841, 3.578247
928.4662, 2.902283
928.9484, 1.588501
929.4305, 0.2954710
929.9126, 1.535278
930.3947, 1.559692
930.8768, 1.179504
931.3589, 1.149658
931.8411, 1.291443
932.3232, 1.328613
932.8053, 0.8586430
933.2874, 0.8809810
933.7695, 1.704773
934.2516, 2.751038
934.7338, 3.499084
935.2159, 3.971924
935.6980, 4.292175
936.1801, 4.481567
936.6622, 4.364136
937.1443, 3.131836
937.6265, 1.959106
938.1086, 2.172729
938.5907, 3.906921
939.0728, 5.552124
939.5549, 6.944214
940.0370, 7.982300
940.5192, 8.456970
941.0013, 8.535217
941.4834, 9.102234
941.9655, 10.11853
942.4476, 11.01959
942.9297, 11.51904
943.4119, 11.79303
943.8940, 11.88904
944.3761, 11.90619
944.8582, 12.03693
945.3403, 12.47394
945.8224, 12.83521
946.3046, 13.03735
946.7867, 13.21521
947.2688, 13.51630
947.7509, 13.93042
948.2330, 14.45544
948.7151, 15.10529
949.1973, 15.76453
949.6794, 16.10828
950.1615, 16.52301
950.6436, 17.55884
951.1257, 19.57898
951.6078, 20.36200
952.0900, 19.15582
952.5721, 18.20837
953.0542, 19.01892
953.5363, 21.12378
954.0184, 22.69385
954.5005, 23.73212
954.9827, 24.36926
955.4648, 24.06573
955.9469, 24.01581
956.4290, 25.40704
956.9111, 27.65985
957.3932, 28.81128
957.8754, 28.09198
958.3575, 28.08856
958.8396, 29.40656
959.3217, 31.14331
959.8038, 31.73865
960.2859, 31.62982
960.7681, 31.96893
961.2502, 33.07971
961.7323, 34.53369
962.2144, 36.25934
962.6965, 38.01154
963.1786, 39.71454
963.6608, 41.48505
964.1429, 42.03528
964.6250, 41.08643
965.1071, 40.36322
965.5892, 41.62756
966.0714, 43.73016
966.5535, 44.19843
967.0356, 43.34979
967.5177, 43.10736
967.9998, 45.07910
968.4819, 46.96710
968.9641, 48.10956
969.4462, 48.57880
969.9283, 48.21338
970.4104, 46.88269
970.8925, 46.68262
971.3746, 48.34247
971.8568, 50.41553
972.3389, 51.06097
972.8210, 50.89954
973.3031, 50.79248
973.7852, 50.66663
974.2673, 51.46484
974.7495, 54.10992
975.2316, 56.86786
975.7137, 58.46997
976.1958, 58.91882
976.6779, 60.10187
977.1600, 61.98969
977.6422, 63.44519
978.1243, 63.24268
978.6064, 62.69745
979.0885, 63.08472
979.5706, 64.27673
980.0527, 65.49701
980.5349, 66.68994
981.0170, 67.64819
981.4991, 68.23810
981.9812, 68.57477
982.4633, 68.98975
982.9454, 69.50946
983.4276, 69.98615
983.9097, 70.31500
984.3918, 70.82837
984.8739, 71.85907
985.3560, 73.12189
985.8381, 74.36285
986.3203, 75.58917
986.8024, 76.77106
987.2845, 77.85724
987.7666, 78.98639
988.2487, 80.38184
988.7308, 81.86780
989.2130, 83.16321
989.6951, 84.22864
990.1772, 84.97308
990.6593, 84.75446
991.1414, 84.86823
991.6235, 86.02130
992.1057, 87.75659
992.5878, 89.37250
993.0699, 90.94159
993.5520, 91.29181
994.0341, 89.83026
994.5162, 88.44641
994.9984, 89.49048
995.4805, 91.91998
995.9626, 94.55286
996.4447, 97.51208
996.9268, 99.21643
997.4089, 98.53479
997.8911, 97.85596
998.3732, 98.77380
998.8553, 100.9528
999.3374, 101.7578
999.8195, 101.2994
1000.302, 100.7162
1000.784, 100.5486
1001.266, 100.6190
1001.748, 101.1511
1002.230, 101.8088
1002.712, 101.5306
1003.194, 99.18579
1003.676, 98.90112
1004.159, 101.7949
1004.641, 105.4218
1005.123, 106.2988
1005.605, 105.4399
1006.087, 105.3223
1006.569, 106.4141
1007.051, 107.3654
1007.533, 107.6082
1008.016, 107.4285
1008.498, 106.8046
1008.980, 105.8085
1009.462, 105.8793
1009.944, 107.0972
1010.426, 108.0756
1010.908, 107.9236
1011.390, 107.4430
1011.872, 107.5419
1012.355, 108.0513
1012.837, 108.6268
1013.319, 109.6570
1013.801, 110.0575
1014.283, 109.6924
1014.765, 108.8087
1015.247, 107.5261
1015.729, 105.9274
1016.211, 104.3395
1016.694, 102.7968
1017.176, 101.9184
1017.658, 102.7760
1018.140, 103.8884
1018.622, 104.2135
1019.104, 103.8017
1019.586, 103.5065
1020.068, 103.2826
1020.551, 103.4008
1021.033, 104.1522
1021.515, 104.9068
1021.997, 104.5176
1022.479, 103.3851
1022.961, 102.2397
1023.443, 101.1646
1023.925, 100.3445
1024.407, 99.49359
1024.890, 99.23486
1025.372, 100.5348
1025.854, 103.3729
1026.336, 103.9320
1026.818, 102.2492
1027.300, 100.3967
1027.782, 99.86121
1028.264, 99.63928
1028.746, 98.75946
1029.229, 97.49335
1029.711, 97.03778
1030.193, 98.03241
1030.675, 98.25867
1031.157, 97.06830
1031.639, 95.59515
1032.121, 95.81897
1032.603, 96.94275
1033.086, 97.02155
1033.568, 95.59406
1034.050, 94.16638
1034.532, 93.42444
1035.014, 92.84729
1035.496, 92.12756
1035.978, 91.29364
1036.460, 90.67218
1036.943, 90.26678
1037.425, 89.93188
1037.907, 90.04822
1038.389, 89.65051
1038.871, 86.88104
1039.353, 83.20251
1039.835, 81.26880
1040.317, 82.89478
1040.799, 83.72736
1041.281, 83.54590
1041.764, 82.83624
1042.246, 81.92236
1042.728, 80.87897
1043.210, 79.94458
1043.692, 79.10870
1044.174, 78.26117
1044.656, 77.16333
1045.138, 76.23163
1045.621, 75.82117
1046.103, 75.65356
1046.585, 74.98364
1047.067, 73.81769
1047.549, 72.15686
1048.031, 69.81860
1048.513, 67.78369
1048.995, 67.10309
1049.478, 67.31628
1049.960, 68.21869
1050.442, 70.42261
1050.924, 70.33679
1051.406, 66.66791
1051.888, 63.62805
1052.370, 64.17755
1052.852, 66.83337
1053.334, 67.75488
1053.817, 67.29895
1054.299, 66.73364
1054.781, 66.53931
1055.263, 66.46985
1055.745, 66.64594
1056.227, 66.57916
1056.709, 65.58685
1057.191, 63.66003
1057.673, 62.27643
1058.156, 61.56024
1058.638, 61.25677
1059.120, 61.43817
1059.602, 61.64014
1060.084, 61.53723
1060.566, 61.16534
1061.048, 60.73126
1061.530, 60.39606
1062.013, 59.53973
1062.495, 57.95306
1062.977, 55.97906
1063.459, 53.81036
1063.941, 51.73840
1064.423, 50.35968
1064.905, 49.98907
1065.387, 49.66443
1065.870, 48.87579
1066.352, 48.28595
1066.834, 48.43134
1067.316, 49.15845
1067.798, 48.81555
1068.280, 47.52496
1068.762, 46.72125
1069.244, 48.02942
1069.726, 49.16364
1070.208, 48.25732
1070.691, 46.34320
1071.173, 45.11700
1071.655, 44.73975
1072.137, 44.78314
1072.619, 45.32788
1073.101, 45.37891
1073.583, 43.35089
1074.065, 40.78912
1074.548, 39.84125
1075.030, 40.40228
1075.512, 40.80707
1075.994, 40.97217
1076.476, 40.54474
1076.958, 39.14240
1077.440, 37.40509
1077.922, 36.81079
1078.405, 36.91370
1078.887, 36.14752
1079.369, 34.00574
1079.851, 32.24725
1080.333, 32.09460
1080.815, 32.40765
1081.297, 32.62341
1081.779, 32.71429
1082.261, 32.07727
1082.744, 30.72778
1083.226, 29.49005
1083.708, 28.57043
1084.190, 27.86450
1084.672, 27.46014
1085.154, 27.23486
1085.636, 26.98193
1086.118, 26.71637
1086.601, 26.17328
1087.083, 25.36279
1087.565, 24.34064
1088.047, 23.08942
1088.529, 21.69867
1089.011, 20.13055
1089.493, 18.49951
1089.975, 17.24884
1090.458, 17.02686
1090.940, 16.63843
1091.422, 15.84320
1091.904, 14.78802
1092.386, 13.60907
1092.868, 12.41986
1093.350, 11.70197
1093.832, 11.45050
1094.314, 11.07196
1094.797, 9.557129
1095.279, 8.420898
1095.761, 8.703247
1096.243, 10.07343
1096.725, 11.58411
1097.207, 13.25995
1097.689, 13.35229
1098.171, 10.78229
1098.653, 8.025146
1099.136, 7.801392
1099.618, 8.590332
1100.100, 8.555603
1100.582, 7.153015
1101.064, 6.561890
1101.546, 7.035767
1102.028, 7.377869
1102.510, 6.849365
1102.993, 5.845398
1103.475, 4.934814
1103.957, 4.121826
1104.439, 3.427673
1104.921, 3.156799
1105.403, 2.568054
1105.885, 1.488281
1106.367, 0.3133540
1106.849, 0.5682980
1107.332, 1.207947
1107.814, 1.953796
1108.296, 2.752258
1108.778, 3.035156
1109.260, 1.399109
1109.742, 0.4437870
1110.224, 1.705383
1110.706, 3.976990
1111.188, 5.294556
1111.671, 5.704956
1112.153, 6.386414
1112.635, 7.555725
1113.117, 8.294678
1113.599, 7.535828
1114.081, 6.292786
1114.563, 5.291748
1115.045, 4.558655
1115.528, 4.014038
1116.010, 3.742676
1116.492, 3.159363
1116.974, 1.990601
1117.456, 0.7928470
1117.938, 0.4396970
1118.420, 0.4290770
1118.902, 8.9050002E-02
1119.385, 0.7705080
1119.867, 1.583069
1120.349, 2.479248
1120.831, 2.819458
1121.313, 1.985962
1121.795, 0.6149290
1122.277, 3.4790002E-02
1122.759, 2.8259000E-02
1123.241, 8.5205004E-02
1123.724, 0.2815550
1124.206, 0.1603390
1124.688, 0.4774780
1125.170, 1.133484
1125.652, 1.272766
1126.134, 1.023804
1126.616, 1.146301
1127.098, 1.592346
1127.580, 2.113342
1128.063, 2.635132
1128.545, 3.132813
1129.027, 3.813416
1129.509, 4.309265
1129.991, 4.000427
1130.473, 2.923950
1130.955, 2.012695
1131.437, 1.364502
1131.920, 0.7584840
1132.402, 0.2117310
1132.884, 0.9536740
1133.366, 0.7971190
1133.848, 4.9621999E-02
1134.330, 0.1754760
1134.812, 0.1510620
1135.294, 0.7912600
1135.776, 1.747375
1136.259, 2.763489
1136.741, 3.672302
1137.223, 4.446228
1137.705, 5.154236
1138.187, 5.789185
1138.669, 5.792297
1139.151, 5.002991
1139.633, 4.029297
1140.115, 2.753296
1140.598, 2.040161
1141.080, 4.140198
1141.562, 7.298523
1142.044, 8.579956
1142.526, 6.520813
1143.008, 5.585510
1143.490, 6.586914
1143.972, 7.661316
1144.455, 7.803284
1144.937, 7.343018
1145.419, 6.839111
1145.901, 6.391541
1146.383, 6.250305
1146.865, 6.823425
1147.347, 7.163269
1147.829, 6.861023
1148.312, 6.684631
1148.794, 7.612000
1149.276, 9.231323
1149.758, 8.943115
1150.240, 7.207886
1150.722, 6.528564
1151.204, 9.711426
1151.686, 12.21088
1152.168, 11.85883
1152.651, 10.71039
1153.133, 11.42450
1153.615, 13.72522
1154.097, 14.63947
1154.579, 14.00214
1155.061, 13.03790
1155.543, 12.25647
1156.025, 11.64221
1156.507, 11.06348
1156.990, 10.69006
1157.472, 11.02148
1157.954, 12.06158
1158.436, 12.78363
1158.918, 13.00970
1159.400, 13.37830
1159.882, 15.06836
1160.364, 16.53345
1160.847, 16.09540
1161.329, 14.26721
1161.811, 13.96454
1162.293, 15.38696
1162.775, 16.04681
1163.257, 15.20654
1163.739, 13.98499
1164.221, 13.16223
1164.703, 12.75995
1165.186, 13.02332
1165.668, 13.99518
1166.150, 14.25366
1166.632, 13.73743
1167.114, 13.02411
1167.596, 12.05664
1168.078, 11.34943
1168.560, 11.80121
1169.042, 12.83612
1169.525, 13.69061
1170.007, 14.16016
1170.489, 14.67719
1170.971, 15.39362
1171.453, 15.73633
1171.935, 15.12555
1172.417, 14.25909
1172.899, 14.04443
1173.382, 14.38599
1173.864, 15.16675
1174.346, 16.84882
1174.828, 17.94788
1175.310, 18.30212
1175.792, 18.44653
1176.274, 18.96661
1176.756, 19.40210
1177.239, 18.43469
1177.721, 16.70526
1178.203, 15.92035
1178.685, 17.74493
1179.167, 18.96100
1179.649, 19.41632
1180.131, 19.19360
1180.613, 17.92456
1181.095, 16.27832
1181.578, 16.02240
1182.060, 16.84296
1182.542, 17.23108
1183.024, 16.19891
1183.506, 15.32330
1183.988, 14.71515
1184.470, 14.55798
1184.952, 15.43549
1185.434, 16.83911
1185.917, 17.40802
1186.399, 17.10321
1186.881, 16.68689
1187.363, 16.13007
1187.845, 16.07581
1188.327, 16.89117
1188.809, 17.95459
1189.291, 18.29932
1189.774, 18.11383
1190.256, 18.10651
1190.738, 18.31372
1191.220, 18.12958
1191.702, 16.73907
1192.184, 15.59875
1192.666, 15.22510
1193.148, 15.36371
1193.630, 15.67236
1194.113, 16.04425
1194.595, 16.02484
1195.077, 15.50012
1195.559, 15.16449
1196.041, 15.61212
1196.523, 15.99878
1197.005, 15.97894
1197.487, 15.66840
1197.969, 15.44342
1198.452, 15.19714
1198.934, 14.45129
1199.416, 12.83978
1199.898, 11.79431
1200.380, 12.64587
1200.862, 13.44159
1201.344, 13.21619
1201.826, 12.27765
1202.309, 11.58478
1202.791, 11.16510
1203.273, 11.34198
1203.755, 12.63531
1204.237, 13.23169
1204.719, 11.44800
1205.201, 9.669006
1205.683, 9.410339
1206.166, 10.21936
1206.648, 9.672668
1207.130, 8.186829
1207.612, 7.512634
1208.094, 8.773071
1208.576, 9.829346
1209.058, 9.597107
1209.540, 9.100037
1210.022, 8.900696
1210.505, 8.971436
1210.987, 9.408264
1211.469, 10.09528
1211.951, 10.45667
1212.433, 9.906921
1212.915, 9.516479
1213.397, 9.939026
1213.879, 10.41168
1214.361, 10.27606
1214.844, 9.658630
1215.326, 9.346130
1215.808, 9.408447
1216.290, 10.16351
1216.772, 13.24127
1217.254, 15.03821
1217.736, 13.72638
1218.218, 11.52240
1218.701, 10.05463
1219.183, 9.284180
1219.665, 9.116028
1220.147, 9.436829
1220.629, 9.635559
1221.111, 9.413940
1221.593, 9.044800
1222.075, 8.605225
1222.557, 8.090576
1223.040, 7.391418
1223.522, 6.613647
1224.004, 6.258240
1224.486, 6.294373
1224.968, 6.448425
1225.450, 7.139343
1225.932, 7.114929
1226.414, 5.752136
1226.896, 4.132263
1227.379, 3.483948
1227.861, 3.601868
1228.343, 3.999451
1228.825, 4.535156
1229.307, 4.569031
1229.789, 3.180481
1230.271, 2.086426
1230.753, 1.620728
1231.236, 1.647156
1231.718, 2.395142
1232.200, 3.413025
1232.682, 3.062195
1233.164, 1.512817
1233.646, 0.6445920
1234.128, 1.574768
1234.610, 3.039978
1235.093, 5.130798
1235.575, 7.023193
1236.057, 7.561829
1236.539, 7.052063
1237.021, 5.847290
1237.503, 4.096863
1237.985, 2.788757
1238.467, 2.307922
1238.949, 2.298584
1239.432, 2.814575
1239.914, 3.540161
1240.396, 4.079407
1240.878, 4.488098
1241.360, 5.031189
1241.842, 5.683044
1242.324, 5.433594
1242.806, 3.063293
1243.288, 2.082642
1243.771, 3.503540
1244.253, 5.735046
1244.735, 7.023315
1245.217, 7.659973
1245.699, 8.242798
1246.181, 8.763184
1246.663, 8.006165
1247.145, 5.017639
1247.628, 3.469666
1248.110, 4.382629
1248.592, 6.095154
1249.074, 7.044373
1249.556, 7.250061
1250.038, 6.382690
1250.520, 4.544128
1251.002, 3.693115
1251.484, 4.099792
1251.967, 4.575073
1252.449, 4.875061
1252.931, 5.095154
1253.413, 5.656128
1253.895, 5.967224
1254.377, 5.058594
1254.859, 3.075928
1255.341, 2.181946
1255.823, 2.453918
1256.306, 3.271362
1256.788, 4.667725
1257.270, 5.563049
1257.752, 3.992859
1258.234, 2.242249
1258.716, 2.774780
1259.198, 5.009216
1259.680, 5.783264
1260.163, 5.087219
1260.645, 4.669922
1261.127, 5.004150
1261.609, 5.201965
1262.091, 4.417419
1262.573, 3.417114
1263.055, 2.666504
1263.537, 2.164856
1264.020, 1.859619
1264.502, 1.741272
1264.984, 1.880310
1265.466, 2.310913
1265.948, 2.507263
1266.430, 1.942322
1266.912, 1.545105
1267.394, 1.779053
1267.876, 2.379272
1268.359, 2.057129
1268.841, 1.046204
1269.323, 0.4914550
1269.805, 0.6552730
1270.287, 0.8130490
1270.769, 0.6312260
1271.251, 0.4403690
1271.733, 0.3025510
1272.215, 0.2304690
1272.698, 0.5578610
1273.180, 1.111511
1273.662, 1.602966
1274.144, 2.039124
1274.626, 1.925598
1275.108, 0.7188720
1275.590, 0.1340940
1276.072, 0.9111330
1276.555, 2.223145
1277.037, 2.750671
1277.519, 2.813721
1278.001, 2.922180
1278.483, 3.136353
1278.965, 2.985718
1279.447, 2.188965
1279.929, 1.772156
1280.411, 2.173157
1280.894, 2.945801
1281.376, 4.091553
1281.858, 4.985046
1282.340, 4.458618
1282.822, 2.581665
1283.304, 2.763977
1283.786, 5.290222
1284.268, 6.715027
1284.750, 5.963684
1285.233, 4.686157
1285.715, 4.454895
1286.197, 4.538635
1286.679, 4.459961
1287.161, 4.244690
1287.643, 3.675598
1288.125, 2.728943
1288.607, 1.914795
1289.090, 1.558838
1289.572, 1.166321
1290.054, 3.6316000E-02
1290.536, 0.7257690
1291.018, 0.3037720
1291.500, 0.8201290
1291.982, 1.205200
1292.464, 1.102112
1292.947, 1.529419
1293.429, 2.765198
1293.911, 3.507935
1294.393, 2.136902
1294.875, 1.622131
1295.357, 3.169495
1295.839, 4.653931
1296.321, 4.412170
1296.803, 3.458923
1297.286, 3.583435
1297.768, 5.050842
1298.250, 4.716614
1298.732, 1.681213
1299.214, 1.7456001E-02
1299.696, 1.198792
1300.178, 1.544556
1300.660, 0.0000000E+00
##END=



