##NAMES=Marcasite
##RRUFFID=R060882
##IDEAL CHEMISTRY=FeS_2_
##LOCALITY=Ive's Quarry, Racine, Wisconsin, USA
##OWNER=RRUFF
##SOURCE=Bob Jenkins
##DESCRIPTION=Brassy yellow prismatic crystals
##STATUS=The identification of this mineral is confirmed by single-crystal X-ray diffraction and chemical analysis.
##URL=rruff.info/R060882
##MEASURED CHEMISTRY=Fe_1.00_S_2.00_
170.6989, 877.1075
171.1810, 874.5923
171.6631, 879.0326
172.1452, 883.8787
172.6273, 882.3433
173.1095, 875.5258
173.5916, 869.1320
174.0737, 867.3948
174.5558, 868.5058
175.0379, 869.7384
175.5201, 870.9037
176.0022, 871.3071
176.4843, 868.4618
176.9664, 862.6993
177.4485, 859.2766
177.9306, 865.5659
178.4128, 877.6063
178.8949, 886.4771
179.3770, 887.7231
179.8591, 884.2896
180.3412, 880.9103
180.8233, 877.5888
181.3055, 873.7717
181.7876, 865.6967
182.2697, 855.6917
182.7518, 851.9691
183.2339, 864.6400
183.7160, 885.9793
184.1981, 894.4011
184.6803, 887.8361
185.1624, 877.7033
185.6445, 880.3243
186.1266, 893.6052
186.6087, 902.9182
187.0908, 895.3286
187.5730, 876.4181
188.0551, 871.1171
188.5372, 883.5576
189.0193, 901.5477
189.5014, 905.8828
189.9835, 896.9525
190.4657, 886.6290
190.9478, 880.9329
191.4299, 879.4758
191.9120, 879.9882
192.3941, 882.8329
192.8762, 886.6867
193.3584, 888.3250
193.8405, 887.5336
194.3226, 887.9122
194.8047, 893.4478
195.2868, 903.8766
195.7689, 910.0191
196.2511, 910.1114
196.7332, 906.0468
197.2153, 902.4303
197.6974, 899.1350
198.1795, 896.9542
198.6616, 897.0682
199.1437, 899.6777
199.6259, 901.3041
200.1080, 901.2810
200.5901, 899.9427
201.0722, 897.9482
201.5543, 894.6088
202.0364, 892.9103
202.5186, 896.0832
203.0007, 904.8351
203.4828, 913.3547
203.9649, 921.2813
204.4470, 928.1939
204.9291, 931.0091
205.4113, 929.1013
205.8934, 924.5854
206.3755, 918.3384
206.8576, 909.2671
207.3397, 903.6044
207.8218, 903.7692
208.3040, 909.3334
208.7861, 911.7573
209.2682, 909.0048
209.7503, 906.6902
210.2324, 912.2237
210.7145, 928.7246
211.1967, 942.3880
211.6788, 949.6614
212.1609, 950.4703
212.6430, 948.4271
213.1251, 940.7627
213.6072, 934.0107
214.0893, 937.9807
214.5715, 958.6187
215.0536, 974.0780
215.5357, 976.1092
216.0178, 962.7350
216.4999, 955.5278
216.9820, 956.0082
217.4642, 961.1174
217.9463, 966.9893
218.4284, 973.6986
218.9105, 980.8905
219.3926, 990.0311
219.8747, 1002.938
220.3569, 1005.688
220.8390, 992.5349
221.3211, 973.6258
221.8032, 965.4135
222.2853, 973.0558
222.7674, 981.5186
223.2496, 985.6177
223.7317, 984.1350
224.2138, 983.5642
224.6959, 985.5496
225.1780, 987.4944
225.6601, 983.6801
226.1423, 969.1937
226.6244, 957.7137
227.1065, 955.6990
227.5886, 968.2050
228.0707, 973.8604
228.5528, 969.3080
229.0349, 959.3603
229.5171, 954.4829
229.9992, 957.8696
230.4813, 960.9984
230.9634, 960.1846
231.4455, 952.9435
231.9276, 948.2290
232.4098, 947.1722
232.8919, 948.2725
233.3740, 947.9327
233.8561, 945.4873
234.3382, 942.6561
234.8203, 939.7687
235.3025, 935.4798
235.7846, 934.5717
236.2667, 938.9318
236.7488, 946.2269
237.2309, 949.9924
237.7130, 947.6779
238.1952, 945.5336
238.6773, 946.7520
239.1594, 954.6069
239.6415, 958.3406
240.1236, 955.2266
240.6057, 948.4532
241.0879, 947.5703
241.5700, 955.9689
242.0521, 965.4178
242.5342, 972.7119
243.0163, 979.2651
243.4984, 980.1174
243.9805, 972.1283
244.4627, 958.7582
244.9448, 950.7157
245.4269, 950.2712
245.9090, 951.9135
246.3911, 953.5405
246.8732, 956.7260
247.3554, 955.8755
247.8375, 947.8719
248.3196, 936.0356
248.8017, 931.9526
249.2838, 941.2325
249.7659, 950.0711
250.2481, 951.1449
250.7302, 939.7271
251.2123, 931.9801
251.6944, 930.7116
252.1765, 933.1379
252.6586, 929.6190
253.1408, 915.5226
253.6229, 902.7280
254.1050, 897.7211
254.5871, 904.4975
255.0692, 908.9022
255.5513, 908.9460
256.0334, 906.6238
256.5156, 908.9239
256.9977, 919.6934
257.4798, 928.7551
257.9619, 930.0128
258.4440, 919.3986
258.9261, 912.0799
259.4083, 908.8536
259.8904, 909.1537
260.3725, 911.3843
260.8546, 915.8481
261.3367, 921.6791
261.8188, 929.6118
262.3010, 942.5590
262.7831, 947.9775
263.2652, 942.6028
263.7473, 930.5143
264.2294, 923.1547
264.7115, 921.8076
265.1937, 922.5986
265.6758, 923.8924
266.1579, 925.9622
266.6400, 927.0105
267.1221, 925.5966
267.6042, 923.9144
268.0864, 929.0018
268.5685, 944.1752
269.0506, 957.8518
269.5327, 963.9221
270.0148, 961.2216
270.4969, 955.9741
270.9791, 946.1602
271.4612, 935.7831
271.9433, 936.2225
272.4254, 950.9143
272.9075, 964.9266
273.3896, 969.8066
273.8718, 964.1100
274.3539, 959.2116
274.8360, 953.7161
275.3181, 951.0637
275.8002, 962.3560
276.2823, 992.0731
276.7645, 1015.275
277.2466, 1014.951
277.7287, 988.1721
278.2108, 976.0148
278.6929, 982.8862
279.1750, 999.5563
279.6572, 1009.625
280.1393, 1012.475
280.6214, 1013.151
281.1035, 1012.222
281.5856, 1009.744
282.0677, 1013.006
282.5498, 1023.047
283.0320, 1036.981
283.5141, 1051.008
283.9962, 1065.197
284.4783, 1078.236
284.9604, 1089.526
285.4425, 1099.159
285.9247, 1107.719
286.4068, 1115.316
286.8889, 1121.502
287.3710, 1124.194
287.8531, 1123.592
288.3352, 1125.120
288.8174, 1131.365
289.2995, 1141.825
289.7816, 1155.295
290.2637, 1172.385
290.7458, 1188.453
291.2279, 1197.067
291.7101, 1198.901
292.1922, 1199.114
292.6743, 1200.102
293.1564, 1201.061
293.6385, 1198.276
294.1206, 1191.151
294.6028, 1185.097
295.0849, 1188.655
295.5670, 1199.168
296.0491, 1205.736
296.5312, 1202.132
297.0133, 1192.538
297.4955, 1185.184
297.9776, 1180.289
298.4597, 1175.656
298.9418, 1169.523
299.4239, 1162.152
299.9060, 1154.049
300.3882, 1143.255
300.8703, 1133.168
301.3524, 1129.598
301.8345, 1132.345
302.3166, 1137.267
302.7987, 1143.500
303.2809, 1149.268
303.7630, 1151.598
304.2451, 1150.042
304.7272, 1143.995
305.2093, 1130.396
305.6914, 1109.989
306.1736, 1090.649
306.6557, 1074.673
307.1378, 1063.559
307.6199, 1059.867
308.1020, 1068.534
308.5841, 1079.235
309.0663, 1081.952
309.5484, 1078.753
310.0305, 1078.299
310.5126, 1086.618
310.9947, 1099.647
311.4768, 1113.108
311.9590, 1124.476
312.4410, 1138.864
312.9232, 1158.278
313.4053, 1183.028
313.8874, 1213.367
314.3695, 1255.313
314.8516, 1299.846
315.3337, 1341.733
315.8159, 1382.439
316.2980, 1414.684
316.7801, 1430.308
317.2622, 1435.484
317.7443, 1443.269
318.2264, 1449.795
318.7086, 1466.577
319.1907, 1502.640
319.6728, 1565.944
320.1549, 1626.771
320.6370, 1669.809
321.1191, 1706.595
321.6013, 1754.559
322.0834, 1812.485
322.5655, 1886.372
323.0476, 1995.234
323.5297, 2161.007
324.0118, 2264.302
324.4940, 2290.153
324.9761, 2243.567
325.4582, 2130.164
325.9403, 1857.268
326.4224, 1610.492
326.9045, 1430.430
327.3867, 1323.822
327.8688, 1239.101
328.3509, 1182.217
328.8330, 1143.029
329.3151, 1112.889
329.7972, 1095.082
330.2794, 1082.312
330.7615, 1075.518
331.2436, 1074.403
331.7257, 1070.463
332.2078, 1061.469
332.6899, 1051.858
333.1721, 1044.547
333.6542, 1039.796
334.1363, 1037.164
334.6184, 1037.722
335.1005, 1040.473
335.5826, 1040.497
336.0648, 1036.600
336.5469, 1032.065
337.0290, 1028.800
337.5111, 1027.225
337.9932, 1024.722
338.4753, 1019.261
338.9575, 1014.065
339.4396, 1019.393
339.9217, 1039.019
340.4038, 1055.562
340.8859, 1059.772
341.3680, 1050.975
341.8502, 1038.704
342.3323, 1021.084
342.8144, 1004.536
343.2965, 1001.811
343.7786, 1013.498
344.2607, 1025.914
344.7428, 1033.928
345.2249, 1037.877
345.7071, 1039.221
346.1892, 1037.406
346.6713, 1035.812
347.1534, 1039.907
347.6355, 1048.544
348.1176, 1054.316
348.5998, 1051.195
349.0819, 1044.827
349.5640, 1050.797
350.0461, 1069.352
350.5282, 1086.134
351.0103, 1086.286
351.4925, 1075.244
351.9746, 1065.310
352.4567, 1059.692
352.9388, 1057.194
353.4209, 1057.548
353.9030, 1060.295
354.3852, 1062.725
354.8673, 1061.458
355.3494, 1059.401
355.8315, 1060.212
356.3136, 1064.865
356.7957, 1072.151
357.2779, 1083.840
357.7600, 1097.866
358.2421, 1108.350
358.7242, 1110.383
359.2063, 1109.157
359.6884, 1107.776
360.1706, 1105.982
360.6527, 1106.635
361.1348, 1113.443
361.6169, 1123.164
362.0990, 1130.670
362.5811, 1133.380
363.0633, 1134.336
363.5454, 1133.088
364.0275, 1128.832
364.5096, 1129.762
364.9917, 1143.321
365.4738, 1160.641
365.9560, 1173.265
366.4381, 1174.629
366.9202, 1176.467
367.4023, 1181.920
367.8844, 1190.877
368.3665, 1197.710
368.8487, 1200.694
369.3308, 1202.517
369.8129, 1204.615
370.2950, 1205.529
370.7771, 1208.833
371.2592, 1214.594
371.7414, 1222.839
372.2235, 1234.559
372.7056, 1253.802
373.1877, 1270.781
373.6698, 1279.493
374.1519, 1274.919
374.6340, 1278.074
375.1161, 1292.662
375.5983, 1311.577
376.0804, 1319.751
376.5625, 1312.718
377.0446, 1311.172
377.5267, 1325.479
378.0089, 1355.352
378.4910, 1376.298
378.9731, 1386.642
379.4552, 1393.127
379.9373, 1404.751
380.4194, 1421.473
380.9016, 1432.536
381.3837, 1432.534
381.8658, 1425.996
382.3479, 1424.484
382.8300, 1427.957
383.3121, 1438.211
383.7943, 1462.661
384.2764, 1495.568
384.7585, 1519.097
385.2406, 1526.263
385.7227, 1528.509
386.2048, 1543.742
386.6870, 1568.434
387.1691, 1588.361
387.6512, 1596.953
388.1333, 1594.632
388.6154, 1578.293
389.0975, 1544.344
389.5797, 1511.598
390.0618, 1495.662
390.5439, 1491.122
391.0260, 1489.184
391.5081, 1487.003
391.9902, 1485.499
392.4724, 1486.209
392.9545, 1489.287
393.4366, 1490.460
393.9187, 1487.372
394.4008, 1481.827
394.8829, 1475.386
395.3651, 1467.218
395.8472, 1459.586
396.3293, 1453.421
396.8114, 1448.459
397.2935, 1443.166
397.7756, 1432.270
398.2578, 1424.641
398.7399, 1425.131
399.2220, 1444.290
399.7041, 1455.844
400.1862, 1456.786
400.6683, 1450.526
401.1505, 1443.705
401.6326, 1435.525
402.1147, 1427.903
402.5968, 1421.550
403.0789, 1416.756
403.5610, 1410.617
404.0432, 1399.756
404.5253, 1391.749
405.0074, 1398.841
405.4895, 1427.759
405.9716, 1445.331
406.4537, 1441.833
406.9358, 1421.363
407.4179, 1402.310
407.9001, 1383.962
408.3822, 1370.389
408.8643, 1368.962
409.3464, 1377.915
409.8285, 1375.651
410.3106, 1355.669
410.7928, 1330.414
411.2749, 1321.751
411.7570, 1327.858
412.2391, 1334.619
412.7212, 1336.041
413.2033, 1332.377
413.6855, 1323.517
414.1676, 1309.285
414.6497, 1292.012
415.1318, 1271.113
415.6139, 1249.002
416.0960, 1230.583
416.5782, 1216.481
417.0603, 1207.482
417.5424, 1208.799
418.0245, 1218.502
418.5066, 1222.198
418.9887, 1204.327
419.4709, 1181.605
419.9530, 1168.308
420.4351, 1174.116
420.9172, 1179.427
421.3993, 1177.199
421.8814, 1169.724
422.3636, 1162.169
422.8457, 1155.235
423.3278, 1148.885
423.8099, 1142.551
424.2920, 1134.852
424.7741, 1131.783
425.2563, 1141.028
425.7384, 1151.288
426.2205, 1149.970
426.7026, 1126.066
427.1847, 1108.117
427.6668, 1102.219
428.1490, 1107.176
428.6311, 1111.387
429.1132, 1114.308
429.5953, 1117.509
430.0774, 1122.837
430.5595, 1131.214
431.0417, 1135.737
431.5238, 1135.349
432.0059, 1131.417
432.4880, 1125.758
432.9701, 1118.240
433.4522, 1111.748
433.9344, 1108.738
434.4165, 1108.125
434.8986, 1103.228
435.3807, 1093.360
435.8628, 1085.415
436.3449, 1089.894
436.8270, 1102.307
437.3091, 1109.742
437.7913, 1105.234
438.2734, 1097.054
438.7555, 1095.085
439.2376, 1098.262
439.7197, 1101.371
440.2018, 1101.624
440.6840, 1099.989
441.1661, 1097.004
441.6482, 1092.169
442.1303, 1087.900
442.6124, 1086.890
443.0945, 1086.993
443.5767, 1084.835
444.0588, 1070.813
444.5409, 1062.176
445.0230, 1069.674
445.5051, 1095.033
445.9872, 1111.999
446.4694, 1112.737
446.9515, 1106.011
447.4336, 1097.700
447.9157, 1082.674
448.3978, 1073.473
448.8799, 1072.125
449.3621, 1076.983
449.8442, 1083.330
450.3263, 1092.214
450.8084, 1100.630
451.2905, 1108.027
451.7726, 1114.818
452.2548, 1115.968
452.7369, 1109.408
453.2190, 1101.171
453.7011, 1100.180
454.1832, 1106.809
454.6653, 1110.298
455.1475, 1109.427
455.6296, 1080.933
456.1117, 1094.933
456.5938, 1101.239
457.0759, 1100.263
457.5580, 1070.199
458.0402, 1077.697
458.5223, 1070.141
459.0044, 1100.597
459.4865, 1109.263
459.9686, 1101.203
460.4507, 1082.789
460.9329, 1067.448
461.4150, 1062.485
461.8971, 1062.425
462.3792, 1064.598
462.8613, 1068.774
463.3434, 1072.864
463.8256, 1074.931
464.3077, 1077.008
464.7898, 1080.700
465.2719, 1085.750
465.7540, 1093.221
466.2361, 1108.259
466.7183, 1126.277
467.2003, 1134.488
467.6825, 1122.723
468.1646, 1110.375
468.6467, 1103.123
469.1288, 1102.039
469.6109, 1100.782
470.0930, 1099.283
470.5752, 1097.642
471.0573, 1095.328
471.5394, 1091.265
472.0215, 1091.163
472.5036, 1098.107
472.9857, 1108.579
473.4679, 1109.453
473.9500, 1099.700
474.4321, 1090.844
474.9142, 1091.835
475.3963, 1100.176
475.8784, 1104.335
476.3606, 1103.297
476.8427, 1100.308
477.3248, 1099.448
477.8069, 1099.633
478.2890, 1097.988
478.7711, 1091.441
479.2533, 1084.297
479.7354, 1081.038
480.2175, 1081.202
480.6996, 1082.178
481.1817, 1080.694
481.6638, 1080.418
482.1460, 1085.476
482.6281, 1099.887
483.1102, 1110.493
483.5923, 1110.115
484.0744, 1103.786
484.5565, 1098.842
485.0387, 1101.156
485.5208, 1100.379
486.0029, 1090.038
486.4850, 1070.310
486.9671, 1062.542
487.4492, 1076.371
487.9314, 1091.703
488.4135, 1095.065
488.8956, 1080.376
489.3777, 1072.117
489.8598, 1072.790
490.3419, 1078.823
490.8241, 1084.570
491.3062, 1090.333
491.7883, 1093.582
492.2704, 1092.319
492.7525, 1087.838
493.2346, 1084.704
493.7168, 1082.901
494.1989, 1083.822
494.6810, 1094.089
495.1631, 1107.662
495.6452, 1108.641
496.1273, 1089.068
496.6095, 1067.593
497.0916, 1064.262
497.5737, 1073.754
498.0558, 1084.207
498.5379, 1090.695
499.0200, 1095.666
499.5021, 1100.493
499.9843, 1105.313
500.4664, 1109.676
500.9485, 1117.540
501.4306, 1122.476
501.9127, 1119.518
502.3948, 1095.165
502.8770, 1078.816
503.3591, 1078.497
503.8412, 1086.970
504.3233, 1088.125
504.8054, 1074.816
505.2875, 1065.170
505.7697, 1065.583
506.2518, 1076.404
506.7339, 1086.050
507.2160, 1095.471
507.6981, 1101.351
508.1802, 1099.408
508.6624, 1089.705
509.1445, 1079.308
509.6266, 1067.649
510.1087, 1058.904
510.5908, 1064.179
511.0729, 1080.848
511.5551, 1093.541
512.0372, 1091.445
512.5193, 1081.865
513.0014, 1073.838
513.4835, 1067.621
513.9656, 1064.726
514.4478, 1068.021
514.9299, 1074.367
515.4120, 1080.930
515.8941, 1089.695
516.3762, 1094.009
516.8583, 1085.415
517.3405, 1070.853
517.8226, 1064.343
518.3047, 1080.091
518.7868, 1093.459
519.2689, 1093.396
519.7510, 1077.966
520.2332, 1074.344
520.7153, 1092.028
521.1974, 1110.965
521.6795, 1116.165
522.1616, 1103.167
522.6437, 1091.544
523.1259, 1082.621
523.6080, 1075.998
524.0901, 1069.842
524.5722, 1063.877
525.0543, 1064.101
525.5364, 1077.235
526.0186, 1097.208
526.5007, 1105.123
526.9828, 1101.116
527.4649, 1095.410
527.9470, 1096.952
528.4291, 1101.920
528.9113, 1104.852
529.3934, 1105.278
529.8755, 1101.702
530.3576, 1086.013
530.8397, 1066.709
531.3218, 1057.870
531.8040, 1078.020
532.2861, 1097.315
532.7682, 1102.478
533.2503, 1094.122
533.7324, 1085.309
534.2145, 1072.810
534.6967, 1064.525
535.1788, 1065.063
535.6609, 1080.669
536.1430, 1090.403
536.6251, 1090.917
537.1072, 1088.547
537.5894, 1093.648
538.0715, 1108.757
538.5536, 1118.634
539.0357, 1119.120
539.5178, 1111.809
539.9999, 1098.255
540.4821, 1078.519
540.9642, 1064.106
541.4463, 1065.752
541.9284, 1077.757
542.4105, 1087.119
542.8926, 1092.520
543.3748, 1097.916
543.8568, 1109.421
544.3389, 1122.369
544.8210, 1129.982
545.3032, 1127.340
545.7853, 1122.041
546.2674, 1115.986
546.7495, 1110.030
547.2316, 1106.699
547.7137, 1108.366
548.1959, 1111.301
548.6780, 1116.208
549.1601, 1125.365
549.6422, 1122.801
550.1243, 1096.220
550.6064, 1069.996
551.0886, 1066.286
551.5707, 1094.423
552.0528, 1112.885
552.5349, 1115.558
553.0170, 1108.948
553.4991, 1104.317
553.9813, 1101.631
554.4634, 1103.183
554.9455, 1112.437
555.4276, 1125.905
555.9097, 1135.312
556.3918, 1140.684
556.8740, 1142.668
557.3561, 1140.654
557.8382, 1135.967
558.3203, 1129.847
558.8024, 1121.914
559.2845, 1114.643
559.7667, 1107.883
560.2488, 1103.054
560.7309, 1102.003
561.2130, 1111.722
561.6951, 1118.399
562.1772, 1114.776
562.6594, 1103.190
563.1415, 1100.339
563.6236, 1114.000
564.1057, 1126.929
564.5878, 1131.340
565.0699, 1125.400
565.5521, 1123.056
566.0342, 1125.439
566.5163, 1129.006
566.9984, 1129.302
567.4805, 1126.514
567.9626, 1126.180
568.4448, 1129.831
568.9269, 1135.443
569.4090, 1141.279
569.8911, 1146.691
570.3732, 1149.340
570.8553, 1149.768
571.3375, 1145.668
571.8196, 1128.452
572.3017, 1099.865
572.7838, 1083.442
573.2659, 1103.504
573.7480, 1132.217
574.2302, 1149.186
574.7123, 1146.666
575.1944, 1141.275
575.6765, 1130.546
576.1586, 1120.410
576.6407, 1119.085
577.1229, 1135.048
577.6050, 1144.505
578.0871, 1141.630
578.5692, 1129.760
579.0513, 1122.004
579.5334, 1118.682
580.0156, 1117.942
580.4977, 1119.309
580.9798, 1122.565
581.4619, 1126.615
581.9440, 1131.450
582.4261, 1136.769
582.9083, 1143.457
583.3904, 1150.110
583.8725, 1154.580
584.3546, 1156.926
584.8367, 1155.575
585.3188, 1144.194
585.8010, 1128.980
586.2831, 1121.110
586.7652, 1133.941
587.2473, 1145.402
587.7294, 1145.621
588.2115, 1135.431
588.6937, 1130.306
589.1758, 1133.604
589.6579, 1139.027
590.1400, 1143.801
590.6221, 1147.428
591.1042, 1153.699
591.5864, 1164.585
592.0685, 1173.969
592.5506, 1173.250
593.0327, 1162.895
593.5148, 1154.972
593.9969, 1151.551
594.4791, 1152.132
594.9612, 1156.893
595.4433, 1165.148
595.9254, 1174.534
596.4075, 1189.640
596.8896, 1201.372
597.3718, 1197.841
597.8539, 1180.813
598.3360, 1166.631
598.8181, 1161.864
599.3002, 1163.042
599.7823, 1168.861
600.2645, 1181.938
600.7466, 1192.314
601.2287, 1201.973
601.7108, 1206.822
602.1929, 1200.140
602.6750, 1171.913
603.1572, 1159.277
603.6393, 1170.791
604.1214, 1197.162
604.6035, 1219.256
605.0856, 1237.231
605.5677, 1247.586
606.0498, 1245.248
606.5319, 1235.417
607.0140, 1230.089
607.4962, 1229.060
607.9783, 1229.846
608.4604, 1232.012
608.9425, 1234.380
609.4246, 1236.036
609.9067, 1237.222
610.3889, 1235.947
610.8710, 1227.630
611.3531, 1218.018
611.8352, 1213.157
612.3173, 1219.838
612.7994, 1224.083
613.2816, 1222.988
613.7637, 1219.012
614.2458, 1217.932
614.7279, 1219.913
615.2100, 1224.853
615.6921, 1235.320
616.1743, 1249.090
616.6564, 1248.958
617.1385, 1233.930
617.6206, 1220.427
618.1027, 1221.834
618.5848, 1233.281
619.0670, 1245.449
619.5491, 1258.054
620.0312, 1265.465
620.5133, 1257.576
620.9954, 1243.860
621.4775, 1236.574
621.9597, 1244.062
622.4418, 1251.310
622.9239, 1250.236
623.4060, 1245.789
623.8881, 1248.092
624.3702, 1269.346
624.8524, 1283.486
625.3345, 1282.697
625.8166, 1269.167
626.2987, 1259.690
626.7808, 1253.308
627.2629, 1253.816
627.7451, 1268.746
628.2272, 1295.325
628.7093, 1305.799
629.1914, 1298.625
629.6735, 1288.232
630.1556, 1290.388
630.6378, 1298.714
631.1199, 1301.614
631.6020, 1295.315
632.0841, 1286.984
632.5662, 1279.796
633.0483, 1274.159
633.5305, 1270.663
634.0126, 1269.592
634.4947, 1270.681
634.9768, 1274.295
635.4589, 1280.181
635.9410, 1287.022
636.4232, 1294.692
636.9053, 1303.710
637.3874, 1315.758
637.8695, 1330.471
638.3516, 1337.473
638.8337, 1335.809
639.3159, 1332.010
639.7980, 1332.004
640.2801, 1334.155
640.7622, 1331.249
641.2443, 1321.360
641.7264, 1314.293
642.2086, 1323.011
642.6907, 1339.288
643.1728, 1351.098
643.6549, 1352.728
644.1370, 1352.477
644.6191, 1352.510
645.1013, 1353.187
645.5834, 1355.235
646.0655, 1358.962
646.5476, 1363.914
647.0297, 1370.395
647.5118, 1378.154
647.9940, 1385.879
648.4761, 1394.875
648.9582, 1399.806
649.4403, 1394.433
649.9224, 1380.773
650.4045, 1377.107
650.8867, 1383.927
651.3688, 1392.120
651.8509, 1393.841
652.3330, 1391.412
652.8151, 1387.766
653.2972, 1382.430
653.7794, 1380.079
654.2615, 1387.586
654.7436, 1398.473
655.2257, 1404.644
655.7078, 1396.087
656.1899, 1392.292
656.6721, 1402.184
657.1542, 1418.450
657.6363, 1423.930
658.1184, 1414.756
658.6005, 1403.546
659.0826, 1391.343
659.5648, 1380.307
660.0469, 1385.509
660.5290, 1407.715
661.0111, 1427.796
661.4932, 1431.556
661.9753, 1424.743
662.4575, 1416.361
662.9396, 1406.904
663.4217, 1400.655
663.9038, 1400.540
664.3859, 1405.218
664.8680, 1414.715
665.3502, 1433.863
665.8323, 1446.275
666.3144, 1443.004
666.7965, 1433.069
667.2786, 1427.769
667.7607, 1431.994
668.2428, 1430.189
668.7249, 1416.013
669.2070, 1398.206
669.6891, 1400.617
670.1713, 1424.251
670.6534, 1440.181
671.1355, 1433.671
671.6176, 1415.090
672.0997, 1403.726
672.5818, 1399.253
673.0640, 1399.702
673.5461, 1409.259
674.0282, 1419.561
674.5103, 1423.927
674.9924, 1421.893
675.4745, 1417.372
675.9567, 1407.152
676.4388, 1398.322
676.9209, 1396.745
677.4030, 1408.410
677.8851, 1409.598
678.3672, 1393.883
678.8494, 1376.492
679.3315, 1375.941
679.8136, 1393.027
680.2957, 1405.698
680.7778, 1409.498
681.2599, 1409.888
681.7421, 1415.060
682.2242, 1423.308
682.7063, 1429.635
683.1884, 1431.781
683.6705, 1431.660
684.1526, 1429.583
684.6348, 1426.322
685.1169, 1423.976
685.5990, 1423.906
686.0811, 1424.280
686.5632, 1424.770
687.0453, 1425.344
687.5275, 1425.626
688.0096, 1427.147
688.4917, 1425.519
688.9738, 1416.119
689.4559, 1399.334
689.9380, 1391.190
690.4202, 1392.186
690.9023, 1396.957
691.3844, 1404.318
691.8665, 1411.125
692.3486, 1409.775
692.8307, 1397.399
693.3129, 1385.993
693.7950, 1383.973
694.2771, 1387.387
694.7592, 1391.878
695.2413, 1402.070
695.7234, 1405.833
696.2056, 1396.085
696.6877, 1380.949
697.1698, 1373.026
697.6519, 1375.169
698.1340, 1376.566
698.6161, 1374.786
699.0983, 1371.042
699.5804, 1367.864
700.0625, 1365.374
700.5446, 1364.575
701.0267, 1369.070
701.5089, 1373.785
701.9910, 1369.750
702.4731, 1358.650
702.9552, 1349.661
703.4373, 1351.235
703.9194, 1353.522
704.4016, 1351.240
704.8837, 1343.885
705.3658, 1320.004
705.8479, 1335.318
706.3300, 1342.937
706.8121, 1343.275
707.2943, 1314.523
707.7764, 1323.334
708.2585, 1317.093
708.7406, 1310.233
709.2227, 1324.331
709.7048, 1299.811
710.1870, 1313.576
710.6691, 1312.059
711.1512, 1317.536
711.6333, 1307.868
712.1154, 1302.877
712.5975, 1313.037
713.0797, 1314.808
713.5618, 1303.395
714.0439, 1309.317
714.5260, 1293.051
715.0081, 1293.586
715.4902, 1291.898
715.9724, 1290.108
716.4545, 1289.560
716.9366, 1288.773
717.4187, 1281.097
717.9008, 1266.282
718.3829, 1254.583
718.8651, 1253.978
719.3472, 1258.098
719.8293, 1255.335
720.3114, 1246.636
720.7935, 1237.475
721.2756, 1227.906
721.7578, 1221.542
722.2399, 1222.327
722.7220, 1231.116
723.2041, 1238.501
723.6862, 1248.026
724.1683, 1251.002
724.6505, 1240.593
725.1326, 1212.774
725.6147, 1193.736
726.0968, 1184.540
726.5789, 1181.257
727.0610, 1182.470
727.5432, 1186.726
728.0253, 1187.808
728.5074, 1184.354
728.9895, 1180.674
729.4716, 1182.658
729.9537, 1186.210
730.4358, 1185.334
730.9179, 1172.827
731.4000, 1164.808
731.8821, 1168.213
732.3643, 1177.983
732.8464, 1186.575
733.3285, 1197.545
733.8106, 1198.809
734.2927, 1184.906
734.7748, 1163.675
735.2570, 1152.294
735.7391, 1150.416
736.2212, 1151.833
736.7033, 1156.714
737.1854, 1160.999
737.6675, 1156.577
738.1497, 1146.265
738.6318, 1139.068
739.1139, 1144.237
739.5960, 1149.095
740.0781, 1144.604
740.5602, 1131.863
741.0424, 1127.367
741.5245, 1140.299
742.0066, 1150.025
742.4887, 1146.568
742.9708, 1130.793
743.4529, 1122.764
743.9351, 1123.216
744.4172, 1125.373
744.8993, 1122.128
745.3814, 1117.402
745.8635, 1109.401
746.3456, 1125.307
746.8278, 1133.518
747.3099, 1134.449
747.7920, 1106.290
748.2741, 1115.694
748.7562, 1110.045
749.2383, 1103.778
749.7205, 1118.468
750.2026, 1094.541
750.6847, 1108.899
751.1668, 1107.974
751.6489, 1114.044
752.1310, 1104.968
752.6132, 1100.569
753.0953, 1111.323
753.5774, 1113.686
754.0595, 1102.866
754.5416, 1109.381
755.0237, 1084.924
755.5059, 1087.645
755.9880, 1102.092
756.4701, 1092.033
756.9522, 1098.825
757.4343, 1099.199
757.9164, 1081.709
758.3986, 1087.865
758.8807, 1088.071
759.3628, 1078.825
759.8449, 1076.330
760.3270, 1086.999
760.8091, 1102.680
761.2913, 1104.810
761.7734, 1095.396
762.2555, 1085.637
762.7376, 1078.580
763.2197, 1074.972
763.7018, 1078.364
764.1840, 1086.059
764.6661, 1090.189
765.1482, 1083.556
765.6303, 1077.191
766.1124, 1073.153
766.5945, 1072.024
767.0767, 1079.880
767.5588, 1102.580
768.0409, 1117.840
768.5230, 1112.930
769.0051, 1093.618
769.4872, 1082.657
769.9694, 1079.568
770.4515, 1079.339
770.9336, 1081.526
771.4157, 1083.031
771.8978, 1078.050
772.3799, 1067.082
772.8621, 1062.096
773.3442, 1074.928
773.8263, 1088.401
774.3084, 1094.080
774.7905, 1091.657
775.2726, 1083.258
775.7548, 1064.828
776.2369, 1050.198
776.7190, 1052.812
777.2011, 1069.245
777.6832, 1077.096
778.1653, 1075.527
778.6475, 1071.167
779.1296, 1069.126
779.6117, 1067.529
780.0938, 1062.589
780.5759, 1052.023
781.0580, 1048.172
781.5402, 1062.925
782.0223, 1080.327
782.5044, 1088.484
782.9865, 1084.226
783.4686, 1079.243
783.9507, 1073.444
784.4329, 1050.678
784.9150, 1067.944
785.3971, 1077.835
785.8792, 1080.748
786.3613, 1055.783
786.8434, 1066.817
787.3256, 1063.424
787.8077, 1059.440
788.2898, 1075.540
788.7719, 1054.630
789.2540, 1070.412
789.7361, 1071.547
790.2183, 1079.386
790.7003, 1072.709
791.1824, 1082.712
791.6646, 1083.591
792.1467, 1071.319
792.6288, 1056.916
793.1109, 1058.370
793.5930, 1071.790
794.0751, 1082.688
794.5573, 1087.878
795.0394, 1087.813
795.5215, 1077.153
796.0036, 1063.201
796.4857, 1056.397
796.9678, 1068.041
797.4500, 1076.567
797.9321, 1076.724
798.4142, 1073.459
798.8963, 1075.714
799.3784, 1085.720
799.8605, 1089.555
800.3427, 1082.965
800.8248, 1072.064
801.3069, 1065.680
801.7890, 1063.453
802.2711, 1064.293
802.7532, 1069.796
803.2354, 1075.525
803.7175, 1080.835
804.1996, 1084.103
804.6817, 1082.142
805.1638, 1064.551
805.6459, 1054.380
806.1281, 1057.163
806.6102, 1067.876
807.0923, 1074.780
807.5744, 1077.774
808.0565, 1080.043
808.5386, 1083.614
809.0208, 1085.519
809.5029, 1059.705
809.9850, 1074.026
810.4671, 1080.971
810.9492, 1080.939
811.4313, 1053.028
811.9135, 1061.115
812.3956, 1054.777
812.8777, 1047.847
813.3598, 1061.002
813.8419, 1037.145
814.3240, 1049.982
814.8062, 1064.356
815.2883, 1061.796
815.7704, 1043.128
816.2525, 1030.980
816.7346, 1039.540
817.2167, 1054.956
817.6989, 1062.665
818.1810, 1063.926
818.6631, 1062.462
819.1452, 1055.755
819.6273, 1050.803
820.1094, 1049.625
820.5916, 1052.057
821.0737, 1060.331
821.5558, 1079.121
822.0379, 1086.726
822.5200, 1070.584
823.0021, 1043.518
823.4843, 1038.569
823.9664, 1052.055
824.4485, 1066.222
824.9306, 1076.144
825.4127, 1079.630
825.8948, 1070.310
826.3770, 1052.571
826.8591, 1040.772
827.3412, 1040.162
827.8233, 1043.992
828.3054, 1052.162
828.7875, 1063.516
829.2697, 1075.068
829.7518, 1087.413
830.2339, 1092.871
830.7160, 1086.102
831.1981, 1073.132
831.6802, 1060.584
832.1624, 1049.786
832.6445, 1045.266
833.1266, 1054.284
833.6087, 1064.801
834.0908, 1074.151
834.5729, 1080.755
835.0551, 1079.365
835.5372, 1065.145
836.0193, 1053.619
836.5014, 1049.072
836.9835, 1049.998
837.4656, 1054.930
837.9478, 1062.692
838.4299, 1065.427
838.9120, 1053.738
839.3941, 1040.782
839.8762, 1039.446
840.3583, 1046.517
840.8405, 1053.395
841.3226, 1060.091
841.8047, 1062.977
842.2868, 1060.138
842.7689, 1053.409
843.2510, 1048.240
843.7332, 1044.854
844.2153, 1040.508
844.6974, 1031.885
845.1795, 1024.921
845.6616, 1033.070
846.1437, 1051.686
846.6259, 1068.083
847.1080, 1080.402
847.5901, 1085.170
848.0722, 1077.247
848.5543, 1060.639
849.0364, 1045.718
849.5186, 1031.482
850.0007, 1021.583
850.4828, 1016.825
850.9649, 1016.677
851.4470, 1022.164
851.9291, 1032.101
852.4113, 1039.165
852.8933, 1038.900
853.3754, 1038.207
853.8575, 1045.115
854.3397, 1055.555
854.8218, 1062.385
855.3039, 1061.529
855.7860, 1059.521
856.2681, 1057.087
856.7502, 1054.230
857.2324, 1050.630
857.7145, 1046.197
858.1966, 1041.599
858.6787, 1035.138
859.1608, 1033.225
859.6429, 1053.068
860.1251, 1082.177
860.6072, 1096.759
861.0893, 1081.138
861.5714, 1063.365
862.0535, 1049.554
862.5356, 1041.506
863.0178, 1042.184
863.4999, 1058.109
863.9820, 1062.911
864.4641, 1051.053
864.9462, 1034.817
865.4283, 1030.807
865.9105, 1036.488
866.3926, 1044.693
866.8747, 1054.848
867.3568, 1063.377
867.8389, 1069.120
868.3210, 1070.944
868.8032, 1067.198
869.2853, 1050.584
869.7674, 1041.601
870.2495, 1043.695
870.7316, 1048.768
871.2137, 1048.576
871.6959, 1043.567
872.1780, 1039.769
872.6601, 1037.604
873.1422, 1037.720
873.6243, 1042.748
874.1064, 1049.319
874.5886, 1053.272
875.0707, 1053.334
875.5528, 1053.670
876.0349, 1054.827
876.5170, 1056.954
876.9991, 1061.279
877.4813, 1068.699
877.9634, 1068.196
878.4455, 1058.730
878.9276, 1049.030
879.4097, 1045.131
879.8918, 1046.237
880.3740, 1054.081
880.8561, 1068.230
881.3382, 1076.991
881.8203, 1069.529
882.3024, 1059.836
882.7845, 1056.248
883.2667, 1058.799
883.7488, 1057.395
884.2309, 1049.543
884.7130, 1046.890
885.1951, 1061.260
885.6772, 1084.130
886.1594, 1090.551
886.6415, 1082.871
887.1236, 1075.102
887.6057, 1078.064
888.0878, 1080.641
888.5699, 1074.040
889.0521, 1060.120
889.5342, 1053.037
890.0163, 1056.432
890.4984, 1059.521
890.9805, 1058.113
891.4626, 1055.060
891.9448, 1061.163
892.4269, 1074.110
892.9090, 1081.148
893.3911, 1071.482
893.8732, 1059.175
894.3553, 1053.632
894.8375, 1053.559
895.3196, 1056.403
895.8017, 1064.734
896.2838, 1071.851
896.7659, 1078.144
897.2480, 1081.796
897.7302, 1078.168
898.2123, 1067.988
898.6944, 1058.146
899.1765, 1049.642
899.6586, 1044.310
900.1407, 1045.090
900.6229, 1049.956
901.1050, 1056.489
901.5871, 1068.763
902.0692, 1074.337
902.5513, 1067.503
903.0334, 1058.337
903.5156, 1058.075
903.9977, 1067.304
904.4798, 1069.453
904.9619, 1062.273
905.4440, 1055.257
905.9261, 1060.823
906.4083, 1070.578
906.8904, 1071.998
907.3725, 1061.316
907.8546, 1056.370
908.3367, 1072.148
908.8188, 1086.426
909.3010, 1084.350
909.7831, 1064.596
910.2652, 1059.515
910.7473, 1070.301
911.2294, 1084.112
911.7115, 1096.846
912.1937, 1104.514
912.6758, 1095.078
913.1579, 1071.774
913.6400, 1058.164
914.1221, 1078.029
914.6042, 1095.004
915.0863, 1090.178
915.5684, 1069.429
916.0505, 1064.521
916.5327, 1078.092
917.0148, 1090.158
917.4969, 1092.140
917.9790, 1089.553
918.4611, 1093.082
918.9432, 1099.768
919.4254, 1101.928
919.9075, 1093.745
920.3896, 1083.430
920.8717, 1068.401
921.3538, 1055.074
921.8359, 1055.660
922.3181, 1073.760
922.8002, 1089.964
923.2823, 1102.328
923.7644, 1108.658
924.2465, 1101.081
924.7286, 1086.087
925.2108, 1076.484
925.6929, 1075.889
926.1750, 1078.917
926.6571, 1089.483
927.1392, 1098.229
927.6213, 1095.424
928.1035, 1075.146
928.5856, 1068.712
929.0677, 1079.053
929.5498, 1091.463
930.0319, 1091.214
930.5140, 1084.675
930.9962, 1085.482
931.4783, 1094.346
931.9604, 1103.195
932.4425, 1112.979
932.9246, 1117.076
933.4067, 1107.519
933.8889, 1086.339
934.3710, 1077.580
934.8531, 1083.644
935.3352, 1091.690
935.8173, 1097.250
936.2994, 1099.691
936.7816, 1094.370
937.2637, 1084.219
937.7458, 1078.789
938.2279, 1084.239
938.7100, 1093.246
939.1921, 1108.511
939.6743, 1123.740
940.1564, 1125.627
940.6385, 1110.111
941.1206, 1099.452
941.6027, 1098.303
942.0848, 1101.163
942.5670, 1100.232
943.0491, 1097.471
943.5312, 1096.666
944.0133, 1098.896
944.4954, 1102.754
944.9775, 1108.650
945.4597, 1115.300
945.9418, 1121.859
946.4239, 1128.922
946.9060, 1133.539
947.3881, 1135.834
947.8702, 1135.263
948.3524, 1129.743
948.8345, 1121.772
949.3166, 1115.567
949.7987, 1111.203
950.2808, 1106.690
950.7629, 1097.308
951.2451, 1091.775
951.7272, 1095.124
952.2093, 1105.700
952.6914, 1113.665
953.1735, 1118.955
953.6556, 1121.881
954.1378, 1121.241
954.6199, 1119.856
955.1020, 1122.470
955.5841, 1127.464
956.0662, 1131.228
956.5483, 1134.482
957.0305, 1133.596
957.5126, 1124.688
957.9947, 1113.507
958.4768, 1107.237
958.9589, 1105.880
959.4410, 1109.676
959.9232, 1119.610
960.4053, 1129.814
960.8874, 1133.096
961.3695, 1133.572
961.8516, 1138.435
962.3337, 1151.786
962.8159, 1153.847
963.2980, 1126.311
963.7801, 1103.702
964.2622, 1108.459
964.7443, 1138.346
965.2264, 1149.890
965.7086, 1143.573
966.1907, 1136.021
966.6728, 1140.833
967.1549, 1146.864
967.6370, 1142.075
968.1191, 1128.959
968.6013, 1118.960
969.0834, 1111.033
969.5655, 1112.002
970.0476, 1127.049
970.5297, 1147.660
971.0118, 1154.432
971.4940, 1149.796
971.9761, 1148.806
972.4582, 1157.761
972.9403, 1165.426
973.4224, 1158.661
973.9045, 1148.200
974.3867, 1147.416
974.8688, 1165.469
975.3509, 1174.700
975.8330, 1172.963
976.3151, 1167.360
976.7972, 1160.772
977.2793, 1155.453
977.7614, 1144.285
978.2435, 1162.084
978.7256, 1172.189
979.2078, 1175.013
979.6899, 1148.748
980.1720, 1160.046
980.6541, 1156.290
981.1362, 1151.917
981.6183, 1168.501
982.1005, 1146.467
982.5826, 1162.718
983.0647, 1163.687
983.5468, 1171.651
984.0289, 1164.468
984.5110, 1161.963
984.9932, 1174.609
985.4753, 1178.867
985.9574, 1169.940
986.4395, 1178.348
986.9216, 1155.785
987.4037, 1160.400
987.8859, 1176.740
988.3680, 1168.575
988.8501, 1177.260
989.3322, 1177.733
989.8143, 1188.843
990.2964, 1186.253
990.7786, 1168.699
991.2607, 1158.800
991.7428, 1166.299
992.2249, 1176.928
992.7070, 1188.501
993.1891, 1198.725
993.6713, 1193.754
994.1534, 1175.805
994.6355, 1163.644
995.1176, 1169.609
995.5997, 1179.464
996.0818, 1184.078
996.5640, 1184.295
997.0461, 1181.095
997.5282, 1172.012
998.0103, 1164.201
998.4924, 1155.930
998.9745, 1153.616
999.4567, 1171.306
999.9388, 1200.417
1000.421, 1215.205
1000.903, 1212.656
1001.385, 1204.979
1001.867, 1195.166
1002.349, 1186.096
1002.831, 1179.760
1003.314, 1175.984
1003.796, 1172.886
1004.278, 1170.126
1004.760, 1170.421
1005.242, 1176.869
1005.724, 1185.023
1006.206, 1191.116
1006.688, 1193.282
1007.171, 1187.545
1007.653, 1155.037
1008.135, 1138.705
1008.617, 1151.536
1009.099, 1175.968
1009.581, 1192.337
1010.063, 1200.923
1010.545, 1203.750
1011.027, 1200.803
1011.510, 1196.095
1011.992, 1192.052
1012.474, 1188.519
1012.956, 1185.073
1013.438, 1181.610
1013.920, 1180.502
1014.402, 1183.927
1014.884, 1184.324
1015.367, 1176.257
1015.849, 1164.942
1016.331, 1166.319
1016.813, 1176.650
1017.295, 1183.241
1017.777, 1174.992
1018.259, 1169.045
1018.741, 1174.008
1019.223, 1184.291
1019.706, 1194.428
1020.188, 1205.911
1020.670, 1206.869
1021.152, 1195.138
1021.634, 1181.571
1022.116, 1176.807
1022.598, 1176.559
1023.080, 1174.757
1023.563, 1170.921
1024.045, 1171.778
1024.527, 1187.585
1025.009, 1195.628
1025.491, 1183.487
1025.973, 1160.879
1026.455, 1163.145
1026.937, 1186.060
1027.419, 1204.549
1027.901, 1207.060
1028.384, 1205.328
1028.866, 1205.887
1029.348, 1207.473
1029.830, 1208.598
1030.312, 1209.823
1030.794, 1208.184
1031.276, 1202.574
1031.758, 1198.325
1032.241, 1206.002
1032.723, 1215.954
1033.205, 1205.452
1033.687, 1176.424
1034.169, 1158.540
1034.651, 1176.740
1035.133, 1192.947
1035.615, 1191.812
1036.098, 1181.283
1036.580, 1186.105
1037.062, 1204.983
1037.544, 1222.766
1038.026, 1236.432
1038.508, 1243.844
1038.990, 1238.067
1039.472, 1227.685
1039.954, 1223.212
1040.437, 1228.879
1040.919, 1231.792
1041.401, 1232.112
1041.883, 1229.400
1042.365, 1218.965
1042.847, 1206.613
1043.329, 1207.411
1043.811, 1219.752
1044.293, 1234.666
1044.776, 1260.028
1045.258, 1272.474
1045.740, 1256.306
1046.222, 1227.691
1046.704, 1217.851
1047.186, 1226.842
1047.668, 1229.112
1048.150, 1218.948
1048.633, 1208.019
1049.115, 1208.442
1049.597, 1213.199
1050.079, 1215.235
1050.561, 1212.956
1051.043, 1211.420
1051.525, 1209.497
1052.007, 1211.876
1052.490, 1224.751
1052.972, 1240.932
1053.454, 1240.801
1053.936, 1228.697
1054.418, 1217.927
1054.900, 1214.495
1055.382, 1213.014
1055.864, 1211.758
1056.346, 1211.826
1056.828, 1216.396
1057.311, 1225.634
1057.793, 1225.038
1058.275, 1212.843
1058.757, 1202.119
1059.239, 1205.476
1059.721, 1213.626
1060.203, 1219.999
1060.685, 1223.871
1061.168, 1223.229
1061.650, 1214.595
1062.132, 1211.911
1062.614, 1221.309
1063.096, 1235.474
1063.578, 1243.613
1064.060, 1245.948
1064.542, 1242.450
1065.025, 1230.315
1065.507, 1219.148
1065.989, 1211.287
1066.471, 1206.267
1066.953, 1204.754
1067.435, 1206.640
1067.917, 1206.261
1068.399, 1203.845
1068.881, 1203.411
1069.364, 1209.641
1069.846, 1216.713
1070.328, 1224.442
1070.810, 1229.185
1071.292, 1219.512
1071.774, 1185.551
1072.256, 1171.607
1072.738, 1187.217
1073.220, 1212.384
1073.703, 1225.002
1074.185, 1229.428
1074.667, 1230.977
1075.149, 1230.205
1075.631, 1229.988
1076.113, 1236.490
1076.595, 1235.516
1077.077, 1215.628
1077.559, 1187.450
1078.042, 1193.809
1078.524, 1226.785
1079.006, 1249.954
1079.488, 1246.164
1079.970, 1234.734
1080.452, 1219.204
1080.934, 1206.081
1081.416, 1201.294
1081.899, 1205.100
1082.381, 1219.037
1082.863, 1244.525
1083.345, 1264.506
1083.827, 1260.777
1084.309, 1248.818
1084.791, 1244.425
1085.273, 1246.430
1085.755, 1247.304
1086.238, 1245.741
1086.720, 1243.058
1087.202, 1238.750
1087.684, 1234.850
1088.166, 1235.996
1088.648, 1239.516
1089.130, 1237.858
1089.612, 1229.106
1090.094, 1223.771
1090.577, 1232.201
1091.059, 1238.667
1091.541, 1233.588
1092.023, 1220.770
1092.505, 1220.915
1092.987, 1232.585
1093.469, 1242.736
1093.951, 1245.214
1094.434, 1246.259
1094.916, 1252.747
1095.398, 1259.031
1095.880, 1256.899
1096.362, 1241.667
1096.844, 1235.344
1097.326, 1238.763
1097.808, 1245.195
1098.291, 1252.617
1098.773, 1258.005
1099.255, 1255.154
1099.737, 1246.366
1100.219, 1240.513
1100.701, 1240.034
1101.183, 1242.026
1101.665, 1246.329
1102.147, 1252.636
1102.630, 1263.207
1103.112, 1274.902
1103.594, 1278.510
1104.076, 1272.255
1104.558, 1266.671
1105.040, 1270.597
1105.522, 1271.543
1106.004, 1261.504
1106.486, 1244.763
1106.969, 1242.723
1107.451, 1253.119
1107.933, 1254.842
1108.415, 1235.187
1108.897, 1217.467
1109.379, 1224.311
1109.861, 1238.819
1110.343, 1241.476
1110.826, 1228.760
1111.308, 1223.869
1111.790, 1227.437
1112.272, 1233.795
1112.754, 1243.979
1113.236, 1251.389
1113.718, 1243.093
1114.200, 1226.098
1114.682, 1219.265
1115.165, 1233.852
1115.647, 1242.307
1116.129, 1240.613
1116.611, 1236.721
1117.093, 1241.260
1117.575, 1249.665
1118.057, 1251.061
1118.539, 1245.155
1119.021, 1242.752
1119.504, 1254.301
1119.986, 1261.885
1120.468, 1259.376
1120.950, 1250.943
1121.432, 1245.444
1121.914, 1242.622
1122.396, 1241.037
1122.878, 1240.331
1123.361, 1241.083
1123.843, 1246.252
1124.325, 1250.659
1124.807, 1250.579
1125.289, 1246.300
1125.771, 1240.540
1126.253, 1233.420
1126.735, 1230.936
1127.218, 1239.460
1127.700, 1248.509
1128.182, 1247.207
1128.664, 1241.624
1129.146, 1240.761
1129.628, 1246.062
1130.110, 1252.673
1130.592, 1260.750
1131.074, 1268.881
1131.557, 1280.558
1132.039, 1288.532
1132.521, 1278.466
1133.003, 1255.872
1133.485, 1240.746
1133.967, 1237.171
1134.449, 1241.800
1134.931, 1257.533
1135.413, 1273.735
1135.896, 1274.126
1136.378, 1265.992
1136.860, 1265.074
1137.342, 1272.744
1137.824, 1275.375
1138.306, 1259.349
1138.788, 1249.067
1139.270, 1254.211
1139.752, 1266.770
1140.235, 1268.457
1140.717, 1260.950
1141.199, 1247.918
1141.681, 1227.082
1142.163, 1214.656
1142.645, 1225.015
1143.127, 1241.250
1143.609, 1255.058
1144.092, 1265.738
1144.574, 1261.865
1145.056, 1245.277
1145.538, 1234.185
1146.020, 1240.742
1146.502, 1249.213
1146.984, 1248.188
1147.466, 1244.077
1147.948, 1245.535
1148.431, 1255.087
1148.913, 1253.131
1149.395, 1238.794
1149.877, 1229.421
1150.359, 1244.653
1150.841, 1263.416
1151.323, 1266.339
1151.805, 1258.433
1152.287, 1254.979
1152.770, 1259.383
1153.252, 1257.169
1153.734, 1244.873
1154.216, 1235.823
1154.698, 1249.975
1155.180, 1271.130
1155.662, 1279.660
1156.144, 1275.162
1156.627, 1268.472
1157.109, 1259.430
1157.591, 1252.146
1158.073, 1247.305
1158.555, 1245.189
1159.037, 1248.258
1159.519, 1253.455
1160.001, 1255.131
1160.484, 1251.866
1160.966, 1249.607
1161.448, 1248.521
1161.930, 1250.336
1162.412, 1256.814
1162.894, 1265.438
1163.376, 1272.569
1163.858, 1276.760
1164.340, 1273.296
1164.823, 1256.953
1165.305, 1243.192
1165.787, 1234.798
1166.269, 1231.778
1166.751, 1235.457
1167.233, 1244.624
1167.715, 1255.259
1168.197, 1266.446
1168.679, 1273.741
1169.162, 1272.975
1169.644, 1270.635
1170.126, 1266.408
1170.608, 1263.649
1171.090, 1267.530
1171.572, 1277.142
1172.054, 1277.470
1172.536, 1268.812
1173.019, 1260.480
1173.501, 1256.257
1173.983, 1255.718
1174.465, 1260.651
1174.947, 1268.180
1175.429, 1275.421
1175.911, 1282.323
1176.393, 1282.862
1176.875, 1276.252
1177.358, 1270.006
1177.840, 1267.374
1178.322, 1269.479
1178.804, 1280.269
1179.286, 1296.379
1179.768, 1308.443
1180.250, 1316.514
1180.732, 1316.064
1181.214, 1304.850
1181.697, 1292.506
1182.179, 1288.558
1182.661, 1286.650
1183.143, 1278.327
1183.625, 1264.696
1184.107, 1266.265
1184.589, 1285.272
1185.071, 1296.203
1185.554, 1288.120
1186.036, 1276.886
1186.518, 1279.749
1187.000, 1288.927
1187.482, 1295.338
1187.964, 1297.709
1188.446, 1303.382
1188.928, 1313.901
1189.411, 1317.492
1189.893, 1302.971
1190.375, 1286.795
1190.857, 1293.021
1191.339, 1309.557
1191.821, 1317.424
1192.303, 1309.678
1192.785, 1308.248
1193.267, 1315.090
1193.750, 1318.758
1194.232, 1306.739
1194.714, 1290.773
1195.196, 1285.402
1195.678, 1288.118
1196.160, 1293.887
1196.642, 1305.678
1197.124, 1311.779
1197.606, 1311.458
1198.089, 1306.972
1198.571, 1294.168
1199.053, 1282.436
1199.535, 1290.527
1200.017, 1312.326
1200.499, 1322.109
1200.981, 1307.012
1201.463, 1298.969
1201.945, 1302.064
1202.428, 1310.444
1202.910, 1322.245
1203.392, 1332.786
1203.874, 1334.151
1204.356, 1326.816
1204.838, 1319.203
1205.320, 1312.841
1205.802, 1304.738
1206.285, 1292.020
1206.767, 1283.736
1207.249, 1299.281
1207.731, 1323.921
1208.213, 1334.044
1208.695, 1326.756
1209.177, 1318.391
1209.659, 1307.598
1210.141, 1305.191
1210.624, 1316.349
1211.106, 1332.777
1211.588, 1346.643
1212.070, 1354.680
1212.552, 1348.403
1213.034, 1323.353
1213.516, 1308.683
1213.998, 1309.312
1214.480, 1315.463
1214.963, 1325.747
1215.445, 1336.011
1215.927, 1338.338
1216.409, 1335.398
1216.891, 1330.830
1217.373, 1323.129
1217.855, 1324.284
1218.337, 1340.443
1218.820, 1351.463
1219.302, 1343.526
1219.784, 1328.202
1220.266, 1326.629
1220.748, 1335.155
1221.230, 1348.150
1221.712, 1373.132
1222.194, 1378.416
1222.677, 1354.949
1223.159, 1333.039
1223.641, 1333.527
1224.123, 1346.748
1224.605, 1359.206
1225.087, 1369.270
1225.569, 1373.075
1226.051, 1364.458
1226.533, 1356.724
1227.016, 1349.125
1227.498, 1344.997
1227.980, 1348.889
1228.462, 1356.721
1228.944, 1362.082
1229.426, 1365.603
1229.908, 1369.310
1230.390, 1376.324
1230.872, 1377.433
1231.355, 1369.930
1231.837, 1364.066
1232.319, 1372.894
1232.801, 1386.835
1233.283, 1391.765
1233.765, 1389.139
1234.247, 1386.067
1234.729, 1383.653
1235.212, 1381.127
1235.694, 1378.176
1236.176, 1375.936
1236.658, 1377.719
1237.140, 1379.448
1237.622, 1370.862
1238.104, 1355.854
1238.586, 1358.740
1239.068, 1389.733
1239.551, 1410.265
1240.033, 1414.439
1240.515, 1409.534
1240.997, 1395.390
1241.479, 1382.185
1241.961, 1385.167
1242.443, 1402.064
1242.925, 1409.038
1243.407, 1402.377
1243.890, 1398.087
1244.372, 1399.146
1244.854, 1402.959
1245.336, 1408.922
1245.818, 1414.479
1246.300, 1417.379
1246.782, 1417.126
1247.264, 1412.487
1247.747, 1402.182
1248.229, 1395.712
1248.711, 1394.949
1249.193, 1400.179
##END=



