##NAMES=Margaritasite
##RRUFFID=R060461
##IDEAL CHEMISTRY=Cs^1+^_2_(U^6+^O_2_)_2_(V^5+^O_4_)_2_&#183;H_2_O
##LOCALITY=Margaritas Open Pit, Sierra Pena Blanca, Chihuahua, Mexico
##OWNER=RRUFF
##SOURCE=Michael Scott
##DESCRIPTION=Yellow earthy, massive, sponge-like appearance
##STATUS=The identification of this mineral is not yet confirmed.
##URL=rruff.info/R060461
8.813672e+001, 6.118759e+003
8.861884e+001, 6.107574e+003
8.910095e+001, 6.161720e+003
8.958307e+001, 6.336680e+003
9.006519e+001, 6.558742e+003
9.054730e+001, 6.755132e+003
9.102942e+001, 6.932024e+003
9.151154e+001, 7.073139e+003
9.199365e+001, 7.170004e+003
9.247577e+001, 7.223619e+003
9.295789e+001, 7.233290e+003
9.344000e+001, 7.193567e+003
9.392212e+001, 7.107707e+003
9.440424e+001, 6.983895e+003
9.488635e+001, 6.826075e+003
9.536847e+001, 6.656016e+003
9.585059e+001, 6.497829e+003
9.633270e+001, 6.350352e+003
9.681482e+001, 6.219798e+003
9.729694e+001, 6.112049e+003
9.777905e+001, 6.025722e+003
9.826117e+001, 5.953153e+003
9.874329e+001, 5.895599e+003
9.922540e+001, 5.849773e+003
9.970752e+001, 5.808741e+003
1.001896e+002, 5.773685e+003
1.006718e+002, 5.738747e+003
1.011539e+002, 5.698822e+003
1.016360e+002, 5.650760e+003
1.021181e+002, 5.611596e+003
1.026002e+002, 5.584554e+003
1.030823e+002, 5.568588e+003
1.035645e+002, 5.555445e+003
1.040466e+002, 5.541578e+003
1.045287e+002, 5.535236e+003
1.050108e+002, 5.543646e+003
1.054929e+002, 5.570610e+003
1.059750e+002, 5.605787e+003
1.064572e+002, 5.649708e+003
1.069393e+002, 5.703879e+003
1.074214e+002, 5.755687e+003
1.079035e+002, 5.803506e+003
1.083856e+002, 5.850833e+003
1.088677e+002, 5.900589e+003
1.093499e+002, 5.954875e+003
1.098320e+002, 6.011045e+003
1.103141e+002, 6.068580e+003
1.107962e+002, 6.128333e+003
1.112783e+002, 6.190253e+003
1.117604e+002, 6.255798e+003
1.122426e+002, 6.324120e+003
1.127247e+002, 6.392681e+003
1.132068e+002, 6.468771e+003
1.136889e+002, 6.539317e+003
1.141710e+002, 6.599401e+003
1.146531e+002, 6.651197e+003
1.151353e+002, 6.686749e+003
1.156174e+002, 6.707345e+003
1.160995e+002, 6.710662e+003
1.165816e+002, 6.691708e+003
1.170637e+002, 6.641411e+003
1.175458e+002, 6.571951e+003
1.180280e+002, 6.489389e+003
1.185101e+002, 6.386741e+003
1.189922e+002, 6.282021e+003
1.194743e+002, 6.180333e+003
1.199564e+002, 6.082986e+003
1.204385e+002, 5.998338e+003
1.209207e+002, 5.932090e+003
1.214028e+002, 5.880870e+003
1.218849e+002, 5.841258e+003
1.223670e+002, 5.815846e+003
1.228491e+002, 5.798250e+003
1.233312e+002, 5.783794e+003
1.238134e+002, 5.772273e+003
1.242955e+002, 5.763086e+003
1.247776e+002, 5.754681e+003
1.252597e+002, 5.748096e+003
1.257418e+002, 5.745531e+003
1.262239e+002, 5.748683e+003
1.267061e+002, 5.756146e+003
1.271882e+002, 5.766007e+003
1.276703e+002, 5.778377e+003
1.281524e+002, 5.792067e+003
1.286345e+002, 5.804917e+003
1.291166e+002, 5.817636e+003
1.295988e+002, 5.833322e+003
1.300809e+002, 5.854802e+003
1.305630e+002, 5.880722e+003
1.310451e+002, 5.906774e+003
1.315272e+002, 5.932867e+003
1.320093e+002, 5.958483e+003
1.324915e+002, 5.982119e+003
1.329736e+002, 6.003771e+003
1.334557e+002, 6.027203e+003
1.339378e+002, 6.054294e+003
1.344199e+002, 6.084899e+003
1.349020e+002, 6.116865e+003
1.353842e+002, 6.150537e+003
1.358663e+002, 6.184284e+003
1.363484e+002, 6.216203e+003
1.368305e+002, 6.245761e+003
1.373126e+002, 6.274389e+003
1.377947e+002, 6.301946e+003
1.382769e+002, 6.327991e+003
1.387590e+002, 6.356203e+003
1.392411e+002, 6.388638e+003
1.397232e+002, 6.422936e+003
1.402053e+002, 6.447692e+003
1.406874e+002, 6.461034e+003
1.411696e+002, 6.469667e+003
1.416517e+002, 6.477626e+003
1.421338e+002, 6.484487e+003
1.426159e+002, 6.493378e+003
1.430980e+002, 6.506945e+003
1.435801e+002, 6.524472e+003
1.440623e+002, 6.535374e+003
1.445444e+002, 6.536289e+003
1.450265e+002, 6.534954e+003
1.455086e+002, 6.537453e+003
1.459907e+002, 6.545493e+003
1.464728e+002, 6.555224e+003
1.469550e+002, 6.567671e+003
1.474371e+002, 6.583242e+003
1.479192e+002, 6.594214e+003
1.484013e+002, 6.596381e+003
1.488834e+002, 6.596346e+003
1.493655e+002, 6.600198e+003
1.498477e+002, 6.609130e+003
1.503298e+002, 6.620435e+003
1.508119e+002, 6.634814e+003
1.512940e+002, 6.653303e+003
1.517761e+002, 6.668269e+003
1.522583e+002, 6.672656e+003
1.527404e+002, 6.675585e+003
1.532225e+002, 6.686757e+003
1.537046e+002, 6.715709e+003
1.541867e+002, 6.744977e+003
1.546688e+002, 6.770177e+003
1.551510e+002, 6.790852e+003
1.556331e+002, 6.809890e+003
1.561152e+002, 6.823652e+003
1.565973e+002, 6.837055e+003
1.570794e+002, 6.856517e+003
1.575615e+002, 6.888250e+003
1.580437e+002, 6.922766e+003
1.585258e+002, 6.956628e+003
1.590079e+002, 6.989375e+003
1.594900e+002, 7.021898e+003
1.599721e+002, 7.051300e+003
1.604542e+002, 7.080874e+003
1.609364e+002, 7.116374e+003
1.614185e+002, 7.163306e+003
1.619006e+002, 7.214102e+003
1.623827e+002, 7.264761e+003
1.628648e+002, 7.314673e+003
1.633469e+002, 7.363950e+003
1.638291e+002, 7.411628e+003
1.643112e+002, 7.458292e+003
1.647933e+002, 7.506561e+003
1.652754e+002, 7.556826e+003
1.657575e+002, 7.609515e+003
1.662396e+002, 7.665568e+003
1.667218e+002, 7.727183e+003
1.672039e+002, 7.788497e+003
1.676860e+002, 7.849704e+003
1.681681e+002, 7.908388e+003
1.686502e+002, 7.958893e+003
1.691323e+002, 7.995265e+003
1.696145e+002, 8.022607e+003
1.700966e+002, 8.046111e+003
1.705787e+002, 8.068788e+003
1.710608e+002, 8.085247e+003
1.715429e+002, 8.088694e+003
1.720250e+002, 8.080820e+003
1.725072e+002, 8.069960e+003
1.729893e+002, 8.063491e+003
1.734714e+002, 8.056460e+003
1.739535e+002, 8.041414e+003
1.744356e+002, 8.012342e+003
1.749177e+002, 7.979080e+003
1.753999e+002, 7.950926e+003
1.758820e+002, 7.927373e+003
1.763641e+002, 7.906632e+003
1.768462e+002, 7.886896e+003
1.773283e+002, 7.868685e+003
1.778104e+002, 7.853014e+003
1.782926e+002, 7.841071e+003
1.787747e+002, 7.831394e+003
1.792568e+002, 7.821849e+003
1.797389e+002, 7.812673e+003
1.802210e+002, 7.805015e+003
1.807031e+002, 7.800588e+003
1.811853e+002, 7.798707e+003
1.816674e+002, 7.797698e+003
1.821495e+002, 7.797665e+003
1.826316e+002, 7.797850e+003
1.831137e+002, 7.796837e+003
1.835958e+002, 7.794566e+003
1.840780e+002, 7.791391e+003
1.845601e+002, 7.785357e+003
1.850422e+002, 7.777888e+003
1.855243e+002, 7.774588e+003
1.860064e+002, 7.776095e+003
1.864885e+002, 7.783327e+003
1.869707e+002, 7.800075e+003
1.874528e+002, 7.827009e+003
1.879349e+002, 7.858303e+003
1.884170e+002, 7.888155e+003
1.888991e+002, 7.917022e+003
1.893812e+002, 7.948264e+003
1.898634e+002, 7.985952e+003
1.903455e+002, 8.027036e+003
1.908276e+002, 8.061271e+003
1.913097e+002, 8.089198e+003
1.917918e+002, 8.109281e+003
1.922739e+002, 8.119466e+003
1.927561e+002, 8.119800e+003
1.932382e+002, 8.112693e+003
1.937203e+002, 8.098207e+003
1.942024e+002, 8.076677e+003
1.946845e+002, 8.050440e+003
1.951666e+002, 8.019975e+003
1.956488e+002, 7.982605e+003
1.961309e+002, 7.933896e+003
1.966130e+002, 7.872583e+003
1.970951e+002, 7.807548e+003
1.975772e+002, 7.738607e+003
1.980593e+002, 7.666741e+003
1.985415e+002, 7.603133e+003
1.990236e+002, 7.549188e+003
1.995057e+002, 7.500727e+003
1.999878e+002, 7.453102e+003
2.004699e+002, 7.406116e+003
2.009520e+002, 7.363228e+003
2.014342e+002, 7.326244e+003
2.019163e+002, 7.295129e+003
2.023984e+002, 7.268198e+003
2.028805e+002, 7.245296e+003
2.033626e+002, 7.227394e+003
2.038447e+002, 7.216198e+003
2.043269e+002, 7.212330e+003
2.048090e+002, 7.212328e+003
2.052911e+002, 7.214662e+003
2.057732e+002, 7.219171e+003
2.062553e+002, 7.228940e+003
2.067374e+002, 7.243653e+003
2.072196e+002, 7.263659e+003
2.077017e+002, 7.290698e+003
2.081838e+002, 7.326522e+003
2.086659e+002, 7.362511e+003
2.091480e+002, 7.394773e+003
2.096301e+002, 7.422967e+003
2.101123e+002, 7.454272e+003
2.105944e+002, 7.489649e+003
2.110765e+002, 7.526903e+003
2.115586e+002, 7.563431e+003
2.120407e+002, 7.599703e+003
2.125228e+002, 7.633886e+003
2.130050e+002, 7.666063e+003
2.134871e+002, 7.696643e+003
2.139692e+002, 7.718936e+003
2.144513e+002, 7.729779e+003
2.149334e+002, 7.735780e+003
2.154155e+002, 7.747254e+003
2.158977e+002, 7.767692e+003
2.163798e+002, 7.785099e+003
2.168619e+002, 7.794067e+003
2.173440e+002, 7.792796e+003
2.178261e+002, 7.798194e+003
2.183082e+002, 7.811791e+003
2.187904e+002, 7.830594e+003
2.192725e+002, 7.850674e+003
2.197546e+002, 7.871908e+003
2.202367e+002, 7.894699e+003
2.207188e+002, 7.919222e+003
2.212009e+002, 7.946041e+003
2.216831e+002, 7.973063e+003
2.221652e+002, 7.999999e+003
2.226473e+002, 8.027618e+003
2.231294e+002, 8.056426e+003
2.236115e+002, 8.087021e+003
2.240936e+002, 8.118353e+003
2.245758e+002, 8.151728e+003
2.250579e+002, 8.188180e+003
2.255400e+002, 8.218013e+003
2.260221e+002, 8.239691e+003
2.265042e+002, 8.256125e+003
2.269863e+002, 8.271093e+003
2.274685e+002, 8.287063e+003
2.279506e+002, 8.297046e+003
2.284327e+002, 8.299811e+003
2.289148e+002, 8.295586e+003
2.293969e+002, 8.280869e+003
2.298790e+002, 8.252365e+003
2.303612e+002, 8.215895e+003
2.308433e+002, 8.178605e+003
2.313254e+002, 8.140943e+003
2.318075e+002, 8.100501e+003
2.322896e+002, 8.055625e+003
2.327717e+002, 8.005714e+003
2.332539e+002, 7.957911e+003
2.337360e+002, 7.911891e+003
2.342181e+002, 7.869422e+003
2.347002e+002, 7.831833e+003
2.351823e+002, 7.797678e+003
2.356644e+002, 7.772026e+003
2.361466e+002, 7.757648e+003
2.366287e+002, 7.755591e+003
2.371108e+002, 7.753493e+003
2.375929e+002, 7.748287e+003
2.380750e+002, 7.746284e+003
2.385571e+002, 7.754166e+003
2.390393e+002, 7.773944e+003
2.395214e+002, 7.800261e+003
2.400035e+002, 7.832255e+003
2.404856e+002, 7.870281e+003
2.409677e+002, 7.913766e+003
2.414498e+002, 7.964992e+003
2.419320e+002, 8.019361e+003
2.424141e+002, 8.072570e+003
2.428962e+002, 8.120931e+003
2.433783e+002, 8.174573e+003
2.438604e+002, 8.235257e+003
2.443425e+002, 8.302800e+003
2.448247e+002, 8.375347e+003
2.453068e+002, 8.458545e+003
2.457889e+002, 8.540254e+003
2.462710e+002, 8.610160e+003
2.467531e+002, 8.661639e+003
2.472352e+002, 8.714382e+003
2.477174e+002, 8.774392e+003
2.481995e+002, 8.840272e+003
2.486816e+002, 8.894054e+003
2.491637e+002, 8.933653e+003
2.496458e+002, 8.964235e+003
2.501279e+002, 8.989723e+003
2.506101e+002, 9.011838e+003
2.510922e+002, 9.026591e+003
2.515743e+002, 9.033319e+003
2.520564e+002, 9.032491e+003
2.525385e+002, 9.025723e+003
2.530206e+002, 9.012068e+003
2.535028e+002, 8.993786e+003
2.539849e+002, 8.972825e+003
2.544670e+002, 8.949247e+003
2.549491e+002, 8.921511e+003
2.554312e+002, 8.887027e+003
2.559133e+002, 8.847682e+003
2.563955e+002, 8.813141e+003
2.568776e+002, 8.785831e+003
2.573597e+002, 8.758620e+003
2.578418e+002, 8.726706e+003
2.583239e+002, 8.687529e+003
2.588061e+002, 8.648889e+003
2.592882e+002, 8.610685e+003
2.597703e+002, 8.573034e+003
2.602524e+002, 8.537296e+003
2.607345e+002, 8.503163e+003
2.612166e+002, 8.471301e+003
2.616988e+002, 8.440812e+003
2.621809e+002, 8.410521e+003
2.626630e+002, 8.388730e+003
2.631451e+002, 8.378948e+003
2.636272e+002, 8.376997e+003
2.641093e+002, 8.371504e+003
2.645915e+002, 8.361326e+003
2.650736e+002, 8.350741e+003
2.655557e+002, 8.342225e+003
2.660378e+002, 8.337287e+003
2.665199e+002, 8.329870e+003
2.670020e+002, 8.320834e+003
2.674842e+002, 8.308657e+003
2.679663e+002, 8.289966e+003
2.684484e+002, 8.263850e+003
2.689305e+002, 8.233855e+003
2.694126e+002, 8.202275e+003
2.698947e+002, 8.169328e+003
2.703769e+002, 8.130358e+003
2.708590e+002, 8.086038e+003
2.713411e+002, 8.034188e+003
2.718232e+002, 7.970013e+003
2.723053e+002, 7.890333e+003
2.727874e+002, 7.810037e+003
2.732696e+002, 7.733825e+003
2.737517e+002, 7.661886e+003
2.742338e+002, 7.589029e+003
2.747159e+002, 7.514504e+003
2.751980e+002, 7.439681e+003
2.756801e+002, 7.366239e+003
2.761623e+002, 7.293305e+003
2.766444e+002, 7.227519e+003
2.771265e+002, 7.172138e+003
2.776086e+002, 7.126184e+003
2.780907e+002, 7.084237e+003
2.785728e+002, 7.046952e+003
2.790550e+002, 7.011614e+003
2.795371e+002, 6.973808e+003
2.800192e+002, 6.933025e+003
2.805013e+002, 6.898365e+003
2.809834e+002, 6.874133e+003
2.814655e+002, 6.858123e+003
2.819477e+002, 6.837743e+003
2.824298e+002, 6.812087e+003
2.829119e+002, 6.787309e+003
2.833940e+002, 6.768741e+003
2.838761e+002, 6.756301e+003
2.843582e+002, 6.748324e+003
2.848404e+002, 6.744985e+003
2.853225e+002, 6.745411e+003
2.858046e+002, 6.747224e+003
2.862867e+002, 6.750333e+003
2.867688e+002, 6.754937e+003
2.872509e+002, 6.761094e+003
2.877331e+002, 6.768792e+003
2.882152e+002, 6.778035e+003
2.886973e+002, 6.788376e+003
2.891794e+002, 6.800823e+003
2.896615e+002, 6.817229e+003
2.901436e+002, 6.837728e+003
2.906258e+002, 6.861567e+003
2.911079e+002, 6.889329e+003
2.915900e+002, 6.920465e+003
2.920721e+002, 6.952895e+003
2.925542e+002, 6.986405e+003
2.930363e+002, 7.020388e+003
2.935185e+002, 7.051900e+003
2.940006e+002, 7.081916e+003
2.944827e+002, 7.115952e+003
2.949648e+002, 7.158593e+003
2.954469e+002, 7.208274e+003
2.959290e+002, 7.260788e+003
2.964112e+002, 7.316614e+003
2.968933e+002, 7.373128e+003
2.973754e+002, 7.422830e+003
2.978575e+002, 7.468595e+003
2.983396e+002, 7.522477e+003
2.988217e+002, 7.595691e+003
2.993039e+002, 7.679083e+003
2.997860e+002, 7.754788e+003
3.002681e+002, 7.822373e+003
3.007502e+002, 7.887321e+003
3.012323e+002, 7.952171e+003
3.017144e+002, 8.018455e+003
3.021966e+002, 8.086712e+003
3.026787e+002, 8.158306e+003
3.031608e+002, 8.232592e+003
3.036429e+002, 8.311267e+003
3.041250e+002, 8.393501e+003
3.046071e+002, 8.476418e+003
3.050893e+002, 8.557668e+003
3.055714e+002, 8.637884e+003
3.060535e+002, 8.715225e+003
3.065356e+002, 8.787497e+003
3.070177e+002, 8.859453e+003
3.074998e+002, 8.937087e+003
3.079820e+002, 9.019178e+003
3.084641e+002, 9.095498e+003
3.089462e+002, 9.158057e+003
3.094283e+002, 9.212428e+003
3.099104e+002, 9.264866e+003
3.103925e+002, 9.319882e+003
3.108747e+002, 9.366731e+003
3.113568e+002, 9.398706e+003
3.118389e+002, 9.416354e+003
3.123210e+002, 9.421120e+003
3.128031e+002, 9.417879e+003
3.132852e+002, 9.399707e+003
3.137674e+002, 9.359846e+003
3.142495e+002, 9.294960e+003
3.147316e+002, 9.217526e+003
3.152137e+002, 9.134097e+003
3.156958e+002, 9.042745e+003
3.161779e+002, 8.940153e+003
3.166601e+002, 8.819363e+003
3.171422e+002, 8.691437e+003
3.176243e+002, 8.559251e+003
3.181064e+002, 8.422454e+003
3.185885e+002, 8.294479e+003
3.190706e+002, 8.180961e+003
3.195528e+002, 8.078555e+003
3.200349e+002, 7.983444e+003
3.205170e+002, 7.899614e+003
3.209991e+002, 7.818182e+003
3.214812e+002, 7.733248e+003
3.219633e+002, 7.644256e+003
3.224455e+002, 7.567172e+003
3.229276e+002, 7.507604e+003
3.234097e+002, 7.459084e+003
3.238918e+002, 7.416762e+003
3.243739e+002, 7.380808e+003
3.248560e+002, 7.349974e+003
3.253382e+002, 7.323401e+003
3.258203e+002, 7.301311e+003
3.263024e+002, 7.286156e+003
3.267845e+002, 7.281367e+003
3.272666e+002, 7.280844e+003
3.277487e+002, 7.281658e+003
3.282309e+002, 7.282037e+003
3.287130e+002, 7.285973e+003
3.291951e+002, 7.292944e+003
3.296772e+002, 7.303476e+003
3.301593e+002, 7.318886e+003
3.306414e+002, 7.338173e+003
3.311236e+002, 7.363357e+003
3.316057e+002, 7.395909e+003
3.320878e+002, 7.437979e+003
3.325699e+002, 7.481396e+003
3.330520e+002, 7.526487e+003
3.335341e+002, 7.572408e+003
3.340163e+002, 7.617042e+003
3.344984e+002, 7.656443e+003
3.349805e+002, 7.701759e+003
3.354626e+002, 7.756555e+003
3.359447e+002, 7.821396e+003
3.364268e+002, 7.889886e+003
3.369090e+002, 7.962346e+003
3.373911e+002, 8.039109e+003
3.378732e+002, 8.120273e+003
3.383553e+002, 8.206452e+003
3.388374e+002, 8.293807e+003
3.393195e+002, 8.381461e+003
3.398017e+002, 8.469761e+003
3.402838e+002, 8.564857e+003
3.407659e+002, 8.667958e+003
3.412480e+002, 8.774007e+003
3.417301e+002, 8.880196e+003
3.422122e+002, 8.985761e+003
3.426944e+002, 9.096559e+003
3.431765e+002, 9.213363e+003
3.436586e+002, 9.334903e+003
3.441407e+002, 9.455854e+003
3.446228e+002, 9.575634e+003
3.451049e+002, 9.698393e+003
3.455871e+002, 9.824402e+003
3.460692e+002, 9.955478e+003
3.465513e+002, 1.009239e+004
3.470334e+002, 1.023672e+004
3.475155e+002, 1.038214e+004
3.479977e+002, 1.051697e+004
3.484798e+002, 1.064402e+004
3.489619e+002, 1.077083e+004
3.494440e+002, 1.090053e+004
3.499261e+002, 1.103231e+004
3.504082e+002, 1.116575e+004
3.508904e+002, 1.130076e+004
3.513725e+002, 1.143276e+004
3.518546e+002, 1.156079e+004
3.523367e+002, 1.168342e+004
3.528188e+002, 1.179879e+004
3.533009e+002, 1.190485e+004
3.537831e+002, 1.200482e+004
3.542652e+002, 1.210144e+004
3.547473e+002, 1.219472e+004
3.552294e+002, 1.228512e+004
3.557115e+002, 1.237303e+004
3.561936e+002, 1.245828e+004
3.566758e+002, 1.254012e+004
3.571579e+002, 1.261877e+004
3.576400e+002, 1.269644e+004
3.581221e+002, 1.277085e+004
3.586042e+002, 1.284581e+004
3.590863e+002, 1.293017e+004
3.595685e+002, 1.303178e+004
3.600506e+002, 1.314141e+004
3.605327e+002, 1.325388e+004
3.610148e+002, 1.336876e+004
3.614969e+002, 1.348728e+004
3.619790e+002, 1.361319e+004
3.624612e+002, 1.374139e+004
3.629433e+002, 1.386800e+004
3.634254e+002, 1.399411e+004
3.639075e+002, 1.411567e+004
3.643896e+002, 1.423210e+004
3.648717e+002, 1.434289e+004
3.653539e+002, 1.444567e+004
3.658360e+002, 1.455021e+004
3.663181e+002, 1.463868e+004
3.668002e+002, 1.470239e+004
3.672823e+002, 1.473483e+004
3.677644e+002, 1.474900e+004
3.682466e+002, 1.474653e+004
3.687287e+002, 1.472594e+004
3.692108e+002, 1.468492e+004
3.696929e+002, 1.462836e+004
3.701750e+002, 1.454595e+004
3.706571e+002, 1.443527e+004
3.711393e+002, 1.429446e+004
3.716214e+002, 1.412837e+004
3.721035e+002, 1.392929e+004
3.725856e+002, 1.370919e+004
3.730677e+002, 1.348581e+004
3.735498e+002, 1.325918e+004
3.740320e+002, 1.302615e+004
3.745141e+002, 1.278730e+004
3.749962e+002, 1.254386e+004
3.754783e+002, 1.229277e+004
3.759604e+002, 1.203269e+004
3.764425e+002, 1.177388e+004
3.769247e+002, 1.152375e+004
3.774068e+002, 1.128461e+004
3.778889e+002, 1.105227e+004
3.783710e+002, 1.082705e+004
3.788531e+002, 1.061063e+004
3.793352e+002, 1.040234e+004
3.798174e+002, 1.020360e+004
3.802995e+002, 1.001534e+004
3.807816e+002, 9.840315e+003
3.812637e+002, 9.676839e+003
3.817458e+002, 9.526498e+003
3.822279e+002, 9.387929e+003
3.827101e+002, 9.259745e+003
3.831922e+002, 9.137315e+003
3.836743e+002, 9.020308e+003
3.841564e+002, 8.913459e+003
3.846385e+002, 8.819105e+003
3.851206e+002, 8.734472e+003
3.856028e+002, 8.654340e+003
3.860849e+002, 8.578757e+003
3.865670e+002, 8.508414e+003
3.870491e+002, 8.440317e+003
3.875312e+002, 8.378108e+003
3.880133e+002, 8.327726e+003
3.884955e+002, 8.293126e+003
3.889776e+002, 8.266623e+003
3.894597e+002, 8.243716e+003
3.899418e+002, 8.224195e+003
3.904239e+002, 8.207308e+003
3.909060e+002, 8.189579e+003
3.913882e+002, 8.176365e+003
3.918703e+002, 8.172252e+003
3.923524e+002, 8.178391e+003
3.928345e+002, 8.189850e+003
3.933166e+002, 8.206909e+003
3.937987e+002, 8.227135e+003
3.942809e+002, 8.247200e+003
3.947630e+002, 8.262788e+003
3.952451e+002, 8.281287e+003
3.957272e+002, 8.304762e+003
3.962093e+002, 8.333212e+003
3.966914e+002, 8.366812e+003
3.971736e+002, 8.409315e+003
3.976557e+002, 8.454450e+003
3.981378e+002, 8.498528e+003
3.986199e+002, 8.535919e+003
3.991020e+002, 8.578216e+003
3.995841e+002, 8.628314e+003
4.000663e+002, 8.683377e+003
4.005484e+002, 8.736823e+003
4.010305e+002, 8.788745e+003
4.015126e+002, 8.838942e+003
4.019947e+002, 8.888124e+003
4.024768e+002, 8.936688e+003
4.029590e+002, 8.979388e+003
4.034411e+002, 9.014591e+003
4.039232e+002, 9.045853e+003
4.044053e+002, 9.079269e+003
4.048874e+002, 9.119563e+003
4.053695e+002, 9.146193e+003
4.058517e+002, 9.155137e+003
4.063338e+002, 9.147705e+003
4.068159e+002, 9.128620e+003
4.072980e+002, 9.097300e+003
4.077801e+002, 9.057327e+003
4.082622e+002, 9.012806e+003
4.087444e+002, 8.963125e+003
4.092265e+002, 8.900599e+003
4.097086e+002, 8.822979e+003
4.101907e+002, 8.735272e+003
4.106728e+002, 8.644282e+003
4.111549e+002, 8.549418e+003
4.116371e+002, 8.449243e+003
4.121192e+002, 8.340113e+003
4.126013e+002, 8.226564e+003
4.130834e+002, 8.117673e+003
4.135655e+002, 8.013837e+003
4.140476e+002, 7.914287e+003
4.145298e+002, 7.818203e+003
4.150119e+002, 7.725513e+003
4.154940e+002, 7.633665e+003
4.159761e+002, 7.541261e+003
4.164582e+002, 7.452290e+003
4.169403e+002, 7.371070e+003
4.174225e+002, 7.296919e+003
4.179046e+002, 7.228268e+003
4.183867e+002, 7.167339e+003
4.188688e+002, 7.111180e+003
4.193509e+002, 7.059381e+003
4.198330e+002, 7.011864e+003
4.203152e+002, 6.966628e+003
4.207973e+002, 6.921750e+003
4.212794e+002, 6.878767e+003
4.217615e+002, 6.839202e+003
4.222436e+002, 6.802034e+003
4.227257e+002, 6.769945e+003
4.232079e+002, 6.744240e+003
4.236900e+002, 6.724713e+003
4.241721e+002, 6.707170e+003
4.246542e+002, 6.692332e+003
4.251363e+002, 6.678291e+003
4.256184e+002, 6.663750e+003
4.261006e+002, 6.647515e+003
4.265827e+002, 6.633146e+003
4.270648e+002, 6.620538e+003
4.275469e+002, 6.609688e+003
4.280290e+002, 6.601490e+003
4.285111e+002, 6.598128e+003
4.289933e+002, 6.592144e+003
4.294754e+002, 6.578931e+003
4.299575e+002, 6.558901e+003
4.304396e+002, 6.551437e+003
4.309217e+002, 6.559866e+003
4.314038e+002, 6.570903e+003
4.318860e+002, 6.571145e+003
4.323681e+002, 6.560482e+003
4.328502e+002, 6.554342e+003
4.333323e+002, 6.556139e+003
4.338144e+002, 6.562014e+003
4.342965e+002, 6.564843e+003
4.347787e+002, 6.564766e+003
4.352608e+002, 6.563550e+003
4.357429e+002, 6.559752e+003
4.362250e+002, 6.555834e+003
4.367071e+002, 6.558399e+003
4.371892e+002, 6.568001e+003
4.376714e+002, 6.579171e+003
4.381535e+002, 6.586892e+003
4.386356e+002, 6.592614e+003
4.391177e+002, 6.598945e+003
4.395998e+002, 6.608522e+003
4.400819e+002, 6.617026e+003
4.405641e+002, 6.620049e+003
4.410462e+002, 6.618829e+003
4.415283e+002, 6.617719e+003
4.420104e+002, 6.616984e+003
4.424925e+002, 6.618523e+003
4.429746e+002, 6.623961e+003
4.434568e+002, 6.634153e+003
4.439389e+002, 6.645651e+003
4.444210e+002, 6.658857e+003
4.449031e+002, 6.672102e+003
4.453852e+002, 6.683431e+003
4.458673e+002, 6.685758e+003
4.463495e+002, 6.692753e+003
4.468316e+002, 6.710799e+003
4.473137e+002, 6.738627e+003
4.477958e+002, 6.758532e+003
4.482779e+002, 6.766279e+003
4.487600e+002, 6.770095e+003
4.492422e+002, 6.773326e+003
4.497243e+002, 6.773704e+003
4.502064e+002, 6.779656e+003
4.506885e+002, 6.793552e+003
4.511706e+002, 6.811236e+003
4.516527e+002, 6.825002e+003
4.521349e+002, 6.833548e+003
4.526170e+002, 6.845208e+003
4.530991e+002, 6.863987e+003
4.535812e+002, 6.888459e+003
4.540633e+002, 6.906292e+003
4.545454e+002, 6.916719e+003
4.550276e+002, 6.929287e+003
4.555097e+002, 6.954672e+003
4.559918e+002, 6.989894e+003
4.564739e+002, 7.018083e+003
4.569560e+002, 7.035372e+003
4.574381e+002, 7.049963e+003
4.579203e+002, 7.071835e+003
4.584024e+002, 7.099885e+003
4.588845e+002, 7.131472e+003
4.593666e+002, 7.166739e+003
4.598488e+002, 7.203587e+003
4.603309e+002, 7.238466e+003
4.608130e+002, 7.271333e+003
4.612951e+002, 7.306277e+003
4.617772e+002, 7.347608e+003
4.622593e+002, 7.390760e+003
4.627415e+002, 7.430491e+003
4.632236e+002, 7.463612e+003
4.637057e+002, 7.496803e+003
4.641878e+002, 7.533448e+003
4.646699e+002, 7.571679e+003
4.651520e+002, 7.608555e+003
4.656342e+002, 7.640241e+003
4.661163e+002, 7.672665e+003
4.665984e+002, 7.708169e+003
4.670805e+002, 7.746981e+003
4.675626e+002, 7.786635e+003
4.680447e+002, 7.827583e+003
4.685269e+002, 7.868645e+003
4.690090e+002, 7.909504e+003
4.694911e+002, 7.950249e+003
4.699732e+002, 7.990060e+003
4.704553e+002, 8.029155e+003
4.709374e+002, 8.067127e+003
4.714196e+002, 8.103629e+003
4.719017e+002, 8.138195e+003
4.723838e+002, 8.172234e+003
4.728659e+002, 8.207189e+003
4.733480e+002, 8.242736e+003
4.738301e+002, 8.273824e+003
4.743123e+002, 8.300718e+003
4.747944e+002, 8.322964e+003
4.752765e+002, 8.339937e+003
4.757586e+002, 8.351943e+003
4.762407e+002, 8.360167e+003
4.767228e+002, 8.365147e+003
4.772050e+002, 8.365914e+003
4.776871e+002, 8.359621e+003
4.781692e+002, 8.347653e+003
4.786513e+002, 8.334458e+003
4.791334e+002, 8.323998e+003
4.796155e+002, 8.312272e+003
4.800977e+002, 8.295897e+003
4.805798e+002, 8.274656e+003
4.810619e+002, 8.248335e+003
4.815440e+002, 8.214413e+003
4.820261e+002, 8.176893e+003
4.825082e+002, 8.139263e+003
4.829904e+002, 8.104455e+003
4.834725e+002, 8.066544e+003
4.839546e+002, 8.019737e+003
4.844367e+002, 7.968785e+003
4.849188e+002, 7.924518e+003
4.854009e+002, 7.894153e+003
4.858831e+002, 7.864689e+003
4.863652e+002, 7.830990e+003
4.868473e+002, 7.792713e+003
4.873294e+002, 7.760928e+003
4.878115e+002, 7.737547e+003
4.882936e+002, 7.718447e+003
4.887758e+002, 7.700942e+003
4.892579e+002, 7.685577e+003
4.897400e+002, 7.669165e+003
4.902221e+002, 7.650587e+003
4.907042e+002, 7.631823e+003
4.911863e+002, 7.616807e+003
4.916685e+002, 7.605435e+003
4.921506e+002, 7.597584e+003
4.926327e+002, 7.594450e+003
4.931148e+002, 7.594605e+003
4.935969e+002, 7.592311e+003
4.940790e+002, 7.587527e+003
4.945612e+002, 7.585566e+003
4.950433e+002, 7.593504e+003
4.955254e+002, 7.606740e+003
4.960075e+002, 7.616711e+003
4.964896e+002, 7.621408e+003
4.969717e+002, 7.623712e+003
4.974539e+002, 7.624114e+003
4.979360e+002, 7.624014e+003
4.984181e+002, 7.625995e+003
4.989002e+002, 7.631799e+003
4.993823e+002, 7.639331e+003
4.998644e+002, 7.649042e+003
5.003466e+002, 7.660468e+003
5.008287e+002, 7.668631e+003
5.013108e+002, 7.668919e+003
5.017929e+002, 7.667854e+003
5.022750e+002, 7.669372e+003
5.027571e+002, 7.676155e+003
5.032393e+002, 7.681089e+003
5.037214e+002, 7.682152e+003
5.042035e+002, 7.682293e+003
5.046856e+002, 7.685446e+003
5.051677e+002, 7.692673e+003
5.056498e+002, 7.700772e+003
5.061320e+002, 7.708429e+003
5.066141e+002, 7.716487e+003
5.070962e+002, 7.730051e+003
5.075783e+002, 7.750330e+003
5.080604e+002, 7.770760e+003
5.085425e+002, 7.786695e+003
5.090247e+002, 7.798623e+003
5.095068e+002, 7.812076e+003
5.099889e+002, 7.827337e+003
5.104710e+002, 7.843406e+003
5.109531e+002, 7.859854e+003
5.114352e+002, 7.876306e+003
5.119174e+002, 7.890993e+003
5.123995e+002, 7.900403e+003
5.128816e+002, 7.912076e+003
5.133637e+002, 7.936502e+003
5.138458e+002, 7.970739e+003
5.143279e+002, 8.005056e+003
5.148101e+002, 8.032967e+003
5.152922e+002, 8.060338e+003
5.157743e+002, 8.091251e+003
5.162564e+002, 8.126301e+003
5.167385e+002, 8.163393e+003
5.172206e+002, 8.203085e+003
5.177028e+002, 8.243509e+003
5.181849e+002, 8.283008e+003
5.186670e+002, 8.318230e+003
5.191491e+002, 8.356225e+003
5.196312e+002, 8.395637e+003
5.201133e+002, 8.438104e+003
5.205955e+002, 8.489403e+003
5.210776e+002, 8.554840e+003
5.215597e+002, 8.617736e+003
5.220418e+002, 8.671059e+003
5.225239e+002, 8.715647e+003
5.230060e+002, 8.768459e+003
5.234882e+002, 8.831040e+003
5.239703e+002, 8.896637e+003
5.244524e+002, 8.961516e+003
5.249345e+002, 9.025110e+003
5.254166e+002, 9.084577e+003
5.258987e+002, 9.139670e+003
5.263809e+002, 9.192046e+003
5.268630e+002, 9.243271e+003
5.273451e+002, 9.294279e+003
5.278272e+002, 9.347046e+003
5.283093e+002, 9.405721e+003
5.287914e+002, 9.464593e+003
5.292736e+002, 9.519338e+003
5.297557e+002, 9.570204e+003
5.302378e+002, 9.615396e+003
5.307199e+002, 9.653440e+003
5.312020e+002, 9.686967e+003
5.316841e+002, 9.717792e+003
5.321663e+002, 9.747209e+003
5.326484e+002, 9.771255e+003
5.331305e+002, 9.789641e+003
5.336126e+002, 9.802308e+003
5.340947e+002, 9.809359e+003
5.345768e+002, 9.807952e+003
5.350590e+002, 9.804577e+003
5.355411e+002, 9.801904e+003
5.360232e+002, 9.796929e+003
5.365053e+002, 9.781095e+003
5.369874e+002, 9.752078e+003
5.374695e+002, 9.718129e+003
5.379517e+002, 9.683357e+003
5.384338e+002, 9.646804e+003
5.389159e+002, 9.600064e+003
5.393980e+002, 9.542542e+003
5.398801e+002, 9.479209e+003
5.403622e+002, 9.412524e+003
5.408444e+002, 9.344109e+003
5.413265e+002, 9.279560e+003
5.418086e+002, 9.220686e+003
5.422907e+002, 9.159745e+003
5.427728e+002, 9.083035e+003
5.432549e+002, 8.997294e+003
5.437371e+002, 8.918676e+003
5.442192e+002, 8.858142e+003
5.447013e+002, 8.803593e+003
5.451834e+002, 8.746326e+003
5.456655e+002, 8.687118e+003
5.461476e+002, 8.631012e+003
5.466298e+002, 8.578425e+003
5.471119e+002, 8.530724e+003
5.475940e+002, 8.489723e+003
5.480761e+002, 8.457341e+003
5.485582e+002, 8.423895e+003
5.490403e+002, 8.383227e+003
5.495225e+002, 8.344384e+003
5.500046e+002, 8.315813e+003
5.504867e+002, 8.303397e+003
5.509688e+002, 8.287658e+003
5.514509e+002, 8.264752e+003
5.519330e+002, 8.239022e+003
5.524152e+002, 8.220308e+003
5.528973e+002, 8.208858e+003
5.533794e+002, 8.200948e+003
5.538615e+002, 8.195466e+003
5.543436e+002, 8.192350e+003
5.548257e+002, 8.191508e+003
5.553079e+002, 8.192956e+003
5.557900e+002, 8.196600e+003
5.562721e+002, 8.202265e+003
5.567542e+002, 8.210148e+003
5.572363e+002, 8.220912e+003
5.577184e+002, 8.234920e+003
5.582006e+002, 8.250236e+003
5.586827e+002, 8.264812e+003
5.591648e+002, 8.280108e+003
5.596469e+002, 8.298245e+003
5.601290e+002, 8.323814e+003
5.606111e+002, 8.347972e+003
5.610933e+002, 8.364185e+003
5.615754e+002, 8.376449e+003
5.620575e+002, 8.395547e+003
5.625396e+002, 8.425736e+003
5.630217e+002, 8.460220e+003
5.635038e+002, 8.499162e+003
5.639860e+002, 8.543049e+003
5.644681e+002, 8.581215e+003
5.649502e+002, 8.610878e+003
5.654323e+002, 8.639850e+003
5.659144e+002, 8.673897e+003
5.663965e+002, 8.713640e+003
5.668787e+002, 8.750324e+003
5.673608e+002, 8.781967e+003
5.678429e+002, 8.814037e+003
5.683250e+002, 8.855083e+003
5.688071e+002, 8.903026e+003
5.692892e+002, 8.947509e+003
5.697714e+002, 8.983848e+003
5.702535e+002, 9.016525e+003
5.707356e+002, 9.050526e+003
5.712177e+002, 9.085389e+003
5.716998e+002, 9.117723e+003
5.721819e+002, 9.147183e+003
5.726641e+002, 9.173186e+003
5.731462e+002, 9.194007e+003
5.736283e+002, 9.209670e+003
5.741104e+002, 9.226114e+003
5.745925e+002, 9.249603e+003
5.750746e+002, 9.271594e+003
5.755568e+002, 9.286601e+003
5.760389e+002, 9.291002e+003
5.765210e+002, 9.293860e+003
5.770031e+002, 9.296099e+003
5.774852e+002, 9.296277e+003
5.779673e+002, 9.293031e+003
5.784495e+002, 9.287191e+003
5.789316e+002, 9.274703e+003
5.794137e+002, 9.252583e+003
5.798958e+002, 9.225325e+003
5.803779e+002, 9.205747e+003
5.808600e+002, 9.193861e+003
5.813422e+002, 9.178253e+003
5.818243e+002, 9.149309e+003
5.823064e+002, 9.112989e+003
5.827885e+002, 9.082933e+003
5.832706e+002, 9.058903e+003
5.837527e+002, 9.035471e+003
5.842349e+002, 9.012630e+003
5.847170e+002, 8.985757e+003
5.851991e+002, 8.948455e+003
5.856812e+002, 8.895618e+003
5.861633e+002, 8.843620e+003
5.866454e+002, 8.799788e+003
5.871276e+002, 8.760260e+003
5.876097e+002, 8.720932e+003
5.880918e+002, 8.680337e+003
5.885739e+002, 8.640495e+003
5.890560e+002, 8.600954e+003
5.895381e+002, 8.562626e+003
5.900203e+002, 8.528845e+003
5.905024e+002, 8.503145e+003
5.909845e+002, 8.474346e+003
5.914666e+002, 8.437267e+003
5.919487e+002, 8.393234e+003
5.924308e+002, 8.354613e+003
5.929130e+002, 8.321583e+003
5.933951e+002, 8.292918e+003
5.938772e+002, 8.270770e+003
5.943593e+002, 8.252402e+003
5.948414e+002, 8.229143e+003
5.953235e+002, 8.199697e+003
5.958057e+002, 8.169916e+003
5.962878e+002, 8.145810e+003
5.967699e+002, 8.124529e+003
5.972520e+002, 8.102042e+003
5.977341e+002, 8.075117e+003
5.982162e+002, 8.049206e+003
5.986984e+002, 8.029135e+003
5.991805e+002, 8.011943e+003
5.996626e+002, 7.990496e+003
6.001447e+002, 7.956648e+003
6.006268e+002, 7.925524e+003
6.011089e+002, 7.902910e+003
6.015911e+002, 7.887763e+003
6.020732e+002, 7.869159e+003
6.025553e+002, 7.845916e+003
6.030374e+002, 7.821846e+003
6.035195e+002, 7.797645e+003
6.040016e+002, 7.773153e+003
6.044838e+002, 7.757518e+003
6.049659e+002, 7.752255e+003
6.054480e+002, 7.749467e+003
6.059301e+002, 7.741653e+003
6.064122e+002, 7.729669e+003
6.068943e+002, 7.715844e+003
6.073765e+002, 7.699798e+003
6.078586e+002, 7.684585e+003
6.083407e+002, 7.673100e+003
6.088228e+002, 7.664796e+003
6.093049e+002, 7.658963e+003
6.097870e+002, 7.655810e+003
6.102692e+002, 7.654400e+003
6.107513e+002, 7.655635e+003
6.112334e+002, 7.658469e+003
6.117155e+002, 7.659250e+003
6.121976e+002, 7.653303e+003
6.126797e+002, 7.649029e+003
6.131619e+002, 7.649296e+003
6.136440e+002, 7.654270e+003
6.141261e+002, 7.659978e+003
6.146082e+002, 7.667056e+003
6.150903e+002, 7.673727e+003
6.155724e+002, 7.678163e+003
6.160546e+002, 7.680254e+003
6.165367e+002, 7.685095e+003
6.170188e+002, 7.693289e+003
6.175009e+002, 7.702534e+003
6.179830e+002, 7.710464e+003
6.184651e+002, 7.717342e+003
6.189473e+002, 7.723304e+003
6.194294e+002, 7.726925e+003
6.199115e+002, 7.732978e+003
6.203936e+002, 7.748099e+003
6.208757e+002, 7.768870e+003
6.213578e+002, 7.788369e+003
6.218400e+002, 7.801077e+003
6.223221e+002, 7.814778e+003
6.228042e+002, 7.833720e+003
6.232863e+002, 7.857064e+003
6.237684e+002, 7.878273e+003
6.242505e+002, 7.891567e+003
6.247327e+002, 7.908294e+003
6.252148e+002, 7.933686e+003
6.256969e+002, 7.968806e+003
6.261790e+002, 7.998329e+003
6.266611e+002, 8.019571e+003
6.271432e+002, 8.041177e+003
6.276254e+002, 8.071782e+003
6.281075e+002, 8.110296e+003
6.285896e+002, 8.144363e+003
6.290717e+002, 8.172401e+003
6.295538e+002, 8.197439e+003
6.300359e+002, 8.220246e+003
6.305181e+002, 8.242824e+003
6.310002e+002, 8.270180e+003
6.314823e+002, 8.306527e+003
6.319644e+002, 8.343772e+003
6.324465e+002, 8.375931e+003
6.329286e+002, 8.405190e+003
6.334108e+002, 8.435272e+003
6.338929e+002, 8.470354e+003
6.343750e+002, 8.503599e+003
6.348571e+002, 8.531330e+003
6.353392e+002, 8.554610e+003
6.358214e+002, 8.581436e+003
6.363035e+002, 8.615326e+003
6.367856e+002, 8.646682e+003
6.372677e+002, 8.671724e+003
6.377498e+002, 8.690113e+003
6.382319e+002, 8.703459e+003
6.387141e+002, 8.711442e+003
6.391962e+002, 8.715792e+003
6.396783e+002, 8.718065e+003
6.401604e+002, 8.718082e+003
6.406425e+002, 8.715326e+003
6.411246e+002, 8.709998e+003
6.416068e+002, 8.701600e+003
6.420889e+002, 8.690418e+003
6.425710e+002, 8.675991e+003
6.430531e+002, 8.657692e+003
6.435352e+002, 8.634434e+003
6.440173e+002, 8.609069e+003
6.444995e+002, 8.579819e+003
6.449816e+002, 8.549784e+003
6.454637e+002, 8.523607e+003
6.459458e+002, 8.511567e+003
6.464279e+002, 8.491731e+003
6.469100e+002, 8.457153e+003
6.473922e+002, 8.411870e+003
6.478743e+002, 8.374217e+003
6.483564e+002, 8.345343e+003
6.488385e+002, 8.317835e+003
6.493206e+002, 8.288452e+003
6.498027e+002, 8.257327e+003
6.502849e+002, 8.227281e+003
6.507670e+002, 8.198341e+003
6.512491e+002, 8.170877e+003
6.517312e+002, 8.147151e+003
6.522133e+002, 8.124949e+003
6.526954e+002, 8.100335e+003
6.531776e+002, 8.072859e+003
6.536597e+002, 8.046104e+003
6.541418e+002, 8.018382e+003
6.546239e+002, 7.994011e+003
6.551060e+002, 7.977282e+003
6.555881e+002, 7.974141e+003
6.560703e+002, 7.969235e+003
6.565524e+002, 7.959744e+003
6.570345e+002, 7.947679e+003
6.575166e+002, 7.935083e+003
6.579987e+002, 7.920883e+003
6.584808e+002, 7.908116e+003
6.589630e+002, 7.896596e+003
6.594451e+002, 7.886942e+003
6.599272e+002, 7.881227e+003
6.604093e+002, 7.879336e+003
6.608914e+002, 7.877897e+003
6.613735e+002, 7.875038e+003
6.618557e+002, 7.872605e+003
6.623378e+002, 7.874492e+003
6.628199e+002, 7.879955e+003
6.633020e+002, 7.885116e+003
6.637841e+002, 7.886954e+003
6.642662e+002, 7.888693e+003
6.647484e+002, 7.891438e+003
6.652305e+002, 7.895419e+003
6.657126e+002, 7.904592e+003
6.661947e+002, 7.926673e+003
6.666768e+002, 7.948519e+003
6.671589e+002, 7.962043e+003
6.676411e+002, 7.963363e+003
6.681232e+002, 7.971130e+003
6.686053e+002, 7.987281e+003
6.690874e+002, 8.005607e+003
6.695695e+002, 8.019602e+003
6.700516e+002, 8.029252e+003
6.705338e+002, 8.040878e+003
6.710159e+002, 8.054855e+003
6.714980e+002, 8.071342e+003
6.719801e+002, 8.092761e+003
6.724622e+002, 8.116667e+003
6.729443e+002, 8.136958e+003
6.734265e+002, 8.151009e+003
6.739086e+002, 8.163058e+003
6.743907e+002, 8.176288e+003
6.748728e+002, 8.190126e+003
6.753549e+002, 8.203075e+003
6.758370e+002, 8.214438e+003
6.763192e+002, 8.226310e+003
6.768013e+002, 8.237369e+003
6.772834e+002, 8.249482e+003
6.777655e+002, 8.269725e+003
6.782476e+002, 8.301367e+003
6.787297e+002, 8.333551e+003
6.792119e+002, 8.361761e+003
6.796940e+002, 8.386808e+003
6.801761e+002, 8.412764e+003
6.806582e+002, 8.439364e+003
6.811403e+002, 8.466618e+003
6.816224e+002, 8.492175e+003
6.821046e+002, 8.518839e+003
6.825867e+002, 8.552306e+003
6.830688e+002, 8.592873e+003
6.835509e+002, 8.632927e+003
6.840330e+002, 8.665082e+003
6.845151e+002, 8.696395e+003
6.849973e+002, 8.734104e+003
6.854794e+002, 8.783017e+003
6.859615e+002, 8.827995e+003
6.864436e+002, 8.863533e+003
6.869257e+002, 8.896853e+003
6.874078e+002, 8.933357e+003
6.878900e+002, 8.973732e+003
6.883721e+002, 9.017666e+003
6.888542e+002, 9.065829e+003
6.893363e+002, 9.115849e+003
6.898184e+002, 9.163109e+003
6.903005e+002, 9.207768e+003
6.907827e+002, 9.251785e+003
6.912648e+002, 9.294053e+003
6.917469e+002, 9.338499e+003
6.922290e+002, 9.388187e+003
6.927111e+002, 9.443667e+003
6.931932e+002, 9.504816e+003
6.936754e+002, 9.572778e+003
6.941575e+002, 9.645087e+003
6.946396e+002, 9.723561e+003
6.951217e+002, 9.805585e+003
6.956038e+002, 9.883737e+003
6.960859e+002, 9.943387e+003
6.965681e+002, 1.001351e+004
6.970502e+002, 1.010557e+004
6.975323e+002, 1.021668e+004
6.980144e+002, 1.031707e+004
6.984965e+002, 1.040449e+004
6.989786e+002, 1.049183e+004
6.994608e+002, 1.058529e+004
6.999429e+002, 1.068532e+004
7.004250e+002, 1.079021e+004
7.009071e+002, 1.090058e+004
7.013892e+002, 1.101888e+004
7.018713e+002, 1.114776e+004
7.023535e+002, 1.128527e+004
7.028356e+002, 1.142926e+004
7.033177e+002, 1.157995e+004
7.037998e+002, 1.173762e+004
7.042819e+002, 1.190250e+004
7.047640e+002, 1.207566e+004
7.052462e+002, 1.225906e+004
7.057283e+002, 1.245255e+004
7.062104e+002, 1.265120e+004
7.066925e+002, 1.285257e+004
7.071746e+002, 1.306146e+004
7.076567e+002, 1.328303e+004
7.081389e+002, 1.351612e+004
7.086210e+002, 1.376229e+004
7.091031e+002, 1.402244e+004
7.095852e+002, 1.429719e+004
7.100673e+002, 1.458945e+004
7.105494e+002, 1.489579e+004
7.110316e+002, 1.521614e+004
7.115137e+002, 1.554824e+004
7.119958e+002, 1.589199e+004
7.124779e+002, 1.624471e+004
7.129600e+002, 1.661356e+004
7.134421e+002, 1.700598e+004
7.139243e+002, 1.743451e+004
7.144064e+002, 1.788149e+004
7.148885e+002, 1.833679e+004
7.153706e+002, 1.880787e+004
7.158527e+002, 1.930460e+004
7.163348e+002, 1.982490e+004
7.168170e+002, 2.037328e+004
7.172991e+002, 2.094558e+004
7.177812e+002, 2.154606e+004
7.182633e+002, 2.217125e+004
7.187454e+002, 2.282781e+004
7.192275e+002, 2.349610e+004
7.197097e+002, 2.417349e+004
7.201918e+002, 2.486499e+004
7.206739e+002, 2.559497e+004
7.211560e+002, 2.635399e+004
7.216381e+002, 2.711731e+004
7.221202e+002, 2.786085e+004
7.226024e+002, 2.860777e+004
7.230845e+002, 2.937401e+004
7.235666e+002, 3.016481e+004
7.240487e+002, 3.094321e+004
7.245308e+002, 3.171891e+004
7.250129e+002, 3.248124e+004
7.254951e+002, 3.323040e+004
7.259772e+002, 3.397421e+004
7.264593e+002, 3.466854e+004
7.269414e+002, 3.531393e+004
7.274235e+002, 3.590610e+004
7.279056e+002, 3.645209e+004
7.283878e+002, 3.693931e+004
7.288699e+002, 3.734175e+004
7.293520e+002, 3.765821e+004
7.298341e+002, 3.789836e+004
7.303162e+002, 3.808345e+004
7.307983e+002, 3.818754e+004
7.312805e+002, 3.818808e+004
7.317626e+002, 3.807393e+004
7.322447e+002, 3.786333e+004
7.327268e+002, 3.755682e+004
7.332089e+002, 3.716258e+004
7.336910e+002, 3.668341e+004
7.341732e+002, 3.611136e+004
7.346553e+002, 3.548686e+004
7.351374e+002, 3.481605e+004
7.356195e+002, 3.410569e+004
7.361016e+002, 3.336368e+004
7.365837e+002, 3.259272e+004
7.370659e+002, 3.180068e+004
7.375480e+002, 3.098154e+004
7.380301e+002, 3.015408e+004
7.385122e+002, 2.933409e+004
7.389943e+002, 2.852445e+004
7.394764e+002, 2.773593e+004
7.399586e+002, 2.697813e+004
7.404407e+002, 2.623602e+004
7.409228e+002, 2.549619e+004
7.414049e+002, 2.477149e+004
7.418870e+002, 2.408785e+004
7.423691e+002, 2.346419e+004
7.428513e+002, 2.286481e+004
7.433334e+002, 2.228304e+004
7.438155e+002, 2.172013e+004
7.442976e+002, 2.117830e+004
7.447797e+002, 2.065575e+004
7.452618e+002, 2.015779e+004
7.457440e+002, 1.968056e+004
7.462261e+002, 1.922817e+004
7.467082e+002, 1.879952e+004
7.471903e+002, 1.839604e+004
7.476724e+002, 1.800896e+004
7.481545e+002, 1.762678e+004
7.486367e+002, 1.726825e+004
7.491188e+002, 1.694541e+004
7.496009e+002, 1.665296e+004
7.500830e+002, 1.636123e+004
7.505651e+002, 1.606303e+004
7.510472e+002, 1.577143e+004
7.515294e+002, 1.549299e+004
7.520115e+002, 1.522618e+004
7.524936e+002, 1.497933e+004
7.529757e+002, 1.475138e+004
7.534578e+002, 1.453378e+004
7.539399e+002, 1.432635e+004
7.544221e+002, 1.412693e+004
7.549042e+002, 1.393904e+004
7.553863e+002, 1.376086e+004
7.558684e+002, 1.358829e+004
7.563505e+002, 1.341607e+004
7.568326e+002, 1.324860e+004
7.573148e+002, 1.308779e+004
7.577969e+002, 1.293355e+004
7.582790e+002, 1.278734e+004
7.587611e+002, 1.264816e+004
7.592432e+002, 1.251577e+004
7.597253e+002, 1.239129e+004
7.602075e+002, 1.227369e+004
7.606896e+002, 1.215749e+004
7.611717e+002, 1.204123e+004
7.616538e+002, 1.192655e+004
7.621359e+002, 1.181224e+004
7.626180e+002, 1.169941e+004
7.631002e+002, 1.159173e+004
7.635823e+002, 1.148988e+004
7.640644e+002, 1.139272e+004
7.645465e+002, 1.130094e+004
7.650286e+002, 1.121158e+004
7.655107e+002, 1.112280e+004
7.659929e+002, 1.103241e+004
7.664750e+002, 1.094696e+004
7.669571e+002, 1.086872e+004
7.674392e+002, 1.079120e+004
7.679213e+002, 1.070542e+004
7.684034e+002, 1.061102e+004
7.688856e+002, 1.052923e+004
7.693677e+002, 1.046374e+004
7.698498e+002, 1.040297e+004
7.703319e+002, 1.033303e+004
7.708140e+002, 1.025917e+004
7.712961e+002, 1.019079e+004
7.717783e+002, 1.013116e+004
7.722604e+002, 1.007237e+004
7.727425e+002, 1.000932e+004
7.732246e+002, 9.945627e+003
7.737067e+002, 9.884385e+003
7.741888e+002, 9.827966e+003
7.746710e+002, 9.770640e+003
7.751531e+002, 9.711356e+003
7.756352e+002, 9.652604e+003
7.761173e+002, 9.597463e+003
7.765994e+002, 9.546237e+003
7.770815e+002, 9.496111e+003
7.775637e+002, 9.446439e+003
7.780458e+002, 9.397892e+003
7.785279e+002, 9.351622e+003
7.790100e+002, 9.306990e+003
7.794921e+002, 9.262051e+003
7.799742e+002, 9.213707e+003
7.804564e+002, 9.170905e+003
7.809385e+002, 9.142301e+003
7.814206e+002, 9.119339e+003
7.819027e+002, 9.089934e+003
7.823848e+002, 9.047290e+003
7.828669e+002, 9.010238e+003
7.833491e+002, 8.983139e+003
7.838312e+002, 8.958266e+003
7.843133e+002, 8.921514e+003
7.847954e+002, 8.873788e+003
7.852775e+002, 8.829850e+003
7.857596e+002, 8.792845e+003
7.862418e+002, 8.762526e+003
7.867239e+002, 8.745388e+003
7.872060e+002, 8.733801e+003
7.876881e+002, 8.713031e+003
7.881702e+002, 8.669876e+003
7.886523e+002, 8.628891e+003
7.891345e+002, 8.596669e+003
7.896166e+002, 8.573142e+003
7.900987e+002, 8.557821e+003
7.905808e+002, 8.557366e+003
7.910629e+002, 8.550434e+003
7.915450e+002, 8.532152e+003
7.920272e+002, 8.509045e+003
7.925093e+002, 8.494079e+003
7.929914e+002, 8.486255e+003
7.934735e+002, 8.478704e+003
7.939556e+002, 8.468003e+003
7.944377e+002, 8.459318e+003
7.949199e+002, 8.460999e+003
7.954020e+002, 8.468056e+003
7.958841e+002, 8.471512e+003
7.963662e+002, 8.459449e+003
7.968483e+002, 8.453301e+003
7.973304e+002, 8.461346e+003
7.978126e+002, 8.477613e+003
7.982947e+002, 8.492265e+003
7.987768e+002, 8.504496e+003
7.992589e+002, 8.516999e+003
7.997410e+002, 8.530199e+003
8.002231e+002, 8.544008e+003
8.007053e+002, 8.557896e+003
8.011874e+002, 8.572264e+003
8.016695e+002, 8.588666e+003
8.021516e+002, 8.607210e+003
8.026337e+002, 8.629165e+003
8.031158e+002, 8.656317e+003
8.035980e+002, 8.687643e+003
8.040801e+002, 8.722053e+003
8.045622e+002, 8.754013e+003
8.050443e+002, 8.796249e+003
8.055264e+002, 8.854735e+003
8.060085e+002, 8.922146e+003
8.064907e+002, 8.984302e+003
8.069728e+002, 9.039731e+003
8.074549e+002, 9.099361e+003
8.079370e+002, 9.165124e+003
8.084191e+002, 9.237391e+003
8.089012e+002, 9.318507e+003
8.093834e+002, 9.406537e+003
8.098655e+002, 9.496496e+003
8.103476e+002, 9.585046e+003
8.108297e+002, 9.677244e+003
8.113118e+002, 9.777618e+003
8.117939e+002, 9.882409e+003
8.122761e+002, 9.984750e+003
8.127582e+002, 1.008680e+004
8.132403e+002, 1.018167e+004
8.137224e+002, 1.026699e+004
8.142045e+002, 1.034656e+004
8.146866e+002, 1.043026e+004
8.151688e+002, 1.051660e+004
8.156509e+002, 1.059137e+004
8.161330e+002, 1.064985e+004
8.166151e+002, 1.069825e+004
8.170972e+002, 1.074738e+004
8.175793e+002, 1.079150e+004
8.180615e+002, 1.082087e+004
8.185436e+002, 1.082844e+004
8.190257e+002, 1.082505e+004
8.195078e+002, 1.081703e+004
8.199899e+002, 1.079834e+004
8.204720e+002, 1.076026e+004
8.209542e+002, 1.069763e+004
8.214363e+002, 1.062961e+004
8.219184e+002, 1.055779e+004
8.224005e+002, 1.048202e+004
8.228826e+002, 1.039999e+004
8.233647e+002, 1.031269e+004
8.238469e+002, 1.022888e+004
8.243290e+002, 1.015171e+004
8.248111e+002, 1.007386e+004
8.252932e+002, 9.984475e+003
8.257753e+002, 9.890726e+003
8.262574e+002, 9.804740e+003
8.267396e+002, 9.730843e+003
8.272217e+002, 9.661280e+003
8.277038e+002, 9.594854e+003
8.281859e+002, 9.532047e+003
8.286681e+002, 9.472828e+003
8.291502e+002, 9.418091e+003
8.296323e+002, 9.362171e+003
8.301144e+002, 9.303187e+003
8.305966e+002, 9.247267e+003
8.310787e+002, 9.202620e+003
8.315608e+002, 9.164929e+003
8.320429e+002, 9.124641e+003
8.325250e+002, 9.078502e+003
8.330071e+002, 9.032851e+003
8.334893e+002, 8.988688e+003
8.339714e+002, 8.947145e+003
8.344535e+002, 8.909255e+003
8.349356e+002, 8.878832e+003
8.354177e+002, 8.843611e+003
8.358998e+002, 8.802263e+003
8.363820e+002, 8.759678e+003
8.368641e+002, 8.719947e+003
8.373462e+002, 8.683404e+003
8.378283e+002, 8.649969e+003
8.383104e+002, 8.620218e+003
8.387925e+002, 8.592966e+003
8.392747e+002, 8.566573e+003
8.397568e+002, 8.542285e+003
8.402389e+002, 8.522388e+003
8.407210e+002, 8.509522e+003
8.412031e+002, 8.491947e+003
8.416852e+002, 8.460716e+003
8.421674e+002, 8.429702e+003
8.426495e+002, 8.408708e+003
8.431316e+002, 8.399761e+003
8.436137e+002, 8.385103e+003
8.440958e+002, 8.363982e+003
8.445779e+002, 8.339852e+003
8.450601e+002, 8.313054e+003
8.455422e+002, 8.286449e+003
8.460243e+002, 8.266223e+003
8.465064e+002, 8.253012e+003
8.469885e+002, 8.238702e+003
8.474706e+002, 8.219160e+003
8.479528e+002, 8.197239e+003
8.484349e+002, 8.173173e+003
8.489170e+002, 8.146081e+003
8.493991e+002, 8.128162e+003
8.498812e+002, 8.122817e+003
8.503633e+002, 8.118687e+003
8.508455e+002, 8.110032e+003
8.513276e+002, 8.096847e+003
8.518097e+002, 8.077009e+003
8.522918e+002, 8.050950e+003
8.527739e+002, 8.028553e+003
8.532560e+002, 8.020987e+003
8.537382e+002, 8.015655e+003
8.542203e+002, 8.000410e+003
8.547024e+002, 7.975617e+003
8.551845e+002, 7.954322e+003
8.556666e+002, 7.943885e+003
8.561487e+002, 7.931371e+003
8.566309e+002, 7.911206e+003
8.571130e+002, 7.885731e+003
8.575951e+002, 7.866574e+003
8.580772e+002, 7.853943e+003
8.585593e+002, 7.842157e+003
8.590414e+002, 7.829752e+003
8.595236e+002, 7.815658e+003
8.600057e+002, 7.795799e+003
8.604878e+002, 7.772798e+003
8.609699e+002, 7.754703e+003
8.614520e+002, 7.750587e+003
8.619341e+002, 7.745567e+003
8.624163e+002, 7.730874e+003
8.628984e+002, 7.711519e+003
8.633805e+002, 7.702470e+003
8.638626e+002, 7.707846e+003
8.643447e+002, 7.705487e+003
8.648268e+002, 7.686392e+003
8.653090e+002, 7.661549e+003
8.657911e+002, 7.653897e+003
8.662732e+002, 7.658036e+003
8.667553e+002, 7.658606e+003
8.672374e+002, 7.648667e+003
8.677195e+002, 7.635390e+003
8.682017e+002, 7.621306e+003
8.686838e+002, 7.607016e+003
8.691659e+002, 7.593805e+003
8.696480e+002, 7.581208e+003
8.701301e+002, 7.571306e+003
8.706122e+002, 7.566027e+003
8.710944e+002, 7.561071e+003
8.715765e+002, 7.548367e+003
8.720586e+002, 7.529865e+003
8.725407e+002, 7.517787e+003
8.730228e+002, 7.515991e+003
8.735049e+002, 7.513353e+003
8.739871e+002, 7.495376e+003
8.744692e+002, 7.473596e+003
8.749513e+002, 7.461731e+003
8.754334e+002, 7.468297e+003
8.759155e+002, 7.470294e+003
8.763976e+002, 7.464233e+003
8.768798e+002, 7.455042e+003
8.773619e+002, 7.445544e+003
8.778440e+002, 7.435674e+003
8.783261e+002, 7.428752e+003
8.788082e+002, 7.425014e+003
8.792903e+002, 7.422024e+003
8.797725e+002, 7.419322e+003
8.802546e+002, 7.415165e+003
8.807367e+002, 7.405568e+003
8.812188e+002, 7.390085e+003
8.817009e+002, 7.378659e+003
8.821830e+002, 7.379385e+003
8.826652e+002, 7.380471e+003
8.831473e+002, 7.375383e+003
8.836294e+002, 7.364468e+003
8.841115e+002, 7.360331e+003
8.845936e+002, 7.364278e+003
8.850757e+002, 7.365388e+003
8.855579e+002, 7.352146e+003
8.860400e+002, 7.334264e+003
8.865221e+002, 7.332686e+003
8.870042e+002, 7.343471e+003
8.874863e+002, 7.350248e+003
8.879684e+002, 7.342561e+003
8.884506e+002, 7.331803e+003
8.889327e+002, 7.320810e+003
8.894148e+002, 7.310535e+003
8.898969e+002, 7.304456e+003
8.903790e+002, 7.304378e+003
8.908611e+002, 7.302060e+003
8.913433e+002, 7.294500e+003
8.918254e+002, 7.284858e+003
8.923075e+002, 7.279977e+003
8.927896e+002, 7.278029e+003
8.932717e+002, 7.273492e+003
8.937538e+002, 7.263529e+003
8.942360e+002, 7.251976e+003
8.947181e+002, 7.237633e+003
8.952002e+002, 7.224510e+003
8.956823e+002, 7.219499e+003
8.961644e+002, 7.229291e+003
8.966465e+002, 7.231391e+003
8.971287e+002, 7.221197e+003
8.976108e+002, 7.209779e+003
8.980929e+002, 7.215011e+003
8.985750e+002, 7.231363e+003
8.990571e+002, 7.236075e+003
8.995392e+002, 7.224404e+003
9.000214e+002, 7.212709e+003
9.005035e+002, 7.215339e+003
9.009856e+002, 7.221770e+003
9.014677e+002, 7.222295e+003
9.019498e+002, 7.213096e+003
9.024319e+002, 7.206424e+003
9.029141e+002, 7.201917e+003
9.033962e+002, 7.200442e+003
9.038783e+002, 7.204322e+003
9.043604e+002, 7.212342e+003
9.048425e+002, 7.214639e+003
9.053246e+002, 7.211533e+003
9.058068e+002, 7.208513e+003
9.062889e+002, 7.211483e+003
9.067710e+002, 7.214295e+003
9.072531e+002, 7.211982e+003
9.077352e+002, 7.204837e+003
9.082173e+002, 7.196400e+003
9.086995e+002, 7.184305e+003
9.091816e+002, 7.175827e+003
9.096637e+002, 7.173867e+003
9.101458e+002, 7.176663e+003
9.106279e+002, 7.179709e+003
9.111100e+002, 7.182845e+003
9.115922e+002, 7.184188e+003
9.120743e+002, 7.181519e+003
9.125564e+002, 7.179042e+003
9.130385e+002, 7.180961e+003
9.135206e+002, 7.185815e+003
9.140027e+002, 7.191112e+003
9.144849e+002, 7.198199e+003
9.149670e+002, 7.202755e+003
9.154491e+002, 7.203743e+003
9.159312e+002, 7.202853e+003
9.164133e+002, 7.201407e+003
9.168954e+002, 7.199521e+003
9.173776e+002, 7.200690e+003
9.178597e+002, 7.205689e+003
9.183418e+002, 7.210832e+003
9.188239e+002, 7.211986e+003
9.193060e+002, 7.211714e+003
9.197881e+002, 7.212833e+003
9.202703e+002, 7.215986e+003
9.207524e+002, 7.219315e+003
9.212345e+002, 7.222911e+003
9.217166e+002, 7.226069e+003
9.221987e+002, 7.228095e+003
9.226808e+002, 7.229168e+003
9.231630e+002, 7.232067e+003
9.236451e+002, 7.236889e+003
9.241272e+002, 7.241860e+003
9.246093e+002, 7.247244e+003
9.250914e+002, 7.251319e+003
9.255735e+002, 7.250812e+003
9.260557e+002, 7.247034e+003
9.265378e+002, 7.245862e+003
9.270199e+002, 7.250654e+003
9.275020e+002, 7.255968e+003
9.279841e+002, 7.259619e+003
9.284662e+002, 7.263599e+003
9.289484e+002, 7.274182e+003
9.294305e+002, 7.290897e+003
9.299126e+002, 7.306661e+003
9.303947e+002, 7.319194e+003
9.308768e+002, 7.329544e+003
9.313589e+002, 7.337146e+003
9.318411e+002, 7.343637e+003
9.323232e+002, 7.351395e+003
9.328053e+002, 7.362720e+003
9.332874e+002, 7.372339e+003
9.337695e+002, 7.378082e+003
9.342516e+002, 7.384250e+003
9.347338e+002, 7.395335e+003
9.352159e+002, 7.411337e+003
9.356980e+002, 7.427315e+003
9.361801e+002, 7.443074e+003
9.366622e+002, 7.458363e+003
9.371443e+002, 7.471133e+003
9.376265e+002, 7.484568e+003
9.381086e+002, 7.502545e+003
9.385907e+002, 7.525553e+003
9.390728e+002, 7.546268e+003
9.395549e+002, 7.559905e+003
9.400370e+002, 7.575829e+003
9.405192e+002, 7.598287e+003
9.410013e+002, 7.625382e+003
9.414834e+002, 7.647305e+003
9.419655e+002, 7.664927e+003
9.424476e+002, 7.686093e+003
9.429297e+002, 7.720515e+003
9.434119e+002, 7.753912e+003
9.438940e+002, 7.769116e+003
9.443761e+002, 7.774983e+003
9.448582e+002, 7.789674e+003
9.453403e+002, 7.824981e+003
9.458224e+002, 7.857535e+003
9.463046e+002, 7.883789e+003
9.467867e+002, 7.908792e+003
9.472688e+002, 7.938892e+003
9.477509e+002, 7.973851e+003
9.482330e+002, 8.012264e+003
9.487151e+002, 8.054235e+003
9.491973e+002, 8.096622e+003
9.496794e+002, 8.132954e+003
9.501615e+002, 8.170884e+003
9.506436e+002, 8.218845e+003
9.511257e+002, 8.280307e+003
9.516078e+002, 8.336926e+003
9.520900e+002, 8.385188e+003
9.525721e+002, 8.435065e+003
9.530542e+002, 8.492514e+003
9.535363e+002, 8.556198e+003
9.540184e+002, 8.619479e+003
9.545005e+002, 8.682877e+003
9.549827e+002, 8.752359e+003
9.554648e+002, 8.831915e+003
9.559469e+002, 8.918059e+003
9.564290e+002, 9.009254e+003
9.569111e+002, 9.106015e+003
9.573932e+002, 9.207659e+003
9.578754e+002, 9.314734e+003
9.583575e+002, 9.426169e+003
9.588396e+002, 9.540464e+003
9.593217e+002, 9.659489e+003
9.598038e+002, 9.785892e+003
9.602859e+002, 9.917540e+003
9.607681e+002, 1.004618e+004
9.612502e+002, 1.016787e+004
9.617323e+002, 1.029658e+004
9.622144e+002, 1.044225e+004
9.626965e+002, 1.059658e+004
9.631786e+002, 1.075391e+004
9.636608e+002, 1.091343e+004
9.641429e+002, 1.107092e+004
9.646250e+002, 1.122466e+004
9.651071e+002, 1.137849e+004
9.655892e+002, 1.154474e+004
9.660714e+002, 1.170784e+004
9.665535e+002, 1.184905e+004
9.670356e+002, 1.196581e+004
9.675177e+002, 1.205396e+004
9.679998e+002, 1.213164e+004
9.684819e+002, 1.215659e+004
9.689641e+002, 1.211032e+004
9.694462e+002, 1.200260e+004
9.699283e+002, 1.184621e+004
9.704104e+002, 1.163884e+004
9.708925e+002, 1.140663e+004
9.713746e+002, 1.114930e+004
9.718568e+002, 1.088211e+004
9.723389e+002, 1.060649e+004
9.728210e+002, 1.033575e+004
9.733031e+002, 1.008891e+004
9.737852e+002, 9.874212e+003
9.742673e+002, 9.673865e+003
9.747495e+002, 9.479849e+003
9.752316e+002, 9.300604e+003
9.757137e+002, 9.143776e+003
9.761958e+002, 9.008073e+003
9.766779e+002, 8.878053e+003
9.771600e+002, 8.753220e+003
9.776422e+002, 8.638891e+003
9.781243e+002, 8.542065e+003
9.786064e+002, 8.451334e+003
9.790885e+002, 8.354282e+003
9.795706e+002, 8.253621e+003
9.800527e+002, 8.161314e+003
9.805349e+002, 8.080665e+003
9.810170e+002, 8.006847e+003
9.814991e+002, 7.939621e+003
9.819812e+002, 7.877154e+003
9.824633e+002, 7.815292e+003
9.829454e+002, 7.754918e+003
9.834276e+002, 7.700220e+003
9.839097e+002, 7.652657e+003
9.843918e+002, 7.607286e+003
9.848739e+002, 7.557173e+003
9.853560e+002, 7.509027e+003
9.858381e+002, 7.470477e+003
9.863203e+002, 7.443799e+003
9.868024e+002, 7.416767e+003
9.872845e+002, 7.389234e+003
9.877666e+002, 7.361828e+003
9.882487e+002, 7.333548e+003
9.887308e+002, 7.306252e+003
9.892130e+002, 7.284526e+003
9.896951e+002, 7.267610e+003
9.901772e+002, 7.250563e+003
9.906593e+002, 7.227555e+003
9.911414e+002, 7.207983e+003
9.916235e+002, 7.198238e+003
9.921057e+002, 7.193349e+003
9.925878e+002, 7.181826e+003
9.930699e+002, 7.162607e+003
9.935520e+002, 7.147838e+003
9.940341e+002, 7.140397e+003
9.945162e+002, 7.135735e+003
9.949984e+002, 7.130014e+003
9.954805e+002, 7.123017e+003
9.959626e+002, 7.113912e+003
9.964447e+002, 7.101373e+003
9.969268e+002, 7.091329e+003
9.974089e+002, 7.085461e+003
9.978911e+002, 7.081274e+003
9.983732e+002, 7.078227e+003
9.988553e+002, 7.075958e+003
9.993374e+002, 7.071078e+003
9.998195e+002, 7.063778e+003
1.000302e+003, 7.055440e+003
1.000784e+003, 7.044552e+003
1.001266e+003, 7.035168e+003
1.001748e+003, 7.031144e+003
1.002230e+003, 7.030681e+003
1.002712e+003, 7.028853e+003
1.003194e+003, 7.024293e+003
1.003676e+003, 7.021312e+003
1.004159e+003, 7.020928e+003
1.004641e+003, 7.020926e+003
1.005123e+003, 7.016912e+003
1.005605e+003, 7.011148e+003
1.006087e+003, 7.010212e+003
1.006569e+003, 7.015799e+003
1.007051e+003, 7.018439e+003
1.007533e+003, 7.010107e+003
1.008016e+003, 7.000694e+003
1.008498e+003, 6.996104e+003
1.008980e+003, 6.996001e+003
1.009462e+003, 6.994647e+003
1.009944e+003, 6.992040e+003
1.010426e+003, 6.987679e+003
1.010908e+003, 6.979514e+003
1.011390e+003, 6.971757e+003
1.011872e+003, 6.970326e+003
1.012355e+003, 6.972994e+003
1.012837e+003, 6.975171e+003
1.013319e+003, 6.978520e+003
1.013801e+003, 6.976765e+003
1.014283e+003, 6.967626e+003
1.014765e+003, 6.956225e+003
1.015247e+003, 6.946987e+003
1.015729e+003, 6.940130e+003
1.016211e+003, 6.938946e+003
1.016694e+003, 6.943636e+003
1.017176e+003, 6.946021e+003
1.017658e+003, 6.934206e+003
1.018140e+003, 6.923523e+003
1.018622e+003, 6.927985e+003
1.019104e+003, 6.945276e+003
1.019586e+003, 6.951083e+003
1.020068e+003, 6.942374e+003
1.020551e+003, 6.934423e+003
1.021033e+003, 6.931724e+003
1.021515e+003, 6.932712e+003
1.021997e+003, 6.936741e+003
1.022479e+003, 6.942127e+003
1.022961e+003, 6.945318e+003
1.023443e+003, 6.943134e+003
1.023925e+003, 6.943399e+003
1.024407e+003, 6.949674e+003
1.024890e+003, 6.957352e+003
1.025372e+003, 6.964251e+003
1.025854e+003, 6.970299e+003
1.026336e+003, 6.969906e+003
1.026818e+003, 6.963177e+003
1.027300e+003, 6.956214e+003
1.027782e+003, 6.953188e+003
1.028264e+003, 6.951534e+003
1.028746e+003, 6.949183e+003
1.029229e+003, 6.946500e+003
1.029711e+003, 6.944951e+003
1.030193e+003, 6.944478e+003
1.030675e+003, 6.944954e+003
1.031157e+003, 6.945425e+003
1.031639e+003, 6.949016e+003
1.032121e+003, 6.966175e+003
1.032603e+003, 6.988890e+003
1.033086e+003, 6.996081e+003
1.033568e+003, 6.982041e+003
1.034050e+003, 6.970243e+003
1.034532e+003, 6.973700e+003
1.035014e+003, 6.979794e+003
1.035496e+003, 6.982237e+003
1.035978e+003, 6.981104e+003
1.036460e+003, 6.976379e+003
1.036943e+003, 6.968214e+003
1.037425e+003, 6.962022e+003
1.037907e+003, 6.962028e+003
1.038389e+003, 6.963267e+003
1.038871e+003, 6.958945e+003
1.039353e+003, 6.953120e+003
1.039835e+003, 6.953170e+003
1.040317e+003, 6.965208e+003
1.040799e+003, 6.974303e+003
1.041281e+003, 6.980244e+003
1.041764e+003, 6.983049e+003
1.042246e+003, 6.981476e+003
1.042728e+003, 6.977023e+003
1.043210e+003, 6.973857e+003
1.043692e+003, 6.972014e+003
1.044174e+003, 6.969446e+003
1.044656e+003, 6.963546e+003
1.045138e+003, 6.958314e+003
1.045621e+003, 6.955071e+003
1.046103e+003, 6.953819e+003
1.046585e+003, 6.955638e+003
1.047067e+003, 6.960662e+003
1.047549e+003, 6.963608e+003
1.048031e+003, 6.963069e+003
1.048513e+003, 6.960760e+003
1.048995e+003, 6.956470e+003
1.049478e+003, 6.952560e+003
1.049960e+003, 6.952099e+003
1.050442e+003, 6.956959e+003
1.050924e+003, 6.960176e+003
1.051406e+003, 6.961248e+003
1.051888e+003, 6.961563e+003
1.052370e+003, 6.959815e+003
1.052852e+003, 6.958801e+003
1.053334e+003, 6.969208e+003
1.053817e+003, 6.987170e+003
1.054299e+003, 7.000053e+003
1.054781e+003, 6.998031e+003
1.055263e+003, 6.994856e+003
1.055745e+003, 6.993084e+003
1.056227e+003, 6.993069e+003
1.056709e+003, 6.996342e+003
1.057191e+003, 7.002960e+003
1.057673e+003, 7.006284e+003
1.058156e+003, 7.005786e+003
1.058638e+003, 7.003357e+003
1.059120e+003, 6.996430e+003
1.059602e+003, 6.991673e+003
1.060084e+003, 6.998081e+003
1.060566e+003, 7.014158e+003
1.061048e+003, 7.021167e+003
1.061530e+003, 7.016750e+003
1.062013e+003, 7.008656e+003
1.062495e+003, 6.997095e+003
1.062977e+003, 6.986625e+003
1.063459e+003, 6.987352e+003
1.063941e+003, 6.993822e+003
1.064423e+003, 6.994539e+003
1.064905e+003, 6.984634e+003
1.065387e+003, 6.977552e+003
1.065870e+003, 6.977344e+003
1.066352e+003, 6.981342e+003
1.066834e+003, 6.989890e+003
1.067316e+003, 7.001810e+003
1.067798e+003, 7.008397e+003
1.068280e+003, 7.010117e+003
1.068762e+003, 7.011501e+003
1.069244e+003, 7.015872e+003
1.069726e+003, 7.019560e+003
1.070208e+003, 7.018694e+003
1.070691e+003, 7.016110e+003
1.071173e+003, 7.016674e+003
1.071655e+003, 7.021875e+003
1.072137e+003, 7.025486e+003
1.072619e+003, 7.027478e+003
1.073101e+003, 7.026889e+003
1.073583e+003, 7.017999e+003
1.074065e+003, 7.009053e+003
1.074548e+003, 7.014358e+003
1.075030e+003, 7.032053e+003
1.075512e+003, 7.042747e+003
1.075994e+003, 7.035682e+003
1.076476e+003, 7.030511e+003
1.076958e+003, 7.032713e+003
1.077440e+003, 7.036843e+003
1.077922e+003, 7.029998e+003
1.078405e+003, 7.016499e+003
1.078887e+003, 7.011256e+003
1.079369e+003, 7.018411e+003
1.079851e+003, 7.026226e+003
1.080333e+003, 7.029112e+003
1.080815e+003, 7.029937e+003
1.081297e+003, 7.030267e+003
1.081779e+003, 7.030186e+003
1.082261e+003, 7.030022e+003
1.082744e+003, 7.029767e+003
1.083226e+003, 7.031541e+003
1.083708e+003, 7.038631e+003
1.084190e+003, 7.044361e+003
1.084672e+003, 7.039065e+003
1.085154e+003, 7.029658e+003
1.085636e+003, 7.026801e+003
1.086118e+003, 7.034963e+003
1.086601e+003, 7.041978e+003
1.087083e+003, 7.048624e+003
1.087565e+003, 7.051454e+003
1.088047e+003, 7.045668e+003
1.088529e+003, 7.035386e+003
1.089011e+003, 7.026813e+003
1.089493e+003, 7.020224e+003
1.089975e+003, 7.015489e+003
1.090458e+003, 7.014904e+003
1.090940e+003, 7.013368e+003
1.091422e+003, 7.009591e+003
1.091904e+003, 7.005115e+003
1.092386e+003, 7.002157e+003
1.092868e+003, 7.000508e+003
1.093350e+003, 6.999504e+003
1.093832e+003, 6.999042e+003
1.094314e+003, 6.998529e+003
1.094797e+003, 6.995894e+003
1.095279e+003, 6.994646e+003
1.095761e+003, 6.996975e+003
1.096243e+003, 7.002261e+003
1.096725e+003, 7.009275e+003
1.097207e+003, 7.018036e+003
1.097689e+003, 7.025522e+003
1.098171e+003, 7.031039e+003
1.098653e+003, 7.034247e+003
1.099136e+003, 7.033740e+003
1.099618e+003, 7.031363e+003
1.100100e+003, 7.029206e+003
1.100582e+003, 7.027710e+003
1.101064e+003, 7.025000e+003
1.101546e+003, 7.020470e+003
1.102028e+003, 7.016460e+003
1.102510e+003, 7.012951e+003
1.102993e+003, 7.011746e+003
1.103475e+003, 7.020416e+003
1.103957e+003, 7.033446e+003
1.104439e+003, 7.038284e+003
1.104921e+003, 7.023055e+003
1.105403e+003, 7.010285e+003
1.105885e+003, 7.002452e+003
1.106367e+003, 6.997161e+003
1.106849e+003, 6.993320e+003
1.107332e+003, 6.990308e+003
1.107814e+003, 6.984406e+003
1.108296e+003, 6.976118e+003
1.108778e+003, 6.970205e+003
1.109260e+003, 6.973476e+003
1.109742e+003, 6.974796e+003
1.110224e+003, 6.967458e+003
1.110706e+003, 6.956866e+003
1.111188e+003, 6.952132e+003
1.111671e+003, 6.953092e+003
1.112153e+003, 6.954478e+003
1.112635e+003, 6.955841e+003
1.113117e+003, 6.955187e+003
1.113599e+003, 6.946787e+003
1.114081e+003, 6.939128e+003
1.114563e+003, 6.940164e+003
1.115045e+003, 6.949115e+003
1.115528e+003, 6.957405e+003
1.116010e+003, 6.965048e+003
1.116492e+003, 6.971193e+003
1.116974e+003, 6.974454e+003
1.117456e+003, 6.978532e+003
1.117938e+003, 6.991162e+003
1.118420e+003, 7.005643e+003
1.118902e+003, 7.012428e+003
1.119385e+003, 7.006937e+003
1.119867e+003, 7.004894e+003
1.120349e+003, 7.007619e+003
1.120831e+003, 7.011258e+003
1.121313e+003, 7.015466e+003
1.121795e+003, 7.017729e+003
1.122277e+003, 7.010206e+003
1.122759e+003, 6.996827e+003
1.123241e+003, 6.986988e+003
1.123724e+003, 6.986954e+003
1.124206e+003, 6.986359e+003
1.124688e+003, 6.984264e+003
1.125170e+003, 6.981134e+003
1.125652e+003, 6.977735e+003
1.126134e+003, 6.973978e+003
1.126616e+003, 6.966886e+003
1.127098e+003, 6.957616e+003
1.127580e+003, 6.952492e+003
1.128063e+003, 6.960979e+003
1.128545e+003, 6.967237e+003
1.129027e+003, 6.961266e+003
1.129509e+003, 6.951729e+003
1.129991e+003, 6.950491e+003
1.130473e+003, 6.957179e+003
1.130955e+003, 6.961572e+003
1.131437e+003, 6.962618e+003
1.131920e+003, 6.963099e+003
1.132402e+003, 6.962894e+003
1.132884e+003, 6.964677e+003
1.133366e+003, 6.972951e+003
1.133848e+003, 6.984658e+003
1.134330e+003, 6.988264e+003
1.134812e+003, 6.982243e+003
1.135294e+003, 6.981332e+003
1.135776e+003, 6.989611e+003
1.136259e+003, 6.998354e+003
1.136741e+003, 6.996992e+003
1.137223e+003, 6.992512e+003
1.137705e+003, 6.992399e+003
1.138187e+003, 6.997781e+003
1.138669e+003, 7.001857e+003
1.139151e+003, 7.004545e+003
1.139633e+003, 7.006232e+003
1.140115e+003, 7.007469e+003
1.140598e+003, 7.006950e+003
1.141080e+003, 6.998777e+003
1.141562e+003, 6.989064e+003
1.142044e+003, 6.988495e+003
1.142526e+003, 7.003561e+003
1.143008e+003, 7.013096e+003
1.143490e+003, 7.014914e+003
1.143972e+003, 7.012703e+003
1.144455e+003, 7.006508e+003
1.144937e+003, 6.999185e+003
1.145419e+003, 6.997825e+003
1.145901e+003, 7.000867e+003
1.146383e+003, 7.004472e+003
1.146865e+003, 7.012460e+003
1.147347e+003, 7.011163e+003
1.147829e+003, 6.991771e+003
1.148312e+003, 6.973268e+003
1.148794e+003, 6.972984e+003
1.149276e+003, 6.986776e+003
1.149758e+003, 6.995875e+003
1.150240e+003, 7.000354e+003
1.150722e+003, 7.001390e+003
1.151204e+003, 6.997322e+003
1.151686e+003, 6.992548e+003
1.152168e+003, 6.985716e+003
1.152651e+003, 6.981325e+003
1.153133e+003, 6.987721e+003
1.153615e+003, 7.003149e+003
1.154097e+003, 7.007379e+003
1.154579e+003, 6.999538e+003
1.155061e+003, 6.993059e+003
1.155543e+003, 6.999271e+003
1.156025e+003, 7.006392e+003
1.156507e+003, 7.007192e+003
1.156990e+003, 7.004587e+003
1.157472e+003, 7.004006e+003
1.157954e+003, 7.005437e+003
1.158436e+003, 7.006497e+003
1.158918e+003, 7.006784e+003
1.159400e+003, 7.007388e+003
1.159882e+003, 7.010196e+003
1.160364e+003, 7.012813e+003
1.160847e+003, 7.013340e+003
1.161329e+003, 7.011994e+003
1.161811e+003, 7.009522e+003
1.162293e+003, 7.005664e+003
1.162775e+003, 7.004610e+003
1.163257e+003, 7.008256e+003
1.163739e+003, 7.011583e+003
1.164221e+003, 7.009725e+003
1.164703e+003, 7.004933e+003
1.165186e+003, 6.998599e+003
1.165668e+003, 6.990916e+003
1.166150e+003, 6.985899e+003
1.166632e+003, 6.983829e+003
1.167114e+003, 6.983786e+003
1.167596e+003, 6.986182e+003
1.168078e+003, 6.989094e+003
1.168560e+003, 6.988732e+003
1.169042e+003, 6.988009e+003
1.169525e+003, 6.991487e+003
1.170007e+003, 7.001844e+003
1.170489e+003, 7.008046e+003
1.170971e+003, 7.008803e+003
1.171453e+003, 7.009943e+003
1.171935e+003, 7.014234e+003
1.172417e+003, 7.020726e+003
1.172899e+003, 7.029447e+003
1.173382e+003, 7.038751e+003
1.173864e+003, 7.045573e+003
1.174346e+003, 7.048268e+003
1.174828e+003, 7.049353e+003
1.175310e+003, 7.048350e+003
1.175792e+003, 7.046749e+003
1.176274e+003, 7.045224e+003
1.176756e+003, 7.043980e+003
1.177239e+003, 7.044440e+003
1.177721e+003, 7.045487e+003
1.178203e+003, 7.044213e+003
1.178685e+003, 7.037033e+003
1.179167e+003, 7.032060e+003
1.179649e+003, 7.030657e+003
1.180131e+003, 7.030199e+003
1.180613e+003, 7.028656e+003
1.181095e+003, 7.026338e+003
1.181578e+003, 7.022685e+003
1.182060e+003, 7.018556e+003
1.182542e+003, 7.017329e+003
1.183024e+003, 7.024670e+003
1.183506e+003, 7.028409e+003
1.183988e+003, 7.025280e+003
1.184470e+003, 7.020942e+003
1.184952e+003, 7.022640e+003
1.185434e+003, 7.028105e+003
1.185917e+003, 7.031917e+003
1.186399e+003, 7.033687e+003
1.186881e+003, 7.034415e+003
1.187363e+003, 7.032232e+003
1.187845e+003, 7.031663e+003
1.188327e+003, 7.033075e+003
1.188809e+003, 7.036997e+003
1.189291e+003, 7.045789e+003
1.189774e+003, 7.057623e+003
1.190256e+003, 7.068714e+003
1.190738e+003, 7.078474e+003
1.191220e+003, 7.081461e+003
1.191702e+003, 7.067790e+003
1.192184e+003, 7.056462e+003
1.192666e+003, 7.054022e+003
1.193148e+003, 7.056598e+003
1.193630e+003, 7.056228e+003
1.194113e+003, 7.054341e+003
1.194595e+003, 7.056323e+003
1.195077e+003, 7.063589e+003
1.195559e+003, 7.069606e+003
1.196041e+003, 7.075086e+003
1.196523e+003, 7.073292e+003
1.197005e+003, 7.057306e+003
1.197487e+003, 7.036034e+003
1.197969e+003, 7.037092e+003
1.198452e+003, 7.054099e+003
1.198934e+003, 7.062743e+003
1.199416e+003, 7.055334e+003
1.199898e+003, 7.048826e+003
1.200380e+003, 7.053728e+003
1.200862e+003, 7.057936e+003
1.201344e+003, 7.054600e+003
1.201826e+003, 7.046662e+003
1.202309e+003, 7.045241e+003
1.202791e+003, 7.048988e+003
1.203273e+003, 7.052724e+003
1.203755e+003, 7.055112e+003
1.204237e+003, 7.057063e+003
1.204719e+003, 7.061694e+003
1.205201e+003, 7.063190e+003
1.205683e+003, 7.057218e+003
1.206166e+003, 7.045857e+003
1.206648e+003, 7.037008e+003
1.207130e+003, 7.030781e+003
1.207612e+003, 7.027053e+003
1.208094e+003, 7.025735e+003
1.208576e+003, 7.027171e+003
1.209058e+003, 7.035054e+003
1.209540e+003, 7.042210e+003
1.210022e+003, 7.043416e+003
1.210505e+003, 7.039790e+003
1.210987e+003, 7.038116e+003
1.211469e+003, 7.038203e+003
1.211951e+003, 7.039292e+003
1.212433e+003, 7.039667e+003
1.212915e+003, 7.043209e+003
1.213397e+003, 7.055268e+003
1.213879e+003, 7.067131e+003
1.214361e+003, 7.072498e+003
1.214844e+003, 7.071844e+003
1.215326e+003, 7.065925e+003
1.215808e+003, 7.056548e+003
1.216290e+003, 7.052795e+003
1.216772e+003, 7.064252e+003
1.217254e+003, 7.075304e+003
1.217736e+003, 7.083604e+003
1.218218e+003, 7.087079e+003
1.218701e+003, 7.081151e+003
1.219183e+003, 7.067895e+003
1.219665e+003, 7.060932e+003
1.220147e+003, 7.060000e+003
1.220629e+003, 7.062302e+003
1.221111e+003, 7.071237e+003
1.221593e+003, 7.077119e+003
1.222075e+003, 7.077468e+003
1.222557e+003, 7.073944e+003
1.223040e+003, 7.066925e+003
1.223522e+003, 7.057311e+003
1.224004e+003, 7.048818e+003
1.224486e+003, 7.041744e+003
1.224968e+003, 7.036967e+003
1.225450e+003, 7.034349e+003
1.225932e+003, 7.035222e+003
1.226414e+003, 7.040437e+003
1.226896e+003, 7.047834e+003
1.227379e+003, 7.056825e+003
1.227861e+003, 7.065704e+003
1.228343e+003, 7.067479e+003
1.228825e+003, 7.062750e+003
1.229307e+003, 7.058053e+003
1.229789e+003, 7.056434e+003
1.230271e+003, 7.055067e+003
1.230753e+003, 7.053728e+003
1.231236e+003, 7.051731e+003
1.231718e+003, 7.047861e+003
1.232200e+003, 7.042814e+003
1.232682e+003, 7.037979e+003
1.233164e+003, 7.033706e+003
1.233646e+003, 7.031419e+003
1.234128e+003, 7.032703e+003
1.234610e+003, 7.035315e+003
1.235093e+003, 7.039826e+003
1.235575e+003, 7.043714e+003
1.236057e+003, 7.041888e+003
1.236539e+003, 7.037339e+003
1.237021e+003, 7.036479e+003
1.237503e+003, 7.039713e+003
1.237985e+003, 7.045366e+003
1.238467e+003, 7.055320e+003
1.238949e+003, 7.064128e+003
1.239432e+003, 7.071547e+003
1.239914e+003, 7.076049e+003
1.240396e+003, 7.070836e+003
1.240878e+003, 7.063108e+003
1.241360e+003, 7.069861e+003
1.241842e+003, 7.090945e+003
1.242324e+003, 7.101930e+003
1.242806e+003, 7.092868e+003
1.243288e+003, 7.084248e+003
1.243771e+003, 7.078981e+003
1.244253e+003, 7.077687e+003
1.244735e+003, 7.084532e+003
1.245217e+003, 7.093999e+003
1.245699e+003, 7.096428e+003
1.246181e+003, 7.091541e+003
1.246663e+003, 7.091604e+003
1.247145e+003, 7.099799e+003
1.247628e+003, 7.106599e+003
1.248110e+003, 7.109757e+003
1.248592e+003, 7.111967e+003
1.249074e+003, 7.118985e+003
1.249556e+003, 7.125420e+003
1.250038e+003, 7.122945e+003
1.250520e+003, 7.111641e+003
1.251002e+003, 7.106146e+003
1.251484e+003, 7.108076e+003
1.251967e+003, 7.111206e+003
1.252449e+003, 7.114718e+003
1.252931e+003, 7.116785e+003
1.253413e+003, 7.114981e+003
1.253895e+003, 7.111064e+003
1.254377e+003, 7.105375e+003
1.254859e+003, 7.098640e+003
1.255341e+003, 7.096818e+003
1.255823e+003, 7.100270e+003
1.256306e+003, 7.105599e+003
1.256788e+003, 7.112454e+003
1.257270e+003, 7.118216e+003
1.257752e+003, 7.118822e+003
1.258234e+003, 7.118489e+003
1.258716e+003, 7.121781e+003
1.259198e+003, 7.127611e+003
1.259680e+003, 7.130141e+003
1.260163e+003, 7.129353e+003
1.260645e+003, 7.126310e+003
1.261127e+003, 7.120880e+003
1.261609e+003, 7.115739e+003
1.262091e+003, 7.113624e+003
1.262573e+003, 7.112021e+003
1.263055e+003, 7.110070e+003
1.263537e+003, 7.107099e+003
1.264020e+003, 7.097598e+003
1.264502e+003, 7.083424e+003
1.264984e+003, 7.080850e+003
1.265466e+003, 7.095367e+003
1.265948e+003, 7.108638e+003
1.266430e+003, 7.108788e+003
1.266912e+003, 7.105633e+003
1.267394e+003, 7.103134e+003
1.267876e+003, 7.101884e+003
1.268359e+003, 7.105092e+003
1.268841e+003, 7.110983e+003
1.269323e+003, 7.112662e+003
1.269805e+003, 7.108152e+003
1.270287e+003, 7.103508e+003
1.270769e+003, 7.101826e+003
1.271251e+003, 7.099569e+003
1.271733e+003, 7.094931e+003
1.272215e+003, 7.089795e+003
1.272698e+003, 7.088870e+003
1.273180e+003, 7.090586e+003
1.273662e+003, 7.091011e+003
1.274144e+003, 7.089161e+003
1.274626e+003, 7.089903e+003
1.275108e+003, 7.095334e+003
1.275590e+003, 7.101248e+003
1.276072e+003, 7.106834e+003
1.276555e+003, 7.111145e+003
1.277037e+003, 7.112889e+003
1.277519e+003, 7.111971e+003
1.278001e+003, 7.106425e+003
1.278483e+003, 7.095353e+003
1.278965e+003, 7.092025e+003
1.279447e+003, 7.099274e+003
1.279929e+003, 7.104618e+003
1.280411e+003, 7.103041e+003
1.280894e+003, 7.101099e+003
1.281376e+003, 7.110326e+003
1.281858e+003, 7.121346e+003
1.282340e+003, 7.121291e+003
1.282822e+003, 7.109893e+003
1.283304e+003, 7.108451e+003
1.283786e+003, 7.118284e+003
1.284268e+003, 7.123750e+003
1.284750e+003, 7.119955e+003
1.285233e+003, 7.114011e+003
1.285715e+003, 7.112959e+003
1.286197e+003, 7.112404e+003
1.286679e+003, 7.108131e+003
1.287161e+003, 7.101291e+003
1.287643e+003, 7.096628e+003
1.288125e+003, 7.094118e+003
1.288607e+003, 7.092652e+003
1.289090e+003, 7.092160e+003
1.289572e+003, 7.091947e+003
1.290054e+003, 7.090045e+003
1.290536e+003, 7.090417e+003
1.291018e+003, 7.096238e+003
1.291500e+003, 7.104615e+003
1.291982e+003, 7.106316e+003
1.292464e+003, 7.103521e+003
1.292947e+003, 7.104894e+003
1.293429e+003, 7.112560e+003
1.293911e+003, 7.118910e+003
1.294393e+003, 7.120552e+003
1.294875e+003, 7.119907e+003
1.295357e+003, 7.115834e+003
1.295839e+003, 7.111670e+003
1.296321e+003, 7.115447e+003
1.296803e+003, 7.124325e+003
1.297286e+003, 7.133949e+003
1.297768e+003, 7.143763e+003
1.298250e+003, 7.147086e+003
1.298732e+003, 7.141033e+003
1.299214e+003, 7.135150e+003
1.299696e+003, 7.132411e+003
1.300178e+003, 7.130391e+003
1.300660e+003, 7.129083e+003
##END=



