##NAMES=Margarosanite
##RRUFFID=R120111
##IDEAL CHEMISTRY=Ca_2_Pb^2+^Si_3_O_9_
##LOCALITY=Parker shaft, Franklin, New Jersey, USA
##OWNER=RRUFF
##SOURCE=Caltech  
##DESCRIPTION=Pearly, colorless cleavages
##STATUS=The identification of this mineral has been confirmed by single-crystal X-ray diffraction.
##URL=rruff.info/R120111
9.001007e+001, 0.000000e+000
9.049219e+001, 1.802088e+002
9.097430e+001, 1.808141e+002
9.145642e+001, 1.806390e+002
9.193854e+001, 1.797558e+002
9.242065e+001, 1.787654e+002
9.290277e+001, 1.781538e+002
9.338489e+001, 1.777978e+002
9.386700e+001, 1.773919e+002
9.434912e+001, 1.764462e+002
9.483124e+001, 1.754993e+002
9.531335e+001, 1.762539e+002
9.579547e+001, 1.789867e+002
9.627759e+001, 1.814286e+002
9.675970e+001, 1.805452e+002
9.724182e+001, 1.765471e+002
9.772394e+001, 1.723874e+002
9.820605e+001, 1.687847e+002
9.868817e+001, 1.658181e+002
9.917029e+001, 1.650824e+002
9.965240e+001, 1.674007e+002
1.001345e+002, 1.706161e+002
1.006166e+002, 1.700992e+002
1.010988e+002, 1.650434e+002
1.015809e+002, 1.597534e+002
1.020630e+002, 1.567605e+002
1.025451e+002, 1.566301e+002
1.030272e+002, 1.557822e+002
1.035093e+002, 1.536726e+002
1.039915e+002, 1.507115e+002
1.044736e+002, 1.485684e+002
1.049557e+002, 1.475505e+002
1.054378e+002, 1.469338e+002
1.059199e+002, 1.462402e+002
1.064020e+002, 1.453783e+002
1.068842e+002, 1.446020e+002
1.073663e+002, 1.439905e+002
1.078484e+002, 1.435532e+002
1.083305e+002, 1.429539e+002
1.088126e+002, 1.421703e+002
1.092947e+002, 1.412405e+002
1.097769e+002, 1.401994e+002
1.102590e+002, 1.390872e+002
1.107411e+002, 1.378219e+002
1.112232e+002, 1.362623e+002
1.117053e+002, 1.342399e+002
1.121874e+002, 1.326822e+002
1.126696e+002, 1.320112e+002
1.131517e+002, 1.317572e+002
1.136338e+002, 1.313122e+002
1.141159e+002, 1.305866e+002
1.145980e+002, 1.296578e+002
1.150801e+002, 1.284696e+002
1.155623e+002, 1.268205e+002
1.160444e+002, 1.254098e+002
1.165265e+002, 1.246704e+002
1.170086e+002, 1.242965e+002
1.174907e+002, 1.236846e+002
1.179728e+002, 1.221648e+002
1.184550e+002, 1.206108e+002
1.189371e+002, 1.196061e+002
1.194192e+002, 1.195402e+002
1.199013e+002, 1.196289e+002
1.203834e+002, 1.196633e+002
1.208655e+002, 1.195849e+002
1.213477e+002, 1.191633e+002
1.218298e+002, 1.177961e+002
1.223119e+002, 1.161921e+002
1.227940e+002, 1.151387e+002
1.232761e+002, 1.154022e+002
1.237582e+002, 1.158302e+002
1.242404e+002, 1.152299e+002
1.247225e+002, 1.136914e+002
1.252046e+002, 1.123213e+002
1.256867e+002, 1.124442e+002
1.261688e+002, 1.133138e+002
1.266509e+002, 1.135742e+002
1.271331e+002, 1.122443e+002
1.276152e+002, 1.101587e+002
1.280973e+002, 1.083317e+002
1.285794e+002, 1.067332e+002
1.290615e+002, 1.057599e+002
1.295436e+002, 1.064599e+002
1.300258e+002, 1.084001e+002
1.305079e+002, 1.096732e+002
1.309900e+002, 1.087390e+002
1.314721e+002, 1.064089e+002
1.319542e+002, 1.052638e+002
1.324363e+002, 1.055602e+002
1.329185e+002, 1.065059e+002
1.334006e+002, 1.072531e+002
1.338827e+002, 1.077979e+002
1.343648e+002, 1.075766e+002
1.348469e+002, 1.055804e+002
1.353290e+002, 1.020209e+002
1.358112e+002, 1.001843e+002
1.362933e+002, 1.007580e+002
1.367754e+002, 1.026414e+002
1.372575e+002, 1.032850e+002
1.377396e+002, 1.024753e+002
1.382217e+002, 1.013850e+002
1.387039e+002, 1.006991e+002
1.391860e+002, 1.004542e+002
1.396681e+002, 1.003723e+002
1.401502e+002, 1.004938e+002
1.406323e+002, 1.007440e+002
1.411144e+002, 1.008197e+002
1.415966e+002, 1.007343e+002
1.420787e+002, 1.004443e+002
1.425608e+002, 9.983351e+001
1.430429e+002, 9.869547e+001
1.435250e+002, 9.784627e+001
1.440071e+002, 9.754453e+001
1.444893e+002, 9.775748e+001
1.449714e+002, 9.755663e+001
1.454535e+002, 9.679327e+001
1.459356e+002, 9.575740e+001
1.464177e+002, 9.472208e+001
1.468998e+002, 9.358249e+001
1.473820e+002, 9.257551e+001
1.478641e+002, 9.166102e+001
1.483462e+002, 9.078671e+001
1.488283e+002, 9.042981e+001
1.493104e+002, 9.091486e+001
1.497925e+002, 9.176225e+001
1.502747e+002, 9.243108e+001
1.507568e+002, 9.286204e+001
1.512389e+002, 9.316014e+001
1.517210e+002, 9.343084e+001
1.522031e+002, 9.385770e+001
1.526852e+002, 9.367737e+001
1.531674e+002, 9.198148e+001
1.536495e+002, 8.986412e+001
1.541316e+002, 8.889549e+001
1.546137e+002, 8.972318e+001
1.550958e+002, 9.125983e+001
1.555779e+002, 9.327519e+001
1.560601e+002, 9.600739e+001
1.565422e+002, 9.859982e+001
1.570243e+002, 1.000066e+002
1.575064e+002, 1.012179e+002
1.579885e+002, 1.041514e+002
1.584706e+002, 1.114967e+002
1.589528e+002, 1.189899e+002
1.594349e+002, 1.242811e+002
1.599170e+002, 1.245830e+002
1.603991e+002, 1.269904e+002
1.608812e+002, 1.350149e+002
1.613633e+002, 1.468225e+002
1.618455e+002, 1.575992e+002
1.623276e+002, 1.633342e+002
1.628097e+002, 1.688740e+002
1.632918e+002, 1.774561e+002
1.637739e+002, 1.906934e+002
1.642560e+002, 2.057662e+002
1.647382e+002, 2.214707e+002
1.652203e+002, 2.380000e+002
1.657024e+002, 2.560923e+002
1.661845e+002, 2.769399e+002
1.666666e+002, 2.992260e+002
1.671487e+002, 3.215156e+002
1.676309e+002, 3.433590e+002
1.681130e+002, 3.655082e+002
1.685951e+002, 3.880771e+002
1.690772e+002, 4.111662e+002
1.695593e+002, 4.348233e+002
1.700414e+002, 4.604091e+002
1.705236e+002, 4.862945e+002
1.710057e+002, 5.101853e+002
1.714878e+002, 5.309760e+002
1.719699e+002, 5.501158e+002
1.724520e+002, 5.685056e+002
1.729341e+002, 5.862039e+002
1.734163e+002, 6.028734e+002
1.738984e+002, 6.183005e+002
1.743805e+002, 6.326502e+002
1.748626e+002, 6.457498e+002
1.753447e+002, 6.569039e+002
1.758268e+002, 6.673868e+002
1.763090e+002, 6.784092e+002
1.767911e+002, 6.898743e+002
1.772732e+002, 7.021433e+002
1.777553e+002, 7.127438e+002
1.782374e+002, 7.210724e+002
1.787195e+002, 7.291063e+002
1.792017e+002, 7.371454e+002
1.796838e+002, 7.457590e+002
1.801659e+002, 7.555306e+002
1.806480e+002, 7.665315e+002
1.811301e+002, 7.787984e+002
1.816122e+002, 7.931176e+002
1.820944e+002, 8.090807e+002
1.825765e+002, 8.249668e+002
1.830586e+002, 8.404957e+002
1.835407e+002, 8.554124e+002
1.840228e+002, 8.696642e+002
1.845049e+002, 8.830127e+002
1.849871e+002, 8.964569e+002
1.854692e+002, 9.116010e+002
1.859513e+002, 9.281124e+002
1.864334e+002, 9.433442e+002
1.869155e+002, 9.555969e+002
1.873976e+002, 9.656366e+002
1.878798e+002, 9.763525e+002
1.883619e+002, 9.879882e+002
1.888440e+002, 9.995991e+002
1.893261e+002, 1.009459e+003
1.898082e+002, 1.017761e+003
1.902903e+002, 1.025855e+003
1.907725e+002, 1.034779e+003
1.912546e+002, 1.044337e+003
1.917367e+002, 1.052570e+003
1.922188e+002, 1.059329e+003
1.927009e+002, 1.065076e+003
1.931830e+002, 1.070146e+003
1.936652e+002, 1.074516e+003
1.941473e+002, 1.078974e+003
1.946294e+002, 1.084005e+003
1.951115e+002, 1.089547e+003
1.955936e+002, 1.094751e+003
1.960757e+002, 1.099378e+003
1.965579e+002, 1.103964e+003
1.970400e+002, 1.109872e+003
1.975221e+002, 1.117265e+003
1.980042e+002, 1.124239e+003
1.984863e+002, 1.129186e+003
1.989684e+002, 1.132044e+003
1.994506e+002, 1.136951e+003
1.999327e+002, 1.144740e+003
2.004148e+002, 1.153933e+003
2.008969e+002, 1.161327e+003
2.013790e+002, 1.166873e+003
2.018611e+002, 1.171364e+003
2.023433e+002, 1.174900e+003
2.028254e+002, 1.177347e+003
2.033075e+002, 1.180548e+003
2.037896e+002, 1.184734e+003
2.042717e+002, 1.189611e+003
2.047538e+002, 1.194412e+003
2.052360e+002, 1.199084e+003
2.057181e+002, 1.203802e+003
2.062002e+002, 1.209093e+003
2.066823e+002, 1.215327e+003
2.071644e+002, 1.219637e+003
2.076465e+002, 1.221794e+003
2.081287e+002, 1.221873e+003
2.086108e+002, 1.219831e+003
2.090929e+002, 1.215162e+003
2.095750e+002, 1.209747e+003
2.100571e+002, 1.204774e+003
2.105392e+002, 1.200358e+003
2.110214e+002, 1.195696e+003
2.115035e+002, 1.190566e+003
2.119856e+002, 1.185232e+003
2.124677e+002, 1.180382e+003
2.129498e+002, 1.176021e+003
2.134319e+002, 1.172178e+003
2.139140e+002, 1.168694e+003
2.143962e+002, 1.165311e+003
2.148783e+002, 1.163393e+003
2.153604e+002, 1.163606e+003
2.158425e+002, 1.165309e+003
2.163246e+002, 1.165935e+003
2.168067e+002, 1.165285e+003
2.172889e+002, 1.163945e+003
2.177710e+002, 1.162059e+003
2.182531e+002, 1.159158e+003
2.187352e+002, 1.157016e+003
2.192173e+002, 1.155770e+003
2.196994e+002, 1.155348e+003
2.201816e+002, 1.155571e+003
2.206637e+002, 1.156654e+003
2.211458e+002, 1.157944e+003
2.216279e+002, 1.159101e+003
2.221100e+002, 1.160300e+003
2.225921e+002, 1.160850e+003
2.230743e+002, 1.160367e+003
2.235564e+002, 1.159184e+003
2.240385e+002, 1.158955e+003
2.245206e+002, 1.160316e+003
2.250027e+002, 1.161681e+003
2.254848e+002, 1.161877e+003
2.259670e+002, 1.159920e+003
2.264491e+002, 1.159327e+003
2.269312e+002, 1.160951e+003
2.274133e+002, 1.164214e+003
2.278954e+002, 1.166341e+003
2.283775e+002, 1.166886e+003
2.288597e+002, 1.166910e+003
2.293418e+002, 1.167076e+003
2.298239e+002, 1.167678e+003
2.303060e+002, 1.167642e+003
2.307881e+002, 1.166422e+003
2.312702e+002, 1.164417e+003
2.317524e+002, 1.163700e+003
2.322345e+002, 1.164797e+003
2.327166e+002, 1.166372e+003
2.331987e+002, 1.167691e+003
2.336808e+002, 1.168770e+003
2.341629e+002, 1.169482e+003
2.346451e+002, 1.169742e+003
2.351272e+002, 1.169604e+003
2.356093e+002, 1.169344e+003
2.360914e+002, 1.168977e+003
2.365735e+002, 1.168468e+003
2.370556e+002, 1.167710e+003
2.375378e+002, 1.166270e+003
2.380199e+002, 1.165603e+003
2.385020e+002, 1.166068e+003
2.389841e+002, 1.167402e+003
2.394662e+002, 1.168541e+003
2.399483e+002, 1.169754e+003
2.404305e+002, 1.170483e+003
2.409126e+002, 1.170264e+003
2.413947e+002, 1.168159e+003
2.418768e+002, 1.167334e+003
2.423589e+002, 1.168674e+003
2.428410e+002, 1.171357e+003
2.433232e+002, 1.172285e+003
2.438053e+002, 1.170067e+003
2.442874e+002, 1.167985e+003
2.447695e+002, 1.167847e+003
2.452516e+002, 1.170871e+003
2.457337e+002, 1.172990e+003
2.462159e+002, 1.173620e+003
2.466980e+002, 1.173288e+003
2.471801e+002, 1.173800e+003
2.476622e+002, 1.175794e+003
2.481443e+002, 1.177627e+003
2.486264e+002, 1.178337e+003
2.491086e+002, 1.176986e+003
2.495907e+002, 1.176810e+003
2.500728e+002, 1.178332e+003
2.505549e+002, 1.180937e+003
2.510370e+002, 1.182958e+003
2.515191e+002, 1.184094e+003
2.520013e+002, 1.185177e+003
2.524834e+002, 1.186570e+003
2.529655e+002, 1.188282e+003
2.534476e+002, 1.190277e+003
2.539297e+002, 1.192451e+003
2.544118e+002, 1.194970e+003
2.548940e+002, 1.198469e+003
2.553761e+002, 1.203856e+003
2.558582e+002, 1.208620e+003
2.563403e+002, 1.211422e+003
2.568224e+002, 1.211326e+003
2.573046e+002, 1.212257e+003
2.577867e+002, 1.214240e+003
2.582688e+002, 1.217174e+003
2.587509e+002, 1.221176e+003
2.592330e+002, 1.227084e+003
2.597151e+002, 1.232200e+003
2.601973e+002, 1.235194e+003
2.606794e+002, 1.235303e+003
2.611615e+002, 1.236463e+003
2.616436e+002, 1.238896e+003
2.621257e+002, 1.242180e+003
2.626078e+002, 1.245839e+003
2.630900e+002, 1.250374e+003
2.635721e+002, 1.254104e+003
2.640542e+002, 1.256491e+003
2.645363e+002, 1.257559e+003
2.650184e+002, 1.257337e+003
2.655005e+002, 1.255510e+003
2.659827e+002, 1.252825e+003
2.664648e+002, 1.250252e+003
2.669469e+002, 1.247847e+003
2.674290e+002, 1.245497e+003
2.679111e+002, 1.243432e+003
2.683932e+002, 1.241760e+003
2.688754e+002, 1.238259e+003
2.693575e+002, 1.232316e+003
2.698396e+002, 1.225449e+003
2.703217e+002, 1.219354e+003
2.708038e+002, 1.213815e+003
2.712859e+002, 1.209888e+003
2.717681e+002, 1.208370e+003
2.722502e+002, 1.209145e+003
2.727323e+002, 1.208812e+003
2.732144e+002, 1.206970e+003
2.736965e+002, 1.204827e+003
2.741786e+002, 1.203741e+003
2.746608e+002, 1.203884e+003
2.751429e+002, 1.204135e+003
2.756250e+002, 1.204245e+003
2.761071e+002, 1.204241e+003
2.765892e+002, 1.204189e+003
2.770714e+002, 1.203926e+003
2.775535e+002, 1.204090e+003
2.780356e+002, 1.205425e+003
2.785177e+002, 1.208029e+003
2.789998e+002, 1.210790e+003
2.794819e+002, 1.213746e+003
2.799641e+002, 1.216634e+003
2.804462e+002, 1.217982e+003
2.809283e+002, 1.217523e+003
2.814104e+002, 1.216654e+003
2.818925e+002, 1.216250e+003
2.823746e+002, 1.216305e+003
2.828568e+002, 1.217336e+003
2.833389e+002, 1.219552e+003
2.838210e+002, 1.222740e+003
2.843031e+002, 1.226458e+003
2.847852e+002, 1.230807e+003
2.852673e+002, 1.235231e+003
2.857495e+002, 1.239483e+003
2.862316e+002, 1.243574e+003
2.867137e+002, 1.247359e+003
2.871958e+002, 1.250740e+003
2.876779e+002, 1.253963e+003
2.881600e+002, 1.257952e+003
2.886422e+002, 1.262732e+003
2.891243e+002, 1.266519e+003
2.896064e+002, 1.267671e+003
2.900885e+002, 1.266635e+003
2.905706e+002, 1.265873e+003
2.910527e+002, 1.265839e+003
2.915349e+002, 1.265472e+003
2.920170e+002, 1.262930e+003
2.924991e+002, 1.258329e+003
2.929812e+002, 1.252902e+003
2.934633e+002, 1.246330e+003
2.939454e+002, 1.239387e+003
2.944276e+002, 1.234866e+003
2.949097e+002, 1.233197e+003
2.953918e+002, 1.232906e+003
2.958739e+002, 1.232011e+003
2.963560e+002, 1.230822e+003
2.968381e+002, 1.230741e+003
2.973203e+002, 1.233142e+003
2.978024e+002, 1.236985e+003
2.982845e+002, 1.240329e+003
2.987666e+002, 1.243168e+003
2.992487e+002, 1.245357e+003
2.997308e+002, 1.247278e+003
3.002130e+002, 1.248545e+003
3.006951e+002, 1.248024e+003
3.011772e+002, 1.244613e+003
3.016593e+002, 1.239496e+003
3.021414e+002, 1.234138e+003
3.026235e+002, 1.228580e+003
3.031057e+002, 1.222737e+003
3.035878e+002, 1.216259e+003
3.040699e+002, 1.209508e+003
3.045520e+002, 1.203275e+003
3.050341e+002, 1.197798e+003
3.055162e+002, 1.192984e+003
3.059984e+002, 1.188609e+003
3.064805e+002, 1.184744e+003
3.069626e+002, 1.181592e+003
3.074447e+002, 1.179415e+003
3.079268e+002, 1.178027e+003
3.084089e+002, 1.177259e+003
3.088911e+002, 1.177206e+003
3.093732e+002, 1.177543e+003
3.098553e+002, 1.177893e+003
3.103374e+002, 1.178378e+003
3.108195e+002, 1.179426e+003
3.113016e+002, 1.181653e+003
3.117838e+002, 1.184337e+003
3.122659e+002, 1.186741e+003
3.127480e+002, 1.188368e+003
3.132301e+002, 1.190521e+003
3.137122e+002, 1.194375e+003
3.141943e+002, 1.199349e+003
3.146765e+002, 1.204143e+003
3.151586e+002, 1.208171e+003
3.156407e+002, 1.211832e+003
3.161228e+002, 1.215611e+003
3.166049e+002, 1.219800e+003
3.170870e+002, 1.223021e+003
3.175692e+002, 1.224571e+003
3.180513e+002, 1.224795e+003
3.185334e+002, 1.224150e+003
3.190155e+002, 1.222072e+003
3.194976e+002, 1.219780e+003
3.199797e+002, 1.217776e+003
3.204619e+002, 1.216108e+003
3.209440e+002, 1.214545e+003
3.214261e+002, 1.213265e+003
3.219082e+002, 1.211950e+003
3.223903e+002, 1.210301e+003
3.228724e+002, 1.207262e+003
3.233546e+002, 1.204853e+003
3.238367e+002, 1.204105e+003
3.243188e+002, 1.204931e+003
3.248009e+002, 1.204816e+003
3.252830e+002, 1.202299e+003
3.257651e+002, 1.199392e+003
3.262473e+002, 1.197406e+003
3.267294e+002, 1.198899e+003
3.272115e+002, 1.198561e+003
3.276936e+002, 1.195362e+003
3.281757e+002, 1.189790e+003
3.286578e+002, 1.184056e+003
3.291400e+002, 1.177099e+003
3.296221e+002, 1.170940e+003
3.301042e+002, 1.166428e+003
3.305863e+002, 1.164516e+003
3.310684e+002, 1.162705e+003
3.315505e+002, 1.161178e+003
3.320327e+002, 1.159706e+003
3.325148e+002, 1.157721e+003
3.329969e+002, 1.154361e+003
3.334790e+002, 1.151550e+003
3.339611e+002, 1.149842e+003
3.344432e+002, 1.149272e+003
3.349254e+002, 1.149550e+003
3.354075e+002, 1.150886e+003
3.358896e+002, 1.152826e+003
3.363717e+002, 1.154891e+003
3.368538e+002, 1.157329e+003
3.373359e+002, 1.159213e+003
3.378180e+002, 1.160363e+003
3.383001e+002, 1.160784e+003
3.387823e+002, 1.160092e+003
3.392644e+002, 1.157981e+003
3.397465e+002, 1.155444e+003
3.402286e+002, 1.153419e+003
3.407107e+002, 1.152008e+003
3.411928e+002, 1.150846e+003
3.416750e+002, 1.150188e+003
3.421571e+002, 1.149682e+003
3.426392e+002, 1.147538e+003
3.431213e+002, 1.143382e+003
3.436034e+002, 1.139552e+003
3.440855e+002, 1.138339e+003
3.445677e+002, 1.139599e+003
3.450498e+002, 1.139086e+003
3.455319e+002, 1.135706e+003
3.460140e+002, 1.131320e+003
3.464961e+002, 1.129877e+003
3.469782e+002, 1.131261e+003
3.474604e+002, 1.132543e+003
3.479425e+002, 1.131580e+003
3.484246e+002, 1.129089e+003
3.489067e+002, 1.127945e+003
3.493888e+002, 1.128519e+003
3.498709e+002, 1.129351e+003
3.503531e+002, 1.128413e+003
3.508352e+002, 1.126146e+003
3.513173e+002, 1.124204e+003
3.517994e+002, 1.123513e+003
3.522815e+002, 1.123493e+003
3.527636e+002, 1.123139e+003
3.532458e+002, 1.122441e+003
3.537279e+002, 1.121794e+003
3.542100e+002, 1.121501e+003
3.546921e+002, 1.121477e+003
3.551742e+002, 1.121612e+003
3.556563e+002, 1.122048e+003
3.561385e+002, 1.122417e+003
3.566206e+002, 1.122294e+003
3.571027e+002, 1.121754e+003
3.575848e+002, 1.121191e+003
3.580669e+002, 1.120673e+003
3.585490e+002, 1.120326e+003
3.590312e+002, 1.120336e+003
3.595133e+002, 1.120925e+003
3.599954e+002, 1.121471e+003
3.604775e+002, 1.121267e+003
3.609596e+002, 1.120776e+003
3.614417e+002, 1.120962e+003
3.619239e+002, 1.122698e+003
3.624060e+002, 1.124867e+003
3.628881e+002, 1.127074e+003
3.633702e+002, 1.129430e+003
3.638523e+002, 1.131018e+003
3.643344e+002, 1.130739e+003
3.648166e+002, 1.129814e+003
3.652987e+002, 1.129632e+003
3.657808e+002, 1.129883e+003
3.662629e+002, 1.131554e+003
3.667450e+002, 1.135749e+003
3.672271e+002, 1.142435e+003
3.677093e+002, 1.147780e+003
3.681914e+002, 1.150434e+003
3.686735e+002, 1.152165e+003
3.691556e+002, 1.154119e+003
3.696377e+002, 1.155250e+003
3.701198e+002, 1.157925e+003
3.706020e+002, 1.163168e+003
3.710841e+002, 1.170135e+003
3.715662e+002, 1.175794e+003
3.720483e+002, 1.179294e+003
3.725304e+002, 1.182424e+003
3.730125e+002, 1.186121e+003
3.734947e+002, 1.191232e+003
3.739768e+002, 1.194269e+003
3.744589e+002, 1.194562e+003
3.749410e+002, 1.193351e+003
3.754231e+002, 1.192455e+003
3.759052e+002, 1.191716e+003
3.763874e+002, 1.191785e+003
3.768695e+002, 1.193045e+003
3.773516e+002, 1.195505e+003
3.778337e+002, 1.197841e+003
3.783158e+002, 1.200075e+003
3.787979e+002, 1.202291e+003
3.792801e+002, 1.204354e+003
3.797622e+002, 1.206253e+003
3.802443e+002, 1.208940e+003
3.807264e+002, 1.212819e+003
3.812085e+002, 1.217463e+003
3.816906e+002, 1.221644e+003
3.821728e+002, 1.225318e+003
3.826549e+002, 1.229336e+003
3.831370e+002, 1.235383e+003
3.836191e+002, 1.242457e+003
3.841012e+002, 1.246338e+003
3.845833e+002, 1.246420e+003
3.850655e+002, 1.243862e+003
3.855476e+002, 1.238828e+003
3.860297e+002, 1.232063e+003
3.865118e+002, 1.226604e+003
3.869939e+002, 1.224524e+003
3.874760e+002, 1.224322e+003
3.879582e+002, 1.223986e+003
3.884403e+002, 1.223475e+003
3.889224e+002, 1.222907e+003
3.894045e+002, 1.222885e+003
3.898866e+002, 1.222774e+003
3.903687e+002, 1.221672e+003
3.908509e+002, 1.219441e+003
3.913330e+002, 1.216015e+003
3.918151e+002, 1.210523e+003
3.922972e+002, 1.203527e+003
3.927793e+002, 1.197182e+003
3.932614e+002, 1.192745e+003
3.937436e+002, 1.189268e+003
3.942257e+002, 1.186022e+003
3.947078e+002, 1.182934e+003
3.951899e+002, 1.179986e+003
3.956720e+002, 1.176857e+003
3.961541e+002, 1.173898e+003
3.966363e+002, 1.171684e+003
3.971184e+002, 1.170868e+003
3.976005e+002, 1.170322e+003
3.980826e+002, 1.169573e+003
3.985647e+002, 1.168508e+003
3.990468e+002, 1.167997e+003
3.995290e+002, 1.168490e+003
4.000111e+002, 1.169369e+003
4.004932e+002, 1.170121e+003
4.009753e+002, 1.169973e+003
4.014574e+002, 1.170755e+003
4.019395e+002, 1.172764e+003
4.024217e+002, 1.175857e+003
4.029038e+002, 1.179349e+003
4.033859e+002, 1.183282e+003
4.038680e+002, 1.187562e+003
4.043501e+002, 1.192264e+003
4.048322e+002, 1.197583e+003
4.053144e+002, 1.202391e+003
4.057965e+002, 1.206260e+003
4.062786e+002, 1.210056e+003
4.067607e+002, 1.215618e+003
4.072428e+002, 1.223493e+003
4.077249e+002, 1.230276e+003
4.082071e+002, 1.235590e+003
4.086892e+002, 1.239000e+003
4.091713e+002, 1.237231e+003
4.096534e+002, 1.230008e+003
4.101355e+002, 1.218954e+003
4.106176e+002, 1.203784e+003
4.110998e+002, 1.185337e+003
4.115819e+002, 1.168814e+003
4.120640e+002, 1.155058e+003
4.125461e+002, 1.143906e+003
4.130282e+002, 1.135182e+003
4.135103e+002, 1.128784e+003
4.139925e+002, 1.123869e+003
4.144746e+002, 1.120059e+003
4.149567e+002, 1.117318e+003
4.154388e+002, 1.116077e+003
4.159209e+002, 1.116540e+003
4.164030e+002, 1.116777e+003
4.168852e+002, 1.114502e+003
4.173673e+002, 1.111028e+003
4.178494e+002, 1.108490e+003
4.183315e+002, 1.108697e+003
4.188136e+002, 1.109290e+003
4.192957e+002, 1.108807e+003
4.197779e+002, 1.107370e+003
4.202600e+002, 1.105736e+003
4.207421e+002, 1.103558e+003
4.212242e+002, 1.101769e+003
4.217063e+002, 1.101213e+003
4.221884e+002, 1.102812e+003
4.226706e+002, 1.104166e+003
4.231527e+002, 1.104726e+003
4.236348e+002, 1.104658e+003
4.241169e+002, 1.104287e+003
4.245990e+002, 1.102392e+003
4.250811e+002, 1.101392e+003
4.255633e+002, 1.102410e+003
4.260454e+002, 1.105841e+003
4.265275e+002, 1.108328e+003
4.270096e+002, 1.109133e+003
4.274917e+002, 1.109561e+003
4.279738e+002, 1.110710e+003
4.284560e+002, 1.112985e+003
4.289381e+002, 1.115126e+003
4.294202e+002, 1.117198e+003
4.299023e+002, 1.118960e+003
4.303844e+002, 1.119401e+003
4.308665e+002, 1.117945e+003
4.313487e+002, 1.116802e+003
4.318308e+002, 1.117342e+003
4.323129e+002, 1.119680e+003
4.327950e+002, 1.121296e+003
4.332771e+002, 1.121987e+003
4.337592e+002, 1.122459e+003
4.342414e+002, 1.123988e+003
4.347235e+002, 1.126434e+003
4.352056e+002, 1.127970e+003
4.356877e+002, 1.127819e+003
4.361698e+002, 1.126559e+003
4.366519e+002, 1.125016e+003
4.371341e+002, 1.123247e+003
4.376162e+002, 1.122083e+003
4.380983e+002, 1.122783e+003
4.385804e+002, 1.124344e+003
4.390625e+002, 1.124828e+003
4.395446e+002, 1.123592e+003
4.400268e+002, 1.122373e+003
4.405089e+002, 1.123030e+003
4.409910e+002, 1.124839e+003
4.414731e+002, 1.126312e+003
4.419552e+002, 1.127090e+003
4.424373e+002, 1.127068e+003
4.429195e+002, 1.125852e+003
4.434016e+002, 1.123468e+003
4.438837e+002, 1.121217e+003
4.443658e+002, 1.119719e+003
4.448479e+002, 1.118487e+003
4.453300e+002, 1.117168e+003
4.458122e+002, 1.115851e+003
4.462943e+002, 1.114187e+003
4.467764e+002, 1.111260e+003
4.472585e+002, 1.107892e+003
4.477406e+002, 1.106205e+003
4.482227e+002, 1.108269e+003
4.487049e+002, 1.110117e+003
4.491870e+002, 1.110483e+003
4.496691e+002, 1.109029e+003
4.501512e+002, 1.108181e+003
4.506333e+002, 1.108251e+003
4.511154e+002, 1.108629e+003
4.515976e+002, 1.108666e+003
4.520797e+002, 1.108126e+003
4.525618e+002, 1.108129e+003
4.530439e+002, 1.108979e+003
4.535260e+002, 1.110436e+003
4.540081e+002, 1.111721e+003
4.544903e+002, 1.112766e+003
4.549724e+002, 1.114156e+003
4.554545e+002, 1.116128e+003
4.559366e+002, 1.118686e+003
4.564187e+002, 1.122308e+003
4.569008e+002, 1.127162e+003
4.573830e+002, 1.132032e+003
4.578651e+002, 1.134876e+003
4.583472e+002, 1.136385e+003
4.588293e+002, 1.138711e+003
4.593114e+002, 1.142879e+003
4.597935e+002, 1.147862e+003
4.602757e+002, 1.152940e+003
4.607578e+002, 1.157917e+003
4.612399e+002, 1.161976e+003
4.617220e+002, 1.164700e+003
4.622041e+002, 1.166226e+003
4.626862e+002, 1.166620e+003
4.631684e+002, 1.165879e+003
4.636505e+002, 1.164152e+003
4.641326e+002, 1.161480e+003
4.646147e+002, 1.157924e+003
4.650968e+002, 1.153492e+003
4.655789e+002, 1.146791e+003
4.660611e+002, 1.140792e+003
4.665432e+002, 1.136593e+003
4.670253e+002, 1.134097e+003
4.675074e+002, 1.131647e+003
4.679895e+002, 1.128586e+003
4.684716e+002, 1.125928e+003
4.689538e+002, 1.124257e+003
4.694359e+002, 1.124313e+003
4.699180e+002, 1.123806e+003
4.704001e+002, 1.122919e+003
4.708822e+002, 1.121310e+003
4.713643e+002, 1.118388e+003
4.718465e+002, 1.113868e+003
4.723286e+002, 1.108754e+003
4.728107e+002, 1.103012e+003
4.732928e+002, 1.096897e+003
4.737749e+002, 1.091400e+003
4.742570e+002, 1.086546e+003
4.747392e+002, 1.082302e+003
4.752213e+002, 1.078525e+003
4.757034e+002, 1.075282e+003
4.761855e+002, 1.073164e+003
4.766676e+002, 1.072375e+003
4.771497e+002, 1.072263e+003
4.776319e+002, 1.071958e+003
4.781140e+002, 1.071609e+003
4.785961e+002, 1.071692e+003
4.790782e+002, 1.072840e+003
4.795603e+002, 1.074277e+003
4.800424e+002, 1.074722e+003
4.805246e+002, 1.074375e+003
4.810067e+002, 1.074837e+003
4.814888e+002, 1.077217e+003
4.819709e+002, 1.080772e+003
4.824530e+002, 1.084824e+003
4.829352e+002, 1.089111e+003
4.834173e+002, 1.094186e+003
4.838994e+002, 1.100712e+003
4.843815e+002, 1.108077e+003
4.848636e+002, 1.115285e+003
4.853457e+002, 1.121597e+003
4.858279e+002, 1.128217e+003
4.863100e+002, 1.135242e+003
4.867921e+002, 1.142740e+003
4.872742e+002, 1.151447e+003
4.877563e+002, 1.163453e+003
4.882384e+002, 1.174687e+003
4.887206e+002, 1.182888e+003
4.892027e+002, 1.187685e+003
4.896848e+002, 1.190471e+003
4.901669e+002, 1.191208e+003
4.906490e+002, 1.190018e+003
4.911311e+002, 1.186749e+003
4.916133e+002, 1.181197e+003
4.920954e+002, 1.175043e+003
4.925775e+002, 1.168083e+003
4.930596e+002, 1.161093e+003
4.935417e+002, 1.157026e+003
4.940238e+002, 1.155895e+003
4.945060e+002, 1.156270e+003
4.949881e+002, 1.157830e+003
4.954702e+002, 1.160026e+003
4.959523e+002, 1.162024e+003
4.964344e+002, 1.164065e+003
4.969165e+002, 1.164099e+003
4.973987e+002, 1.160636e+003
4.978808e+002, 1.153645e+003
4.983629e+002, 1.143130e+003
4.988450e+002, 1.126568e+003
4.993271e+002, 1.108629e+003
4.998092e+002, 1.091572e+003
5.002914e+002, 1.075436e+003
5.007735e+002, 1.061628e+003
5.012556e+002, 1.051252e+003
5.017377e+002, 1.042610e+003
5.022198e+002, 1.034685e+003
5.027019e+002, 1.027009e+003
5.031841e+002, 1.020774e+003
5.036662e+002, 1.016711e+003
5.041483e+002, 1.013937e+003
5.046304e+002, 1.011543e+003
5.051125e+002, 1.010106e+003
5.055946e+002, 1.008111e+003
5.060768e+002, 1.004830e+003
5.065589e+002, 1.000744e+003
5.070410e+002, 9.984015e+002
5.075231e+002, 9.983040e+002
5.080052e+002, 9.985059e+002
5.084873e+002, 9.980209e+002
5.089695e+002, 9.968422e+002
5.094516e+002, 9.954030e+002
5.099337e+002, 9.935837e+002
5.104158e+002, 9.919711e+002
5.108979e+002, 9.914216e+002
5.113800e+002, 9.917156e+002
5.118622e+002, 9.919002e+002
5.123443e+002, 9.916610e+002
5.128264e+002, 9.912822e+002
5.133085e+002, 9.913504e+002
5.137906e+002, 9.916662e+002
5.142728e+002, 9.915066e+002
5.147549e+002, 9.903318e+002
5.152370e+002, 9.886074e+002
5.157191e+002, 9.865163e+002
5.162012e+002, 9.840404e+002
5.166833e+002, 9.819949e+002
5.171655e+002, 9.814499e+002
5.176476e+002, 9.811287e+002
5.181297e+002, 9.799256e+002
5.186118e+002, 9.763597e+002
5.190939e+002, 9.734733e+002
5.195760e+002, 9.720406e+002
5.200582e+002, 9.716055e+002
5.205403e+002, 9.710105e+002
5.210224e+002, 9.702297e+002
5.215045e+002, 9.693127e+002
5.219866e+002, 9.681456e+002
5.224688e+002, 9.667195e+002
5.229509e+002, 9.658337e+002
5.234330e+002, 9.656035e+002
5.239151e+002, 9.655994e+002
5.243972e+002, 9.654509e+002
5.248793e+002, 9.651432e+002
5.253615e+002, 9.651180e+002
5.258436e+002, 9.654440e+002
5.263257e+002, 9.659492e+002
5.268078e+002, 9.666458e+002
5.272899e+002, 9.673891e+002
5.277720e+002, 9.674460e+002
5.282542e+002, 9.659924e+002
5.287363e+002, 9.641120e+002
5.292184e+002, 9.633899e+002
5.297005e+002, 9.636367e+002
5.301826e+002, 9.637862e+002
5.306647e+002, 9.631715e+002
5.311469e+002, 9.621960e+002
5.316290e+002, 9.611335e+002
5.321111e+002, 9.599884e+002
5.325932e+002, 9.590164e+002
5.330753e+002, 9.584284e+002
5.335574e+002, 9.580338e+002
5.340396e+002, 9.576434e+002
5.345217e+002, 9.571782e+002
5.350038e+002, 9.567908e+002
5.354859e+002, 9.566710e+002
5.359680e+002, 9.566638e+002
5.364501e+002, 9.562310e+002
5.369323e+002, 9.551332e+002
5.374144e+002, 9.540172e+002
5.378965e+002, 9.530873e+002
5.383786e+002, 9.523419e+002
5.388607e+002, 9.518045e+002
5.393428e+002, 9.515267e+002
5.398250e+002, 9.512747e+002
5.403071e+002, 9.507139e+002
5.407892e+002, 9.499061e+002
5.412713e+002, 9.494312e+002
5.417534e+002, 9.493666e+002
5.422355e+002, 9.496809e+002
5.427177e+002, 9.507568e+002
5.431998e+002, 9.522595e+002
5.436819e+002, 9.530935e+002
5.441640e+002, 9.519889e+002
5.446461e+002, 9.505228e+002
5.451282e+002, 9.503813e+002
5.456104e+002, 9.513449e+002
5.460925e+002, 9.520098e+002
5.465746e+002, 9.510692e+002
5.470567e+002, 9.499951e+002
5.475388e+002, 9.499711e+002
5.480209e+002, 9.516890e+002
5.485031e+002, 9.526583e+002
5.489852e+002, 9.514340e+002
5.494673e+002, 9.496550e+002
5.499494e+002, 9.490789e+002
5.504315e+002, 9.507354e+002
5.509136e+002, 9.520258e+002
5.513958e+002, 9.527107e+002
5.518779e+002, 9.528401e+002
5.523600e+002, 9.524203e+002
5.528421e+002, 9.511965e+002
5.533242e+002, 9.502826e+002
5.538063e+002, 9.501578e+002
5.542885e+002, 9.507610e+002
5.547706e+002, 9.519358e+002
5.552527e+002, 9.537938e+002
5.557348e+002, 9.550806e+002
5.562169e+002, 9.540978e+002
5.566990e+002, 9.517234e+002
5.571812e+002, 9.502677e+002
5.576633e+002, 9.502403e+002
5.581454e+002, 9.506432e+002
5.586275e+002, 9.505608e+002
5.591096e+002, 9.502364e+002
5.595917e+002, 9.500918e+002
5.600739e+002, 9.504021e+002
5.605560e+002, 9.508427e+002
5.610381e+002, 9.514124e+002
5.615202e+002, 9.520198e+002
5.620023e+002, 9.523026e+002
5.624844e+002, 9.514086e+002
5.629666e+002, 9.508093e+002
5.634487e+002, 9.513694e+002
5.639308e+002, 9.534543e+002
5.644129e+002, 9.548024e+002
5.648950e+002, 9.550247e+002
5.653771e+002, 9.549170e+002
5.658593e+002, 9.550358e+002
5.663414e+002, 9.552927e+002
5.668235e+002, 9.562784e+002
5.673056e+002, 9.583837e+002
5.677877e+002, 9.607428e+002
5.682698e+002, 9.615211e+002
5.687520e+002, 9.608352e+002
5.692341e+002, 9.604704e+002
5.697162e+002, 9.611422e+002
5.701983e+002, 9.625507e+002
5.706804e+002, 9.644834e+002
5.711625e+002, 9.668315e+002
5.716447e+002, 9.688214e+002
5.721268e+002, 9.693464e+002
5.726089e+002, 9.696381e+002
5.730910e+002, 9.708898e+002
5.735731e+002, 9.733141e+002
5.740552e+002, 9.762125e+002
5.745374e+002, 9.793163e+002
5.750195e+002, 9.827454e+002
5.755016e+002, 9.866163e+002
5.759837e+002, 9.906154e+002
5.764658e+002, 9.954435e+002
5.769479e+002, 1.002156e+003
5.774301e+002, 1.009503e+003
5.779122e+002, 1.014903e+003
5.783943e+002, 1.017083e+003
5.788764e+002, 1.020009e+003
5.793585e+002, 1.025567e+003
5.798406e+002, 1.032944e+003
5.803228e+002, 1.036480e+003
5.808049e+002, 1.035981e+003
5.812870e+002, 1.032886e+003
5.817691e+002, 1.027655e+003
5.822512e+002, 1.020556e+003
5.827333e+002, 1.012284e+003
5.832155e+002, 1.002759e+003
5.836975e+002, 9.931863e+002
5.841796e+002, 9.836029e+002
5.846617e+002, 9.748226e+002
5.851439e+002, 9.682324e+002
5.856260e+002, 9.648970e+002
5.861081e+002, 9.626161e+002
5.865902e+002, 9.602764e+002
5.870723e+002, 9.580109e+002
5.875544e+002, 9.561124e+002
5.880366e+002, 9.543998e+002
5.885187e+002, 9.532616e+002
5.890008e+002, 9.530742e+002
5.894829e+002, 9.537601e+002
5.899650e+002, 9.540143e+002
5.904471e+002, 9.533903e+002
5.909293e+002, 9.528609e+002
5.914114e+002, 9.529754e+002
5.918935e+002, 9.538742e+002
5.923756e+002, 9.543362e+002
5.928577e+002, 9.543414e+002
5.933398e+002, 9.539437e+002
5.938220e+002, 9.529215e+002
5.943041e+002, 9.514127e+002
5.947862e+002, 9.505602e+002
5.952683e+002, 9.507430e+002
5.957504e+002, 9.512260e+002
5.962325e+002, 9.509874e+002
5.967147e+002, 9.502867e+002
5.971968e+002, 9.497848e+002
5.976789e+002, 9.501581e+002
5.981610e+002, 9.505315e+002
5.986431e+002, 9.500851e+002
5.991252e+002, 9.490240e+002
5.996074e+002, 9.482899e+002
6.000895e+002, 9.488023e+002
6.005716e+002, 9.492167e+002
6.010537e+002, 9.487219e+002
6.015358e+002, 9.469498e+002
6.020179e+002, 9.458060e+002
6.025001e+002, 9.456408e+002
6.029822e+002, 9.457777e+002
6.034643e+002, 9.456743e+002
6.039464e+002, 9.451681e+002
6.044285e+002, 9.450797e+002
6.049106e+002, 9.455095e+002
6.053928e+002, 9.462770e+002
6.058749e+002, 9.472292e+002
6.063570e+002, 9.483433e+002
6.068391e+002, 9.492986e+002
6.073212e+002, 9.500215e+002
6.078033e+002, 9.504953e+002
6.082855e+002, 9.503748e+002
6.087676e+002, 9.498936e+002
6.092497e+002, 9.499273e+002
6.097318e+002, 9.518066e+002
6.102139e+002, 9.537548e+002
6.106960e+002, 9.539718e+002
6.111782e+002, 9.524578e+002
6.116603e+002, 9.516584e+002
6.121424e+002, 9.533287e+002
6.126245e+002, 9.553264e+002
6.131066e+002, 9.562528e+002
6.135887e+002, 9.553011e+002
6.140709e+002, 9.550087e+002
6.145530e+002, 9.559872e+002
6.150351e+002, 9.571009e+002
6.155172e+002, 9.569691e+002
6.159993e+002, 9.551556e+002
6.164814e+002, 9.541503e+002
6.169636e+002, 9.544440e+002
6.174457e+002, 9.555067e+002
6.179278e+002, 9.564580e+002
6.184099e+002, 9.572910e+002
6.188920e+002, 9.579820e+002
6.193741e+002, 9.584076e+002
6.198563e+002, 9.587554e+002
6.203384e+002, 9.595854e+002
6.208205e+002, 9.606956e+002
6.213026e+002, 9.611088e+002
6.217847e+002, 9.599131e+002
6.222668e+002, 9.580449e+002
6.227490e+002, 9.558541e+002
6.232311e+002, 9.532562e+002
6.237132e+002, 9.517992e+002
6.241953e+002, 9.533545e+002
6.246774e+002, 9.552242e+002
6.251595e+002, 9.554525e+002
6.256417e+002, 9.526396e+002
6.261238e+002, 9.509405e+002
6.266059e+002, 9.505973e+002
6.270880e+002, 9.511552e+002
6.275701e+002, 9.523332e+002
6.280522e+002, 9.542894e+002
6.285344e+002, 9.552330e+002
6.290165e+002, 9.543173e+002
6.294986e+002, 9.528896e+002
6.299807e+002, 9.540848e+002
6.304628e+002, 9.573870e+002
6.309449e+002, 9.599980e+002
6.314271e+002, 9.596740e+002
6.319092e+002, 9.585104e+002
6.323913e+002, 9.586129e+002
6.328734e+002, 9.599001e+002
6.333555e+002, 9.617889e+002
6.338376e+002, 9.648911e+002
6.343198e+002, 9.677864e+002
6.348019e+002, 9.694600e+002
6.352840e+002, 9.695104e+002
6.357661e+002, 9.699434e+002
6.362482e+002, 9.712114e+002
6.367303e+002, 9.727312e+002
6.372125e+002, 9.740349e+002
6.376946e+002, 9.747789e+002
6.381767e+002, 9.764322e+002
6.386588e+002, 9.792504e+002
6.391409e+002, 9.826550e+002
6.396230e+002, 9.859252e+002
6.401052e+002, 9.890695e+002
6.405873e+002, 9.918342e+002
6.410694e+002, 9.939703e+002
6.415515e+002, 9.959915e+002
6.420336e+002, 9.982551e+002
6.425157e+002, 1.000947e+003
6.429979e+002, 1.004676e+003
6.434800e+002, 1.009948e+003
6.439621e+002, 1.016149e+003
6.444442e+002, 1.022896e+003
6.449263e+002, 1.030180e+003
6.454084e+002, 1.037937e+003
6.458906e+002, 1.046180e+003
6.463727e+002, 1.054797e+003
6.468548e+002, 1.063377e+003
6.473369e+002, 1.071518e+003
6.478190e+002, 1.082237e+003
6.483011e+002, 1.096035e+003
6.487833e+002, 1.111546e+003
6.492654e+002, 1.127282e+003
6.497475e+002, 1.143260e+003
6.502296e+002, 1.161921e+003
6.507117e+002, 1.183498e+003
6.511938e+002, 1.207492e+003
6.516760e+002, 1.233002e+003
6.521581e+002, 1.260267e+003
6.526402e+002, 1.289353e+003
6.531223e+002, 1.320655e+003
6.536044e+002, 1.353037e+003
6.540865e+002, 1.386977e+003
6.545687e+002, 1.421663e+003
6.550508e+002, 1.455662e+003
6.555329e+002, 1.492059e+003
6.560150e+002, 1.524431e+003
6.564971e+002, 1.551916e+003
6.569792e+002, 1.573782e+003
6.574614e+002, 1.587035e+003
6.579435e+002, 1.593151e+003
6.584256e+002, 1.588929e+003
6.589077e+002, 1.572607e+003
6.593898e+002, 1.544404e+003
6.598719e+002, 1.508458e+003
6.603541e+002, 1.463588e+003
6.608362e+002, 1.416698e+003
6.613183e+002, 1.370714e+003
6.618004e+002, 1.326491e+003
6.622825e+002, 1.284472e+003
6.627646e+002, 1.244599e+003
6.632468e+002, 1.208660e+003
6.637289e+002, 1.178463e+003
6.642110e+002, 1.153065e+003
6.646931e+002, 1.131557e+003
6.651752e+002, 1.114430e+003
6.656573e+002, 1.099235e+003
6.661395e+002, 1.085037e+003
6.666216e+002, 1.071964e+003
6.671037e+002, 1.060168e+003
6.675858e+002, 1.049621e+003
6.680679e+002, 1.040487e+003
6.685500e+002, 1.033075e+003
6.690322e+002, 1.027003e+003
6.695143e+002, 1.021745e+003
6.699964e+002, 1.017384e+003
6.704785e+002, 1.013269e+003
6.709606e+002, 1.009183e+003
6.714427e+002, 1.005192e+003
6.719249e+002, 1.001362e+003
6.724070e+002, 9.977389e+002
6.728891e+002, 9.948666e+002
6.733712e+002, 9.936892e+002
6.738533e+002, 9.930902e+002
6.743354e+002, 9.917355e+002
6.748176e+002, 9.896646e+002
6.752997e+002, 9.877254e+002
6.757818e+002, 9.863602e+002
6.762639e+002, 9.852766e+002
6.767460e+002, 9.844255e+002
6.772281e+002, 9.840297e+002
6.777103e+002, 9.829748e+002
6.781924e+002, 9.806617e+002
6.786745e+002, 9.782623e+002
6.791566e+002, 9.765292e+002
6.796387e+002, 9.754376e+002
6.801208e+002, 9.752512e+002
6.806030e+002, 9.761901e+002
6.810851e+002, 9.774705e+002
6.815672e+002, 9.782393e+002
6.820493e+002, 9.785229e+002
6.825314e+002, 9.784065e+002
6.830135e+002, 9.777377e+002
6.834957e+002, 9.770690e+002
6.839778e+002, 9.774963e+002
6.844599e+002, 9.782797e+002
6.849420e+002, 9.780236e+002
6.854241e+002, 9.750263e+002
6.859063e+002, 9.721517e+002
6.863884e+002, 9.705203e+002
6.868705e+002, 9.698743e+002
6.873526e+002, 9.692217e+002
6.878347e+002, 9.681443e+002
6.883168e+002, 9.675899e+002
6.887990e+002, 9.679786e+002
6.892811e+002, 9.691511e+002
6.897632e+002, 9.701273e+002
6.902453e+002, 9.709747e+002
6.907274e+002, 9.712023e+002
6.912095e+002, 9.698839e+002
6.916917e+002, 9.677650e+002
6.921738e+002, 9.673881e+002
6.926559e+002, 9.686989e+002
6.931380e+002, 9.698536e+002
6.936201e+002, 9.688717e+002
6.941022e+002, 9.674332e+002
6.945844e+002, 9.673717e+002
6.950665e+002, 9.691662e+002
6.955486e+002, 9.705745e+002
6.960307e+002, 9.704146e+002
6.965128e+002, 9.698083e+002
6.969949e+002, 9.696800e+002
6.974771e+002, 9.705506e+002
6.979592e+002, 9.708224e+002
6.984413e+002, 9.702668e+002
6.989234e+002, 9.694284e+002
6.994055e+002, 9.689339e+002
6.998876e+002, 9.688004e+002
7.003698e+002, 9.689152e+002
7.008519e+002, 9.693552e+002
7.013340e+002, 9.698390e+002
7.018161e+002, 9.701943e+002
7.022982e+002, 9.702917e+002
7.027803e+002, 9.697283e+002
7.032625e+002, 9.675613e+002
7.037446e+002, 9.656703e+002
7.042267e+002, 9.654336e+002
7.047088e+002, 9.663956e+002
7.051909e+002, 9.675704e+002
7.056730e+002, 9.689343e+002
7.061552e+002, 9.701851e+002
7.066373e+002, 9.712963e+002
7.071194e+002, 9.722250e+002
7.076015e+002, 9.727091e+002
7.080836e+002, 9.724764e+002
7.085657e+002, 9.725970e+002
7.090479e+002, 9.739251e+002
7.095300e+002, 9.758945e+002
7.100121e+002, 9.756949e+002
7.104942e+002, 9.734070e+002
7.109763e+002, 9.712944e+002
7.114584e+002, 9.709589e+002
7.119406e+002, 9.716154e+002
7.124227e+002, 9.725803e+002
7.129048e+002, 9.737816e+002
7.133869e+002, 9.744494e+002
7.138690e+002, 9.740266e+002
7.143511e+002, 9.730992e+002
7.148333e+002, 9.719718e+002
7.153154e+002, 9.705493e+002
7.157975e+002, 9.694244e+002
7.162796e+002, 9.684410e+002
7.167617e+002, 9.679800e+002
7.172438e+002, 9.686532e+002
7.177260e+002, 9.706686e+002
7.182081e+002, 9.715529e+002
7.186902e+002, 9.710135e+002
7.191723e+002, 9.699603e+002
7.196544e+002, 9.691361e+002
7.201365e+002, 9.686492e+002
7.206187e+002, 9.688250e+002
7.211008e+002, 9.698495e+002
7.215829e+002, 9.711689e+002
7.220650e+002, 9.724316e+002
7.225471e+002, 9.737024e+002
7.230292e+002, 9.751005e+002
7.235114e+002, 9.774301e+002
7.239935e+002, 9.788538e+002
7.244756e+002, 9.783386e+002
7.249577e+002, 9.770121e+002
7.254398e+002, 9.768034e+002
7.259219e+002, 9.780275e+002
7.264041e+002, 9.794156e+002
7.268862e+002, 9.807700e+002
7.273683e+002, 9.820349e+002
7.278504e+002, 9.828099e+002
7.283325e+002, 9.832143e+002
7.288146e+002, 9.841045e+002
7.292968e+002, 9.862425e+002
7.297789e+002, 9.887288e+002
7.302610e+002, 9.907250e+002
7.307431e+002, 9.922377e+002
7.312252e+002, 9.932864e+002
7.317073e+002, 9.931298e+002
7.321895e+002, 9.932389e+002
7.326716e+002, 9.944412e+002
7.331537e+002, 9.966776e+002
7.336358e+002, 9.985858e+002
7.341179e+002, 1.000193e+003
7.346000e+002, 1.001488e+003
7.350822e+002, 1.002510e+003
7.355643e+002, 1.003247e+003
7.360464e+002, 1.003301e+003
7.365285e+002, 1.002646e+003
7.370106e+002, 1.001948e+003
7.374927e+002, 1.001861e+003
7.379749e+002, 1.001984e+003
7.384570e+002, 1.001494e+003
7.389391e+002, 1.000380e+003
7.394212e+002, 9.994479e+002
7.399033e+002, 9.994273e+002
7.403854e+002, 9.995804e+002
7.408676e+002, 9.993716e+002
7.413497e+002, 9.986506e+002
7.418318e+002, 9.978380e+002
7.423139e+002, 9.965079e+002
7.427960e+002, 9.955758e+002
7.432781e+002, 9.959496e+002
7.437603e+002, 9.979886e+002
7.442424e+002, 9.986621e+002
7.447245e+002, 9.977175e+002
7.452066e+002, 9.961701e+002
7.456887e+002, 9.946539e+002
7.461708e+002, 9.933965e+002
7.466530e+002, 9.932379e+002
7.471351e+002, 9.945667e+002
7.476172e+002, 9.957162e+002
7.480993e+002, 9.952726e+002
7.485814e+002, 9.940635e+002
7.490635e+002, 9.930031e+002
7.495457e+002, 9.922466e+002
7.500278e+002, 9.916992e+002
7.505099e+002, 9.910857e+002
7.509920e+002, 9.908239e+002
7.514741e+002, 9.916869e+002
7.519562e+002, 9.941882e+002
7.524384e+002, 9.953303e+002
7.529205e+002, 9.943044e+002
7.534026e+002, 9.925569e+002
7.538847e+002, 9.923185e+002
7.543668e+002, 9.933483e+002
7.548489e+002, 9.948087e+002
7.553311e+002, 9.968082e+002
7.558132e+002, 9.984463e+002
7.562953e+002, 9.986437e+002
7.567774e+002, 9.979654e+002
7.572595e+002, 9.973992e+002
7.577416e+002, 9.974909e+002
7.582238e+002, 9.974642e+002
7.587059e+002, 9.968351e+002
7.591880e+002, 9.960679e+002
7.596701e+002, 9.963193e+002
7.601522e+002, 9.981865e+002
7.606343e+002, 9.991451e+002
7.611165e+002, 9.982911e+002
7.615986e+002, 9.964417e+002
7.620807e+002, 9.955183e+002
7.625628e+002, 9.954184e+002
7.630449e+002, 9.955173e+002
7.635270e+002, 9.953957e+002
7.640092e+002, 9.954529e+002
7.644913e+002, 9.964946e+002
7.649734e+002, 9.980785e+002
7.654555e+002, 9.988558e+002
7.659376e+002, 9.978348e+002
7.664197e+002, 9.964241e+002
7.669019e+002, 9.944841e+002
7.673840e+002, 9.924056e+002
7.678661e+002, 9.923718e+002
7.683482e+002, 9.952056e+002
7.688303e+002, 9.976489e+002
7.693124e+002, 9.983347e+002
7.697946e+002, 9.976504e+002
7.702767e+002, 9.966473e+002
7.707588e+002, 9.954022e+002
7.712409e+002, 9.946416e+002
7.717230e+002, 9.953147e+002
7.722051e+002, 9.963344e+002
7.726873e+002, 9.966071e+002
7.731694e+002, 9.961935e+002
7.736515e+002, 9.957540e+002
7.741336e+002, 9.955706e+002
7.746157e+002, 9.953690e+002
7.750978e+002, 9.948455e+002
7.755800e+002, 9.940406e+002
7.760621e+002, 9.942507e+002
7.765442e+002, 9.959206e+002
7.770263e+002, 9.973480e+002
7.775084e+002, 9.972159e+002
7.779905e+002, 9.960139e+002
7.784727e+002, 9.963956e+002
7.789548e+002, 9.982527e+002
7.794369e+002, 9.997465e+002
7.799190e+002, 9.989940e+002
7.804011e+002, 9.975945e+002
7.808832e+002, 9.970438e+002
7.813654e+002, 9.974481e+002
7.818475e+002, 9.982262e+002
7.823296e+002, 1.000108e+003
7.828117e+002, 1.001460e+003
7.832938e+002, 1.001271e+003
7.837759e+002, 9.993289e+002
7.842581e+002, 9.983632e+002
7.847402e+002, 9.985418e+002
7.852223e+002, 9.992426e+002
7.857044e+002, 1.000545e+003
7.861865e+002, 1.002076e+003
7.866686e+002, 1.001922e+003
7.871508e+002, 1.000069e+003
7.876329e+002, 9.986323e+002
7.881150e+002, 9.999951e+002
7.885971e+002, 1.002020e+003
7.890792e+002, 1.002410e+003
7.895613e+002, 1.000693e+003
7.900435e+002, 9.995460e+002
7.905256e+002, 9.996414e+002
7.910077e+002, 1.000433e+003
7.914898e+002, 1.001811e+003
7.919719e+002, 1.003921e+003
7.924540e+002, 1.005360e+003
7.929362e+002, 1.006030e+003
7.934183e+002, 1.006267e+003
7.939004e+002, 1.006179e+003
7.943825e+002, 1.005872e+003
7.948646e+002, 1.005607e+003
7.953467e+002, 1.005398e+003
7.958289e+002, 1.005394e+003
7.963110e+002, 1.006321e+003
7.967931e+002, 1.007106e+003
7.972752e+002, 1.006626e+003
7.977573e+002, 1.004317e+003
7.982394e+002, 1.002726e+003
7.987216e+002, 1.001999e+003
7.992037e+002, 1.002210e+003
7.996858e+002, 1.003704e+003
8.001679e+002, 1.006772e+003
8.006500e+002, 1.008952e+003
8.011321e+002, 1.010200e+003
8.016143e+002, 1.011075e+003
8.020964e+002, 1.012022e+003
8.025785e+002, 1.012976e+003
8.030606e+002, 1.013805e+003
8.035427e+002, 1.014484e+003
8.040248e+002, 1.015122e+003
8.045070e+002, 1.015898e+003
8.049891e+002, 1.016572e+003
8.054712e+002, 1.016898e+003
8.059533e+002, 1.016643e+003
8.064354e+002, 1.016641e+003
8.069175e+002, 1.016705e+003
8.073997e+002, 1.017285e+003
8.078818e+002, 1.019237e+003
8.083639e+002, 1.022478e+003
8.088460e+002, 1.023392e+003
8.093281e+002, 1.021655e+003
8.098102e+002, 1.020106e+003
8.102924e+002, 1.022275e+003
8.107745e+002, 1.025768e+003
8.112566e+002, 1.027126e+003
8.117387e+002, 1.025691e+003
8.122208e+002, 1.024195e+003
8.127029e+002, 1.023450e+003
8.131851e+002, 1.023296e+003
8.136672e+002, 1.023732e+003
8.141493e+002, 1.024964e+003
8.146314e+002, 1.025764e+003
8.151135e+002, 1.025899e+003
8.155956e+002, 1.026172e+003
8.160778e+002, 1.027336e+003
8.165599e+002, 1.029204e+003
8.170420e+002, 1.030966e+003
8.175241e+002, 1.032575e+003
8.180062e+002, 1.034027e+003
8.184883e+002, 1.035494e+003
8.189705e+002, 1.036698e+003
8.194526e+002, 1.037218e+003
8.199347e+002, 1.036883e+003
8.204168e+002, 1.036755e+003
8.208989e+002, 1.036974e+003
8.213810e+002, 1.037540e+003
8.218632e+002, 1.038589e+003
8.223453e+002, 1.040222e+003
8.228274e+002, 1.041543e+003
8.233095e+002, 1.042614e+003
8.237916e+002, 1.042989e+003
8.242737e+002, 1.041751e+003
8.247559e+002, 1.039741e+003
8.252380e+002, 1.038597e+003
8.257201e+002, 1.038433e+003
8.262022e+002, 1.038818e+003
8.266843e+002, 1.040368e+003
8.271664e+002, 1.041708e+003
8.276486e+002, 1.041528e+003
8.281307e+002, 1.039322e+003
8.286128e+002, 1.038765e+003
8.290949e+002, 1.040584e+003
8.295770e+002, 1.042797e+003
8.300591e+002, 1.044522e+003
8.305413e+002, 1.045727e+003
8.310234e+002, 1.046070e+003
8.315055e+002, 1.045552e+003
8.319876e+002, 1.044930e+003
8.324697e+002, 1.044787e+003
8.329518e+002, 1.044789e+003
8.334340e+002, 1.044472e+003
8.339161e+002, 1.043855e+003
8.343982e+002, 1.043525e+003
8.348803e+002, 1.044010e+003
8.353624e+002, 1.044519e+003
8.358445e+002, 1.044717e+003
8.363267e+002, 1.044615e+003
8.368088e+002, 1.044416e+003
8.372909e+002, 1.044062e+003
8.377730e+002, 1.043912e+003
8.382551e+002, 1.044192e+003
8.387372e+002, 1.044820e+003
8.392194e+002, 1.045659e+003
8.397015e+002, 1.046681e+003
8.401836e+002, 1.047708e+003
8.406657e+002, 1.048475e+003
8.411478e+002, 1.049355e+003
8.416299e+002, 1.050929e+003
8.421121e+002, 1.053014e+003
8.425942e+002, 1.053870e+003
8.430763e+002, 1.052492e+003
8.435584e+002, 1.051544e+003
8.440405e+002, 1.052018e+003
8.445226e+002, 1.053495e+003
8.450048e+002, 1.054213e+003
8.454869e+002, 1.054234e+003
8.459690e+002, 1.054582e+003
8.464511e+002, 1.056291e+003
8.469332e+002, 1.058145e+003
8.474153e+002, 1.058691e+003
8.478975e+002, 1.058297e+003
8.483796e+002, 1.057989e+003
8.488617e+002, 1.058162e+003
8.493438e+002, 1.058453e+003
8.498259e+002, 1.058638e+003
8.503080e+002, 1.058910e+003
8.507902e+002, 1.059934e+003
8.512723e+002, 1.061902e+003
8.517544e+002, 1.063390e+003
8.522365e+002, 1.063767e+003
8.527186e+002, 1.063809e+003
8.532007e+002, 1.065302e+003
8.536829e+002, 1.067600e+003
8.541650e+002, 1.068942e+003
8.546471e+002, 1.068023e+003
8.551292e+002, 1.066773e+003
8.556113e+002, 1.065503e+003
8.560934e+002, 1.064652e+003
8.565756e+002, 1.065140e+003
8.570577e+002, 1.068168e+003
8.575398e+002, 1.069974e+003
8.580219e+002, 1.069897e+003
8.585040e+002, 1.068854e+003
8.589861e+002, 1.068169e+003
8.594683e+002, 1.067804e+003
8.599504e+002, 1.067597e+003
8.604325e+002, 1.067505e+003
8.609146e+002, 1.067562e+003
8.613967e+002, 1.067818e+003
8.618788e+002, 1.068230e+003
8.623610e+002, 1.068749e+003
8.628431e+002, 1.069314e+003
8.633252e+002, 1.070122e+003
8.638073e+002, 1.071687e+003
8.642894e+002, 1.072999e+003
8.647715e+002, 1.072884e+003
8.652537e+002, 1.071271e+003
8.657358e+002, 1.070024e+003
8.662179e+002, 1.069341e+003
8.667000e+002, 1.068677e+003
8.671821e+002, 1.067025e+003
8.676642e+002, 1.065244e+003
8.681464e+002, 1.064729e+003
8.686285e+002, 1.065846e+003
8.691106e+002, 1.067136e+003
8.695927e+002, 1.068005e+003
8.700748e+002, 1.068900e+003
8.705569e+002, 1.070251e+003
8.710391e+002, 1.072257e+003
8.715212e+002, 1.072872e+003
8.720033e+002, 1.071632e+003
8.724854e+002, 1.070691e+003
8.729675e+002, 1.072162e+003
8.734496e+002, 1.074994e+003
8.739318e+002, 1.076573e+003
8.744139e+002, 1.076896e+003
8.748960e+002, 1.077233e+003
8.753781e+002, 1.079046e+003
8.758602e+002, 1.080485e+003
8.763423e+002, 1.079932e+003
8.768245e+002, 1.077378e+003
8.773066e+002, 1.076373e+003
8.777887e+002, 1.077852e+003
8.782708e+002, 1.078797e+003
8.787529e+002, 1.077485e+003
8.792350e+002, 1.075008e+003
8.797172e+002, 1.075391e+003
8.801993e+002, 1.078247e+003
8.806814e+002, 1.080928e+003
8.811635e+002, 1.082314e+003
8.816456e+002, 1.082724e+003
8.821277e+002, 1.081372e+003
8.826099e+002, 1.079158e+003
8.830920e+002, 1.078783e+003
8.835741e+002, 1.082619e+003
8.840562e+002, 1.085619e+003
8.845383e+002, 1.086704e+003
8.850204e+002, 1.086708e+003
8.855026e+002, 1.087617e+003
8.859847e+002, 1.089317e+003
8.864668e+002, 1.090313e+003
8.869489e+002, 1.089860e+003
8.874310e+002, 1.089245e+003
8.879131e+002, 1.089910e+003
8.883953e+002, 1.091355e+003
8.888774e+002, 1.092875e+003
8.893595e+002, 1.095055e+003
8.898416e+002, 1.096085e+003
8.903237e+002, 1.094862e+003
8.908058e+002, 1.093183e+003
8.912880e+002, 1.093074e+003
8.917701e+002, 1.094710e+003
8.922522e+002, 1.095755e+003
8.927343e+002, 1.095979e+003
8.932164e+002, 1.095844e+003
8.936985e+002, 1.095212e+003
8.941807e+002, 1.094781e+003
8.946628e+002, 1.095974e+003
8.951449e+002, 1.099339e+003
8.956270e+002, 1.101736e+003
8.961091e+002, 1.100998e+003
8.965912e+002, 1.099850e+003
8.970734e+002, 1.099880e+003
8.975555e+002, 1.101160e+003
8.980376e+002, 1.102938e+003
8.985197e+002, 1.105295e+003
8.990018e+002, 1.107688e+003
8.994839e+002, 1.109939e+003
8.999661e+002, 1.111882e+003
9.004482e+002, 1.112277e+003
9.009303e+002, 1.111645e+003
9.014124e+002, 1.113185e+003
9.018945e+002, 1.121918e+003
9.023766e+002, 1.129808e+003
9.028588e+002, 1.131988e+003
9.033409e+002, 1.129799e+003
9.038230e+002, 1.129684e+003
9.043051e+002, 1.132089e+003
9.047872e+002, 1.134853e+003
9.052693e+002, 1.137690e+003
9.057515e+002, 1.139943e+003
9.062336e+002, 1.139610e+003
9.067157e+002, 1.137548e+003
9.071978e+002, 1.136291e+003
9.076799e+002, 1.137877e+003
9.081620e+002, 1.139234e+003
9.086442e+002, 1.139106e+003
9.091263e+002, 1.137811e+003
9.096084e+002, 1.135868e+003
9.100905e+002, 1.132941e+003
9.105726e+002, 1.130431e+003
9.110547e+002, 1.128533e+003
9.115369e+002, 1.126861e+003
9.120190e+002, 1.124597e+003
9.125011e+002, 1.122151e+003
9.129832e+002, 1.120895e+003
9.134653e+002, 1.121259e+003
9.139474e+002, 1.121487e+003
9.144296e+002, 1.119455e+003
9.149117e+002, 1.117472e+003
9.153938e+002, 1.117833e+003
9.158759e+002, 1.121475e+003
9.163580e+002, 1.123745e+003
9.168401e+002, 1.124295e+003
9.173223e+002, 1.124291e+003
9.178044e+002, 1.124275e+003
9.182865e+002, 1.124360e+003
9.187686e+002, 1.125253e+003
9.192507e+002, 1.126837e+003
9.197328e+002, 1.127964e+003
9.202150e+002, 1.126927e+003
9.206971e+002, 1.126127e+003
9.211792e+002, 1.127528e+003
9.216613e+002, 1.130824e+003
9.221434e+002, 1.132948e+003
9.226255e+002, 1.133140e+003
9.231077e+002, 1.133921e+003
9.235898e+002, 1.136362e+003
9.240719e+002, 1.139466e+003
9.245540e+002, 1.140567e+003
9.250361e+002, 1.140204e+003
9.255182e+002, 1.140599e+003
9.260004e+002, 1.142923e+003
9.264825e+002, 1.145628e+003
9.269646e+002, 1.147882e+003
9.274467e+002, 1.149851e+003
9.279288e+002, 1.151777e+003
9.284109e+002, 1.153889e+003
9.288931e+002, 1.155464e+003
9.293752e+002, 1.156217e+003
9.298573e+002, 1.156918e+003
9.303394e+002, 1.158871e+003
9.308215e+002, 1.161546e+003
9.313036e+002, 1.163012e+003
9.317858e+002, 1.163026e+003
9.322679e+002, 1.162401e+003
9.327500e+002, 1.160921e+003
9.332321e+002, 1.159664e+003
9.337142e+002, 1.159874e+003
9.341964e+002, 1.162037e+003
9.346785e+002, 1.162050e+003
9.351606e+002, 1.158949e+003
9.356427e+002, 1.156092e+003
9.361248e+002, 1.155195e+003
9.366069e+002, 1.155913e+003
9.370891e+002, 1.157203e+003
9.375712e+002, 1.159078e+003
9.380533e+002, 1.161562e+003
9.385354e+002, 1.165772e+003
9.390175e+002, 1.169464e+003
9.394996e+002, 1.170843e+003
9.399818e+002, 1.170658e+003
9.404639e+002, 1.171182e+003
9.409460e+002, 1.172896e+003
9.414281e+002, 1.174127e+003
9.419102e+002, 1.174491e+003
9.423923e+002, 1.174373e+003
9.428745e+002, 1.174803e+003
9.433566e+002, 1.175274e+003
9.438387e+002, 1.174022e+003
9.443208e+002, 1.170104e+003
9.448029e+002, 1.166450e+003
9.452850e+002, 1.164729e+003
9.457672e+002, 1.164050e+003
9.462493e+002, 1.163752e+003
9.467314e+002, 1.164112e+003
9.472135e+002, 1.163481e+003
9.476956e+002, 1.161656e+003
9.481777e+002, 1.159582e+003
9.486599e+002, 1.157513e+003
9.491420e+002, 1.155892e+003
9.496241e+002, 1.156188e+003
9.501062e+002, 1.158208e+003
9.505883e+002, 1.160220e+003
9.510704e+002, 1.160715e+003
9.515526e+002, 1.161519e+003
9.520347e+002, 1.163903e+003
9.525168e+002, 1.167393e+003
9.529989e+002, 1.170065e+003
9.534810e+002, 1.171601e+003
9.539631e+002, 1.173859e+003
9.544453e+002, 1.177559e+003
9.549274e+002, 1.181905e+003
9.554095e+002, 1.185161e+003
9.558916e+002, 1.188102e+003
9.563737e+002, 1.192518e+003
9.568558e+002, 1.199629e+003
9.573380e+002, 1.207090e+003
9.578201e+002, 1.213863e+003
9.583022e+002, 1.220894e+003
9.587843e+002, 1.229052e+003
9.592664e+002, 1.238486e+003
9.597485e+002, 1.248728e+003
9.602307e+002, 1.259874e+003
9.607128e+002, 1.270722e+003
9.611949e+002, 1.279517e+003
9.616770e+002, 1.287694e+003
9.621591e+002, 1.297417e+003
9.626412e+002, 1.308798e+003
9.631234e+002, 1.319724e+003
9.636055e+002, 1.330348e+003
9.640876e+002, 1.339474e+003
9.645697e+002, 1.347207e+003
9.650518e+002, 1.353127e+003
9.655339e+002, 1.355206e+003
9.660161e+002, 1.353428e+003
9.664982e+002, 1.350515e+003
9.669803e+002, 1.346843e+003
9.674624e+002, 1.343576e+003
9.679445e+002, 1.342882e+003
9.684266e+002, 1.343316e+003
9.689088e+002, 1.342504e+003
9.693909e+002, 1.337768e+003
9.698730e+002, 1.334718e+003
9.703551e+002, 1.334095e+003
9.708372e+002, 1.334722e+003
9.713193e+002, 1.335312e+003
9.718015e+002, 1.335977e+003
9.722836e+002, 1.337875e+003
9.727657e+002, 1.341124e+003
9.732478e+002, 1.344838e+003
9.737299e+002, 1.349083e+003
9.742120e+002, 1.352984e+003
9.746942e+002, 1.356253e+003
9.751763e+002, 1.358790e+003
9.756584e+002, 1.358800e+003
9.761405e+002, 1.355949e+003
9.766226e+002, 1.351248e+003
9.771047e+002, 1.344831e+003
9.775869e+002, 1.336982e+003
9.780690e+002, 1.328156e+003
9.785511e+002, 1.318689e+003
9.790332e+002, 1.309659e+003
9.795153e+002, 1.301963e+003
9.799974e+002, 1.293963e+003
9.804796e+002, 1.284006e+003
9.809617e+002, 1.273547e+003
9.814438e+002, 1.264683e+003
9.819259e+002, 1.257819e+003
9.824080e+002, 1.251011e+003
9.828901e+002, 1.243977e+003
9.833723e+002, 1.237615e+003
9.838544e+002, 1.233251e+003
9.843365e+002, 1.230063e+003
9.848186e+002, 1.226252e+003
9.853007e+002, 1.221707e+003
9.857828e+002, 1.218213e+003
9.862650e+002, 1.217119e+003
9.867471e+002, 1.216651e+003
9.872292e+002, 1.215935e+003
9.877113e+002, 1.215119e+003
9.881934e+002, 1.215178e+003
9.886755e+002, 1.216146e+003
9.891577e+002, 1.216924e+003
9.896398e+002, 1.216931e+003
9.901219e+002, 1.216774e+003
9.906040e+002, 1.216731e+003
9.910861e+002, 1.217143e+003
9.915682e+002, 1.218622e+003
9.920504e+002, 1.222745e+003
9.925325e+002, 1.225692e+003
9.930146e+002, 1.226442e+003
9.934967e+002, 1.226946e+003
9.939788e+002, 1.229142e+003
9.944609e+002, 1.232867e+003
9.949431e+002, 1.236604e+003
9.954252e+002, 1.240300e+003
9.959073e+002, 1.244427e+003
9.963894e+002, 1.250029e+003
9.968715e+002, 1.255672e+003
9.973536e+002, 1.259677e+003
9.978358e+002, 1.262305e+003
9.983179e+002, 1.267464e+003
9.988000e+002, 1.275868e+003
9.992821e+002, 1.285066e+003
9.997642e+002, 1.294193e+003
1.000246e+003, 1.304136e+003
1.000728e+003, 1.316963e+003
1.001211e+003, 1.331864e+003
1.001693e+003, 1.346295e+003
1.002175e+003, 1.359443e+003
1.002657e+003, 1.372410e+003
1.003139e+003, 1.385617e+003
1.003621e+003, 1.398791e+003
1.004103e+003, 1.411303e+003
1.004585e+003, 1.422758e+003
1.005068e+003, 1.435514e+003
1.005550e+003, 1.449572e+003
1.006032e+003, 1.465811e+003
1.006514e+003, 1.484315e+003
1.006996e+003, 1.505904e+003
1.007478e+003, 1.531942e+003
1.007960e+003, 1.562394e+003
1.008442e+003, 1.596285e+003
1.008924e+003, 1.634979e+003
1.009407e+003, 1.676075e+003
1.009889e+003, 1.720451e+003
1.010371e+003, 1.766183e+003
1.010853e+003, 1.811217e+003
1.011335e+003, 1.855263e+003
1.011817e+003, 1.893818e+003
1.012299e+003, 1.927666e+003
1.012781e+003, 1.949566e+003
1.013263e+003, 1.954411e+003
1.013746e+003, 1.944777e+003
1.014228e+003, 1.921663e+003
1.014710e+003, 1.884364e+003
1.015192e+003, 1.840296e+003
1.015674e+003, 1.787844e+003
1.016156e+003, 1.734137e+003
1.016638e+003, 1.681140e+003
1.017120e+003, 1.630402e+003
1.017603e+003, 1.585168e+003
1.018085e+003, 1.544924e+003
1.018567e+003, 1.509369e+003
1.019049e+003, 1.479084e+003
1.019531e+003, 1.452543e+003
1.020013e+003, 1.429165e+003
1.020495e+003, 1.408825e+003
1.020977e+003, 1.392188e+003
1.021459e+003, 1.379327e+003
1.021942e+003, 1.366201e+003
1.022424e+003, 1.352161e+003
1.022906e+003, 1.338592e+003
1.023388e+003, 1.325830e+003
1.023870e+003, 1.314644e+003
1.024352e+003, 1.306185e+003
1.024834e+003, 1.300772e+003
1.025316e+003, 1.295636e+003
1.025799e+003, 1.290622e+003
1.026281e+003, 1.285743e+003
1.026763e+003, 1.280705e+003
1.027245e+003, 1.276106e+003
1.027727e+003, 1.273777e+003
1.028209e+003, 1.273084e+003
1.028691e+003, 1.271859e+003
1.029173e+003, 1.268994e+003
1.029656e+003, 1.265834e+003
1.030138e+003, 1.262379e+003
1.030620e+003, 1.259361e+003
1.031102e+003, 1.257696e+003
1.031584e+003, 1.257784e+003
1.032066e+003, 1.256751e+003
1.032548e+003, 1.254448e+003
1.033030e+003, 1.251677e+003
1.033512e+003, 1.248427e+003
1.033995e+003, 1.245539e+003
1.034477e+003, 1.244692e+003
1.034959e+003, 1.245472e+003
1.035441e+003, 1.244948e+003
1.035923e+003, 1.241227e+003
1.036405e+003, 1.238011e+003
1.036887e+003, 1.236164e+003
1.037369e+003, 1.235021e+003
1.037851e+003, 1.233401e+003
1.038334e+003, 1.231352e+003
1.038816e+003, 1.228680e+003
1.039298e+003, 1.225049e+003
1.039780e+003, 1.222213e+003
1.040262e+003, 1.221901e+003
1.040744e+003, 1.222326e+003
1.041226e+003, 1.222131e+003
1.041708e+003, 1.221276e+003
1.042191e+003, 1.219949e+003
1.042673e+003, 1.218024e+003
1.043155e+003, 1.216619e+003
1.043637e+003, 1.216551e+003
1.044119e+003, 1.217147e+003
1.044601e+003, 1.217764e+003
1.045083e+003, 1.218282e+003
1.045565e+003, 1.218407e+003
1.046047e+003, 1.217830e+003
1.046530e+003, 1.217093e+003
1.047012e+003, 1.215964e+003
1.047494e+003, 1.215105e+003
1.047976e+003, 1.215479e+003
1.048458e+003, 1.216814e+003
1.048940e+003, 1.217695e+003
1.049422e+003, 1.218031e+003
1.049904e+003, 1.218604e+003
1.050386e+003, 1.220483e+003
1.050869e+003, 1.222215e+003
1.051351e+003, 1.222511e+003
1.051833e+003, 1.221850e+003
1.052315e+003, 1.222475e+003
1.052797e+003, 1.224671e+003
1.053279e+003, 1.225676e+003
1.053761e+003, 1.224204e+003
1.054243e+003, 1.222740e+003
1.054726e+003, 1.225375e+003
1.055208e+003, 1.229621e+003
1.055690e+003, 1.231831e+003
1.056172e+003, 1.230410e+003
1.056654e+003, 1.229701e+003
1.057136e+003, 1.230278e+003
1.057618e+003, 1.231237e+003
1.058100e+003, 1.232009e+003
1.058583e+003, 1.232738e+003
1.059065e+003, 1.234059e+003
1.059547e+003, 1.235872e+003
1.060029e+003, 1.237719e+003
1.060511e+003, 1.239742e+003
1.060993e+003, 1.241268e+003
1.061475e+003, 1.241846e+003
1.061957e+003, 1.241823e+003
1.062439e+003, 1.241471e+003
1.062922e+003, 1.240666e+003
1.063404e+003, 1.241077e+003
1.063886e+003, 1.243019e+003
1.064368e+003, 1.244424e+003
1.064850e+003, 1.242643e+003
1.065332e+003, 1.239997e+003
1.065814e+003, 1.238911e+003
1.066296e+003, 1.239425e+003
1.066778e+003, 1.239595e+003
1.067261e+003, 1.239062e+003
1.067743e+003, 1.238531e+003
1.068225e+003, 1.238144e+003
1.068707e+003, 1.237886e+003
1.069189e+003, 1.237571e+003
1.069671e+003, 1.237388e+003
1.070153e+003, 1.237946e+003
1.070635e+003, 1.239674e+003
1.071118e+003, 1.241032e+003
1.071600e+003, 1.241399e+003
1.072082e+003, 1.241150e+003
1.072564e+003, 1.240318e+003
1.073046e+003, 1.239002e+003
1.073528e+003, 1.238261e+003
1.074010e+003, 1.238080e+003
1.074492e+003, 1.237891e+003
1.074974e+003, 1.237106e+003
1.075457e+003, 1.236571e+003
1.075939e+003, 1.237074e+003
1.076421e+003, 1.238208e+003
1.076903e+003, 1.239312e+003
1.077385e+003, 1.240399e+003
1.077867e+003, 1.241194e+003
1.078349e+003, 1.241617e+003
1.078831e+003, 1.241954e+003
1.079313e+003, 1.242395e+003
1.079796e+003, 1.242934e+003
1.080278e+003, 1.243739e+003
1.080760e+003, 1.244709e+003
1.081242e+003, 1.245182e+003
1.081724e+003, 1.243969e+003
1.082206e+003, 1.243600e+003
1.082688e+003, 1.244877e+003
1.083170e+003, 1.246897e+003
1.083652e+003, 1.248192e+003
1.084135e+003, 1.248818e+003
1.084617e+003, 1.248721e+003
1.085099e+003, 1.247756e+003
1.085581e+003, 1.247193e+003
1.086063e+003, 1.248482e+003
1.086545e+003, 1.249768e+003
1.087027e+003, 1.249713e+003
1.087509e+003, 1.248508e+003
1.087992e+003, 1.248256e+003
1.088474e+003, 1.248973e+003
1.088956e+003, 1.249485e+003
1.089438e+003, 1.249224e+003
1.089920e+003, 1.248720e+003
1.090402e+003, 1.248156e+003
1.090884e+003, 1.247815e+003
1.091366e+003, 1.248181e+003
1.091849e+003, 1.249840e+003
1.092331e+003, 1.250646e+003
1.092813e+003, 1.250301e+003
1.093295e+003, 1.250112e+003
1.093777e+003, 1.251458e+003
1.094259e+003, 1.253399e+003
1.094741e+003, 1.253860e+003
1.095223e+003, 1.253307e+003
1.095705e+003, 1.253453e+003
1.096188e+003, 1.256099e+003
1.096670e+003, 1.257763e+003
1.097152e+003, 1.257390e+003
1.097634e+003, 1.256463e+003
1.098116e+003, 1.257174e+003
1.098598e+003, 1.259064e+003
1.099080e+003, 1.259686e+003
1.099562e+003, 1.258845e+003
1.100044e+003, 1.258537e+003
1.100527e+003, 1.261340e+003
1.101009e+003, 1.263641e+003
1.101491e+003, 1.262796e+003
1.101973e+003, 1.260067e+003
1.102455e+003, 1.259628e+003
1.102937e+003, 1.261520e+003
1.103419e+003, 1.262777e+003
1.103901e+003, 1.262578e+003
1.104384e+003, 1.261948e+003
1.104866e+003, 1.261149e+003
1.105348e+003, 1.260890e+003
1.105830e+003, 1.262555e+003
1.106312e+003, 1.266758e+003
1.106794e+003, 1.267092e+003
1.107276e+003, 1.262102e+003
1.107758e+003, 1.259130e+003
1.108240e+003, 1.262555e+003
1.108723e+003, 1.268596e+003
1.109205e+003, 1.271729e+003
1.109687e+003, 1.272893e+003
1.110169e+003, 1.273930e+003
1.110651e+003, 1.275594e+003
1.111133e+003, 1.276570e+003
1.111615e+003, 1.276273e+003
1.112097e+003, 1.276185e+003
1.112579e+003, 1.277849e+003
1.113062e+003, 1.280602e+003
1.113544e+003, 1.282194e+003
1.114026e+003, 1.282727e+003
1.114508e+003, 1.282745e+003
1.114990e+003, 1.281688e+003
1.115472e+003, 1.281235e+003
1.115954e+003, 1.282691e+003
1.116436e+003, 1.284381e+003
1.116919e+003, 1.283715e+003
1.117401e+003, 1.280947e+003
1.117883e+003, 1.279607e+003
1.118365e+003, 1.280018e+003
1.118847e+003, 1.281184e+003
1.119329e+003, 1.283080e+003
1.119811e+003, 1.284867e+003
1.120293e+003, 1.285832e+003
1.120776e+003, 1.286221e+003
1.121258e+003, 1.286689e+003
1.121740e+003, 1.287125e+003
1.122222e+003, 1.289073e+003
1.122704e+003, 1.293427e+003
1.123186e+003, 1.296763e+003
1.123668e+003, 1.293642e+003
1.124150e+003, 1.288910e+003
1.124632e+003, 1.288143e+003
1.125115e+003, 1.292464e+003
1.125597e+003, 1.294830e+003
1.126079e+003, 1.294551e+003
1.126561e+003, 1.294365e+003
1.127043e+003, 1.295459e+003
1.127525e+003, 1.296992e+003
1.128007e+003, 1.297982e+003
1.128489e+003, 1.298316e+003
1.128971e+003, 1.297687e+003
1.129454e+003, 1.295635e+003
1.129936e+003, 1.293666e+003
1.130418e+003, 1.291508e+003
1.130900e+003, 1.290321e+003
1.131382e+003, 1.291464e+003
1.131864e+003, 1.293843e+003
1.132346e+003, 1.293752e+003
1.132828e+003, 1.291912e+003
1.133311e+003, 1.290716e+003
1.133793e+003, 1.291639e+003
1.134275e+003, 1.292719e+003
1.134757e+003, 1.293697e+003
1.135239e+003, 1.294372e+003
1.135721e+003, 1.294393e+003
1.136203e+003, 1.293834e+003
1.136685e+003, 1.293396e+003
1.137167e+003, 1.293119e+003
1.137650e+003, 1.293354e+003
1.138132e+003, 1.294918e+003
1.138614e+003, 1.296368e+003
1.139096e+003, 1.297328e+003
1.139578e+003, 1.297569e+003
1.140060e+003, 1.296096e+003
1.140542e+003, 1.292836e+003
1.141024e+003, 1.292294e+003
1.141506e+003, 1.295102e+003
1.141989e+003, 1.297955e+003
1.142471e+003, 1.297989e+003
1.142953e+003, 1.297302e+003
1.143435e+003, 1.297145e+003
1.143917e+003, 1.297695e+003
1.144399e+003, 1.299504e+003
1.144881e+003, 1.302888e+003
1.145363e+003, 1.305295e+003
1.145846e+003, 1.306068e+003
1.146328e+003, 1.305922e+003
1.146810e+003, 1.304726e+003
1.147292e+003, 1.303564e+003
1.147774e+003, 1.303620e+003
1.148256e+003, 1.305127e+003
1.148738e+003, 1.307061e+003
1.149220e+003, 1.309625e+003
1.149703e+003, 1.311783e+003
1.150185e+003, 1.313287e+003
1.150667e+003, 1.313964e+003
1.151149e+003, 1.312271e+003
1.151631e+003, 1.310070e+003
1.152113e+003, 1.310670e+003
1.152595e+003, 1.316023e+003
1.153077e+003, 1.319589e+003
1.153559e+003, 1.320377e+003
1.154042e+003, 1.320805e+003
1.154524e+003, 1.322383e+003
1.155006e+003, 1.324262e+003
1.155488e+003, 1.324495e+003
1.155970e+003, 1.323487e+003
1.156452e+003, 1.322149e+003
1.156934e+003, 1.319964e+003
1.157416e+003, 1.319089e+003
1.157898e+003, 1.320198e+003
1.158381e+003, 1.321830e+003
1.158863e+003, 1.322999e+003
1.159345e+003, 1.323784e+003
1.159827e+003, 1.324651e+003
1.160309e+003, 1.325436e+003
1.160791e+003, 1.325452e+003
1.161273e+003, 1.322957e+003
1.161755e+003, 1.321551e+003
1.162238e+003, 1.322496e+003
1.162720e+003, 1.324384e+003
1.163202e+003, 1.325880e+003
1.163684e+003, 1.327010e+003
1.164166e+003, 1.327937e+003
1.164648e+003, 1.328701e+003
1.165130e+003, 1.329624e+003
1.165612e+003, 1.331617e+003
1.166094e+003, 1.332934e+003
1.166577e+003, 1.332329e+003
1.167059e+003, 1.330979e+003
1.167541e+003, 1.330679e+003
1.168023e+003, 1.331374e+003
1.168505e+003, 1.332383e+003
1.168987e+003, 1.333657e+003
1.169469e+003, 1.334489e+003
1.169951e+003, 1.333274e+003
1.170433e+003, 1.332585e+003
1.170916e+003, 1.334421e+003
1.171398e+003, 1.337858e+003
1.171880e+003, 1.341102e+003
1.172362e+003, 1.344148e+003
1.172844e+003, 1.345254e+003
1.173326e+003, 1.343806e+003
1.173808e+003, 1.342471e+003
1.174290e+003, 1.343813e+003
1.174773e+003, 1.345842e+003
1.175255e+003, 1.346820e+003
1.175737e+003, 1.347014e+003
1.176219e+003, 1.348473e+003
1.176701e+003, 1.351346e+003
1.177183e+003, 1.352253e+003
1.177665e+003, 1.349705e+003
1.178147e+003, 1.347044e+003
1.178630e+003, 1.347499e+003
1.179112e+003, 1.349400e+003
1.179594e+003, 1.351372e+003
1.180076e+003, 1.353308e+003
1.180558e+003, 1.354828e+003
1.181040e+003, 1.355899e+003
1.181522e+003, 1.357099e+003
1.182004e+003, 1.358750e+003
1.182486e+003, 1.360411e+003
1.182969e+003, 1.361964e+003
1.183451e+003, 1.363041e+003
1.183933e+003, 1.362930e+003
1.184415e+003, 1.361228e+003
1.184897e+003, 1.360573e+003
1.185379e+003, 1.360995e+003
1.185861e+003, 1.362232e+003
1.186343e+003, 1.364742e+003
1.186825e+003, 1.367173e+003
1.187308e+003, 1.367437e+003
1.187790e+003, 1.366714e+003
1.188272e+003, 1.367022e+003
1.188754e+003, 1.369642e+003
1.189236e+003, 1.369768e+003
1.189718e+003, 1.366783e+003
1.190200e+003, 1.364549e+003
1.190682e+003, 1.366632e+003
1.191165e+003, 1.370013e+003
1.191647e+003, 1.370511e+003
1.192129e+003, 1.369414e+003
1.192611e+003, 1.369407e+003
1.193093e+003, 1.372217e+003
1.193575e+003, 1.373095e+003
1.194057e+003, 1.371566e+003
1.194539e+003, 1.369808e+003
1.195021e+003, 1.369361e+003
1.195504e+003, 1.369802e+003
1.195986e+003, 1.370393e+003
1.196468e+003, 1.371376e+003
1.196950e+003, 1.373617e+003
1.197432e+003, 1.378534e+003
1.197914e+003, 1.381722e+003
1.198396e+003, 1.382707e+003
1.198878e+003, 1.382653e+003
1.199360e+003, 1.381867e+003
1.199843e+003, 1.381232e+003
1.200325e+003, 1.382409e+003
1.200807e+003, 1.384986e+003
1.201289e+003, 1.387065e+003
1.201771e+003, 1.388240e+003
1.202253e+003, 1.389091e+003
1.202735e+003, 1.389598e+003
1.203217e+003, 1.390161e+003
1.203700e+003, 1.390989e+003
1.204182e+003, 1.392283e+003
1.204664e+003, 1.394769e+003
1.205146e+003, 1.398174e+003
1.205628e+003, 1.400590e+003
1.206110e+003, 1.401265e+003
1.206592e+003, 1.402004e+003
1.207074e+003, 1.403192e+003
1.207557e+003, 1.404117e+003
1.208039e+003, 1.402858e+003
1.208521e+003, 1.401312e+003
1.209003e+003, 1.402852e+003
1.209485e+003, 1.407492e+003
1.209967e+003, 1.410761e+003
1.210449e+003, 1.412074e+003
1.210931e+003, 1.411909e+003
1.211413e+003, 1.409723e+003
1.211896e+003, 1.407878e+003
1.212378e+003, 1.410639e+003
1.212860e+003, 1.415216e+003
1.213342e+003, 1.417514e+003
1.213824e+003, 1.417093e+003
1.214306e+003, 1.416125e+003
1.214788e+003, 1.414675e+003
1.215270e+003, 1.413330e+003
1.215752e+003, 1.412120e+003
1.216235e+003, 1.411445e+003
1.216717e+003, 1.412513e+003
1.217199e+003, 1.414176e+003
1.217681e+003, 1.414524e+003
1.218163e+003, 1.413177e+003
1.218645e+003, 1.412799e+003
1.219127e+003, 1.413776e+003
1.219609e+003, 1.415168e+003
1.220092e+003, 1.416944e+003
1.220574e+003, 1.418420e+003
1.221056e+003, 1.417297e+003
1.221538e+003, 1.415844e+003
1.222020e+003, 1.417928e+003
1.222502e+003, 1.424807e+003
1.222984e+003, 1.429328e+003
1.223466e+003, 1.430668e+003
1.223948e+003, 1.431277e+003
1.224431e+003, 1.431818e+003
1.224913e+003, 1.432490e+003
1.225395e+003, 1.433347e+003
1.225877e+003, 1.434631e+003
1.226359e+003, 1.437045e+003
1.226841e+003, 1.441245e+003
1.227323e+003, 1.443116e+003
1.227805e+003, 1.442005e+003
1.228287e+003, 1.441181e+003
1.228770e+003, 1.442167e+003
1.229252e+003, 1.443817e+003
1.229734e+003, 1.444729e+003
1.230216e+003, 1.445223e+003
1.230698e+003, 1.445795e+003
1.231180e+003, 1.446663e+003
1.231662e+003, 1.446548e+003
1.232144e+003, 1.445183e+003
1.232627e+003, 1.444493e+003
1.233109e+003, 1.445814e+003
1.233591e+003, 1.447497e+003
1.234073e+003, 1.447266e+003
1.234555e+003, 1.446360e+003
1.235037e+003, 1.446641e+003
1.235519e+003, 1.448625e+003
1.236001e+003, 1.449506e+003
1.236484e+003, 1.449125e+003
1.236966e+003, 1.449185e+003
1.237448e+003, 1.450769e+003
1.237930e+003, 1.452809e+003
1.238412e+003, 1.454297e+003
1.238894e+003, 1.455539e+003
1.239376e+003, 1.456758e+003
1.239858e+003, 1.457756e+003
1.240340e+003, 1.460629e+003
1.240823e+003, 1.465452e+003
1.241305e+003, 1.468760e+003
1.241787e+003, 1.467481e+003
1.242269e+003, 1.465567e+003
1.242751e+003, 1.466631e+003
1.243233e+003, 1.468820e+003
1.243715e+003, 1.469565e+003
1.244197e+003, 1.468493e+003
1.244679e+003, 1.469824e+003
1.245162e+003, 1.473505e+003
1.245644e+003, 1.476176e+003
1.246126e+003, 1.474975e+003
1.246608e+003, 1.473655e+003
1.247090e+003, 1.475049e+003
1.247572e+003, 1.477592e+003
1.248054e+003, 1.479411e+003
1.248536e+003, 1.480531e+003
1.249019e+003, 1.482079e+003
1.249501e+003, 1.483976e+003
1.249983e+003, 1.485154e+003
1.250465e+003, 1.484135e+003
1.250947e+003, 1.483356e+003
1.251429e+003, 1.484419e+003
1.251911e+003, 1.486033e+003
1.252393e+003, 1.487076e+003
1.252875e+003, 1.487535e+003
1.253358e+003, 1.487142e+003
1.253840e+003, 1.486142e+003
1.254322e+003, 1.486314e+003
1.254804e+003, 1.490148e+003
1.255286e+003, 1.493199e+003
1.255768e+003, 1.493078e+003
1.256250e+003, 1.492459e+003
1.256732e+003, 1.493801e+003
1.257214e+003, 1.496673e+003
1.257697e+003, 1.498341e+003
1.258179e+003, 1.499044e+003
1.258661e+003, 1.499823e+003
1.259143e+003, 1.501158e+003
1.259625e+003, 1.502713e+003
1.260107e+003, 1.504403e+003
1.260589e+003, 1.506346e+003
1.261071e+003, 1.509254e+003
1.261554e+003, 1.512370e+003
1.262036e+003, 1.512628e+003
1.262518e+003, 1.510860e+003
1.263000e+003, 1.509979e+003
1.263482e+003, 1.511479e+003
1.263964e+003, 1.513402e+003
1.264446e+003, 1.515846e+003
1.264928e+003, 1.517916e+003
1.265411e+003, 1.518432e+003
1.265893e+003, 1.518256e+003
1.266375e+003, 1.519314e+003
1.266857e+003, 1.521100e+003
1.267339e+003, 1.522189e+003
1.267821e+003, 1.521149e+003
1.268303e+003, 1.521736e+003
1.268785e+003, 1.524604e+003
1.269267e+003, 1.527073e+003
1.269750e+003, 1.526326e+003
1.270232e+003, 1.524498e+003
1.270714e+003, 1.524093e+003
1.271196e+003, 1.524839e+003
1.271678e+003, 1.526102e+003
1.272160e+003, 1.527823e+003
1.272642e+003, 1.529858e+003
1.273124e+003, 1.532214e+003
1.273606e+003, 1.534533e+003
1.274089e+003, 1.536432e+003
1.274571e+003, 1.538241e+003
1.275053e+003, 1.540871e+003
1.275535e+003, 1.543284e+003
1.276017e+003, 1.543563e+003
1.276499e+003, 1.541174e+003
1.276981e+003, 1.540121e+003
1.277463e+003, 1.540484e+003
1.277946e+003, 1.541619e+003
1.278428e+003, 1.543849e+003
1.278910e+003, 1.545940e+003
1.279392e+003, 1.547206e+003
1.279874e+003, 1.547848e+003
1.280356e+003, 1.547721e+003
1.280838e+003, 1.546896e+003
1.281320e+003, 1.548551e+003
1.281802e+003, 1.552389e+003
1.282285e+003, 1.555500e+003
1.282767e+003, 1.555280e+003
1.283249e+003, 1.555392e+003
1.283731e+003, 1.557415e+003
1.284213e+003, 1.559991e+003
1.284695e+003, 1.561832e+003
1.285177e+003, 1.563192e+003
1.285659e+003, 1.565649e+003
1.286141e+003, 1.568860e+003
1.286624e+003, 1.571356e+003
1.287106e+003, 1.571531e+003
1.287588e+003, 1.572412e+003
1.288070e+003, 1.574522e+003
1.288552e+003, 1.577038e+003
1.289034e+003, 1.579111e+003
1.289516e+003, 1.581154e+003
1.289998e+003, 1.584581e+003
1.290481e+003, 1.588720e+003
1.290963e+003, 1.591839e+003
1.291445e+003, 1.592827e+003
1.291927e+003, 1.593684e+003
1.292409e+003, 1.594288e+003
1.292891e+003, 1.595281e+003
1.293373e+003, 1.597169e+003
1.293855e+003, 1.599680e+003
1.294338e+003, 1.602859e+003
1.294820e+003, 1.606291e+003
1.295302e+003, 1.609193e+003
1.295784e+003, 1.611714e+003
1.296266e+003, 1.612764e+003
1.296748e+003, 1.612232e+003
1.297230e+003, 1.612189e+003
1.297712e+003, 1.614446e+003
1.298194e+003, 1.617022e+003
1.298677e+003, 1.619123e+003
1.299159e+003, 1.619979e+003
1.299641e+003, 1.618306e+003
1.300123e+003, 1.613963e+003
1.300605e+003, 1.612095e+003
1.301087e+003, 1.612445e+003
1.301569e+003, 1.612804e+003
1.302051e+003, 1.611800e+003
1.302533e+003, 1.610603e+003
1.303016e+003, 1.609536e+003
##END=



