##NAMES=Medaite
##RRUFFID=R130098
##IDEAL CHEMISTRY=Mn^2+^_6_V^5+^Si_5_O_18_(OH)
##LOCALITY=Molinello mine, Graveglia Valley, Ne, Genova Province, Liguria, Italy
##OWNER=RRUFF
##SOURCE=Donald Doell (Large Piece) and Rock Currier (Small Piece)
##DESCRIPTION=Red grains and prismatic crystals
##STATUS=The identification of this mineral has been confirmed by single-crystal X-ray diffraction.
##URL=rruff.info/R130098
8.975323e+001, 0.000000e+000
9.023535e+001, 5.132698e+002
9.071747e+001, 5.089249e+002
9.119958e+001, 5.054145e+002
9.168170e+001, 5.128193e+002
9.216382e+001, 5.184089e+002
9.264594e+001, 5.200162e+002
9.312805e+001, 5.191522e+002
9.361017e+001, 5.175519e+002
9.409229e+001, 5.148809e+002
9.457440e+001, 5.100542e+002
9.505651e+001, 5.059478e+002
9.553863e+001, 5.029837e+002
9.602074e+001, 5.008568e+002
9.650286e+001, 4.994495e+002
9.698498e+001, 4.983957e+002
9.746709e+001, 4.965569e+002
9.794921e+001, 4.944291e+002
9.843133e+001, 4.924716e+002
9.891344e+001, 4.900079e+002
9.939556e+001, 4.861208e+002
9.987768e+001, 4.813189e+002
1.003598e+002, 4.772005e+002
1.008419e+002, 4.747198e+002
1.013240e+002, 4.737217e+002
1.018061e+002, 4.728733e+002
1.022883e+002, 4.719392e+002
1.027704e+002, 4.712230e+002
1.032525e+002, 4.709897e+002
1.037346e+002, 4.712226e+002
1.042167e+002, 4.718615e+002
1.046988e+002, 4.732995e+002
1.051810e+002, 4.749503e+002
1.056631e+002, 4.758596e+002
1.061452e+002, 4.752185e+002
1.066273e+002, 4.734308e+002
1.071094e+002, 4.722500e+002
1.075915e+002, 4.723340e+002
1.080737e+002, 4.721920e+002
1.085558e+002, 4.709176e+002
1.090379e+002, 4.688683e+002
1.095200e+002, 4.669490e+002
1.100021e+002, 4.659457e+002
1.104842e+002, 4.659633e+002
1.109664e+002, 4.664037e+002
1.114485e+002, 4.677507e+002
1.119306e+002, 4.690978e+002
1.124127e+002, 4.699279e+002
1.128948e+002, 4.702154e+002
1.133769e+002, 4.703766e+002
1.138591e+002, 4.710566e+002
1.143412e+002, 4.731299e+002
1.148233e+002, 4.740512e+002
1.153054e+002, 4.729595e+002
1.157875e+002, 4.711648e+002
1.162696e+002, 4.698575e+002
1.167517e+002, 4.694497e+002
1.172339e+002, 4.697394e+002
1.177160e+002, 4.703541e+002
1.181981e+002, 4.712720e+002
1.186802e+002, 4.724140e+002
1.191623e+002, 4.737358e+002
1.196444e+002, 4.752515e+002
1.201266e+002, 4.771009e+002
1.206087e+002, 4.795917e+002
1.210908e+002, 4.822243e+002
1.215729e+002, 4.841053e+002
1.220550e+002, 4.850900e+002
1.225371e+002, 4.855705e+002
1.230193e+002, 4.857411e+002
1.235014e+002, 4.855619e+002
1.239835e+002, 4.854087e+002
1.244656e+002, 4.853976e+002
1.249477e+002, 4.855306e+002
1.254298e+002, 4.858940e+002
1.259120e+002, 4.866230e+002
1.263941e+002, 4.874698e+002
1.268762e+002, 4.878856e+002
1.273583e+002, 4.878335e+002
1.278404e+002, 4.873415e+002
1.283225e+002, 4.864515e+002
1.288047e+002, 4.852155e+002
1.292868e+002, 4.836772e+002
1.297689e+002, 4.818305e+002
1.302510e+002, 4.796993e+002
1.307331e+002, 4.776200e+002
1.312152e+002, 4.756138e+002
1.316974e+002, 4.736295e+002
1.321795e+002, 4.717181e+002
1.326616e+002, 4.698285e+002
1.331437e+002, 4.678643e+002
1.336258e+002, 4.657245e+002
1.341079e+002, 4.633620e+002
1.345901e+002, 4.610690e+002
1.350722e+002, 4.588432e+002
1.355543e+002, 4.566692e+002
1.360364e+002, 4.545565e+002
1.365185e+002, 4.525027e+002
1.370006e+002, 4.504860e+002
1.374828e+002, 4.485210e+002
1.379649e+002, 4.466154e+002
1.384470e+002, 4.446732e+002
1.389291e+002, 4.424478e+002
1.394112e+002, 4.402721e+002
1.398933e+002, 4.385120e+002
1.403755e+002, 4.372531e+002
1.408576e+002, 4.364293e+002
1.413397e+002, 4.360395e+002
1.418218e+002, 4.360276e+002
1.423039e+002, 4.362718e+002
1.427860e+002, 4.368242e+002
1.432681e+002, 4.376171e+002
1.437503e+002, 4.383876e+002
1.442324e+002, 4.389627e+002
1.447145e+002, 4.396498e+002
1.451966e+002, 4.408088e+002
1.456787e+002, 4.424321e+002
1.461608e+002, 4.439932e+002
1.466430e+002, 4.450780e+002
1.471251e+002, 4.456695e+002
1.476072e+002, 4.459414e+002
1.480893e+002, 4.455847e+002
1.485714e+002, 4.451161e+002
1.490535e+002, 4.448305e+002
1.495357e+002, 4.447853e+002
1.500178e+002, 4.447998e+002
1.504999e+002, 4.445334e+002
1.509820e+002, 4.436261e+002
1.514641e+002, 4.432598e+002
1.519462e+002, 4.438691e+002
1.524284e+002, 4.447653e+002
1.529105e+002, 4.454616e+002
1.533926e+002, 4.457646e+002
1.538747e+002, 4.457509e+002
1.543568e+002, 4.455986e+002
1.548389e+002, 4.450294e+002
1.553211e+002, 4.446576e+002
1.558032e+002, 4.446917e+002
1.562853e+002, 4.448822e+002
1.567674e+002, 4.448584e+002
1.572495e+002, 4.444112e+002
1.577316e+002, 4.437324e+002
1.582138e+002, 4.436758e+002
1.586959e+002, 4.445614e+002
1.591780e+002, 4.455993e+002
1.596601e+002, 4.468427e+002
1.601422e+002, 4.481201e+002
1.606243e+002, 4.490380e+002
1.611065e+002, 4.493312e+002
1.615886e+002, 4.490849e+002
1.620707e+002, 4.488120e+002
1.625528e+002, 4.488499e+002
1.630349e+002, 4.485663e+002
1.635170e+002, 4.474713e+002
1.639991e+002, 4.456259e+002
1.644813e+002, 4.436317e+002
1.649634e+002, 4.418027e+002
1.654455e+002, 4.400901e+002
1.659276e+002, 4.383442e+002
1.664097e+002, 4.362969e+002
1.668918e+002, 4.344009e+002
1.673740e+002, 4.332577e+002
1.678561e+002, 4.329870e+002
1.683382e+002, 4.329091e+002
1.688203e+002, 4.325695e+002
1.693024e+002, 4.321969e+002
1.697845e+002, 4.320859e+002
1.702667e+002, 4.323334e+002
1.707488e+002, 4.329184e+002
1.712309e+002, 4.338972e+002
1.717130e+002, 4.356524e+002
1.721951e+002, 4.370785e+002
1.726772e+002, 4.375647e+002
1.731594e+002, 4.375547e+002
1.736415e+002, 4.376599e+002
1.741236e+002, 4.382169e+002
1.746057e+002, 4.391852e+002
1.750878e+002, 4.403202e+002
1.755699e+002, 4.417634e+002
1.760521e+002, 4.432404e+002
1.765342e+002, 4.449569e+002
1.770163e+002, 4.466439e+002
1.774984e+002, 4.478489e+002
1.779805e+002, 4.482341e+002
1.784626e+002, 4.477946e+002
1.789448e+002, 4.470440e+002
1.794269e+002, 4.456399e+002
1.799090e+002, 4.442617e+002
1.803911e+002, 4.431181e+002
1.808732e+002, 4.421739e+002
1.813553e+002, 4.413246e+002
1.818375e+002, 4.405106e+002
1.823196e+002, 4.397676e+002
1.828017e+002, 4.386321e+002
1.832838e+002, 4.367786e+002
1.837659e+002, 4.349088e+002
1.842480e+002, 4.333478e+002
1.847301e+002, 4.321052e+002
1.852123e+002, 4.310365e+002
1.856944e+002, 4.300424e+002
1.861765e+002, 4.291385e+002
1.866586e+002, 4.281444e+002
1.871407e+002, 4.268020e+002
1.876228e+002, 4.255590e+002
1.881050e+002, 4.246833e+002
1.885871e+002, 4.242162e+002
1.890692e+002, 4.241893e+002
1.895513e+002, 4.248666e+002
1.900334e+002, 4.262117e+002
1.905155e+002, 4.270630e+002
1.909977e+002, 4.269510e+002
1.914798e+002, 4.264430e+002
1.919619e+002, 4.262114e+002
1.924440e+002, 4.263824e+002
1.929261e+002, 4.265662e+002
1.934082e+002, 4.264828e+002
1.938904e+002, 4.261485e+002
1.943725e+002, 4.254268e+002
1.948546e+002, 4.238342e+002
1.953367e+002, 4.218935e+002
1.958188e+002, 4.207365e+002
1.963009e+002, 4.207555e+002
1.967831e+002, 4.209015e+002
1.972652e+002, 4.202998e+002
1.977473e+002, 4.191902e+002
1.982294e+002, 4.181837e+002
1.987115e+002, 4.173670e+002
1.991936e+002, 4.168488e+002
1.996758e+002, 4.172094e+002
2.001579e+002, 4.191118e+002
2.006400e+002, 4.210164e+002
2.011221e+002, 4.222120e+002
2.016042e+002, 4.227749e+002
2.020863e+002, 4.228839e+002
2.025685e+002, 4.223315e+002
2.030506e+002, 4.212022e+002
2.035327e+002, 4.210485e+002
2.040148e+002, 4.228608e+002
2.044969e+002, 4.246898e+002
2.049790e+002, 4.259591e+002
2.054612e+002, 4.266541e+002
2.059433e+002, 4.268585e+002
2.064254e+002, 4.264716e+002
2.069075e+002, 4.254312e+002
2.073896e+002, 4.250065e+002
2.078717e+002, 4.260901e+002
2.083539e+002, 4.270047e+002
2.088360e+002, 4.270997e+002
2.093181e+002, 4.265363e+002
2.098002e+002, 4.258729e+002
2.102823e+002, 4.256149e+002
2.107644e+002, 4.258267e+002
2.112466e+002, 4.258961e+002
2.117287e+002, 4.258386e+002
2.122108e+002, 4.256478e+002
2.126929e+002, 4.252155e+002
2.131750e+002, 4.246206e+002
2.136571e+002, 4.240717e+002
2.141393e+002, 4.237662e+002
2.146214e+002, 4.237417e+002
2.151035e+002, 4.237215e+002
2.155856e+002, 4.242455e+002
2.160677e+002, 4.243175e+002
2.165498e+002, 4.229877e+002
2.170320e+002, 4.205473e+002
2.175141e+002, 4.183164e+002
2.179962e+002, 4.175669e+002
2.184783e+002, 4.185302e+002
2.189604e+002, 4.191226e+002
2.194425e+002, 4.191395e+002
2.199247e+002, 4.190029e+002
2.204068e+002, 4.189184e+002
2.208889e+002, 4.189113e+002
2.213710e+002, 4.189665e+002
2.218531e+002, 4.190860e+002
2.223352e+002, 4.192735e+002
2.228174e+002, 4.194133e+002
2.232995e+002, 4.193394e+002
2.237816e+002, 4.193362e+002
2.242637e+002, 4.198019e+002
2.247458e+002, 4.207144e+002
2.252279e+002, 4.213773e+002
2.257100e+002, 4.210817e+002
2.261922e+002, 4.199449e+002
2.266743e+002, 4.191196e+002
2.271564e+002, 4.189376e+002
2.276385e+002, 4.189323e+002
2.281206e+002, 4.186567e+002
2.286027e+002, 4.180829e+002
2.290849e+002, 4.175160e+002
2.295670e+002, 4.172430e+002
2.300491e+002, 4.171513e+002
2.305312e+002, 4.169194e+002
2.310133e+002, 4.162108e+002
2.314954e+002, 4.154988e+002
2.319776e+002, 4.154054e+002
2.324597e+002, 4.160100e+002
2.329418e+002, 4.166689e+002
2.334239e+002, 4.166642e+002
2.339060e+002, 4.165129e+002
2.343881e+002, 4.171064e+002
2.348703e+002, 4.191325e+002
2.353524e+002, 4.216061e+002
2.358345e+002, 4.231368e+002
2.363166e+002, 4.235402e+002
2.367987e+002, 4.237888e+002
2.372808e+002, 4.245439e+002
2.377630e+002, 4.253760e+002
2.382451e+002, 4.257289e+002
2.387272e+002, 4.252470e+002
2.392093e+002, 4.244813e+002
2.396914e+002, 4.243544e+002
2.401735e+002, 4.250506e+002
2.406557e+002, 4.258027e+002
2.411378e+002, 4.264386e+002
2.416199e+002, 4.269330e+002
2.421020e+002, 4.272852e+002
2.425841e+002, 4.275305e+002
2.430662e+002, 4.275189e+002
2.435484e+002, 4.269764e+002
2.440305e+002, 4.258302e+002
2.445126e+002, 4.243283e+002
2.449947e+002, 4.221586e+002
2.454768e+002, 4.198925e+002
2.459589e+002, 4.181558e+002
2.464410e+002, 4.171913e+002
2.469232e+002, 4.164000e+002
2.474053e+002, 4.146343e+002
2.478874e+002, 4.114081e+002
2.483695e+002, 4.083543e+002
2.488516e+002, 4.056896e+002
2.493337e+002, 4.033283e+002
2.498159e+002, 4.012205e+002
2.502980e+002, 3.993470e+002
2.507801e+002, 3.977283e+002
2.512622e+002, 3.964643e+002
2.517443e+002, 3.958831e+002
2.522264e+002, 3.949085e+002
2.527086e+002, 3.928511e+002
2.531907e+002, 3.908086e+002
2.536728e+002, 3.897172e+002
2.541549e+002, 3.897508e+002
2.546370e+002, 3.901783e+002
2.551191e+002, 3.897482e+002
2.556013e+002, 3.875441e+002
2.560834e+002, 3.865262e+002
2.565655e+002, 3.877308e+002
2.570476e+002, 3.892015e+002
2.575297e+002, 3.895565e+002
2.580118e+002, 3.886040e+002
2.584940e+002, 3.872113e+002
2.589761e+002, 3.865674e+002
2.594582e+002, 3.870664e+002
2.599403e+002, 3.873461e+002
2.604224e+002, 3.874770e+002
2.609045e+002, 3.873937e+002
2.613867e+002, 3.869823e+002
2.618688e+002, 3.862732e+002
2.623509e+002, 3.854594e+002
2.628330e+002, 3.847682e+002
2.633151e+002, 3.842782e+002
2.637972e+002, 3.836129e+002
2.642794e+002, 3.825555e+002
2.647615e+002, 3.815410e+002
2.652436e+002, 3.806744e+002
2.657257e+002, 3.800430e+002
2.662078e+002, 3.798747e+002
2.666899e+002, 3.805246e+002
2.671721e+002, 3.822835e+002
2.676542e+002, 3.828721e+002
2.681363e+002, 3.813224e+002
2.686184e+002, 3.797354e+002
2.691005e+002, 3.790616e+002
2.695826e+002, 3.792883e+002
2.700648e+002, 3.799995e+002
2.705469e+002, 3.809171e+002
2.710290e+002, 3.820488e+002
2.715111e+002, 3.829527e+002
2.719932e+002, 3.832937e+002
2.724753e+002, 3.837801e+002
2.729575e+002, 3.847831e+002
2.734396e+002, 3.861910e+002
2.739217e+002, 3.876846e+002
2.744038e+002, 3.890802e+002
2.748859e+002, 3.903686e+002
2.753680e+002, 3.913756e+002
2.758501e+002, 3.915475e+002
2.763322e+002, 3.920982e+002
2.768144e+002, 3.935891e+002
2.772965e+002, 3.957758e+002
2.777786e+002, 3.981728e+002
2.782607e+002, 4.005942e+002
2.787428e+002, 4.029171e+002
2.792249e+002, 4.045674e+002
2.797071e+002, 4.051252e+002
2.801892e+002, 4.056622e+002
2.806713e+002, 4.065658e+002
2.811534e+002, 4.076149e+002
2.816355e+002, 4.083740e+002
2.821176e+002, 4.086228e+002
2.825998e+002, 4.085838e+002
2.830819e+002, 4.088307e+002
2.835640e+002, 4.095115e+002
2.840461e+002, 4.101508e+002
2.845282e+002, 4.106884e+002
2.850103e+002, 4.111201e+002
2.854925e+002, 4.113327e+002
2.859746e+002, 4.112455e+002
2.864567e+002, 4.112092e+002
2.869388e+002, 4.119014e+002
2.874209e+002, 4.135239e+002
2.879030e+002, 4.150951e+002
2.883852e+002, 4.163036e+002
2.888673e+002, 4.174410e+002
2.893494e+002, 4.189717e+002
2.898315e+002, 4.210202e+002
2.903136e+002, 4.230431e+002
2.907957e+002, 4.243126e+002
2.912779e+002, 4.247030e+002
2.917600e+002, 4.252572e+002
2.922421e+002, 4.261378e+002
2.927242e+002, 4.271896e+002
2.932063e+002, 4.282767e+002
2.936884e+002, 4.293839e+002
2.941706e+002, 4.305186e+002
2.946527e+002, 4.316621e+002
2.951348e+002, 4.328272e+002
2.956169e+002, 4.341701e+002
2.960990e+002, 4.357601e+002
2.965811e+002, 4.374845e+002
2.970633e+002, 4.394138e+002
2.975454e+002, 4.414929e+002
2.980275e+002, 4.432946e+002
2.985096e+002, 4.444447e+002
2.989917e+002, 4.450222e+002
2.994738e+002, 4.457512e+002
2.999560e+002, 4.467575e+002
3.004381e+002, 4.477908e+002
3.009202e+002, 4.486821e+002
3.014023e+002, 4.494649e+002
3.018844e+002, 4.503257e+002
3.023665e+002, 4.514029e+002
3.028487e+002, 4.525977e+002
3.033308e+002, 4.536241e+002
3.038129e+002, 4.544576e+002
3.042950e+002, 4.551927e+002
3.047771e+002, 4.559380e+002
3.052592e+002, 4.566220e+002
3.057414e+002, 4.570068e+002
3.062235e+002, 4.569247e+002
3.067056e+002, 4.566461e+002
3.071877e+002, 4.566834e+002
3.076698e+002, 4.570321e+002
3.081519e+002, 4.575672e+002
3.086341e+002, 4.583706e+002
3.091162e+002, 4.593107e+002
3.095983e+002, 4.601117e+002
3.100804e+002, 4.606658e+002
3.105625e+002, 4.612215e+002
3.110446e+002, 4.620719e+002
3.115268e+002, 4.631923e+002
3.120089e+002, 4.646332e+002
3.124910e+002, 4.663912e+002
3.129731e+002, 4.684807e+002
3.134552e+002, 4.710522e+002
3.139373e+002, 4.741378e+002
3.144195e+002, 4.773069e+002
3.149016e+002, 4.802496e+002
3.153837e+002, 4.829509e+002
3.158658e+002, 4.853314e+002
3.163479e+002, 4.869470e+002
3.168300e+002, 4.885467e+002
3.173121e+002, 4.908163e+002
3.177943e+002, 4.937483e+002
3.182764e+002, 4.967834e+002
3.187585e+002, 4.995608e+002
3.192406e+002, 5.021389e+002
3.197227e+002, 5.048802e+002
3.202048e+002, 5.082634e+002
3.206870e+002, 5.113522e+002
3.211691e+002, 5.133973e+002
3.216512e+002, 5.146581e+002
3.221333e+002, 5.160793e+002
3.226154e+002, 5.180890e+002
3.230975e+002, 5.205317e+002
3.235797e+002, 5.230809e+002
3.240618e+002, 5.262426e+002
3.245439e+002, 5.285064e+002
3.250260e+002, 5.287462e+002
3.255081e+002, 5.278136e+002
3.259902e+002, 5.273114e+002
3.264724e+002, 5.277586e+002
3.269545e+002, 5.287104e+002
3.274366e+002, 5.296381e+002
3.279187e+002, 5.306637e+002
3.284008e+002, 5.310837e+002
3.288829e+002, 5.304561e+002
3.293651e+002, 5.292919e+002
3.298472e+002, 5.280739e+002
3.303293e+002, 5.268837e+002
3.308114e+002, 5.258452e+002
3.312935e+002, 5.251043e+002
3.317756e+002, 5.246909e+002
3.322578e+002, 5.242957e+002
3.327399e+002, 5.236526e+002
3.332220e+002, 5.232184e+002
3.337041e+002, 5.234343e+002
3.341862e+002, 5.242468e+002
3.346683e+002, 5.251799e+002
3.351505e+002, 5.259238e+002
3.356326e+002, 5.265016e+002
3.361147e+002, 5.270960e+002
3.365968e+002, 5.275629e+002
3.370789e+002, 5.282001e+002
3.375610e+002, 5.290760e+002
3.380432e+002, 5.302195e+002
3.385253e+002, 5.317908e+002
3.390074e+002, 5.339597e+002
3.394895e+002, 5.363776e+002
3.399716e+002, 5.379823e+002
3.404537e+002, 5.379396e+002
3.409359e+002, 5.387031e+002
3.414180e+002, 5.415721e+002
3.419001e+002, 5.452057e+002
3.423822e+002, 5.479517e+002
3.428643e+002, 5.493311e+002
3.433464e+002, 5.496744e+002
3.438286e+002, 5.492953e+002
3.443107e+002, 5.477384e+002
3.447928e+002, 5.468109e+002
3.452749e+002, 5.468666e+002
3.457570e+002, 5.473220e+002
3.462391e+002, 5.480109e+002
3.467213e+002, 5.487806e+002
3.472034e+002, 5.491546e+002
3.476855e+002, 5.487208e+002
3.481676e+002, 5.474460e+002
3.486497e+002, 5.455292e+002
3.491318e+002, 5.424511e+002
3.496140e+002, 5.393752e+002
3.500961e+002, 5.367141e+002
3.505782e+002, 5.344678e+002
3.510603e+002, 5.325367e+002
3.515424e+002, 5.308780e+002
3.520245e+002, 5.294892e+002
3.525067e+002, 5.283589e+002
3.529888e+002, 5.277296e+002
3.534709e+002, 5.270590e+002
3.539530e+002, 5.263445e+002
3.544351e+002, 5.255303e+002
3.549172e+002, 5.245764e+002
3.553994e+002, 5.234636e+002
3.558815e+002, 5.221454e+002
3.563636e+002, 5.205339e+002
3.568457e+002, 5.185855e+002
3.573278e+002, 5.163679e+002
3.578099e+002, 5.132605e+002
3.582920e+002, 5.103595e+002
3.587741e+002, 5.086278e+002
3.592563e+002, 5.079961e+002
3.597384e+002, 5.076015e+002
3.602205e+002, 5.066192e+002
3.607026e+002, 5.050096e+002
3.611847e+002, 5.031674e+002
3.616668e+002, 5.007644e+002
3.621490e+002, 4.984903e+002
3.626311e+002, 4.965223e+002
3.631132e+002, 4.948520e+002
3.635953e+002, 4.934718e+002
3.640774e+002, 4.923809e+002
3.645595e+002, 4.915454e+002
3.650417e+002, 4.908247e+002
3.655238e+002, 4.902679e+002
3.660059e+002, 4.897719e+002
3.664880e+002, 4.893089e+002
3.669701e+002, 4.889052e+002
3.674522e+002, 4.886601e+002
3.679344e+002, 4.885858e+002
3.684165e+002, 4.884747e+002
3.688986e+002, 4.879031e+002
3.693807e+002, 4.865011e+002
3.698628e+002, 4.856720e+002
3.703449e+002, 4.863101e+002
3.708271e+002, 4.867886e+002
3.713092e+002, 4.861055e+002
3.717913e+002, 4.843686e+002
3.722734e+002, 4.823964e+002
3.727555e+002, 4.808239e+002
3.732376e+002, 4.796532e+002
3.737198e+002, 4.788913e+002
3.742019e+002, 4.789888e+002
3.746840e+002, 4.789533e+002
3.751661e+002, 4.784409e+002
3.756482e+002, 4.775969e+002
3.761303e+002, 4.766571e+002
3.766125e+002, 4.757284e+002
3.770946e+002, 4.747710e+002
3.775767e+002, 4.737127e+002
3.780588e+002, 4.725858e+002
3.785409e+002, 4.712540e+002
3.790230e+002, 4.693111e+002
3.795052e+002, 4.673683e+002
3.799873e+002, 4.661599e+002
3.804694e+002, 4.658103e+002
3.809515e+002, 4.651935e+002
3.814336e+002, 4.629821e+002
3.819157e+002, 4.592054e+002
3.823979e+002, 4.555442e+002
3.828800e+002, 4.519743e+002
3.833621e+002, 4.488857e+002
3.838442e+002, 4.466583e+002
3.843263e+002, 4.451097e+002
3.848084e+002, 4.435215e+002
3.852906e+002, 4.415524e+002
3.857727e+002, 4.392877e+002
3.862548e+002, 4.368384e+002
3.867369e+002, 4.341356e+002
3.872190e+002, 4.315226e+002
3.877011e+002, 4.291875e+002
3.881833e+002, 4.270636e+002
3.886654e+002, 4.250677e+002
3.891475e+002, 4.231544e+002
3.896296e+002, 4.214247e+002
3.901117e+002, 4.200031e+002
3.905938e+002, 4.188643e+002
3.910760e+002, 4.178863e+002
3.915581e+002, 4.171602e+002
3.920402e+002, 4.164174e+002
3.925223e+002, 4.152615e+002
3.930044e+002, 4.136784e+002
3.934865e+002, 4.120519e+002
3.939687e+002, 4.105301e+002
3.944508e+002, 4.090619e+002
3.949329e+002, 4.075156e+002
3.954150e+002, 4.058348e+002
3.958971e+002, 4.043317e+002
3.963792e+002, 4.032723e+002
3.968614e+002, 4.026630e+002
3.973435e+002, 4.022602e+002
3.978256e+002, 4.023556e+002
3.983077e+002, 4.023821e+002
3.987898e+002, 4.020001e+002
3.992719e+002, 4.012349e+002
3.997540e+002, 4.001757e+002
4.002361e+002, 3.988143e+002
4.007183e+002, 3.972696e+002
4.012004e+002, 3.959038e+002
4.016825e+002, 3.947174e+002
4.021646e+002, 3.936665e+002
4.026467e+002, 3.928221e+002
4.031288e+002, 3.920739e+002
4.036110e+002, 3.914034e+002
4.040931e+002, 3.907824e+002
4.045752e+002, 3.899381e+002
4.050573e+002, 3.884785e+002
4.055394e+002, 3.861972e+002
4.060215e+002, 3.844095e+002
4.065037e+002, 3.835094e+002
4.069858e+002, 3.826702e+002
4.074679e+002, 3.812671e+002
4.079500e+002, 3.795721e+002
4.084321e+002, 3.784081e+002
4.089142e+002, 3.783524e+002
4.093964e+002, 3.790479e+002
4.098785e+002, 3.788389e+002
4.103606e+002, 3.769001e+002
4.108427e+002, 3.750626e+002
4.113248e+002, 3.733215e+002
4.118069e+002, 3.718275e+002
4.122891e+002, 3.708574e+002
4.127712e+002, 3.704199e+002
4.132533e+002, 3.700593e+002
4.137354e+002, 3.690469e+002
4.142175e+002, 3.670363e+002
4.146996e+002, 3.657514e+002
4.151818e+002, 3.661769e+002
4.156639e+002, 3.664321e+002
4.161460e+002, 3.657289e+002
4.166281e+002, 3.642524e+002
4.171102e+002, 3.625499e+002
4.175923e+002, 3.608677e+002
4.180745e+002, 3.593002e+002
4.185566e+002, 3.582359e+002
4.190387e+002, 3.580309e+002
4.195208e+002, 3.575464e+002
4.200029e+002, 3.562929e+002
4.204850e+002, 3.547029e+002
4.209672e+002, 3.530821e+002
4.214493e+002, 3.514969e+002
4.219314e+002, 3.500949e+002
4.224135e+002, 3.492328e+002
4.228956e+002, 3.488643e+002
4.233777e+002, 3.479254e+002
4.238599e+002, 3.458324e+002
4.243420e+002, 3.437300e+002
4.248241e+002, 3.426383e+002
4.253062e+002, 3.422975e+002
4.257883e+002, 3.417538e+002
4.262704e+002, 3.405205e+002
4.267526e+002, 3.388948e+002
4.272347e+002, 3.373781e+002
4.277168e+002, 3.359866e+002
4.281989e+002, 3.342772e+002
4.286810e+002, 3.317255e+002
4.291631e+002, 3.288620e+002
4.296453e+002, 3.268744e+002
4.301274e+002, 3.261157e+002
4.306095e+002, 3.254323e+002
4.310916e+002, 3.242455e+002
4.315737e+002, 3.227370e+002
4.320558e+002, 3.212138e+002
4.325380e+002, 3.197398e+002
4.330201e+002, 3.183947e+002
4.335022e+002, 3.173435e+002
4.339843e+002, 3.166490e+002
4.344664e+002, 3.156718e+002
4.349485e+002, 3.140543e+002
4.354307e+002, 3.124306e+002
4.359128e+002, 3.112451e+002
4.363949e+002, 3.104337e+002
4.368770e+002, 3.096734e+002
4.373591e+002, 3.087592e+002
4.378412e+002, 3.077918e+002
4.383234e+002, 3.071752e+002
4.388055e+002, 3.070456e+002
4.392876e+002, 3.071071e+002
4.397697e+002, 3.076046e+002
4.402518e+002, 3.081388e+002
4.407339e+002, 3.083066e+002
4.412160e+002, 3.080439e+002
4.416982e+002, 3.075798e+002
4.421803e+002, 3.071307e+002
4.426624e+002, 3.066528e+002
4.431445e+002, 3.065128e+002
4.436266e+002, 3.072101e+002
4.441087e+002, 3.077318e+002
4.445909e+002, 3.076571e+002
4.450730e+002, 3.072162e+002
4.455551e+002, 3.067834e+002
4.460372e+002, 3.065411e+002
4.465193e+002, 3.064671e+002
4.470014e+002, 3.065675e+002
4.474836e+002, 3.069693e+002
4.479657e+002, 3.071634e+002
4.484478e+002, 3.070736e+002
4.489299e+002, 3.067293e+002
4.494120e+002, 3.058461e+002
4.498941e+002, 3.045502e+002
4.503763e+002, 3.036793e+002
4.508584e+002, 3.041656e+002
4.513405e+002, 3.056650e+002
4.518226e+002, 3.066826e+002
4.523047e+002, 3.070524e+002
4.527868e+002, 3.072740e+002
4.532690e+002, 3.075534e+002
4.537511e+002, 3.078885e+002
4.542332e+002, 3.082688e+002
4.547153e+002, 3.086272e+002
4.551974e+002, 3.091514e+002
4.556795e+002, 3.100667e+002
4.561617e+002, 3.113001e+002
4.566438e+002, 3.125294e+002
4.571259e+002, 3.136254e+002
4.576080e+002, 3.147755e+002
4.580901e+002, 3.163217e+002
4.585722e+002, 3.182619e+002
4.590544e+002, 3.200386e+002
4.595365e+002, 3.211653e+002
4.600186e+002, 3.223647e+002
4.605007e+002, 3.245936e+002
4.609828e+002, 3.276444e+002
4.614649e+002, 3.302477e+002
4.619471e+002, 3.316302e+002
4.624292e+002, 3.319823e+002
4.629113e+002, 3.320963e+002
4.633934e+002, 3.326276e+002
4.638755e+002, 3.320948e+002
4.643576e+002, 3.297533e+002
4.648398e+002, 3.265701e+002
4.653219e+002, 3.233333e+002
4.658040e+002, 3.202809e+002
4.662861e+002, 3.175791e+002
4.667682e+002, 3.155162e+002
4.672503e+002, 3.142147e+002
4.677325e+002, 3.121825e+002
4.682146e+002, 3.085175e+002
4.686967e+002, 3.050710e+002
4.691788e+002, 3.022395e+002
4.696609e+002, 2.999733e+002
4.701430e+002, 2.982436e+002
4.706252e+002, 2.970514e+002
4.711073e+002, 2.961490e+002
4.715894e+002, 2.951414e+002
4.720715e+002, 2.940450e+002
4.725536e+002, 2.927782e+002
4.730357e+002, 2.910121e+002
4.735179e+002, 2.893555e+002
4.740000e+002, 2.881895e+002
4.744821e+002, 2.874661e+002
4.749642e+002, 2.868719e+002
4.754463e+002, 2.861992e+002
4.759284e+002, 2.855469e+002
4.764106e+002, 2.851923e+002
4.768927e+002, 2.851984e+002
4.773748e+002, 2.850988e+002
4.778569e+002, 2.845122e+002
4.783390e+002, 2.837829e+002
4.788211e+002, 2.835140e+002
4.793033e+002, 2.838876e+002
4.797854e+002, 2.841349e+002
4.802675e+002, 2.838374e+002
4.807496e+002, 2.831601e+002
4.812317e+002, 2.822866e+002
4.817138e+002, 2.812305e+002
4.821959e+002, 2.803535e+002
4.826780e+002, 2.799993e+002
4.831602e+002, 2.801783e+002
4.836423e+002, 2.804007e+002
4.841244e+002, 2.809113e+002
4.846065e+002, 2.811992e+002
4.850886e+002, 2.808579e+002
4.855707e+002, 2.801944e+002
4.860529e+002, 2.797443e+002
4.865350e+002, 2.797060e+002
4.870171e+002, 2.799147e+002
4.874992e+002, 2.801493e+002
4.879813e+002, 2.806264e+002
4.884634e+002, 2.805053e+002
4.889456e+002, 2.792671e+002
4.894277e+002, 2.780327e+002
4.899098e+002, 2.774141e+002
4.903919e+002, 2.772429e+002
4.908740e+002, 2.770493e+002
4.913561e+002, 2.765562e+002
4.918383e+002, 2.758453e+002
4.923204e+002, 2.750493e+002
4.928025e+002, 2.739478e+002
4.932846e+002, 2.733788e+002
4.937667e+002, 2.741490e+002
4.942488e+002, 2.750613e+002
4.947310e+002, 2.752738e+002
4.952131e+002, 2.747755e+002
4.956952e+002, 2.741844e+002
4.961773e+002, 2.739939e+002
4.966594e+002, 2.740303e+002
4.971415e+002, 2.737671e+002
4.976237e+002, 2.731171e+002
4.981058e+002, 2.725244e+002
4.985879e+002, 2.722166e+002
4.990700e+002, 2.721317e+002
4.995521e+002, 2.721280e+002
5.000342e+002, 2.721811e+002
5.005164e+002, 2.723566e+002
5.009985e+002, 2.726425e+002
5.014806e+002, 2.730848e+002
5.019627e+002, 2.738763e+002
5.024448e+002, 2.750610e+002
5.029269e+002, 2.761922e+002
5.034091e+002, 2.767938e+002
5.038912e+002, 2.768458e+002
5.043733e+002, 2.771938e+002
5.048554e+002, 2.780791e+002
5.053375e+002, 2.789549e+002
5.058196e+002, 2.796127e+002
5.063018e+002, 2.801417e+002
5.067839e+002, 2.806570e+002
5.072660e+002, 2.812058e+002
5.077481e+002, 2.818196e+002
5.082302e+002, 2.825506e+002
5.087123e+002, 2.834302e+002
5.091945e+002, 2.843155e+002
5.096766e+002, 2.852577e+002
5.101587e+002, 2.861512e+002
5.106408e+002, 2.870779e+002
5.111229e+002, 2.879114e+002
5.116050e+002, 2.884262e+002
5.120872e+002, 2.884981e+002
5.125693e+002, 2.882369e+002
5.130514e+002, 2.878563e+002
5.135335e+002, 2.873765e+002
5.140156e+002, 2.866002e+002
5.144977e+002, 2.853670e+002
5.149799e+002, 2.839170e+002
5.154620e+002, 2.825245e+002
5.159441e+002, 2.811495e+002
5.164262e+002, 2.795191e+002
5.169083e+002, 2.772497e+002
5.173904e+002, 2.748078e+002
5.178726e+002, 2.728913e+002
5.183547e+002, 2.714592e+002
5.188368e+002, 2.697944e+002
5.193189e+002, 2.674241e+002
5.198010e+002, 2.647748e+002
5.202831e+002, 2.629467e+002
5.207653e+002, 2.622353e+002
5.212474e+002, 2.612715e+002
5.217295e+002, 2.595185e+002
5.222116e+002, 2.576418e+002
5.226937e+002, 2.562743e+002
5.231758e+002, 2.554039e+002
5.236580e+002, 2.546134e+002
5.241401e+002, 2.536159e+002
5.246222e+002, 2.524479e+002
5.251043e+002, 2.512480e+002
5.255864e+002, 2.496671e+002
5.260685e+002, 2.486031e+002
5.265507e+002, 2.485753e+002
5.270328e+002, 2.487541e+002
5.275149e+002, 2.484284e+002
5.279970e+002, 2.475523e+002
5.284791e+002, 2.465994e+002
5.289612e+002, 2.460183e+002
5.294434e+002, 2.457289e+002
5.299255e+002, 2.451783e+002
5.304076e+002, 2.441828e+002
5.308897e+002, 2.433602e+002
5.313718e+002, 2.431054e+002
5.318539e+002, 2.431022e+002
5.323361e+002, 2.430378e+002
5.328182e+002, 2.428558e+002
5.333003e+002, 2.426941e+002
5.337824e+002, 2.427341e+002
5.342645e+002, 2.428414e+002
5.347466e+002, 2.426509e+002
5.352288e+002, 2.420898e+002
5.357109e+002, 2.416048e+002
5.361930e+002, 2.415922e+002
5.366751e+002, 2.419527e+002
5.371572e+002, 2.420474e+002
5.376393e+002, 2.414451e+002
5.381215e+002, 2.411265e+002
5.386036e+002, 2.415766e+002
5.390857e+002, 2.423662e+002
5.395678e+002, 2.429563e+002
5.400499e+002, 2.432394e+002
5.405320e+002, 2.434738e+002
5.410142e+002, 2.439606e+002
5.414963e+002, 2.447159e+002
5.419784e+002, 2.451398e+002
5.424604e+002, 2.450225e+002
5.429426e+002, 2.447954e+002
5.434247e+002, 2.444817e+002
5.439068e+002, 2.441321e+002
5.443889e+002, 2.437370e+002
5.448710e+002, 2.433074e+002
5.453531e+002, 2.430314e+002
5.458353e+002, 2.433139e+002
5.463174e+002, 2.440696e+002
5.467995e+002, 2.441852e+002
5.472816e+002, 2.432918e+002
5.477637e+002, 2.424167e+002
5.482458e+002, 2.425821e+002
5.487280e+002, 2.431078e+002
5.492101e+002, 2.428051e+002
5.496922e+002, 2.411670e+002
5.501743e+002, 2.393513e+002
5.506564e+002, 2.378338e+002
5.511385e+002, 2.367017e+002
5.516207e+002, 2.363179e+002
5.521028e+002, 2.367780e+002
5.525849e+002, 2.372710e+002
5.530670e+002, 2.370303e+002
5.535491e+002, 2.360500e+002
5.540313e+002, 2.350973e+002
5.545134e+002, 2.341204e+002
5.549955e+002, 2.332307e+002
5.554776e+002, 2.323457e+002
5.559597e+002, 2.316102e+002
5.564418e+002, 2.313125e+002
5.569240e+002, 2.314741e+002
5.574061e+002, 2.317078e+002
5.578882e+002, 2.315857e+002
5.583703e+002, 2.311034e+002
5.588524e+002, 2.303843e+002
5.593345e+002, 2.290534e+002
5.598167e+002, 2.280430e+002
5.602988e+002, 2.279373e+002
5.607809e+002, 2.281597e+002
5.612630e+002, 2.279418e+002
5.617451e+002, 2.270525e+002
5.622272e+002, 2.261447e+002
5.627094e+002, 2.259149e+002
5.631915e+002, 2.261335e+002
5.636736e+002, 2.259354e+002
5.641557e+002, 2.251162e+002
5.646378e+002, 2.244297e+002
5.651199e+002, 2.245360e+002
5.656021e+002, 2.252270e+002
5.660842e+002, 2.255159e+002
5.665663e+002, 2.250813e+002
5.670484e+002, 2.247099e+002
5.675305e+002, 2.249011e+002
5.680126e+002, 2.251958e+002
5.684948e+002, 2.248550e+002
5.689769e+002, 2.238410e+002
5.694590e+002, 2.229285e+002
5.699411e+002, 2.229250e+002
5.704232e+002, 2.237520e+002
5.709053e+002, 2.238792e+002
5.713875e+002, 2.225512e+002
5.718696e+002, 2.215244e+002
5.723517e+002, 2.211807e+002
5.728338e+002, 2.211696e+002
5.733159e+002, 2.212314e+002
5.737980e+002, 2.212913e+002
5.742802e+002, 2.212974e+002
5.747623e+002, 2.211920e+002
5.752444e+002, 2.209934e+002
5.757265e+002, 2.207641e+002
5.762086e+002, 2.204891e+002
5.766907e+002, 2.202518e+002
5.771729e+002, 2.201616e+002
5.776550e+002, 2.200918e+002
5.781371e+002, 2.197598e+002
5.786192e+002, 2.190263e+002
5.791013e+002, 2.186418e+002
5.795834e+002, 2.193380e+002
5.800656e+002, 2.202658e+002
5.805477e+002, 2.204214e+002
5.810298e+002, 2.197903e+002
5.815119e+002, 2.188455e+002
5.819940e+002, 2.177920e+002
5.824761e+002, 2.168257e+002
5.829583e+002, 2.166339e+002
5.834404e+002, 2.181089e+002
5.839225e+002, 2.190071e+002
5.844046e+002, 2.189364e+002
5.848867e+002, 2.186115e+002
5.853688e+002, 2.184560e+002
5.858510e+002, 2.184744e+002
5.863331e+002, 2.184812e+002
5.868152e+002, 2.183406e+002
5.872973e+002, 2.181525e+002
5.877794e+002, 2.181958e+002
5.882615e+002, 2.185237e+002
5.887437e+002, 2.187063e+002
5.892258e+002, 2.185630e+002
5.897079e+002, 2.183230e+002
5.901900e+002, 2.182388e+002
5.906721e+002, 2.182749e+002
5.911542e+002, 2.181922e+002
5.916364e+002, 2.177594e+002
5.921185e+002, 2.173166e+002
5.926006e+002, 2.172436e+002
5.930827e+002, 2.174105e+002
5.935648e+002, 2.173956e+002
5.940469e+002, 2.170379e+002
5.945291e+002, 2.165518e+002
5.950112e+002, 2.162171e+002
5.954933e+002, 2.160298e+002
5.959754e+002, 2.160345e+002
5.964575e+002, 2.165166e+002
5.969396e+002, 2.168480e+002
5.974218e+002, 2.165355e+002
5.979039e+002, 2.160349e+002
5.983860e+002, 2.160531e+002
5.988681e+002, 2.168189e+002
5.993502e+002, 2.178476e+002
5.998323e+002, 2.186018e+002
6.003145e+002, 2.190882e+002
6.007966e+002, 2.194564e+002
6.012787e+002, 2.197724e+002
6.017608e+002, 2.198313e+002
6.022429e+002, 2.191004e+002
6.027250e+002, 2.181593e+002
6.032072e+002, 2.179962e+002
6.036893e+002, 2.189815e+002
6.041714e+002, 2.199787e+002
6.046535e+002, 2.204368e+002
6.051356e+002, 2.205458e+002
6.056177e+002, 2.204862e+002
6.060999e+002, 2.203168e+002
6.065820e+002, 2.202536e+002
6.070641e+002, 2.204741e+002
6.075462e+002, 2.209026e+002
6.080283e+002, 2.211929e+002
6.085104e+002, 2.210532e+002
6.089926e+002, 2.212022e+002
6.094747e+002, 2.219994e+002
6.099568e+002, 2.228156e+002
6.104389e+002, 2.231192e+002
6.109210e+002, 2.230137e+002
6.114031e+002, 2.229930e+002
6.118853e+002, 2.233772e+002
6.123674e+002, 2.240244e+002
6.128495e+002, 2.246909e+002
6.133316e+002, 2.253939e+002
6.138137e+002, 2.259107e+002
6.142958e+002, 2.259570e+002
6.147780e+002, 2.261100e+002
6.152601e+002, 2.271332e+002
6.157422e+002, 2.288638e+002
6.162243e+002, 2.303126e+002
6.167064e+002, 2.312305e+002
6.171885e+002, 2.318552e+002
6.176707e+002, 2.320291e+002
6.181528e+002, 2.320738e+002
6.186349e+002, 2.327430e+002
6.191170e+002, 2.342384e+002
6.195991e+002, 2.358867e+002
6.200812e+002, 2.368215e+002
6.205634e+002, 2.369553e+002
6.210455e+002, 2.377594e+002
6.215276e+002, 2.398534e+002
6.220097e+002, 2.418848e+002
6.224918e+002, 2.434715e+002
6.229739e+002, 2.449133e+002
6.234561e+002, 2.466059e+002
6.239382e+002, 2.485833e+002
6.244203e+002, 2.503830e+002
6.249023e+002, 2.513799e+002
6.253845e+002, 2.519396e+002
6.258666e+002, 2.530421e+002
6.263487e+002, 2.547330e+002
6.268308e+002, 2.567178e+002
6.273129e+002, 2.589560e+002
6.277950e+002, 2.613316e+002
6.282772e+002, 2.637115e+002
6.287593e+002, 2.661685e+002
6.292414e+002, 2.682985e+002
6.297235e+002, 2.696444e+002
6.302056e+002, 2.710060e+002
6.306877e+002, 2.728033e+002
6.311699e+002, 2.750893e+002
6.316520e+002, 2.779727e+002
6.321341e+002, 2.814920e+002
6.326162e+002, 2.852887e+002
6.330983e+002, 2.887873e+002
6.335804e+002, 2.920054e+002
6.340626e+002, 2.948859e+002
6.345447e+002, 2.970776e+002
6.350268e+002, 2.993738e+002
6.355089e+002, 3.022108e+002
6.359910e+002, 3.053287e+002
6.364731e+002, 3.083201e+002
6.369553e+002, 3.110434e+002
6.374374e+002, 3.137915e+002
6.379195e+002, 3.168224e+002
6.384016e+002, 3.199813e+002
6.388837e+002, 3.231075e+002
6.393658e+002, 3.261522e+002
6.398480e+002, 3.288558e+002
6.403301e+002, 3.310216e+002
6.408122e+002, 3.327466e+002
6.412943e+002, 3.343653e+002
6.417764e+002, 3.353131e+002
6.422585e+002, 3.370138e+002
6.427407e+002, 3.399351e+002
6.432228e+002, 3.431794e+002
6.437049e+002, 3.460838e+002
6.441870e+002, 3.488397e+002
6.446691e+002, 3.520927e+002
6.451512e+002, 3.561966e+002
6.456334e+002, 3.607968e+002
6.461155e+002, 3.651471e+002
6.465976e+002, 3.692581e+002
6.470797e+002, 3.743734e+002
6.475618e+002, 3.809017e+002
6.480439e+002, 3.879560e+002
6.485261e+002, 3.950912e+002
6.490082e+002, 4.022241e+002
6.494903e+002, 4.088462e+002
6.499724e+002, 4.144394e+002
6.504545e+002, 4.202606e+002
6.509366e+002, 4.271483e+002
6.514188e+002, 4.343180e+002
6.519009e+002, 4.410379e+002
6.523830e+002, 4.470793e+002
6.528651e+002, 4.521703e+002
6.533472e+002, 4.560972e+002
6.538293e+002, 4.589357e+002
6.543115e+002, 4.610844e+002
6.547936e+002, 4.629198e+002
6.552757e+002, 4.631185e+002
6.557578e+002, 4.612509e+002
6.562399e+002, 4.578078e+002
6.567220e+002, 4.527376e+002
6.572042e+002, 4.462303e+002
6.576863e+002, 4.387943e+002
6.581684e+002, 4.303399e+002
6.586505e+002, 4.214353e+002
6.591326e+002, 4.125088e+002
6.596147e+002, 4.035807e+002
6.600969e+002, 3.944860e+002
6.605790e+002, 3.852021e+002
6.610611e+002, 3.761290e+002
6.615432e+002, 3.674942e+002
6.620253e+002, 3.593313e+002
6.625074e+002, 3.521625e+002
6.629896e+002, 3.467449e+002
6.634717e+002, 3.413483e+002
6.639538e+002, 3.351034e+002
6.644359e+002, 3.293549e+002
6.649180e+002, 3.254187e+002
6.654001e+002, 3.230507e+002
6.658823e+002, 3.209482e+002
6.663644e+002, 3.183267e+002
6.668465e+002, 3.154505e+002
6.673286e+002, 3.128082e+002
6.678107e+002, 3.103882e+002
6.682928e+002, 3.077498e+002
6.687750e+002, 3.047408e+002
6.692571e+002, 3.016543e+002
6.697392e+002, 2.988105e+002
6.702213e+002, 2.961721e+002
6.707034e+002, 2.934630e+002
6.711855e+002, 2.905903e+002
6.716677e+002, 2.877536e+002
6.721498e+002, 2.852191e+002
6.726319e+002, 2.826577e+002
6.731140e+002, 2.796053e+002
6.735961e+002, 2.760886e+002
6.740782e+002, 2.725344e+002
6.745604e+002, 2.692248e+002
6.750425e+002, 2.661535e+002
6.755246e+002, 2.632280e+002
6.760067e+002, 2.603680e+002
6.764888e+002, 2.580569e+002
6.769709e+002, 2.567897e+002
6.774531e+002, 2.556403e+002
6.779352e+002, 2.538139e+002
6.784173e+002, 2.514867e+002
6.788994e+002, 2.492811e+002
6.793815e+002, 2.472195e+002
6.798636e+002, 2.454680e+002
6.803458e+002, 2.442634e+002
6.808279e+002, 2.433810e+002
6.813100e+002, 2.424451e+002
6.817921e+002, 2.414047e+002
6.822742e+002, 2.404730e+002
6.827563e+002, 2.398661e+002
6.832385e+002, 2.394627e+002
6.837206e+002, 2.385862e+002
6.842027e+002, 2.367638e+002
6.846848e+002, 2.355043e+002
6.851669e+002, 2.355176e+002
6.856490e+002, 2.357063e+002
6.861312e+002, 2.355222e+002
6.866133e+002, 2.349904e+002
6.870954e+002, 2.342995e+002
6.875775e+002, 2.335215e+002
6.880596e+002, 2.326046e+002
6.885417e+002, 2.312851e+002
6.890239e+002, 2.298294e+002
6.895060e+002, 2.290909e+002
6.899881e+002, 2.291893e+002
6.904702e+002, 2.289687e+002
6.909523e+002, 2.274446e+002
6.914344e+002, 2.249039e+002
6.919166e+002, 2.227584e+002
6.923987e+002, 2.212228e+002
6.928808e+002, 2.197552e+002
6.933629e+002, 2.183069e+002
6.938450e+002, 2.169421e+002
6.943271e+002, 2.157119e+002
6.948093e+002, 2.145901e+002
6.952914e+002, 2.135486e+002
6.957735e+002, 2.126313e+002
6.962556e+002, 2.116104e+002
6.967377e+002, 2.099386e+002
6.972198e+002, 2.079279e+002
6.977020e+002, 2.067957e+002
6.981841e+002, 2.067809e+002
6.986662e+002, 2.069101e+002
6.991483e+002, 2.065228e+002
6.996304e+002, 2.057423e+002
7.001125e+002, 2.050400e+002
7.005947e+002, 2.044066e+002
7.010768e+002, 2.038792e+002
7.015589e+002, 2.033954e+002
7.020410e+002, 2.030789e+002
7.025231e+002, 2.031508e+002
7.030052e+002, 2.034288e+002
7.034874e+002, 2.034792e+002
7.039695e+002, 2.030868e+002
7.044516e+002, 2.026967e+002
7.049337e+002, 2.029773e+002
7.054158e+002, 2.037688e+002
7.058979e+002, 2.043307e+002
7.063801e+002, 2.046070e+002
7.068622e+002, 2.045213e+002
7.073442e+002, 2.038795e+002
7.078264e+002, 2.029513e+002
7.083085e+002, 2.024190e+002
7.087906e+002, 2.023435e+002
7.092727e+002, 2.024740e+002
7.097548e+002, 2.031069e+002
7.102369e+002, 2.036344e+002
7.107191e+002, 2.036715e+002
7.112012e+002, 2.033511e+002
7.116833e+002, 2.029130e+002
7.121654e+002, 2.024469e+002
7.126475e+002, 2.019998e+002
7.131296e+002, 2.017273e+002
7.136118e+002, 2.015479e+002
7.140939e+002, 2.008870e+002
7.145760e+002, 1.996270e+002
7.150581e+002, 1.985749e+002
7.155402e+002, 1.981726e+002
7.160223e+002, 1.981159e+002
7.165045e+002, 1.978960e+002
7.169866e+002, 1.974804e+002
7.174687e+002, 1.971264e+002
7.179508e+002, 1.969696e+002
7.184329e+002, 1.967580e+002
7.189150e+002, 1.963075e+002
7.193972e+002, 1.957474e+002
7.198793e+002, 1.953074e+002
7.203614e+002, 1.950254e+002
7.208435e+002, 1.946641e+002
7.213256e+002, 1.938741e+002
7.218077e+002, 1.928408e+002
7.222899e+002, 1.923716e+002
7.227720e+002, 1.925332e+002
7.232541e+002, 1.926953e+002
7.237362e+002, 1.927228e+002
7.242183e+002, 1.925765e+002
7.247004e+002, 1.921560e+002
7.251826e+002, 1.914642e+002
7.256647e+002, 1.908220e+002
7.261468e+002, 1.899812e+002
7.266289e+002, 1.895085e+002
7.271110e+002, 1.898952e+002
7.275931e+002, 1.905882e+002
7.280753e+002, 1.909472e+002
7.285574e+002, 1.909224e+002
7.290395e+002, 1.909069e+002
7.295216e+002, 1.912365e+002
7.300037e+002, 1.916746e+002
7.304858e+002, 1.916432e+002
7.309680e+002, 1.911273e+002
7.314501e+002, 1.905247e+002
7.319322e+002, 1.898196e+002
7.324143e+002, 1.892557e+002
7.328964e+002, 1.890774e+002
7.333785e+002, 1.892241e+002
7.338607e+002, 1.893303e+002
7.343428e+002, 1.893188e+002
7.348249e+002, 1.893838e+002
7.353070e+002, 1.895690e+002
7.357891e+002, 1.898421e+002
7.362712e+002, 1.902395e+002
7.367534e+002, 1.907001e+002
7.372355e+002, 1.910912e+002
7.377176e+002, 1.913515e+002
7.381997e+002, 1.915024e+002
7.386818e+002, 1.914759e+002
7.391639e+002, 1.913176e+002
7.396461e+002, 1.915503e+002
7.401282e+002, 1.923188e+002
7.406103e+002, 1.930006e+002
7.410924e+002, 1.932384e+002
7.415745e+002, 1.931759e+002
7.420566e+002, 1.930884e+002
7.425388e+002, 1.929096e+002
7.430209e+002, 1.929307e+002
7.435030e+002, 1.933223e+002
7.439851e+002, 1.937673e+002
7.444672e+002, 1.940578e+002
7.449493e+002, 1.943071e+002
7.454315e+002, 1.947123e+002
7.459136e+002, 1.953216e+002
7.463957e+002, 1.960174e+002
7.468778e+002, 1.967416e+002
7.473599e+002, 1.974513e+002
7.478420e+002, 1.979646e+002
7.483242e+002, 1.982761e+002
7.488063e+002, 1.986222e+002
7.492884e+002, 1.990210e+002
7.497705e+002, 1.996372e+002
7.502526e+002, 2.007562e+002
7.507347e+002, 2.024140e+002
7.512169e+002, 2.037888e+002
7.516990e+002, 2.049131e+002
7.521811e+002, 2.057365e+002
7.526632e+002, 2.058838e+002
7.531453e+002, 2.059930e+002
7.536274e+002, 2.066560e+002
7.541096e+002, 2.078552e+002
7.545917e+002, 2.092139e+002
7.550738e+002, 2.105429e+002
7.555559e+002, 2.118979e+002
7.560380e+002, 2.133766e+002
7.565201e+002, 2.149545e+002
7.570023e+002, 2.164643e+002
7.574844e+002, 2.178737e+002
7.579665e+002, 2.193425e+002
7.584486e+002, 2.209344e+002
7.589307e+002, 2.227227e+002
7.594128e+002, 2.249781e+002
7.598950e+002, 2.281342e+002
7.603771e+002, 2.309855e+002
7.608592e+002, 2.331980e+002
7.613413e+002, 2.354652e+002
7.618234e+002, 2.380808e+002
7.623055e+002, 2.409746e+002
7.627877e+002, 2.440866e+002
7.632698e+002, 2.474044e+002
7.637519e+002, 2.506521e+002
7.642340e+002, 2.534771e+002
7.647161e+002, 2.561807e+002
7.651982e+002, 2.592892e+002
7.656804e+002, 2.627661e+002
7.661625e+002, 2.662320e+002
7.666446e+002, 2.695652e+002
7.671267e+002, 2.727217e+002
7.676088e+002, 2.756650e+002
7.680909e+002, 2.784316e+002
7.685731e+002, 2.805004e+002
7.690552e+002, 2.812196e+002
7.695373e+002, 2.823209e+002
7.700194e+002, 2.848527e+002
7.705015e+002, 2.873642e+002
7.709836e+002, 2.886756e+002
7.714658e+002, 2.888764e+002
7.719479e+002, 2.887842e+002
7.724300e+002, 2.886519e+002
7.729121e+002, 2.883513e+002
7.733942e+002, 2.878130e+002
7.738763e+002, 2.870422e+002
7.743585e+002, 2.859928e+002
7.748406e+002, 2.846974e+002
7.753227e+002, 2.833875e+002
7.758048e+002, 2.822488e+002
7.762869e+002, 2.809982e+002
7.767690e+002, 2.788000e+002
7.772512e+002, 2.754185e+002
7.777333e+002, 2.726910e+002
7.782154e+002, 2.710312e+002
7.786975e+002, 2.694813e+002
7.791796e+002, 2.675220e+002
7.796617e+002, 2.653556e+002
7.801439e+002, 2.633861e+002
7.806260e+002, 2.616904e+002
7.811081e+002, 2.597758e+002
7.815902e+002, 2.574133e+002
7.820723e+002, 2.549037e+002
7.825544e+002, 2.521876e+002
7.830366e+002, 2.495335e+002
7.835187e+002, 2.474494e+002
7.840008e+002, 2.460124e+002
7.844829e+002, 2.447167e+002
7.849650e+002, 2.430674e+002
7.854471e+002, 2.412205e+002
7.859293e+002, 2.396664e+002
7.864114e+002, 2.384133e+002
7.868935e+002, 2.372777e+002
7.873756e+002, 2.362405e+002
7.878577e+002, 2.352249e+002
7.883398e+002, 2.340938e+002
7.888220e+002, 2.329060e+002
7.893040e+002, 2.321941e+002
7.897861e+002, 2.323454e+002
7.902682e+002, 2.323920e+002
7.907504e+002, 2.323345e+002
7.912325e+002, 2.320877e+002
7.917146e+002, 2.315106e+002
7.921967e+002, 2.307198e+002
7.926788e+002, 2.298901e+002
7.931609e+002, 2.290577e+002
7.936431e+002, 2.284508e+002
7.941252e+002, 2.284470e+002
7.946073e+002, 2.287307e+002
7.950894e+002, 2.287020e+002
7.955715e+002, 2.283635e+002
7.960536e+002, 2.279478e+002
7.965358e+002, 2.275301e+002
7.970179e+002, 2.272686e+002
7.975000e+002, 2.273858e+002
7.979821e+002, 2.278911e+002
7.984642e+002, 2.286111e+002
7.989464e+002, 2.298504e+002
7.994285e+002, 2.307558e+002
7.999106e+002, 2.307587e+002
8.003927e+002, 2.306309e+002
8.008748e+002, 2.309285e+002
8.013569e+002, 2.316085e+002
8.018391e+002, 2.323451e+002
8.023212e+002, 2.329388e+002
8.028033e+002, 2.337410e+002
8.032854e+002, 2.351983e+002
8.037675e+002, 2.367924e+002
8.042496e+002, 2.379086e+002
8.047318e+002, 2.385512e+002
8.052139e+002, 2.389350e+002
8.056960e+002, 2.391407e+002
8.061781e+002, 2.395656e+002
8.066602e+002, 2.410488e+002
8.071423e+002, 2.434883e+002
8.076245e+002, 2.453216e+002
8.081066e+002, 2.463388e+002
8.085887e+002, 2.475640e+002
8.090708e+002, 2.495235e+002
8.095529e+002, 2.518125e+002
8.100350e+002, 2.538276e+002
8.105172e+002, 2.555158e+002
8.109993e+002, 2.572660e+002
8.114814e+002, 2.590016e+002
8.119635e+002, 2.608854e+002
8.124456e+002, 2.630493e+002
8.129277e+002, 2.653135e+002
8.134099e+002, 2.674394e+002
8.138920e+002, 2.694680e+002
8.143741e+002, 2.716715e+002
8.148562e+002, 2.742454e+002
8.153383e+002, 2.769085e+002
8.158204e+002, 2.791497e+002
8.163026e+002, 2.812857e+002
8.167847e+002, 2.841347e+002
8.172668e+002, 2.877181e+002
8.177489e+002, 2.913237e+002
8.182310e+002, 2.945390e+002
8.187131e+002, 2.975801e+002
8.191953e+002, 3.009794e+002
8.196774e+002, 3.049383e+002
8.201595e+002, 3.078878e+002
8.206416e+002, 3.091053e+002
8.211237e+002, 3.107254e+002
8.216058e+002, 3.139189e+002
8.220880e+002, 3.176391e+002
8.225701e+002, 3.207656e+002
8.230522e+002, 3.233000e+002
8.235343e+002, 3.256385e+002
8.240164e+002, 3.276143e+002
8.244985e+002, 3.296859e+002
8.249807e+002, 3.320780e+002
8.254628e+002, 3.346677e+002
8.259449e+002, 3.374061e+002
8.264270e+002, 3.402050e+002
8.269091e+002, 3.428362e+002
8.273912e+002, 3.451632e+002
8.278734e+002, 3.473736e+002
8.283555e+002, 3.496773e+002
8.288376e+002, 3.520934e+002
8.293197e+002, 3.546981e+002
8.298018e+002, 3.574831e+002
8.302839e+002, 3.604658e+002
8.307661e+002, 3.636309e+002
8.312482e+002, 3.670396e+002
8.317303e+002, 3.708432e+002
8.322124e+002, 3.750594e+002
8.326945e+002, 3.793800e+002
8.331766e+002, 3.835069e+002
8.336588e+002, 3.881423e+002
8.341409e+002, 3.935432e+002
8.346230e+002, 3.993544e+002
8.351051e+002, 4.053827e+002
8.355872e+002, 4.115955e+002
8.360693e+002, 4.180190e+002
8.365515e+002, 4.245636e+002
8.370336e+002, 4.314639e+002
8.375157e+002, 4.386552e+002
8.379978e+002, 4.464373e+002
8.384799e+002, 4.554571e+002
8.389620e+002, 4.654275e+002
8.394442e+002, 4.752379e+002
8.399263e+002, 4.843421e+002
8.404084e+002, 4.937106e+002
8.408905e+002, 5.046346e+002
8.413726e+002, 5.169285e+002
8.418547e+002, 5.295132e+002
8.423369e+002, 5.423149e+002
8.428190e+002, 5.552099e+002
8.433011e+002, 5.679481e+002
8.437832e+002, 5.810078e+002
8.442653e+002, 5.947587e+002
8.447474e+002, 6.092293e+002
8.452296e+002, 6.247461e+002
8.457117e+002, 6.420173e+002
8.461938e+002, 6.592119e+002
8.466759e+002, 6.761348e+002
8.471580e+002, 6.930091e+002
8.476401e+002, 7.097730e+002
8.481223e+002, 7.267078e+002
8.486044e+002, 7.446351e+002
8.490865e+002, 7.640636e+002
8.495686e+002, 7.831025e+002
8.500507e+002, 8.009791e+002
8.505328e+002, 8.178723e+002
8.510150e+002, 8.343217e+002
8.514971e+002, 8.500191e+002
8.519792e+002, 8.643192e+002
8.524613e+002, 8.769283e+002
8.529434e+002, 8.880458e+002
8.534255e+002, 8.977732e+002
8.539077e+002, 9.060142e+002
8.543898e+002, 9.122678e+002
8.548719e+002, 9.165481e+002
8.553540e+002, 9.192386e+002
8.558361e+002, 9.202604e+002
8.563182e+002, 9.203470e+002
8.568004e+002, 9.201807e+002
8.572825e+002, 9.193850e+002
8.577646e+002, 9.167296e+002
8.582467e+002, 9.119567e+002
8.587288e+002, 9.058428e+002
8.592109e+002, 8.972968e+002
8.596931e+002, 8.887264e+002
8.601752e+002, 8.804984e+002
8.606573e+002, 8.729442e+002
8.611394e+002, 8.668104e+002
8.616215e+002, 8.620392e+002
8.621036e+002, 8.566533e+002
8.625858e+002, 8.490992e+002
8.630679e+002, 8.414170e+002
8.635500e+002, 8.354798e+002
8.640321e+002, 8.300458e+002
8.645142e+002, 8.233919e+002
8.649963e+002, 8.153976e+002
8.654785e+002, 8.069283e+002
8.659606e+002, 7.984193e+002
8.664427e+002, 7.901756e+002
8.669248e+002, 7.828811e+002
8.674069e+002, 7.763685e+002
8.678890e+002, 7.696904e+002
8.683712e+002, 7.628013e+002
8.688533e+002, 7.556964e+002
8.693354e+002, 7.481819e+002
8.698175e+002, 7.410139e+002
8.702996e+002, 7.353250e+002
8.707817e+002, 7.311140e+002
8.712639e+002, 7.270038e+002
8.717459e+002, 7.226367e+002
8.722280e+002, 7.190009e+002
8.727101e+002, 7.161920e+002
8.731923e+002, 7.142734e+002
8.736744e+002, 7.136389e+002
8.741565e+002, 7.139034e+002
8.746386e+002, 7.140338e+002
8.751207e+002, 7.135400e+002
8.756028e+002, 7.139311e+002
8.760850e+002, 7.158123e+002
8.765671e+002, 7.186865e+002
8.770492e+002, 7.224200e+002
8.775313e+002, 7.268007e+002
8.780134e+002, 7.315648e+002
8.784955e+002, 7.366335e+002
8.789777e+002, 7.420949e+002
8.794598e+002, 7.481541e+002
8.799419e+002, 7.544871e+002
8.804240e+002, 7.607164e+002
8.809061e+002, 7.667908e+002
8.813882e+002, 7.725619e+002
8.818704e+002, 7.779864e+002
8.823525e+002, 7.826866e+002
8.828346e+002, 7.863614e+002
8.833167e+002, 7.893410e+002
8.837988e+002, 7.924916e+002
8.842809e+002, 7.960932e+002
8.847631e+002, 7.977202e+002
8.852452e+002, 7.968992e+002
8.857273e+002, 7.952772e+002
8.862094e+002, 7.936401e+002
8.866915e+002, 7.912248e+002
8.871736e+002, 7.871501e+002
8.876558e+002, 7.814445e+002
8.881379e+002, 7.745253e+002
8.886200e+002, 7.661523e+002
8.891021e+002, 7.569325e+002
8.895842e+002, 7.472932e+002
8.900663e+002, 7.364875e+002
8.905485e+002, 7.239207e+002
8.910306e+002, 7.098314e+002
8.915127e+002, 6.947036e+002
8.919948e+002, 6.785451e+002
8.924769e+002, 6.620215e+002
8.929590e+002, 6.452847e+002
8.934412e+002, 6.285740e+002
8.939233e+002, 6.121179e+002
8.944054e+002, 5.959512e+002
8.948875e+002, 5.803086e+002
8.953696e+002, 5.652853e+002
8.958517e+002, 5.506518e+002
8.963339e+002, 5.362592e+002
8.968160e+002, 5.224403e+002
8.972981e+002, 5.099984e+002
8.977802e+002, 4.988913e+002
8.982623e+002, 4.883153e+002
8.987444e+002, 4.782497e+002
8.992266e+002, 4.683221e+002
8.997087e+002, 4.582002e+002
9.001908e+002, 4.484247e+002
9.006729e+002, 4.397998e+002
9.011550e+002, 4.323594e+002
9.016371e+002, 4.252723e+002
9.021193e+002, 4.182901e+002
9.026014e+002, 4.120653e+002
9.030835e+002, 4.068331e+002
9.035656e+002, 4.022909e+002
9.040477e+002, 3.984511e+002
9.045298e+002, 3.951167e+002
9.050120e+002, 3.918431e+002
9.054941e+002, 3.885455e+002
9.059762e+002, 3.854604e+002
9.064583e+002, 3.825602e+002
9.069404e+002, 3.799997e+002
9.074225e+002, 3.781349e+002
9.079047e+002, 3.765662e+002
9.083868e+002, 3.747891e+002
9.088689e+002, 3.727140e+002
9.093510e+002, 3.704383e+002
9.098331e+002, 3.678548e+002
9.103152e+002, 3.653790e+002
9.107974e+002, 3.635834e+002
9.112795e+002, 3.621210e+002
9.117616e+002, 3.604225e+002
9.122437e+002, 3.584200e+002
9.127258e+002, 3.560829e+002
9.132079e+002, 3.533958e+002
9.136901e+002, 3.507713e+002
9.141722e+002, 3.487187e+002
9.146543e+002, 3.472115e+002
9.151364e+002, 3.459633e+002
9.156185e+002, 3.449570e+002
9.161006e+002, 3.447401e+002
9.165828e+002, 3.455513e+002
9.170649e+002, 3.466953e+002
9.175470e+002, 3.475674e+002
9.180291e+002, 3.483525e+002
9.185112e+002, 3.497596e+002
9.189933e+002, 3.521097e+002
9.194755e+002, 3.542949e+002
9.199576e+002, 3.561309e+002
9.204397e+002, 3.580691e+002
9.209218e+002, 3.601732e+002
9.214039e+002, 3.625504e+002
9.218860e+002, 3.656448e+002
9.223682e+002, 3.693799e+002
9.228503e+002, 3.720773e+002
9.233324e+002, 3.730469e+002
9.238145e+002, 3.735773e+002
9.242966e+002, 3.742956e+002
9.247787e+002, 3.744588e+002
9.252609e+002, 3.737044e+002
9.257430e+002, 3.718716e+002
9.262251e+002, 3.687158e+002
9.267072e+002, 3.641550e+002
9.271893e+002, 3.585966e+002
9.276714e+002, 3.519892e+002
9.281536e+002, 3.448393e+002
9.286357e+002, 3.376087e+002
9.291178e+002, 3.301710e+002
9.295999e+002, 3.219535e+002
9.300820e+002, 3.130556e+002
9.305641e+002, 3.046029e+002
9.310463e+002, 2.973536e+002
9.315284e+002, 2.906805e+002
9.320105e+002, 2.835797e+002
9.324926e+002, 2.762482e+002
9.329747e+002, 2.694393e+002
9.334568e+002, 2.632116e+002
9.339390e+002, 2.575849e+002
9.344211e+002, 2.526181e+002
9.349032e+002, 2.482034e+002
9.353853e+002, 2.442758e+002
9.358674e+002, 2.407818e+002
9.363495e+002, 2.373616e+002
9.368317e+002, 2.339080e+002
9.373138e+002, 2.310254e+002
9.377959e+002, 2.289576e+002
9.382780e+002, 2.270589e+002
9.387601e+002, 2.249795e+002
9.392422e+002, 2.228136e+002
9.397244e+002, 2.206141e+002
9.402065e+002, 2.182395e+002
9.406886e+002, 2.166805e+002
9.411707e+002, 2.165590e+002
9.416528e+002, 2.163608e+002
9.421349e+002, 2.157160e+002
9.426171e+002, 2.149747e+002
9.430992e+002, 2.143438e+002
9.435813e+002, 2.138330e+002
9.440634e+002, 2.134249e+002
9.445455e+002, 2.131045e+002
9.450276e+002, 2.129336e+002
9.455098e+002, 2.128568e+002
9.459919e+002, 2.130187e+002
9.464740e+002, 2.135276e+002
9.469561e+002, 2.143292e+002
9.474382e+002, 2.154986e+002
9.479203e+002, 2.169174e+002
9.484025e+002, 2.181124e+002
9.488846e+002, 2.187714e+002
9.493667e+002, 2.192768e+002
9.498488e+002, 2.199205e+002
9.503309e+002, 2.206930e+002
9.508130e+002, 2.214637e+002
9.512952e+002, 2.223537e+002
9.517773e+002, 2.238303e+002
9.522594e+002, 2.260128e+002
9.527415e+002, 2.283705e+002
9.532236e+002, 2.303933e+002
9.537057e+002, 2.322504e+002
9.541878e+002, 2.343844e+002
9.546699e+002, 2.367532e+002
9.551520e+002, 2.389846e+002
9.556342e+002, 2.410422e+002
9.561163e+002, 2.434356e+002
9.565984e+002, 2.464396e+002
9.570805e+002, 2.499973e+002
9.575626e+002, 2.540228e+002
9.580447e+002, 2.585410e+002
9.585269e+002, 2.632457e+002
9.590090e+002, 2.681355e+002
9.594911e+002, 2.733319e+002
9.599732e+002, 2.789313e+002
9.604553e+002, 2.846821e+002
9.609374e+002, 2.904424e+002
9.614196e+002, 2.961175e+002
9.619017e+002, 3.014184e+002
9.623838e+002, 3.061913e+002
9.628659e+002, 3.110487e+002
9.633480e+002, 3.164732e+002
9.638301e+002, 3.212906e+002
9.643123e+002, 3.255235e+002
9.647944e+002, 3.287607e+002
9.652765e+002, 3.306371e+002
9.657586e+002, 3.312062e+002
9.662407e+002, 3.308234e+002
9.667228e+002, 3.299363e+002
9.672050e+002, 3.272845e+002
9.676871e+002, 3.217227e+002
9.681692e+002, 3.152673e+002
9.686513e+002, 3.087422e+002
9.691334e+002, 3.022286e+002
9.696155e+002, 2.956851e+002
9.700977e+002, 2.891502e+002
9.705798e+002, 2.829218e+002
9.710619e+002, 2.770586e+002
9.715440e+002, 2.716960e+002
9.720261e+002, 2.671253e+002
9.725082e+002, 2.629358e+002
9.729904e+002, 2.585212e+002
9.734725e+002, 2.541850e+002
9.739546e+002, 2.507487e+002
9.744367e+002, 2.484152e+002
9.749188e+002, 2.464793e+002
9.754009e+002, 2.444684e+002
9.758831e+002, 2.424756e+002
9.763652e+002, 2.404180e+002
9.768473e+002, 2.385425e+002
9.773294e+002, 2.374241e+002
9.778115e+002, 2.370469e+002
9.782936e+002, 2.370182e+002
9.787758e+002, 2.371484e+002
9.792579e+002, 2.374193e+002
9.797400e+002, 2.377900e+002
9.802221e+002, 2.382910e+002
9.807042e+002, 2.390391e+002
9.811863e+002, 2.400156e+002
9.816685e+002, 2.410668e+002
9.821506e+002, 2.421598e+002
9.826327e+002, 2.434444e+002
9.831148e+002, 2.450624e+002
9.835969e+002, 2.466985e+002
9.840790e+002, 2.476483e+002
9.845612e+002, 2.479035e+002
9.850433e+002, 2.485975e+002
9.855254e+002, 2.497388e+002
9.860075e+002, 2.513152e+002
9.864896e+002, 2.533984e+002
9.869717e+002, 2.557089e+002
9.874539e+002, 2.580882e+002
9.879360e+002, 2.604562e+002
9.884181e+002, 2.625633e+002
9.889002e+002, 2.643612e+002
9.893823e+002, 2.659640e+002
9.898644e+002, 2.668562e+002
9.903466e+002, 2.685958e+002
9.908287e+002, 2.723067e+002
9.913108e+002, 2.763737e+002
9.917929e+002, 2.792896e+002
9.922750e+002, 2.812058e+002
9.927571e+002, 2.829823e+002
9.932393e+002, 2.847430e+002
9.937214e+002, 2.861397e+002
9.942035e+002, 2.871394e+002
9.946856e+002, 2.878222e+002
9.951677e+002, 2.880956e+002
9.956498e+002, 2.881514e+002
9.961320e+002, 2.883317e+002
9.966141e+002, 2.885488e+002
9.970962e+002, 2.880899e+002
9.975783e+002, 2.862403e+002
9.980604e+002, 2.846740e+002
9.985425e+002, 2.840307e+002
9.990247e+002, 2.835676e+002
9.995068e+002, 2.830133e+002
9.999889e+002, 2.822476e+002
1.000471e+003, 2.810929e+002
1.000953e+003, 2.795654e+002
1.001435e+003, 2.780070e+002
1.001917e+003, 2.765927e+002
1.002399e+003, 2.751342e+002
1.002882e+003, 2.737896e+002
1.003364e+003, 2.721357e+002
1.003846e+003, 2.695246e+002
1.004328e+003, 2.663624e+002
1.004810e+003, 2.633805e+002
1.005292e+003, 2.607781e+002
1.005774e+003, 2.584088e+002
1.006256e+003, 2.561288e+002
1.006739e+003, 2.540937e+002
1.007221e+003, 2.527847e+002
1.007703e+003, 2.516120e+002
1.008185e+003, 2.495525e+002
1.008667e+003, 2.468699e+002
1.009149e+003, 2.446658e+002
1.009631e+003, 2.432815e+002
1.010113e+003, 2.417575e+002
1.010595e+003, 2.391508e+002
1.011078e+003, 2.360474e+002
1.011560e+003, 2.332316e+002
1.012042e+003, 2.306438e+002
1.012524e+003, 2.281835e+002
1.013006e+003, 2.258039e+002
1.013488e+003, 2.233278e+002
1.013970e+003, 2.206766e+002
1.014452e+003, 2.182422e+002
1.014935e+003, 2.166846e+002
1.015417e+003, 2.154877e+002
1.015899e+003, 2.131649e+002
1.016381e+003, 2.099903e+002
1.016863e+003, 2.073219e+002
1.017345e+003, 2.053356e+002
1.017827e+003, 2.034230e+002
1.018309e+003, 2.012768e+002
1.018791e+003, 1.990247e+002
1.019274e+003, 1.967885e+002
1.019756e+003, 1.946181e+002
1.020238e+003, 1.927231e+002
1.020720e+003, 1.911055e+002
1.021202e+003, 1.895927e+002
1.021684e+003, 1.881445e+002
1.022166e+003, 1.870354e+002
1.022648e+003, 1.864709e+002
1.023130e+003, 1.860960e+002
1.023613e+003, 1.853315e+002
1.024095e+003, 1.841971e+002
1.024577e+003, 1.830613e+002
1.025059e+003, 1.819306e+002
1.025541e+003, 1.807195e+002
1.026023e+003, 1.793369e+002
1.026505e+003, 1.781680e+002
1.026987e+003, 1.774197e+002
1.027469e+003, 1.771085e+002
1.027952e+003, 1.773464e+002
1.028434e+003, 1.781703e+002
1.028916e+003, 1.786866e+002
1.029398e+003, 1.789686e+002
1.029880e+003, 1.786445e+002
1.030362e+003, 1.774699e+002
1.030844e+003, 1.760566e+002
1.031326e+003, 1.746355e+002
1.031809e+003, 1.734270e+002
1.032291e+003, 1.729601e+002
1.032773e+003, 1.733799e+002
1.033255e+003, 1.732968e+002
1.033737e+003, 1.723383e+002
1.034219e+003, 1.717092e+002
1.034701e+003, 1.717867e+002
1.035183e+003, 1.720216e+002
1.035666e+003, 1.721413e+002
1.036148e+003, 1.721192e+002
1.036630e+003, 1.718389e+002
1.037112e+003, 1.711892e+002
1.037594e+003, 1.709051e+002
1.038076e+003, 1.712341e+002
1.038558e+003, 1.715200e+002
1.039040e+003, 1.711592e+002
1.039522e+003, 1.712578e+002
1.040005e+003, 1.732550e+002
1.040487e+003, 1.759866e+002
1.040969e+003, 1.768255e+002
1.041451e+003, 1.753204e+002
1.041933e+003, 1.743361e+002
1.042415e+003, 1.742269e+002
1.042897e+003, 1.742181e+002
1.043379e+003, 1.742581e+002
1.043861e+003, 1.742686e+002
1.044344e+003, 1.741411e+002
1.044826e+003, 1.739721e+002
1.045308e+003, 1.739333e+002
1.045790e+003, 1.740335e+002
1.046272e+003, 1.742947e+002
1.046754e+003, 1.748695e+002
1.047236e+003, 1.754014e+002
1.047718e+003, 1.758152e+002
1.048201e+003, 1.761463e+002
1.048683e+003, 1.764077e+002
1.049165e+003, 1.766106e+002
1.049647e+003, 1.767522e+002
1.050129e+003, 1.768186e+002
1.050611e+003, 1.769651e+002
1.051093e+003, 1.772896e+002
1.051575e+003, 1.775997e+002
1.052057e+003, 1.777711e+002
1.052540e+003, 1.779697e+002
1.053022e+003, 1.783835e+002
1.053504e+003, 1.788839e+002
1.053986e+003, 1.793517e+002
1.054468e+003, 1.797832e+002
1.054950e+003, 1.795860e+002
1.055432e+003, 1.779163e+002
1.055914e+003, 1.765269e+002
1.056396e+003, 1.761808e+002
1.056879e+003, 1.761735e+002
1.057361e+003, 1.761154e+002
1.057843e+003, 1.759598e+002
1.058325e+003, 1.757467e+002
1.058807e+003, 1.754765e+002
1.059289e+003, 1.749445e+002
1.059771e+003, 1.737887e+002
1.060253e+003, 1.727602e+002
1.060736e+003, 1.723755e+002
1.061218e+003, 1.719943e+002
1.061700e+003, 1.710076e+002
1.062182e+003, 1.697316e+002
1.062664e+003, 1.687153e+002
1.063146e+003, 1.680438e+002
1.063628e+003, 1.675112e+002
1.064110e+003, 1.671409e+002
1.064593e+003, 1.667523e+002
1.065075e+003, 1.662240e+002
1.065557e+003, 1.656959e+002
1.066039e+003, 1.652947e+002
1.066521e+003, 1.649558e+002
1.067003e+003, 1.645063e+002
1.067485e+003, 1.639659e+002
1.067967e+003, 1.636899e+002
1.068449e+003, 1.640997e+002
1.068932e+003, 1.642903e+002
1.069414e+003, 1.634267e+002
1.069896e+003, 1.626278e+002
1.070378e+003, 1.630361e+002
1.070860e+003, 1.638774e+002
1.071342e+003, 1.639880e+002
1.071824e+003, 1.632838e+002
1.072306e+003, 1.624570e+002
1.072788e+003, 1.617444e+002
1.073271e+003, 1.609830e+002
1.073753e+003, 1.597361e+002
1.074235e+003, 1.587904e+002
1.074717e+003, 1.591760e+002
1.075199e+003, 1.599230e+002
1.075681e+003, 1.595749e+002
1.076163e+003, 1.582355e+002
1.076645e+003, 1.572496e+002
1.077127e+003, 1.571370e+002
1.077610e+003, 1.572140e+002
1.078092e+003, 1.569594e+002
1.078574e+003, 1.570102e+002
1.079056e+003, 1.583755e+002
1.079538e+003, 1.598899e+002
1.080020e+003, 1.599837e+002
1.080502e+003, 1.588985e+002
1.080984e+003, 1.580101e+002
1.081467e+003, 1.577568e+002
1.081949e+003, 1.576462e+002
1.082431e+003, 1.574483e+002
1.082913e+003, 1.573353e+002
1.083395e+003, 1.575332e+002
1.083877e+003, 1.577776e+002
1.084359e+003, 1.577688e+002
1.084841e+003, 1.575574e+002
1.085323e+003, 1.573415e+002
1.085806e+003, 1.571665e+002
1.086288e+003, 1.570491e+002
1.086770e+003, 1.568730e+002
1.087252e+003, 1.569083e+002
1.087734e+003, 1.576859e+002
1.088216e+003, 1.584008e+002
1.088698e+003, 1.582071e+002
1.089180e+003, 1.573801e+002
1.089662e+003, 1.565077e+002
1.090145e+003, 1.557054e+002
1.090627e+003, 1.552914e+002
1.091109e+003, 1.554905e+002
1.091591e+003, 1.559574e+002
1.092073e+003, 1.568535e+002
1.092555e+003, 1.576620e+002
1.093037e+003, 1.580266e+002
1.093519e+003, 1.579870e+002
1.094002e+003, 1.576448e+002
1.094484e+003, 1.570224e+002
1.094966e+003, 1.561451e+002
1.095448e+003, 1.545457e+002
1.095930e+003, 1.534002e+002
1.096412e+003, 1.535479e+002
1.096894e+003, 1.537799e+002
1.097376e+003, 1.531342e+002
1.097859e+003, 1.522183e+002
1.098341e+003, 1.519071e+002
1.098823e+003, 1.522122e+002
1.099305e+003, 1.525469e+002
1.099787e+003, 1.528064e+002
1.100269e+003, 1.530257e+002
1.100751e+003, 1.534597e+002
1.101233e+003, 1.535614e+002
1.101715e+003, 1.529058e+002
1.102198e+003, 1.519013e+002
1.102680e+003, 1.507570e+002
1.103162e+003, 1.496523e+002
1.103644e+003, 1.491494e+002
1.104126e+003, 1.495904e+002
1.104608e+003, 1.497885e+002
1.105090e+003, 1.491352e+002
1.105572e+003, 1.487310e+002
1.106054e+003, 1.491584e+002
1.106537e+003, 1.497985e+002
1.107019e+003, 1.502651e+002
1.107501e+003, 1.505242e+002
1.107983e+003, 1.505261e+002
1.108465e+003, 1.502231e+002
1.108947e+003, 1.499224e+002
1.109429e+003, 1.495900e+002
1.109911e+003, 1.493465e+002
1.110394e+003, 1.494199e+002
1.110876e+003, 1.493736e+002
1.111358e+003, 1.487010e+002
1.111840e+003, 1.478522e+002
1.112322e+003, 1.476390e+002
1.112804e+003, 1.481088e+002
1.113286e+003, 1.483838e+002
1.113768e+003, 1.483011e+002
1.114250e+003, 1.482931e+002
1.114733e+003, 1.484362e+002
1.115215e+003, 1.485941e+002
1.115697e+003, 1.487263e+002
1.116179e+003, 1.488304e+002
1.116661e+003, 1.488947e+002
1.117143e+003, 1.489269e+002
1.117625e+003, 1.489864e+002
1.118107e+003, 1.491636e+002
1.118589e+003, 1.491304e+002
1.119072e+003, 1.486565e+002
1.119554e+003, 1.484375e+002
1.120036e+003, 1.487377e+002
1.120518e+003, 1.493202e+002
1.121000e+003, 1.501756e+002
1.121482e+003, 1.510197e+002
1.121964e+003, 1.509285e+002
1.122446e+003, 1.496753e+002
1.122929e+003, 1.488260e+002
1.123411e+003, 1.483425e+002
1.123893e+003, 1.484710e+002
1.124375e+003, 1.495009e+002
1.124857e+003, 1.504198e+002
1.125339e+003, 1.505479e+002
1.125821e+003, 1.502618e+002
1.126303e+003, 1.502066e+002
1.126786e+003, 1.503625e+002
1.127268e+003, 1.503928e+002
1.127750e+003, 1.503085e+002
1.128232e+003, 1.499161e+002
1.128714e+003, 1.491186e+002
1.129196e+003, 1.485844e+002
1.129678e+003, 1.486279e+002
1.130160e+003, 1.490377e+002
1.130642e+003, 1.496723e+002
1.131125e+003, 1.503296e+002
1.131607e+003, 1.501122e+002
1.132089e+003, 1.490982e+002
1.132571e+003, 1.487209e+002
1.133053e+003, 1.490474e+002
1.133535e+003, 1.494299e+002
1.134017e+003, 1.496700e+002
1.134499e+003, 1.499326e+002
1.134981e+003, 1.503679e+002
1.135464e+003, 1.507845e+002
1.135946e+003, 1.506296e+002
1.136428e+003, 1.501815e+002
1.136910e+003, 1.507989e+002
1.137392e+003, 1.521773e+002
1.137874e+003, 1.526566e+002
1.138356e+003, 1.520546e+002
1.138838e+003, 1.515543e+002
1.139321e+003, 1.517623e+002
1.139803e+003, 1.519560e+002
1.140285e+003, 1.510740e+002
1.140767e+003, 1.498721e+002
1.141249e+003, 1.498128e+002
1.141731e+003, 1.504793e+002
1.142213e+003, 1.512346e+002
1.142695e+003, 1.518109e+002
1.143177e+003, 1.514999e+002
1.143660e+003, 1.502278e+002
1.144142e+003, 1.492811e+002
1.144624e+003, 1.496870e+002
1.145106e+003, 1.505040e+002
1.145588e+003, 1.509072e+002
1.146070e+003, 1.510226e+002
1.146552e+003, 1.508419e+002
1.147034e+003, 1.505728e+002
1.147516e+003, 1.506828e+002
1.147999e+003, 1.510948e+002
1.148481e+003, 1.511046e+002
1.148963e+003, 1.503163e+002
1.149445e+003, 1.497144e+002
1.149927e+003, 1.501762e+002
1.150409e+003, 1.507530e+002
1.150891e+003, 1.507379e+002
1.151373e+003, 1.504898e+002
1.151856e+003, 1.503465e+002
1.152338e+003, 1.503345e+002
1.152820e+003, 1.503701e+002
1.153302e+003, 1.504367e+002
1.153784e+003, 1.507341e+002
1.154266e+003, 1.517243e+002
1.154748e+003, 1.523954e+002
1.155230e+003, 1.519493e+002
1.155713e+003, 1.515945e+002
1.156195e+003, 1.524205e+002
1.156677e+003, 1.535632e+002
1.157159e+003, 1.537029e+002
1.157641e+003, 1.529735e+002
1.158123e+003, 1.528567e+002
1.158605e+003, 1.541202e+002
1.159087e+003, 1.546489e+002
1.159569e+003, 1.537489e+002
1.160052e+003, 1.528715e+002
1.160534e+003, 1.522650e+002
1.161016e+003, 1.519656e+002
1.161498e+003, 1.521826e+002
1.161980e+003, 1.526274e+002
1.162462e+003, 1.526667e+002
1.162944e+003, 1.522709e+002
1.163426e+003, 1.517363e+002
1.163908e+003, 1.508237e+002
1.164391e+003, 1.505371e+002
1.164873e+003, 1.512312e+002
1.165355e+003, 1.519131e+002
1.165837e+003, 1.521345e+002
1.166319e+003, 1.520830e+002
1.166801e+003, 1.519590e+002
1.167283e+003, 1.517712e+002
1.167765e+003, 1.515141e+002
1.168247e+003, 1.511781e+002
1.168730e+003, 1.511231e+002
1.169212e+003, 1.513754e+002
1.169694e+003, 1.514560e+002
1.170176e+003, 1.512280e+002
1.170658e+003, 1.511452e+002
1.171140e+003, 1.515451e+002
1.171622e+003, 1.520856e+002
1.172104e+003, 1.521885e+002
1.172587e+003, 1.519939e+002
1.173069e+003, 1.519825e+002
1.173551e+003, 1.520916e+002
1.174033e+003, 1.521148e+002
1.174515e+003, 1.520117e+002
1.174997e+003, 1.517141e+002
1.175479e+003, 1.512128e+002
1.175961e+003, 1.507197e+002
1.176443e+003, 1.503327e+002
1.176926e+003, 1.502079e+002
1.177408e+003, 1.508636e+002
1.177890e+003, 1.516664e+002
1.178372e+003, 1.515201e+002
1.178854e+003, 1.508632e+002
1.179336e+003, 1.506113e+002
1.179818e+003, 1.508864e+002
1.180300e+003, 1.514495e+002
1.180782e+003, 1.522705e+002
1.181265e+003, 1.528046e+002
1.181747e+003, 1.526413e+002
1.182229e+003, 1.521765e+002
1.182711e+003, 1.512286e+002
1.183193e+003, 1.504970e+002
1.183675e+003, 1.508755e+002
1.184157e+003, 1.518650e+002
1.184639e+003, 1.525377e+002
1.185122e+003, 1.527537e+002
1.185604e+003, 1.527197e+002
1.186086e+003, 1.523474e+002
1.186568e+003, 1.519491e+002
1.187050e+003, 1.514899e+002
1.187532e+003, 1.511216e+002
1.188014e+003, 1.507678e+002
1.188496e+003, 1.506649e+002
1.188979e+003, 1.512038e+002
1.189461e+003, 1.521113e+002
1.189943e+003, 1.525714e+002
1.190425e+003, 1.524966e+002
1.190907e+003, 1.524948e+002
1.191389e+003, 1.526385e+002
1.191871e+003, 1.526411e+002
1.192353e+003, 1.524226e+002
1.192835e+003, 1.521388e+002
1.193318e+003, 1.518194e+002
1.193800e+003, 1.516187e+002
1.194282e+003, 1.517549e+002
1.194764e+003, 1.521357e+002
1.195246e+003, 1.523816e+002
1.195728e+003, 1.525014e+002
1.196210e+003, 1.527936e+002
1.196692e+003, 1.532505e+002
1.197174e+003, 1.534268e+002
1.197657e+003, 1.532248e+002
1.198139e+003, 1.529960e+002
1.198621e+003, 1.529585e+002
1.199103e+003, 1.529955e+002
1.199585e+003, 1.529668e+002
1.200067e+003, 1.528930e+002
1.200549e+003, 1.528107e+002
1.201031e+003, 1.527167e+002
1.201514e+003, 1.524878e+002
1.201996e+003, 1.522553e+002
1.202478e+003, 1.525521e+002
1.202960e+003, 1.534071e+002
1.203442e+003, 1.539402e+002
1.203924e+003, 1.535182e+002
1.204406e+003, 1.530014e+002
1.204888e+003, 1.532636e+002
1.205370e+003, 1.534650e+002
1.205853e+003, 1.525889e+002
1.206335e+003, 1.514861e+002
1.206817e+003, 1.512724e+002
1.207299e+003, 1.517347e+002
1.207781e+003, 1.520668e+002
1.208263e+003, 1.521108e+002
1.208745e+003, 1.520363e+002
1.209227e+003, 1.516761e+002
1.209709e+003, 1.515112e+002
1.210192e+003, 1.517994e+002
1.210674e+003, 1.521147e+002
1.211156e+003, 1.522197e+002
1.211638e+003, 1.522701e+002
1.212120e+003, 1.524271e+002
1.212602e+003, 1.526578e+002
1.213084e+003, 1.528304e+002
1.213566e+003, 1.529164e+002
1.214049e+003, 1.530950e+002
1.214531e+003, 1.534050e+002
1.215013e+003, 1.536643e+002
1.215495e+003, 1.538567e+002
1.215977e+003, 1.538894e+002
1.216459e+003, 1.536877e+002
1.216941e+003, 1.534340e+002
1.217423e+003, 1.533307e+002
1.217906e+003, 1.533883e+002
1.218388e+003, 1.537098e+002
1.218870e+003, 1.542243e+002
1.219352e+003, 1.546419e+002
1.219834e+003, 1.549100e+002
1.220316e+003, 1.548436e+002
1.220798e+003, 1.544278e+002
1.221280e+003, 1.537546e+002
1.221762e+003, 1.528497e+002
1.222245e+003, 1.522583e+002
1.222727e+003, 1.526659e+002
1.223209e+003, 1.535343e+002
1.223691e+003, 1.545270e+002
1.224173e+003, 1.553911e+002
1.224655e+003, 1.558141e+002
1.225137e+003, 1.558281e+002
1.225619e+003, 1.553845e+002
1.226101e+003, 1.546135e+002
1.226584e+003, 1.541778e+002
1.227066e+003, 1.544721e+002
1.227548e+003, 1.546348e+002
1.228030e+003, 1.542699e+002
1.228512e+003, 1.538518e+002
1.228994e+003, 1.534827e+002
1.229476e+003, 1.532337e+002
1.229958e+003, 1.531119e+002
1.230441e+003, 1.531730e+002
1.230923e+003, 1.536049e+002
1.231405e+003, 1.543866e+002
1.231887e+003, 1.547271e+002
1.232369e+003, 1.544727e+002
1.232851e+003, 1.542411e+002
1.233333e+003, 1.540695e+002
1.233815e+003, 1.538238e+002
1.234297e+003, 1.533848e+002
1.234780e+003, 1.532543e+002
1.235262e+003, 1.538563e+002
1.235744e+003, 1.547342e+002
1.236226e+003, 1.551707e+002
1.236708e+003, 1.551784e+002
1.237190e+003, 1.545039e+002
1.237672e+003, 1.534515e+002
1.238154e+003, 1.535672e+002
1.238636e+003, 1.547345e+002
1.239119e+003, 1.557068e+002
1.239601e+003, 1.560866e+002
1.240083e+003, 1.560108e+002
1.240565e+003, 1.555032e+002
1.241047e+003, 1.548983e+002
1.241529e+003, 1.543777e+002
1.242011e+003, 1.540625e+002
1.242493e+003, 1.540638e+002
1.242975e+003, 1.543438e+002
1.243458e+003, 1.551663e+002
1.243940e+003, 1.561098e+002
1.244422e+003, 1.562684e+002
1.244904e+003, 1.555491e+002
1.245386e+003, 1.547932e+002
1.245868e+003, 1.535539e+002
1.246350e+003, 1.535277e+002
1.246832e+003, 1.565557e+002
1.247315e+003, 1.587204e+002
1.247797e+003, 1.581498e+002
1.248279e+003, 1.569465e+002
1.248761e+003, 1.564524e+002
1.249243e+003, 1.563929e+002
1.249725e+003, 1.562658e+002
1.250207e+003, 1.560877e+002
1.250689e+003, 1.562490e+002
1.251172e+003, 1.568126e+002
1.251654e+003, 1.569405e+002
1.252136e+003, 1.565497e+002
1.252618e+003, 1.562807e+002
1.253100e+003, 1.563247e+002
1.253582e+003, 1.563972e+002
1.254064e+003, 1.563031e+002
1.254546e+003, 1.561423e+002
1.255028e+003, 1.559922e+002
1.255510e+003, 1.559211e+002
1.255993e+003, 1.561847e+002
1.256475e+003, 1.565536e+002
1.256957e+003, 1.565251e+002
1.257439e+003, 1.562379e+002
1.257921e+003, 1.561228e+002
1.258403e+003, 1.562566e+002
1.258885e+003, 1.564341e+002
1.259367e+003, 1.565692e+002
1.259850e+003, 1.567378e+002
1.260332e+003, 1.570155e+002
1.260814e+003, 1.572820e+002
1.261296e+003, 1.573325e+002
1.261778e+003, 1.575020e+002
1.262260e+003, 1.581885e+002
1.262742e+003, 1.590844e+002
1.263224e+003, 1.597603e+002
1.263707e+003, 1.602011e+002
1.264189e+003, 1.602444e+002
1.264671e+003, 1.597478e+002
1.265153e+003, 1.592974e+002
1.265635e+003, 1.588358e+002
1.266117e+003, 1.587266e+002
1.266599e+003, 1.590856e+002
1.267081e+003, 1.596591e+002
1.267563e+003, 1.603628e+002
1.268046e+003, 1.606580e+002
1.268528e+003, 1.597165e+002
1.269010e+003, 1.582550e+002
1.269492e+003, 1.579089e+002
1.269974e+003, 1.583742e+002
1.270456e+003, 1.590843e+002
1.270938e+003, 1.598699e+002
1.271420e+003, 1.604505e+002
1.271902e+003, 1.607843e+002
1.272385e+003, 1.609407e+002
1.272867e+003, 1.609451e+002
1.273349e+003, 1.608392e+002
1.273831e+003, 1.600101e+002
1.274313e+003, 1.599638e+002
1.274795e+003, 1.629670e+002
1.275277e+003, 1.652898e+002
1.275759e+003, 1.634875e+002
1.276242e+003, 1.604239e+002
1.276724e+003, 1.593739e+002
1.277206e+003, 1.599227e+002
1.277688e+003, 1.602372e+002
1.278170e+003, 1.602671e+002
1.278652e+003, 1.605056e+002
1.279134e+003, 1.610829e+002
1.279616e+003, 1.613469e+002
1.280099e+003, 1.611404e+002
1.280581e+003, 1.611319e+002
1.281063e+003, 1.615940e+002
1.281545e+003, 1.620135e+002
1.282027e+003, 1.619810e+002
1.282509e+003, 1.616948e+002
1.282991e+003, 1.613136e+002
1.283473e+003, 1.610263e+002
1.283955e+003, 1.612739e+002
##END=



