##NAMES=Metaborite
##RRUFFID=R130694
##IDEAL CHEMISTRY=HBO_2_
##LOCALITY=Chelkar salt dome, Aksai Valley, Aktobe Province, Kazakhstan
##OWNER=RRUFF
##SOURCE=Rock Currier
##DESCRIPTION=Colorless fragment
##STATUS=The identification of this mineral has been confirmed by single-crystal X-ray diffraction.
##URL=rruff.info/R130694
8.806445e+001, 9.286011e+002
8.854657e+001, 9.131013e+002
8.902869e+001, 9.077600e+002
8.951080e+001, 9.169717e+002
8.999292e+001, 9.343279e+002
9.047504e+001, 9.543080e+002
9.095715e+001, 9.760443e+002
9.143927e+001, 9.981849e+002
9.192139e+001, 1.019074e+003
9.240350e+001, 1.038745e+003
9.288562e+001, 1.057779e+003
9.336774e+001, 1.069470e+003
9.384985e+001, 1.066948e+003
9.433197e+001, 1.050277e+003
9.481409e+001, 1.033586e+003
9.529620e+001, 1.014752e+003
9.577832e+001, 9.979167e+002
9.626044e+001, 9.837050e+002
9.674255e+001, 9.717772e+002
9.722467e+001, 9.618646e+002
9.770679e+001, 9.543800e+002
9.818890e+001, 9.467748e+002
9.867102e+001, 9.379734e+002
9.915314e+001, 9.289941e+002
9.963525e+001, 9.204179e+002
1.001174e+002, 9.124260e+002
1.005995e+002, 9.050392e+002
1.010816e+002, 8.984626e+002
1.015637e+002, 8.930755e+002
1.020458e+002, 8.879533e+002
1.025280e+002, 8.824014e+002
1.030101e+002, 8.768284e+002
1.034922e+002, 8.718563e+002
1.039743e+002, 8.678779e+002
1.044564e+002, 8.648689e+002
1.049385e+002, 8.634514e+002
1.054207e+002, 8.653330e+002
1.059028e+002, 8.668569e+002
1.063849e+002, 8.663529e+002
1.068670e+002, 8.636804e+002
1.073491e+002, 8.591699e+002
1.078312e+002, 8.522466e+002
1.083134e+002, 8.431016e+002
1.087955e+002, 8.356118e+002
1.092776e+002, 8.306247e+002
1.097597e+002, 8.274306e+002
1.102418e+002, 8.252370e+002
1.107239e+002, 8.242304e+002
1.112061e+002, 8.235499e+002
1.116882e+002, 8.222941e+002
1.121703e+002, 8.206031e+002
1.126524e+002, 8.191777e+002
1.131345e+002, 8.189099e+002
1.136166e+002, 8.196688e+002
1.140988e+002, 8.192087e+002
1.145809e+002, 8.161024e+002
1.150630e+002, 8.125664e+002
1.155451e+002, 8.097394e+002
1.160272e+002, 8.076935e+002
1.165093e+002, 8.059634e+002
1.169915e+002, 8.039703e+002
1.174736e+002, 8.015629e+002
1.179557e+002, 7.992630e+002
1.184378e+002, 7.968539e+002
1.189199e+002, 7.946719e+002
1.194020e+002, 7.928688e+002
1.198842e+002, 7.915115e+002
1.203663e+002, 7.906705e+002
1.208484e+002, 7.905201e+002
1.213305e+002, 7.923731e+002
1.218126e+002, 7.934288e+002
1.222947e+002, 7.933023e+002
1.227769e+002, 7.924037e+002
1.232590e+002, 7.912678e+002
1.237411e+002, 7.901683e+002
1.242232e+002, 7.890072e+002
1.247053e+002, 7.872369e+002
1.251874e+002, 7.841105e+002
1.256696e+002, 7.813162e+002
1.261517e+002, 7.794598e+002
1.266338e+002, 7.784597e+002
1.271159e+002, 7.779387e+002
1.275980e+002, 7.778422e+002
1.280801e+002, 7.780538e+002
1.285623e+002, 7.781149e+002
1.290444e+002, 7.780804e+002
1.295265e+002, 7.778460e+002
1.300086e+002, 7.772775e+002
1.304907e+002, 7.763447e+002
1.309728e+002, 7.752371e+002
1.314550e+002, 7.738737e+002
1.319371e+002, 7.724391e+002
1.324192e+002, 7.711896e+002
1.329013e+002, 7.700510e+002
1.333834e+002, 7.691954e+002
1.338655e+002, 7.693201e+002
1.343477e+002, 7.715001e+002
1.348298e+002, 7.730547e+002
1.353119e+002, 7.719248e+002
1.357940e+002, 7.694397e+002
1.362761e+002, 7.681490e+002
1.367582e+002, 7.704562e+002
1.372404e+002, 7.765012e+002
1.377225e+002, 7.803716e+002
1.382046e+002, 7.803136e+002
1.386867e+002, 7.794883e+002
1.391688e+002, 7.784193e+002
1.396509e+002, 7.773700e+002
1.401331e+002, 7.765793e+002
1.406152e+002, 7.762917e+002
1.410973e+002, 7.765961e+002
1.415794e+002, 7.772019e+002
1.420615e+002, 7.775626e+002
1.425436e+002, 7.785358e+002
1.430258e+002, 7.806848e+002
1.435079e+002, 7.840900e+002
1.439900e+002, 7.884150e+002
1.444721e+002, 7.932203e+002
1.449542e+002, 7.984841e+002
1.454363e+002, 8.045179e+002
1.459185e+002, 8.109926e+002
1.464006e+002, 8.183832e+002
1.468827e+002, 8.275860e+002
1.473648e+002, 8.390534e+002
1.478469e+002, 8.514723e+002
1.483290e+002, 8.641317e+002
1.488112e+002, 8.783689e+002
1.492933e+002, 8.868016e+002
1.497754e+002, 8.866343e+002
1.502575e+002, 8.785899e+002
1.507396e+002, 8.637735e+002
1.512217e+002, 8.392848e+002
1.517039e+002, 8.116323e+002
1.521860e+002, 7.884300e+002
1.526681e+002, 7.695596e+002
1.531502e+002, 7.551005e+002
1.536323e+002, 7.461302e+002
1.541144e+002, 7.428391e+002
1.545966e+002, 7.403896e+002
1.550787e+002, 7.376478e+002
1.555608e+002, 7.352363e+002
1.560429e+002, 7.337525e+002
1.565250e+002, 7.333312e+002
1.570071e+002, 7.333699e+002
1.574893e+002, 7.329958e+002
1.579714e+002, 7.319678e+002
1.584535e+002, 7.311804e+002
1.589356e+002, 7.308473e+002
1.594177e+002, 7.307422e+002
1.598998e+002, 7.308065e+002
1.603820e+002, 7.310110e+002
1.608641e+002, 7.311724e+002
1.613462e+002, 7.308349e+002
1.618283e+002, 7.296055e+002
1.623104e+002, 7.283719e+002
1.627925e+002, 7.272455e+002
1.632747e+002, 7.261534e+002
1.637568e+002, 7.249065e+002
1.642389e+002, 7.234063e+002
1.647210e+002, 7.218372e+002
1.652031e+002, 7.210089e+002
1.656852e+002, 7.222161e+002
1.661674e+002, 7.227095e+002
1.666495e+002, 7.215483e+002
1.671316e+002, 7.194124e+002
1.676137e+002, 7.174594e+002
1.680958e+002, 7.163278e+002
1.685779e+002, 7.159466e+002
1.690601e+002, 7.158076e+002
1.695422e+002, 7.165507e+002
1.700243e+002, 7.168552e+002
1.705064e+002, 7.158556e+002
1.709885e+002, 7.138387e+002
1.714706e+002, 7.119234e+002
1.719528e+002, 7.107292e+002
1.724349e+002, 7.102668e+002
1.729170e+002, 7.101371e+002
1.733991e+002, 7.106680e+002
1.738812e+002, 7.112631e+002
1.743633e+002, 7.113448e+002
1.748455e+002, 7.108965e+002
1.753276e+002, 7.106265e+002
1.758097e+002, 7.112450e+002
1.762918e+002, 7.122903e+002
1.767739e+002, 7.129457e+002
1.772560e+002, 7.129902e+002
1.777382e+002, 7.126093e+002
1.782203e+002, 7.118965e+002
1.787024e+002, 7.106571e+002
1.791845e+002, 7.097593e+002
1.796666e+002, 7.104230e+002
1.801487e+002, 7.115297e+002
1.806309e+002, 7.114544e+002
1.811130e+002, 7.088802e+002
1.815951e+002, 7.050539e+002
1.820772e+002, 7.035300e+002
1.825593e+002, 7.058411e+002
1.830414e+002, 7.080375e+002
1.835236e+002, 7.085748e+002
1.840057e+002, 7.081576e+002
1.844878e+002, 7.078270e+002
1.849699e+002, 7.082875e+002
1.854520e+002, 7.093173e+002
1.859341e+002, 7.094725e+002
1.864163e+002, 7.077483e+002
1.868984e+002, 7.062034e+002
1.873805e+002, 7.054830e+002
1.878626e+002, 7.052567e+002
1.883447e+002, 7.048381e+002
1.888268e+002, 7.036400e+002
1.893090e+002, 7.017228e+002
1.897911e+002, 7.010521e+002
1.902732e+002, 7.030677e+002
1.907553e+002, 7.048741e+002
1.912374e+002, 7.057422e+002
1.917195e+002, 7.057766e+002
1.922017e+002, 7.053938e+002
1.926838e+002, 7.049063e+002
1.931659e+002, 7.043174e+002
1.936480e+002, 7.034092e+002
1.941301e+002, 7.017174e+002
1.946122e+002, 7.002200e+002
1.950944e+002, 6.994077e+002
1.955765e+002, 6.991940e+002
1.960586e+002, 6.991561e+002
1.965407e+002, 6.989488e+002
1.970228e+002, 6.985657e+002
1.975049e+002, 6.984303e+002
1.979871e+002, 6.984904e+002
1.984692e+002, 6.987947e+002
1.989513e+002, 6.995480e+002
1.994334e+002, 7.006876e+002
1.999155e+002, 7.016962e+002
2.003976e+002, 7.020310e+002
2.008798e+002, 7.017662e+002
2.013619e+002, 7.020041e+002
2.018440e+002, 7.031631e+002
2.023261e+002, 7.046018e+002
2.028082e+002, 7.059317e+002
2.032903e+002, 7.071442e+002
2.037725e+002, 7.078541e+002
2.042546e+002, 7.072691e+002
2.047367e+002, 7.058947e+002
2.052188e+002, 7.051895e+002
2.057009e+002, 7.057190e+002
2.061830e+002, 7.069410e+002
2.066652e+002, 7.080908e+002
2.071473e+002, 7.090591e+002
2.076294e+002, 7.103659e+002
2.081115e+002, 7.124730e+002
2.085936e+002, 7.151317e+002
2.090757e+002, 7.180812e+002
2.095579e+002, 7.213653e+002
2.100400e+002, 7.248138e+002
2.105221e+002, 7.282045e+002
2.110042e+002, 7.317078e+002
2.114863e+002, 7.347150e+002
2.119685e+002, 7.369598e+002
2.124506e+002, 7.385839e+002
2.129327e+002, 7.396360e+002
2.134148e+002, 7.398226e+002
2.138969e+002, 7.396160e+002
2.143790e+002, 7.405140e+002
2.148612e+002, 7.429713e+002
2.153433e+002, 7.458968e+002
2.158254e+002, 7.490506e+002
2.163075e+002, 7.522933e+002
2.167896e+002, 7.553566e+002
2.172717e+002, 7.579117e+002
2.177539e+002, 7.602900e+002
2.182360e+002, 7.640004e+002
2.187181e+002, 7.701865e+002
2.192002e+002, 7.762889e+002
2.196823e+002, 7.811999e+002
2.201644e+002, 7.857310e+002
2.206466e+002, 7.909750e+002
2.211287e+002, 7.975615e+002
2.216108e+002, 8.053677e+002
2.220929e+002, 8.136193e+002
2.225750e+002, 8.214132e+002
2.230571e+002, 8.308505e+002
2.235393e+002, 8.424215e+002
2.240214e+002, 8.557505e+002
2.245035e+002, 8.700267e+002
2.249856e+002, 8.845762e+002
2.254677e+002, 8.998889e+002
2.259498e+002, 9.190141e+002
2.264320e+002, 9.433916e+002
2.269141e+002, 9.702709e+002
2.273962e+002, 1.001408e+003
2.278783e+002, 1.034491e+003
2.283604e+002, 1.069251e+003
2.288425e+002, 1.106839e+003
2.293247e+002, 1.142926e+003
2.298068e+002, 1.151561e+003
2.302889e+002, 1.123348e+003
2.307710e+002, 1.081053e+003
2.312531e+002, 1.017472e+003
2.317352e+002, 9.437491e+002
2.322174e+002, 8.774050e+002
2.326995e+002, 8.275215e+002
2.331816e+002, 7.925169e+002
2.336637e+002, 7.669534e+002
2.341458e+002, 7.544249e+002
2.346279e+002, 7.450341e+002
2.351101e+002, 7.374974e+002
2.355922e+002, 7.313502e+002
2.360743e+002, 7.256989e+002
2.365564e+002, 7.201069e+002
2.370385e+002, 7.148106e+002
2.375206e+002, 7.108238e+002
2.380028e+002, 7.084606e+002
2.384849e+002, 7.065170e+002
2.389670e+002, 7.047031e+002
2.394491e+002, 7.030321e+002
2.399312e+002, 7.014925e+002
2.404133e+002, 7.000724e+002
2.408955e+002, 6.988377e+002
2.413776e+002, 6.979442e+002
2.418597e+002, 6.974957e+002
2.423418e+002, 6.970657e+002
2.428239e+002, 6.962602e+002
2.433060e+002, 6.953134e+002
2.437882e+002, 6.949356e+002
2.442703e+002, 6.955403e+002
2.447524e+002, 6.966083e+002
2.452345e+002, 6.973860e+002
2.457166e+002, 6.979433e+002
2.461987e+002, 6.980072e+002
2.466809e+002, 6.971356e+002
2.471630e+002, 6.956035e+002
2.476451e+002, 6.942691e+002
2.481272e+002, 6.932613e+002
2.486093e+002, 6.927369e+002
2.490914e+002, 6.930341e+002
2.495736e+002, 6.941760e+002
2.500557e+002, 6.950688e+002
2.505378e+002, 6.948149e+002
2.510199e+002, 6.937283e+002
2.515020e+002, 6.931165e+002
2.519841e+002, 6.933530e+002
2.524663e+002, 6.939783e+002
2.529484e+002, 6.946701e+002
2.534305e+002, 6.954003e+002
2.539126e+002, 6.959284e+002
2.543947e+002, 6.958879e+002
2.548768e+002, 6.954538e+002
2.553590e+002, 6.955087e+002
2.558411e+002, 6.964612e+002
2.563232e+002, 6.974948e+002
2.568053e+002, 6.979142e+002
2.572874e+002, 6.978928e+002
2.577695e+002, 6.980523e+002
2.582516e+002, 6.989647e+002
2.587338e+002, 7.004561e+002
2.592159e+002, 7.015424e+002
2.596980e+002, 7.020665e+002
2.601801e+002, 7.023483e+002
2.606622e+002, 7.023478e+002
2.611443e+002, 7.022618e+002
2.616265e+002, 7.025392e+002
2.621086e+002, 7.036028e+002
2.625907e+002, 7.052619e+002
2.630728e+002, 7.065971e+002
2.635549e+002, 7.073767e+002
2.640370e+002, 7.081782e+002
2.645192e+002, 7.091039e+002
2.650013e+002, 7.102192e+002
2.654834e+002, 7.115959e+002
2.659655e+002, 7.132136e+002
2.664476e+002, 7.151622e+002
2.669297e+002, 7.178762e+002
2.674119e+002, 7.218719e+002
2.678940e+002, 7.258160e+002
2.683761e+002, 7.297435e+002
2.688582e+002, 7.332617e+002
2.693403e+002, 7.361458e+002
2.698224e+002, 7.384619e+002
2.703046e+002, 7.395975e+002
2.707867e+002, 7.376443e+002
2.712688e+002, 7.310754e+002
2.717509e+002, 7.239313e+002
2.722330e+002, 7.160668e+002
2.727151e+002, 7.086047e+002
2.731973e+002, 7.026207e+002
2.736794e+002, 6.985511e+002
2.741615e+002, 6.959813e+002
2.746436e+002, 6.941166e+002
2.751257e+002, 6.933568e+002
2.756078e+002, 6.925420e+002
2.760900e+002, 6.912550e+002
2.765721e+002, 6.900048e+002
2.770542e+002, 6.892224e+002
2.775363e+002, 6.890265e+002
2.780184e+002, 6.892249e+002
2.785005e+002, 6.895724e+002
2.789827e+002, 6.903130e+002
2.794648e+002, 6.906285e+002
2.799469e+002, 6.901469e+002
2.804290e+002, 6.895377e+002
2.809111e+002, 6.892275e+002
2.813932e+002, 6.892997e+002
2.818754e+002, 6.895791e+002
2.823575e+002, 6.898014e+002
2.828396e+002, 6.897991e+002
2.833217e+002, 6.902569e+002
2.838038e+002, 6.915048e+002
2.842859e+002, 6.928774e+002
2.847681e+002, 6.941323e+002
2.852502e+002, 6.951909e+002
2.857323e+002, 6.959763e+002
2.862144e+002, 6.963221e+002
2.866965e+002, 6.960562e+002
2.871786e+002, 6.963723e+002
2.876608e+002, 6.980839e+002
2.881429e+002, 6.995676e+002
2.886250e+002, 6.999908e+002
2.891071e+002, 6.995720e+002
2.895892e+002, 6.990917e+002
2.900714e+002, 6.992076e+002
2.905535e+002, 6.999333e+002
2.910356e+002, 7.003532e+002
2.915177e+002, 6.998485e+002
2.919998e+002, 6.996901e+002
2.924819e+002, 7.004961e+002
2.929641e+002, 7.018936e+002
2.934462e+002, 7.031246e+002
2.939283e+002, 7.036803e+002
2.944104e+002, 7.037028e+002
2.948925e+002, 7.041953e+002
2.953746e+002, 7.060353e+002
2.958568e+002, 7.073742e+002
2.963389e+002, 7.072263e+002
2.968210e+002, 7.066158e+002
2.973031e+002, 7.070593e+002
2.977852e+002, 7.093044e+002
2.982673e+002, 7.127075e+002
2.987495e+002, 7.153133e+002
2.992316e+002, 7.155774e+002
2.997137e+002, 7.170184e+002
3.001958e+002, 7.203353e+002
3.006779e+002, 7.246091e+002
3.011600e+002, 7.290374e+002
3.016422e+002, 7.333361e+002
3.021243e+002, 7.375407e+002
3.026064e+002, 7.417960e+002
3.030885e+002, 7.472037e+002
3.035706e+002, 7.504777e+002
3.040527e+002, 7.517901e+002
3.045349e+002, 7.510856e+002
3.050170e+002, 7.474600e+002
3.054991e+002, 7.411812e+002
3.059812e+002, 7.342809e+002
3.064633e+002, 7.292078e+002
3.069454e+002, 7.263336e+002
3.074276e+002, 7.242521e+002
3.079097e+002, 7.232705e+002
3.083918e+002, 7.226888e+002
3.088739e+002, 7.219385e+002
3.093560e+002, 7.211591e+002
3.098381e+002, 7.210550e+002
3.103203e+002, 7.223387e+002
3.108024e+002, 7.251188e+002
3.112845e+002, 7.275130e+002
3.117666e+002, 7.293487e+002
3.122487e+002, 7.310458e+002
3.127308e+002, 7.324491e+002
3.132130e+002, 7.338346e+002
3.136951e+002, 7.357250e+002
3.141772e+002, 7.384693e+002
3.146593e+002, 7.419833e+002
3.151414e+002, 7.456200e+002
3.156235e+002, 7.494203e+002
3.161057e+002, 7.533165e+002
3.165878e+002, 7.572572e+002
3.170699e+002, 7.612958e+002
3.175520e+002, 7.658809e+002
3.180341e+002, 7.712240e+002
3.185162e+002, 7.764261e+002
3.189984e+002, 7.791406e+002
3.194805e+002, 7.785989e+002
3.199626e+002, 7.761600e+002
3.204447e+002, 7.711667e+002
3.209268e+002, 7.647249e+002
3.214089e+002, 7.574423e+002
3.218911e+002, 7.496070e+002
3.223732e+002, 7.418141e+002
3.228553e+002, 7.348344e+002
3.233374e+002, 7.287602e+002
3.238195e+002, 7.235364e+002
3.243016e+002, 7.189778e+002
3.247838e+002, 7.153073e+002
3.252659e+002, 7.129385e+002
3.257480e+002, 7.117225e+002
3.262301e+002, 7.110309e+002
3.267122e+002, 7.102693e+002
3.271943e+002, 7.094248e+002
3.276765e+002, 7.086181e+002
3.281586e+002, 7.077248e+002
3.286407e+002, 7.069770e+002
3.291228e+002, 7.062770e+002
3.296049e+002, 7.057830e+002
3.300870e+002, 7.058840e+002
3.305692e+002, 7.069138e+002
3.310513e+002, 7.086971e+002
3.315334e+002, 7.098699e+002
3.320155e+002, 7.098885e+002
3.324976e+002, 7.098836e+002
3.329797e+002, 7.098173e+002
3.334619e+002, 7.098842e+002
3.339440e+002, 7.104454e+002
3.344261e+002, 7.116668e+002
3.349082e+002, 7.131406e+002
3.353904e+002, 7.138959e+002
3.358725e+002, 7.135719e+002
3.363546e+002, 7.130261e+002
3.368367e+002, 7.118313e+002
3.373188e+002, 7.107395e+002
3.378009e+002, 7.103837e+002
3.382831e+002, 7.108851e+002
3.387652e+002, 7.119220e+002
3.392473e+002, 7.131465e+002
3.397294e+002, 7.147773e+002
3.402115e+002, 7.159016e+002
3.406936e+002, 7.162357e+002
3.411758e+002, 7.163857e+002
3.416579e+002, 7.163700e+002
3.421400e+002, 7.163820e+002
3.426221e+002, 7.168763e+002
3.431042e+002, 7.183425e+002
3.435863e+002, 7.207756e+002
3.440685e+002, 7.227020e+002
3.445506e+002, 7.237838e+002
3.450327e+002, 7.246305e+002
3.455148e+002, 7.251711e+002
3.459969e+002, 7.255881e+002
3.464790e+002, 7.261348e+002
3.469612e+002, 7.269568e+002
3.474433e+002, 7.279767e+002
3.479254e+002, 7.289626e+002
3.484075e+002, 7.298027e+002
3.488896e+002, 7.307902e+002
3.493717e+002, 7.318575e+002
3.498539e+002, 7.331172e+002
3.503360e+002, 7.347853e+002
3.508181e+002, 7.368915e+002
3.513002e+002, 7.391104e+002
3.517823e+002, 7.408517e+002
3.522644e+002, 7.417926e+002
3.527466e+002, 7.433275e+002
3.532287e+002, 7.461844e+002
3.537108e+002, 7.491225e+002
3.541929e+002, 7.515585e+002
3.546750e+002, 7.534654e+002
3.551571e+002, 7.550818e+002
3.556393e+002, 7.564040e+002
3.561214e+002, 7.574459e+002
3.566035e+002, 7.594162e+002
3.570856e+002, 7.630264e+002
3.575677e+002, 7.667685e+002
3.580498e+002, 7.701470e+002
3.585320e+002, 7.732675e+002
3.590141e+002, 7.763463e+002
3.594962e+002, 7.794744e+002
3.599783e+002, 7.826462e+002
3.604604e+002, 7.857994e+002
3.609425e+002, 7.889240e+002
3.614247e+002, 7.920734e+002
3.619068e+002, 7.949908e+002
3.623889e+002, 7.980671e+002
3.628710e+002, 8.016885e+002
3.633531e+002, 8.059669e+002
3.638352e+002, 8.106041e+002
3.643174e+002, 8.153002e+002
3.647995e+002, 8.200605e+002
3.652816e+002, 8.249332e+002
3.657637e+002, 8.304521e+002
3.662458e+002, 8.355800e+002
3.667279e+002, 8.398060e+002
3.672101e+002, 8.430845e+002
3.676922e+002, 8.454199e+002
3.681743e+002, 8.461631e+002
3.686564e+002, 8.458027e+002
3.691385e+002, 8.465697e+002
3.696206e+002, 8.487454e+002
3.701028e+002, 8.517260e+002
3.705849e+002, 8.551349e+002
3.710670e+002, 8.590245e+002
3.715491e+002, 8.635016e+002
3.720312e+002, 8.686143e+002
3.725133e+002, 8.743752e+002
3.729955e+002, 8.809944e+002
3.734776e+002, 8.885235e+002
3.739597e+002, 8.962391e+002
3.744418e+002, 9.034723e+002
3.749239e+002, 9.110506e+002
3.754060e+002, 9.198578e+002
3.758882e+002, 9.299883e+002
3.763703e+002, 9.412432e+002
3.768524e+002, 9.534256e+002
3.773345e+002, 9.666208e+002
3.778166e+002, 9.813600e+002
3.782987e+002, 9.979948e+002
3.787809e+002, 1.015812e+003
3.792630e+002, 1.034827e+003
3.797451e+002, 1.054879e+003
3.802272e+002, 1.073335e+003
3.807093e+002, 1.090777e+003
3.811914e+002, 1.105436e+003
3.816736e+002, 1.116121e+003
3.821557e+002, 1.122845e+003
3.826378e+002, 1.122053e+003
3.831199e+002, 1.111561e+003
3.836020e+002, 1.090310e+003
3.840841e+002, 1.059334e+003
3.845663e+002, 1.012889e+003
3.850484e+002, 9.624453e+002
3.855305e+002, 9.114250e+002
3.860126e+002, 8.612803e+002
3.864947e+002, 8.159958e+002
3.869768e+002, 7.770045e+002
3.874590e+002, 7.442667e+002
3.879411e+002, 7.189860e+002
3.884232e+002, 7.016956e+002
3.889053e+002, 6.880082e+002
3.893874e+002, 6.780998e+002
3.898695e+002, 6.708564e+002
3.903517e+002, 6.652373e+002
3.908338e+002, 6.609780e+002
3.913159e+002, 6.580297e+002
3.917980e+002, 6.565218e+002
3.922801e+002, 6.566995e+002
3.927622e+002, 6.562763e+002
3.932444e+002, 6.545206e+002
3.937265e+002, 6.529133e+002
3.942086e+002, 6.523098e+002
3.946907e+002, 6.524905e+002
3.951728e+002, 6.527051e+002
3.956549e+002, 6.524773e+002
3.961371e+002, 6.520607e+002
3.966192e+002, 6.524832e+002
3.971013e+002, 6.547418e+002
3.975834e+002, 6.566230e+002
3.980655e+002, 6.579156e+002
3.985476e+002, 6.587798e+002
3.990298e+002, 6.592414e+002
3.995119e+002, 6.593594e+002
3.999940e+002, 6.594330e+002
4.004761e+002, 6.598804e+002
4.009582e+002, 6.608250e+002
4.014403e+002, 6.617151e+002
4.019225e+002, 6.625349e+002
4.024046e+002, 6.633214e+002
4.028867e+002, 6.642241e+002
4.033688e+002, 6.651122e+002
4.038509e+002, 6.656491e+002
4.043330e+002, 6.655388e+002
4.048152e+002, 6.649442e+002
4.052973e+002, 6.647888e+002
4.057794e+002, 6.651425e+002
4.062615e+002, 6.658826e+002
4.067436e+002, 6.673224e+002
4.072257e+002, 6.689216e+002
4.077079e+002, 6.701846e+002
4.081900e+002, 6.709584e+002
4.086721e+002, 6.713173e+002
4.091542e+002, 6.708975e+002
4.096363e+002, 6.692100e+002
4.101184e+002, 6.695701e+002
4.106006e+002, 6.752592e+002
4.110827e+002, 6.804308e+002
4.115648e+002, 6.815424e+002
4.120469e+002, 6.793965e+002
4.125290e+002, 6.772225e+002
4.130111e+002, 6.771988e+002
4.134933e+002, 6.787148e+002
4.139754e+002, 6.798516e+002
4.144575e+002, 6.805674e+002
4.149396e+002, 6.810185e+002
4.154217e+002, 6.807502e+002
4.159038e+002, 6.804583e+002
4.163860e+002, 6.811048e+002
4.168681e+002, 6.831288e+002
4.173502e+002, 6.853873e+002
4.178323e+002, 6.868375e+002
4.183144e+002, 6.875394e+002
4.187965e+002, 6.879076e+002
4.192787e+002, 6.878673e+002
4.197608e+002, 6.877770e+002
4.202429e+002, 6.880463e+002
4.207250e+002, 6.886422e+002
4.212071e+002, 6.892774e+002
4.216892e+002, 6.897307e+002
4.221714e+002, 6.902233e+002
4.226535e+002, 6.911917e+002
4.231356e+002, 6.926677e+002
4.236177e+002, 6.939857e+002
4.240998e+002, 6.947218e+002
4.245819e+002, 6.949146e+002
4.250641e+002, 6.948848e+002
4.255462e+002, 6.940889e+002
4.260283e+002, 6.937523e+002
4.265104e+002, 6.948919e+002
4.269925e+002, 6.967978e+002
4.274746e+002, 6.979509e+002
4.279568e+002, 6.977869e+002
4.284389e+002, 6.972495e+002
4.289210e+002, 6.978459e+002
4.294031e+002, 7.003185e+002
4.298852e+002, 7.018097e+002
4.303673e+002, 7.016012e+002
4.308495e+002, 7.009929e+002
4.313316e+002, 7.008076e+002
4.318137e+002, 7.010703e+002
4.322958e+002, 7.014445e+002
4.327779e+002, 7.016827e+002
4.332600e+002, 7.018215e+002
4.337422e+002, 7.021645e+002
4.342243e+002, 7.037370e+002
4.347064e+002, 7.042579e+002
4.351885e+002, 7.024099e+002
4.356706e+002, 6.998455e+002
4.361527e+002, 6.984614e+002
4.366349e+002, 6.987752e+002
4.371170e+002, 6.997499e+002
4.375991e+002, 6.998303e+002
4.380812e+002, 6.985867e+002
4.385633e+002, 6.980286e+002
4.390454e+002, 6.990202e+002
4.395276e+002, 6.998937e+002
4.400097e+002, 6.998088e+002
4.404918e+002, 6.990768e+002
4.409739e+002, 6.985341e+002
4.414560e+002, 6.987818e+002
4.419381e+002, 6.994612e+002
4.424203e+002, 6.993622e+002
4.429024e+002, 6.979445e+002
4.433845e+002, 6.972079e+002
4.438666e+002, 6.986984e+002
4.443487e+002, 7.005610e+002
4.448308e+002, 7.011910e+002
4.453130e+002, 7.003151e+002
4.457951e+002, 6.991355e+002
4.462772e+002, 6.985502e+002
4.467593e+002, 6.984971e+002
4.472414e+002, 6.987281e+002
4.477235e+002, 6.993684e+002
4.482057e+002, 6.999749e+002
4.486878e+002, 6.999590e+002
4.491699e+002, 6.996378e+002
4.496520e+002, 6.998113e+002
4.501341e+002, 7.010206e+002
4.506162e+002, 7.024857e+002
4.510984e+002, 7.034922e+002
4.515805e+002, 7.040973e+002
4.520626e+002, 7.047012e+002
4.525447e+002, 7.055435e+002
4.530268e+002, 7.063531e+002
4.535089e+002, 7.064420e+002
4.539911e+002, 7.055832e+002
4.544732e+002, 7.051954e+002
4.549553e+002, 7.057940e+002
4.554374e+002, 7.068991e+002
4.559195e+002, 7.083048e+002
4.564016e+002, 7.098690e+002
4.568838e+002, 7.108595e+002
4.573659e+002, 7.105563e+002
4.578480e+002, 7.090623e+002
4.583301e+002, 7.083076e+002
4.588122e+002, 7.083418e+002
4.592943e+002, 7.089158e+002
4.597765e+002, 7.103559e+002
4.602586e+002, 7.121629e+002
4.607407e+002, 7.138486e+002
4.612228e+002, 7.152074e+002
4.617049e+002, 7.160560e+002
4.621870e+002, 7.159800e+002
4.626692e+002, 7.144531e+002
4.631513e+002, 7.137117e+002
4.636334e+002, 7.141091e+002
4.641155e+002, 7.149013e+002
4.645976e+002, 7.158464e+002
4.650797e+002, 7.169438e+002
4.655619e+002, 7.183207e+002
4.660440e+002, 7.200972e+002
4.665261e+002, 7.220958e+002
4.670082e+002, 7.237066e+002
4.674903e+002, 7.246285e+002
4.679724e+002, 7.260023e+002
4.684546e+002, 7.283351e+002
4.689367e+002, 7.310689e+002
4.694188e+002, 7.339550e+002
4.699009e+002, 7.369442e+002
4.703830e+002, 7.397562e+002
4.708651e+002, 7.420577e+002
4.713473e+002, 7.439965e+002
4.718294e+002, 7.461478e+002
4.723115e+002, 7.486055e+002
4.727936e+002, 7.510551e+002
4.732757e+002, 7.531603e+002
4.737578e+002, 7.551173e+002
4.742400e+002, 7.573486e+002
4.747221e+002, 7.602705e+002
4.752042e+002, 7.628943e+002
4.756863e+002, 7.646700e+002
4.761684e+002, 7.656214e+002
4.766505e+002, 7.656664e+002
4.771327e+002, 7.646671e+002
4.776148e+002, 7.632644e+002
4.780969e+002, 7.622985e+002
4.785790e+002, 7.618929e+002
4.790611e+002, 7.610173e+002
4.795432e+002, 7.588634e+002
4.800254e+002, 7.569047e+002
4.805075e+002, 7.562188e+002
4.809896e+002, 7.565518e+002
4.814717e+002, 7.570109e+002
4.819538e+002, 7.571052e+002
4.824359e+002, 7.570176e+002
4.829181e+002, 7.572593e+002
4.834002e+002, 7.578446e+002
4.838823e+002, 7.587931e+002
4.843644e+002, 7.602055e+002
4.848465e+002, 7.618801e+002
4.853286e+002, 7.636938e+002
4.858108e+002, 7.656238e+002
4.862929e+002, 7.676994e+002
4.867750e+002, 7.699669e+002
4.872571e+002, 7.723964e+002
4.877392e+002, 7.748450e+002
4.882213e+002, 7.774541e+002
4.887035e+002, 7.798220e+002
4.891856e+002, 7.815677e+002
4.896677e+002, 7.831940e+002
4.901498e+002, 7.852491e+002
4.906319e+002, 7.878692e+002
4.911140e+002, 7.906862e+002
4.915962e+002, 7.932576e+002
4.920783e+002, 7.956537e+002
4.925604e+002, 7.984901e+002
4.930425e+002, 8.021879e+002
4.935246e+002, 8.056146e+002
4.940067e+002, 8.076009e+002
4.944889e+002, 8.087126e+002
4.949710e+002, 8.102237e+002
4.954531e+002, 8.128708e+002
4.959352e+002, 8.154842e+002
4.964173e+002, 8.168136e+002
4.968994e+002, 8.172610e+002
4.973816e+002, 8.183647e+002
4.978637e+002, 8.207031e+002
4.983458e+002, 8.236454e+002
4.988279e+002, 8.262384e+002
4.993100e+002, 8.282983e+002
4.997921e+002, 8.310123e+002
5.002743e+002, 8.354316e+002
5.007564e+002, 8.396752e+002
5.012385e+002, 8.422975e+002
5.017206e+002, 8.436354e+002
5.022027e+002, 8.447507e+002
5.026848e+002, 8.462111e+002
5.031670e+002, 8.480266e+002
5.036491e+002, 8.501862e+002
5.041312e+002, 8.524709e+002
5.046133e+002, 8.555483e+002
5.050954e+002, 8.602862e+002
5.055775e+002, 8.650683e+002
5.060597e+002, 8.688479e+002
5.065418e+002, 8.716034e+002
5.070239e+002, 8.739156e+002
5.075060e+002, 8.764841e+002
5.079881e+002, 8.788975e+002
5.084702e+002, 8.794570e+002
5.089524e+002, 8.789174e+002
5.094345e+002, 8.747228e+002
5.099166e+002, 8.664209e+002
5.103987e+002, 8.539527e+002
5.108808e+002, 8.362309e+002
5.113629e+002, 8.130860e+002
5.118451e+002, 7.879465e+002
5.123271e+002, 7.611076e+002
5.128093e+002, 7.344001e+002
5.132914e+002, 7.134490e+002
5.137735e+002, 6.990268e+002
5.142556e+002, 6.891332e+002
5.147377e+002, 6.833965e+002
5.152198e+002, 6.813435e+002
5.157020e+002, 6.805353e+002
5.161841e+002, 6.815453e+002
5.166662e+002, 6.828749e+002
5.171483e+002, 6.840875e+002
5.176304e+002, 6.851251e+002
5.181125e+002, 6.858779e+002
5.185947e+002, 6.863213e+002
5.190768e+002, 6.865345e+002
5.195589e+002, 6.865534e+002
5.200410e+002, 6.863212e+002
5.205231e+002, 6.864461e+002
5.210052e+002, 6.870043e+002
5.214874e+002, 6.877726e+002
5.219695e+002, 6.888098e+002
5.224516e+002, 6.899762e+002
5.229337e+002, 6.911799e+002
5.234158e+002, 6.923741e+002
5.238979e+002, 6.933063e+002
5.243801e+002, 6.934001e+002
5.248622e+002, 6.923461e+002
5.253443e+002, 6.921092e+002
5.258264e+002, 6.933595e+002
5.263085e+002, 6.947975e+002
5.267906e+002, 6.959177e+002
5.272728e+002, 6.968049e+002
5.277549e+002, 6.976991e+002
5.282370e+002, 6.987743e+002
5.287191e+002, 6.997172e+002
5.292012e+002, 6.999743e+002
5.296833e+002, 6.996016e+002
5.301655e+002, 6.994701e+002
5.306476e+002, 6.998212e+002
5.311297e+002, 7.004324e+002
5.316118e+002, 7.012315e+002
5.320939e+002, 7.021697e+002
5.325760e+002, 7.027401e+002
5.330582e+002, 7.023485e+002
5.335403e+002, 7.019778e+002
5.340224e+002, 7.025884e+002
5.345045e+002, 7.038782e+002
5.349866e+002, 7.048568e+002
5.354688e+002, 7.050767e+002
5.359509e+002, 7.048621e+002
5.364330e+002, 7.047857e+002
5.369151e+002, 7.048219e+002
5.373972e+002, 7.051035e+002
5.378793e+002, 7.057015e+002
5.383615e+002, 7.064610e+002
5.388436e+002, 7.073967e+002
5.393257e+002, 7.084166e+002
5.398078e+002, 7.093986e+002
5.402899e+002, 7.102958e+002
5.407720e+002, 7.109880e+002
5.412542e+002, 7.110802e+002
5.417363e+002, 7.102717e+002
5.422184e+002, 7.098610e+002
5.427005e+002, 7.102880e+002
5.431826e+002, 7.109664e+002
5.436647e+002, 7.117708e+002
5.441469e+002, 7.125712e+002
5.446290e+002, 7.129988e+002
5.451111e+002, 7.126826e+002
5.455932e+002, 7.120222e+002
5.460753e+002, 7.114689e+002
5.465574e+002, 7.110366e+002
5.470396e+002, 7.111537e+002
5.475217e+002, 7.121959e+002
5.480038e+002, 7.135754e+002
5.484859e+002, 7.144382e+002
5.489680e+002, 7.148182e+002
5.494501e+002, 7.147808e+002
5.499323e+002, 7.137375e+002
5.504144e+002, 7.127693e+002
5.508965e+002, 7.129527e+002
5.513786e+002, 7.140172e+002
5.518607e+002, 7.148689e+002
5.523428e+002, 7.149018e+002
5.528250e+002, 7.144656e+002
5.533071e+002, 7.144498e+002
5.537892e+002, 7.153248e+002
5.542713e+002, 7.157653e+002
5.547534e+002, 7.154803e+002
5.552355e+002, 7.150895e+002
5.557177e+002, 7.149681e+002
5.561998e+002, 7.150479e+002
5.566819e+002, 7.150533e+002
5.571640e+002, 7.148129e+002
5.576461e+002, 7.144207e+002
5.581282e+002, 7.140587e+002
5.586104e+002, 7.137189e+002
5.590925e+002, 7.134501e+002
5.595746e+002, 7.132000e+002
5.600567e+002, 7.131006e+002
5.605388e+002, 7.134600e+002
5.610209e+002, 7.141633e+002
5.615031e+002, 7.143948e+002
5.619852e+002, 7.134037e+002
5.624673e+002, 7.121172e+002
5.629494e+002, 7.113065e+002
5.634315e+002, 7.110109e+002
5.639136e+002, 7.114951e+002
5.643958e+002, 7.130482e+002
5.648779e+002, 7.148430e+002
5.653600e+002, 7.153524e+002
5.658421e+002, 7.137375e+002
5.663242e+002, 7.132623e+002
5.668063e+002, 7.152010e+002
5.672885e+002, 7.170483e+002
5.677706e+002, 7.173785e+002
5.682527e+002, 7.165164e+002
5.687348e+002, 7.151824e+002
5.692169e+002, 7.137001e+002
5.696990e+002, 7.124528e+002
5.701812e+002, 7.123199e+002
5.706633e+002, 7.136322e+002
5.711454e+002, 7.147369e+002
5.716275e+002, 7.155803e+002
5.721096e+002, 7.161074e+002
5.725917e+002, 7.160975e+002
5.730739e+002, 7.157700e+002
5.735560e+002, 7.156168e+002
5.740381e+002, 7.158597e+002
5.745202e+002, 7.162904e+002
5.750023e+002, 7.168223e+002
5.754844e+002, 7.173876e+002
5.759666e+002, 7.175260e+002
5.764487e+002, 7.170248e+002
5.769308e+002, 7.163917e+002
5.774129e+002, 7.160853e+002
5.778950e+002, 7.161287e+002
5.783771e+002, 7.165223e+002
5.788593e+002, 7.179285e+002
5.793414e+002, 7.189696e+002
5.798235e+002, 7.185319e+002
5.803056e+002, 7.174669e+002
5.807877e+002, 7.172418e+002
5.812698e+002, 7.182711e+002
5.817520e+002, 7.197404e+002
5.822341e+002, 7.207142e+002
5.827162e+002, 7.212249e+002
5.831984e+002, 7.209197e+002
5.836805e+002, 7.183066e+002
5.841626e+002, 7.167703e+002
5.846447e+002, 7.181011e+002
5.851268e+002, 7.205902e+002
5.856089e+002, 7.221921e+002
5.860911e+002, 7.223580e+002
5.865732e+002, 7.218886e+002
5.870553e+002, 7.211248e+002
5.875374e+002, 7.202906e+002
5.880195e+002, 7.204654e+002
5.885016e+002, 7.219605e+002
5.889838e+002, 7.233024e+002
5.894659e+002, 7.233880e+002
5.899480e+002, 7.226809e+002
5.904301e+002, 7.226179e+002
5.909122e+002, 7.234462e+002
5.913943e+002, 7.244114e+002
5.918765e+002, 7.255526e+002
5.923586e+002, 7.265623e+002
5.928407e+002, 7.269172e+002
5.933228e+002, 7.267021e+002
5.938049e+002, 7.266457e+002
5.942870e+002, 7.273091e+002
5.947692e+002, 7.285367e+002
5.952513e+002, 7.296149e+002
5.957334e+002, 7.304748e+002
5.962155e+002, 7.312960e+002
5.966976e+002, 7.319943e+002
5.971797e+002, 7.327460e+002
5.976619e+002, 7.336368e+002
5.981440e+002, 7.346870e+002
5.986261e+002, 7.359261e+002
5.991082e+002, 7.374304e+002
5.995903e+002, 7.390751e+002
6.000724e+002, 7.406212e+002
6.005546e+002, 7.420642e+002
6.010367e+002, 7.436204e+002
6.015188e+002, 7.455382e+002
6.020009e+002, 7.473174e+002
6.024830e+002, 7.482307e+002
6.029651e+002, 7.483148e+002
6.034473e+002, 7.482979e+002
6.039294e+002, 7.478945e+002
6.044115e+002, 7.477864e+002
6.048936e+002, 7.485980e+002
6.053757e+002, 7.499853e+002
6.058578e+002, 7.511876e+002
6.063400e+002, 7.519333e+002
6.068221e+002, 7.526701e+002
6.073042e+002, 7.540772e+002
6.077863e+002, 7.562857e+002
6.082684e+002, 7.583326e+002
6.087505e+002, 7.602606e+002
6.092327e+002, 7.619662e+002
6.097148e+002, 7.630948e+002
6.101969e+002, 7.641376e+002
6.106790e+002, 7.656490e+002
6.111611e+002, 7.677773e+002
6.116432e+002, 7.704986e+002
6.121254e+002, 7.742706e+002
6.126075e+002, 7.786293e+002
6.130896e+002, 7.820302e+002
6.135717e+002, 7.843099e+002
6.140538e+002, 7.862097e+002
6.145359e+002, 7.884448e+002
6.150181e+002, 7.904579e+002
6.155002e+002, 7.908150e+002
6.159823e+002, 7.903441e+002
6.164644e+002, 7.867288e+002
6.169465e+002, 7.794142e+002
6.174286e+002, 7.688290e+002
6.179108e+002, 7.542713e+002
6.183929e+002, 7.366373e+002
6.188750e+002, 7.181594e+002
6.193571e+002, 7.001141e+002
6.198392e+002, 6.829928e+002
6.203214e+002, 6.680812e+002
6.208035e+002, 6.555042e+002
6.212856e+002, 6.447574e+002
6.217677e+002, 6.357130e+002
6.222498e+002, 6.287268e+002
6.227319e+002, 6.247225e+002
6.232141e+002, 6.229137e+002
6.236962e+002, 6.213273e+002
6.241783e+002, 6.190428e+002
6.246604e+002, 6.170638e+002
6.251425e+002, 6.165045e+002
6.256246e+002, 6.170706e+002
6.261068e+002, 6.178461e+002
6.265889e+002, 6.186547e+002
6.270710e+002, 6.194716e+002
6.275531e+002, 6.203328e+002
6.280352e+002, 6.212167e+002
6.285173e+002, 6.216453e+002
6.289995e+002, 6.211252e+002
6.294816e+002, 6.208410e+002
6.299637e+002, 6.212971e+002
6.304458e+002, 6.219320e+002
6.309279e+002, 6.221586e+002
6.314100e+002, 6.219369e+002
6.318922e+002, 6.216603e+002
6.323743e+002, 6.216765e+002
6.328564e+002, 6.218661e+002
6.333385e+002, 6.217662e+002
6.338206e+002, 6.213026e+002
6.343027e+002, 6.208359e+002
6.347849e+002, 6.204991e+002
6.352670e+002, 6.201598e+002
6.357491e+002, 6.195510e+002
6.362312e+002, 6.187299e+002
6.367133e+002, 6.183284e+002
6.371954e+002, 6.191344e+002
6.376776e+002, 6.199044e+002
6.381597e+002, 6.194838e+002
6.386418e+002, 6.182507e+002
6.391239e+002, 6.172415e+002
6.396060e+002, 6.168020e+002
6.400881e+002, 6.163031e+002
6.405703e+002, 6.148327e+002
6.410524e+002, 6.122245e+002
6.415345e+002, 6.106688e+002
6.420166e+002, 6.113792e+002
6.424987e+002, 6.117504e+002
6.429808e+002, 6.108763e+002
6.434630e+002, 6.096501e+002
6.439451e+002, 6.090817e+002
6.444272e+002, 6.093121e+002
6.449093e+002, 6.095607e+002
6.453914e+002, 6.091691e+002
6.458735e+002, 6.083539e+002
6.463557e+002, 6.076230e+002
6.468378e+002, 6.069758e+002
6.473199e+002, 6.064214e+002
6.478020e+002, 6.060779e+002
6.482841e+002, 6.056533e+002
6.487662e+002, 6.044742e+002
6.492484e+002, 6.022435e+002
6.497305e+002, 6.009244e+002
6.502126e+002, 6.017161e+002
6.506947e+002, 6.024077e+002
6.511768e+002, 6.014728e+002
6.516589e+002, 5.996590e+002
6.521411e+002, 5.984167e+002
6.526232e+002, 5.982412e+002
6.531053e+002, 5.984412e+002
6.535874e+002, 5.981910e+002
6.540695e+002, 5.974899e+002
6.545516e+002, 5.964381e+002
6.550338e+002, 5.946932e+002
6.555159e+002, 5.932983e+002
6.559980e+002, 5.933395e+002
6.564801e+002, 5.936536e+002
6.569622e+002, 5.926927e+002
6.574443e+002, 5.901453e+002
6.579265e+002, 5.882078e+002
6.584086e+002, 5.884713e+002
6.588907e+002, 5.894194e+002
6.593728e+002, 5.894764e+002
6.598549e+002, 5.886769e+002
6.603370e+002, 5.875580e+002
6.608192e+002, 5.863439e+002
6.613013e+002, 5.851447e+002
6.617834e+002, 5.841938e+002
6.622655e+002, 5.836158e+002
6.627476e+002, 5.828056e+002
6.632297e+002, 5.815854e+002
6.637119e+002, 5.803205e+002
6.641940e+002, 5.790305e+002
6.646761e+002, 5.777993e+002
6.651582e+002, 5.767846e+002
6.656403e+002, 5.760266e+002
6.661224e+002, 5.752611e+002
6.666046e+002, 5.742292e+002
6.670867e+002, 5.730354e+002
6.675688e+002, 5.718439e+002
6.680509e+002, 5.706714e+002
6.685330e+002, 5.697986e+002
6.690151e+002, 5.694591e+002
6.694973e+002, 5.693676e+002
6.699794e+002, 5.689750e+002
6.704615e+002, 5.682499e+002
6.709436e+002, 5.672709e+002
6.714257e+002, 5.655526e+002
6.719078e+002, 5.640746e+002
6.723900e+002, 5.635674e+002
6.728721e+002, 5.635848e+002
6.733542e+002, 5.633551e+002
6.738363e+002, 5.626000e+002
6.743184e+002, 5.615779e+002
6.748005e+002, 5.605818e+002
6.752827e+002, 5.595931e+002
6.757648e+002, 5.584213e+002
6.762469e+002, 5.569970e+002
6.767290e+002, 5.556281e+002
6.772111e+002, 5.543919e+002
6.776932e+002, 5.533455e+002
6.781754e+002, 5.525980e+002
6.786575e+002, 5.522064e+002
6.791396e+002, 5.517971e+002
6.796217e+002, 5.512712e+002
6.801038e+002, 5.507067e+002
6.805859e+002, 5.503716e+002
6.810681e+002, 5.500243e+002
6.815502e+002, 5.490045e+002
6.820323e+002, 5.470813e+002
6.825144e+002, 5.449064e+002
6.829965e+002, 5.434229e+002
6.834786e+002, 5.426655e+002
6.839608e+002, 5.420719e+002
6.844429e+002, 5.417411e+002
6.849250e+002, 5.413958e+002
6.854071e+002, 5.410592e+002
6.858892e+002, 5.405735e+002
6.863713e+002, 5.396813e+002
6.868535e+002, 5.383394e+002
6.873356e+002, 5.370301e+002
6.878177e+002, 5.359351e+002
6.882998e+002, 5.349951e+002
6.887819e+002, 5.340829e+002
6.892640e+002, 5.332648e+002
6.897462e+002, 5.328674e+002
6.902283e+002, 5.330233e+002
6.907104e+002, 5.332685e+002
6.911925e+002, 5.329423e+002
6.916746e+002, 5.319979e+002
6.921567e+002, 5.308867e+002
6.926389e+002, 5.292408e+002
6.931210e+002, 5.279327e+002
6.936031e+002, 5.273281e+002
6.940852e+002, 5.270557e+002
6.945673e+002, 5.267449e+002
6.950494e+002, 5.263496e+002
6.955316e+002, 5.260427e+002
6.960137e+002, 5.261999e+002
6.964958e+002, 5.263290e+002
6.969779e+002, 5.255339e+002
6.974600e+002, 5.240521e+002
6.979421e+002, 5.230990e+002
6.984243e+002, 5.231550e+002
6.989064e+002, 5.234057e+002
6.993885e+002, 5.227686e+002
6.998706e+002, 5.211337e+002
7.003527e+002, 5.200585e+002
7.008348e+002, 5.198588e+002
7.013170e+002, 5.198528e+002
7.017991e+002, 5.200455e+002
7.022812e+002, 5.203027e+002
7.027633e+002, 5.206063e+002
7.032454e+002, 5.208931e+002
7.037275e+002, 5.208924e+002
7.042097e+002, 5.201493e+002
7.046918e+002, 5.192640e+002
7.051739e+002, 5.193279e+002
7.056560e+002, 5.201753e+002
7.061381e+002, 5.206840e+002
7.066202e+002, 5.204903e+002
7.071024e+002, 5.201790e+002
7.075845e+002, 5.203266e+002
7.080666e+002, 5.209269e+002
7.085487e+002, 5.216432e+002
7.090308e+002, 5.226985e+002
7.095129e+002, 5.235620e+002
7.099951e+002, 5.240256e+002
7.104772e+002, 5.243652e+002
7.109593e+002, 5.246489e+002
7.114414e+002, 5.250050e+002
7.119235e+002, 5.257802e+002
7.124056e+002, 5.273233e+002
7.128878e+002, 5.291160e+002
7.133699e+002, 5.302581e+002
7.138520e+002, 5.308655e+002
7.143341e+002, 5.317616e+002
7.148162e+002, 5.331425e+002
7.152983e+002, 5.346534e+002
7.157805e+002, 5.360901e+002
7.162626e+002, 5.374158e+002
7.167447e+002, 5.384125e+002
7.172268e+002, 5.386745e+002
7.177089e+002, 5.392172e+002
7.181910e+002, 5.400529e+002
7.186732e+002, 5.412586e+002
7.191553e+002, 5.433120e+002
7.196374e+002, 5.457484e+002
7.201195e+002, 5.473401e+002
7.206016e+002, 5.473600e+002
7.210837e+002, 5.472092e+002
7.215659e+002, 5.490929e+002
7.220480e+002, 5.525661e+002
7.225301e+002, 5.551089e+002
7.230122e+002, 5.564028e+002
7.234943e+002, 5.571799e+002
7.239764e+002, 5.576575e+002
7.244586e+002, 5.580822e+002
7.249407e+002, 5.591062e+002
7.254228e+002, 5.608536e+002
7.259049e+002, 5.628798e+002
7.263870e+002, 5.653632e+002
7.268691e+002, 5.679111e+002
7.273513e+002, 5.703697e+002
7.278334e+002, 5.727177e+002
7.283155e+002, 5.750319e+002
7.287976e+002, 5.773163e+002
7.292797e+002, 5.792122e+002
7.297618e+002, 5.799066e+002
7.302440e+002, 5.798859e+002
7.307261e+002, 5.811073e+002
7.312082e+002, 5.837000e+002
7.316903e+002, 5.862944e+002
7.321724e+002, 5.884571e+002
7.326545e+002, 5.901083e+002
7.331367e+002, 5.909711e+002
7.336188e+002, 5.907950e+002
7.341009e+002, 5.912845e+002
7.345830e+002, 5.927672e+002
7.350651e+002, 5.945118e+002
7.355472e+002, 5.963351e+002
7.360294e+002, 5.982507e+002
7.365115e+002, 6.004046e+002
7.369936e+002, 6.027309e+002
7.374757e+002, 6.048362e+002
7.379578e+002, 6.063987e+002
7.384399e+002, 6.075699e+002
7.389221e+002, 6.084659e+002
7.394042e+002, 6.091366e+002
7.398863e+002, 6.104858e+002
7.403684e+002, 6.128791e+002
7.408505e+002, 6.154359e+002
7.413326e+002, 6.173337e+002
7.418148e+002, 6.186270e+002
7.422969e+002, 6.199459e+002
7.427790e+002, 6.213986e+002
7.432611e+002, 6.227268e+002
7.437432e+002, 6.237366e+002
7.442253e+002, 6.247458e+002
7.447075e+002, 6.263242e+002
7.451896e+002, 6.281053e+002
7.456717e+002, 6.289786e+002
7.461538e+002, 6.282452e+002
7.466359e+002, 6.272022e+002
7.471180e+002, 6.273195e+002
7.476002e+002, 6.284288e+002
7.480823e+002, 6.303040e+002
7.485644e+002, 6.329926e+002
7.490465e+002, 6.346915e+002
7.495286e+002, 6.341360e+002
7.500107e+002, 6.322113e+002
7.504929e+002, 6.309753e+002
7.509750e+002, 6.305525e+002
7.514571e+002, 6.305406e+002
7.519392e+002, 6.314299e+002
7.524213e+002, 6.321481e+002
7.529034e+002, 6.321434e+002
7.533856e+002, 6.317683e+002
7.538677e+002, 6.313488e+002
7.543498e+002, 6.310031e+002
7.548319e+002, 6.312126e+002
7.553140e+002, 6.331406e+002
7.557961e+002, 6.354327e+002
7.562783e+002, 6.353471e+002
7.567604e+002, 6.333333e+002
7.572425e+002, 6.322654e+002
7.577246e+002, 6.331581e+002
7.582067e+002, 6.347011e+002
7.586888e+002, 6.354080e+002
7.591710e+002, 6.352836e+002
7.596531e+002, 6.350289e+002
7.601352e+002, 6.345430e+002
7.606173e+002, 6.340715e+002
7.610994e+002, 6.333044e+002
7.615815e+002, 6.328444e+002
7.620637e+002, 6.334756e+002
7.625458e+002, 6.348461e+002
7.630279e+002, 6.356650e+002
7.635100e+002, 6.352584e+002
7.639921e+002, 6.344617e+002
7.644742e+002, 6.338903e+002
7.649564e+002, 6.334327e+002
7.654385e+002, 6.328508e+002
7.659206e+002, 6.321404e+002
7.664027e+002, 6.315316e+002
7.668848e+002, 6.311769e+002
7.673669e+002, 6.310024e+002
7.678491e+002, 6.308355e+002
7.683312e+002, 6.306666e+002
7.688133e+002, 6.305820e+002
7.692954e+002, 6.309483e+002
7.697775e+002, 6.308776e+002
7.702596e+002, 6.296996e+002
7.707418e+002, 6.280089e+002
7.712239e+002, 6.263287e+002
7.717060e+002, 6.246109e+002
7.721881e+002, 6.239777e+002
7.726702e+002, 6.259576e+002
7.731523e+002, 6.281826e+002
7.736345e+002, 6.286230e+002
7.741166e+002, 6.278503e+002
7.745987e+002, 6.271447e+002
7.750808e+002, 6.268771e+002
7.755629e+002, 6.266500e+002
7.760450e+002, 6.260436e+002
7.765272e+002, 6.251576e+002
7.770093e+002, 6.244272e+002
7.774914e+002, 6.238344e+002
7.779735e+002, 6.235676e+002
7.784556e+002, 6.239822e+002
7.789377e+002, 6.242552e+002
7.794199e+002, 6.235103e+002
7.799020e+002, 6.219570e+002
7.803841e+002, 6.206354e+002
7.808662e+002, 6.193967e+002
7.813483e+002, 6.186663e+002
7.818304e+002, 6.189880e+002
7.823126e+002, 6.194824e+002
7.827947e+002, 6.192966e+002
7.832768e+002, 6.186594e+002
7.837589e+002, 6.184092e+002
7.842410e+002, 6.189431e+002
7.847231e+002, 6.195016e+002
7.852053e+002, 6.188459e+002
7.856874e+002, 6.174109e+002
7.861695e+002, 6.170790e+002
7.866516e+002, 6.179948e+002
7.871337e+002, 6.188770e+002
7.876158e+002, 6.191893e+002
7.880980e+002, 6.191316e+002
7.885801e+002, 6.189872e+002
7.890622e+002, 6.187635e+002
7.895443e+002, 6.184260e+002
7.900264e+002, 6.177780e+002
7.905085e+002, 6.172802e+002
7.909907e+002, 6.170004e+002
7.914728e+002, 6.169390e+002
7.919549e+002, 6.173995e+002
7.924370e+002, 6.181539e+002
7.929191e+002, 6.181942e+002
7.934012e+002, 6.165729e+002
7.938834e+002, 6.147372e+002
7.943655e+002, 6.141093e+002
7.948476e+002, 6.143175e+002
7.953297e+002, 6.147728e+002
7.958118e+002, 6.153043e+002
7.962939e+002, 6.154482e+002
7.967761e+002, 6.148670e+002
7.972582e+002, 6.138505e+002
7.977403e+002, 6.130586e+002
7.982224e+002, 6.124588e+002
7.987045e+002, 6.121872e+002
7.991866e+002, 6.121944e+002
7.996688e+002, 6.126176e+002
8.001509e+002, 6.140245e+002
8.006330e+002, 6.156376e+002
8.011151e+002, 6.164856e+002
8.015972e+002, 6.164733e+002
8.020793e+002, 6.162892e+002
8.025615e+002, 6.160973e+002
8.030436e+002, 6.158300e+002
8.035257e+002, 6.153365e+002
8.040078e+002, 6.147966e+002
8.044899e+002, 6.143281e+002
8.049720e+002, 6.140494e+002
8.054542e+002, 6.143687e+002
8.059363e+002, 6.157755e+002
8.064184e+002, 6.176760e+002
8.069005e+002, 6.188428e+002
8.073826e+002, 6.192780e+002
8.078647e+002, 6.189493e+002
8.083469e+002, 6.176679e+002
8.088290e+002, 6.164105e+002
8.093111e+002, 6.157681e+002
8.097932e+002, 6.157040e+002
8.102753e+002, 6.161368e+002
8.107574e+002, 6.173962e+002
8.112396e+002, 6.184957e+002
8.117217e+002, 6.196933e+002
8.122038e+002, 6.204590e+002
8.126859e+002, 6.201048e+002
8.131680e+002, 6.194186e+002
8.136501e+002, 6.195975e+002
8.141323e+002, 6.208216e+002
8.146144e+002, 6.219031e+002
8.150965e+002, 6.218146e+002
8.155786e+002, 6.214348e+002
8.160607e+002, 6.220599e+002
8.165428e+002, 6.231925e+002
8.170250e+002, 6.233570e+002
8.175071e+002, 6.222767e+002
8.179892e+002, 6.211210e+002
8.184713e+002, 6.209688e+002
8.189534e+002, 6.213085e+002
8.194355e+002, 6.201114e+002
8.199177e+002, 6.168997e+002
8.203998e+002, 6.143577e+002
8.208819e+002, 6.130051e+002
8.213640e+002, 6.119618e+002
8.218461e+002, 6.109366e+002
8.223282e+002, 6.097851e+002
8.228104e+002, 6.082820e+002
8.232925e+002, 6.065062e+002
8.237746e+002, 6.040604e+002
8.242567e+002, 6.000699e+002
8.247388e+002, 5.962278e+002
8.252209e+002, 5.940162e+002
8.257031e+002, 5.923344e+002
8.261852e+002, 5.894890e+002
8.266673e+002, 5.852294e+002
8.271494e+002, 5.806585e+002
8.276315e+002, 5.765490e+002
8.281136e+002, 5.727439e+002
8.285958e+002, 5.688283e+002
8.290779e+002, 5.649051e+002
8.295600e+002, 5.616158e+002
8.300421e+002, 5.591038e+002
8.305242e+002, 5.563396e+002
8.310063e+002, 5.524467e+002
8.314885e+002, 5.479402e+002
8.319706e+002, 5.444907e+002
8.324527e+002, 5.425323e+002
8.329348e+002, 5.404401e+002
8.334169e+002, 5.379363e+002
8.338990e+002, 5.356365e+002
8.343812e+002, 5.338807e+002
8.348633e+002, 5.323891e+002
8.353454e+002, 5.308705e+002
8.358275e+002, 5.293072e+002
8.363096e+002, 5.275052e+002
8.367917e+002, 5.249679e+002
8.372739e+002, 5.226521e+002
8.377560e+002, 5.212800e+002
8.382381e+002, 5.204311e+002
8.387202e+002, 5.197530e+002
8.392023e+002, 5.190037e+002
8.396844e+002, 5.175204e+002
8.401666e+002, 5.146702e+002
8.406487e+002, 5.115338e+002
8.411308e+002, 5.102018e+002
8.416129e+002, 5.104146e+002
8.420950e+002, 5.104818e+002
8.425771e+002, 5.102501e+002
8.430593e+002, 5.094765e+002
8.435414e+002, 5.078841e+002
8.440235e+002, 5.059761e+002
8.445056e+002, 5.047093e+002
8.449877e+002, 5.042894e+002
8.454698e+002, 5.034951e+002
8.459520e+002, 5.016665e+002
8.464341e+002, 5.003475e+002
8.469162e+002, 5.004113e+002
8.473983e+002, 5.007208e+002
8.478804e+002, 5.000562e+002
8.483625e+002, 4.986167e+002
8.488447e+002, 4.978290e+002
8.493268e+002, 4.987638e+002
8.498089e+002, 4.994748e+002
8.502910e+002, 4.984323e+002
8.507731e+002, 4.968694e+002
8.512552e+002, 4.961813e+002
8.517374e+002, 4.963507e+002
8.522195e+002, 4.968932e+002
8.527016e+002, 4.975858e+002
8.531837e+002, 4.979837e+002
8.536658e+002, 4.972698e+002
8.541479e+002, 4.957296e+002
8.546301e+002, 4.947247e+002
8.551122e+002, 4.942829e+002
8.555943e+002, 4.941238e+002
8.560764e+002, 4.943066e+002
8.565585e+002, 4.941377e+002
8.570406e+002, 4.926467e+002
8.575228e+002, 4.900411e+002
8.580049e+002, 4.887714e+002
8.584870e+002, 4.897914e+002
8.589691e+002, 4.905570e+002
8.594512e+002, 4.907242e+002
8.599333e+002, 4.907380e+002
8.604155e+002, 4.909279e+002
8.608976e+002, 4.911049e+002
8.613797e+002, 4.908341e+002
8.618618e+002, 4.899529e+002
8.623439e+002, 4.891651e+002
8.628260e+002, 4.886610e+002
8.633082e+002, 4.884613e+002
8.637903e+002, 4.888065e+002
8.642724e+002, 4.893821e+002
8.647545e+002, 4.896830e+002
8.652366e+002, 4.895993e+002
8.657188e+002, 4.893258e+002
8.662009e+002, 4.890059e+002
8.666830e+002, 4.885966e+002
8.671651e+002, 4.878607e+002
8.676472e+002, 4.869035e+002
8.681293e+002, 4.864927e+002
8.686115e+002, 4.867609e+002
8.690936e+002, 4.870643e+002
8.695757e+002, 4.870032e+002
8.700578e+002, 4.867762e+002
8.705399e+002, 4.868176e+002
8.710220e+002, 4.872248e+002
8.715042e+002, 4.874238e+002
8.719863e+002, 4.875509e+002
8.724684e+002, 4.872544e+002
8.729505e+002, 4.859098e+002
8.734326e+002, 4.844817e+002
8.739147e+002, 4.838121e+002
8.743969e+002, 4.838472e+002
8.748790e+002, 4.840929e+002
8.753611e+002, 4.847389e+002
8.758432e+002, 4.851915e+002
8.763253e+002, 4.851019e+002
8.768074e+002, 4.848597e+002
8.772896e+002, 4.849216e+002
8.777717e+002, 4.850979e+002
8.782538e+002, 4.847815e+002
8.787359e+002, 4.837584e+002
8.792180e+002, 4.827881e+002
8.797001e+002, 4.825518e+002
8.801823e+002, 4.828460e+002
8.806644e+002, 4.833879e+002
8.811465e+002, 4.841255e+002
8.816286e+002, 4.850214e+002
8.821107e+002, 4.860407e+002
8.825928e+002, 4.866223e+002
8.830750e+002, 4.862336e+002
8.835571e+002, 4.850949e+002
8.840392e+002, 4.837974e+002
8.845213e+002, 4.821664e+002
8.850034e+002, 4.815063e+002
8.854855e+002, 4.823364e+002
8.859677e+002, 4.832206e+002
8.864498e+002, 4.834525e+002
8.869319e+002, 4.832896e+002
8.874140e+002, 4.831339e+002
8.878961e+002, 4.829882e+002
8.883782e+002, 4.828575e+002
8.888604e+002, 4.827971e+002
8.893425e+002, 4.826912e+002
8.898246e+002, 4.825903e+002
8.903067e+002, 4.823720e+002
8.907888e+002, 4.819956e+002
8.912709e+002, 4.814109e+002
8.917531e+002, 4.804186e+002
8.922352e+002, 4.787489e+002
8.927173e+002, 4.773164e+002
8.931994e+002, 4.767171e+002
8.936815e+002, 4.767143e+002
8.941636e+002, 4.771789e+002
8.946458e+002, 4.779842e+002
8.951279e+002, 4.789949e+002
8.956100e+002, 4.801204e+002
8.960921e+002, 4.809818e+002
8.965742e+002, 4.811530e+002
8.970563e+002, 4.808593e+002
8.975385e+002, 4.806860e+002
8.980206e+002, 4.806194e+002
8.985027e+002, 4.805394e+002
8.989848e+002, 4.804354e+002
8.994669e+002, 4.801570e+002
8.999490e+002, 4.795552e+002
9.004312e+002, 4.788056e+002
9.009133e+002, 4.783079e+002
9.013954e+002, 4.781000e+002
9.018775e+002, 4.779484e+002
9.023596e+002, 4.776225e+002
9.028417e+002, 4.777611e+002
9.033239e+002, 4.791707e+002
9.038060e+002, 4.806358e+002
9.042881e+002, 4.809411e+002
9.047702e+002, 4.802360e+002
9.052523e+002, 4.795122e+002
9.057344e+002, 4.788008e+002
9.062166e+002, 4.782132e+002
9.066987e+002, 4.778486e+002
9.071808e+002, 4.775473e+002
9.076629e+002, 4.772567e+002
9.081450e+002, 4.769236e+002
9.086271e+002, 4.763447e+002
9.091093e+002, 4.754984e+002
9.095914e+002, 4.750180e+002
9.100735e+002, 4.758117e+002
9.105556e+002, 4.767953e+002
9.110377e+002, 4.767188e+002
9.115198e+002, 4.759306e+002
9.120020e+002, 4.750013e+002
9.124841e+002, 4.741248e+002
9.129662e+002, 4.735651e+002
9.134483e+002, 4.734944e+002
9.139304e+002, 4.737896e+002
9.144125e+002, 4.745116e+002
9.148947e+002, 4.755135e+002
9.153768e+002, 4.754054e+002
9.158589e+002, 4.740724e+002
9.163410e+002, 4.730710e+002
9.168231e+002, 4.730347e+002
9.173052e+002, 4.732837e+002
9.177874e+002, 4.731010e+002
9.182695e+002, 4.725070e+002
9.187516e+002, 4.716833e+002
9.192337e+002, 4.705746e+002
9.197158e+002, 4.693329e+002
9.201979e+002, 4.674795e+002
9.206801e+002, 4.661293e+002
9.211622e+002, 4.663516e+002
9.216443e+002, 4.672792e+002
9.221264e+002, 4.675343e+002
9.226085e+002, 4.669884e+002
9.230906e+002, 4.664095e+002
9.235728e+002, 4.658544e+002
9.240549e+002, 4.653374e+002
9.245370e+002, 4.648988e+002
9.250191e+002, 4.644750e+002
9.255012e+002, 4.638579e+002
9.259833e+002, 4.632018e+002
9.264655e+002, 4.630336e+002
9.269476e+002, 4.636838e+002
9.274297e+002, 4.642820e+002
9.279118e+002, 4.640010e+002
9.283939e+002, 4.635274e+002
9.288760e+002, 4.637523e+002
9.293582e+002, 4.643934e+002
9.298403e+002, 4.647677e+002
9.303224e+002, 4.646821e+002
9.308045e+002, 4.642557e+002
9.312866e+002, 4.635204e+002
9.317687e+002, 4.626424e+002
9.322509e+002, 4.619659e+002
9.327330e+002, 4.614345e+002
9.332151e+002, 4.606332e+002
9.336972e+002, 4.595560e+002
9.341793e+002, 4.590212e+002
9.346614e+002, 4.594756e+002
9.351436e+002, 4.604106e+002
9.356257e+002, 4.611782e+002
9.361078e+002, 4.617604e+002
9.365899e+002, 4.615609e+002
9.370720e+002, 4.602612e+002
9.375541e+002, 4.595193e+002
9.380363e+002, 4.598841e+002
9.385184e+002, 4.604345e+002
9.390005e+002, 4.605352e+002
9.394826e+002, 4.603069e+002
9.399647e+002, 4.601086e+002
9.404468e+002, 4.600495e+002
9.409290e+002, 4.597063e+002
9.414111e+002, 4.586119e+002
9.418932e+002, 4.578260e+002
9.423753e+002, 4.578456e+002
9.428574e+002, 4.581518e+002
9.433395e+002, 4.582739e+002
9.438217e+002, 4.582331e+002
9.443038e+002, 4.582549e+002
9.447859e+002, 4.581976e+002
9.452680e+002, 4.585902e+002
9.457501e+002, 4.604786e+002
9.462322e+002, 4.620692e+002
9.467144e+002, 4.616317e+002
9.471965e+002, 4.600893e+002
9.476786e+002, 4.590452e+002
9.481607e+002, 4.588413e+002
9.486428e+002, 4.588035e+002
9.491249e+002, 4.583756e+002
9.496071e+002, 4.580944e+002
9.500892e+002, 4.588056e+002
9.505713e+002, 4.598951e+002
9.510534e+002, 4.602099e+002
9.515355e+002, 4.598315e+002
9.520176e+002, 4.596518e+002
9.524998e+002, 4.600673e+002
9.529819e+002, 4.606685e+002
9.534640e+002, 4.610334e+002
9.539461e+002, 4.611835e+002
9.544282e+002, 4.610686e+002
9.549103e+002, 4.607518e+002
9.553925e+002, 4.605978e+002
9.558746e+002, 4.606793e+002
9.563567e+002, 4.617390e+002
9.568388e+002, 4.645790e+002
9.573209e+002, 4.677011e+002
9.578030e+002, 4.674193e+002
9.582852e+002, 4.632903e+002
9.587673e+002, 4.610034e+002
9.592494e+002, 4.609705e+002
9.597315e+002, 4.612263e+002
9.602136e+002, 4.613119e+002
9.606957e+002, 4.611938e+002
9.611779e+002, 4.607929e+002
9.616600e+002, 4.601664e+002
9.621421e+002, 4.595821e+002
9.626242e+002, 4.585435e+002
9.631063e+002, 4.585584e+002
9.635884e+002, 4.607344e+002
9.640706e+002, 4.625893e+002
9.645527e+002, 4.630152e+002
9.650348e+002, 4.627876e+002
9.655169e+002, 4.626811e+002
9.659990e+002, 4.627158e+002
9.664811e+002, 4.627744e+002
9.669633e+002, 4.627865e+002
9.674454e+002, 4.628943e+002
9.679275e+002, 4.633575e+002
9.684096e+002, 4.636986e+002
9.688917e+002, 4.636699e+002
9.693738e+002, 4.632644e+002
9.698560e+002, 4.623216e+002
9.703381e+002, 4.608501e+002
9.708202e+002, 4.597888e+002
9.713023e+002, 4.598594e+002
9.717844e+002, 4.601703e+002
9.722665e+002, 4.601849e+002
9.727487e+002, 4.600780e+002
9.732308e+002, 4.600430e+002
9.737129e+002, 4.600884e+002
9.741950e+002, 4.601826e+002
9.746771e+002, 4.603121e+002
9.751592e+002, 4.603549e+002
9.756414e+002, 4.600546e+002
9.761235e+002, 4.597081e+002
9.766056e+002, 4.599183e+002
9.770877e+002, 4.603787e+002
9.775698e+002, 4.601810e+002
9.780519e+002, 4.593282e+002
9.785341e+002, 4.588277e+002
9.790162e+002, 4.593050e+002
9.794983e+002, 4.600814e+002
9.799804e+002, 4.601314e+002
9.804625e+002, 4.596447e+002
9.809446e+002, 4.592898e+002
9.814268e+002, 4.590894e+002
9.819089e+002, 4.591792e+002
9.823910e+002, 4.595983e+002
9.828731e+002, 4.599137e+002
9.833552e+002, 4.597598e+002
9.838373e+002, 4.593146e+002
9.843195e+002, 4.590338e+002
9.848016e+002, 4.589306e+002
9.852837e+002, 4.587064e+002
9.857658e+002, 4.583370e+002
9.862479e+002, 4.579027e+002
9.867300e+002, 4.573682e+002
9.872122e+002, 4.569637e+002
9.876943e+002, 4.569541e+002
9.881764e+002, 4.572595e+002
9.886585e+002, 4.574349e+002
9.891406e+002, 4.573947e+002
9.896227e+002, 4.574560e+002
9.901049e+002, 4.575402e+002
9.905870e+002, 4.579254e+002
9.910691e+002, 4.591557e+002
9.915512e+002, 4.603233e+002
9.920333e+002, 4.600473e+002
9.925154e+002, 4.584013e+002
9.929976e+002, 4.577740e+002
9.934797e+002, 4.591073e+002
9.939618e+002, 4.600206e+002
9.944439e+002, 4.601370e+002
9.949260e+002, 4.601043e+002
9.954081e+002, 4.602552e+002
9.958903e+002, 4.604272e+002
9.963724e+002, 4.602870e+002
9.968545e+002, 4.598294e+002
9.973366e+002, 4.597219e+002
9.978187e+002, 4.606016e+002
9.983008e+002, 4.611404e+002
9.987830e+002, 4.604877e+002
9.992651e+002, 4.598250e+002
9.997472e+002, 4.602348e+002
1.000229e+003, 4.611543e+002
1.000711e+003, 4.615220e+002
1.001194e+003, 4.611363e+002
1.001676e+003, 4.605863e+002
1.002158e+003, 4.599183e+002
1.002640e+003, 4.594084e+002
1.003122e+003, 4.592518e+002
1.003604e+003, 4.593072e+002
1.004086e+003, 4.595446e+002
1.004568e+003, 4.598426e+002
1.005050e+003, 4.599107e+002
1.005533e+003, 4.596680e+002
1.006015e+003, 4.595738e+002
1.006497e+003, 4.601758e+002
1.006979e+003, 4.608526e+002
1.007461e+003, 4.609499e+002
1.007943e+003, 4.607445e+002
1.008425e+003, 4.606472e+002
1.008907e+003, 4.606808e+002
1.009390e+003, 4.606609e+002
1.009872e+003, 4.605091e+002
1.010354e+003, 4.604594e+002
1.010836e+003, 4.607886e+002
1.011318e+003, 4.613315e+002
1.011800e+003, 4.616749e+002
1.012282e+003, 4.620433e+002
1.012764e+003, 4.632585e+002
1.013246e+003, 4.652175e+002
1.013729e+003, 4.668248e+002
1.014211e+003, 4.675167e+002
1.014693e+003, 4.673501e+002
1.015175e+003, 4.658161e+002
1.015657e+003, 4.636432e+002
1.016139e+003, 4.632095e+002
1.016621e+003, 4.641752e+002
1.017103e+003, 4.648189e+002
1.017586e+003, 4.648118e+002
1.018068e+003, 4.646959e+002
1.018550e+003, 4.648251e+002
1.019032e+003, 4.648545e+002
1.019514e+003, 4.638333e+002
1.019996e+003, 4.620927e+002
1.020478e+003, 4.621806e+002
1.020960e+003, 4.640573e+002
1.021442e+003, 4.666354e+002
1.021925e+003, 4.697763e+002
1.022407e+003, 4.715132e+002
1.022889e+003, 4.703111e+002
1.023371e+003, 4.674569e+002
1.023853e+003, 4.653621e+002
1.024335e+003, 4.640308e+002
1.024817e+003, 4.635479e+002
1.025299e+003, 4.640546e+002
1.025781e+003, 4.641886e+002
1.026264e+003, 4.634299e+002
1.026746e+003, 4.630933e+002
1.027228e+003, 4.643180e+002
1.027710e+003, 4.663412e+002
1.028192e+003, 4.673319e+002
1.028674e+003, 4.671548e+002
1.029156e+003, 4.669412e+002
1.029638e+003, 4.666913e+002
1.030120e+003, 4.663984e+002
1.030603e+003, 4.660311e+002
1.031085e+003, 4.656649e+002
1.031567e+003, 4.652564e+002
1.032049e+003, 4.649859e+002
1.032531e+003, 4.654062e+002
1.033013e+003, 4.667820e+002
1.033495e+003, 4.676533e+002
1.033977e+003, 4.678298e+002
1.034460e+003, 4.678929e+002
1.034942e+003, 4.678153e+002
1.035424e+003, 4.679503e+002
1.035906e+003, 4.690478e+002
1.036388e+003, 4.703956e+002
1.036870e+003, 4.697660e+002
1.037352e+003, 4.662355e+002
1.037834e+003, 4.639671e+002
1.038317e+003, 4.634482e+002
1.038799e+003, 4.634623e+002
1.039281e+003, 4.638842e+002
1.039763e+003, 4.645906e+002
1.040245e+003, 4.658424e+002
1.040727e+003, 4.672682e+002
1.041209e+003, 4.678128e+002
1.041691e+003, 4.672761e+002
1.042173e+003, 4.664859e+002
1.042656e+003, 4.649004e+002
1.043138e+003, 4.637981e+002
1.043620e+003, 4.637374e+002
1.044102e+003, 4.640353e+002
1.044584e+003, 4.642281e+002
1.045066e+003, 4.643674e+002
1.045548e+003, 4.646974e+002
1.046030e+003, 4.654190e+002
1.046512e+003, 4.655837e+002
1.046995e+003, 4.647052e+002
1.047477e+003, 4.637670e+002
1.047959e+003, 4.628221e+002
1.048441e+003, 4.621387e+002
1.048923e+003, 4.618821e+002
1.049405e+003, 4.620567e+002
1.049887e+003, 4.628427e+002
1.050369e+003, 4.645410e+002
1.050852e+003, 4.653500e+002
1.051334e+003, 4.641214e+002
1.051816e+003, 4.630161e+002
1.052298e+003, 4.628816e+002
1.052780e+003, 4.630681e+002
1.053262e+003, 4.630799e+002
1.053744e+003, 4.629693e+002
1.054226e+003, 4.629676e+002
1.054708e+003, 4.631360e+002
1.055191e+003, 4.631949e+002
1.055673e+003, 4.628290e+002
1.056155e+003, 4.626508e+002
1.056637e+003, 4.631552e+002
1.057119e+003, 4.637088e+002
1.057601e+003, 4.637644e+002
1.058083e+003, 4.634647e+002
1.058565e+003, 4.631512e+002
1.059047e+003, 4.628832e+002
1.059530e+003, 4.626940e+002
1.060012e+003, 4.626908e+002
1.060494e+003, 4.626460e+002
1.060976e+003, 4.623311e+002
1.061458e+003, 4.620589e+002
1.061940e+003, 4.618637e+002
1.062422e+003, 4.619888e+002
1.062904e+003, 4.629735e+002
1.063387e+003, 4.649088e+002
1.063869e+003, 4.667604e+002
1.064351e+003, 4.690929e+002
1.064833e+003, 4.700263e+002
1.065315e+003, 4.674773e+002
1.065797e+003, 4.643450e+002
1.066279e+003, 4.628116e+002
1.066761e+003, 4.625831e+002
1.067244e+003, 4.631001e+002
1.067726e+003, 4.641581e+002
1.068208e+003, 4.647357e+002
1.068690e+003, 4.638668e+002
1.069172e+003, 4.631736e+002
1.069654e+003, 4.639102e+002
1.070136e+003, 4.646179e+002
1.070618e+003, 4.637700e+002
1.071100e+003, 4.622256e+002
1.071583e+003, 4.615314e+002
1.072065e+003, 4.618646e+002
1.072547e+003, 4.622186e+002
1.073029e+003, 4.621130e+002
1.073511e+003, 4.620899e+002
1.073993e+003, 4.626494e+002
1.074475e+003, 4.631431e+002
1.074957e+003, 4.629578e+002
1.075439e+003, 4.624387e+002
1.075922e+003, 4.619186e+002
1.076404e+003, 4.615778e+002
1.076886e+003, 4.619870e+002
1.077368e+003, 4.639211e+002
1.077850e+003, 4.653464e+002
1.078332e+003, 4.646262e+002
1.078814e+003, 4.637874e+002
1.079297e+003, 4.646322e+002
1.079779e+003, 4.660521e+002
1.080261e+003, 4.664327e+002
1.080743e+003, 4.658116e+002
1.081225e+003, 4.653226e+002
1.081707e+003, 4.654036e+002
1.082189e+003, 4.654477e+002
1.082671e+003, 4.652215e+002
1.083153e+003, 4.648214e+002
1.083635e+003, 4.640900e+002
1.084118e+003, 4.633786e+002
1.084600e+003, 4.630011e+002
1.085082e+003, 4.630152e+002
1.085564e+003, 4.635847e+002
1.086046e+003, 4.649569e+002
1.086528e+003, 4.657622e+002
1.087010e+003, 4.650601e+002
1.087492e+003, 4.640714e+002
1.087975e+003, 4.631948e+002
1.088457e+003, 4.625957e+002
1.088939e+003, 4.626360e+002
1.089421e+003, 4.630138e+002
1.089903e+003, 4.629477e+002
1.090385e+003, 4.622190e+002
1.090867e+003, 4.616072e+002
1.091349e+003, 4.619395e+002
1.091832e+003, 4.617728e+002
1.092314e+003, 4.596815e+002
1.092796e+003, 4.575099e+002
1.093278e+003, 4.569300e+002
1.093760e+003, 4.574277e+002
1.094242e+003, 4.579301e+002
1.094724e+003, 4.582409e+002
1.095206e+003, 4.583360e+002
1.095688e+003, 4.579417e+002
1.096171e+003, 4.576945e+002
1.096653e+003, 4.578905e+002
1.097135e+003, 4.582294e+002
1.097617e+003, 4.587436e+002
1.098099e+003, 4.591340e+002
1.098581e+003, 4.588417e+002
1.099063e+003, 4.579047e+002
1.099545e+003, 4.573006e+002
1.100027e+003, 4.576993e+002
1.100510e+003, 4.577081e+002
1.100992e+003, 4.565347e+002
1.101474e+003, 4.553824e+002
1.101956e+003, 4.547047e+002
1.102438e+003, 4.545404e+002
1.102920e+003, 4.552566e+002
1.103402e+003, 4.565627e+002
1.103884e+003, 4.570204e+002
1.104367e+003, 4.557203e+002
1.104849e+003, 4.552809e+002
1.105331e+003, 4.572632e+002
1.105813e+003, 4.587794e+002
1.106295e+003, 4.584008e+002
1.106777e+003, 4.573526e+002
1.107259e+003, 4.565848e+002
1.107741e+003, 4.560915e+002
1.108224e+003, 4.557481e+002
1.108706e+003, 4.556598e+002
1.109188e+003, 4.552623e+002
1.109670e+003, 4.541413e+002
1.110152e+003, 4.532173e+002
1.110634e+003, 4.528594e+002
1.111116e+003, 4.526025e+002
1.111598e+003, 4.519951e+002
1.112080e+003, 4.513265e+002
1.112563e+003, 4.513114e+002
1.113045e+003, 4.521085e+002
1.113527e+003, 4.521390e+002
1.114009e+003, 4.504576e+002
1.114491e+003, 4.495662e+002
1.114973e+003, 4.503841e+002
1.115455e+003, 4.511255e+002
1.115937e+003, 4.508602e+002
1.116419e+003, 4.501424e+002
1.116902e+003, 4.495534e+002
1.117384e+003, 4.491255e+002
1.117866e+003, 4.492649e+002
1.118348e+003, 4.504802e+002
1.118830e+003, 4.510507e+002
1.119312e+003, 4.506001e+002
1.119794e+003, 4.501317e+002
1.120276e+003, 4.499550e+002
1.120759e+003, 4.499583e+002
1.121241e+003, 4.500553e+002
1.121723e+003, 4.502378e+002
1.122205e+003, 4.505450e+002
1.122687e+003, 4.511516e+002
1.123169e+003, 4.509396e+002
1.123651e+003, 4.494919e+002
1.124133e+003, 4.485961e+002
1.124615e+003, 4.487155e+002
1.125098e+003, 4.494735e+002
1.125580e+003, 4.508408e+002
1.126062e+003, 4.522210e+002
1.126544e+003, 4.523559e+002
1.127026e+003, 4.512787e+002
1.127508e+003, 4.505764e+002
1.127990e+003, 4.503038e+002
1.128472e+003, 4.498796e+002
1.128954e+003, 4.491479e+002
1.129437e+003, 4.488600e+002
1.129919e+003, 4.494765e+002
1.130401e+003, 4.501690e+002
1.130883e+003, 4.498157e+002
1.131365e+003, 4.487972e+002
1.131847e+003, 4.488200e+002
1.132329e+003, 4.498002e+002
1.132811e+003, 4.499955e+002
1.133294e+003, 4.493012e+002
1.133776e+003, 4.488764e+002
1.134258e+003, 4.491070e+002
1.134740e+003, 4.496182e+002
1.135222e+003, 4.501426e+002
1.135704e+003, 4.505565e+002
1.136186e+003, 4.505087e+002
1.136668e+003, 4.501484e+002
1.137151e+003, 4.500886e+002
1.137633e+003, 4.502876e+002
1.138115e+003, 4.504667e+002
1.138597e+003, 4.505644e+002
1.139079e+003, 4.506422e+002
1.139561e+003, 4.507381e+002
1.140043e+003, 4.507043e+002
1.140525e+003, 4.501645e+002
1.141007e+003, 4.495137e+002
1.141490e+003, 4.495856e+002
1.141972e+003, 4.501103e+002
1.142454e+003, 4.505421e+002
1.142936e+003, 4.508199e+002
1.143418e+003, 4.510587e+002
1.143900e+003, 4.512841e+002
1.144382e+003, 4.513414e+002
1.144864e+003, 4.510318e+002
1.145346e+003, 4.506600e+002
1.145829e+003, 4.506338e+002
1.146311e+003, 4.506734e+002
1.146793e+003, 4.502651e+002
1.147275e+003, 4.497057e+002
1.147757e+003, 4.496714e+002
1.148239e+003, 4.501740e+002
1.148721e+003, 4.506482e+002
1.149203e+003, 4.508468e+002
1.149686e+003, 4.509758e+002
1.150168e+003, 4.512992e+002
1.150650e+003, 4.514608e+002
1.151132e+003, 4.509421e+002
1.151614e+003, 4.503194e+002
1.152096e+003, 4.502625e+002
1.152578e+003, 4.506649e+002
1.153060e+003, 4.512390e+002
1.153542e+003, 4.519382e+002
1.154025e+003, 4.520668e+002
1.154507e+003, 4.505361e+002
1.154989e+003, 4.495747e+002
1.155471e+003, 4.507310e+002
1.155953e+003, 4.518703e+002
1.156435e+003, 4.511454e+002
1.156917e+003, 4.498190e+002
1.157399e+003, 4.499016e+002
1.157881e+003, 4.513051e+002
1.158364e+003, 4.520249e+002
1.158846e+003, 4.512867e+002
1.159328e+003, 4.509655e+002
1.159810e+003, 4.517353e+002
1.160292e+003, 4.521739e+002
1.160774e+003, 4.514834e+002
1.161256e+003, 4.507620e+002
1.161738e+003, 4.510089e+002
1.162221e+003, 4.517867e+002
1.162703e+003, 4.519998e+002
1.163185e+003, 4.515445e+002
1.163667e+003, 4.514232e+002
1.164149e+003, 4.518047e+002
1.164631e+003, 4.520426e+002
1.165113e+003, 4.520542e+002
1.165595e+003, 4.518474e+002
1.166078e+003, 4.513218e+002
1.166560e+003, 4.508673e+002
1.167042e+003, 4.510680e+002
1.167524e+003, 4.516675e+002
1.168006e+003, 4.512848e+002
1.168488e+003, 4.498552e+002
1.168970e+003, 4.492882e+002
1.169452e+003, 4.497013e+002
1.169934e+003, 4.502394e+002
1.170417e+003, 4.506588e+002
1.170899e+003, 4.510754e+002
1.171381e+003, 4.515782e+002
1.171863e+003, 4.520921e+002
1.172345e+003, 4.523827e+002
1.172827e+003, 4.526017e+002
1.173309e+003, 4.535543e+002
1.173791e+003, 4.549160e+002
1.174273e+003, 4.553258e+002
1.174756e+003, 4.547587e+002
1.175238e+003, 4.541200e+002
1.175720e+003, 4.537766e+002
1.176202e+003, 4.535576e+002
1.176684e+003, 4.532557e+002
1.177166e+003, 4.531199e+002
1.177648e+003, 4.538297e+002
1.178130e+003, 4.546402e+002
1.178613e+003, 4.541604e+002
1.179095e+003, 4.530267e+002
1.179577e+003, 4.527810e+002
1.180059e+003, 4.534457e+002
1.180541e+003, 4.537052e+002
1.181023e+003, 4.529001e+002
1.181505e+003, 4.522374e+002
1.181987e+003, 4.527237e+002
1.182469e+003, 4.532720e+002
1.182952e+003, 4.528925e+002
1.183434e+003, 4.524572e+002
1.183916e+003, 4.531836e+002
1.184398e+003, 4.543951e+002
1.184880e+003, 4.545060e+002
1.185362e+003, 4.533308e+002
1.185844e+003, 4.525264e+002
1.186326e+003, 4.526304e+002
1.186808e+003, 4.528917e+002
1.187291e+003, 4.532272e+002
1.187773e+003, 4.536404e+002
1.188255e+003, 4.541315e+002
1.188737e+003, 4.547076e+002
1.189219e+003, 4.556372e+002
1.189701e+003, 4.566056e+002
1.190183e+003, 4.565562e+002
1.190665e+003, 4.551871e+002
1.191148e+003, 4.543870e+002
1.191630e+003, 4.543292e+002
1.192112e+003, 4.543898e+002
1.192594e+003, 4.545741e+002
1.193076e+003, 4.544857e+002
1.193558e+003, 4.537772e+002
1.194040e+003, 4.531225e+002
1.194522e+003, 4.534351e+002
1.195005e+003, 4.544715e+002
1.195487e+003, 4.552948e+002
1.195969e+003, 4.558979e+002
1.196451e+003, 4.560507e+002
1.196933e+003, 4.557737e+002
1.197415e+003, 4.558209e+002
1.197897e+003, 4.563703e+002
1.198379e+003, 4.569366e+002
1.198861e+003, 4.572221e+002
1.199344e+003, 4.572663e+002
1.199826e+003, 4.567998e+002
1.200308e+003, 4.563496e+002
1.200790e+003, 4.574087e+002
1.201272e+003, 4.591689e+002
1.201754e+003, 4.596899e+002
1.202236e+003, 4.592118e+002
1.202718e+003, 4.592317e+002
1.203200e+003, 4.600776e+002
1.203683e+003, 4.606136e+002
1.204165e+003, 4.600019e+002
1.204647e+003, 4.593347e+002
1.205129e+003, 4.595261e+002
1.205611e+003, 4.599133e+002
1.206093e+003, 4.599589e+002
1.206575e+003, 4.598490e+002
1.207057e+003, 4.597899e+002
1.207540e+003, 4.598185e+002
1.208022e+003, 4.599547e+002
1.208504e+003, 4.602095e+002
1.208986e+003, 4.604651e+002
1.209468e+003, 4.607368e+002
1.209950e+003, 4.609401e+002
1.210432e+003, 4.609809e+002
1.210914e+003, 4.610362e+002
1.211396e+003, 4.612179e+002
1.211879e+003, 4.614394e+002
1.212361e+003, 4.616199e+002
1.212843e+003, 4.617652e+002
1.213325e+003, 4.619208e+002
1.213807e+003, 4.621592e+002
1.214289e+003, 4.619475e+002
1.214771e+003, 4.609834e+002
1.215253e+003, 4.608866e+002
1.215735e+003, 4.621408e+002
1.216218e+003, 4.635089e+002
1.216700e+003, 4.643519e+002
1.217182e+003, 4.648659e+002
1.217664e+003, 4.652970e+002
1.218146e+003, 4.656087e+002
1.218628e+003, 4.656166e+002
1.219110e+003, 4.654005e+002
1.219592e+003, 4.652937e+002
1.220075e+003, 4.653585e+002
1.220557e+003, 4.659152e+002
1.221039e+003, 4.669265e+002
1.221521e+003, 4.676884e+002
1.222003e+003, 4.678036e+002
1.222485e+003, 4.676875e+002
1.222967e+003, 4.676521e+002
1.223449e+003, 4.677165e+002
1.223932e+003, 4.681126e+002
1.224414e+003, 4.684615e+002
1.224896e+003, 4.681938e+002
1.225378e+003, 4.675103e+002
1.225860e+003, 4.667303e+002
1.226342e+003, 4.660135e+002
1.226824e+003, 4.658237e+002
1.227306e+003, 4.665248e+002
1.227788e+003, 4.671680e+002
1.228271e+003, 4.673491e+002
1.228753e+003, 4.675169e+002
1.229235e+003, 4.680589e+002
1.229717e+003, 4.684663e+002
1.230199e+003, 4.682019e+002
1.230681e+003, 4.675755e+002
1.231163e+003, 4.669697e+002
1.231645e+003, 4.664075e+002
1.232127e+003, 4.670811e+002
1.232610e+003, 4.698021e+002
1.233092e+003, 4.712336e+002
1.233574e+003, 4.710110e+002
1.234056e+003, 4.700875e+002
1.234538e+003, 4.684871e+002
1.235020e+003, 4.675669e+002
1.235502e+003, 4.684854e+002
1.235984e+003, 4.700128e+002
1.236467e+003, 4.699212e+002
1.236949e+003, 4.686498e+002
1.237431e+003, 4.679453e+002
1.237913e+003, 4.677573e+002
1.238395e+003, 4.680282e+002
1.238877e+003, 4.686141e+002
1.239359e+003, 4.688641e+002
1.239841e+003, 4.686592e+002
1.240323e+003, 4.687208e+002
1.240806e+003, 4.695751e+002
1.241288e+003, 4.705017e+002
1.241770e+003, 4.708354e+002
1.242252e+003, 4.708800e+002
1.242734e+003, 4.708363e+002
1.243216e+003, 4.707572e+002
1.243698e+003, 4.705542e+002
1.244180e+003, 4.704102e+002
1.244662e+003, 4.709217e+002
1.245145e+003, 4.720774e+002
1.245627e+003, 4.724136e+002
1.246109e+003, 4.710567e+002
1.246591e+003, 4.697778e+002
1.247073e+003, 4.683950e+002
1.247555e+003, 4.678186e+002
1.248037e+003, 4.690648e+002
1.248519e+003, 4.703457e+002
1.249002e+003, 4.702877e+002
1.249484e+003, 4.695698e+002
1.249966e+003, 4.694184e+002
1.250448e+003, 4.698031e+002
1.250930e+003, 4.702751e+002
1.251412e+003, 4.708956e+002
1.251894e+003, 4.707688e+002
1.252376e+003, 4.697863e+002
1.252859e+003, 4.692862e+002
1.253341e+003, 4.696673e+002
1.253823e+003, 4.698759e+002
1.254305e+003, 4.691419e+002
1.254787e+003, 4.683767e+002
1.255269e+003, 4.690755e+002
1.255751e+003, 4.704232e+002
1.256233e+003, 4.710308e+002
1.256715e+003, 4.710937e+002
1.257198e+003, 4.708321e+002
1.257680e+003, 4.704057e+002
1.258162e+003, 4.698754e+002
1.258644e+003, 4.694128e+002
1.259126e+003, 4.698531e+002
1.259608e+003, 4.719400e+002
1.260090e+003, 4.734279e+002
1.260572e+003, 4.727294e+002
1.261054e+003, 4.719090e+002
1.261537e+003, 4.719593e+002
1.262019e+003, 4.722572e+002
1.262501e+003, 4.722663e+002
1.262983e+003, 4.722272e+002
1.263465e+003, 4.726673e+002
1.263947e+003, 4.734793e+002
1.264429e+003, 4.737955e+002
1.264911e+003, 4.734663e+002
1.265394e+003, 4.731063e+002
1.265876e+003, 4.726508e+002
1.266358e+003, 4.725574e+002
1.266840e+003, 4.730286e+002
1.267322e+003, 4.730162e+002
1.267804e+003, 4.718682e+002
1.268286e+003, 4.706374e+002
1.268768e+003, 4.706441e+002
1.269250e+003, 4.713878e+002
1.269733e+003, 4.717090e+002
1.270215e+003, 4.718759e+002
1.270697e+003, 4.728144e+002
1.271179e+003, 4.741229e+002
1.271661e+003, 4.746526e+002
1.272143e+003, 4.743303e+002
1.272625e+003, 4.737323e+002
1.273107e+003, 4.730771e+002
1.273589e+003, 4.724273e+002
1.274072e+003, 4.716089e+002
1.274554e+003, 4.711066e+002
1.275036e+003, 4.713294e+002
1.275518e+003, 4.717569e+002
1.276000e+003, 4.722180e+002
1.276482e+003, 4.725490e+002
1.276964e+003, 4.723963e+002
1.277446e+003, 4.720785e+002
1.277929e+003, 4.726135e+002
1.278411e+003, 4.742452e+002
1.278893e+003, 4.740279e+002
1.279375e+003, 4.710515e+002
1.279857e+003, 4.697601e+002
1.280339e+003, 4.708676e+002
1.280821e+003, 4.723590e+002
1.281303e+003, 4.736235e+002
1.281786e+003, 4.745738e+002
1.282268e+003, 4.750927e+002
##END=



