##NAMES=Meta-autunite
##RRUFFID=R060434
##IDEAL CHEMISTRY=Ca(U^6+^O_2_)_2_(PO_4_)_2_&#183;6H_2_O
##LOCALITY=Hyverneresse, Creuse, France
##OWNER=RRUFF
##SOURCE=Michael Scott
##DESCRIPTION=Yellow thin tabular crystal
##STATUS=The identification of this mineral has been confirmed by X-ray diffraction and chemical analysis
##URL=rruff.info/R060434
##MEASURED CHEMISTRY=(Ca_0.88_Sr_0.10_)_∑=0.98_(UO_2_)_1.96_(PO_4_)_2.05_·3.60H_2_O
195.7068, 149.8181
196.1889, 149.0315
196.6711, 148.0304
197.1532, 146.7566
197.6353, 145.0789
198.1174, 142.8765
198.5995, 140.4252
199.0816, 137.8068
199.5638, 135.0288
200.0459, 132.1718
200.5280, 129.2222
201.0101, 126.2230
201.4922, 123.3388
201.9743, 120.4094
202.4565, 117.7465
202.9386, 115.7754
203.4207, 114.5137
203.9028, 113.1738
204.3849, 111.1502
204.8670, 108.8546
205.3492, 106.9096
205.8313, 105.5456
206.3134, 104.4168
206.7955, 103.0485
207.2776, 101.3416
207.7597, 99.86015
208.2419, 99.19296
208.7240, 98.75864
209.2061, 97.94063
209.6882, 96.42329
210.1703, 94.68200
210.6524, 93.60043
211.1346, 93.46977
211.6167, 93.27126
212.0988, 92.58824
212.5809, 91.73093
213.0630, 90.96309
213.5451, 90.38513
214.0273, 89.98318
214.5094, 89.75967
214.9915, 89.86128
215.4736, 89.87759
215.9557, 89.79831
216.4378, 89.58347
216.9200, 89.13005
217.4021, 88.38432
217.8842, 87.50403
218.3663, 86.95100
218.8484, 87.00593
219.3305, 87.00811
219.8127, 87.05281
220.2948, 86.94441
220.7769, 86.40079
221.2590, 85.29288
221.7411, 83.85164
222.2232, 82.75915
222.7054, 82.28275
223.1875, 81.87991
223.6696, 81.58965
224.1517, 81.33012
224.6338, 80.98698
225.1159, 80.50667
225.5980, 79.97009
226.0802, 79.61468
226.5623, 79.70273
227.0444, 79.66418
227.5265, 79.40233
228.0086, 79.00692
228.4907, 78.60612
228.9729, 78.25747
229.4550, 77.90269
229.9371, 77.37867
230.4192, 76.48290
230.9013, 75.74160
231.3834, 75.25809
231.8656, 74.97456
232.3477, 74.82372
232.8298, 74.78875
233.3119, 74.84029
233.7940, 74.93767
234.2761, 75.12515
234.7583, 75.24425
235.2404, 75.29998
235.7225, 75.25462
236.2046, 74.97733
236.6867, 74.35235
237.1688, 73.66007
237.6510, 73.46066
238.1331, 73.82185
238.6152, 74.10084
239.0973, 74.07419
239.5794, 73.81438
240.0615, 73.45433
240.5437, 72.99521
241.0258, 72.51102
241.5079, 72.03740
241.9900, 71.55533
242.4721, 71.29063
242.9542, 71.55537
243.4364, 72.11512
243.9185, 72.31832
244.4006, 71.90151
244.8827, 71.35620
245.3648, 71.17587
245.8469, 71.31804
246.3290, 71.54087
246.8112, 71.85131
247.2933, 72.16355
247.7754, 72.19602
248.2575, 71.82549
248.7396, 71.30265
249.2217, 70.70242
249.7039, 70.08803
250.1860, 69.70732
250.6681, 69.83405
251.1502, 70.32556
251.6323, 70.67952
252.1144, 70.92968
252.5966, 70.92209
253.0787, 70.41887
253.5608, 69.62113
254.0429, 68.97483
254.5250, 68.74107
255.0071, 68.85741
255.4893, 69.13643
255.9714, 69.80694
256.4535, 70.25169
256.9356, 70.12484
257.4177, 69.64150
257.8998, 69.14177
258.3820, 68.79965
258.8641, 68.58131
259.3462, 68.34579
259.8283, 67.95991
260.3104, 67.79929
260.7925, 68.24874
261.2747, 68.88428
261.7568, 69.08165
262.2389, 68.44191
262.7210, 67.33994
263.2031, 66.89785
263.6852, 67.52276
264.1674, 68.14912
264.6495, 68.64835
265.1316, 68.96954
265.6137, 68.97319
266.0958, 68.57780
266.5779, 68.03391
267.0601, 67.99717
267.5422, 68.94955
268.0243, 69.53658
268.5064, 69.47962
268.9885, 69.08215
269.4706, 68.49725
269.9528, 67.79649
270.4349, 67.17199
270.9170, 67.03314
271.3991, 67.70436
271.8812, 68.23973
272.3633, 68.66457
272.8455, 68.89831
273.3276, 68.74118
273.8097, 68.20154
274.2918, 67.62778
274.7739, 67.60114
275.2560, 68.54050
275.7382, 69.13815
276.2202, 69.29054
276.7024, 69.25825
277.1845, 69.15901
277.6666, 69.03358
278.1487, 68.90276
278.6308, 68.78579
279.1129, 68.66846
279.5951, 68.62005
280.0772, 68.66540
280.5593, 68.74345
281.0414, 68.77775
281.5235, 68.79765
282.0056, 68.95332
282.4878, 69.45914
282.9699, 70.46095
283.4520, 70.72462
283.9341, 69.66203
284.4162, 68.55012
284.8983, 67.73406
285.3805, 67.28983
285.8626, 67.31985
286.3447, 68.00207
286.8268, 69.31054
287.3089, 69.71646
287.7910, 68.26595
288.2732, 67.01460
288.7553, 66.72813
289.2374, 67.06115
289.7195, 67.26196
290.2016, 66.84972
290.6837, 65.99560
291.1659, 65.66227
291.6480, 66.69527
292.1301, 67.25913
292.6122, 66.65543
293.0943, 65.50204
293.5764, 64.69032
294.0586, 64.63195
294.5407, 65.06268
295.0228, 65.26746
295.5049, 65.29896
295.9870, 65.00932
296.4691, 64.08676
296.9513, 62.97186
297.4334, 62.13873
297.9155, 61.74222
298.3976, 61.59774
298.8797, 61.40594
299.3618, 61.14640
299.8440, 60.86895
300.3261, 60.47126
300.8082, 60.12098
301.2903, 59.95268
301.7724, 59.99161
302.2545, 60.17281
302.7367, 60.42839
303.2188, 60.77134
303.7009, 61.15469
304.1830, 61.91159
304.6651, 62.44310
305.1472, 62.25447
305.6294, 61.41418
306.1115, 60.39119
306.5936, 59.53352
307.0757, 58.83393
307.5578, 58.60316
308.0399, 59.11988
308.5221, 59.73543
309.0042, 60.34324
309.4863, 60.83693
309.9684, 60.95824
310.4505, 60.49172
310.9326, 59.55131
311.4148, 58.95237
311.8969, 58.86341
312.3790, 58.85810
312.8611, 58.83912
313.3432, 58.83839
313.8253, 58.94637
314.3075, 59.21489
314.7896, 59.54298
315.2717, 59.66610
315.7538, 59.40158
316.2359, 59.19527
316.7180, 59.22564
317.2001, 59.26809
317.6823, 59.05301
318.1644, 58.50518
318.6465, 57.77283
319.1286, 57.02726
319.6107, 56.04733
320.0928, 55.70439
320.5750, 56.56814
321.0571, 57.65435
321.5392, 58.24111
322.0213, 58.23875
322.5034, 57.95827
322.9855, 57.70146
323.4677, 57.48359
323.9498, 57.12526
324.4319, 56.21677
324.9140, 55.56189
325.3961, 55.77543
325.8782, 56.63242
326.3604, 57.38865
326.8425, 57.49801
327.3246, 57.03598
327.8067, 56.86382
328.2888, 57.34531
328.7709, 57.66325
329.2531, 57.51763
329.7352, 57.08768
330.2173, 56.66697
330.6994, 56.39420
331.1815, 56.21688
331.6636, 55.99077
332.1458, 55.50437
332.6279, 55.24057
333.1100, 55.29432
333.5921, 55.53794
334.0742, 55.95873
334.5563, 56.51828
335.0385, 56.97089
335.5206, 56.92200
336.0027, 56.05364
336.4848, 55.49018
336.9669, 55.40237
337.4490, 55.44360
337.9312, 55.37750
338.4133, 55.20250
338.8954, 55.07491
339.3775, 55.14917
339.8596, 55.44566
340.3417, 55.69083
340.8239, 55.96332
341.3060, 56.11329
341.7881, 56.06242
342.2702, 55.84832
342.7523, 55.49612
343.2344, 54.99445
343.7166, 54.44068
344.1987, 54.31791
344.6808, 55.39741
345.1629, 56.03407
345.6450, 55.74830
346.1271, 55.07731
346.6093, 54.63677
347.0914, 54.65117
347.5735, 54.87612
348.0556, 54.81936
348.5377, 54.08255
349.0198, 53.80605
349.5020, 54.20631
349.9841, 54.83501
350.4662, 55.56426
350.9483, 56.27428
351.4304, 56.68592
351.9125, 56.37513
352.3947, 55.12473
352.8768, 54.61636
353.3589, 55.72907
353.8410, 56.70395
354.3231, 56.80267
354.8052, 56.28054
355.2874, 55.78101
355.7695, 55.75576
356.2516, 56.09456
356.7337, 56.14120
357.2158, 55.41912
357.6979, 55.06623
358.1800, 55.57506
358.6621, 56.40925
359.1443, 56.97326
359.6264, 57.04159
360.1085, 56.83654
360.5906, 56.72638
361.0727, 56.67865
361.5548, 56.82375
362.0370, 57.41421
362.5191, 58.00692
363.0012, 58.35146
363.4833, 58.41747
363.9654, 58.29155
364.4475, 57.92777
364.9297, 57.28436
365.4118, 57.12884
365.8939, 57.99147
366.3760, 58.77837
366.8581, 58.87654
367.3402, 58.57949
367.8224, 58.55352
368.3045, 59.32353
368.7866, 60.51898
369.2687, 60.92359
369.7508, 60.02365
370.2329, 59.47557
370.7151, 60.24784
371.1972, 61.42284
371.6793, 62.04633
372.1614, 61.79176
372.6435, 61.32695
373.1256, 61.64012
373.6078, 62.82454
374.0899, 63.40236
374.5720, 62.41483
375.0541, 61.29659
375.5362, 61.11017
376.0183, 61.83016
376.5005, 62.81763
376.9826, 63.80668
377.4647, 64.74973
377.9468, 65.46895
378.4289, 65.91794
378.9110, 66.21514
379.3932, 66.46426
379.8753, 66.62532
380.3574, 66.57644
380.8395, 66.09307
381.3216, 65.55478
381.8037, 65.52087
382.2859, 66.00391
382.7680, 66.36502
383.2501, 66.28197
383.7322, 65.93470
384.2143, 65.63184
384.6964, 65.38876
385.1786, 65.16225
385.6607, 64.93749
386.1428, 64.71349
386.6249, 64.45288
387.1070, 64.10709
387.5891, 63.84139
388.0713, 63.95923
388.5534, 64.41914
389.0355, 64.70154
389.5176, 64.85713
389.9997, 64.69099
390.4818, 63.78322
390.9640, 62.17385
391.4461, 60.70112
391.9282, 59.92775
392.4103, 59.78252
392.8924, 59.72340
393.3745, 59.84365
393.8567, 59.93954
394.3388, 59.95326
394.8209, 59.88354
395.3030, 59.74518
395.7851, 59.54909
396.2672, 59.23877
396.7494, 58.68550
397.2315, 57.73510
397.7136, 56.91030
398.1957, 56.14019
398.6778, 55.55859
399.1599, 55.42644
399.6420, 55.67998
400.1241, 55.84013
400.6063, 55.43869
401.0884, 54.44729
401.5705, 53.82950
402.0526, 53.84375
402.5347, 53.88751
403.0168, 53.75940
403.4990, 53.54328
403.9811, 53.39404
404.4632, 53.38684
404.9453, 53.47654
405.4274, 53.56155
405.9095, 53.69059
406.3917, 53.72497
406.8738, 53.64246
407.3559, 53.48954
407.8380, 53.25653
408.3201, 52.96871
408.8022, 52.71899
409.2844, 52.62954
409.7665, 52.72097
410.2486, 52.63267
410.7307, 52.07765
411.2128, 51.65343
411.6949, 51.60636
412.1771, 51.79052
412.6592, 51.94332
413.1413, 51.91711
413.6234, 51.85191
414.1055, 52.12928
414.5876, 52.96552
415.0698, 53.48433
415.5519, 53.15586
416.0340, 52.65149
416.5161, 52.43306
416.9982, 52.54815
417.4803, 52.71467
417.9625, 52.67054
418.4446, 52.45421
418.9267, 52.34214
419.4088, 52.41127
419.8909, 52.48090
420.3730, 52.39414
420.8552, 52.22572
421.3373, 52.14145
421.8194, 52.30225
422.3015, 52.46199
422.7836, 52.21706
423.2657, 51.57555
423.7479, 51.14621
424.2300, 51.23995
424.7121, 51.62331
425.1942, 51.93461
425.6763, 52.18036
426.1584, 52.32869
426.6406, 52.27468
427.1227, 52.14042
427.6048, 52.14965
428.0869, 52.34694
428.5690, 52.59633
429.0511, 52.81879
429.5333, 52.99768
430.0154, 52.97168
430.4975, 52.52303
430.9796, 52.07348
431.4617, 51.85312
431.9438, 51.82193
432.4260, 51.85849
432.9081, 51.90702
433.3902, 51.98603
433.8723, 52.14637
434.3544, 52.50661
434.8365, 52.74730
435.3187, 52.84497
435.8008, 52.82777
436.2829, 52.65004
436.7650, 52.34855
437.2471, 52.08929
437.7292, 52.03655
438.2114, 52.19633
438.6935, 52.31727
439.1756, 52.38151
439.6577, 52.42645
440.1398, 52.42355
440.6219, 52.41825
441.1040, 52.48403
441.5862, 52.65118
442.0683, 52.85411
442.5504, 53.01214
443.0325, 53.21019
443.5146, 53.09988
443.9967, 52.01420
444.4789, 51.14916
444.9610, 51.40427
445.4431, 52.53476
445.9252, 53.49750
446.4073, 53.43752
446.8894, 52.62952
447.3716, 52.13225
447.8537, 52.03271
448.3358, 52.02900
448.8179, 52.01531
449.3000, 52.01468
449.7821, 52.11451
450.2643, 52.38982
450.7464, 52.49099
451.2285, 51.81697
451.7106, 50.60356
452.1927, 50.18857
452.6748, 51.14874
453.1570, 52.31818
453.6391, 52.39259
454.1212, 51.60523
454.6033, 50.93261
455.0854, 50.61819
455.5675, 50.50019
456.0497, 50.47095
456.5318, 50.51826
457.0139, 50.60492
457.4960, 50.71936
457.9781, 50.85320
458.4602, 51.00294
458.9424, 51.28478
459.4245, 51.35018
459.9066, 50.96122
460.3887, 50.42516
460.8708, 50.09144
461.3529, 49.99156
461.8351, 49.85617
462.3172, 49.37630
462.7993, 48.52782
463.2814, 48.19997
463.7635, 48.85006
464.2456, 49.45655
464.7278, 49.91434
465.2099, 50.12765
465.6920, 49.86779
466.1741, 49.06563
466.6562, 48.14230
467.1383, 47.89049
467.6205, 48.65351
468.1026, 49.01027
468.5847, 48.42202
469.0668, 47.86039
469.5489, 47.83361
470.0310, 48.21043
470.5132, 48.54729
470.9953, 48.53690
471.4774, 48.33925
471.9595, 48.42785
472.4416, 48.93505
472.9237, 49.23251
473.4059, 48.83422
473.8880, 48.28152
474.3701, 48.10855
474.8522, 48.38692
475.3343, 48.65923
475.8164, 48.56441
476.2986, 48.25043
476.7807, 48.06894
477.2628, 48.05903
477.7449, 48.19384
478.2270, 48.59257
478.7091, 49.12969
479.1913, 49.29839
479.6734, 48.71620
480.1555, 48.15782
480.6376, 48.18513
481.1197, 48.50785
481.6018, 48.42841
482.0839, 47.69469
482.5660, 46.81580
483.0482, 46.50604
483.5303, 46.94287
484.0124, 47.37666
484.4945, 47.85510
484.9766, 48.28526
485.4587, 48.61713
485.9409, 48.86119
486.4230, 49.05971
486.9051, 49.24055
487.3872, 49.37403
487.8693, 49.37003
488.3514, 49.17982
488.8336, 48.93452
489.3157, 48.40837
489.7978, 48.02241
490.2799, 48.26115
490.7620, 48.99097
491.2441, 49.51101
491.7263, 49.08825
492.2084, 47.99971
492.6905, 47.63970
493.1726, 48.26450
493.6547, 49.00390
494.1368, 49.66500
494.6190, 50.17798
495.1011, 50.42060
495.5832, 50.34906
496.0653, 50.18798
496.5474, 50.13750
497.0295, 50.13292
497.5117, 49.90982
497.9938, 49.35449
498.4759, 48.89971
498.9580, 48.99017
499.4401, 49.51620
499.9222, 49.85054
500.4044, 49.89959
500.8865, 49.80840
501.3686, 49.50531
501.8507, 49.13469
502.3328, 49.06829
502.8149, 49.44651
503.2971, 49.88117
503.7792, 49.78307
504.2613, 48.89720
504.7434, 48.39890
505.2255, 48.48111
505.7076, 48.71473
506.1898, 49.07229
506.6719, 49.40465
507.1540, 49.40165
507.6361, 48.88245
508.1182, 48.13707
508.6003, 47.84711
509.0825, 48.14088
509.5646, 48.54785
510.0467, 49.27145
510.5288, 49.88360
511.0109, 50.07988
511.4930, 49.93572
511.9752, 49.78051
512.4573, 49.86251
512.9394, 50.04275
513.4215, 49.99763
513.9036, 49.70663
514.3857, 49.30384
514.8679, 48.69912
515.3500, 48.11235
515.8321, 47.81149
516.3142, 47.81639
516.7963, 47.97282
517.2784, 48.53146
517.7606, 49.05621
518.2427, 48.68015
518.7248, 47.39672
519.2069, 46.43476
519.6890, 46.71122
520.1711, 47.93562
520.6533, 48.64851
521.1354, 48.57315
521.6175, 48.45050
522.0996, 48.41520
522.5817, 48.38025
523.0638, 48.14730
523.5460, 47.75212
524.0281, 47.56345
524.5102, 47.99229
524.9923, 49.01187
525.4744, 49.73710
525.9565, 50.20732
526.4387, 50.28028
526.9208, 49.67419
527.4029, 48.81364
527.8850, 48.06736
528.3671, 47.54431
528.8492, 47.28709
529.3314, 47.39490
529.8135, 47.84002
530.2956, 48.40978
530.7777, 49.23687
531.2598, 49.88447
531.7419, 49.86654
532.2241, 49.53410
532.7062, 49.48743
533.1883, 50.02262
533.6704, 50.47424
534.1525, 50.20748
534.6346, 49.53552
535.1168, 49.21777
535.5989, 49.44009
536.0810, 49.88138
536.5631, 50.27212
537.0452, 50.61143
537.5273, 50.73363
538.0095, 50.47706
538.4916, 50.20514
538.9737, 50.01121
539.4558, 49.89934
539.9379, 49.89192
540.4200, 49.98784
540.9022, 50.10014
541.3843, 50.07008
541.8664, 49.82203
542.3485, 49.86508
542.8306, 50.52521
543.3127, 51.13231
543.7948, 51.41436
544.2769, 51.52657
544.7590, 51.72426
545.2411, 52.11101
545.7233, 52.53563
546.2054, 52.79034
546.6875, 52.88882
547.1696, 53.04444
547.6517, 53.36145
548.1339, 53.60311
548.6160, 53.36341
549.0981, 52.86237
549.5802, 52.76902
550.0623, 53.69178
550.5444, 54.53866
551.0266, 54.50269
551.5087, 53.86988
551.9908, 53.28715
552.4729, 52.94986
552.9550, 52.68147
553.4371, 52.22706
553.9193, 51.49195
554.4014, 51.16761
554.8835, 51.82894
555.3656, 52.20633
555.8477, 51.57294
556.3298, 50.45091
556.8120, 49.63000
557.2941, 49.39470
557.7762, 49.46400
558.2583, 49.47905
558.7404, 49.44348
559.2225, 49.32879
559.7047, 49.17395
560.1868, 48.87637
560.6689, 48.27984
561.1510, 47.55232
561.6331, 46.94402
562.1152, 46.49009
562.5974, 46.29292
563.0795, 46.61585
563.5616, 47.29827
564.0437, 47.75628
564.5258, 47.86641
565.0079, 47.77438
565.4901, 47.53319
565.9722, 47.16568
566.4543, 47.02489
566.9364, 47.40398
567.4185, 47.67390
567.9006, 47.41995
568.3828, 46.97848
568.8649, 46.91980
569.3470, 47.35188
569.8291, 47.78239
570.3112, 47.58101
570.7933, 46.68849
571.2755, 46.22418
571.7576, 46.42402
572.2397, 46.78201
572.7218, 47.40322
573.2039, 48.00021
573.6860, 48.20210
574.1682, 47.92665
574.6503, 47.54509
575.1324, 47.42200
575.6145, 47.49386
576.0966, 47.48804
576.5787, 47.39106
577.0609, 47.20139
577.5430, 46.88599
578.0251, 46.48380
578.5072, 46.06914
578.9893, 45.53613
579.4714, 45.23327
579.9536, 45.41565
580.4357, 45.83746
580.9178, 46.30614
581.3999, 46.74369
581.8820, 46.91797
582.3641, 46.59554
582.8463, 45.90654
583.3284, 45.61293
583.8105, 46.05823
584.2926, 46.41558
584.7747, 46.74210
585.2568, 46.87554
585.7390, 46.46523
586.2211, 45.67238
586.7032, 45.20600
587.1853, 45.70721
587.6674, 46.79756
588.1495, 47.47709
588.6317, 47.72233
589.1138, 47.67297
589.5959, 47.14673
590.0780, 46.55797
590.5601, 46.47371
591.0422, 46.88299
591.5244, 47.11190
592.0065, 46.63798
592.4886, 46.14471
592.9707, 46.33428
593.4528, 47.06164
593.9349, 47.79786
594.4171, 48.32050
594.8992, 48.64963
595.3813, 48.81727
595.8634, 48.80499
596.3455, 48.67291
596.8276, 48.20213
597.3098, 47.85701
597.7919, 47.93359
598.2740, 48.24279
598.7561, 48.46373
599.2382, 48.46606
599.7203, 48.34345
600.2025, 48.16277
600.6846, 47.92928
601.1667, 47.89607
601.6488, 48.20652
602.1309, 48.48019
602.6130, 48.19026
603.0952, 47.71363
603.5773, 47.92716
604.0594, 49.46032
604.5415, 50.71172
605.0236, 50.58669
605.5057, 49.77137
605.9879, 49.26085
606.4700, 49.22933
606.9521, 49.47781
607.4342, 49.90350
607.9163, 50.44304
608.3984, 50.60473
608.8806, 49.81072
609.3627, 49.43725
609.8448, 49.89648
610.3269, 50.58149
610.8090, 51.11931
611.2911, 51.43042
611.7733, 51.49714
612.2554, 51.20083
612.7375, 50.74751
613.2196, 50.70524
613.7017, 51.13441
614.1838, 51.29639
614.6660, 50.78989
615.1481, 50.14428
615.6302, 50.00158
616.1123, 50.32437
616.5944, 50.67184
617.0765, 50.93457
617.5587, 51.21267
618.0408, 51.68024
618.5229, 52.20107
619.0050, 52.45930
619.4871, 52.34737
619.9692, 52.03751
620.4514, 51.70966
620.9335, 51.30630
621.4156, 51.32788
621.8977, 52.53843
622.3798, 53.25975
622.8619, 52.53005
623.3441, 51.35566
623.8262, 50.98641
624.3083, 51.70207
624.7904, 52.57824
625.2725, 52.84420
625.7546, 52.66813
626.2367, 52.47541
626.7188, 52.28139
627.2009, 52.12934
627.6830, 52.03908
628.1652, 52.00636
628.6473, 52.04185
629.1294, 52.18902
629.6115, 52.25542
630.0936, 52.25500
630.5757, 52.12937
631.0579, 51.57289
631.5400, 50.86021
632.0221, 50.78122
632.5042, 51.75879
632.9863, 53.09927
633.4684, 53.40251
633.9506, 52.38947
634.4327, 51.73635
634.9148, 51.77068
635.3969, 51.87329
635.8790, 51.59780
636.3611, 51.21136
636.8433, 51.24113
637.3254, 51.95876
637.8075, 52.65041
638.2896, 52.75085
638.7717, 52.47667
639.2538, 52.18743
639.7360, 51.94186
640.2181, 51.83477
640.7002, 51.98214
641.1823, 52.27822
641.6644, 52.29038
642.1465, 51.76433
642.6287, 51.29219
643.1108, 50.74378
643.5929, 50.36864
644.0750, 50.46825
644.5571, 50.89051
645.0392, 51.18900
645.5214, 51.09155
646.0035, 50.82814
646.4856, 50.79169
646.9677, 50.98136
647.4498, 51.16589
647.9319, 51.29480
648.4141, 51.43579
648.8962, 51.74863
649.3783, 52.13073
649.8604, 52.17057
650.3425, 51.48413
650.8246, 50.92989
651.3068, 50.96530
651.7889, 51.25574
652.2710, 51.40252
652.7531, 51.35284
653.2352, 51.25747
653.7173, 51.22528
654.1995, 51.25603
654.6816, 51.36187
655.1637, 51.59239
655.6458, 51.77838
656.1279, 52.05098
656.6100, 52.13097
657.0922, 51.70585
657.5743, 50.92295
658.0564, 50.29445
658.5385, 50.08369
659.0206, 50.00656
659.5027, 49.73065
659.9849, 49.37170
660.4670, 49.31614
660.9491, 49.66179
661.4312, 50.06062
661.9133, 50.22756
662.3954, 50.16200
662.8776, 49.85769
663.3597, 49.07476
663.8418, 48.36481
664.3239, 47.71687
664.8060, 47.20595
665.2881, 46.97694
665.7703, 46.96004
666.2524, 46.87054
666.7345, 46.47667
667.2166, 45.98419
667.6987, 45.86869
668.1808, 46.11285
668.6630, 46.00726
669.1451, 45.25622
669.6272, 44.42537
670.1093, 44.08374
670.5914, 44.19720
671.0735, 44.23148
671.5557, 44.04634
672.0378, 43.94212
672.5199, 44.15371
673.0020, 44.41468
673.4841, 44.39548
673.9662, 44.08834
674.4484, 43.73680
674.9305, 43.51438
675.4126, 43.40941
675.8947, 43.41747
676.3768, 43.59283
676.8589, 43.62760
677.3411, 43.30413
677.8232, 42.99942
678.3053, 43.11391
678.7874, 43.51276
679.2695, 43.69136
679.7516, 43.31759
680.2338, 42.97184
680.7159, 43.21782
681.1980, 43.62774
681.6801, 43.37614
682.1622, 42.40825
682.6443, 41.51038
683.1265, 41.33917
683.6086, 41.75537
684.0907, 42.10070
684.5728, 42.41741
685.0549, 42.56796
685.5370, 42.46484
686.0192, 42.24724
686.5013, 41.88007
686.9834, 41.45868
687.4655, 41.24103
687.9476, 41.40995
688.4297, 41.65641
688.9119, 41.68354
689.3940, 41.58342
689.8761, 41.60608
690.3582, 41.79053
690.8403, 41.88533
691.3224, 41.64708
691.8046, 41.20096
692.2867, 41.15248
692.7688, 41.91066
693.2509, 42.41295
693.7330, 42.59124
694.2151, 42.54339
694.6973, 42.21284
695.1794, 41.71361
695.6615, 41.27736
696.1436, 40.99678
696.6257, 40.83418
697.1078, 40.74290
697.5900, 40.73389
698.0721, 40.95747
698.5542, 41.46718
699.0363, 41.64663
699.5184, 40.91556
700.0005, 39.65233
700.4827, 39.20725
700.9648, 40.33655
701.4469, 41.06297
701.9290, 41.10429
702.4111, 40.97924
702.8932, 40.90318
703.3754, 40.91848
703.8575, 41.09320
704.3396, 41.47080
704.8217, 41.78937
705.3038, 41.59743
705.7859, 41.04033
706.2681, 40.87559
706.7502, 41.21913
707.2323, 41.56091
707.7144, 41.62444
708.1965, 41.50115
708.6786, 41.38645
709.1607, 41.25871
709.6428, 41.20106
710.1249, 41.15361
710.6071, 41.24270
711.0892, 41.62486
711.5713, 42.16645
712.0534, 42.77016
712.5355, 43.37605
713.0176, 43.60541
713.4998, 42.64884
713.9819, 40.85475
714.4640, 40.28259
714.9461, 41.17150
715.4282, 41.86887
715.9103, 41.51844
716.3925, 40.79721
716.8746, 40.81502
717.3567, 41.66886
717.8388, 42.29716
718.3209, 42.47414
718.8030, 42.55663
719.2852, 42.64846
719.7673, 42.77707
720.2494, 43.06716
720.7315, 43.48778
721.2136, 43.68326
721.6957, 43.21085
722.1779, 42.30821
722.6600, 41.83639
723.1421, 41.82547
723.6242, 41.99444
724.1063, 42.40675
724.5884, 42.74514
725.0706, 42.56087
725.5527, 41.90681
726.0348, 41.52555
726.5169, 41.61551
726.9990, 41.78581
727.4811, 41.90693
727.9633, 42.04189
728.4454, 42.29573
728.9275, 42.64586
729.4096, 42.93782
729.8917, 43.04447
730.3738, 43.08543
730.8560, 43.38453
731.3381, 43.95490
731.8202, 44.26874
732.3023, 44.17285
732.7844, 43.97333
733.2665, 43.85653
733.7487, 43.81867
734.2308, 43.83144
734.7129, 43.90370
735.1950, 44.00851
735.6771, 44.25848
736.1592, 44.44022
736.6414, 44.28997
737.1235, 43.93877
737.6056, 43.71175
738.0877, 43.75383
738.5698, 43.98908
739.0519, 44.43369
739.5341, 45.03260
740.0162, 45.22343
740.4983, 44.88401
740.9804, 44.59459
741.4625, 44.71556
741.9446, 44.98491
742.4268, 44.86229
742.9089, 44.23201
743.3910, 43.84255
743.8731, 43.82458
744.3552, 43.98371
744.8373, 44.30785
745.3195, 44.71443
745.8016, 45.17056
746.2837, 45.63053
746.7658, 45.90514
747.2479, 45.72471
747.7300, 45.28509
748.2122, 45.10726
748.6943, 45.19338
749.1764, 45.45723
749.6585, 45.93310
750.1406, 46.42543
750.6227, 46.73386
751.1049, 46.86128
751.5870, 46.99865
752.0691, 47.34775
752.5512, 47.43562
753.0333, 46.83495
753.5154, 46.20929
753.9976, 46.20131
754.4797, 46.68517
754.9618, 47.09231
755.4439, 47.13693
755.9260, 46.97259
756.4081, 46.68309
756.8903, 46.34294
757.3724, 46.30326
757.8545, 46.61880
758.3366, 47.02057
758.8187, 47.36769
759.3008, 47.65838
759.7830, 47.88927
760.2651, 48.05624
760.7472, 48.17141
761.2293, 48.16491
761.7114, 48.18816
762.1935, 48.33532
762.6757, 48.53396
763.1578, 48.66737
763.6399, 48.71334
764.1220, 48.79771
764.6041, 49.06237
765.0862, 49.39027
765.5684, 49.64106
766.0505, 49.80109
766.5326, 49.73337
767.0147, 49.37408
767.4968, 49.13842
767.9789, 49.52918
768.4611, 50.51469
768.9432, 51.29148
769.4253, 51.96366
769.9074, 52.24103
770.3895, 51.64180
770.8716, 51.03423
771.3538, 50.99626
771.8359, 51.44563
772.3180, 52.04594
772.8001, 52.82354
773.2822, 53.45326
773.7643, 53.55533
774.2465, 53.44848
774.7286, 53.62465
775.2107, 54.08642
775.6928, 54.56113
776.1749, 54.90639
776.6570, 55.11149
777.1392, 55.01553
777.6213, 54.47202
778.1034, 54.78885
778.5855, 56.55944
779.0676, 58.04591
779.5497, 58.02240
780.0319, 57.57750
780.5140, 58.25330
780.9961, 60.18045
781.4782, 61.71650
781.9603, 62.26430
782.4424, 62.52850
782.9246, 62.77678
783.4067, 63.06697
783.8888, 63.36912
784.3709, 63.73338
784.8530, 64.44450
785.3351, 65.84179
785.8173, 67.56293
786.2994, 68.65079
786.7815, 69.10014
787.2636, 69.51273
787.7457, 69.91446
788.2278, 70.55801
788.7100, 71.62577
789.1921, 73.08611
789.6742, 74.82511
790.1563, 77.22091
790.6384, 79.20080
791.1205, 80.29213
791.6026, 81.37401
792.0847, 82.80644
792.5668, 84.62114
793.0490, 86.96936
793.5311, 89.87253
794.0132, 92.62259
794.4953, 94.33863
794.9774, 95.66599
795.4595, 97.84223
795.9417, 100.7513
796.4238, 103.5072
796.9059, 105.8306
797.3880, 107.8512
797.8701, 109.5866
798.3522, 111.1173
798.8344, 113.6311
799.3165, 117.6827
799.7986, 121.6618
800.2807, 125.0259
800.7628, 128.5008
801.2449, 132.7284
801.7271, 137.3822
802.2092, 141.4641
802.6913, 144.4642
803.1734, 147.5548
803.6555, 151.1662
804.1376, 155.2560
804.6198, 160.2143
805.1019, 165.5862
805.5840, 170.1237
806.0661, 173.2726
806.5482, 176.0174
807.0303, 179.7049
807.5125, 184.2185
807.9946, 188.3689
808.4767, 192.1335
808.9588, 195.6876
809.4409, 198.7839
809.9230, 202.1671
810.4052, 206.8433
810.8873, 212.8168
811.3694, 218.3636
811.8515, 222.7440
812.3336, 227.6762
812.8157, 233.5508
813.2979, 240.0390
813.7800, 246.7825
814.2621, 253.8597
814.7442, 261.5044
815.2263, 269.7338
815.7084, 278.8433
816.1906, 289.3828
816.6727, 300.8212
817.1548, 312.1360
817.6369, 323.2605
818.1190, 334.2174
818.6011, 344.9566
819.0833, 356.1353
819.5654, 368.7647
820.0475, 382.9130
820.5296, 397.1398
821.0117, 411.2432
821.4938, 426.0922
821.9760, 442.8796
822.4581, 459.5966
822.9402, 474.5736
823.4223, 487.9768
823.9044, 500.5464
824.3865, 511.9745
824.8687, 523.1740
825.3508, 534.4412
825.8329, 545.7538
826.3150, 556.9493
826.7971, 568.1415
827.2792, 579.4702
827.7614, 591.0397
828.2435, 603.2995
828.7256, 617.3555
829.2077, 632.5893
829.6898, 646.8365
830.1719, 659.9617
830.6541, 671.9569
831.1362, 682.9240
831.6183, 692.2297
832.1004, 699.3341
832.5825, 704.2012
833.0646, 706.1207
833.5468, 705.6728
834.0289, 701.1788
834.5110, 693.1971
834.9931, 680.7739
835.4752, 663.5057
835.9573, 641.2156
836.4395, 613.1022
836.9216, 578.0305
837.4037, 540.3464
837.8858, 501.2391
838.3679, 461.2969
838.8500, 419.9670
839.3322, 378.4022
839.8143, 338.6925
840.2964, 301.7796
840.7785, 268.2761
841.2606, 239.3760
841.7427, 214.6685
842.2249, 192.9312
842.7070, 174.2978
843.1891, 158.0330
843.6712, 144.2431
844.1533, 132.3372
844.6354, 121.9895
845.1176, 113.1429
845.5997, 105.6185
846.0818, 99.95020
846.5639, 94.85759
847.0460, 90.45407
847.5281, 86.46662
848.0103, 82.78974
848.4924, 79.41595
848.9745, 76.36931
849.4566, 73.65444
849.9387, 71.11448
850.4208, 68.48960
850.9030, 66.15221
851.3851, 64.63757
851.8672, 63.58038
852.3493, 62.27188
852.8314, 60.60004
853.3135, 58.83892
853.7957, 57.15685
854.2778, 55.70420
854.7599, 55.01737
855.2420, 55.07156
855.7241, 54.58712
856.2062, 53.29058
856.6884, 52.19770
857.1705, 52.00549
857.6526, 52.15065
858.1347, 51.52906
858.6168, 49.86948
859.0989, 48.67598
859.5811, 48.17082
860.0632, 47.82951
860.5453, 47.62842
861.0274, 47.46745
861.5095, 47.24197
861.9916, 46.97155
862.4738, 46.79677
862.9559, 46.91337
863.4380, 46.84907
863.9201, 46.06556
864.4022, 45.08838
864.8843, 44.49858
865.3665, 44.31831
865.8486, 44.50767
866.3307, 45.03143
866.8128, 45.48447
867.2949, 45.25365
867.7770, 44.52966
868.2592, 44.16706
868.7413, 44.17149
869.2234, 44.24408
869.7055, 44.33186
870.1876, 44.32438
870.6697, 44.06216
871.1519, 43.63150
871.6340, 43.54723
872.1161, 44.17681
872.5981, 44.44563
873.0803, 43.92945
873.5624, 43.45074
874.0445, 43.48081
874.5266, 43.69616
875.0087, 43.56074
875.4908, 42.98201
875.9730, 42.58258
876.4551, 42.80383
876.9372, 43.02007
877.4193, 42.77612
877.9014, 42.33115
878.3835, 41.97067
878.8657, 41.77718
879.3478, 41.81783
879.8299, 42.17301
880.3120, 42.62182
880.7941, 42.96248
881.2762, 43.13768
881.7584, 42.82862
882.2405, 42.06488
882.7226, 41.47628
883.2047, 41.34436
883.6868, 41.50697
884.1689, 41.78768
884.6511, 42.17743
885.1332, 42.36761
885.6153, 42.36287
886.0974, 42.11035
886.5795, 41.28821
887.0616, 40.61945
887.5438, 40.89291
888.0259, 41.73856
888.5080, 42.01708
888.9901, 41.45111
889.4722, 40.92137
889.9543, 40.40392
890.4365, 40.11082
890.9186, 40.25991
891.4007, 40.64748
891.8828, 41.12335
892.3649, 41.59618
892.8470, 41.72828
893.3292, 41.05836
893.8113, 40.31025
894.2934, 40.29489
894.7755, 40.63638
895.2576, 40.66900
895.7397, 40.36531
896.2219, 40.04358
896.7040, 39.86793
897.1861, 39.84270
897.6682, 40.00625
898.1503, 40.33883
898.6324, 40.75866
899.1146, 41.28872
899.5967, 41.46497
900.0788, 41.04927
900.5609, 40.60649
901.0430, 40.76734
901.5251, 41.37064
902.0073, 41.37727
902.4894, 40.34150
902.9715, 39.62012
903.4536, 39.29271
903.9357, 39.28038
904.4178, 39.64830
904.9000, 40.25153
905.3821, 41.02201
905.8642, 41.97931
906.3463, 42.46587
906.8284, 42.07307
907.3105, 41.47527
907.7927, 40.86080
908.2748, 40.28387
908.7569, 39.65742
909.2390, 39.10923
909.7211, 39.04818
910.2032, 39.72917
910.6854, 40.49466
911.1675, 40.81921
911.6496, 40.79486
912.1317, 40.39643
912.6138, 39.78001
913.0959, 39.43929
913.5781, 39.51557
914.0602, 39.77706
914.5423, 40.05398
915.0244, 40.27610
915.5065, 40.15285
915.9886, 39.67975
916.4708, 39.45620
916.9529, 39.57991
917.4350, 39.84212
917.9171, 40.19341
918.3992, 40.49568
918.8813, 40.45794
919.3635, 39.98957
919.8456, 39.89238
920.3277, 40.44729
920.8098, 40.91325
921.2919, 41.31748
921.7740, 41.41420
922.2562, 40.75035
922.7383, 39.64351
923.2204, 39.04411
923.7025, 39.18763
924.1846, 39.51342
924.6667, 40.21698
925.1489, 40.71216
925.6310, 40.42518
926.1131, 39.82577
926.5952, 39.59756
927.0773, 39.80343
927.5594, 39.94862
928.0416, 39.57845
928.5237, 39.34210
929.0058, 40.12577
929.4879, 41.27800
929.9700, 41.68304
930.4521, 41.43425
930.9343, 41.28814
931.4164, 41.56582
931.8985, 42.04020
932.3806, 42.52562
932.8627, 42.96438
933.3448, 43.12278
933.8270, 43.02580
934.3091, 42.95926
934.7912, 42.98803
935.2733, 42.96007
935.7554, 42.72732
936.2375, 42.46899
936.7197, 42.67899
937.2018, 43.49572
937.6839, 43.97298
938.1660, 43.99170
938.6481, 43.95416
939.1302, 43.83997
939.6124, 43.91897
940.0945, 44.63606
940.5766, 45.87875
941.0587, 46.59081
941.5408, 46.35693
942.0229, 46.25175
942.5051, 46.26472
942.9872, 46.48155
943.4693, 47.06244
943.9514, 47.81033
944.4335, 48.45977
944.9156, 48.98131
945.3978, 49.51126
945.8799, 50.06854
946.3620, 50.68379
946.8441, 51.51299
947.3262, 52.29506
947.8083, 52.63750
948.2905, 52.71044
948.7726, 53.00453
949.2547, 53.70190
949.7368, 54.56209
950.2189, 55.45082
950.7010, 56.34113
951.1832, 57.13997
951.6653, 57.92934
952.1474, 58.98244
952.6295, 60.29317
953.1116, 61.44945
953.5938, 62.15405
954.0759, 62.82861
954.5580, 64.30296
955.0400, 66.39921
955.5222, 68.09548
956.0043, 69.37873
956.4864, 70.88496
956.9685, 72.83918
957.4506, 74.97379
957.9327, 77.04088
958.4149, 79.04253
958.8970, 80.84022
959.3791, 82.30441
959.8612, 84.33306
960.3433, 87.26039
960.8254, 89.97538
961.3076, 91.70442
961.7897, 93.25974
962.2718, 95.79656
962.7539, 99.33064
963.2360, 102.7244
963.7181, 105.6212
964.2003, 108.9173
964.6824, 112.8745
965.1645, 117.0354
965.6466, 121.0241
966.1287, 125.1319
966.6108, 129.8770
967.0930, 135.3526
967.5751, 141.0462
968.0572, 146.6652
968.5393, 152.7272
969.0214, 159.3210
969.5035, 166.5209
969.9857, 174.4910
970.4678, 183.0698
970.9499, 191.8064
971.4320, 200.4999
971.9141, 209.6707
972.3962, 219.5041
972.8784, 230.0614
973.3605, 241.7493
973.8426, 253.9661
974.3247, 265.6828
974.8068, 276.8855
975.2889, 288.3896
975.7711, 300.5702
976.2532, 313.3476
976.7353, 327.1734
977.2174, 341.2467
977.6995, 353.9964
978.1816, 365.7810
978.6638, 377.8499
979.1459, 390.5646
979.6280, 403.2020
980.1101, 415.1779
980.5922, 426.6878
981.0743, 438.0949
981.5565, 449.2359
982.0386, 458.8299
982.5207, 466.8198
983.0028, 475.9915
983.4849, 487.5942
983.9670, 498.6995
984.4492, 506.0207
984.9313, 510.1788
985.4134, 514.2416
985.8955, 518.3925
986.3776, 521.0690
986.8597, 522.2402
987.3419, 521.4387
987.8240, 518.2726
988.3061, 513.2855
988.7882, 507.0977
989.2703, 499.7337
989.7524, 492.0120
990.2346, 484.1392
990.7167, 475.3733
991.1988, 464.8460
991.6809, 454.4242
992.1630, 444.6620
992.6451, 435.9217
993.1273, 428.9898
993.6094, 424.0226
994.0915, 419.7863
994.5736, 414.9431
995.0557, 412.6441
995.5378, 413.6029
996.0200, 417.1758
996.5021, 423.6382
996.9842, 432.1930
997.4663, 441.2130
997.9484, 450.2938
998.4305, 461.0649
998.9127, 474.4582
999.3948, 488.8995
999.8769, 503.7163
1000.359, 519.1589
1000.841, 535.7656
1001.323, 553.0968
1001.805, 570.1614
1002.287, 586.7297
1002.770, 602.2753
1003.252, 616.2195
1003.734, 629.3282
1004.216, 642.6589
1004.698, 655.3212
1005.180, 666.2758
1005.662, 675.5177
1006.144, 683.5866
1006.627, 690.7265
1007.109, 696.9200
1007.591, 702.4100
1008.073, 706.7064
1008.555, 709.5231
1009.037, 710.5742
1009.519, 709.0200
1010.001, 705.0494
1010.483, 700.1946
1010.966, 695.4522
1011.448, 689.4617
1011.930, 680.8648
1012.412, 669.7491
1012.894, 655.8619
1013.376, 639.6129
1013.858, 622.1627
1014.340, 603.7761
1014.823, 584.5700
1015.305, 564.6566
1015.787, 543.6796
1016.269, 520.8431
1016.751, 496.4158
1017.233, 471.1325
1017.715, 445.3954
1018.197, 421.0943
1018.679, 398.7835
1019.162, 378.1779
1019.644, 359.0990
1020.126, 341.2953
1020.608, 324.0206
1021.090, 307.3469
1021.572, 291.3822
1022.054, 276.1006
1022.536, 261.6423
1023.018, 247.9692
1023.501, 235.8786
1023.983, 226.2313
1024.465, 218.3058
1024.947, 209.8056
1025.429, 200.6292
1025.911, 192.5596
1026.393, 185.8207
1026.875, 179.0438
1027.358, 171.5410
1027.840, 164.5635
1028.322, 159.4999
1028.804, 155.8519
1029.286, 151.7106
1029.768, 146.8495
1030.250, 142.3835
1030.732, 138.3871
1031.214, 134.6308
1031.697, 131.0625
1032.179, 127.6434
1032.661, 124.3038
1033.143, 121.0845
1033.625, 118.1631
1034.107, 115.5920
1034.589, 113.1739
1035.071, 110.8426
1035.553, 108.8185
1036.036, 107.6188
1036.518, 106.2771
1037.000, 103.6240
1037.482, 99.93674
1037.964, 96.78943
1038.446, 94.26297
1038.928, 92.16216
1039.410, 90.74822
1039.893, 89.41857
1040.375, 88.12473
1040.857, 86.70518
1041.339, 84.85358
1041.821, 82.69701
1042.303, 80.96587
1042.785, 79.72983
1043.267, 78.79330
1043.750, 78.83611
1044.232, 78.32137
1044.714, 75.97108
1045.196, 73.39176
1045.678, 72.49532
1046.160, 72.84453
1046.642, 72.09292
1047.124, 69.10661
1047.606, 67.09818
1048.089, 67.36581
1048.571, 67.60874
1049.053, 66.95455
1049.535, 65.80305
1050.017, 64.26928
1050.499, 62.59537
1050.981, 61.56882
1051.463, 61.54306
1051.945, 61.55767
1052.428, 61.58900
1052.910, 61.40522
1053.392, 60.66022
1053.874, 59.83958
1054.356, 59.54676
1054.838, 59.61140
1055.320, 59.31773
1055.802, 58.40543
1056.285, 57.53848
1056.767, 56.87756
1057.249, 56.33772
1057.731, 55.88206
1058.213, 55.52776
1058.695, 55.42163
1059.177, 55.42064
1059.659, 55.05073
1060.141, 54.06343
1060.624, 53.37490
1061.106, 53.71966
1061.588, 53.93368
1062.070, 53.05372
1062.552, 52.05022
1063.034, 52.08905
1063.516, 52.82756
1063.998, 53.09867
1064.480, 52.55809
1064.963, 52.07565
1065.445, 52.11175
1065.927, 52.15077
1066.409, 52.00292
1066.891, 51.66317
1067.373, 50.93187
1067.855, 50.06190
1068.337, 49.65261
1068.820, 49.87079
1069.302, 50.05938
1069.784, 50.02079
1070.266, 49.78069
1070.748, 49.04377
1071.230, 48.38042
1071.712, 48.54560
1072.194, 49.12429
1072.677, 49.13432
1073.159, 48.37201
1073.641, 47.64174
1074.123, 47.14698
1074.605, 46.95636
1075.087, 47.37899
1075.569, 47.86892
1076.051, 48.07254
1076.533, 47.93612
1077.016, 47.24620
1077.498, 46.05593
1077.980, 45.34670
1078.462, 45.97945
1078.944, 46.52724
1079.426, 46.01222
1079.908, 45.41584
1080.390, 45.60545
1080.872, 46.22742
1081.354, 46.74621
1081.837, 47.03539
1082.319, 47.01881
1082.801, 46.47458
1083.283, 46.00048
1083.765, 45.95370
1084.247, 45.99758
1084.729, 45.79504
1085.211, 45.58461
1085.694, 45.88094
1086.176, 46.55486
1086.658, 46.70434
1087.140, 45.74311
1087.622, 45.05567
1088.104, 45.66332
1088.586, 46.23310
1089.068, 45.74194
1089.551, 44.86706
1090.033, 44.31455
1090.515, 44.15545
1090.997, 44.34301
1091.479, 44.97994
1091.961, 45.43155
1092.443, 45.33504
1092.925, 45.14447
1093.407, 45.03212
1093.890, 44.99030
1094.372, 45.10479
1094.854, 45.25307
1095.336, 45.10184
1095.818, 44.53862
1096.300, 44.13271
1096.782, 44.24417
1097.264, 44.30869
1097.746, 44.03673
1098.229, 43.69422
1098.711, 43.56145
1099.193, 43.48918
1099.675, 43.06487
1100.157, 42.23381
1100.639, 41.83004
1101.121, 42.39169
1101.603, 42.93272
1102.086, 43.30340
1102.568, 43.45153
1103.050, 43.19938
1103.532, 42.78961
1104.014, 42.57614
1104.496, 42.55920
1104.978, 42.43649
1105.460, 42.01777
1105.943, 41.72803
1106.425, 41.65400
1106.907, 41.69577
1107.389, 41.95579
1107.871, 42.19926
1108.353, 42.13071
1108.835, 41.81665
1109.317, 41.61515
1109.799, 41.66375
1110.281, 41.54845
1110.764, 41.10946
1111.246, 40.67749
1111.728, 40.25491
1112.210, 39.95614
1112.692, 40.02074
1113.174, 40.25038
1113.656, 40.09713
1114.138, 39.43676
1114.621, 38.95874
1115.103, 38.72038
1115.585, 38.57563
1116.067, 38.54321
1116.549, 38.54620
1117.031, 38.56640
1117.513, 38.57804
1117.995, 38.57351
1118.478, 38.55646
1118.960, 38.24072
1119.442, 37.34527
1119.924, 36.82608
1120.406, 36.83976
1120.888, 37.10672
1121.370, 37.66637
1121.852, 38.18052
1122.334, 38.27306
1122.817, 37.97552
1123.299, 37.36731
1123.781, 36.19579
1124.263, 35.85266
1124.745, 36.65934
1125.227, 37.24234
1125.709, 37.15926
1126.191, 36.80051
1126.673, 36.45326
1127.156, 36.12009
1127.638, 35.78552
1128.120, 35.44444
1128.602, 35.30252
1129.084, 35.36988
1129.566, 35.58179
1130.048, 35.94975
1130.530, 36.22316
1131.013, 36.24651
1131.495, 36.37418
1131.977, 36.16366
1132.459, 36.22841
1132.941, 36.07687
1133.423, 35.74368
1133.905, 35.84349
1134.387, 36.40944
1134.870, 36.58198
1135.352, 36.02227
1135.834, 35.45535
1136.316, 35.62150
1136.798, 35.35100
1137.280, 36.01500
1137.762, 35.52105
1138.244, 35.46411
1138.726, 35.75167
1139.208, 35.59930
1139.691, 34.91728
1140.173, 34.66251
1140.655, 35.48859
1141.137, 36.48259
1141.619, 36.37438
1142.101, 35.72543
1142.583, 35.53666
1143.065, 35.60387
1143.548, 35.39799
1144.030, 34.93184
1144.512, 34.58724
1144.994, 34.50240
1145.476, 34.38145
1145.958, 33.99051
1146.440, 33.44983
1146.922, 32.74301
1147.405, 32.06360
1147.887, 31.66420
1148.369, 31.48866
1148.851, 31.44502
1149.333, 31.47022
1149.815, 31.37658
1150.297, 31.01563
1150.779, 30.68389
1151.261, 30.62781
1151.744, 30.58525
1152.226, 30.34864
1152.708, 30.02680
1153.190, 29.69715
1153.672, 29.41746
1154.154, 29.35310
1154.636, 29.60198
1155.118, 29.62650
1155.600, 28.82995
1156.083, 28.38480
1156.565, 29.08712
1157.047, 29.87854
1157.529, 30.09924
1158.011, 29.87355
1158.493, 29.33733
1158.975, 28.51124
1159.457, 27.93879
1159.940, 27.67168
1160.422, 27.63129
1160.904, 27.99549
1161.386, 28.32307
1161.868, 28.48874
1162.350, 28.52925
1162.832, 28.47321
1163.314, 28.31896
1163.796, 28.03501
1164.279, 27.56179
1164.761, 27.27466
1165.243, 27.12820
1165.725, 27.38999
1166.207, 28.25836
1166.689, 29.06129
1167.171, 29.45295
1167.653, 29.43233
1168.135, 28.89556
1168.618, 28.00912
1169.100, 27.86194
1169.582, 27.35443
1170.064, 26.95519
1170.546, 27.15049
1171.028, 26.72674
1171.510, 27.47351
1171.992, 28.32204
1172.474, 28.42172
1172.957, 28.07254
1173.439, 27.66867
1173.921, 27.27753
1174.403, 27.21512
1174.885, 27.32882
1175.367, 26.96646
1175.849, 26.17562
1176.331, 25.75528
1176.814, 26.04077
1177.296, 26.48585
1177.778, 26.57654
1178.260, 26.61974
1178.742, 27.13487
1179.224, 27.70155
1179.706, 27.61917
1180.188, 27.17701
1180.671, 27.08100
1181.153, 27.38851
1181.635, 27.56720
1182.117, 27.34022
1182.599, 27.12573
1183.081, 27.27933
1183.563, 27.35991
1184.045, 26.91150
1184.527, 26.41109
1185.010, 26.37039
1185.492, 26.65296
1185.974, 26.90748
1186.456, 27.09332
1186.938, 27.09265
1187.420, 26.65683
1187.902, 26.38293
1188.384, 26.35119
1188.866, 26.52511
1189.349, 27.13545
1189.831, 27.70038
1190.313, 27.65723
1190.795, 27.15832
1191.277, 26.78808
1191.759, 26.52462
1192.241, 26.50769
1192.723, 26.79240
1193.206, 27.17896
1193.688, 27.71895
1194.170, 27.95421
1194.652, 27.55861
1195.134, 26.92393
1195.616, 26.57741
1196.098, 26.49088
1196.580, 26.61031
1197.063, 26.90627
1197.545, 27.13879
1198.027, 27.26617
1198.509, 27.03483
1198.991, 26.40566
1199.473, 25.79334
1199.955, 25.47095
1200.437, 25.41476
1200.919, 25.84084
1201.401, 26.33642
1201.884, 25.95121
1202.366, 25.20113
1202.848, 25.16371
1203.330, 25.73525
1203.812, 26.22964
1204.294, 26.43453
1204.776, 26.54004
1205.258, 26.70177
1205.741, 26.70263
1206.223, 26.10932
1206.705, 25.61647
1207.187, 25.90426
1207.669, 26.49774
1208.151, 26.84501
1208.633, 26.94057
1209.115, 26.95733
1209.598, 26.88745
1210.080, 26.94647
1210.562, 27.41124
1211.044, 27.64595
1211.526, 27.34526
1212.008, 27.01460
1212.490, 26.95225
1212.972, 26.55518
1213.454, 26.52465
1213.937, 25.90714
1214.419, 25.43496
1214.901, 25.06416
1215.383, 25.11717
1215.865, 25.67807
1216.347, 26.19892
1216.829, 26.58340
1217.311, 26.61828
1217.793, 26.13347
1218.276, 25.59288
1218.758, 25.66574
1219.240, 26.09574
1219.722, 26.16047
1220.204, 25.95111
1220.686, 25.73697
1221.168, 25.56731
1221.650, 25.49698
1222.133, 25.55114
1222.615, 25.83151
1223.097, 26.43415
1223.579, 26.91112
1224.061, 26.65496
1224.543, 26.29319
1225.025, 26.51801
1225.507, 26.92327
1225.990, 27.09164
1226.472, 27.01319
1226.954, 26.68777
1227.436, 26.16849
1227.918, 25.83526
1228.400, 25.87784
1228.882, 25.94605
1229.364, 26.08027
1229.846, 26.06774
1230.328, 25.62395
1230.811, 25.20689
1231.293, 25.16494
1231.775, 25.38083
1232.257, 25.68449
1232.739, 26.07381
1233.221, 26.23954
1233.703, 26.16875
1234.185, 25.88556
1234.668, 25.32936
1235.150, 24.90213
1235.632, 24.72412
1236.114, 24.83613
1236.596, 25.31721
1237.078, 25.86352
1237.560, 25.90541
1238.042, 25.59801
1238.525, 25.47116
1239.007, 25.43731
1239.489, 25.13229
1239.971, 24.63597
1240.453, 24.38202
1240.935, 24.48766
1241.417, 24.74909
1241.899, 25.09330
1242.381, 25.37033
1242.864, 25.39767
1243.346, 25.38119
1243.828, 25.58256
1244.310, 25.76201
1244.792, 25.48106
1245.274, 25.00913
1245.756, 25.07962
1246.238, 25.79028
1246.720, 26.12017
1247.203, 25.48005
1247.685, 25.15359
1248.167, 25.33310
1248.649, 25.72175
1249.131, 26.58973
1249.613, 27.01419
1250.095, 26.07591
1250.577, 24.53920
1251.059, 23.88663
1251.542, 24.06314
1252.024, 24.56740
1252.506, 25.39460
1252.988, 25.48284
1253.470, 24.77893
1253.952, 24.09763
1254.434, 23.72023
1254.916, 23.77902
1255.399, 24.40520
1255.881, 25.18925
1256.363, 25.85212
1256.845, 26.15177
1257.327, 25.35623
1257.809, 24.20757
1258.291, 23.77708
1258.773, 23.98231
1259.255, 24.51288
1259.738, 25.20258
1260.220, 25.56106
1260.702, 25.22699
1261.184, 25.07372
1261.666, 25.53715
1262.148, 26.02474
1262.630, 26.38270
1263.112, 26.59931
1263.594, 26.69896
1264.077, 26.63010
1264.559, 26.23115
1265.041, 25.57393
1265.523, 25.29758
1266.005, 25.46598
1266.487, 25.72412
1266.969, 26.11624
1267.451, 25.91553
1267.934, 24.92491
1268.416, 24.25237
1268.898, 24.53178
1269.380, 25.13337
1269.862, 25.35510
1270.344, 25.34286
1270.826, 25.32092
1271.308, 25.28555
1271.791, 25.15143
1272.273, 25.03130
1272.755, 25.26999
1273.237, 25.77268
1273.719, 25.96410
1274.201, 25.62709
1274.683, 25.37182
1275.165, 25.40014
1275.647, 25.66376
1276.130, 26.71831
1276.612, 27.33318
1277.094, 26.29671
1277.576, 24.87374
1278.058, 24.35952
1278.540, 24.56191
1279.022, 25.03370
1279.504, 25.82958
1279.986, 26.06474
1280.469, 25.64155
1280.951, 25.31461
1281.433, 25.17231
1281.915, 25.17830
1282.397, 25.32121
1282.879, 25.32810
1283.361, 24.94752
1283.843, 24.57196
1284.326, 24.66790
1284.808, 25.23561
##END=



