##NAMES=Monazite-(Ce)
##RRUFFID=X050118
##IDEAL CHEMISTRY=CePO_4_
##LOCALITY=unknown
##OWNER=Caltech
##SOURCE=Caltech
##DESCRIPTION=radioactive
##STATUS=The identification of this mineral has been determined only by Raman spectroscopy
##URL=rruff.info/X050118
152.7340, 955.0000
155.2526, 1077.6372
157.7713, 1327.4521
160.2899, 1534.8288
162.8086, 1787.5116
165.3272, 2065.9846
167.8459, 2382.8618
170.3645, 2718.6985
172.8832, 3033.1572
175.4018, 3293.6047
177.9205, 3448.1797
180.4391, 3500.1413
182.9578, 3594.9250
185.4764, 3654.7539
187.9951, 3792.7781
190.5137, 3847.7912
193.0324, 3964.5591
195.5510, 4060.8020
198.0697, 4084.8550
200.5883, 4116.2090
203.1070, 4274.9819
205.6256, 4418.9902
208.1443, 4537.5781
210.6629, 4678.9473
213.1816, 4827.5195
215.7002, 4977.2187
218.2189, 5097.1528
220.7375, 5169.9883
223.2562, 5293.8877
225.7748, 5367.3540
228.2935, 5374.8457
230.8121, 5370.4141
233.3308, 5425.4907
235.8494, 5446.8613
238.3681, 5407.7793
240.8867, 5501.1582
243.4054, 5487.2065
245.9240, 5517.7827
248.4427, 5601.6597
250.9613, 5680.2720
253.4800, 5767.4936
255.9986, 5809.4219
258.5173, 5922.1733
261.0359, 6081.7475
263.5546, 6163.9897
266.0732, 6346.8013
268.5919, 6567.8398
271.1105, 6817.8838
273.6292, 7086.4814
276.1478, 7191.4814
278.6664, 7406.5395
281.1851, 7561.6973
283.7038, 7694.0503
286.2224, 7784.5234
288.7411, 7871.4424
291.2597, 7888.9106
293.7784, 7813.0361
296.2970, 7739.6191
298.8156, 7713.3677
301.3343, 7755.3755
303.8529, 7724.1567
306.3716, 7532.3784
308.8903, 7475.2119
311.4089, 7401.0464
313.9276, 7350.9761
316.4462, 7221.8657
318.9648, 7158.6792
321.4835, 7035.7729
324.0021, 6887.9033
326.5208, 6768.3086
329.0395, 6773.7588
331.5581, 6820.3462
334.0768, 6873.0718
336.5954, 6900.2275
339.1140, 6871.2344
341.6327, 6828.2075
344.1513, 6868.2622
346.6700, 7021.4600
349.1886, 7139.3984
351.7073, 7294.6435
354.2260, 7421.8076
356.7446, 7651.6509
359.2632, 7858.1382
361.7819, 8096.4858
364.3005, 8353.0683
366.8192, 8547.6601
369.3378, 8830.8467
371.8565, 9231.0918
374.3751, 9461.9609
376.8938, 9762.7266
379.4124, 10004.9030
381.9311, 10313.3720
384.4497, 10570.9840
386.9684, 10747.3000
389.4870, 10923.4080
392.0057, 11031.8990
394.5243, 11215.0010
397.0430, 11451.0820
399.5616, 11410.2750
402.0803, 11623.8540
404.5989, 11658.2110
407.1176, 11831.7360
409.6362, 12231.3420
412.1549, 12566.2970
414.6735, 13094.1420
417.1922, 13287.4850
419.7108, 13255.8400
422.2295, 12851.7780
424.7481, 12006.7820
427.2668, 11250.3040
429.7854, 10656.4970
432.3041, 10025.0170
434.8227, 9606.0254
437.3414, 9446.9385
439.8600, 9360.9394
442.3787, 9418.6738
444.8973, 9611.3076
447.4160, 9828.3633
449.9346, 10153.7640
452.4533, 10677.1090
454.9719, 11345.4750
457.4906, 11891.5060
460.0092, 12579.9220
462.5279, 13149.9840
465.0465, 13514.5020
467.5652, 13736.9060
470.0838, 13234.1040
472.6025, 12764.2170
475.1211, 11978.4220
477.6398, 11248.4940
480.1584, 10484.4350
482.6771, 9827.9482
485.1957, 9366.0156
487.7144, 9010.2139
490.2330, 8677.3584
492.7517, 8311.3340
495.2703, 8006.8574
497.7890, 7862.5474
500.3076, 7750.5185
502.8263, 7599.2593
505.3449, 7411.6933
507.8636, 7273.5342
510.3822, 7195.0986
512.9009, 7064.7949
515.4195, 6978.6011
517.9382, 6977.7217
520.4568, 6906.2549
522.9755, 6934.9717
525.4941, 6943.0000
528.0128, 6993.7358
530.5314, 7201.8271
533.0501, 7257.8926
535.5687, 7342.3457
538.0873, 7373.5923
540.6060, 7400.6977
543.1246, 7249.7270
545.6433, 7217.7788
548.1619, 7168.7925
550.6806, 7232.7290
553.1992, 7310.5732
555.7179, 7369.4858
558.2366, 7484.9624
560.7552, 7668.1802
563.2739, 7900.0581
565.7925, 8194.4853
568.3112, 8558.2558
570.8298, 8845.2236
573.3485, 8973.5859
575.8671, 8794.1767
578.3857, 8442.9892
580.9044, 8131.7895
583.4230, 7943.1138
585.9417, 7777.9473
588.4603, 7701.4370
590.9790, 7678.2534
593.4976, 7635.6494
596.0163, 7639.9609
598.5349, 7601.0049
601.0536, 7604.2593
603.5722, 7645.1821
606.0909, 7697.7969
608.6096, 7779.1665
611.1282, 7904.3657
613.6469, 8020.5425
616.1655, 8186.1592
618.6841, 8399.6670
621.2028, 8651.7510
623.7214, 8542.7226
626.2401, 8285.0439
628.7587, 8104.8701
631.2774, 7964.5137
633.7960, 7859.7529
636.3147, 7773.5395
638.8333, 7564.1592
641.3520, 7558.1348
643.8706, 7588.4453
646.3893, 7642.1099
648.9079, 7622.3481
651.4266, 7461.6660
653.9452, 7490.6875
656.4639, 7525.1782
658.9825, 7427.0986
661.5012, 7366.2856
664.0198, 7421.8735
666.5385, 7414.2842
669.0571, 7424.3364
671.5757, 7391.0366
674.0944, 7404.9668
676.6130, 7360.0615
679.1317, 7443.7383
681.6504, 7523.2500
684.1690, 7485.5391
686.6877, 7523.8896
689.2063, 7458.5063
691.7250, 7468.3867
694.2436, 7498.0342
696.7623, 7458.0620
699.2809, 7410.8906
701.7996, 7337.6196
704.3182, 7250.7153
706.8369, 7167.9043
709.3555, 7104.3291
711.8741, 7041.3345
714.3928, 6911.9663
716.9114, 6721.9321
719.4301, 6588.5400
721.9487, 6491.3110
724.4674, 6358.2402
726.9861, 6283.7978
729.5047, 6223.1914
732.0234, 6173.3760
734.5420, 6137.5474
737.0607, 6078.5884
739.5793, 6033.6680
742.0980, 5969.7324
744.6166, 6040.6235
747.1353, 6039.8989
749.6539, 6012.9390
752.1726, 5875.6167
754.6912, 5881.7187
757.2098, 5891.6230
759.7285, 5920.5259
762.2471, 5931.9224
764.7658, 5966.6665
767.2844, 5979.4717
769.8031, 5970.0703
772.3217, 6010.4355
774.8404, 6087.6816
777.3591, 6089.7485
779.8777, 6148.0991
782.3964, 6121.4184
784.9150, 6173.8052
787.4337, 6244.4897
789.9523, 6239.9277
792.4710, 6327.1753
794.9896, 6326.4233
797.5082, 6435.8877
800.0269, 6453.0146
802.5455, 6610.1655
805.0642, 6660.9941
807.5828, 6689.8984
810.1015, 6686.9189
812.6201, 6841.7383
815.1388, 6814.4487
817.6574, 6936.9038
820.1761, 7028.4927
822.6947, 7129.6841
825.2134, 7172.4585
827.7321, 7216.7622
830.2507, 7313.3765
832.7694, 7324.3642
835.2880, 7345.5600
837.8066, 7426.2832
840.3253, 7407.2695
842.8439, 7361.2104
845.3626, 7388.2139
847.8812, 7440.2803
850.3999, 7254.6206
852.9185, 7319.6645
855.4372, 7261.1177
857.9558, 7285.7851
860.4745, 7168.5542
862.9931, 7151.3906
865.5118, 7095.7319
868.0304, 7048.7656
870.5491, 6989.4595
873.0678, 6885.6997
875.5864, 6792.5459
878.1050, 6798.1025
880.6237, 6723.7642
883.1423, 6597.1084
885.6610, 6628.4614
888.1796, 6569.7944
890.6982, 6529.5200
893.2169, 6486.6890
895.7356, 6516.5454
898.2542, 6533.0683
900.7729, 6515.9473
903.2915, 6487.2309
905.8102, 6440.4155
908.3288, 6403.7158
910.8475, 6450.9971
913.3661, 6453.1396
915.8848, 6443.7720
918.4034, 6484.0986
920.9221, 6472.8765
923.4407, 6533.2959
925.9594, 6643.5054
928.4780, 6792.5918
930.9966, 6972.7183
933.5153, 7159.0669
936.0339, 7452.7549
938.5526, 7832.7407
941.0712, 8188.9834
943.5899, 8657.0391
946.1086, 9117.2139
948.6272, 9754.4453
951.1459, 10517.9900
953.6645, 11400.3510
956.1832, 12630.2080
958.7018, 14173.3030
961.2205, 15875.7570
963.7391, 18133.8300
966.2578, 20920.7230
968.7764, 23640.9240
971.2950, 25887.1660
973.8137, 26920.6890
976.3323, 26255.6440
978.8510, 23864.7250
981.3696, 20643.1520
983.8883, 17520.5080
986.4069, 14849.1360
988.9256, 13016.1000
991.4442, 11754.7040
993.9629, 10883.2800
996.4816, 10213.3140
999.0002, 9737.0322
1001.5188, 9359.2822
1004.0375, 9020.7656
1006.5561, 8773.9492
1009.0748, 8489.4424
1011.5934, 8421.1660
1014.1121, 8279.1308
1016.6307, 8288.7539
1019.1494, 8284.5488
1021.6680, 8293.6308
1024.1866, 8259.7891
1026.7053, 8335.2432
1029.2240, 8525.9160
1031.7427, 8572.7539
1034.2612, 8708.4062
1036.7799, 8985.0840
1039.2986, 9103.8633
1041.8173, 9436.0078
1044.3359, 9690.5273
1046.8545, 10130.5070
1049.3732, 10687.5910
1051.8918, 11412.8180
1054.4105, 11961.7880
1056.9291, 12584.2670
1059.4477, 13177.4790
1061.9664, 13273.4380
1064.4851, 13286.1430
1067.0038, 12877.0590
1069.5223, 12361.9260
1072.0410, 11758.4750
1074.5597, 10883.8690
1077.0784, 10249.0790
1079.5969, 9619.3203
1082.1156, 8993.4902
1084.6343, 8597.4502
1087.1529, 8177.8603
1089.6716, 7811.2051
1092.1902, 7527.0459
1094.7089, 7292.7700
1097.2275, 7144.9219
1099.7462, 6935.9795
1102.2648, 6779.0351
1104.7834, 6678.3105
1107.3021, 6562.3115
1109.8208, 6465.7515
1112.3395, 6417.2241
1114.8580, 6459.0093
1117.3767, 6358.4780
1119.8954, 6290.6919
1122.4141, 6290.8711
1124.9326, 6174.1968
1127.4513, 6170.4404
1129.9700, 6158.3867
1132.4886, 6125.1001
1135.0072, 6162.7920
1137.5259, 6167.8569
1140.0445, 5960.2319
1142.5632, 6037.8725
1145.0819, 6009.4951
1147.6005, 5972.0879
1150.1191, 5960.4985
1152.6378, 5898.4541
1155.1565, 5978.0600
1157.6750, 5991.2217
1160.1937, 5926.5952
1162.7124, 5874.4092
1165.2311, 5906.6518
1167.7497, 5883.9741
1170.2683, 5823.2661
1172.7870, 5808.3100
1175.3057, 5882.6904
1177.8243, 5924.6973
1180.3429, 5907.8144
1182.8616, 5871.2441
1185.3802, 5837.1475
1187.8989, 5818.9058
1190.4176, 5842.6103
1192.9361, 5845.3857
1195.4548, 5834.0635
1197.9735, 5821.5840
1200.4922, 5870.5635
1203.0107, 5841.2300
1205.5294, 5821.9780
1208.0481, 5856.7637
1210.5668, 5743.8423
1213.0854, 5758.5161
1215.6040, 5747.5908
1218.1227, 5833.6850
1220.6413, 5768.6269
1223.1600, 5737.7558
1225.6786, 5685.1728
1228.1973, 5679.8877
1230.7159, 5685.9726
1233.2346, 5681.2778
1235.7533, 5663.2939
1238.2718, 5685.3638
1240.7905, 5652.5923
1243.3092, 5639.2324
1245.8279, 5673.5249
1248.3464, 5662.6308
1250.8651, 5732.0737
1253.3838, 5645.9321
1255.9025, 5677.0542
1258.4211, 5670.3359
1260.9397, 5821.6304
1263.4584, 5890.4419
1265.9770, 5883.5439
1268.4957, 5927.8066
1271.0143, 5941.0415
1273.5329, 5985.2915
1276.0516, 6011.2065
1278.5703, 6044.4043
1281.0890, 6026.1533
1283.6075, 6088.3501
1286.1262, 6181.1933
1288.6449, 6239.1943
1291.1636, 6257.3579
1293.6821, 6299.2812
1296.2008, 6345.5547
1298.7195, 6248.2622
1301.2381, 6325.4365
1303.7567, 6243.0019
1306.2754, 6341.7632
1308.7941, 6371.6059
1311.3127, 6313.7822
1313.8314, 6278.6382
1316.3500, 6359.7905
1318.8686, 6215.4541
1321.3873, 6252.9805
1323.9060, 6224.9809
1326.4246, 6201.3442
1328.9432, 6120.6435
1331.4619, 6093.9883
1333.9806, 6097.4453
1336.4993, 6070.1245
1339.0178, 6116.4121
1341.5365, 6124.8159
1344.0552, 6049.5171
1346.5738, 6009.1772
1349.0924, 5972.7051
1351.6111, 6024.4326
1354.1298, 5975.4097
1356.6484, 5992.6816
1359.1671, 5833.1523
1361.6857, 5825.5806
1364.2043, 5862.5478
1366.7230, 5909.0928
1369.2417, 5916.0249
1371.7602, 5944.8198
1374.2789, 5911.3984
1376.7976, 5863.5181
1379.3163, 5846.3848
1381.8350, 5865.6357
1384.3535, 5869.0874
1386.8722, 5908.6670
1389.3909, 5896.5298
1391.9095, 5829.0132
1394.4281, 5831.9238
1396.9468, 5829.7856
1399.4654, 5905.1152
1401.9841, 5845.6352
1404.5028, 5838.8218
1407.0214, 5802.4448
1409.5400, 5762.2725
1412.0587, 5766.1382
1414.5774, 5725.9844
1417.0959, 5733.7427
1419.6146, 5718.5517
1422.1333, 5652.7158
1424.6520, 5699.4160
1427.1706, 5706.2305
1429.6892, 5690.3769
1432.2079, 5639.1982
1434.7266, 5632.7051
1437.2452, 5655.6538
1439.7638, 5685.1142
1442.2825, 5564.5205
1444.8011, 5638.8696
1447.3198, 5636.1372
1449.8385, 5571.7558
1452.3570, 5564.4014
1454.8757, 5553.1987
1457.3944, 5535.8911
1459.9131, 5521.3198
1462.4316, 5504.3481
1464.9503, 5513.4028
1467.4690, 5604.0820
1469.9877, 5469.3066
1472.5062, 5482.6230
1475.0249, 5511.0019
1477.5436, 5515.4546
1480.0622, 5578.1084
1482.5809, 5550.8994
1485.0995, 5499.2568
1487.6182, 5500.4409
1490.1368, 5476.3369
1492.6555, 5552.2466
1495.1741, 5602.8921
1497.6927, 5537.5220
1500.2114, 5522.2295
##END=



