##NAMES=Montroseite
##RRUFFID=R060576
##IDEAL CHEMISTRY=(V^3+^,Fe^2+^,V^4+^)O(OH)
##LOCALITY=Number Mesa 5 mine, Temple Mountain, Emery County, Utah, USA
##OWNER=RRUFF
##SOURCE=Michael Scott
##DESCRIPTION=Steel gray, submetallic, massive
##STATUS=The identification of this mineral is not yet confirmed.
##URL=rruff.info/R060576
118.630, 12920.280
119.113, 13483.260
119.595, 14009.280
120.077, 14538.590
120.559, 15090.640
121.041, 15664.430
121.523, 16256.180
122.005, 16880.061
122.487, 17518.789
122.969, 18141.539
123.451, 18707.330
123.934, 19276.480
124.416, 19900.230
124.898, 20579.211
125.380, 21298.859
125.862, 22020.510
126.344, 22765.070
126.826, 23582.471
127.308, 24491.570
127.791, 25484.660
128.273, 26545.789
128.755, 27678.270
129.237, 28866.529
129.719, 30093.631
130.201, 31359.561
130.683, 32668.199
131.165, 34013.602
131.648, 35389.531
132.130, 36803.320
132.612, 38262.359
133.094, 39752.820
133.576, 41259.719
134.058, 42774.109
134.540, 44263.039
135.022, 45729.410
135.504, 47189.891
135.986, 48473.391
136.469, 49554.910
136.951, 50441.559
137.433, 51181.121
137.915, 51801.270
138.397, 52235.340
138.879, 52394.328
139.361, 52275.738
139.844, 51898.699
140.326, 51258.559
140.808, 50330.699
141.290, 49239.250
141.772, 47967.871
142.254, 46530.602
142.736, 44969.840
143.218, 43200.930
143.700, 41417.559
144.182, 39667.648
144.665, 37949.340
145.147, 36293.828
145.629, 34708.281
146.111, 33182.609
146.593, 31761.301
147.075, 30446.859
147.557, 29217.529
148.040, 28052.510
148.522, 26919.250
149.004, 25895.961
149.486, 25003.340
149.968, 24258.461
150.450, 23541.930
150.932, 22832.471
151.414, 22153.631
151.896, 21538.131
152.378, 21014.150
152.861, 20516.320
153.343, 20026.000
153.825, 19522.689
154.307, 19074.869
154.789, 18712.500
155.271, 18409.090
155.753, 18113.240
156.235, 17796.180
156.718, 17506.600
157.200, 17268.990
157.682, 17109.721
158.164, 16959.240
158.646, 16795.779
159.128, 16626.080
159.610, 16472.471
160.092, 16347.410
160.574, 16237.530
161.057, 16134.830
161.539, 16038.090
162.021, 15944.160
162.503, 15855.950
162.985, 15771.540
163.467, 15677.020
163.949, 15544.730
164.431, 15406.900
164.913, 15294.860
165.396, 15250.460
165.878, 15212.280
166.360, 15142.060
166.842, 15037.470
167.324, 14932.580
167.806, 14846.170
168.288, 14773.700
168.770, 14707.240
169.253, 14634.960
169.735, 14572.120
170.217, 14536.010
170.699, 14533.360
171.181, 14535.630
171.663, 14524.440
172.145, 14501.630
172.627, 14471.140
173.109, 14420.000
173.592, 14367.550
174.074, 14339.190
174.556, 14345.370
175.038, 14364.100
175.520, 14370.020
176.002, 14366.930
176.484, 14374.410
176.966, 14418.580
177.449, 14480.880
177.931, 14524.750
178.413, 14529.820
178.895, 14525.090
179.377, 14555.480
179.859, 14619.450
180.341, 14685.930
180.823, 14719.720
181.305, 14734.260
181.788, 14766.710
182.270, 14840.010
182.752, 14935.160
183.234, 15011.550
183.716, 15068.690
184.198, 15119.360
184.680, 15176.750
185.162, 15239.050
185.645, 15303.340
186.127, 15380.840
186.609, 15460.590
187.091, 15495.980
187.573, 15479.740
188.055, 15447.200
188.537, 15453.630
189.019, 15495.500
189.501, 15522.450
189.984, 15495.970
190.466, 15427.050
190.948, 15388.320
191.430, 15392.720
191.912, 15409.750
192.394, 15381.260
192.876, 15306.780
193.358, 15223.950
193.840, 15159.150
194.323, 15111.000
194.805, 15048.800
195.287, 14966.960
195.769, 14872.710
196.251, 14780.160
196.733, 14688.210
197.215, 14606.350
197.697, 14544.130
198.180, 14502.270
198.662, 14464.690
199.144, 14431.920
199.626, 14401.100
200.108, 14357.740
200.590, 14298.830
201.072, 14237.280
201.554, 14182.130
202.036, 14133.110
202.519, 14090.280
203.001, 14050.650
203.483, 14015.720
203.965, 14004.610
204.447, 14025.030
204.929, 14050.850
205.411, 14052.630
205.893, 14025.820
206.376, 13994.220
206.858, 13960.450
207.340, 13924.300
207.822, 13903.600
208.304, 13903.700
208.786, 13911.580
209.268, 13908.050
209.750, 13888.400
210.232, 13875.040
210.715, 13873.880
211.197, 13856.834
211.679, 13864.923
212.161, 13866.911
212.643, 13863.124
213.125, 13836.271
213.607, 13839.204
214.089, 13830.201
214.572, 13820.708
215.054, 13821.260
215.536, 13837.500
216.018, 13821.310
216.500, 13790.820
216.982, 13789.130
217.464, 13829.600
217.946, 13870.470
218.428, 13889.060
218.911, 13871.950
219.393, 13873.150
219.875, 13905.950
220.357, 13954.460
220.839, 13963.380
221.321, 13906.380
221.803, 13855.240
222.285, 13853.570
222.768, 13931.920
223.250, 13984.050
223.732, 13997.690
224.214, 13981.270
224.696, 13969.600
225.178, 13963.100
225.660, 13961.630
226.142, 13965.520
226.624, 13976.590
227.107, 13989.380
227.589, 14005.450
228.071, 14023.340
228.553, 14031.770
229.035, 14024.390
229.517, 14014.610
229.999, 14010.520
230.481, 14008.770
230.964, 14019.460
231.446, 14047.090
231.928, 14090.750
232.410, 14132.020
232.892, 14175.860
233.374, 14212.130
233.856, 14229.000
234.338, 14211.970
234.820, 14204.940
235.303, 14218.310
235.785, 14252.220
236.267, 14280.480
236.749, 14305.750
237.231, 14323.120
237.713, 14324.750
238.195, 14293.170
238.677, 14279.050
239.160, 14297.880
239.642, 14352.310
240.124, 14393.090
240.606, 14410.990
241.088, 14423.690
241.570, 14452.540
242.052, 14514.610
242.534, 14561.840
243.016, 14576.860
243.499, 14553.380
243.981, 14551.970
244.463, 14581.950
244.945, 14625.700
245.427, 14660.880
245.909, 14675.910
246.391, 14701.200
246.873, 14749.100
247.355, 14826.160
247.838, 14881.000
248.320, 14902.200
248.802, 14910.120
249.284, 14934.570
249.766, 14990.970
250.248, 15035.380
250.730, 15050.840
251.212, 15028.690
251.695, 15026.540
252.177, 15050.990
252.659, 15091.630
253.141, 15133.970
253.623, 15179.580
254.105, 15224.830
254.587, 15266.950
255.069, 15302.860
255.551, 15354.180
256.034, 15426.920
256.516, 15511.100
256.998, 15589.010
257.480, 15651.250
257.962, 15724.190
258.444, 15821.130
258.926, 15948.820
259.408, 16061.620
259.891, 16150.080
260.373, 16228.690
260.855, 16321.290
261.337, 16427.520
261.819, 16546.391
262.301, 16677.561
262.783, 16823.131
263.265, 16974.330
263.747, 17129.410
264.229, 17292.119
264.712, 17474.900
265.194, 17680.881
265.676, 17895.990
266.158, 18109.650
266.640, 18322.840
267.122, 18545.160
267.604, 18774.391
268.086, 19015.381
268.569, 19271.631
269.051, 19546.980
269.533, 19836.369
270.015, 20136.490
270.497, 20453.650
270.979, 20769.830
271.461, 21081.131
271.943, 21396.580
272.426, 21727.721
272.908, 22076.230
273.390, 22431.480
273.872, 22788.820
274.354, 23145.551
274.836, 23505.561
275.318, 23876.020
275.800, 24239.529
276.282, 24556.641
276.765, 24823.850
277.247, 25060.520
277.729, 25272.000
278.211, 25457.539
278.693, 25628.240
279.175, 25787.010
279.657, 25925.039
280.139, 26043.340
280.621, 26148.770
281.104, 26174.350
281.586, 26062.150
282.068, 25816.779
282.550, 25583.141
283.032, 25366.391
283.514, 25156.260
283.996, 24939.439
284.478, 24716.340
284.961, 24482.699
285.443, 24227.850
285.925, 23954.740
286.407, 23703.381
286.889, 23474.859
287.371, 23263.721
287.853, 23062.010
288.335, 22869.961
288.818, 22690.520
289.300, 22526.270
289.782, 22375.939
290.264, 22241.920
290.746, 22123.779
291.228, 22019.381
291.710, 21937.859
292.192, 21875.131
292.674, 21794.100
293.156, 21657.820
293.639, 21488.180
294.121, 21356.180
294.603, 21265.830
295.085, 21202.619
295.567, 21161.061
296.049, 21137.131
296.531, 21110.000
297.013, 21079.801
297.496, 21039.230
297.978, 20965.211
298.460, 20855.189
298.942, 20739.789
299.424, 20651.131
299.906, 20583.410
300.388, 20516.660
300.870, 20439.609
301.353, 20358.971
301.835, 20287.010
302.317, 20225.160
302.799, 20159.840
303.281, 20078.740
303.763, 19984.641
304.245, 19886.400
304.727, 19781.580
305.209, 19675.330
305.691, 19565.160
306.174, 19450.699
306.656, 19358.240
307.138, 19239.994
307.620, 19174.893
308.102, 19096.885
308.584, 19006.680
309.066, 18867.705
309.548, 18790.830
310.031, 18724.551
310.513, 18655.971
310.995, 18528.400
311.477, 18375.240
311.959, 18236.090
312.441, 18124.510
312.923, 18031.080
313.405, 17955.730
313.888, 17897.119
314.370, 17844.750
314.852, 17801.410
315.334, 17757.289
315.816, 17703.131
316.298, 17618.330
316.780, 17539.949
317.262, 17488.141
317.744, 17458.160
318.227, 17425.561
318.709, 17378.311
319.191, 17326.869
319.673, 17278.770
320.155, 17240.500
320.637, 17200.529
321.119, 17144.750
321.601, 17080.850
322.083, 17042.279
322.566, 17069.131
323.048, 17101.301
323.530, 17104.740
324.012, 17039.699
324.494, 16991.881
324.976, 16984.760
325.458, 17004.920
325.940, 17009.369
326.422, 16986.600
326.905, 16952.760
327.387, 16912.189
327.869, 16842.051
328.351, 16801.711
328.833, 16810.311
329.315, 16847.711
329.797, 16868.689
330.280, 16870.070
330.762, 16858.480
331.244, 16832.631
331.726, 16779.400
332.208, 16747.631
332.690, 16750.180
333.172, 16768.670
333.654, 16770.619
334.136, 16747.680
334.618, 16722.689
335.101, 16703.420
335.583, 16691.920
336.065, 16673.160
336.547, 16641.381
337.029, 16608.320
337.511, 16592.830
337.993, 16601.480
338.475, 16605.500
338.958, 16596.461
339.440, 16574.070
339.922, 16541.711
340.404, 16492.461
340.886, 16447.600
341.368, 16435.590
341.850, 16460.180
342.332, 16479.480
342.815, 16481.260
343.297, 16469.439
343.779, 16459.910
344.261, 16452.939
344.743, 16449.109
345.225, 16449.990
345.707, 16455.570
346.189, 16462.980
346.671, 16474.320
347.154, 16484.891
347.636, 16477.891
348.118, 16453.619
348.600, 16436.680
349.082, 16448.311
349.564, 16481.609
350.046, 16518.369
350.528, 16557.580
351.010, 16593.131
351.493, 16614.529
351.975, 16623.439
352.457, 16629.869
352.939, 16637.240
353.421, 16646.711
353.903, 16663.711
354.385, 16694.010
354.867, 16716.420
355.349, 16705.260
355.832, 16671.330
356.314, 16640.119
356.796, 16621.789
357.278, 16614.289
357.760, 16617.830
358.242, 16633.939
358.724, 16653.240
359.207, 16670.830
359.689, 16687.939
360.171, 16706.340
360.653, 16722.881
361.135, 16743.699
361.617, 16778.900
362.099, 16830.180
362.581, 16863.500
363.063, 16850.000
363.546, 16819.920
364.028, 16802.301
364.510, 16816.289
364.992, 16830.760
365.474, 16831.070
365.956, 16818.920
366.438, 16826.410
366.920, 16885.051
367.402, 16947.949
367.885, 16986.260
368.367, 16973.789
368.849, 16966.020
369.331, 16959.471
369.813, 16958.320
370.295, 16982.340
370.777, 17064.881
371.259, 17136.801
371.741, 17163.801
372.224, 17109.520
372.706, 17086.270
373.188, 17104.730
373.670, 17148.779
374.152, 17184.961
374.634, 17208.641
375.116, 17232.010
375.598, 17260.881
376.081, 17296.221
376.563, 17322.170
377.045, 17333.779
377.527, 17344.090
378.009, 17374.170
378.491, 17425.869
378.973, 17477.551
379.455, 17521.711
379.938, 17560.359
380.420, 17601.100
380.902, 17645.090
381.384, 17689.539
381.866, 17729.500
382.348, 17766.949
382.830, 17814.520
383.312, 17878.660
383.794, 17951.980
384.276, 18017.650
384.759, 18076.779
385.241, 18138.109
385.723, 18200.520
386.205, 18270.311
386.687, 18364.920
387.169, 18497.439
387.651, 18630.461
388.134, 18711.141
388.616, 18755.570
389.098, 18813.920
389.580, 18921.131
390.062, 19050.779
390.544, 19178.539
391.026, 19304.080
391.508, 19426.029
391.990, 19541.080
392.473, 19653.051
392.955, 19769.119
393.437, 19892.320
393.919, 20020.570
394.401, 20154.779
394.883, 20296.230
395.365, 20433.061
395.847, 20561.910
396.329, 20685.311
396.812, 20803.760
397.294, 20916.750
397.776, 21025.631
398.258, 21127.650
398.740, 21223.660
399.222, 21319.160
399.704, 21412.070
400.186, 21505.631
400.668, 21602.600
401.151, 21719.289
401.633, 21811.920
402.115, 21878.340
402.597, 21921.240
403.079, 21946.131
403.561, 21946.869
404.043, 21942.400
404.525, 21942.391
405.008, 21949.820
405.490, 21942.381
405.972, 21924.330
406.454, 21884.090
406.936, 21794.439
407.418, 21648.359
407.900, 21517.141
408.382, 21428.520
408.865, 21369.631
409.347, 21285.020
409.829, 21174.070
410.311, 21049.260
410.793, 20914.971
411.275, 20774.721
411.757, 20649.520
412.239, 20545.891
412.721, 20453.711
413.203, 20366.971
413.686, 20281.930
414.168, 20183.430
414.650, 20042.699
415.132, 19889.789
415.614, 19766.660
416.096, 19683.330
416.578, 19613.631
417.060, 19547.990
417.543, 19480.711
418.025, 19404.391
418.507, 19292.980
418.989, 19188.051
419.471, 19117.730
419.953, 19084.760
420.435, 19052.850
420.917, 19012.080
421.400, 18964.949
421.882, 18914.119
422.364, 18847.090
422.846, 18791.881
423.328, 18759.119
423.810, 18745.561
424.292, 18729.289
424.774, 18719.301
425.256, 18697.580
425.738, 18652.869
426.221, 18553.859
426.703, 18493.080
427.185, 18482.430
427.667, 18504.131
428.149, 18528.090
428.631, 18558.000
429.113, 18581.330
429.595, 18594.350
430.078, 18596.619
430.560, 18585.869
431.042, 18554.750
431.524, 18528.109
432.006, 18537.680
432.488, 18584.580
432.970, 18627.711
433.452, 18658.980
433.935, 18680.350
434.417, 18693.609
434.899, 18699.170
435.381, 18705.211
435.863, 18716.381
436.345, 18732.689
436.827, 18757.000
437.309, 18793.240
437.791, 18825.439
438.274, 18823.539
438.756, 18802.340
439.238, 18798.750
439.720, 18851.150
440.202, 18915.641
440.684, 18947.150
441.166, 18943.090
441.648, 18948.551
442.130, 19004.391
442.613, 19075.520
443.095, 19127.760
443.577, 19129.160
444.059, 19133.070
444.541, 19158.051
445.023, 19199.840
445.505, 19240.570
445.987, 19274.141
446.470, 19307.420
446.952, 19344.471
447.434, 19393.689
447.916, 19431.279
448.398, 19452.141
448.880, 19464.230
449.362, 19478.400
449.844, 19491.631
450.327, 19512.510
450.809, 19544.400
451.291, 19586.641
451.773, 19631.750
452.255, 19681.561
452.737, 19729.381
453.219, 19773.820
453.701, 19815.779
454.183, 19834.529
454.665, 19819.410
455.148, 19790.609
455.630, 19786.670
456.112, 19807.340
456.594, 19844.881
457.076, 19913.180
457.558, 19993.449
458.040, 20036.570
458.522, 20036.660
459.005, 20028.789
459.487, 20042.211
459.969, 20072.029
460.451, 20109.619
460.933, 20166.461
461.415, 20218.250
461.897, 20244.529
462.379, 20247.789
462.862, 20241.391
463.344, 20198.881
463.826, 20169.330
464.308, 20194.270
464.790, 20318.170
465.272, 20425.721
465.754, 20490.240
466.236, 20518.650
466.718, 20522.689
467.201, 20469.439
467.683, 20426.080
468.165, 20407.539
468.647, 20414.279
469.129, 20441.131
469.611, 20501.850
470.093, 20567.279
470.575, 20617.109
471.057, 20654.570
471.540, 20660.109
472.022, 20617.080
472.504, 20549.029
472.986, 20534.051
473.468, 20580.609
473.950, 20619.631
474.432, 20600.199
474.914, 20536.199
475.397, 20517.539
475.879, 20554.590
476.361, 20595.211
476.843, 20573.000
477.325, 20506.029
477.807, 20446.990
478.289, 20409.811
478.771, 20393.369
479.254, 20400.961
479.736, 20430.461
480.218, 20469.359
480.700, 20527.590
481.182, 20582.359
481.664, 20610.580
482.146, 20602.949
482.628, 20583.891
483.110, 20544.930
483.592, 20503.070
484.075, 20484.391
484.557, 20440.148
485.039, 20488.143
485.521, 20513.746
486.003, 20518.164
486.485, 20437.943
486.967, 20467.018
487.449, 20452.291
487.931, 20435.768
488.414, 20480.223
488.896, 20412.312
489.378, 20455.801
489.860, 20454.822
490.342, 20474.193
490.824, 20449.496
491.306, 20438.410
491.789, 20471.408
492.271, 20479.996
492.753, 20450.225
493.235, 20470.891
493.717, 20401.443
494.199, 20411.070
494.681, 20454.816
495.163, 20412.109
495.645, 20399.939
496.128, 20401.881
496.610, 20390.100
497.092, 20372.490
497.574, 20375.279
498.056, 20426.260
498.538, 20493.600
499.020, 20559.170
499.502, 20623.789
499.984, 20668.230
500.467, 20676.020
500.949, 20664.680
501.431, 20651.641
501.913, 20621.391
502.395, 20611.420
502.877, 20646.840
503.359, 20712.430
503.841, 20742.619
504.323, 20704.840
504.806, 20671.141
505.288, 20670.100
505.770, 20705.881
506.252, 20753.971
506.734, 20822.119
507.216, 20888.641
507.698, 20919.830
508.181, 20912.119
508.663, 20920.109
509.145, 20964.119
509.627, 21025.061
510.109, 21056.340
510.591, 21059.510
511.073, 21060.699
511.555, 21079.551
512.037, 21107.770
512.519, 21129.961
513.002, 21144.250
513.484, 21156.551
513.966, 21167.391
514.448, 21180.211
514.930, 21199.949
515.412, 21240.529
515.894, 21276.369
516.376, 21293.529
516.859, 21294.400
517.341, 21291.170
517.823, 21274.930
518.305, 21264.670
518.787, 21272.189
519.269, 21312.020
519.751, 21335.510
520.233, 21331.051
520.716, 21317.600
521.198, 21318.650
521.680, 21342.369
522.162, 21360.660
522.644, 21367.840
523.126, 21366.051
523.608, 21365.660
524.090, 21368.840
524.572, 21361.689
525.055, 21322.859
525.537, 21262.461
526.019, 21238.189
526.501, 21258.010
526.983, 21285.529
527.465, 21288.689
527.947, 21268.580
528.429, 21226.500
528.911, 21145.830
529.394, 21061.680
529.876, 21001.500
530.358, 20963.000
530.840, 20935.131
531.322, 20929.240
531.804, 20920.660
532.286, 20890.500
532.768, 20828.971
533.250, 20777.859
533.733, 20757.160
534.215, 20746.480
534.697, 20725.500
535.179, 20701.881
535.661, 20655.490
536.143, 20573.170
536.625, 20466.289
537.107, 20381.961
537.589, 20317.109
538.072, 20280.221
538.554, 20291.449
539.036, 20349.750
539.518, 20354.461
540.000, 20296.789
540.482, 20227.189
540.964, 20202.699
541.446, 20213.609
541.929, 20229.840
542.411, 20251.000
542.893, 20261.320
543.375, 20228.160
543.857, 20165.480
544.339, 20117.631
544.821, 20131.551
545.303, 20152.029
545.786, 20135.789
546.268, 20077.211
546.750, 20022.910
547.232, 19996.369
547.714, 19977.170
548.196, 19948.949
548.678, 19900.480
549.160, 19855.650
549.643, 19818.600
550.125, 19785.240
550.607, 19745.039
551.089, 19690.311
551.571, 19644.920
552.053, 19619.600
552.535, 19612.590
553.017, 19598.160
553.499, 19576.061
553.982, 19547.211
554.464, 19509.090
554.946, 19463.811
555.428, 19418.920
555.910, 19372.850
556.392, 19336.199
556.874, 19329.350
557.356, 19341.350
557.838, 19346.580
558.321, 19325.029
558.803, 19300.000
559.285, 19289.750
559.767, 19292.311
560.249, 19292.910
560.731, 19283.250
561.213, 19271.609
561.695, 19262.900
562.177, 19259.680
562.660, 19253.680
563.142, 19237.211
563.624, 19221.439
564.106, 19222.020
564.588, 19254.881
565.070, 19263.609
565.552, 19230.020
566.034, 19169.420
566.516, 19131.240
566.999, 19117.020
567.481, 19112.881
567.963, 19112.449
568.445, 19116.119
568.927, 19131.061
569.409, 19158.590
569.891, 19175.400
570.373, 19150.369
570.856, 19102.289
571.338, 19060.590
571.820, 19026.641
572.302, 19011.551
572.784, 19046.369
573.266, 19102.471
573.748, 19124.180
574.230, 19055.789
574.713, 18984.850
575.195, 18942.369
575.677, 18930.529
576.159, 18926.881
576.641, 18941.590
577.123, 18953.189
577.605, 18950.471
578.087, 18931.750
578.570, 18901.270
579.052, 18849.131
579.534, 18801.730
580.016, 18808.859
580.498, 18868.420
580.980, 18903.740
581.462, 18881.900
581.944, 18835.279
582.426, 18831.211
582.909, 18861.180
583.391, 18878.529
583.873, 18828.939
584.355, 18766.529
584.837, 18750.971
585.319, 18788.330
585.801, 18830.820
586.283, 18867.539
586.765, 18891.971
587.248, 18897.990
587.730, 18856.109
588.212, 18833.340
588.694, 18845.520
589.176, 18879.510
589.658, 18916.109
590.140, 18968.270
590.622, 18997.670
591.104, 18989.180
591.587, 18948.109
592.069, 18911.990
592.551, 18880.381
593.033, 18856.000
593.515, 18839.010
593.997, 18830.770
594.479, 18841.811
594.961, 18875.680
595.443, 18908.770
595.926, 18911.631
596.408, 18899.320
596.890, 18898.740
597.372, 18931.789
597.854, 18960.170
598.336, 18954.160
598.818, 18926.369
599.300, 18908.330
599.783, 18908.859
600.265, 18920.039
600.747, 18944.631
601.229, 18983.250
601.711, 19007.449
602.193, 19004.461
602.675, 19003.520
603.157, 19028.631
603.640, 19087.320
604.122, 19120.670
604.604, 19123.551
605.086, 19107.750
605.568, 19080.260
606.050, 19044.750
606.532, 19021.891
607.014, 19016.750
607.497, 19029.160
607.979, 19071.289
608.461, 19133.689
608.943, 19184.881
609.425, 19211.590
609.907, 19219.289
610.389, 19200.600
610.871, 19154.311
611.353, 19130.160
611.836, 19170.311
612.318, 19217.551
612.800, 19232.189
613.282, 19186.330
613.764, 19164.131
614.246, 19171.350
614.728, 19198.000
615.210, 19236.480
615.692, 19291.650
616.175, 19326.920
616.657, 19327.631
617.139, 19310.500
617.621, 19313.221
618.103, 19334.730
618.585, 19365.580
619.067, 19416.480
619.549, 19465.311
620.031, 19473.240
620.514, 19441.061
620.996, 19416.900
621.478, 19427.779
621.960, 19459.539
622.442, 19503.561
622.924, 19568.529
623.406, 19621.301
623.888, 19658.699
624.370, 19679.070
624.853, 19677.150
625.335, 19629.240
625.817, 19609.869
626.299, 19646.680
626.781, 19710.221
627.263, 19700.109
627.745, 19607.090
628.227, 19545.980
628.710, 19600.020
629.192, 19722.141
629.674, 19773.539
630.156, 19757.020
630.638, 19729.010
631.120, 19725.100
631.602, 19735.990
632.084, 19755.801
632.567, 19789.061
633.049, 19807.830
633.531, 19775.520
634.013, 19732.721
634.495, 19723.891
634.977, 19796.480
635.459, 19852.641
635.941, 19876.721
636.424, 19881.520
636.906, 19899.211
637.388, 19936.480
637.870, 19964.410
638.352, 19970.311
638.834, 19959.270
639.316, 19951.189
639.798, 19945.891
640.280, 19951.410
640.763, 19986.311
641.245, 20032.439
641.727, 20048.119
642.209, 20027.590
642.691, 20021.650
643.173, 20087.811
643.655, 20176.529
644.137, 20235.930
644.619, 20245.400
645.102, 20240.660
645.584, 20212.891
646.066, 20180.570
646.548, 20172.820
647.030, 20195.801
647.512, 20232.131
647.994, 20280.311
648.476, 20337.641
648.958, 20399.510
649.441, 20466.119
649.923, 20525.010
650.405, 20563.971
650.887, 20588.881
651.369, 20616.920
651.851, 20647.820
652.333, 20678.100
652.815, 20710.340
653.297, 20738.801
653.780, 20754.180
654.262, 20750.609
654.744, 20753.311
655.226, 20779.020
655.708, 20813.939
656.190, 20842.990
656.672, 20849.641
657.154, 20872.141
657.636, 20920.740
658.119, 20982.551
658.601, 21030.760
659.083, 21062.170
659.565, 21094.100
660.047, 21135.520
660.529, 21179.189
661.011, 21197.061
661.494, 21191.570
661.976, 21191.820
662.458, 21228.971
662.940, 21276.580
663.422, 21290.359
663.904, 21268.010
664.386, 21275.230
664.868, 21379.039
665.350, 21506.600
665.833, 21603.090
666.315, 21649.609
666.797, 21685.471
667.279, 21702.750
667.761, 21717.150
668.243, 21746.641
668.725, 21792.949
669.207, 21844.359
669.690, 21901.420
670.172, 21956.100
670.654, 21982.211
671.136, 21983.949
671.618, 22006.211
672.100, 22097.051
672.582, 22198.119
673.064, 22214.650
673.546, 22165.359
674.029, 22130.660
674.511, 22159.590
674.993, 22212.920
675.475, 22269.420
675.957, 22328.270
676.439, 22392.461
676.921, 22473.631
677.403, 22551.529
677.885, 22616.010
678.368, 22665.650
678.850, 22701.711
679.332, 22716.760
679.814, 22731.750
680.296, 22780.359
680.778, 22855.891
681.260, 22906.189
681.742, 22912.090
682.224, 22906.961
682.707, 22922.070
683.189, 22956.961
683.671, 23011.051
684.153, 23116.109
684.635, 23208.789
685.117, 23259.590
685.599, 23273.330
686.081, 23267.561
686.563, 23204.320
687.046, 23168.230
687.528, 23200.289
688.010, 23298.391
688.492, 23331.189
688.974, 23286.699
689.456, 23220.539
689.938, 23156.650
690.420, 23099.721
690.903, 23081.180
691.385, 23103.881
691.867, 23134.900
692.349, 23156.439
692.831, 23162.289
693.313, 23137.801
693.795, 23062.900
694.277, 23002.561
694.760, 23008.480
695.242, 23036.500
695.724, 23031.689
696.206, 22961.561
696.688, 22891.721
697.170, 22827.400
697.652, 22766.260
698.134, 22702.990
698.617, 22637.789
699.099, 22572.461
699.581, 22504.350
700.063, 22439.789
700.545, 22405.131
701.027, 22393.730
701.509, 22366.561
701.991, 22284.279
702.473, 22186.910
702.956, 22113.750
703.438, 22064.490
703.920, 22009.859
704.402, 21916.250
704.884, 21831.330
705.366, 21791.779
705.848, 21815.061
706.330, 21802.699
706.812, 21735.109
707.295, 21660.471
707.777, 21631.109
708.259, 21648.840
708.741, 21615.850
709.223, 21514.590
709.705, 21400.400
710.187, 21343.760
710.669, 21326.301
711.151, 21309.301
711.634, 21285.801
712.116, 21252.660
712.598, 21194.699
713.080, 21127.721
713.562, 21080.131
714.044, 21082.779
714.526, 21076.461
715.008, 21042.660
715.490, 20991.131
715.973, 20956.770
716.455, 20942.641
716.937, 20933.170
717.419, 20926.439
717.901, 20918.830
718.383, 20896.150
718.865, 20858.609
719.347, 20815.641
719.830, 20764.619
720.312, 20715.900
720.794, 20681.289
721.276, 20661.609
721.758, 20648.760
722.240, 20653.711
722.722, 20653.471
723.204, 20627.900
723.687, 20558.369
724.169, 20519.900
724.651, 20530.279
725.133, 20548.061
725.615, 20534.289
726.097, 20486.381
726.579, 20445.199
727.061, 20413.320
727.544, 20392.330
728.026, 20395.520
728.508, 20409.949
728.990, 20402.100
729.472, 20349.670
729.954, 20299.711
730.436, 20298.010
730.918, 20317.689
731.400, 20314.170
731.883, 20238.250
732.365, 20186.381
732.847, 20193.061
733.329, 20229.600
733.811, 20212.699
734.293, 20123.869
734.775, 20052.631
735.257, 20036.410
735.739, 20053.270
736.222, 20039.381
736.704, 19999.311
737.186, 19966.961
737.668, 19977.641
738.150, 19995.400
738.632, 19980.660
739.114, 19936.080
739.596, 19896.480
740.078, 19878.820
740.561, 19867.311
741.043, 19854.609
741.525, 19840.480
742.007, 19827.789
742.489, 19817.010
742.971, 19806.400
743.453, 19794.449
743.935, 19780.680
744.417, 19764.020
744.900, 19743.510
745.382, 19722.590
745.864, 19707.500
746.346, 19692.369
746.828, 19665.070
747.310, 19616.539
747.792, 19578.801
748.274, 19573.551
748.757, 19584.080
749.239, 19592.891
749.721, 19606.789
750.203, 19607.730
750.685, 19597.170
751.167, 19573.930
751.649, 19529.500
752.131, 19462.961
752.614, 19411.660
753.096, 19387.990
753.578, 19373.789
754.060, 19329.330
754.542, 19271.660
755.024, 19242.779
755.506, 19296.869
755.988, 19348.150
756.471, 19335.480
756.953, 19282.520
757.435, 19256.539
757.917, 19282.199
758.399, 19319.570
758.881, 19374.609
759.363, 19434.650
759.845, 19440.711
760.327, 19388.750
760.810, 19320.141
761.292, 19250.939
761.774, 19181.090
762.256, 19106.490
762.738, 19030.711
763.220, 18972.010
763.702, 18956.020
764.184, 18951.311
764.666, 18932.051
765.148, 18896.131
765.631, 18876.240
766.113, 18889.330
766.595, 18906.500
767.077, 18912.010
767.559, 18902.750
768.041, 18920.350
768.523, 18970.840
769.005, 19016.910
769.487, 19023.301
769.970, 19001.680
770.452, 18985.471
770.934, 18977.551
771.416, 18964.000
771.898, 18924.721
772.380, 18880.900
772.862, 18853.711
773.344, 18854.551
773.827, 18852.240
774.309, 18851.689
774.791, 18839.881
775.273, 18798.279
775.755, 18714.119
776.237, 18672.301
776.719, 18685.561
777.201, 18719.330
777.683, 18732.490
778.166, 18732.221
778.648, 18741.619
779.130, 18771.369
779.612, 18793.020
780.094, 18773.600
780.576, 18736.230
781.058, 18710.850
781.541, 18708.551
782.023, 18712.910
782.505, 18722.330
782.987, 18736.289
783.469, 18755.980
783.951, 18782.990
784.433, 18804.650
784.915, 18818.289
785.397, 18825.830
785.880, 18833.721
786.362, 18839.010
786.844, 18830.760
787.326, 18790.570
787.808, 18754.529
788.290, 18750.619
788.772, 18768.990
789.254, 18788.119
789.737, 18804.641
790.219, 18820.400
790.701, 18838.480
791.183, 18854.631
791.665, 18849.109
792.147, 18816.131
792.629, 18805.980
793.111, 18842.260
793.593, 18904.600
794.076, 18967.510
794.558, 19025.561
795.040, 19057.570
795.522, 19021.180
796.004, 18985.580
796.486, 19001.500
796.968, 19057.830
797.450, 19089.529
797.932, 19075.580
798.415, 19057.699
798.897, 19042.381
799.379, 19033.070
799.861, 19057.529
800.343, 19117.961
800.825, 19163.891
801.307, 19147.400
801.789, 19108.641
802.271, 19119.590
802.754, 19171.430
803.236, 19214.900
803.718, 19208.570
804.200, 19200.449
804.682, 19222.119
805.164, 19274.730
805.646, 19302.109
806.128, 19294.590
806.610, 19278.080
807.093, 19255.580
807.575, 19231.971
808.057, 19253.801
808.539, 19320.240
809.021, 19384.391
809.503, 19413.580
809.985, 19422.900
810.468, 19420.840
810.950, 19409.971
811.432, 19418.801
811.914, 19490.359
812.396, 19555.730
812.878, 19574.500
813.360, 19543.770
813.842, 19523.750
814.324, 19515.670
814.807, 19514.760
815.289, 19516.730
815.771, 19523.070
816.253, 19548.051
816.735, 19590.850
817.217, 19620.471
817.699, 19589.279
818.181, 19552.760
818.664, 19573.400
819.146, 19663.471
819.628, 19718.211
820.110, 19698.680
820.592, 19654.740
821.074, 19589.674
821.556, 19667.873
822.038, 19711.295
822.520, 19721.811
823.003, 19600.854
823.485, 19649.664
823.967, 19630.439
824.449, 19608.426
824.931, 19681.131
825.413, 19579.297
825.895, 19650.500
826.377, 19652.631
826.859, 19686.373
827.342, 19637.520
827.824, 19666.240
828.306, 19632.080
828.788, 19590.430
829.270, 19575.420
829.752, 19586.230
830.234, 19607.990
830.716, 19641.369
831.198, 19660.939
831.681, 19642.590
832.163, 19600.619
832.645, 19540.039
833.127, 19459.609
833.609, 19409.650
834.091, 19446.510
834.573, 19485.930
835.055, 19471.740
835.537, 19390.320
836.020, 19362.000
836.502, 19400.430
836.984, 19442.590
837.466, 19433.490
837.948, 19390.301
838.430, 19368.910
838.912, 19371.189
839.394, 19372.010
839.877, 19345.840
840.359, 19317.490
840.841, 19308.600
841.323, 19325.320
841.805, 19335.789
842.287, 19339.039
842.769, 19334.311
843.251, 19320.480
843.734, 19297.449
844.216, 19263.010
844.698, 19215.859
845.180, 19181.180
845.662, 19188.590
846.144, 19214.770
846.626, 19237.029
847.108, 19253.010
847.591, 19247.730
848.073, 19182.480
848.555, 19123.830
849.037, 19115.461
849.519, 19160.949
850.001, 19171.711
850.483, 19140.340
850.965, 19102.211
851.447, 19082.150
851.930, 19073.570
852.412, 19056.980
852.894, 19032.730
853.376, 19006.141
853.858, 18977.109
854.340, 18950.180
854.822, 18928.820
855.304, 18913.381
855.786, 18899.561
856.269, 18879.289
856.751, 18872.910
857.233, 18899.090
857.715, 18948.689
858.197, 18941.090
858.679, 18878.180
859.161, 18840.561
859.643, 18914.410
860.125, 19017.430
860.608, 19057.551
861.090, 19039.400
861.572, 19009.750
862.054, 18953.789
862.536, 18923.449
863.018, 18949.369
863.500, 19018.891
863.982, 19044.430
864.464, 19019.160
864.947, 18993.381
865.429, 18990.811
865.911, 19001.160
866.393, 18999.740
866.875, 18992.260
867.357, 18999.770
867.839, 19061.641
868.321, 19112.811
868.804, 19117.260
869.286, 19083.471
869.768, 19051.721
870.250, 19016.080
870.732, 18998.980
871.214, 19009.490
871.696, 19040.051
872.178, 19081.061
872.661, 19128.070
873.143, 19159.920
873.625, 19150.631
874.107, 19142.119
874.589, 19165.520
875.071, 19212.580
875.553, 19266.301
876.035, 19342.439
876.518, 19395.750
877.000, 19414.119
877.482, 19412.141
877.964, 19412.240
878.446, 19414.949
878.928, 19437.910
879.410, 19490.760
879.892, 19552.529
880.374, 19605.859
880.857, 19650.240
881.339, 19683.830
881.821, 19685.590
882.303, 19707.289
882.785, 19773.080
883.267, 19855.619
883.749, 19928.369
884.231, 19994.320
884.713, 20029.539
885.196, 20027.250
885.678, 20010.789
886.160, 20009.939
886.642, 20014.660
887.124, 20001.529
887.606, 19956.920
888.088, 19930.119
888.570, 19962.170
889.052, 20008.580
889.534, 20028.900
890.017, 20008.119
890.499, 20011.000
890.981, 20041.580
891.463, 20084.199
891.945, 20133.711
892.427, 20182.539
892.909, 20203.221
893.391, 20192.770
893.874, 20188.410
894.356, 20222.820
894.838, 20264.279
895.320, 20293.590
895.802, 20308.670
896.284, 20302.010
896.766, 20263.369
897.248, 20224.551
897.731, 20204.461
898.213, 20199.449
898.695, 20193.279
899.177, 20185.980
899.659, 20172.449
900.141, 20138.109
900.623, 20107.250
901.105, 20104.391
901.588, 20126.270
902.070, 20136.490
902.552, 20116.660
903.034, 20111.510
903.516, 20143.920
903.998, 20194.930
904.480, 20193.070
904.962, 20144.051
905.444, 20107.910
905.927, 20125.461
906.409, 20150.551
906.891, 20134.961
907.373, 20095.250
907.855, 20067.641
908.337, 20061.471
908.819, 20070.170
909.301, 20100.160
909.783, 20138.301
910.266, 20159.289
910.748, 20163.939
911.230, 20164.170
911.712, 20158.119
912.194, 20163.070
912.676, 20216.211
913.158, 20285.580
913.640, 20322.850
914.122, 20294.051
914.605, 20277.850
915.087, 20302.400
915.569, 20328.221
916.051, 20313.770
916.533, 20255.230
917.015, 20230.230
917.497, 20245.490
917.979, 20274.990
918.461, 20305.660
918.944, 20331.141
919.426, 20337.660
919.908, 20321.779
920.390, 20319.080
920.872, 20360.619
921.354, 20397.340
921.836, 20396.670
922.318, 20360.551
922.801, 20386.480
923.283, 20479.600
923.765, 20558.510
924.247, 20562.160
924.729, 20527.539
925.211, 20493.900
925.693, 20464.699
926.175, 20451.400
926.657, 20486.311
927.140, 20505.131
927.622, 20477.010
928.104, 20422.029
928.586, 20402.859
929.068, 20422.930
929.550, 20432.580
930.032, 20385.891
930.515, 20379.160
930.997, 20353.586
931.479, 20348.537
931.961, 20338.506
932.443, 20323.760
932.925, 20290.174
933.407, 20280.580
933.889, 20209.369
934.371, 20156.840
934.854, 20124.211
935.336, 20092.699
935.818, 20058.330
936.300, 20034.840
936.782, 20049.080
937.264, 20077.850
937.746, 20087.801
938.228, 20071.631
938.710, 20050.230
939.193, 20022.619
939.675, 19998.221
940.157, 19978.500
940.639, 19962.760
941.121, 19985.730
941.603, 20050.949
942.085, 20103.779
942.567, 20106.039
943.049, 20074.230
943.532, 20016.689
944.014, 19941.070
944.496, 19883.490
944.978, 19856.141
945.460, 19852.320
945.942, 19881.660
946.424, 19928.150
946.906, 19931.600
947.388, 19889.840
947.871, 19875.801
948.353, 19921.881
948.835, 19985.580
949.317, 20026.359
949.799, 20045.350
950.281, 20043.820
950.763, 20001.250
951.245, 19968.930
951.728, 19957.000
952.210, 19952.830
952.692, 19940.699
953.174, 19920.260
953.656, 19914.789
954.138, 19926.311
954.620, 19949.189
955.102, 19999.949
955.584, 20046.020
956.067, 20039.570
956.549, 19967.631
957.031, 19932.699
957.513, 19982.260
957.995, 20029.230
958.477, 20030.100
958.959, 19994.840
959.442, 19995.430
959.924, 20028.570
960.406, 20048.859
960.888, 20025.490
961.370, 19981.660
961.852, 19921.529
962.334, 19856.250
962.816, 19820.971
963.298, 19839.199
963.781, 19856.141
964.263, 19857.539
964.745, 19862.320
965.227, 19916.990
965.709, 20009.930
966.191, 20076.340
966.673, 20103.410
967.155, 20100.131
967.638, 20043.570
968.120, 19977.869
968.602, 19950.570
969.084, 19984.680
969.566, 20004.289
970.048, 19998.730
970.530, 20003.881
971.012, 20057.279
971.494, 20142.910
971.977, 20203.131
972.459, 20239.539
972.941, 20277.369
973.423, 20318.439
973.905, 20378.029
974.387, 20471.900
974.869, 20593.631
975.351, 20711.510
975.833, 20819.711
976.316, 20943.949
976.798, 21095.449
977.280, 21263.811
977.762, 21430.230
978.244, 21597.230
978.726, 21771.689
979.208, 21951.330
979.690, 22143.061
980.172, 22348.510
980.655, 22568.061
981.137, 22802.500
981.619, 23052.420
982.101, 23297.211
982.583, 23534.189
983.065, 23781.020
983.547, 24058.260
984.029, 24353.221
984.511, 24651.119
984.994, 24950.840
985.476, 25253.211
985.958, 25541.539
986.440, 25856.920
986.922, 26241.350
987.404, 26660.439
987.886, 26938.600
988.369, 27084.119
988.851, 27211.119
989.333, 27387.439
989.815, 27543.770
990.297, 27654.529
990.779, 27693.051
991.261, 27609.971
991.743, 27360.869
992.225, 27037.090
992.708, 26629.449
993.190, 26176.590
993.672, 25710.980
994.154, 25234.109
994.636, 24734.510
995.118, 24205.750
995.600, 23733.270
996.082, 23423.631
996.565, 23148.381
997.047, 22804.801
997.529, 22389.980
998.011, 22063.330
998.493, 21838.740
998.975, 21654.990
999.457, 21478.840
999.939, 21331.789
1000.421, 21276.039
1000.904, 21278.141
1001.386, 21247.480
1001.868, 21119.840
1002.350, 20987.529
1002.832, 20880.590
1003.314, 20776.711
1003.796, 20642.689
1004.278, 20476.980
1004.760, 20323.990
1005.243, 20188.730
1005.725, 20075.770
1006.207, 19993.961
1006.689, 19936.160
1007.171, 19905.080
1007.653, 19903.730
1008.135, 19881.160
1008.617, 19817.400
1009.099, 19754.990
1009.582, 19695.510
1010.064, 19657.740
1010.546, 19607.863
1011.028, 19634.127
1011.510, 19641.906
1011.992, 19632.197
1012.474, 19552.619
1012.956, 19562.039
1013.438, 19494.471
1013.921, 19434.189
1014.403, 19372.580
1014.885, 19343.580
1015.367, 19357.551
1015.849, 19375.600
1016.331, 19347.109
1016.813, 19295.480
1017.295, 19264.279
1017.778, 19259.051
1018.260, 19254.221
1018.742, 19239.039
1019.224, 19223.811
1019.706, 19218.260
1020.188, 19217.211
1020.670, 19181.080
1021.152, 19111.320
1021.634, 19053.119
1022.117, 19039.631
1022.599, 19027.500
1023.081, 18945.279
1023.563, 18844.211
1024.045, 18813.561
1024.527, 18934.520
1025.009, 19017.500
1025.491, 19057.119
1025.974, 19056.520
1026.456, 18986.891
1026.938, 18882.500
1027.420, 18866.061
1027.902, 18943.080
1028.384, 18995.520
1028.866, 18914.760
1029.348, 18830.580
1029.830, 18827.609
1030.313, 18885.650
1030.795, 18905.410
1031.277, 18884.381
1031.759, 18854.539
1032.241, 18824.830
1032.723, 18795.490
1033.205, 18763.020
1033.687, 18733.029
1034.170, 18715.061
1034.652, 18718.961
1035.134, 18721.570
1035.616, 18720.211
1036.098, 18717.199
1036.580, 18709.131
1037.062, 18699.070
1037.544, 18719.631
1038.026, 18767.070
1038.509, 18791.150
1038.991, 18729.680
1039.473, 18662.619
1039.955, 18650.051
1040.437, 18673.801
1040.919, 18652.801
1041.401, 18571.699
1041.883, 18527.279
1042.365, 18551.250
1042.848, 18595.029
1043.330, 18592.061
1043.812, 18565.250
1044.294, 18549.090
1044.776, 18553.230
1045.258, 18564.410
1045.740, 18600.480
1046.222, 18616.170
1046.705, 18572.010
1047.187, 18480.020
1047.669, 18435.381
1048.151, 18434.051
1048.633, 18441.939
1049.115, 18435.930
1049.597, 18436.820
1050.079, 18467.369
1050.562, 18511.961
1051.044, 18533.830
1051.526, 18525.270
1052.008, 18521.949
1052.490, 18528.080
1052.972, 18539.650
1053.454, 18563.721
1053.936, 18584.410
1054.418, 18569.760
1054.901, 18512.600
1055.383, 18472.289
1055.865, 18468.070
1056.347, 18479.910
1056.829, 18507.381
1057.311, 18542.711
1057.793, 18555.939
1058.275, 18550.070
1058.757, 18542.811
1059.240, 18547.391
1059.722, 18543.039
1060.204, 18508.600
1060.686, 18463.340
1061.168, 18430.391
1061.650, 18412.369
1062.132, 18404.039
1062.614, 18408.199
1063.097, 18407.100
1063.579, 18371.600
1064.061, 18330.760
1064.543, 18340.029
1065.025, 18387.770
1065.507, 18393.930
1065.989, 18267.680
1066.471, 18198.270
1066.953, 18243.461
1067.436, 18337.590
1067.918, 18355.051
1068.400, 18314.020
1068.882, 18288.070
1069.364, 18297.070
1069.846, 18300.080
1070.328, 18242.369
1070.810, 18195.430
1071.292, 18220.961
1071.775, 18319.020
1072.257, 18374.660
1072.739, 18386.480
1073.221, 18377.180
1073.703, 18347.881
1074.185, 18314.279
1074.667, 18286.480
1075.149, 18268.141
1075.631, 18266.740
1076.114, 18299.090
1076.596, 18324.680
1077.078, 18344.881
1077.560, 18353.711
1078.042, 18339.881
1078.524, 18311.730
1079.006, 18291.650
1079.488, 18280.100
1079.971, 18260.760
1080.453, 18206.260
1080.935, 18165.859
1081.417, 18162.619
1081.899, 18183.910
1082.381, 18198.391
1082.863, 18205.891
1083.345, 18201.910
1083.828, 18178.529
1084.310, 18166.990
1084.792, 18205.939
1085.274, 18261.381
1085.756, 18305.029
1086.238, 18338.311
1086.720, 18319.961
1087.202, 18235.150
1087.684, 18169.010
1088.167, 18183.539
1088.649, 18233.449
1089.131, 18258.730
1089.613, 18260.020
1090.095, 18237.930
1090.577, 18144.750
1091.059, 18102.340
1091.541, 18139.311
1092.023, 18200.811
1092.506, 18228.961
1092.988, 18231.109
1093.470, 18233.711
1093.952, 18238.750
1094.434, 18249.609
1094.916, 18286.141
1095.398, 18308.820
1095.880, 18284.869
1096.363, 18236.301
1096.845, 18218.619
1097.327, 18231.789
1097.809, 18193.807
1098.291, 18239.082
1098.773, 18264.148
1099.255, 18270.090
1099.737, 18199.629
1100.219, 18227.826
1100.702, 18216.484
1101.184, 18203.523
1101.666, 18245.605
1102.148, 18186.258
1102.630, 18222.070
1103.112, 18277.439
1103.594, 18291.410
1104.076, 18275.650
1104.558, 18254.660
1105.041, 18217.891
1105.523, 18205.369
1106.005, 18232.949
1106.487, 18262.961
1106.969, 18254.869
1107.451, 18218.869
1107.933, 18195.029
1108.415, 18184.830
1108.898, 18189.391
1109.380, 18240.311
1109.862, 18271.490
1110.344, 18244.980
1110.826, 18186.400
1111.308, 18140.490
1111.790, 18106.910
1112.272, 18085.000
1112.755, 18074.160
1113.237, 18079.250
1113.719, 18123.420
1114.201, 18170.801
1114.683, 18186.961
1115.165, 18170.801
1115.647, 18161.900
1116.129, 18161.961
1116.611, 18156.609
1117.094, 18136.961
1117.576, 18115.381
1118.058, 18113.789
1118.540, 18119.740
1119.022, 18112.400
1119.504, 18073.211
1119.986, 18058.199
1120.468, 18077.760
1120.950, 18102.750
1121.433, 18120.400
1121.915, 18127.119
1122.397, 18094.711
1122.879, 18039.689
1123.361, 18018.740
1123.843, 18100.199
1124.325, 18159.039
1124.807, 18164.301
1125.290, 18144.539
1125.772, 18124.920
1126.254, 18108.160
1126.736, 18116.230
1127.218, 18149.461
1127.700, 18180.619
1128.182, 18188.250
1128.664, 18191.711
1129.146, 18198.330
1129.629, 18208.369
1130.111, 18228.170
1130.593, 18257.580
1131.075, 18266.680
1131.557, 18246.381
1132.039, 18218.270
1132.521, 18192.189
1133.003, 18174.801
1133.485, 18177.971
1133.968, 18202.750
1134.450, 18211.711
1134.932, 18203.971
1135.414, 18188.449
1135.896, 18164.270
1136.378, 18142.641
1136.860, 18144.881
1137.342, 18158.061
1137.825, 18161.301
1138.307, 18137.381
1138.789, 18135.471
1139.271, 18162.529
1139.753, 18192.230
1140.235, 18205.641
1140.717, 18208.570
1141.199, 18209.699
1141.682, 18211.350
1142.164, 18221.650
1142.646, 18269.330
1143.128, 18286.920
1143.610, 18260.830
1144.092, 18212.189
1144.574, 18150.320
1145.056, 18086.650
1145.538, 18071.391
1146.021, 18102.301
1146.503, 18117.051
1146.985, 18052.580
1147.467, 18006.180
1147.949, 18014.180
1148.431, 18058.910
1148.913, 18120.859
1149.395, 18193.420
1149.877, 18226.199
1150.360, 18207.660
1150.842, 18175.580
1151.324, 18133.650
1151.806, 18106.090
1152.288, 18109.490
1152.770, 18139.350
1153.252, 18189.990
1153.734, 18260.359
1154.217, 18297.160
1154.699, 18274.609
1155.181, 18241.430
1155.663, 18236.119
1156.145, 18245.039
1156.627, 18258.900
1157.109, 18278.971
1157.591, 18271.391
1158.073, 18231.561
1158.556, 18214.750
1159.038, 18274.430
1159.520, 18338.680
1160.002, 18310.369
1160.484, 18238.180
1160.966, 18203.820
1161.448, 18235.490
1161.930, 18262.090
1162.412, 18285.420
1162.895, 18295.340
1163.377, 18268.500
1163.859, 18234.461
1164.341, 18248.211
1164.823, 18291.080
1165.305, 18302.430
1165.787, 18239.199
1166.269, 18201.230
1166.752, 18202.539
1167.234, 18212.971
1167.716, 18185.230
1168.198, 18150.850
1168.680, 18185.100
1169.162, 18280.801
1169.644, 18336.020
1170.126, 18273.150
1170.609, 18235.369
1171.091, 18255.551
1171.573, 18298.189
1172.055, 18302.461
1172.537, 18285.900
1173.019, 18294.461
1173.501, 18335.400
1173.983, 18374.000
1174.465, 18406.010
1174.948, 18420.580
1175.430, 18408.330
1175.912, 18382.119
1176.394, 18371.561
1176.876, 18374.480
1177.358, 18384.270
1177.840, 18401.760
1178.322, 18416.711
1178.804, 18428.119
1179.287, 18431.830
1179.769, 18420.410
1180.251, 18400.840
1180.733, 18407.570
1181.215, 18436.311
1181.697, 18469.270
1182.179, 18513.820
1182.661, 18531.770
1183.144, 18468.430
1183.626, 18402.100
1184.108, 18398.850
1184.590, 18452.670
1185.072, 18462.660
1185.554, 18434.881
1186.036, 18417.900
1186.518, 18448.311
1187.000, 18483.359
1187.483, 18514.730
1187.965, 18530.580
1188.447, 18510.961
1188.929, 18455.000
1189.411, 18424.900
1189.893, 18421.721
1190.375, 18430.510
1190.857, 18454.570
1191.339, 18474.561
1191.822, 18478.010
1192.304, 18469.551
1192.786, 18452.779
1193.268, 18426.391
1193.750, 18420.910
1194.232, 18439.230
1194.714, 18457.721
1195.196, 18446.891
1195.678, 18439.811
1196.161, 18471.520
1196.643, 18522.480
1197.125, 18541.740
1197.607, 18528.270
1198.089, 18486.539
1198.571, 18410.539
1199.053, 18362.500
1199.535, 18434.350
1200.018, 18520.869
1200.500, 18526.660
1200.982, 18468.270
1201.464, 18444.330
1201.946, 18456.740
1202.428, 18475.119
1202.910, 18492.600
1203.392, 18511.170
1203.875, 18544.740
1204.357, 18570.990
1204.839, 18555.961
1205.321, 18504.961
1205.803, 18506.680
1206.285, 18566.020
1206.767, 18612.609
1207.249, 18621.891
1207.731, 18614.131
1208.214, 18594.891
1208.696, 18577.961
1209.178, 18581.699
1209.660, 18607.180
1210.142, 18603.211
1210.624, 18560.090
1211.106, 18522.510
1211.588, 18581.992
1212.070, 18617.912
1212.553, 18631.551
1213.035, 18556.109
1213.517, 18595.680
1213.999, 18599.789
1214.481, 18597.039
1214.963, 18626.699
1215.445, 18646.529
1215.927, 18620.320
1216.410, 18589.490
1216.892, 18595.000
1217.374, 18619.711
1217.856, 18637.650
1218.338, 18645.910
1218.820, 18657.961
1219.302, 18674.619
1219.784, 18686.301
1220.266, 18690.949
1220.749, 18683.811
1221.231, 18655.660
1221.713, 18614.400
1222.195, 18567.869
1222.677, 18502.301
1223.159, 18518.131
1223.641, 18623.930
1224.123, 18717.029
1224.605, 18697.490
1225.088, 18653.650
1225.570, 18646.000
1226.052, 18670.279
1226.534, 18719.340
1227.016, 18807.141
1227.498, 18799.820
1227.980, 18680.580
1228.462, 18585.561
1228.945, 18653.000
1229.427, 18756.689
1229.909, 18810.369
1230.391, 18821.510
1230.873, 18817.820
1231.355, 18797.070
1231.837, 18795.881
1232.319, 18820.211
1232.802, 18835.539
1233.284, 18786.990
1233.766, 18744.250
1234.248, 18775.830
1234.730, 18849.650
1235.212, 18875.400
1235.694, 18851.740
1236.176, 18825.369
1236.658, 18800.529
1237.141, 18804.400
1237.623, 18904.090
1238.105, 18996.330
1238.587, 18991.641
1239.069, 18927.301
1239.551, 18904.471
1240.033, 18920.660
1240.515, 18916.391
1240.997, 18877.529
1241.480, 18846.061
1241.962, 18857.949
1242.444, 18882.461
1242.926, 18908.051
1243.408, 18928.539
1243.890, 18909.250
1244.372, 18859.590
1244.854, 18861.920
1245.337, 18944.000
1245.819, 19018.359
1246.301, 19025.590
1246.783, 19012.779
1247.265, 19002.510
1247.747, 18994.850
1248.229, 18991.520
1248.711, 18991.900
1249.193, 18995.240
1249.676, 19002.900
1250.158, 19006.881
1250.640, 19003.721
1251.122, 18996.070
1251.604, 18982.859
1252.086, 18968.939
1252.568, 18973.400
1253.050, 18990.520
1253.532, 18999.359
1254.015, 18992.471
1254.497, 18985.750
1254.979, 18988.840
1255.461, 18985.641
1255.943, 18962.830
1256.425, 18932.279
1256.907, 18925.039
1257.389, 18937.680
1257.872, 18966.641
1258.354, 19021.609
1258.836, 19054.750
1259.318, 19053.131
1259.800, 19040.131
1260.282, 19019.760
1260.764, 19003.869
1261.246, 19035.891
1261.729, 19088.279
1262.211, 19103.699
1262.693, 19052.199
1263.175, 19008.779
1263.657, 18977.090
1264.139, 18960.631
1264.621, 18972.680
1265.103, 18988.619
1265.585, 18945.480
1266.068, 18886.160
1266.550, 18891.359
1267.032, 19021.770
1267.514, 19067.920
1267.996, 19009.631
1268.478, 18966.391
1268.960, 19018.939
1269.442, 19098.279
1269.924, 19118.789
1270.407, 19112.109
1270.889, 19132.311
1271.371, 19193.400
1271.853, 19216.051
1272.335, 19197.189
1272.817, 19180.131
1273.299, 19193.551
1273.781, 19212.430
1274.264, 19215.141
1274.746, 19211.430
1275.228, 19214.119
1275.710, 19224.240
1276.192, 19246.990
1276.674, 19280.631
1277.156, 19282.600
1277.638, 19193.480
1278.120, 19116.631
1278.603, 19136.180
1279.085, 19179.881
1279.567, 19170.439
1280.049, 19113.430
1280.531, 19111.330
1281.013, 19157.510
1281.495, 19212.070
1281.977, 19281.840
1282.459, 19316.039
1282.942, 19272.859
1283.424, 19218.840
1283.906, 19204.551
1284.388, 19222.760
1284.870, 19252.900
1285.352, 19288.311
1285.834, 19305.840
1286.316, 19277.260
1286.799, 19257.631
1287.281, 19255.980
##END=



