##NAMES=Mullite
##RRUFFID=R150147
##IDEAL CHEMISTRY=Al_4+2x_Si_2-2x_O_10-x_ (x &#8776; 0.4)
##LOCALITY=Northwest of Ormsaig, Ross of Mull, Scotland
##OWNER=Nicolas Bost
##SOURCE=Nicolas Bost, Portion of a sample from the Musée de Minéralogie MINES Paristech, Paris, France, #
##DESCRIPTION=Pink grains. Sample used in Bost et al (2016)
##STATUS=The identification of this mineral is confirmed by NMR
##URL=rruff.info/R150147
168.754, 0.00507
170.509, 0.01153
172.264, 0.0217
174.019, 0.03269
175.774, 0.03531
177.527, 0.0408
179.281, 0.04987
181.034, 0.0587
182.787, 0.06346
184.54, 0.06957
186.292, 0.06542
188.044, 0.07256
189.796, 0.06398
191.547, 0.05953
193.298, 0.06137
195.049, 0.05205
196.799, 0.05072
198.549, 0.04937
200.298, 0.04871
202.047, 0.04645
203.796, 0.04804
205.545, 0.04236
207.293, 0.04198
209.041, 0.04475
210.788, 0.04485
212.536, 0.04605
214.282, 0.03727
216.029, 0.04347
217.775, 0.0376
219.521, 0.03249
221.266, 0.02851
223.011, 0.01994
224.756, 0.01575
226.501, 0.01431
228.245, 0.0119
229.989, 0.00498
231.732, 0.0034
233.475, 0.00093914
235.218, -0.00891
236.96, -0.01001
238.702, -0.0092
240.444, -0.01592
242.185, -0.01728
243.926, -0.01055
245.667, -0.01532
247.408, -0.01863
249.148, -0.0115
250.887, -0.0174
252.627, -0.00914
254.366, -0.0068
256.104, -0.00914
257.843, 0.000748491
259.581, -0.000594896
261.318, 0.00282
263.056, 0.0108
264.793, 0.01537
266.529, 0.02003
268.266, 0.0196
270.002, 0.02961
271.737, 0.03075
273.473, 0.03748
275.208, 0.04117
276.942, 0.0515
278.677, 0.05431
280.411, 0.06345
282.144, 0.06834
283.877, 0.08077
285.61, 0.08872
287.343, 0.10362
289.075, 0.1086
290.807, 0.12024
292.539, 0.14025
294.27, 0.15531
296.001, 0.16915
297.732, 0.18658
299.462, 0.20034
301.192, 0.20065
302.922, 0.20816
304.651, 0.21822
306.38, 0.21686
308.108, 0.2055
309.837, 0.19252
311.564, 0.18649
313.292, 0.18679
315.019, 0.18169
316.746, 0.1785
318.473, 0.16508
320.199, 0.15807
321.925, 0.15349
323.651, 0.16036
325.376, 0.16057
327.101, 0.14822
328.825, 0.14183
330.55, 0.15339
332.273, 0.13864
333.997, 0.14223
335.72, 0.13368
337.443, 0.13073
339.166, 0.12219
340.888, 0.11589
342.61, 0.12059
344.331, 0.10521
346.053, 0.08788
347.774, 0.09691
349.494, 0.08307
351.214, 0.08008
352.934, 0.07706
354.654, 0.0671
356.373, 0.06169
358.092, 0.05829
359.811, 0.05022
361.529, 0.04405
363.247, 0.03996
364.964, 0.04578
366.682, 0.0468
368.399, 0.04342
370.115, 0.04323
371.831, 0.04343
373.547, 0.05233
375.263, 0.03771
376.978, 0.05067
378.693, 0.0453
380.408, 0.04845
382.122, 0.05622
383.836, 0.04762
385.55, 0.04471
387.263, 0.04486
388.976, 0.04347
390.688, 0.04453
392.401, 0.04035
394.113, 0.0508
395.824, 0.05773
397.535, 0.06991
399.246, 0.0708
400.957, 0.0828
402.667, 0.10138
404.377, 0.11257
406.087, 0.12276
407.796, 0.14353
409.505, 0.15265
411.214, 0.16465
412.922, 0.18368
414.63, 0.1956
416.338, 0.20502
418.045, 0.20274
419.752, 0.20578
421.459, 0.20489
423.165, 0.20024
424.871, 0.19742
426.577, 0.19455
428.282, 0.1943
429.987, 0.20179
431.692, 0.19409
433.396, 0.18251
435.1, 0.18389
436.804, 0.19153
438.508, 0.1808
440.211, 0.17786
441.913, 0.18291
443.616, 0.18519
445.318, 0.17472
447.02, 0.18377
448.721, 0.18823
450.422, 0.18476
452.123, 0.19221
453.823, 0.18102
455.523, 0.1798
457.223, 0.17991
458.923, 0.18168
460.622, 0.18252
462.321, 0.18952
464.019, 0.18573
465.717, 0.18885
467.415, 0.19107
469.112, 0.19757
470.81, 0.20357
472.506, 0.20324
474.203, 0.20792
475.899, 0.21351
477.595, 0.20346
479.291, 0.21477
480.986, 0.21636
482.681, 0.2158
484.375, 0.22344
486.069, 0.22117
487.763, 0.22225
489.457, 0.22207
491.15, 0.22008
492.843, 0.23428
494.536, 0.23064
496.228, 0.22515
497.92, 0.24149
499.612, 0.24202
501.303, 0.24374
502.994, 0.25095
504.684, 0.25568
506.375, 0.25848
508.065, 0.2668
509.754, 0.27466
511.444, 0.28756
513.133, 0.28087
514.822, 0.29375
516.51, 0.29815
518.198, 0.29481
519.886, 0.30552
521.573, 0.30926
523.26, 0.31148
524.947, 0.31752
526.633, 0.31925
528.32, 0.31861
530.005, 0.32839
531.691, 0.32958
533.376, 0.31462
535.061, 0.32285
536.745, 0.31533
538.429, 0.31494
540.113, 0.32479
541.797, 0.30698
543.48, 0.31138
545.163, 0.31016
546.845, 0.32056
548.528, 0.30639
550.21, 0.29565
551.891, 0.29811
553.573, 0.29848
555.253, 0.29077
556.934, 0.29085
558.614, 0.29926
560.294, 0.2905
561.974, 0.30302
563.653, 0.30522
565.332, 0.32162
567.011, 0.32945
568.689, 0.32901
570.368, 0.34278
572.045, 0.3692
573.723, 0.37039
575.4, 0.40113
577.077, 0.41863
578.753, 0.43015
580.429, 0.4519
582.105, 0.47547
583.78, 0.50928
585.456, 0.54842
587.13, 0.5604
588.805, 0.58133
590.479, 0.61622
592.153, 0.62685
593.827, 0.64084
595.5, 0.64962
597.173, 0.6482
598.845, 0.64761
600.518, 0.63661
602.19, 0.61732
603.861, 0.59931
605.533, 0.58483
607.204, 0.56569
608.874, 0.53661
610.545, 0.50181
612.215, 0.49206
613.884, 0.44531
615.554, 0.42117
617.223, 0.38668
618.892, 0.35237
620.56, 0.32937
622.228, 0.3059
623.896, 0.27402
625.564, 0.25278
627.231, 0.22643
628.898, 0.20301
630.564, 0.18361
632.23, 0.16745
633.896, 0.14458
635.562, 0.13007
637.227, 0.11232
638.892, 0.09691
640.557, 0.08028
642.221, 0.06315
643.885, 0.05296
645.549, 0.04324
647.212, 0.04546
648.875, 0.02803
650.538, 0.02503
652.2, 0.03098
653.862, 0.02719
655.524, 0.02202
657.186, 0.01738
658.847, 0.02185
660.508, 0.0258
662.168, 0.02131
663.828, 0.03329
665.488, 0.0284
667.148, 0.02551
668.807, 0.03075
670.466, 0.02743
672.125, 0.02627
673.783, 0.02286
675.441, 0.02041
677.099, 0.02215
678.756, 0.01809
680.413, 0.01765
682.07, 0.01475
683.726, 0.00949
685.382, 0.00873
687.038, 0.00222
688.693, 0.00309
690.349, 0.00829
692.003, 0.00472
693.658, 0.01086
695.312, 0.01302
696.966, 0.01055
698.62, 0.02753
700.273, 0.02544
701.926, 0.02935
703.578, 0.03813
705.231, 0.04462
706.883, 0.05208
708.534, 0.06681
710.186, 0.04978
711.837, 0.06063
713.488, 0.06365
715.138, 0.0637
716.788, 0.06392
718.438, 0.06739
720.087, 0.06816
721.737, 0.07674
723.385, 0.07498
725.034, 0.07432
726.682, 0.07017
728.33, 0.06574
729.978, 0.06644
731.625, 0.06917
733.272, 0.07469
734.919, 0.07663
736.565, 0.06684
738.211, 0.07207
739.857, 0.06165
741.502, 0.06086
743.147, 0.05115
744.792, 0.05653
746.437, 0.0517
748.081, 0.04768
749.725, 0.03499
751.368, 0.02247
753.011, 0.01557
754.654, -0.00271
756.297, -0.00555
757.939, -0.02016
759.581, -0.02252
761.223, -0.04112
762.864, -0.03587
764.505, -0.04936
766.146, -0.04927
767.786, -0.05726
769.426, -0.0535
771.066, -0.05152
772.706, -0.05806
774.345, -0.05822
775.984, -0.04783
777.622, -0.0466
779.261, -0.04755
780.899, -0.04046
782.536, -0.03851
784.174, -0.02351
785.811, -0.01829
787.447, -0.01404
789.084, -0.01065
790.72, -0.0000623853
792.355, 0.00852
793.991, 0.01589
795.626, 0.02543
797.261, 0.02676
798.895, 0.03984
800.53, 0.04556
802.164, 0.05438
803.797, 0.06696
805.43, 0.07836
807.063, 0.08747
808.696, 0.09343
810.329, 0.09693
811.961, 0.10563
813.592, 0.11906
815.224, 0.11653
816.855, 0.13301
818.486, 0.13155
820.116, 0.1289
821.746, 0.14858
823.376, 0.15409
825.006, 0.1602
826.635, 0.17505
828.264, 0.17303
829.893, 0.17414
831.521, 0.17872
833.149, 0.18687
834.777, 0.19969
836.404, 0.20027
838.032, 0.22058
839.658, 0.22259
841.285, 0.23087
842.911, 0.23002
844.537, 0.24498
846.163, 0.24519
847.788, 0.25533
849.413, 0.26726
851.037, 0.27908
852.662, 0.28314
854.286, 0.28737
855.91, 0.30765
857.533, 0.30453
859.156, 0.31252
860.779, 0.3108
862.401, 0.31995
864.024, 0.31546
865.646, 0.32031
867.267, 0.31631
868.889, 0.30395
870.509, 0.30239
872.13, 0.29476
873.751, 0.28237
875.371, 0.27395
876.99, 0.28103
878.61, 0.26331
880.229, 0.2553
881.848, 0.23839
883.466, 0.2462
885.085, 0.23844
886.703, 0.232
888.32, 0.23537
889.938, 0.23122
891.555, 0.22533
893.171, 0.22827
894.788, 0.21732
896.404, 0.20902
898.02, 0.2118
899.635, 0.21832
901.25, 0.2116
902.865, 0.22428
904.48, 0.2268
906.094, 0.23656
907.708, 0.23459
909.322, 0.24324
910.935, 0.24325
912.548, 0.25488
914.161, 0.26167
915.773, 0.27064
917.385, 0.27622
918.997, 0.29098
920.609, 0.30148
922.22, 0.31223
923.831, 0.33714
925.442, 0.35341
927.052, 0.37362
928.662, 0.39566
930.272, 0.4122
931.881, 0.43433
933.49, 0.45862
935.099, 0.48971
936.708, 0.51885
938.316, 0.54576
939.924, 0.57148
941.531, 0.6118
943.139, 0.66114
944.746, 0.70822
946.352, 0.74795
947.959, 0.80418
949.565, 0.85386
951.171, 0.90248
952.776, 0.94298
954.381, 0.97849
955.986, 0.99488
957.591, 0.99908
959.195, 1
960.799, 0.98672
962.403, 0.95944
964.006, 0.93899
965.609, 0.90161
967.212, 0.86884
968.814, 0.82656
970.417, 0.80374
972.018, 0.76695
973.62, 0.74167
975.221, 0.72075
976.822, 0.68494
978.423, 0.65582
980.023, 0.65545
981.623, 0.61249
983.223, 0.58804
984.823, 0.57173
986.422, 0.55157
988.021, 0.53126
989.619, 0.51712
991.217, 0.49257
992.815, 0.47188
994.413, 0.44756
996.01, 0.43057
997.608, 0.41214
999.204, 0.40253
1000.8, 0.39489
1002.4, 0.37379
1003.99, 0.36242
1005.59, 0.34373
1007.18, 0.32942
1008.78, 0.31228
1010.37, 0.31599
1011.97, 0.29332
1013.56, 0.28253
1015.16, 0.27505
1016.75, 0.25846
1018.34, 0.23989
1019.94, 0.23988
1021.53, 0.22487
1023.12, 0.22323
1024.71, 0.20943
1026.3, 0.2088
1027.9, 0.1997
1029.49, 0.18804
1031.08, 0.18877
1032.67, 0.16676
1034.26, 0.16756
1035.85, 0.14877
1037.44, 0.15872
1039.03, 0.14536
1040.62, 0.13509
1042.2, 0.13292
1043.79, 0.10937
1045.38, 0.10658
1046.97, 0.09599
1048.56, 0.087
1050.14, 0.07342
1051.73, 0.068
1053.32, 0.06081
1054.9, 0.04471
1056.49, 0.04435
1058.07, 0.04258
1059.66, 0.0421
1061.25, 0.03627
1062.83, 0.0295
1064.41, 0.0186
1066, 0.02233
1067.58, 0.02158
1069.17, 0.01646
1070.75, 0.00851
1072.33, 0.01267
1073.92, 0.02133
1075.5, 0.01973
1077.08, 0.02039
1078.66, 0.02244
1080.24, 0.01323
1081.83, 0.0163
1083.41, 0.02822
1084.99, 0.03033
1086.57, 0.02579
1088.15, 0.02658
1089.73, 0.03567
1091.31, 0.04124
1092.89, 0.03696
1094.47, 0.04303
1096.04, 0.05176
1097.62, 0.04581
1099.2, 0.05186
1100.78, 0.05823
1102.36, 0.05205
1103.93, 0.06126
1105.51, 0.07145
1107.09, 0.08217
1108.66, 0.08564
1110.24, 0.09355
1111.81, 0.10432
1113.39, 0.11847
1114.96, 0.14502
1116.54, 0.16527
1118.11, 0.1858
1119.69, 0.21243
1121.26, 0.23879
1122.84, 0.24631
1124.41, 0.25667
1125.98, 0.26424
1127.56, 0.27153
1129.13, 0.26136
1130.7, 0.25262
1132.27, 0.24025
1133.84, 0.21925
1135.41, 0.21177
1136.99, 0.19876
1138.56, 0.17796
1140.13, 0.1709
1141.7, 0.15609
1143.27, 0.14304
1144.84, 0.12539
1146.41, 0.12197
1147.97, 0.11972
1149.54, 0.12017
1151.11, 0.11585
1152.68, 0.11017
1154.25, 0.10824
1155.81, 0.10059
1157.38, 0.1058
1158.95, 0.09934
1160.52, 0.10003
1162.08, 0.0927
1163.65, 0.09349
1165.21, 0.08958
1166.78, 0.0858
1168.34, 0.08488
1169.91, 0.08308
1171.47, 0.08171
1173.04, 0.07615
1174.6, 0.06985
1176.17, 0.06345
1177.73, 0.07057
1179.29, 0.06333
1180.86, 0.06313
1182.42, 0.05797
1183.98, 0.0601
1185.54, 0.05456
1187.1, 0.04573
1188.67, 0.05387
1190.23, 0.04226
1191.79, 0.03771
1193.35, 0.04438
1194.91, 0.03277
1196.47, 0.03719
1198.03, 0.02399
1199.59, 0.01949
1201.15, 0.01671
1202.7, 0.02184
1204.26, 0.00709
1205.82, 0.00559
1207.38, 0.01176
1208.94, 0.00592
##END=



