##NAMES=Mullite
##RRUFFID=R141103
##IDEAL CHEMISTRY=Al_4+2x_Si_2-2x_O_10-x_ (x &#8776; 0.4)
##LOCALITY=Weinberg, Nickenich, Eifel, Germany
##OWNER=RRUFF
##SOURCE=Ch. and H. Sch√§fer
##DESCRIPTION=White acicular crystals
##STATUS=The identification of this mineral has been confirmed by single-crystal X-ray diffraction.
##URL=rruff.info/R141103
221.6831, 0.0000000E+00
222.1652, 0.4437260
222.6473, 1.917053
223.1294, 2.458527
223.6115, 1.985077
224.0936, 0.9501950
224.5758, 0.2585750
225.0579, 9.1980003E-02
225.5400, 5.4899999E-04
226.0221, 0.9409180
226.5042, 2.117554
226.9863, 2.643158
227.4685, 2.249329
227.9506, 1.628448
228.4327, 1.058472
228.9148, 0.4684450
229.3969, 6.2408000E-02
229.8790, 0.2042240
230.3612, 0.2801820
230.8433, 3.5980001E-02
231.3254, 1.117523
231.8075, 2.019928
232.2896, 2.267700
232.7717, 1.445740
233.2539, 0.9808350
233.7360, 1.000641
234.2181, 1.330719
234.7002, 1.591400
235.1823, 1.774475
235.6644, 1.884613
236.1466, 1.872223
236.6287, 1.562897
237.1108, 1.643829
237.5929, 2.443634
238.0750, 3.493622
238.5571, 3.763153
239.0393, 2.775482
239.5214, 1.765472
240.0035, 1.194458
240.4856, 1.213135
240.9677, 1.201233
241.4498, 1.048584
241.9320, 0.9330750
242.4141, 1.251129
242.8962, 2.506836
243.3783, 3.387512
243.8604, 3.327087
244.3425, 1.939270
244.8247, 1.073029
245.3068, 0.9212340
245.7889, 1.174347
246.2710, 1.350708
246.7531, 1.425079
247.2352, 1.454956
247.7174, 1.390076
248.1995, 1.134094
248.6816, 1.285187
249.1637, 2.086975
249.6458, 3.106018
250.1279, 3.690002
250.6101, 3.575043
251.0922, 3.524048
251.5743, 3.802734
252.0564, 4.490662
252.5385, 4.864746
253.0206, 4.737549
253.5028, 4.469574
253.9849, 4.508087
254.4670, 4.962982
254.9491, 5.502319
255.4312, 6.137634
255.9133, 6.891205
256.3955, 7.231262
256.8776, 6.967010
257.3597, 6.501160
257.8418, 6.245148
258.3239, 6.230957
258.8061, 6.346954
259.2882, 6.626404
259.7703, 7.065277
260.2524, 7.319275
260.7345, 7.306396
261.2166, 7.226440
261.6988, 7.260193
262.1809, 7.438995
262.6630, 7.642639
263.1451, 7.846497
263.6272, 8.059387
264.1093, 8.315033
264.5915, 8.596741
265.0736, 8.957916
265.5557, 9.506378
266.0378, 10.34866
266.5199, 10.96799
267.0020, 11.23285
267.4842, 11.21896
267.9663, 11.26154
268.4484, 11.31271
268.9305, 11.52356
269.4126, 12.12604
269.8947, 13.32788
270.3769, 13.96756
270.8590, 13.75784
271.3411, 12.99924
271.8232, 12.69443
272.3053, 12.96365
272.7874, 13.31622
273.2696, 13.39706
273.7517, 13.11703
274.2338, 13.20169
274.7159, 13.82489
275.1980, 14.70984
275.6801, 15.16299
276.1623, 15.10535
276.6444, 14.98395
277.1265, 15.08231
277.6086, 15.43674
278.0907, 15.49265
278.5728, 15.13705
279.0550, 14.64414
279.5371, 14.43457
280.0192, 14.55109
280.5013, 14.90250
280.9834, 15.56729
281.4655, 16.52899
281.9477, 17.19968
282.4298, 17.50232
282.9119, 17.67673
283.3940, 18.08237
283.8761, 18.71399
284.3582, 19.39752
284.8404, 20.18512
285.3225, 20.99658
285.8046, 21.32343
286.2867, 21.11786
286.7688, 20.63040
287.2509, 20.00330
287.7331, 19.25781
288.2152, 18.73914
288.6973, 18.57724
289.1794, 18.72440
289.6615, 19.10083
290.1436, 19.72861
290.6258, 20.41171
291.1079, 21.03638
291.5900, 21.59262
292.0721, 22.00430
292.5542, 22.24518
293.0363, 22.34290
293.5185, 22.21902
294.0006, 21.88217
294.4827, 21.74380
294.9648, 22.12491
295.4469, 22.95511
295.9290, 24.09921
296.4112, 25.73782
296.8933, 27.33386
297.3754, 27.87817
297.8575, 27.51416
298.3396, 27.12918
298.8217, 27.41504
299.3039, 28.07513
299.7860, 28.44882
300.2681, 28.35132
300.7502, 28.28687
301.2323, 29.12775
301.7144, 30.57391
302.1966, 31.55630
302.6787, 31.05469
303.1608, 29.99884
303.6429, 29.81912
304.1250, 30.75604
304.6071, 31.63708
305.0893, 31.13852
305.5714, 29.78812
306.0535, 28.70679
306.5356, 28.77185
307.0177, 29.11624
307.4998, 28.85501
307.9820, 27.95993
308.4641, 27.07504
308.9462, 26.63419
309.4283, 26.49081
309.9104, 26.45499
310.3925, 26.81241
310.8747, 26.98062
311.3568, 26.27838
311.8389, 24.85342
312.3210, 23.79446
312.8031, 24.17358
313.2852, 24.98337
313.7674, 25.23004
314.2495, 24.24265
314.7316, 23.18948
315.2137, 22.75040
315.6958, 22.74435
316.1779, 22.52991
316.6601, 21.45526
317.1422, 20.30991
317.6243, 19.68323
318.1064, 19.98914
318.5885, 20.17340
319.0706, 19.63660
319.5528, 18.74744
320.0349, 18.22263
320.5170, 18.79077
320.9991, 19.33197
321.4812, 19.32861
321.9633, 18.60052
322.4455, 17.81696
322.9276, 16.99503
323.4097, 16.22208
323.8918, 15.60507
324.3739, 15.45175
324.8560, 15.17566
325.3382, 14.40665
325.8203, 13.01120
326.3024, 12.37820
326.7845, 13.52582
327.2666, 14.97061
327.7487, 15.53265
328.2309, 14.44431
328.7130, 13.34891
329.1951, 12.18750
329.6772, 11.02728
330.1593, 10.58029
330.6414, 11.44601
331.1236, 12.45566
331.6057, 12.99570
332.0878, 12.96719
332.5699, 12.60098
333.0520, 11.66916
333.5341, 10.44260
334.0163, 9.716522
334.4984, 9.732910
334.9805, 9.851135
335.4626, 9.780457
335.9447, 9.413849
336.4268, 9.314117
336.9090, 9.639435
337.3911, 10.07297
337.8732, 10.05893
338.3553, 9.464783
338.8374, 8.902283
339.3195, 8.571594
339.8017, 8.469666
340.2838, 8.395416
340.7659, 8.421661
341.2480, 8.297791
341.7301, 7.578766
342.2122, 6.202179
342.6944, 5.267639
343.1765, 5.189789
343.6586, 5.644043
344.1407, 5.497559
344.6228, 4.708923
345.1049, 3.808167
345.5871, 3.086151
346.0692, 2.557678
346.5513, 2.464874
347.0334, 2.945740
347.5155, 3.636536
347.9977, 3.958740
348.4798, 3.936401
348.9619, 3.757385
349.4440, 3.441101
349.9261, 3.057007
350.4082, 2.822144
350.8904, 2.785400
351.3725, 2.664734
351.8546, 1.984283
352.3367, 0.9635620
352.8188, 0.1710210
353.3009, 6.8878002E-02
353.7831, 0.2113950
354.2652, 1.9530000E-03
354.7473, 0.5513610
355.2294, 0.9817500
355.7115, 0.8363040
356.1936, 0.4113160
356.6758, 8.8653997E-02
357.1579, 3.1615999E-02
357.6400, 8.1789996E-03
358.1221, 0.3034970
358.6042, 0.7724610
359.0863, 0.9452210
359.5685, 0.1850890
360.0506, 0.7095030
360.5327, 1.141174
361.0148, 0.9254760
361.4969, 0.4717410
361.9790, 0.3929750
362.4612, 1.334564
362.9433, 1.808838
363.4254, 1.338837
363.9075, 0.6455690
364.3896, 6.3781999E-02
364.8717, 0.7982180
365.3539, 1.315948
365.8360, 1.513763
366.3181, 1.492981
366.8002, 1.350647
367.2823, 0.7955930
367.7644, 0.4450380
368.2466, 0.4587710
368.7287, 0.8076170
369.2108, 1.138611
369.6929, 1.721283
370.1750, 2.054260
370.6571, 1.838409
371.1393, 0.4577330
371.6214, 0.3784790
372.1035, 0.4367680
372.5856, 1.9226000E-02
373.0677, 0.1713870
373.5498, 1.8494001E-02
374.0320, 0.1339110
374.5141, 2.0050000E-02
374.9962, 0.4822690
375.4783, 0.8653560
375.9604, 1.137268
376.4425, 1.379211
376.9247, 1.727386
377.4068, 2.220032
377.8889, 2.561798
378.3710, 2.649353
378.8531, 2.533020
379.3352, 2.353119
379.8174, 2.079346
380.2995, 1.959900
380.7816, 2.282501
381.2637, 2.992523
381.7458, 3.635040
382.2279, 4.177979
382.7101, 4.579651
383.1922, 4.781555
383.6743, 4.789825
384.1564, 4.639465
384.6385, 4.171967
385.1206, 3.593353
385.6028, 3.254456
386.0849, 3.160156
386.5670, 3.430847
387.0491, 4.421936
387.5312, 5.844788
388.0133, 7.144775
388.4955, 8.316467
388.9776, 9.113586
389.4597, 8.975037
389.9418, 8.069977
390.4239, 7.439697
390.9060, 7.926392
391.3882, 8.861572
391.8703, 9.620789
392.3524, 9.944305
392.8345, 10.35434
393.3166, 11.24664
393.7987, 12.39130
394.2809, 13.32822
394.7630, 13.93600
395.2451, 14.29105
395.7272, 14.26382
396.2093, 13.71936
396.6914, 13.53549
397.1736, 14.06705
397.6557, 14.96677
398.1378, 15.90030
398.6199, 17.04022
399.1020, 17.93536
399.5841, 18.42023
400.0663, 18.56857
400.5484, 18.84409
401.0305, 19.31369
401.5126, 19.84677
401.9947, 20.38974
402.4768, 20.94299
402.9590, 21.57773
403.4411, 22.41113
403.9232, 23.23929
404.4053, 23.70273
404.8874, 23.78256
405.3695, 23.46988
405.8517, 22.53888
406.3338, 21.09567
406.8159, 20.62485
407.2980, 21.34171
407.7801, 22.39828
408.2622, 22.84738
408.7444, 22.73444
409.2265, 22.71051
409.7086, 22.94772
410.1907, 23.26913
410.6728, 23.33405
411.1549, 23.14786
411.6371, 22.79980
412.1192, 22.18045
412.6013, 21.44162
413.0834, 20.97073
413.5655, 20.83780
414.0476, 20.91782
414.5298, 21.24606
415.0119, 21.66644
415.4940, 21.87869
415.9761, 21.60303
416.4582, 21.16162
416.9403, 20.85376
417.4225, 20.69681
417.9046, 20.53839
418.3867, 20.40869
418.8688, 20.18890
419.3509, 19.76245
419.8330, 18.99225
420.3152, 18.19202
420.7973, 17.49527
421.2794, 16.92010
421.7615, 16.41330
422.2436, 16.04013
422.7257, 15.62857
423.2079, 15.07407
423.6900, 14.33926
424.1721, 13.78375
424.6542, 13.69144
425.1363, 13.62604
425.6184, 13.23615
426.1006, 12.02676
426.5827, 11.28604
427.0648, 11.38156
427.5469, 11.99506
428.0290, 11.99020
428.5111, 11.09076
428.9933, 10.10257
429.4754, 9.307068
429.9575, 8.696136
430.4396, 8.531860
430.9217, 9.001312
431.4038, 9.469147
431.8860, 8.976013
432.3681, 7.489960
432.8502, 6.232819
433.3323, 5.541656
433.8144, 5.288879
434.2965, 5.182373
434.7787, 5.225220
435.2608, 5.336334
435.7429, 5.695587
436.2250, 6.075348
436.7071, 5.781799
437.1892, 4.614441
437.6714, 3.304871
438.1535, 2.498444
438.6356, 2.152863
439.1177, 2.188110
439.5998, 3.057190
440.0819, 3.944580
440.5641, 3.988708
441.0462, 3.268768
441.5283, 2.708710
442.0104, 3.036987
442.4925, 3.618073
442.9746, 3.906403
443.4568, 3.629211
443.9389, 3.333466
444.4210, 3.288055
444.9031, 3.326538
445.3852, 3.130859
445.8673, 2.062744
446.3495, 1.310364
446.8316, 1.483612
447.3137, 2.834930
447.7958, 3.336487
448.2779, 2.406006
448.7600, 1.119507
449.2422, 0.2622380
449.7243, 3.9670002E-03
450.2064, 0.1665650
450.6885, 0.2309880
451.1706, 0.2354740
451.6527, 0.3150020
452.1349, 0.5302430
452.6170, 0.6136170
453.0991, 0.3561100
453.5812, 0.2193910
454.0633, 0.4493100
454.5454, 0.2782290
455.0276, 2.4536001E-02
455.5097, 3.2649999E-03
455.9918, 0.1937870
456.4739, 0.5263980
456.9560, 1.096191
457.4381, 1.635223
457.9203, 1.680145
458.4024, 1.299744
458.8845, 0.8052980
459.3666, 0.3277890
459.8488, 0.1278380
460.3309, 0.6358030
460.8130, 1.227051
461.2951, 1.507355
461.7772, 0.9768680
462.2593, 5.0078999E-02
462.7415, 0.7822270
463.2236, 1.678406
463.7057, 2.128967
464.1878, 1.518768
464.6699, 0.2059020
465.1520, 0.5652770
465.6342, 6.7474000E-02
466.1163, 0.8841250
466.5984, 1.363556
467.0805, 1.351379
467.5626, 1.332458
468.0447, 1.346344
468.5269, 1.343933
469.0090, 1.236481
469.4911, 0.7725830
469.9732, 0.7281490
470.4553, 1.434540
470.9374, 2.619690
471.4196, 3.034973
471.9017, 2.415253
472.3838, 1.838928
472.8659, 1.969513
473.3480, 2.808014
473.8301, 3.488281
474.3123, 4.000305
474.7944, 4.315399
475.2765, 4.352966
475.7586, 4.149017
476.2407, 3.895660
476.7228, 3.665588
477.2050, 3.416931
477.6871, 2.958099
478.1692, 2.353943
478.6513, 2.014496
479.1334, 2.476471
479.6155, 3.279449
480.0977, 3.978241
480.5798, 4.535858
481.0619, 4.930542
481.5440, 5.003296
482.0261, 4.926392
482.5082, 4.916687
482.9904, 5.137482
483.4725, 5.338440
483.9546, 5.543549
484.4367, 5.693726
484.9188, 5.542572
485.4009, 4.603302
485.8831, 3.752106
486.3652, 3.281860
486.8473, 3.197083
487.3294, 3.556183
487.8115, 4.695831
488.2936, 5.903748
488.7758, 6.402740
489.2579, 5.943176
489.7400, 5.594086
490.2221, 5.541138
490.7042, 5.679871
491.1863, 5.754303
491.6685, 5.766754
492.1506, 5.781342
492.6327, 5.916077
493.1148, 6.093140
493.5969, 5.901031
494.0790, 5.303497
494.5612, 4.729523
495.0433, 4.584076
495.5254, 4.781799
496.0075, 5.169922
496.4896, 5.892914
496.9717, 6.467560
497.4539, 6.072449
497.9360, 5.133209
498.4181, 4.761536
498.9002, 6.266052
499.3823, 7.864197
499.8644, 8.323608
500.3466, 7.472290
500.8287, 6.749969
501.3108, 6.485352
501.7929, 6.582062
502.2750, 6.963745
502.7571, 8.472900
503.2393, 9.159241
503.7214, 8.392578
504.2035, 6.884369
504.6856, 6.160858
505.1677, 6.627747
505.6498, 7.137665
506.1320, 7.362000
506.6141, 7.316864
507.0962, 7.306915
507.5783, 7.375092
508.0604, 7.348145
508.5425, 7.006409
509.0247, 6.392883
509.5068, 5.977448
509.9889, 5.832947
510.4710, 5.831512
510.9531, 5.863739
511.4352, 5.929047
511.9174, 5.929413
512.3995, 5.727417
512.8816, 5.485779
513.3637, 5.403595
513.8458, 5.476807
514.3279, 5.625275
514.8101, 6.072784
515.2922, 6.391205
515.7743, 6.116364
516.2564, 4.935120
516.7385, 4.004395
517.2206, 4.038116
517.7028, 4.395386
518.1849, 4.353607
518.6670, 3.415527
519.1491, 2.528748
519.6312, 1.859467
520.1133, 1.425323
520.5955, 1.149841
521.0776, 1.083038
521.5597, 1.048645
522.0418, 0.9784850
522.5239, 0.8545230
523.0060, 0.6894230
523.4882, 0.5659480
523.9703, 0.4911800
524.4524, 0.4797060
524.9345, 0.5245670
525.4166, 0.5893250
525.8987, 0.6868590
526.3809, 0.7585140
526.8630, 0.5823360
527.3451, 0.2493290
527.8272, 0.1660160
528.3093, 0.8107600
528.7914, 1.649963
529.2736, 2.083038
529.7557, 2.114624
530.2378, 2.057953
530.7199, 1.622650
531.2020, 1.454132
531.6841, 2.300201
532.1663, 5.240082
532.6484, 7.076447
533.1305, 6.428833
533.6126, 4.398407
534.0947, 2.541565
534.5768, 0.6003720
535.0590, 0.6372070
535.5411, 0.7569580
536.0232, 2.1118000E-02
536.5053, 0.3488160
536.9874, 7.1198002E-02
537.4695, 0.2905270
537.9517, 0.5353390
538.4338, 0.6734920
538.9159, 0.4569700
539.3980, 0.1847230
539.8801, 0.8963620
540.3622, 1.233307
540.8444, 1.269104
541.3265, 1.390228
541.8086, 1.740601
542.2907, 2.086700
542.7728, 2.173004
543.2549, 2.012634
543.7371, 1.642151
544.2192, 0.5598450
544.7013, 0.3352050
545.1834, 5.0048999E-02
545.6655, 1.334442
546.1476, 2.248566
546.6298, 1.477814
547.1119, 0.4016420
547.5940, 1.6845999E-02
548.0761, 0.8669740
548.5582, 1.347290
549.0403, 0.9160770
549.5225, 0.2068790
550.0046, 9.1249999E-03
550.4867, 0.6680300
550.9688, 1.133606
551.4509, 1.193298
551.9330, 0.9391780
552.4152, 0.5961610
552.8973, 8.2580999E-02
553.3794, 6.7261003E-02
553.8615, 0.8471680
554.3436, 2.477875
554.8257, 2.697083
555.3079, 1.426483
555.7900, 3.2379001E-02
556.2721, 0.2881160
556.7542, 0.1554570
557.2363, 0.9118960
557.7184, 2.059784
558.2006, 3.007751
558.6827, 3.193665
559.1648, 2.881866
559.6469, 2.522491
560.1290, 2.252380
560.6111, 2.001526
561.0933, 1.582092
561.5754, 1.081543
562.0575, 1.079102
562.5396, 2.554352
563.0217, 3.704803
563.5038, 3.688751
563.9860, 2.109406
564.4681, 1.234680
564.9502, 1.243347
565.4323, 1.675568
565.9144, 2.149078
566.3965, 2.675049
566.8787, 3.156433
567.3608, 3.602936
567.8429, 3.949341
568.3250, 4.009888
568.8071, 3.832001
569.2892, 3.659180
569.7714, 3.589905
570.2535, 3.592957
570.7356, 3.659180
571.2177, 3.775055
571.6998, 3.853333
572.1819, 3.794189
572.6641, 3.709534
573.1462, 3.647949
573.6283, 3.582977
574.1104, 3.705414
574.5925, 4.427643
575.0746, 5.173187
575.5568, 5.414795
576.0389, 4.321991
576.5210, 3.835175
577.0031, 4.342163
577.4852, 5.362488
577.9673, 5.895813
578.4495, 5.815582
578.9316, 5.693756
579.4137, 5.744232
579.8958, 5.890167
580.3779, 5.758270
580.8600, 5.344269
581.3422, 4.900330
581.8243, 4.363495
582.3064, 3.958527
582.7885, 4.384552
583.2706, 5.745026
583.7527, 7.130066
584.2349, 7.881104
584.7170, 8.207886
585.1991, 8.358368
585.6812, 8.334961
586.1633, 8.169556
586.6454, 7.783600
587.1276, 7.325531
587.6097, 7.059174
588.0918, 7.116730
588.5739, 7.282471
589.0560, 7.490479
589.5381, 7.746246
590.0203, 8.211487
590.5024, 9.104675
590.9845, 9.784058
591.4666, 9.834808
591.9487, 9.247986
592.4308, 8.902893
592.9130, 8.790253
593.3951, 8.877869
593.8772, 9.191650
594.3593, 9.661377
594.8414, 10.23672
595.3235, 10.97998
595.8057, 11.57416
596.2878, 11.53159
596.7699, 11.14114
597.2520, 10.92007
597.7341, 11.34128
598.2162, 11.69766
598.6984, 11.50909
599.1805, 10.93231
599.6626, 10.56598
600.1447, 10.91425
600.6268, 11.18021
601.1089, 10.87436
601.5911, 9.851288
602.0732, 9.593353
602.5553, 10.39929
603.0374, 11.41479
603.5195, 12.15543
604.0016, 12.65323
604.4838, 12.71829
604.9659, 12.17850
605.4480, 11.42789
605.9301, 11.14502
606.4122, 11.22601
606.8943, 11.12988
607.3765, 10.60498
607.8586, 10.02423
608.3407, 9.751129
608.8228, 9.744354
609.3049, 9.923981
609.7870, 10.51999
610.2692, 11.10153
610.7513, 11.39856
611.2334, 11.34320
611.7155, 11.12100
612.1976, 10.45160
612.6797, 9.930023
613.1619, 9.917542
613.6440, 10.63757
614.1261, 10.73669
614.6082, 9.895996
615.0903, 8.988647
615.5724, 8.939087
616.0546, 9.783356
616.5367, 10.26956
617.0188, 10.21948
617.5009, 9.837189
617.9830, 9.328979
618.4651, 8.734650
618.9473, 8.143890
619.4294, 7.518250
619.9115, 6.943298
620.3936, 6.511444
620.8757, 6.212433
621.3578, 6.012451
621.8400, 5.957947
622.3221, 5.937561
622.8042, 5.876434
623.2863, 5.772430
623.7684, 5.781219
624.2505, 6.107300
624.7327, 6.419250
625.2148, 6.503601
625.6969, 6.298248
626.1790, 5.929993
626.6611, 5.297729
627.1432, 4.725098
627.6254, 4.677490
628.1075, 5.108978
628.5896, 5.260315
629.0717, 4.959076
629.5538, 4.460571
630.0359, 3.978729
630.5181, 3.567139
631.0002, 3.359497
631.4823, 3.597931
631.9644, 3.870728
632.4465, 3.902924
632.9286, 3.772308
633.4108, 3.610962
633.8929, 3.175659
634.3750, 2.878632
634.8571, 3.091736
635.3392, 3.864655
635.8214, 4.116547
636.3035, 3.526520
636.7856, 2.883148
637.2677, 2.700073
637.7498, 3.121674
638.2319, 3.171356
638.7141, 2.710602
639.1962, 2.154633
639.6783, 1.905975
640.1604, 1.890717
640.6425, 1.837219
641.1246, 1.710266
641.6068, 1.487701
642.0889, 0.8662110
642.5710, 0.1803590
643.0531, 1.4099000E-02
643.5352, 1.263519
644.0173, 2.368530
644.4995, 2.652313
644.9816, 2.298157
645.4637, 1.842560
645.9458, 1.038696
646.4279, 0.5161740
646.9100, 0.5151980
647.3922, 0.9899900
647.8743, 1.326813
648.3564, 1.526520
648.8385, 1.644226
649.3206, 1.677948
649.8027, 1.620270
650.2849, 1.480621
650.7670, 1.284729
651.2491, 1.223938
651.7312, 1.664093
652.2133, 2.285248
652.6954, 2.536987
653.1776, 2.225128
653.6597, 1.940277
654.1418, 2.149261
654.6239, 2.523926
655.1060, 2.653961
655.5881, 2.247833
656.0703, 1.846954
656.5524, 1.566467
657.0345, 1.300995
657.5166, 0.7706910
657.9987, 0.2638550
658.4808, 0.9697570
658.9630, 1.152344
659.4451, 0.8743290
659.9272, 9.3139999E-02
660.4093, 1.194855
660.8914, 1.971710
661.3735, 1.122955
661.8557, 0.3927310
662.3378, 0.7020260
662.8199, 8.8196002E-02
663.3020, 0.9426270
663.7841, 1.270996
664.2662, 1.348938
664.7484, 1.359192
665.2305, 1.309082
665.7126, 1.293335
666.1947, 1.540436
666.6768, 1.682373
667.1589, 1.397980
667.6411, 9.1643997E-02
668.1232, 0.2666930
668.6053, 0.7293700
669.0874, 2.111633
669.5695, 2.583893
670.0516, 2.156097
670.5338, 1.815857
671.0159, 1.780518
671.4980, 1.849548
671.9801, 1.695068
672.4622, 1.398468
672.9443, 1.184906
673.4265, 1.237183
673.9086, 1.323486
674.3907, 1.314972
674.8728, 1.221130
675.3549, 1.065063
675.8370, 0.5816960
676.3192, 0.3204960
676.8013, 0.6287840
677.2834, 1.440033
677.7655, 1.825928
678.2476, 1.444885
678.7297, 1.351715
679.2119, 2.461243
679.6940, 4.650208
680.1761, 5.070313
680.6582, 3.585602
681.1403, 1.714111
681.6224, 0.4358220
682.1046, 0.2541200
682.5867, 0.1437380
683.0688, 0.8945920
683.5509, 1.823456
684.0330, 1.820923
684.5151, 1.407990
684.9973, 1.104187
685.4794, 0.9287410
685.9615, 1.013672
686.4436, 1.794067
686.9257, 2.651642
687.4078, 2.812500
687.8900, 1.974274
688.3721, 1.270569
688.8542, 0.9152530
689.3363, 0.7260130
689.8184, 0.1929320
690.3005, 0.6269840
690.7827, 1.011292
691.2648, 0.4655460
691.7469, 0.4412540
692.2290, 0.9592590
692.7111, 1.156006
693.1932, 1.207153
693.6754, 1.212463
694.1575, 1.080292
694.6396, 0.5236510
695.1217, 0.3794860
695.6038, 0.6744690
696.0859, 0.4271240
696.5681, 1.474823
697.0502, 1.904968
697.5323, 1.692719
698.0144, 1.544861
698.4965, 1.471863
698.9786, 1.430023
699.4608, 1.441437
699.9429, 1.461121
700.4250, 1.265625
700.9071, 0.8515010
701.3892, 0.4627690
701.8713, 0.1587830
702.3535, 1.9501001E-02
702.8356, 4.6356000E-02
703.3177, 0.5046080
703.7998, 0.7908330
704.2819, 0.6352840
704.7640, 0.2485050
705.2462, 0.1708370
705.7283, 0.8413700
706.2104, 1.211243
706.6925, 1.283752
707.1746, 1.011688
707.6567, 3.2561999E-02
708.1389, 1.739258
708.6210, 2.604950
709.1031, 1.971283
709.5852, 0.6492610
710.0673, 0.3111570
710.5494, 0.8812260
711.0316, 0.9792180
711.5137, 1.1871000E-02
711.9958, 0.9057620
712.4779, 0.8117980
712.9600, 4.7240999E-02
713.4421, 0.3384400
713.9243, 0.4561770
714.4064, 1.101929
714.8885, 1.079865
715.3706, 0.4968260
715.8527, 0.2651670
716.3348, 0.5197140
716.8170, 0.7792660
717.2991, 0.7874760
717.7812, 0.6472170
718.2633, 0.7701110
718.7454, 1.110352
719.2275, 1.341248
719.7097, 1.017822
720.1918, 0.5689090
720.6739, 0.6191710
721.1560, 1.199707
721.6381, 1.628510
722.1202, 1.256775
722.6024, 0.8532100
723.0845, 1.006805
723.5666, 2.057373
724.0487, 2.755066
724.5308, 3.060333
725.0129, 3.069153
725.4951, 2.698944
725.9772, 1.934723
726.4593, 1.650146
726.9414, 1.931915
727.4235, 2.356445
727.9056, 2.512695
728.3878, 2.454224
728.8699, 2.222931
729.3520, 1.676453
729.8341, 1.404968
730.3162, 2.177856
730.7983, 3.315247
731.2805, 3.979523
731.7626, 3.612732
732.2447, 3.229095
732.7268, 2.912262
733.2089, 2.641693
733.6910, 2.327576
734.1732, 1.902191
734.6553, 1.835052
735.1374, 2.330078
735.6195, 3.052216
736.1016, 3.414001
736.5837, 3.455444
737.0659, 3.347321
737.5480, 3.124359
738.0301, 2.814789
738.5122, 2.178772
738.9943, 1.462952
739.4764, 1.298492
739.9586, 2.416992
740.4407, 3.583405
740.9228, 4.656403
741.4049, 5.476257
741.8870, 5.330109
742.3691, 3.781433
742.8513, 2.440948
743.3334, 1.978851
743.8155, 2.196808
744.2976, 2.321991
744.7797, 2.357513
745.2618, 2.296112
745.7440, 1.965149
746.2261, 1.641846
746.7082, 1.759277
747.1903, 2.265350
747.6724, 2.602539
748.1545, 2.274353
748.6367, 1.897156
749.1188, 1.884766
749.6009, 2.308563
750.0830, 2.613861
750.5651, 2.859985
751.0472, 2.874298
751.5294, 2.388947
752.0115, 1.430206
752.4936, 1.042572
752.9757, 1.208710
753.4578, 1.568542
753.9399, 2.078461
754.4221, 2.497894
754.9042, 2.468506
755.3863, 1.931152
755.8684, 1.309631
756.3505, 0.5683290
756.8326, 9.4599999E-04
757.3148, 0.1071470
757.7969, 0.5569150
758.2790, 0.9114690
758.7611, 0.8278500
759.2432, 0.6149600
759.7253, 0.5649410
760.2075, 0.6833500
760.6896, 0.6011050
761.1717, 0.2651670
761.6538, 0.1351320
762.1359, 0.5404660
762.6180, 0.8272090
763.1002, 0.7243650
763.5823, 8.6975001E-02
764.0644, 0.5761410
764.5465, 1.239319
765.0286, 1.710632
765.5107, 1.787811
765.9929, 0.9719540
766.4750, 0.3957820
766.9571, 0.2121890
767.4392, 0.1198120
767.9213, 0.4144900
768.4034, 1.429688
768.8856, 1.927338
769.3677, 1.647827
769.8498, 0.9839170
770.3319, 0.1449580
770.8140, 0.6850890
771.2961, 1.108551
771.7783, 0.8537290
772.2604, 0.5212710
772.7425, 0.2389530
773.2246, 0.1417540
773.7067, 0.4530640
774.1888, 1.728302
774.6710, 2.606964
775.1531, 2.892578
775.6352, 2.799896
776.1173, 2.644684
776.5994, 2.424591
777.0815, 2.341431
777.5637, 2.502472
778.0458, 2.701447
778.5279, 2.539642
779.0100, 2.189758
779.4921, 2.049225
779.9742, 2.536102
780.4564, 2.962860
780.9385, 2.817383
781.4206, 2.419647
781.9027, 2.506012
782.3848, 3.662506
782.8669, 4.331085
783.3491, 4.068512
783.8312, 3.317596
784.3133, 3.210144
784.7954, 3.732391
785.2775, 4.181488
785.7596, 4.311920
786.2418, 4.261139
786.7239, 4.081055
787.2060, 3.868652
787.6881, 3.858307
788.1702, 4.348938
788.6523, 4.848663
789.1345, 5.276459
789.6166, 5.554413
790.0987, 5.467163
790.5808, 4.707184
791.0629, 4.198425
791.5450, 4.185211
792.0272, 4.536591
792.5093, 4.949463
792.9914, 5.416138
793.4735, 5.782349
793.9556, 5.903778
794.4377, 5.985138
794.9199, 6.423462
795.4020, 7.031677
795.8841, 7.294525
796.3662, 6.747070
796.8483, 6.114288
797.3304, 5.422791
797.8126, 4.833893
798.2947, 4.967865
798.7768, 6.207275
799.2589, 7.062042
799.7410, 6.947174
800.2231, 6.317993
800.7053, 6.482666
801.1874, 7.282257
801.6695, 7.817566
802.1516, 7.383301
802.6337, 6.728790
803.1158, 6.468933
803.5980, 6.524292
804.0801, 6.667328
804.5622, 6.864716
805.0443, 7.102753
805.5264, 7.396271
806.0085, 7.720337
806.4907, 8.025269
806.9728, 8.336487
807.4549, 8.450775
807.9370, 8.170441
808.4191, 7.793976
808.9012, 7.905701
809.3834, 8.456482
809.8655, 9.269196
810.3476, 11.11502
810.8297, 12.38373
811.3118, 11.45593
811.7939, 9.116638
812.2761, 7.716003
812.7582, 8.256622
813.2403, 8.846252
813.7224, 9.104095
814.2045, 9.176727
814.6866, 9.514374
815.1688, 10.11380
815.6509, 10.73862
816.1330, 11.31290
816.6151, 11.84549
817.0972, 12.50653
817.5793, 13.13550
818.0615, 13.33850
818.5436, 12.18573
819.0257, 11.37830
819.5078, 11.87653
819.9899, 13.20712
820.4720, 14.06824
820.9542, 14.42493
821.4363, 14.35687
821.9184, 13.70325
822.4005, 12.80518
822.8826, 12.44177
823.3647, 12.54706
823.8469, 12.76624
824.3290, 13.02734
824.8111, 13.26996
825.2932, 13.42624
825.7753, 13.52811
826.2574, 13.62604
826.7396, 13.93481
827.2217, 14.01898
827.7038, 13.53571
828.1859, 12.93939
828.6681, 13.16931
829.1502, 14.35422
829.6323, 15.45975
830.1144, 16.30099
830.5966, 16.84164
831.0787, 16.99722
831.5608, 16.82422
832.0429, 16.39218
832.5250, 15.18735
833.0071, 14.61337
833.4893, 16.09000
833.9714, 18.42468
834.4535, 19.71268
834.9356, 19.33426
835.4177, 18.93121
835.8998, 18.55682
836.3820, 18.32056
836.8641, 18.45950
837.3462, 18.92834
837.8283, 19.36847
838.3104, 19.73969
838.7925, 19.92300
839.2747, 19.76321
839.7568, 19.35263
840.2389, 18.76743
840.7210, 17.60336
841.2031, 17.04987
841.6852, 17.69006
842.1674, 18.79852
842.6495, 19.86282
843.1316, 21.01309
843.6137, 21.21951
844.0958, 20.19952
844.5779, 19.06683
845.0601, 19.32181
845.5422, 20.37708
846.0243, 20.94003
846.5064, 20.69604
846.9885, 20.49738
847.4706, 20.69388
847.9528, 21.22021
848.4349, 22.15790
848.9170, 23.97415
849.3991, 24.65936
849.8812, 23.78287
850.3633, 22.63727
850.8455, 22.38321
851.3276, 22.82983
851.8097, 22.94229
852.2918, 22.67508
852.7739, 22.31018
853.2560, 21.80737
853.7382, 21.48126
854.2203, 21.75201
854.7024, 22.72684
855.1845, 23.45566
855.6666, 23.66470
856.1487, 23.70074
856.6309, 23.61255
857.1130, 23.40411
857.5951, 23.65567
858.0772, 24.39343
858.5593, 25.08789
859.0414, 25.51849
859.5236, 25.61258
860.0057, 24.94452
860.4878, 23.72833
860.9699, 23.17676
861.4520, 24.70636
861.9341, 26.11642
862.4163, 26.15152
862.8984, 25.04303
863.3805, 24.43253
863.8626, 24.45963
864.3447, 24.55066
864.8268, 24.37732
865.3090, 24.12137
865.7911, 24.52979
866.2732, 25.38742
866.7553, 25.80844
867.2374, 24.81400
867.7195, 23.70834
868.2017, 23.27884
868.6838, 23.35220
869.1659, 23.47388
869.6480, 23.75851
870.1301, 23.76489
870.6122, 23.28339
871.0944, 22.61487
871.5765, 22.46582
872.0586, 22.77075
872.5407, 23.07852
873.0228, 23.45761
873.5049, 23.36914
873.9871, 21.70428
874.4692, 19.41910
874.9513, 17.94949
875.4334, 18.52335
875.9155, 18.80441
876.3976, 18.43454
876.8798, 17.84018
877.3619, 17.51794
877.8440, 17.48547
878.3261, 17.38541
878.8082, 17.15524
879.2903, 16.94135
879.7725, 17.15805
880.2546, 17.37668
880.7367, 16.83817
881.2188, 15.19745
881.7009, 13.81216
882.1830, 13.13519
882.6652, 12.91437
883.1473, 13.09207
883.6294, 13.83188
884.1115, 13.80780
884.5936, 12.88260
885.0757, 11.88318
885.5579, 11.56824
886.0400, 11.59335
886.5221, 11.17142
887.0042, 10.32312
887.4863, 9.644287
887.9684, 9.711975
888.4506, 9.818970
888.9327, 9.471832
889.4148, 8.709625
889.8969, 8.312469
890.3790, 8.424072
890.8611, 8.463959
891.3433, 8.125824
891.8254, 7.584015
892.3075, 7.351318
892.7896, 7.337585
893.2717, 7.175293
893.7538, 6.282349
894.2360, 5.561188
894.7181, 5.909302
895.2002, 6.820526
895.6823, 6.907349
896.1644, 5.550659
896.6465, 4.529816
897.1287, 4.166687
897.6108, 4.232605
898.0929, 4.501099
898.5750, 4.884247
899.0571, 4.914673
899.5392, 4.366760
900.0214, 3.759583
900.5035, 3.579437
900.9856, 3.540375
901.4677, 3.286255
901.9498, 2.466431
902.4319, 1.972656
902.9141, 1.916870
903.3962, 2.026764
903.8783, 2.130646
904.3604, 2.205536
904.8425, 1.927155
905.3246, 1.248871
905.8068, 0.6889340
906.2889, 0.9427800
906.7710, 1.319763
907.2531, 1.061951
907.7352, 4.0649001E-02
908.2173, 0.6409000
908.6995, 0.6235050
909.1816, 0.5360720
909.6637, 0.6378780
910.1458, 0.8980410
910.6279, 1.127716
911.1100, 1.324646
911.5922, 1.460022
912.0743, 1.439117
912.5564, 1.410370
913.0385, 1.580139
913.5206, 1.870300
914.0027, 2.052338
914.4849, 2.095551
914.9670, 1.963623
915.4491, 1.600372
915.9312, 1.098236
916.4133, 0.5483700
916.8954, 4.0557999E-02
917.3776, 0.1752930
917.8597, 0.3834530
918.3418, 1.065765
918.8239, 1.292267
919.3060, 1.225616
919.7881, 1.080109
920.2703, 0.8429870
920.7524, 0.6813960
921.2345, 0.8335270
921.7166, 0.8494260
922.1987, 0.1623230
922.6808, 1.280548
923.1630, 1.762207
923.6451, 1.146454
924.1272, 0.5408330
924.6093, 0.9436340
925.0914, 1.845825
925.5735, 2.862457
926.0557, 3.929413
926.5378, 4.506409
927.0199, 4.048370
927.5020, 3.472626
927.9841, 3.007294
928.4662, 2.685028
928.9484, 2.742035
929.4305, 3.174255
929.9126, 3.652435
930.3947, 4.104645
930.8768, 4.437317
931.3589, 4.511505
931.8411, 4.382935
932.3232, 4.172119
932.8053, 3.469269
933.2874, 3.322784
933.7695, 4.102570
934.2516, 5.303192
934.7338, 6.281311
935.2159, 7.042877
935.6980, 7.151581
936.1801, 6.420685
936.6622, 5.665649
937.1443, 5.805878
937.6265, 6.354492
938.1086, 6.655029
938.5907, 6.421722
939.0728, 6.688812
939.5549, 7.909332
940.0370, 9.290741
940.5192, 10.45016
941.0013, 11.38007
941.4834, 11.84424
941.9655, 11.85507
942.4476, 11.99475
942.9297, 12.94757
943.4119, 13.98660
943.8940, 14.32581
944.3761, 14.09592
944.8582, 13.96890
945.3403, 14.12650
945.8224, 14.36240
946.3046, 14.62711
946.7867, 14.96048
947.2688, 15.65558
947.7509, 16.61194
948.2330, 16.83105
948.7151, 15.72073
949.1973, 14.65640
949.6794, 14.96194
950.1615, 16.00824
950.6436, 17.06519
951.1257, 18.16443
951.6078, 18.85327
952.0900, 18.90106
952.5721, 18.92413
953.0542, 19.52722
953.5363, 20.59479
954.0184, 21.46536
954.5005, 22.10367
954.9827, 22.48880
955.4648, 22.44345
955.9469, 22.26532
956.4290, 22.04834
956.9111, 21.83673
957.3932, 22.04123
957.8754, 22.86636
958.3575, 23.62799
958.8396, 24.07556
959.3217, 24.35342
959.8038, 25.09509
960.2859, 26.00809
960.7681, 25.94858
961.2502, 23.64130
961.7323, 21.68860
962.2144, 22.03528
962.6965, 23.37341
963.1786, 23.96899
963.6608, 23.35031
964.1429, 23.23846
964.6250, 23.84546
965.1071, 24.47916
965.5892, 24.37686
966.0714, 23.76984
966.5535, 23.22424
967.0356, 22.79178
967.5177, 22.26663
967.9998, 21.21231
968.4819, 20.35669
968.9641, 20.26407
969.4462, 20.77875
969.9283, 20.69992
970.4104, 19.93610
970.8925, 19.23663
971.3746, 18.89587
971.8568, 18.75223
972.3389, 18.76822
972.8210, 18.76703
973.3031, 18.36850
973.7852, 16.72375
974.2673, 15.65308
974.7495, 15.80157
975.2316, 16.37204
975.7137, 16.57635
976.1958, 16.40286
976.6779, 15.95013
977.1600, 15.20230
977.6422, 14.61963
978.1243, 14.87024
978.6064, 15.31943
979.0885, 15.21646
979.5706, 14.50177
980.0527, 13.95624
980.5349, 13.79343
981.0170, 13.65759
981.4991, 13.48004
981.9812, 13.21158
982.4633, 12.71405
982.9454, 12.00381
983.4276, 11.19656
983.9097, 10.04984
984.3918, 9.225830
984.8739, 9.620636
985.3560, 10.48203
985.8381, 10.58276
986.3203, 9.308716
986.8024, 8.507996
987.2845, 8.333405
987.7666, 8.435516
988.2487, 8.641968
988.7308, 8.812683
989.2130, 8.498474
989.6951, 7.681183
990.1772, 6.841339
990.6593, 6.140717
991.1414, 5.577454
991.6235, 4.959015
992.1057, 4.417145
992.5878, 5.028076
993.0699, 7.007080
993.5520, 8.492828
994.0341, 8.747314
994.5162, 8.315399
994.9984, 7.738770
995.4805, 7.104858
995.9626, 6.581390
996.4447, 6.290588
996.9268, 5.985260
997.4089, 5.494690
997.8911, 5.134369
998.3732, 5.378540
998.8553, 6.191315
999.3374, 6.182678
999.8195, 5.291504
1000.302, 4.462006
1000.784, 4.363159
1001.266, 4.657745
1001.748, 5.347595
1002.230, 6.303314
1002.712, 6.416229
1003.194, 5.128082
1003.676, 4.122101
1004.159, 3.805298
1004.641, 4.048126
1005.123, 4.829712
1005.605, 5.927063
1006.087, 6.699402
1006.569, 6.937103
1007.051, 6.910400
1007.533, 6.679199
1008.016, 6.305359
1008.498, 5.742615
1008.980, 4.837769
1009.462, 4.882416
1009.944, 6.035248
1010.426, 7.082245
1010.908, 6.922821
1011.390, 6.218414
1011.872, 5.594269
1012.355, 5.177704
1012.837, 5.375244
1013.319, 7.252808
1013.801, 8.569000
1014.283, 8.704254
1014.765, 8.229401
1015.247, 8.127197
1015.729, 8.330139
1016.211, 8.449402
1016.694, 8.384369
1017.176, 8.373962
1017.658, 8.764465
1018.140, 9.212860
1018.622, 9.352997
1019.104, 9.096466
1019.586, 8.920288
1020.068, 8.860962
1020.551, 8.845398
1021.033, 8.855347
1021.515, 8.878021
1021.997, 8.811096
1022.479, 8.758728
1022.961, 8.980347
1023.443, 9.999573
1023.925, 10.73236
1024.407, 10.78271
1024.890, 10.46799
1025.372, 9.977600
1025.854, 9.309601
1026.336, 9.130127
1026.818, 9.533539
1027.300, 10.16104
1027.782, 10.98047
1028.264, 11.66815
1028.746, 11.81845
1029.229, 11.40622
1029.711, 11.11880
1030.193, 10.94464
1030.675, 11.04916
1031.157, 11.72275
1031.639, 12.59912
1032.121, 12.68701
1032.603, 12.25436
1033.086, 12.15637
1033.568, 13.00946
1034.050, 13.52603
1034.532, 12.79462
1035.014, 11.71075
1035.496, 11.02927
1035.978, 10.78198
1036.460, 10.86081
1036.943, 11.29065
1037.425, 11.69589
1037.907, 11.97610
1038.389, 11.95746
1038.871, 11.19373
1039.353, 9.911255
1039.835, 9.048737
1040.317, 8.868439
1040.799, 9.023895
1041.281, 9.637573
1041.764, 10.27097
1042.246, 10.13602
1042.728, 9.451508
1043.210, 8.916321
1043.692, 8.641815
1044.174, 8.481323
1044.656, 8.359039
1045.138, 8.335663
1045.621, 8.546783
1046.103, 8.948547
1046.585, 8.877441
1047.067, 8.302338
1047.549, 7.678680
1048.031, 7.162567
1048.513, 6.777679
1048.995, 6.599548
1049.478, 6.572845
1049.960, 6.603790
1050.442, 6.852661
1050.924, 6.850464
1051.406, 6.482452
1051.888, 6.068665
1052.370, 5.922791
1052.852, 5.968384
1053.334, 6.019958
1053.817, 6.045654
1054.299, 5.835480
1054.781, 4.929047
1055.263, 4.128784
1055.745, 3.852875
1056.227, 3.925751
1056.709, 4.027191
1057.191, 4.169556
1057.673, 4.027161
1058.156, 3.466797
1058.638, 2.874268
1059.120, 2.755890
1059.602, 2.747040
1060.084, 2.415558
1060.566, 1.624390
1061.048, 0.9318240
1061.530, 0.2893070
1062.013, 9.6892998E-02
1062.495, 9.1614000E-02
1062.977, 0.2094730
1063.459, 0.7224430
1063.941, 1.330780
1064.423, 1.701447
1064.905, 1.438110
1065.387, 1.294861
1065.870, 1.865784
1066.352, 2.372406
1066.834, 1.962372
1067.316, 0.6301880
1067.798, 0.1969300
1068.280, 0.4736330
1068.762, 0.6385190
1069.244, 1.314789
1069.726, 1.756348
1070.208, 0.9687810
1070.691, 0.6502380
1071.173, 1.229462
1071.655, 0.3557430
1072.137, 0.3710020
1072.619, 0.6755070
1073.101, 0.7140500
1073.583, 0.5267940
1074.065, 0.2902530
1074.548, 0.3848880
1075.030, 0.9425050
1075.512, 1.176636
1075.994, 0.7290340
1076.476, 8.7067001E-02
1076.958, 0.7025150
1077.440, 1.483063
1077.922, 1.631287
1078.405, 1.220947
1078.887, 0.5728150
1079.369, 0.4385380
1079.851, 1.219086
1080.333, 1.433838
1080.815, 1.225952
1081.297, 0.6893010
1081.779, 0.3345640
1082.261, 0.6589970
1082.744, 0.2278440
1083.226, 0.1721190
1083.708, 9.1949001E-02
1084.190, 0.6263730
1084.672, 1.104553
1085.154, 1.504822
1085.636, 1.804840
1086.118, 2.181519
1086.601, 1.938873
1087.083, 0.6130070
1087.565, 0.4402160
1088.047, 1.399841
1088.529, 4.533142
1089.011, 5.212769
1089.493, 3.039734
1089.975, 1.469543
1090.458, 2.844086
1090.940, 4.015808
1091.422, 3.683105
1091.904, 2.402557
1092.386, 1.909363
1092.868, 2.084351
1093.350, 2.193604
1093.832, 1.993774
1094.314, 1.785431
1094.797, 1.748474
1095.279, 1.824646
1095.761, 2.025116
1096.243, 2.375702
1096.725, 2.331726
1097.207, 1.855560
1097.689, 1.439758
1098.171, 1.235138
1098.653, 1.347290
1099.136, 2.373169
1099.618, 3.698181
1100.100, 4.082245
1100.582, 2.202881
1101.064, 1.475433
1101.546, 2.329437
1102.028, 3.462952
1102.510, 3.553436
1102.993, 3.082947
1103.475, 3.100403
1103.957, 3.584930
1104.439, 4.115967
1104.921, 4.556793
1105.403, 5.000916
1105.885, 5.638245
1106.367, 6.128174
1106.849, 5.550079
1107.332, 4.203766
1107.814, 3.657196
1108.296, 4.163269
1108.778, 5.166260
1109.260, 7.185638
1109.742, 8.764984
1110.224, 8.655853
1110.706, 7.260834
1111.188, 6.734100
1111.671, 7.091431
1112.153, 7.303650
1112.635, 6.977203
1113.117, 6.534698
1113.599, 6.208954
1114.081, 6.109192
1114.563, 6.449341
1115.045, 7.392456
1115.528, 7.964111
1116.010, 8.104736
1116.492, 8.151428
1116.974, 8.301117
1117.456, 8.469330
1117.938, 8.281952
1118.420, 8.043823
1118.902, 8.405701
1119.385, 10.53857
1119.867, 11.80020
1120.349, 11.93509
1120.831, 11.51065
1121.313, 10.63806
1121.795, 9.668610
1122.277, 9.825409
1122.759, 10.94556
1123.241, 11.91803
1123.724, 12.28012
1124.206, 12.31802
1124.688, 11.88062
1125.170, 11.39206
1125.652, 11.72015
1126.134, 12.69254
1126.616, 12.89221
1127.098, 12.09146
1127.580, 11.53580
1128.063, 12.82578
1128.545, 14.07108
1129.027, 13.71295
1129.509, 12.26056
1129.991, 11.47632
1130.473, 11.38806
1130.955, 11.31494
1131.437, 11.06085
1131.920, 10.94174
1132.402, 11.51068
1132.884, 12.12537
1133.366, 12.18106
1133.848, 11.64847
1134.330, 10.94238
1134.812, 9.958862
1135.294, 9.236237
1135.776, 9.107635
1136.259, 9.196106
1136.741, 9.060242
1137.223, 8.755646
1137.705, 8.328583
1138.187, 7.660248
1138.669, 7.469360
1139.151, 8.001221
1139.633, 8.474640
1140.115, 8.168518
1140.598, 7.436279
1141.080, 6.981293
1141.562, 6.773163
1142.044, 6.605469
1142.526, 6.498566
1143.008, 6.308563
1143.490, 6.123230
1143.972, 5.710266
1144.455, 4.467377
1144.937, 2.828674
1145.419, 2.332336
1145.901, 3.025970
1146.383, 4.000824
1146.865, 5.701416
1147.347, 6.420380
1147.829, 5.202545
1148.312, 3.285278
1148.794, 2.452484
1149.276, 2.619659
1149.758, 3.616211
1150.240, 5.437958
1150.722, 6.654724
1151.204, 5.950653
1151.686, 4.763855
1152.168, 3.635132
1152.651, 2.734924
1153.133, 2.680359
1153.615, 3.432770
1154.097, 3.619659
1154.579, 2.790222
1155.061, 2.024384
1155.543, 2.473694
1156.025, 3.172577
1156.507, 3.184204
1156.990, 2.607605
1157.472, 2.652008
1157.954, 3.380737
1158.436, 3.689880
1158.918, 3.055115
1159.400, 2.289093
1159.882, 2.233795
1160.364, 2.478607
1160.847, 2.531769
1161.329, 2.294556
1161.811, 2.195129
1162.293, 2.242950
1162.775, 2.404541
1163.257, 2.833588
1163.739, 3.152557
1164.221, 2.383575
1164.703, 1.334198
1165.186, 1.506836
1165.668, 4.531891
1166.150, 5.321869
1166.632, 3.306732
1167.114, 1.132813
1167.596, 0.9442140
1168.078, 1.678192
1168.560, 1.627441
1169.042, 1.063019
1169.525, 0.7306820
1170.007, 1.206818
1170.489, 1.235657
1170.971, 0.5729680
1171.453, 7.0587002E-02
1171.935, 0.1363830
1172.417, 0.7807920
1172.899, 1.045776
1173.382, 0.9711910
1173.864, 0.9158630
1174.346, 1.086304
1174.828, 1.161224
1175.310, 1.125153
1175.792, 0.9321900
1176.274, 0.2110600
1176.756, 0.6303710
1177.239, 0.3909300
1177.721, 0.9240720
1178.203, 1.794769
1178.685, 1.004486
1179.167, 0.5194400
1179.649, 0.9789730
1180.131, 1.751465
1180.613, 1.589447
1181.095, 0.8156740
1181.578, 0.3904720
1182.060, 0.4681700
1182.542, 0.5989990
1183.024, 0.5617070
1183.506, 0.6123960
1183.988, 0.9300540
1184.470, 1.267822
1184.952, 1.017426
1185.434, 0.3593440
1185.917, 8.6577997E-02
1186.399, 0.1532590
1186.881, 0.1137390
1187.363, 0.1039730
1187.845, 3.1130000E-03
1188.327, 0.3082580
1188.809, 0.7317200
1189.291, 1.055603
1189.774, 1.257141
1190.256, 1.203766
1190.738, 0.5963440
1191.220, 0.1789860
1191.702, 0.4916990
1192.184, 1.067657
1192.666, 1.802246
1193.148, 2.557892
1193.630, 2.068054
1194.113, 0.5841060
1194.595, 0.3901060
1195.077, 3.9917000E-02
1195.559, 0.6076660
1196.041, 1.381256
1196.523, 1.952087
1197.005, 2.020569
1197.487, 1.617188
1197.969, 1.115997
1198.452, 0.5665890
1198.934, 0.3160400
1199.416, 0.8613280
1199.898, 1.349548
1200.380, 1.366089
1200.862, 1.125336
1201.344, 0.7820130
1201.826, 0.3342590
1202.309, 3.1525001E-02
1202.791, 0.1226810
1203.273, 8.6212002E-02
1203.755, 0.3877260
1204.237, 0.8114930
1204.719, 0.8875120
1205.201, 0.8021550
1205.683, 0.7612610
1206.166, 0.7630000
1206.648, 0.6771550
1207.130, 0.5156560
1207.612, 0.5374760
1208.094, 1.377045
1208.576, 1.930267
1209.058, 1.205811
1209.540, 3.9276000E-02
1210.022, 0.3669430
1210.505, 4.0405001E-02
1210.987, 6.4452998E-02
1211.469, 0.1151430
1211.951, 0.1534120
1212.433, 0.3812560
1212.915, 0.9882510
1213.397, 1.601410
1213.879, 2.001495
1214.361, 1.561401
1214.844, 0.3715210
1215.326, 0.1477660
1215.808, 0.1714480
1216.290, 0.6651920
1216.772, 1.203705
1217.254, 1.430908
1217.736, 0.8457640
1218.218, 2.2430001E-02
1218.701, 1.3489000E-02
1219.183, 0.8663020
1219.665, 1.601166
1220.147, 2.079437
1220.629, 2.268036
1221.111, 1.760986
1221.593, 1.371918
1222.075, 1.705261
1222.557, 2.371460
1223.040, 2.289093
1223.522, 1.576538
1224.004, 1.136139
1224.486, 1.146271
1224.968, 1.271210
1225.450, 1.428619
1225.932, 1.530945
1226.414, 1.511444
1226.896, 1.419220
1227.379, 1.405853
1227.861, 1.458099
1228.343, 1.499329
1228.825, 1.527039
1229.307, 1.419983
1229.789, 0.9228820
1230.271, 0.5183110
1230.753, 0.3727720
1231.236, 0.4850460
1231.718, 0.8830570
1232.200, 1.486359
1232.682, 1.978302
1233.164, 2.295013
1233.646, 2.411316
1234.128, 2.020966
1234.610, 1.739929
1235.093, 2.036743
1235.575, 2.637970
1236.057, 2.464203
1236.539, 1.781403
1237.021, 1.564423
1237.503, 2.282013
1237.985, 2.749756
1238.467, 2.328705
1238.949, 1.781586
1239.432, 1.445679
1239.914, 1.212555
1240.396, 0.5791630
1240.878, 0.2110290
1241.360, 0.4249570
1241.842, 0.4196780
1242.324, 0.9877010
1242.806, 0.8357540
1243.288, 0.5971070
1243.771, 0.5961610
1244.253, 0.7275090
1244.735, 0.7114870
1245.217, 0.6313480
1245.699, 0.7386470
1246.181, 1.347687
1246.663, 1.324829
1247.145, 0.1866760
1247.628, 0.7296140
1248.110, 0.6374210
1248.592, 0.1000980
1249.074, 0.8533330
1249.556, 1.443359
1250.038, 1.502777
1250.520, 0.5431820
1251.002, 0.1605830
1251.484, 0.5637210
1251.967, 1.037079
1252.449, 1.194824
1252.931, 1.196381
1253.413, 1.174194
1253.895, 1.195862
1254.377, 1.391235
1254.859, 1.867859
1255.341, 2.344299
1255.823, 2.824951
1256.306, 3.201874
1256.788, 3.353516
1257.270, 3.359100
1257.752, 3.290527
1258.234, 3.065277
1258.716, 2.579834
1259.198, 1.673981
1259.680, 1.196838
1260.163, 1.206726
1260.645, 1.298126
1261.127, 1.248474
1261.609, 1.120789
1262.091, 0.7411500
1262.573, 0.4559020
1263.055, 0.8760070
1263.537, 2.213684
1264.020, 2.520691
1264.502, 1.811127
1264.984, 1.121094
1265.466, 1.036102
1265.948, 1.159271
1266.430, 1.519348
1266.912, 1.774689
1267.394, 1.382538
1267.876, 0.3262630
1268.359, 0.2532960
1268.841, 1.059082
1269.323, 1.810883
1269.805, 2.136017
1270.287, 2.122681
1270.769, 1.517609
1271.251, 0.7330020
1271.733, 0.2687680
1272.215, 5.1086001E-02
1272.698, 0.4007260
1273.180, 1.159332
1273.662, 1.572327
1274.144, 0.8851010
1274.626, 0.1700130
1275.108, 0.1022030
1275.590, 0.2918090
1276.072, 0.6716920
1276.555, 1.143768
1277.037, 1.124268
1277.519, 0.7911380
1278.001, 0.7044980
1278.483, 1.354431
1278.965, 1.785736
1279.447, 1.858948
1279.929, 1.891632
1280.411, 2.304413
1280.894, 2.726929
1281.376, 2.312012
1281.858, 1.370270
1282.340, 0.6560970
1282.822, 0.2358090
1283.304, 0.2888490
1283.786, 0.9295960
1284.268, 1.546844
1284.750, 1.625305
1285.233, 1.548767
1285.715, 1.834961
1286.197, 2.131226
1286.679, 1.649017
1287.161, 1.5198000E-02
1287.643, 0.2345890
1288.125, 1.011566
1288.607, 2.257355
1289.090, 2.555847
1289.572, 2.473999
1290.054, 2.322540
1290.536, 2.105804
1291.018, 1.742706
1291.500, 1.204193
1291.982, 1.619415
1292.464, 2.878113
1292.947, 3.679993
1293.429, 2.891785
1293.911, 2.086060
1294.393, 1.787537
1294.875, 1.907593
1295.357, 1.736206
1295.839, 1.350525
1296.321, 1.353058
1296.803, 1.604462
1297.286, 1.542023
1297.768, 0.5008540
1298.250, 3.0579001E-02
1298.732, 0.3185730
1299.214, 0.8281860
1299.696, 0.5153200
1300.178, 7.1716003E-02
1300.660, 0.0000000E+00
##END=



