##NAMES=Muscovite
##RRUFFID=R100147
##IDEAL CHEMISTRY=KAl_2_(Si_3_Al)O_10_(OH)_2_
##LOCALITY=Blue Mountain Quarry, Methuen Township, Petersborough County, Ontario, Canada
##OWNER=RRUFF
##SOURCE=Mineralogical Museum, Harvard University
##DESCRIPTION=Book of brown mica
##STATUS=The identification of this mineral is not yet confirmed.
##URL=rruff.info/R100147
91.03516, 26.97643
91.51727, 28.03213
91.99939, 27.12798
92.48151, 24.87733
92.96362, 23.01759
93.44574, 22.69344
93.92786, 23.35688
94.40997, 23.91895
94.89210, 24.34743
95.37421, 24.54306
95.85633, 24.18567
96.33845, 23.30349
96.82056, 22.51258
97.30268, 22.30724
97.78480, 22.62496
98.26691, 22.82525
98.74903, 22.82291
99.23115, 22.65890
99.71326, 22.35791
100.1954, 21.84553
100.6775, 21.49150
101.1596, 21.70321
101.6417, 22.63516
102.1239, 23.37144
102.6060, 23.73558
103.0881, 23.74612
103.5702, 23.68154
104.0523, 23.58544
104.5344, 23.36112
105.0166, 22.85042
105.4987, 21.78991
105.9808, 20.91941
106.4629, 20.43062
106.9450, 20.39016
107.4271, 20.42398
107.9093, 20.69316
108.3914, 20.98023
108.8735, 20.95529
109.3556, 20.14605
109.8377, 19.46427
110.3198, 19.16780
110.8020, 19.44322
111.2841, 19.74631
111.7662, 20.12141
112.2483, 20.51422
112.7304, 20.80773
113.2125, 21.19798
113.6947, 21.33951
114.1768, 21.03352
114.6589, 19.66854
115.1410, 18.62640
115.6231, 18.33853
116.1052, 18.66761
116.5874, 19.09072
117.0695, 19.86977
117.5516, 20.45392
118.0337, 20.41561
118.5158, 19.11673
118.9980, 17.64146
119.4801, 16.15803
119.9622, 14.73385
120.4443, 14.03258
120.9264, 15.20595
121.4085, 17.11724
121.8907, 18.37096
122.3728, 17.70344
122.8549, 16.59193
123.3370, 16.33461
123.8191, 16.99677
124.3012, 17.71061
124.7834, 17.63836
125.2655, 17.09181
125.7476, 16.73807
126.2297, 17.25468
126.7118, 18.04526
127.1939, 18.11618
127.6761, 17.29064
128.1582, 16.32626
128.6403, 16.22423
129.1224, 16.81726
129.6045, 17.29821
130.0867, 16.98039
130.5688, 16.15336
131.0509, 15.84682
131.5330, 16.28205
132.0151, 16.98285
132.4972, 16.92911
132.9794, 16.11883
133.4615, 15.63329
133.9436, 16.57429
134.4257, 18.80588
134.9078, 20.27961
135.3899, 20.51759
135.8721, 19.99606
136.3542, 20.08710
136.8363, 20.87620
137.3184, 21.90248
137.8005, 22.78860
138.2826, 23.51140
138.7648, 24.32638
139.2469, 25.27335
139.7290, 26.35455
140.2111, 27.48262
140.6932, 28.59093
141.1753, 29.88817
141.6575, 31.67547
142.1396, 34.29350
142.6217, 36.50701
143.1038, 37.94399
143.5859, 38.56787
144.0681, 39.38562
144.5502, 40.27747
145.0323, 41.47401
145.5144, 43.34116
145.9965, 46.42226
146.4786, 49.32055
146.9608, 51.61315
147.4429, 53.19658
147.9250, 54.76136
148.4071, 56.26455
148.8892, 57.76920
149.3713, 59.32530
149.8535, 60.58698
150.3356, 62.26423
150.8177, 64.60246
151.2998, 67.91027
151.7819, 71.20979
152.2640, 74.27052
152.7462, 77.35764
153.2283, 80.88705
153.7104, 85.36955
154.1925, 89.90569
154.6746, 94.14806
155.1567, 97.79845
155.6389, 101.5298
156.1210, 105.6876
156.6031, 110.0165
157.0852, 113.9342
157.5673, 116.9862
158.0495, 119.8228
158.5316, 122.8011
159.0137, 126.1027
159.4958, 129.3447
159.9779, 132.7086
160.4600, 136.0166
160.9422, 138.6888
161.4243, 139.5761
161.9064, 140.3093
162.3885, 141.9977
162.8706, 145.5437
163.3527, 149.3715
163.8349, 152.7170
164.3170, 155.7465
164.7991, 159.2561
165.2812, 163.9243
165.7633, 169.1100
166.2454, 174.2399
166.7276, 179.2219
167.2097, 184.0223
167.6918, 188.4559
168.1739, 192.5677
168.6560, 197.0636
169.1381, 202.4908
169.6203, 208.4141
170.1024, 212.9716
170.5845, 217.1979
171.0666, 221.1908
171.5487, 224.3226
172.0309, 226.6415
172.5130, 228.7372
172.9951, 231.4032
173.4772, 234.0671
173.9593, 235.8293
174.4414, 235.7995
174.9236, 235.0013
175.4057, 234.5308
175.8878, 234.3913
176.3699, 234.1894
176.8520, 233.5746
177.3341, 232.6466
177.8163, 231.6195
178.2984, 230.5974
178.7805, 229.5296
179.2626, 228.2823
179.7447, 226.8552
180.2268, 225.4514
180.7090, 224.2591
181.1911, 223.2636
181.6732, 222.4433
182.1553, 221.9799
182.6374, 221.6615
183.1195, 220.9026
183.6017, 219.5813
184.0838, 218.3896
184.5659, 218.1788
185.0480, 218.8184
185.5301, 219.6585
186.0123, 220.3820
186.4944, 221.0587
186.9765, 221.8240
187.4586, 222.6400
187.9407, 223.7106
188.4228, 225.2483
188.9050, 227.2442
189.3871, 229.7982
189.8692, 233.2190
190.3513, 237.2983
190.8334, 241.1364
191.3155, 244.6973
191.7977, 247.9411
192.2798, 250.7122
192.7619, 253.0156
193.2440, 255.2104
193.7261, 257.4772
194.2082, 259.8076
194.6904, 262.3417
195.1725, 265.3018
195.6546, 268.0740
196.1367, 269.1681
196.6188, 268.4814
197.1009, 267.6529
197.5831, 267.7134
198.0652, 268.6565
198.5473, 269.1148
199.0294, 269.1042
199.5115, 268.4507
199.9937, 266.4749
200.4758, 262.9856
200.9579, 259.5518
201.4400, 257.2274
201.9221, 256.1177
202.4042, 254.5288
202.8864, 252.1985
203.3685, 249.5029
203.8506, 247.2530
204.3327, 245.4582
204.8148, 244.1338
205.2969, 243.6072
205.7791, 244.1243
206.2612, 243.4713
206.7433, 240.9906
207.2254, 237.6710
207.7075, 236.2226
208.1896, 237.1619
208.6718, 238.4556
209.1539, 238.8900
209.6360, 238.1743
210.1181, 238.1031
210.6002, 238.9353
211.0823, 240.3808
211.5645, 241.6534
212.0466, 242.7512
212.5287, 243.7077
213.0108, 244.6008
213.4929, 245.5443
213.9750, 246.0070
214.4572, 245.8669
214.9393, 245.2703
215.4214, 244.8364
215.9035, 245.1324
216.3856, 244.4209
216.8678, 241.5941
217.3499, 235.9691
217.8320, 230.3590
218.3141, 224.9740
218.7962, 219.6904
219.2783, 214.2168
219.7605, 208.6882
220.2426, 202.7974
220.7247, 196.2502
221.2068, 188.5206
221.6889, 181.7337
222.1710, 176.3576
222.6532, 171.9123
223.1353, 167.0068
223.6174, 161.1478
224.0995, 155.5695
224.5816, 150.8794
225.0637, 147.1335
225.5459, 144.0433
226.0280, 141.7393
226.5101, 140.0428
226.9922, 138.5162
227.4743, 137.2258
227.9564, 135.9793
228.4386, 134.5910
228.9207, 132.7711
229.4028, 131.5977
229.8849, 131.3206
230.3670, 131.6350
230.8492, 131.6467
231.3313, 131.0754
231.8134, 130.6243
232.2955, 130.5985
232.7776, 131.0399
233.2597, 131.8212
233.7419, 132.9883
234.2240, 134.4857
234.7061, 136.1331
235.1882, 137.8945
235.6703, 139.8552
236.1524, 142.0583
236.6346, 144.4493
237.1167, 147.1819
237.5988, 150.1682
238.0809, 153.5221
238.5630, 157.5950
239.0451, 162.4868
239.5273, 167.9087
240.0094, 173.8039
240.4915, 180.3914
240.9736, 186.8379
241.4557, 192.6708
241.9378, 198.6000
242.4200, 206.1937
242.9021, 216.4451
243.3842, 226.9427
243.8663, 236.7165
244.3484, 245.2869
244.8306, 254.5908
245.3127, 264.5909
245.7948, 275.2538
246.2769, 286.4972
246.7590, 298.1994
247.2411, 310.4760
247.7233, 323.4569
248.2054, 337.3818
248.6875, 351.1077
249.1696, 364.0850
249.6517, 377.0966
250.1338, 391.2353
250.6160, 406.3133
251.0981, 422.9557
251.5802, 441.5301
252.0623, 462.6418
252.5444, 482.9365
253.0265, 501.1659
253.5087, 519.4696
253.9908, 540.6303
254.4729, 565.8005
254.9550, 591.7517
255.4371, 617.6756
255.9192, 643.2330
256.4014, 669.7536
256.8835, 698.0088
257.3656, 726.4705
257.8477, 754.2870
258.3298, 781.9910
258.8120, 808.0510
259.2941, 832.6249
259.7762, 855.9163
260.2583, 875.7973
260.7404, 893.1129
261.2225, 906.1832
261.7047, 913.7947
262.1868, 916.0886
262.6689, 912.3786
263.1510, 901.8568
263.6331, 884.7254
264.1152, 864.5834
264.5974, 841.5255
265.0795, 815.4666
265.5616, 786.7042
266.0437, 754.1594
266.5258, 721.0267
267.0079, 687.7226
267.4901, 654.0886
267.9722, 621.4158
268.4543, 589.4727
268.9364, 558.2896
269.4185, 527.3758
269.9006, 496.1598
270.3828, 467.8413
270.8649, 442.8814
271.3470, 421.0236
271.8291, 400.7712
272.3112, 382.0961
272.7933, 364.4571
273.2755, 347.5086
273.7576, 331.1203
274.2397, 316.0962
274.7218, 302.8379
275.2039, 290.9471
275.6860, 279.1740
276.1682, 267.2385
276.6503, 256.0621
277.1324, 246.2384
277.6145, 237.9136
278.0966, 230.1703
278.5787, 222.9578
279.0609, 216.3102
279.5430, 210.2827
280.0251, 204.9734
280.5072, 199.9001
280.9893, 194.6308
281.4715, 189.2140
281.9536, 184.7019
282.4357, 181.3719
282.9178, 178.4997
283.3999, 174.5881
283.8820, 169.5448
284.3642, 165.0472
284.8463, 162.1516
285.3284, 160.6903
285.8105, 158.8398
286.2926, 156.4840
286.7747, 154.0237
287.2569, 152.1515
287.7390, 150.8349
288.2211, 149.2348
288.7032, 146.6862
289.1853, 143.5277
289.6674, 141.3566
290.1496, 140.2684
290.6317, 139.4697
291.1138, 137.9937
291.5959, 135.9479
292.0780, 134.1226
292.5602, 132.7868
293.0423, 131.8300
293.5244, 130.9438
294.0065, 130.1274
294.4886, 129.5386
294.9707, 129.7171
295.4529, 130.3309
295.9350, 130.0953
296.4171, 128.2461
296.8992, 125.7733
297.3813, 124.4296
297.8634, 124.1587
298.3456, 124.2999
298.8277, 124.5243
299.3098, 124.7857
299.7919, 124.9764
300.2740, 125.0553
300.7561, 125.0855
301.2383, 125.1396
301.7204, 125.2138
302.2025, 125.2878
302.6846, 125.4051
303.1667, 125.4991
303.6488, 125.4734
304.1310, 125.3136
304.6131, 125.0333
305.0952, 124.5022
305.5773, 123.8399
306.0594, 123.3721
306.5415, 123.3827
307.0237, 123.6146
307.5058, 123.8335
307.9879, 124.0279
308.4700, 124.1232
308.9521, 123.9895
309.4343, 123.7245
309.9164, 123.4985
310.3985, 123.4935
310.8806, 123.4784
311.3627, 123.1620
311.8448, 122.5237
312.3270, 122.1074
312.8091, 122.5009
313.2912, 123.2154
313.7733, 123.6739
314.2554, 123.4779
314.7375, 123.1429
315.2197, 122.8922
315.7018, 122.7241
316.1839, 122.6165
316.6660, 122.5898
317.1481, 122.6033
317.6302, 122.6382
318.1124, 122.9336
318.5945, 122.9486
319.0766, 122.2612
319.5587, 121.0898
320.0408, 120.1823
320.5229, 119.9911
321.0051, 119.9747
321.4872, 119.8180
321.9693, 119.3345
322.4514, 118.9728
322.9335, 119.0808
323.4156, 119.3522
323.8978, 119.1966
324.3799, 117.6842
324.8620, 116.4487
325.3441, 116.2479
325.8262, 117.6582
326.3083, 118.4528
326.7905, 118.2803
327.2726, 117.4608
327.7547, 116.3946
328.2368, 114.5025
328.7189, 112.9771
329.2010, 112.1132
329.6832, 111.9726
330.1653, 111.8901
330.6474, 112.0558
331.1295, 112.1434
331.6116, 111.8464
332.0938, 110.6551
332.5759, 109.9061
333.0580, 109.9742
333.5401, 110.7110
334.0222, 110.9623
334.5043, 110.3933
334.9865, 109.8026
335.4686, 109.7047
335.9507, 110.3437
336.4328, 110.8054
336.9149, 110.9921
337.3970, 110.9998
337.8792, 111.0866
338.3613, 111.2906
338.8434, 111.4708
339.3255, 111.5479
339.8076, 111.5019
340.2898, 111.5104
340.7719, 111.5686
341.2540, 111.6927
341.7361, 111.9748
342.2182, 112.4438
342.7003, 112.7555
343.1825, 112.7295
343.6646, 112.4246
344.1467, 112.1122
344.6288, 111.7148
345.1109, 111.6847
345.5930, 112.7971
346.0752, 114.8992
346.5573, 116.5739
347.0394, 117.4100
347.5215, 117.6809
348.0036, 117.8885
348.4857, 118.0370
348.9679, 118.3361
349.4500, 118.9001
349.9321, 119.7408
350.4142, 120.9563
350.8963, 122.6807
351.3784, 124.4839
351.8606, 125.6666
352.3427, 126.3835
352.8248, 127.2351
353.3069, 128.7253
353.7890, 130.4746
354.2711, 131.9595
354.7533, 133.1094
355.2354, 134.2328
355.7175, 135.3568
356.1996, 136.6475
356.6817, 138.3940
357.1638, 141.4376
357.6460, 144.4573
358.1281, 146.3376
358.6102, 147.1379
359.0923, 147.8535
359.5744, 148.7017
360.0565, 149.8795
360.5387, 151.6320
361.0208, 154.7887
361.5029, 157.5871
361.9850, 158.6780
362.4671, 158.6732
362.9492, 159.4427
363.4314, 162.2360
363.9135, 165.5417
364.3956, 168.5368
364.8777, 170.9857
365.3598, 173.4427
365.8419, 176.0672
366.3241, 178.7617
366.8062, 181.3627
367.2883, 184.0254
367.7704, 186.4208
368.2526, 188.2901
368.7347, 189.4594
369.2168, 191.1436
369.6989, 193.5439
370.1810, 196.3535
370.6631, 199.3994
371.1453, 203.3355
371.6274, 206.5087
372.1095, 208.3658
372.5916, 209.1913
373.0737, 210.8355
373.5558, 213.6480
374.0380, 216.7771
374.5201, 219.8705
375.0022, 223.0080
375.4843, 225.7138
375.9664, 227.8555
376.4485, 229.6582
376.9307, 231.6302
377.4128, 233.8015
377.8949, 235.9495
378.3770, 238.0715
378.8591, 240.1376
379.3412, 241.5729
379.8234, 242.2304
380.3055, 242.7314
380.7876, 243.7057
381.2697, 245.1508
381.7518, 246.9202
382.2339, 249.1972
382.7161, 251.6003
383.1982, 253.1257
383.6803, 253.7891
384.1624, 254.3984
384.6445, 255.3302
385.1266, 256.6623
385.6088, 258.7367
386.0909, 261.7869
386.5730, 264.9919
387.0551, 267.2014
387.5372, 268.7148
388.0193, 270.4337
388.5015, 272.8566
388.9836, 275.6880
389.4657, 278.7416
389.9478, 282.0176
390.4299, 285.1271
390.9120, 287.4257
391.3942, 289.5279
391.8763, 292.1690
392.3584, 296.5386
392.8405, 300.6162
393.3226, 302.7930
393.8047, 303.5732
394.2869, 305.2631
394.7690, 309.6258
395.2511, 314.5885
395.7332, 318.8494
396.2154, 321.8424
396.6975, 324.8785
397.1796, 328.4648
397.6617, 332.2652
398.1438, 335.6746
398.6259, 337.7025
399.1081, 340.2474
399.5902, 344.2401
400.0723, 350.0844
400.5544, 354.5829
401.0365, 357.2806
401.5186, 358.9679
402.0008, 360.2212
402.4829, 360.8833
402.9650, 361.4166
403.4471, 361.8902
403.9292, 362.2700
404.4113, 362.4346
404.8935, 362.4254
405.3756, 362.1136
405.8577, 361.4173
406.3398, 360.3286
406.8219, 359.0697
407.3040, 357.7802
407.7862, 356.0659
408.2683, 353.1832
408.7504, 349.1096
409.2325, 344.8140
409.7146, 340.6115
410.1967, 336.4737
410.6789, 332.0680
411.1610, 327.4005
411.6431, 322.3809
412.1252, 316.8421
412.6073, 310.9143
413.0894, 304.9964
413.5716, 299.3111
414.0537, 293.6219
414.5358, 287.5598
415.0179, 281.2932
415.5000, 275.1651
415.9821, 269.2003
416.4643, 263.6283
416.9464, 258.9886
417.4285, 255.4146
417.9106, 251.5222
418.3927, 246.0080
418.8748, 239.7864
419.3570, 234.0451
419.8391, 229.4020
420.3212, 225.0417
420.8033, 220.6669
421.2854, 216.2858
421.7675, 211.8509
422.2497, 206.8663
422.7318, 202.1836
423.2139, 198.4399
423.6960, 196.4550
424.1781, 193.7820
424.6602, 189.2158
425.1424, 184.0802
425.6245, 180.3924
426.1066, 179.6382
426.5887, 178.5047
427.0709, 176.1348
427.5530, 172.5284
428.0351, 169.4675
428.5172, 167.0671
428.9993, 165.0048
429.4814, 163.1079
429.9636, 161.4645
430.4457, 159.6360
430.9278, 157.5661
431.4099, 155.3111
431.8920, 152.9456
432.3741, 150.4219
432.8563, 147.9975
433.3384, 145.8299
433.8205, 143.8686
434.3026, 141.8082
434.7847, 139.6180
435.2668, 137.4959
435.7490, 135.7024
436.2311, 134.1490
436.7132, 132.5821
437.1953, 130.9167
437.6774, 129.2271
438.1595, 127.5168
438.6417, 125.8225
439.1238, 124.2963
439.6059, 123.4061
440.0880, 122.5394
440.5701, 120.8386
441.0522, 118.0500
441.5344, 115.5379
442.0165, 114.2876
442.4986, 113.7616
442.9807, 113.3110
443.4628, 112.8795
443.9449, 112.3287
444.4271, 111.6490
444.9092, 110.8215
445.3913, 109.7383
445.8734, 108.0412
446.3555, 106.3585
446.8376, 105.0367
447.3198, 104.3788
447.8019, 103.5202
448.2840, 102.2670
448.7661, 100.8851
449.2482, 99.78371
449.7303, 99.33278
450.2125, 98.51807
450.6946, 96.85999
451.1767, 94.46901
451.6588, 93.14908
452.1409, 93.17918
452.6230, 93.60654
453.1052, 93.85613
453.5873, 93.93827
454.0694, 93.65543
454.5515, 92.87256
455.0337, 91.96944
455.5158, 91.68676
455.9979, 91.97701
456.4800, 92.17972
456.9621, 92.00532
457.4442, 91.55053
457.9264, 90.93342
458.4085, 90.16747
458.8906, 89.55163
459.3727, 89.45930
459.8548, 89.65227
460.3369, 89.76054
460.8191, 89.70625
461.3012, 89.55148
461.7833, 89.19543
462.2654, 88.78066
462.7475, 88.60315
463.2296, 89.04339
463.7118, 89.54726
464.1939, 89.77207
464.6760, 89.69476
465.1581, 89.67249
465.6402, 89.84238
466.1223, 90.08975
466.6045, 90.33210
467.0866, 90.54321
467.5687, 90.76438
468.0508, 91.13520
468.5329, 91.50426
469.0150, 91.50669
469.4972, 90.83427
469.9793, 90.27202
470.4614, 90.17028
470.9435, 90.57596
471.4256, 90.42670
471.9077, 89.48593
472.3899, 88.46541
472.8720, 88.03455
473.3541, 88.23843
473.8362, 88.46377
474.3183, 88.63342
474.8004, 88.77251
475.2826, 89.04421
475.7647, 89.41861
476.2468, 89.47197
476.7289, 88.83491
477.2110, 87.74966
477.6931, 86.49583
478.1753, 85.07557
478.6574, 84.30481
479.1395, 85.63943
479.6216, 87.83448
480.1037, 89.00443
480.5858, 88.34509
481.0680, 87.16042
481.5501, 85.91582
482.0322, 84.81624
482.5143, 84.30576
482.9964, 85.26772
483.4786, 86.24717
483.9607, 86.48288
484.4428, 85.87148
484.9249, 85.32613
485.4070, 85.12910
485.8892, 84.99576
486.3713, 84.72112
486.8534, 84.14736
487.3355, 83.66810
487.8176, 83.35102
488.2997, 83.11465
488.7819, 82.76826
489.2640, 82.25175
489.7461, 81.74964
490.2282, 81.28712
490.7103, 80.86887
491.1924, 80.67296
491.6746, 80.72531
492.1567, 80.88303
492.6388, 81.19743
493.1209, 81.59989
493.6030, 81.36816
494.0851, 80.24984
494.5673, 78.90166
495.0494, 78.34728
495.5315, 78.39864
496.0136, 78.39792
496.4957, 77.93121
496.9778, 77.31428
497.4600, 76.91785
497.9421, 76.72059
498.4242, 76.47476
498.9063, 75.89360
499.3884, 75.27583
499.8705, 74.85477
500.3527, 74.65756
500.8348, 74.71732
501.3169, 75.42274
501.7990, 76.29266
502.2811, 76.64967
502.7632, 75.89217
503.2454, 75.12345
503.7275, 74.61840
504.2096, 74.34605
504.6917, 73.89725
505.1738, 73.08708
505.6559, 72.36010
506.1381, 72.01354
506.6202, 72.20539
507.1023, 72.07160
507.5844, 71.44292
508.0665, 70.79451
508.5486, 70.91375
509.0308, 71.82444
509.5129, 72.49136
509.9950, 72.60931
510.4771, 72.36082
510.9592, 72.05904
511.4413, 71.71485
511.9235, 71.42982
512.4056, 71.21733
512.8877, 71.12256
513.3698, 71.25416
513.8519, 71.63197
514.3340, 72.03946
514.8162, 72.48260
515.2983, 72.80473
515.7804, 72.79925
516.2625, 72.05871
516.7446, 71.42297
517.2267, 71.27003
517.7089, 71.47591
518.1910, 71.74009
518.6731, 72.14860
519.1552, 72.46734
519.6373, 72.52271
520.1194, 72.26203
520.6016, 72.33829
521.0837, 73.10160
521.5658, 73.80955
522.0479, 73.79749
522.5300, 72.69683
523.0121, 72.30302
523.4943, 72.99017
523.9764, 74.09183
524.4585, 74.28909
524.9406, 73.55454
525.4227, 73.04459
525.9048, 73.30236
526.3870, 74.00694
526.8691, 74.34113
527.3513, 74.32809
527.8334, 74.29683
528.3155, 74.46952
528.7976, 74.77920
529.2797, 75.16252
529.7618, 75.63510
530.2440, 76.04469
530.7261, 76.22246
531.2082, 76.28964
531.6903, 76.39807
532.1724, 76.53371
532.6545, 76.78559
533.1367, 77.25361
533.6188, 77.87436
534.1009, 78.43893
534.5830, 78.90478
535.0651, 79.31804
535.5472, 79.75340
536.0294, 80.27478
536.5115, 80.33341
536.9936, 79.67587
537.4757, 78.91067
537.9578, 78.56798
538.4399, 78.71589
538.9221, 78.79646
539.4042, 78.66705
539.8863, 78.59818
540.3684, 79.28551
540.8505, 80.64317
541.3326, 81.63811
541.8148, 81.72634
542.2969, 81.26788
542.7790, 80.67391
543.2611, 80.00633
543.7432, 79.72604
544.2253, 80.66009
544.7075, 81.86641
545.1896, 82.27030
545.6717, 81.58595
546.1538, 80.90228
546.6359, 80.74107
547.1180, 80.86285
547.6002, 81.01628
548.0823, 81.13180
548.5644, 81.28745
549.0465, 81.36726
549.5286, 81.49242
550.0107, 82.07230
550.4929, 83.74107
550.9750, 84.88409
551.4571, 84.71983
551.9392, 83.23648
552.4213, 82.83313
552.9034, 83.73587
553.3856, 84.99417
553.8677, 86.01240
554.3498, 86.77257
554.8319, 86.93021
555.3140, 86.32146
555.7961, 85.58736
556.2783, 85.69565
556.7604, 86.37305
557.2425, 86.82911
557.7246, 86.50831
558.2067, 86.11887
558.6888, 86.44115
559.1710, 87.29873
559.6531, 88.09263
560.1352, 88.68996
560.6173, 89.00572
561.0994, 88.88725
561.5815, 88.26664
562.0637, 87.74558
562.5458, 87.26805
563.0279, 87.05046
563.5100, 87.23882
563.9921, 87.98083
564.4742, 88.94053
564.9564, 90.46113
565.4385, 91.91924
565.9206, 92.03117
566.4027, 90.46373
566.8848, 89.21134
567.3669, 88.87757
567.8491, 89.24892
568.3312, 89.82255
568.8133, 90.58208
569.2954, 91.14249
569.7775, 91.06429
570.2596, 90.66809
570.7418, 90.56641
571.2239, 90.80251
571.7060, 91.06807
572.1881, 91.22749
572.6702, 91.24628
573.1523, 91.02578
573.6345, 90.19689
574.1166, 89.75925
574.5987, 90.59770
575.0808, 91.96809
575.5629, 92.64538
576.0450, 91.66509
576.5272, 90.81487
577.0093, 90.46484
577.4914, 90.54308
577.9735, 90.59728
578.4556, 90.67556
578.9377, 90.62816
579.4199, 90.26585
579.9020, 89.58119
580.3841, 89.40722
580.8662, 89.81754
581.3483, 90.34762
581.8304, 90.35226
582.3126, 90.06278
582.7947, 90.43597
583.2768, 91.89553
583.7589, 93.30265
584.2410, 93.25028
584.7231, 92.26902
585.2053, 91.40926
585.6874, 90.82681
586.1696, 90.74808
586.6517, 91.60181
587.1338, 93.15955
587.6159, 94.41969
588.0980, 95.15063
588.5801, 95.49955
589.0623, 95.39698
589.5444, 94.73906
590.0265, 94.38978
590.5086, 94.46815
590.9907, 94.70415
591.4728, 94.88114
591.9550, 94.96976
592.4371, 95.19688
592.9192, 95.59286
593.4013, 96.09785
593.8834, 96.60270
594.3655, 97.12708
594.8477, 97.79996
595.3298, 98.70699
595.8119, 99.71751
596.2940, 100.7738
596.7761, 101.8012
597.2582, 102.5820
597.7404, 102.6841
598.2225, 102.7378
598.7046, 103.2144
599.1867, 104.1343
599.6688, 105.0788
600.1509, 106.0914
600.6331, 106.9743
601.1152, 107.5668
601.5973, 107.7180
602.0794, 107.9367
602.5615, 108.1722
603.0436, 108.5224
603.5258, 109.0883
604.0079, 109.8697
604.4900, 110.9000
604.9721, 112.2800
605.4542, 113.7569
605.9363, 114.7851
606.4185, 115.3960
606.9006, 115.9347
607.3827, 116.3852
607.8648, 116.9499
608.3469, 117.9862
608.8290, 119.4396
609.3112, 120.9447
609.7933, 122.4123
610.2754, 123.7722
610.7575, 124.9427
611.2396, 125.8580
611.7217, 126.8703
612.2039, 128.0933
612.6860, 129.4212
613.1681, 130.7918
613.6502, 132.1900
614.1323, 133.6398
614.6144, 135.2407
615.0966, 136.7858
615.5787, 137.8999
616.0608, 138.4521
616.5429, 139.4337
617.0250, 141.2370
617.5071, 143.4198
617.9893, 145.0190
618.4714, 146.0613
618.9535, 146.7014
619.4356, 146.5114
619.9177, 146.2661
620.3998, 147.0486
620.8820, 148.7900
621.3641, 150.7422
621.8462, 152.9187
622.3283, 154.8778
622.8104, 156.1864
623.2925, 156.6060
623.7747, 157.1722
624.2568, 158.0341
624.7389, 159.1415
625.2210, 160.5424
625.7031, 162.8070
626.1852, 163.9950
626.6674, 163.5421
627.1495, 162.4860
627.6316, 162.6479
628.1137, 164.0818
628.5958, 165.4237
629.0779, 166.3396
629.5601, 166.8730
630.0422, 166.9687
630.5243, 166.7065
631.0064, 166.4633
631.4885, 166.5361
631.9706, 166.6680
632.4528, 166.5337
632.9349, 166.1650
633.4170, 165.9877
633.8991, 166.6738
634.3812, 167.2437
634.8633, 167.0787
635.3455, 165.9140
635.8276, 164.6260
636.3097, 163.1037
636.7918, 161.5963
637.2739, 160.3441
637.7560, 159.4557
638.2382, 158.3681
638.7203, 156.9337
639.2024, 155.4960
639.6845, 154.6893
640.1666, 154.4205
640.6487, 154.0146
641.1309, 153.3974
641.6130, 152.3382
642.0951, 150.2104
642.5772, 147.3466
643.0594, 144.7762
643.5415, 143.1158
644.0236, 141.7734
644.5057, 140.3840
644.9879, 138.9552
645.4700, 137.7275
645.9521, 137.1339
646.4342, 136.3942
646.9163, 135.1361
647.3984, 133.2652
647.8806, 131.4538
648.3627, 129.6736
648.8448, 127.9857
649.3269, 126.3941
649.8090, 124.9018
650.2911, 123.6013
650.7733, 122.4748
651.2554, 121.5658
651.7375, 121.0961
652.2196, 120.8657
652.7017, 120.3943
653.1838, 119.5737
653.6660, 118.4181
654.1481, 116.4678
654.6302, 114.2676
655.1123, 112.7570
655.5944, 112.7512
656.0765, 112.9656
656.5587, 113.2440
657.0408, 113.4700
657.5229, 113.1005
658.0050, 111.5542
658.4871, 110.4401
658.9692, 110.5856
659.4514, 111.8000
659.9335, 111.7844
660.4156, 110.4024
660.8977, 108.9279
661.3798, 108.3768
661.8619, 108.4379
662.3441, 108.1887
662.8262, 107.5655
663.3083, 107.0937
663.7904, 107.2742
664.2725, 107.7937
664.7546, 108.3061
665.2368, 108.7077
665.7189, 109.2009
666.2010, 110.2103
666.6831, 111.1965
667.1652, 111.4966
667.6473, 110.4271
668.1295, 109.8026
668.6116, 109.8786
669.0937, 110.3668
669.5758, 110.6116
670.0579, 110.5402
670.5400, 110.9438
671.0222, 112.1342
671.5043, 113.8545
671.9864, 115.8526
672.4685, 118.0136
672.9506, 119.7804
673.4327, 120.3860
673.9149, 120.7642
674.3970, 121.7421
674.8791, 123.2905
675.3612, 125.0086
675.8433, 126.7807
676.3254, 128.6668
676.8076, 130.6518
677.2897, 132.7004
677.7718, 135.1149
678.2539, 138.1473
678.7360, 141.1629
679.2181, 143.5943
679.7003, 145.3051
680.1824, 147.6973
680.6645, 150.8364
681.1466, 154.5085
681.6287, 158.7270
682.1108, 163.3079
682.5930, 167.4754
683.0751, 170.8982
683.5572, 174.6434
684.0393, 180.1891
684.5214, 186.5103
685.0035, 192.1716
685.4857, 195.6139
685.9678, 199.6070
686.4499, 204.9472
686.9320, 211.2588
687.4141, 217.7318
687.8962, 224.2000
688.3784, 231.1047
688.8605, 238.7202
689.3426, 246.7691
689.8247, 254.1835
690.3068, 260.9994
690.7889, 267.8912
691.2711, 275.0253
691.7532, 282.5628
692.2353, 291.0741
692.7174, 300.2985
693.1995, 309.0598
693.6816, 315.9933
694.1638, 322.6548
694.6459, 330.1753
695.1280, 338.6780
695.6101, 347.2422
696.0922, 356.0443
696.5743, 364.5077
697.0565, 372.4635
697.5386, 380.1255
698.0207, 386.6660
698.5028, 391.9676
698.9849, 396.4128
699.4670, 400.4664
699.9492, 404.0636
700.4313, 406.6119
700.9135, 408.0799
701.3956, 408.1607
701.8777, 406.2813
702.3598, 402.8175
702.8419, 398.3494
703.3240, 392.8006
703.8062, 386.7090
704.2883, 381.0087
704.7704, 374.7628
705.2525, 366.7245
705.7346, 355.4687
706.2167, 343.8142
706.6989, 331.7952
707.1810, 319.6598
707.6631, 307.8442
708.1452, 296.5544
708.6273, 285.5970
709.1094, 274.8837
709.5916, 264.5515
710.0737, 255.0318
710.5558, 246.2834
711.0379, 237.6528
711.5200, 228.5633
712.0021, 219.6460
712.4843, 211.1171
712.9664, 203.0236
713.4485, 195.5450
713.9306, 189.0448
714.4127, 182.9734
714.8948, 177.2468
715.3770, 171.7994
715.8591, 166.3543
716.3412, 160.5904
716.8233, 155.4818
717.3054, 151.9115
717.7875, 149.7763
718.2697, 147.0954
718.7518, 143.8112
719.2339, 140.4777
719.7160, 137.3862
720.1981, 134.6263
720.6802, 132.4403
721.1624, 130.9333
721.6445, 129.3365
722.1266, 126.7880
722.6087, 124.2074
723.0908, 122.4494
723.5729, 122.1647
724.0551, 121.7036
724.5372, 120.9679
725.0193, 120.0587
725.5014, 119.0039
725.9835, 117.7203
726.4656, 116.8013
726.9478, 116.3092
727.4299, 116.1698
727.9120, 116.5442
728.3941, 117.2084
728.8762, 117.3562
729.3583, 116.4962
729.8405, 115.6389
730.3226, 115.6678
730.8047, 116.2625
731.2868, 116.8916
731.7689, 117.1647
732.2510, 117.7258
732.7332, 118.9854
733.2153, 120.5680
733.6974, 121.7017
734.1795, 122.1487
734.6616, 122.7773
735.1437, 123.7785
735.6259, 125.1064
736.1080, 126.7194
736.5901, 128.5891
737.0722, 130.4698
737.5543, 132.3665
738.0364, 134.1171
738.5186, 135.3465
739.0007, 136.2188
739.4828, 137.3634
739.9649, 139.3300
740.4470, 141.3593
740.9291, 143.1617
741.4113, 144.7123
741.8934, 146.1091
742.3755, 147.2257
742.8576, 148.4311
743.3397, 149.9607
743.8218, 151.7466
744.3040, 153.2539
744.7861, 154.4718
745.2682, 155.4073
745.7503, 155.7907
746.2324, 156.0103
746.7145, 156.9084
747.1967, 158.4415
747.6788, 159.4758
748.1609, 159.2210
748.6430, 158.3774
749.1251, 157.2672
749.6072, 155.8061
750.0894, 154.7177
750.5715, 154.1205
751.0536, 153.7683
751.5357, 153.7337
752.0178, 154.1250
752.4999, 153.2791
752.9821, 151.0325
753.4642, 148.5953
753.9463, 147.1879
754.4284, 146.4128
754.9105, 145.4859
755.3926, 144.2878
755.8748, 143.0482
756.3569, 141.8853
756.8390, 140.7519
757.3211, 139.6621
757.8032, 139.0099
758.2853, 137.4361
758.7675, 134.1818
759.2496, 130.7148
759.7318, 128.4721
760.2139, 127.6969
760.6960, 126.3777
761.1781, 124.2774
761.6602, 121.9291
762.1423, 119.9791
762.6245, 118.2889
763.1066, 116.5499
763.5887, 114.7403
764.0708, 112.7370
764.5529, 110.2318
765.0350, 107.5969
765.5172, 105.2731
765.9993, 103.3114
766.4814, 101.7786
766.9635, 101.0909
767.4456, 100.4961
767.9277, 98.84374
768.4099, 95.87586
768.8920, 93.47392
769.3741, 91.97693
769.8562, 91.02625
770.3383, 90.36082
770.8204, 89.79517
771.3026, 88.77759
771.7847, 86.88680
772.2668, 84.97551
772.7489, 83.54003
773.2310, 82.48144
773.7131, 81.66100
774.1953, 81.21110
774.6774, 80.79209
775.1595, 80.43485
775.6416, 80.04936
776.1237, 79.39991
776.6058, 78.42399
777.0880, 77.68410
777.5701, 77.38047
778.0522, 77.26504
778.5343, 76.94893
779.0164, 76.47851
779.4985, 75.97238
779.9807, 75.22630
780.4628, 74.77425
780.9449, 75.43361
781.4270, 76.56985
781.9091, 76.87533
782.3912, 75.25584
782.8734, 73.81591
783.3555, 72.83939
783.8376, 72.21800
784.3197, 71.70015
784.8018, 71.27675
785.2839, 71.04073
785.7661, 71.08016
786.2482, 71.23474
786.7303, 71.16816
787.2124, 70.98786
787.6945, 70.99766
788.1766, 71.63362
788.6588, 72.19882
789.1409, 72.43520
789.6230, 72.33294
790.1051, 71.83409
790.5872, 70.34762
791.0693, 69.42828
791.5515, 69.58987
792.0336, 70.41479
792.5157, 70.61088
792.9978, 70.17436
793.4799, 70.00181
793.9620, 70.68518
794.4442, 71.50514
794.9263, 71.21280
795.4084, 70.16895
795.8905, 69.37851
796.3726, 69.62068
796.8547, 69.86570
797.3369, 69.57560
797.8190, 68.92939
798.3011, 68.56580
798.7832, 68.52058
799.2653, 68.73232
799.7474, 69.32677
800.2296, 70.06466
800.7117, 70.20598
801.1938, 69.79881
801.6759, 69.37807
802.1580, 69.28936
802.6401, 69.16968
803.1223, 68.44901
803.6044, 67.35757
804.0865, 66.50741
804.5686, 66.31717
805.0507, 66.18594
805.5328, 65.97910
806.0150, 65.68544
806.4971, 65.23251
806.9792, 64.52306
807.4613, 63.98646
807.9434, 63.80993
808.4255, 63.80129
808.9077, 63.44091
809.3898, 62.82186
809.8719, 62.37138
810.3540, 62.46350
810.8361, 62.59803
811.3182, 62.35408
811.8004, 61.85179
812.2825, 61.37201
812.7646, 60.73857
813.2467, 60.46944
813.7288, 60.89478
814.2109, 61.64584
814.6931, 61.68949
815.1752, 60.93227
815.6573, 60.38079
816.1394, 60.47035
816.6215, 60.67339
817.1037, 59.93470
817.5858, 58.58656
818.0679, 57.48549
818.5500, 57.09341
819.0322, 56.92712
819.5143, 56.87725
819.9964, 56.87383
820.4785, 56.75620
820.9606, 56.35673
821.4427, 56.13975
821.9249, 56.17882
822.4070, 56.43174
822.8891, 56.96178
823.3712, 57.71604
823.8533, 58.07875
824.3354, 57.77498
824.8176, 57.23368
825.2997, 56.84609
825.7818, 56.58404
826.2639, 56.40676
826.7460, 56.74511
827.2281, 56.62435
827.7103, 55.29287
828.1924, 53.62465
828.6745, 52.77732
829.1566, 52.92353
829.6387, 53.28067
830.1208, 53.82420
830.6030, 54.32949
831.0851, 54.23249
831.5672, 53.80627
832.0493, 53.90272
832.5314, 55.01133
833.0135, 55.97874
833.4957, 55.91093
833.9778, 55.29146
834.4599, 54.68238
834.9420, 54.31692
835.4241, 53.74243
835.9063, 52.68020
836.3884, 51.74620
836.8705, 51.83263
837.3526, 52.90641
837.8347, 53.76240
838.3168, 54.26746
838.7990, 54.51081
839.2811, 54.51201
839.7632, 54.35211
840.2453, 54.11043
840.7274, 53.74284
841.2095, 53.49729
841.6917, 53.56611
842.1738, 53.71344
842.6559, 53.73762
843.1380, 53.55773
843.6201, 53.57137
844.1022, 53.83034
844.5844, 54.10442
845.0665, 54.11786
845.5486, 53.98242
846.0307, 54.09737
846.5128, 54.50867
846.9949, 54.69636
847.4771, 53.87362
847.9592, 53.00430
848.4413, 52.90322
848.9234, 53.83802
849.4055, 54.60117
849.8876, 55.11570
850.3698, 55.51025
850.8519, 55.95765
851.3340, 56.41195
851.8161, 56.01633
852.2982, 54.77800
852.7803, 53.75076
853.2625, 53.79912
853.7446, 54.39834
854.2267, 55.08810
854.7088, 55.82704
855.1909, 56.51697
855.6730, 57.34396
856.1552, 57.86117
856.6373, 57.82678
857.1194, 57.31385
857.6015, 56.91698
858.0836, 56.64684
858.5657, 56.38633
859.0479, 55.98669
859.5300, 55.62208
860.0121, 55.69147
860.4942, 56.10451
860.9763, 56.54855
861.4584, 56.74823
861.9406, 57.05677
862.4227, 57.77861
862.9048, 58.75111
863.3869, 59.38794
863.8690, 59.60041
864.3511, 59.69661
864.8333, 59.72220
865.3154, 59.70503
865.7975, 59.65842
866.2796, 59.61100
866.7617, 59.69442
867.2438, 60.01363
867.7260, 60.37782
868.2081, 60.71299
868.6902, 60.97859
869.1723, 61.12011
869.6544, 60.72503
870.1365, 60.81201
870.6187, 61.64653
871.1008, 62.73940
871.5829, 63.43356
872.0650, 63.74267
872.5471, 63.87914
873.0292, 63.82629
873.5114, 63.86460
873.9935, 64.46441
874.4756, 65.24525
874.9577, 65.65718
875.4399, 65.39815
875.9220, 65.41922
876.4041, 66.28861
876.8862, 67.23551
877.3683, 67.73730
877.8505, 67.70451
878.3326, 67.86410
878.8147, 68.24504
879.2968, 68.59686
879.7789, 68.46253
880.2610, 68.25289
880.7432, 68.82535
881.2253, 70.19227
881.7074, 71.28683
882.1895, 71.45906
882.6716, 71.35289
883.1537, 71.18266
883.6359, 70.97832
884.1180, 71.24973
884.6001, 72.10407
885.0822, 72.98891
885.5643, 73.62521
886.0464, 74.11784
886.5286, 74.74531
887.0107, 75.46409
887.4928, 76.09840
887.9749, 76.36503
888.4570, 76.69823
888.9391, 77.43314
889.4213, 78.41370
889.9034, 79.09365
890.3855, 79.19076
890.8676, 79.64393
891.3497, 80.76136
891.8318, 82.15749
892.3140, 83.13342
892.7961, 83.77912
893.2782, 84.42422
893.7603, 85.08636
894.2424, 85.95109
894.7245, 87.43330
895.2067, 89.06438
895.6888, 90.27773
896.1709, 90.50745
896.6530, 91.05073
897.1351, 91.89159
897.6172, 93.06562
898.0994, 94.80178
898.5815, 96.98125
899.0636, 98.61351
899.5457, 99.56011
900.0278, 100.4296
900.5099, 101.8982
900.9921, 103.4091
901.4742, 104.3655
901.9563, 104.5878
902.4384, 105.1398
902.9205, 106.3142
903.4026, 107.5560
903.8848, 108.6572
904.3669, 109.6053
904.8490, 110.3087
905.3311, 110.7743
905.8132, 111.2801
906.2953, 112.0754
906.7775, 112.9363
907.2596, 113.6193
907.7417, 114.1776
908.2238, 114.8226
908.7059, 115.8868
909.1880, 116.6736
909.6702, 116.9298
910.1523, 116.8948
910.6344, 117.1965
911.1165, 117.8245
911.5986, 118.2611
912.0807, 118.3801
912.5629, 118.2190
913.0450, 117.8414
913.5271, 117.2083
914.0092, 116.2020
914.4913, 114.3374
914.9734, 112.9782
915.4556, 112.7313
915.9377, 112.6723
916.4198, 111.9919
916.9019, 110.6665
917.3840, 109.0287
917.8661, 107.0417
918.3483, 105.1996
918.8304, 103.9796
919.3125, 103.1202
919.7946, 102.4116
920.2767, 101.8393
920.7589, 101.0080
921.2410, 99.61378
921.7231, 98.12106
922.2052, 96.71822
922.6873, 95.18845
923.1694, 93.82069
923.6516, 92.04845
924.1337, 90.31144
924.6158, 88.57006
925.0979, 87.07531
925.5800, 86.45220
926.0621, 86.35181
926.5443, 85.89433
927.0264, 84.24726
927.5085, 82.89021
927.9906, 82.25989
928.4727, 81.95980
928.9548, 81.26753
929.4370, 80.16018
929.9191, 79.46553
930.4012, 79.41406
930.8833, 79.45591
931.3654, 78.90663
931.8475, 78.09893
932.3297, 77.49720
932.8118, 77.26962
933.2939, 76.96678
933.7761, 76.05344
934.2582, 75.47697
934.7403, 76.07919
935.2224, 77.91721
935.7045, 78.27968
936.1866, 77.11796
936.6688, 75.91386
937.1509, 75.69254
937.6330, 76.00337
938.1151, 76.50011
938.5972, 77.11113
939.0793, 77.54993
939.5615, 77.67972
940.0436, 77.67848
940.5257, 77.51930
941.0078, 77.30430
941.4899, 77.33081
941.9720, 77.59122
942.4542, 77.85216
942.9363, 77.98855
943.4184, 78.25130
943.9005, 78.91081
944.3826, 79.86452
944.8647, 81.02845
945.3469, 82.74288
945.8290, 83.91929
946.3111, 84.27421
946.7932, 84.35635
947.2753, 84.59319
947.7574, 84.98389
948.2396, 85.38393
948.7217, 85.78854
949.2038, 86.43479
949.6859, 87.71442
950.1680, 89.16579
950.6501, 90.55269
951.1323, 91.82007
951.6144, 92.39709
952.0965, 91.74435
952.5786, 91.24670
953.0607, 91.36060
953.5428, 91.89136
954.0250, 92.37283
954.5071, 92.77322
954.9892, 92.88345
955.4713, 92.46411
955.9534, 91.99589
956.4355, 91.86806
956.9177, 91.90706
957.3998, 91.86124
957.8819, 91.69336
958.3640, 91.50122
958.8461, 91.42698
959.3282, 91.04035
959.8104, 89.52386
960.2925, 87.32339
960.7746, 86.12273
961.2567, 86.05149
961.7388, 86.11242
962.2209, 85.94913
962.7031, 85.44538
963.1852, 84.26263
963.6673, 82.47707
964.1494, 81.47816
964.6315, 81.51879
965.1136, 81.50982
965.5958, 81.06119
966.0779, 80.28406
966.5600, 79.23069
967.0421, 78.03381
967.5242, 77.09842
968.0063, 76.92825
968.4885, 76.55498
968.9706, 75.33256
969.4527, 73.86097
969.9348, 72.83309
970.4169, 72.30042
970.8990, 72.11305
971.3812, 72.35740
971.8633, 72.41395
972.3454, 71.29028
972.8275, 69.76965
973.3096, 69.17284
973.7917, 69.60411
974.2739, 69.68153
974.7560, 68.28264
975.2381, 67.14467
975.7202, 67.06403
976.2023, 67.77694
976.6844, 67.92493
977.1666, 67.51591
977.6487, 67.08512
978.1308, 66.86863
978.6129, 66.70316
979.0950, 66.40958
979.5771, 66.05030
980.0593, 65.72558
980.5414, 65.38500
981.0235, 65.22319
981.5056, 65.38035
981.9877, 65.51934
982.4698, 65.14986
982.9520, 64.40693
983.4341, 64.28827
983.9162, 64.84714
984.3983, 65.24582
984.8804, 64.51070
985.3625, 63.69845
985.8447, 63.69071
986.3268, 64.48017
986.8089, 64.92784
987.2910, 64.95528
987.7731, 64.83686
988.2552, 64.61658
988.7374, 64.36228
989.2195, 64.15662
989.7016, 64.03451
990.1837, 64.10961
990.6658, 64.54371
991.1479, 64.93448
991.6301, 65.24100
992.1122, 65.32957
992.5944, 64.99932
993.0765, 64.09807
993.5586, 63.65461
994.0407, 63.70268
994.5228, 64.01378
995.0049, 64.60946
995.4871, 65.23077
995.9692, 65.55174
996.4513, 65.57574
996.9334, 65.44047
997.4155, 64.90427
997.8976, 64.57738
998.3798, 64.65767
998.8619, 64.99854
999.3440, 65.31574
999.8261, 65.59568
1000.308, 65.65911
1000.790, 65.37678
1001.272, 65.14765
1001.755, 65.45237
1002.237, 65.90533
1002.719, 66.07020
1003.201, 65.76859
1003.683, 65.56660
1004.165, 65.44970
1004.647, 65.46680
1005.129, 65.82359
1005.612, 66.30419
1006.094, 66.17094
1006.576, 65.54842
1007.058, 65.01626
1007.540, 64.61105
1008.022, 64.65070
1008.504, 65.73585
1008.986, 67.17528
1009.468, 67.73856
1009.951, 67.30141
1010.433, 66.90089
1010.915, 66.63995
1011.397, 66.69338
1011.879, 67.61191
1012.361, 68.76257
1012.843, 69.31544
1013.325, 69.07420
1013.807, 68.85110
1014.290, 68.81471
1014.772, 68.78895
1015.254, 68.77206
1015.736, 68.68648
1016.218, 67.96037
1016.700, 66.76384
1017.182, 66.09654
1017.664, 66.78999
1018.147, 67.64455
1018.629, 67.80406
1019.111, 67.67826
1019.593, 67.96203
1020.075, 69.02296
1020.557, 69.39233
1021.039, 68.90832
1021.521, 68.13560
1022.003, 67.42883
1022.486, 66.87779
1022.968, 66.81089
1023.450, 67.17490
1023.932, 67.25257
1024.414, 66.31984
1024.896, 65.58215
1025.378, 65.51516
1025.860, 65.86599
1026.343, 65.96000
1026.825, 65.80119
1027.307, 65.42287
1027.789, 64.76399
1028.271, 64.11492
1028.753, 63.62948
1029.235, 63.35342
1029.717, 63.44563
1030.199, 64.21299
1030.682, 64.19595
1031.164, 63.13589
1031.646, 62.00998
1032.128, 61.35447
1032.610, 61.09427
1033.092, 61.30867
1033.574, 61.80107
1034.056, 61.84100
1034.539, 60.41840
1035.021, 59.32309
1035.503, 59.23928
1035.985, 59.69845
1036.467, 60.21724
1036.949, 60.80133
1037.431, 61.00463
1037.913, 60.75021
1038.396, 60.38278
1038.878, 60.17717
1039.360, 60.02683
1039.842, 59.74819
1040.324, 59.33992
1040.806, 59.32625
1041.288, 59.89806
1041.770, 60.46320
1042.252, 60.85815
1042.734, 61.11412
1043.217, 61.14083
1043.699, 61.09710
1044.181, 61.43023
1044.663, 62.44641
1045.145, 63.45874
1045.627, 64.46965
1046.109, 65.13979
1046.591, 65.03473
1047.074, 64.09623
1047.556, 64.04900
1048.038, 64.89572
1048.520, 65.72059
1049.002, 65.69030
1049.484, 65.56401
1049.966, 66.23955
1050.448, 67.34922
1050.931, 67.78651
1051.413, 67.03151
1051.895, 66.54510
1052.377, 66.48460
1052.859, 66.73524
1053.341, 67.33308
1053.823, 68.09244
1054.305, 68.58576
1054.787, 68.76298
1055.270, 68.88956
1055.752, 69.18787
1056.234, 69.32262
1056.716, 69.01404
1057.198, 68.47365
1057.680, 68.61079
1058.162, 69.38345
1058.644, 70.18410
1059.126, 70.92082
1059.609, 71.35720
1060.091, 71.01762
1060.573, 70.39955
1061.055, 70.07342
1061.537, 70.16515
1062.019, 70.25162
1062.501, 70.32270
1062.983, 70.42976
1063.466, 70.63989
1063.948, 70.89079
1064.430, 71.28136
1064.912, 71.62914
1065.394, 71.38355
1065.876, 69.10817
1066.358, 67.97105
1066.840, 69.04259
1067.323, 70.75684
1067.805, 71.06751
1068.287, 70.20441
1068.769, 69.80892
1069.251, 70.01151
1069.733, 70.28877
1070.215, 70.29630
1070.697, 70.23409
1071.179, 70.30287
1071.661, 70.42249
1072.144, 70.11549
1072.626, 69.25230
1073.108, 68.92692
1073.590, 69.55425
1074.072, 70.42129
1074.554, 70.64803
1075.036, 70.55523
1075.518, 70.61536
1076.001, 71.02673
1076.483, 70.98227
1076.965, 70.18134
1077.447, 69.44217
1077.929, 69.14764
1078.411, 69.24609
1078.893, 69.74485
1079.375, 70.52039
1079.858, 71.17667
1080.340, 71.68070
1080.822, 71.86110
1081.304, 71.32467
1081.786, 70.67818
1082.268, 70.54357
1082.750, 70.93650
1083.232, 70.82047
1083.714, 70.18002
1084.197, 69.86497
1084.679, 71.07912
1085.161, 72.30428
1085.643, 72.00413
1086.125, 70.76994
1086.607, 70.71478
1087.089, 72.37888
1087.571, 73.38538
1088.054, 73.26907
1088.536, 72.87284
1089.018, 73.34201
1089.500, 74.09016
1089.982, 74.12984
1090.464, 73.34290
1090.946, 72.92102
1091.428, 73.12154
1091.911, 73.71204
1092.393, 74.83038
1092.875, 76.07619
1093.357, 76.34761
1093.839, 75.92665
1094.321, 75.68566
1094.803, 75.85445
1095.285, 76.26840
1095.767, 76.77544
1096.250, 77.59843
1096.732, 79.04477
1097.214, 81.04158
1097.696, 82.17078
1098.178, 82.48055
1098.660, 82.88721
1099.142, 84.15456
1099.624, 85.36259
1100.106, 85.60645
1100.589, 85.41196
1101.071, 85.63428
1101.553, 86.46182
1102.035, 87.21365
1102.517, 87.88439
1102.999, 88.44917
1103.481, 88.76449
1103.963, 89.03550
1104.446, 89.50746
1104.928, 90.17004
1105.410, 90.96310
1105.892, 91.95515
1106.374, 92.95617
1106.856, 94.03970
1107.338, 94.93226
1107.820, 95.02742
1108.302, 94.70351
1108.785, 95.02853
1109.267, 96.11883
1109.749, 96.90351
1110.231, 96.40666
1110.713, 96.16676
1111.195, 97.03252
1111.677, 98.36462
1112.159, 98.16702
1112.641, 96.70540
1113.124, 95.61877
1113.606, 95.32887
1114.088, 95.39917
1114.570, 96.18176
1115.052, 96.66092
1115.534, 95.75396
1116.016, 93.57408
1116.498, 92.56123
1116.981, 92.74837
1117.463, 92.84148
1117.945, 92.19650
1118.427, 91.33496
1118.909, 90.74747
1119.391, 90.28605
1119.873, 89.78422
1120.355, 89.41582
1120.838, 88.30894
1121.320, 86.29137
1121.802, 84.27331
1122.284, 82.82687
1122.766, 81.81733
1123.248, 81.27700
1123.730, 80.96684
1124.212, 80.24216
1124.694, 78.25277
1125.177, 76.88330
1125.659, 76.49358
1126.141, 76.29678
1126.623, 75.39108
1127.105, 74.04044
1127.587, 72.94481
1128.069, 72.10485
1128.551, 71.25003
1129.033, 70.28349
1129.516, 69.23948
1129.998, 68.03554
1130.480, 66.85952
1130.962, 66.12614
1131.444, 65.72086
1131.926, 64.97908
1132.408, 63.79688
1132.890, 62.56067
1133.373, 61.50542
1133.855, 60.46975
1134.337, 59.34197
1134.819, 58.16206
1135.301, 57.05176
1135.783, 56.02298
1136.265, 55.22480
1136.747, 54.78968
1137.229, 54.19892
1137.712, 52.69556
1138.194, 51.06633
1138.676, 50.09458
1139.158, 49.78280
1139.640, 49.26009
1140.122, 48.48232
1140.604, 47.90023
1141.086, 47.79109
1141.569, 47.77240
1142.051, 47.50351
1142.533, 47.00747
1143.015, 46.25174
1143.497, 45.06646
1143.979, 44.24169
1144.461, 43.82282
1144.943, 43.61729
1145.426, 43.67167
1145.908, 43.73997
1146.390, 43.35709
1146.872, 42.69651
1147.354, 42.11523
1147.836, 41.53838
1148.318, 41.43050
1148.800, 42.04362
1149.282, 42.55340
1149.765, 42.11706
1150.247, 41.12480
1150.729, 40.23870
1151.211, 39.55951
1151.693, 39.38851
1152.175, 40.38966
1152.657, 41.16839
1153.139, 41.54384
1153.621, 41.56244
1154.104, 41.04723
1154.586, 40.23657
1155.068, 40.09072
1155.550, 40.58717
1156.032, 40.81236
1156.514, 39.95152
1156.996, 39.19289
1157.478, 38.87389
1157.961, 38.89363
1158.443, 39.28424
1158.925, 39.90588
1159.407, 39.81846
1159.889, 38.86880
1160.371, 38.09147
1160.853, 38.27337
1161.335, 38.63914
1161.818, 38.85765
1162.300, 38.92282
1162.782, 38.77462
1163.264, 38.43256
1163.746, 38.11213
1164.228, 37.84301
1164.710, 37.69851
1165.192, 37.78235
1165.674, 37.97396
1166.156, 38.28617
1166.639, 38.64788
1167.121, 38.46670
1167.603, 37.74901
1168.085, 37.39880
1168.567, 37.88260
1169.049, 38.27782
1169.531, 37.49363
1170.013, 36.43103
1170.496, 36.01020
1170.978, 36.25346
1171.460, 36.62141
1171.942, 37.12727
1172.424, 37.54437
1172.906, 37.75880
1173.388, 37.85880
1173.870, 37.89915
1174.353, 37.89138
1174.835, 37.85374
1175.317, 37.80132
1175.799, 37.63019
1176.281, 37.31657
1176.763, 37.06406
1177.245, 36.93843
1177.727, 36.98360
1178.209, 37.41446
1178.692, 37.99353
1179.174, 38.29885
1179.656, 38.15088
1180.138, 38.11406
1180.620, 38.21442
1181.102, 38.28889
1181.584, 38.13281
1182.066, 37.94963
1182.548, 38.16691
1183.031, 37.83632
1183.513, 37.53271
1183.995, 37.44548
1184.477, 36.81303
1184.959, 36.64467
1185.441, 36.64564
1185.923, 36.53096
1186.405, 36.67593
1186.888, 36.65239
1187.370, 37.07317
1187.852, 37.41563
1188.334, 37.72138
1188.816, 37.70370
1189.298, 37.25166
1189.780, 36.75752
1190.262, 36.59157
1190.745, 36.66458
1191.227, 37.05818
1191.709, 37.62959
1192.191, 37.60712
1192.673, 36.21838
1193.155, 35.53546
1193.637, 36.03188
1194.119, 36.75840
1194.601, 36.51313
1195.084, 35.77721
1195.566, 35.24036
1196.048, 34.96338
1196.530, 34.93060
1197.012, 35.19963
1197.494, 35.58645
1197.976, 36.10363
1198.458, 36.61611
1198.941, 37.03244
1199.423, 37.26469
1199.905, 36.97095
1200.387, 36.14511
1200.869, 35.85535
1201.351, 36.57684
1201.833, 37.31351
1202.315, 37.91818
1202.797, 38.23598
1203.280, 37.71639
1203.762, 36.85369
1204.244, 36.61687
1204.726, 37.19174
1205.208, 37.39757
1205.690, 36.80323
1206.172, 36.30240
1206.654, 36.15044
1207.136, 36.24072
1207.619, 36.56861
1208.101, 36.93253
1208.583, 36.85361
1209.065, 36.12957
1209.547, 36.01619
1210.029, 37.15250
1210.511, 37.82588
1210.993, 37.22046
1211.476, 36.15343
1211.958, 36.05549
1212.440, 36.60423
1212.922, 37.36428
1213.404, 38.41825
1213.886, 38.71289
1214.368, 38.00330
1214.850, 36.91518
1215.333, 35.43439
1215.815, 34.13588
1216.297, 34.29288
1216.779, 35.32146
1217.261, 36.17320
1217.743, 36.57550
1218.225, 37.06836
1218.707, 37.90642
1219.189, 38.26485
1219.672, 37.55648
1220.154, 36.40293
1220.636, 35.80165
1221.118, 35.63594
1221.600, 35.74260
1222.082, 36.22507
1222.564, 36.52208
1223.046, 36.55428
1223.528, 36.56335
1224.011, 36.67716
1224.493, 36.83865
1224.975, 37.06909
1225.457, 37.23759
1225.939, 37.06378
1226.421, 36.16765
1226.903, 35.86487
1227.385, 36.28070
1227.868, 36.90393
1228.350, 37.72621
1228.832, 38.28181
1229.314, 37.44199
1229.796, 35.96685
1230.278, 35.16838
1230.760, 35.50394
1231.242, 36.03827
1231.724, 36.87868
1232.207, 37.40627
1232.689, 36.93444
1233.171, 36.29008
1233.653, 36.71151
1234.135, 37.64872
1234.617, 38.18251
1235.099, 38.17232
1235.581, 37.78896
1236.063, 36.96313
1236.546, 36.27339
1237.028, 36.27872
1237.510, 36.39941
1237.992, 35.71193
1238.474, 34.83920
1238.956, 34.97819
1239.438, 36.63805
1239.920, 37.11806
1240.403, 36.32006
1240.885, 35.60215
1241.367, 35.95449
1241.849, 36.63123
1242.331, 37.25021
1242.813, 37.63821
1243.295, 37.43957
1243.777, 36.41782
1244.260, 36.30219
1244.742, 37.09050
1245.224, 37.84643
1245.706, 38.07402
1246.188, 37.98296
1246.670, 37.58659
1247.152, 37.01869
1247.634, 36.43254
1248.116, 35.79833
1248.599, 35.49650
1249.081, 35.51849
1249.563, 35.69980
1250.045, 36.14329
1250.527, 36.48627
1251.009, 36.23590
1251.491, 36.01638
1251.973, 36.60381
1252.455, 37.94240
1252.938, 38.79944
1253.420, 39.15964
1253.902, 39.05384
1254.384, 37.86769
1254.866, 37.03286
1255.348, 37.30293
1255.830, 37.90142
1256.313, 38.19075
1256.795, 38.21571
1257.277, 38.31959
1257.759, 38.44395
1258.241, 38.28403
1258.723, 37.09483
1259.205, 36.51194
1259.687, 37.10864
1260.169, 37.93791
1260.651, 38.21113
1261.134, 38.04317
1261.616, 37.64759
1262.098, 37.12798
1262.580, 36.81427
1263.062, 36.85539
1263.544, 37.15827
1264.026, 37.92287
1264.508, 38.44448
1264.991, 37.73895
1265.473, 36.59752
1265.955, 36.81587
1266.437, 36.36842
1266.919, 36.12566
1267.401, 36.76313
1267.883, 36.37658
1268.365, 37.39403
1268.848, 38.55412
1269.330, 38.86292
1269.812, 38.77037
1270.294, 38.83147
1270.776, 38.94730
1271.258, 38.87350
1271.740, 38.53319
1272.222, 38.18164
1272.704, 37.80957
1273.187, 37.55476
1273.669, 37.62181
1274.151, 37.73915
1274.633, 37.57639
1275.115, 37.35313
1275.597, 37.45864
1276.079, 37.98829
1276.561, 38.18933
1277.043, 38.06451
1277.526, 37.81224
1278.008, 37.35644
1278.490, 37.03846
1278.972, 37.15048
1279.454, 37.44930
1279.936, 37.70011
1280.418, 37.90078
1280.900, 38.14159
1281.383, 38.39350
1281.865, 38.47760
1282.347, 38.09455
1282.829, 37.83633
1283.311, 38.13588
1283.793, 38.33944
1284.275, 37.69628
1284.757, 36.57236
1285.240, 36.77350
1285.722, 37.86278
1286.204, 38.40111
1286.686, 37.34425
1287.168, 36.57258
1287.650, 36.25201
1288.132, 36.34090
1288.614, 37.08673
1289.096, 38.02818
1289.578, 38.10401
1290.061, 37.66822
1290.543, 37.47424
1291.025, 38.04050
1291.507, 37.88408
1291.989, 36.78983
1292.471, 35.98982
1292.953, 36.39372
1293.435, 37.19453
1293.918, 37.49580
1294.400, 37.53252
1294.882, 37.64847
1295.364, 37.87598
1295.846, 38.10693
1296.328, 38.34409
1296.810, 38.48346
1297.292, 38.52304
1297.775, 38.35552
1298.257, 37.64400
1298.739, 36.90376
1299.221, 36.60986
1299.703, 36.72536
1300.185, 36.99385
1300.667, 37.37163
1301.149, 37.58362
1301.631, 37.46679
1302.114, 37.30635
1302.596, 37.22680
##END=



