##NAMES=Nagelschmidtite
##RRUFFID=R070032
##IDEAL CHEMISTRY=Ca_7_(SiO_4_)_2_(PO_4_)_2_
##LOCALITY=Hatrurium Formation, Negev Desert, southern Israel
##OWNER=RRUFF
##SOURCE=Michael Scott
##DESCRIPTION=
##STATUS=The identification of this mineral is not yet confirmed.
##URL=rruff.info/R070032
177.6628, 84958.21
178.1450, 85189.56
178.6271, 85373.13
179.1092, 85540.45
179.5913, 85744.90
180.0734, 85972.55
180.5555, 86169.13
181.0376, 86267.34
181.5198, 86309.93
182.0019, 86405.27
182.4840, 86572.06
182.9661, 86784.20
183.4482, 87017.09
183.9303, 87269.87
184.4125, 87502.95
184.8946, 87675.24
185.3767, 87801.63
185.8588, 87948.93
186.3409, 88140.06
186.8230, 88349.84
187.3052, 88521.59
187.7873, 88654.30
188.2694, 88762.34
188.7515, 88829.75
189.2336, 88866.92
189.7157, 88960.73
190.1979, 89162.34
190.6800, 89431.89
191.1621, 89617.13
191.6442, 89708.05
192.1263, 89769.11
192.6084, 89865.23
193.0906, 89996.13
193.5727, 90135.57
194.0548, 90287.77
194.5369, 90446.09
195.0190, 90550.84
195.5011, 90588.38
195.9832, 90610.94
196.4654, 90687.23
196.9475, 90819.85
197.4296, 90978.14
197.9117, 91167.39
198.3938, 91387.91
198.8759, 91548.72
199.3581, 91632.30
199.8402, 91680.89
200.3223, 91778.44
200.8044, 91937.40
201.2865, 92080.78
201.7686, 92152.23
202.2508, 92139.45
202.7329, 92186.48
203.2150, 92312.63
203.6971, 92490.06
204.1792, 92657.19
204.6613, 92814.81
205.1435, 92959.38
205.6256, 93084.18
206.1077, 93182.95
206.5898, 93296.13
207.0719, 93441.27
207.5540, 93598.94
208.0362, 93683.75
208.5183, 93663.33
209.0004, 93645.51
209.4825, 93717.61
209.9646, 93906.44
210.4467, 94068.59
210.9289, 94173.29
211.4110, 94232.98
211.8931, 94341.09
212.3752, 94524.52
212.8573, 94706.15
213.3394, 94813.12
213.8215, 94815.27
214.3037, 94830.88
214.7858, 94878.07
215.2679, 94956.48
215.7500, 95060.54
216.2321, 95198.92
216.7142, 95349.37
217.1964, 95487.43
217.6785, 95602.63
218.1606, 95729.61
218.6427, 95884.58
219.1248, 96068.78
219.6069, 96223.86
220.0891, 96339.77
220.5712, 96436.78
221.0533, 96544.08
221.5354, 96673.84
222.0175, 96786.23
222.4996, 96861.91
222.9818, 96893.61
223.4639, 96945.45
223.9460, 97019.15
224.4281, 97111.87
224.9102, 97227.89
225.3923, 97392.49
225.8745, 97531.76
226.3566, 97605.63
226.8387, 97581.66
227.3208, 97630.30
227.8029, 97785.34
228.2850, 97993.86
228.7672, 98156.80
229.2493, 98266.39
229.7314, 98345.27
230.2135, 98392.34
230.6956, 98379.58
231.1777, 98416.40
231.6599, 98517.70
232.1420, 98663.04
232.6241, 98807.77
233.1062, 98961.58
233.5883, 99099.62
234.0704, 99211.85
234.5526, 99286.47
235.0347, 99356.19
235.5168, 99411.83
235.9989, 99464.13
236.4810, 99547.20
236.9631, 99680.84
237.4453, 99816.93
237.9274, 99928.88
238.4095, 99989.27
238.8916, 100086.3
239.3737, 100249.9
239.8558, 100451.4
240.3380, 100586.8
240.8201, 100620.5
241.3022, 100635.8
241.7843, 100673.1
242.2664, 100729.3
242.7485, 100817.7
243.2307, 100959.4
243.7128, 101136.2
244.1949, 101263.6
244.6770, 101315.1
245.1591, 101352.0
245.6412, 101408.2
246.1233, 101482.4
246.6055, 101582.4
247.0876, 101731.3
247.5697, 101913.4
248.0518, 102022.3
248.5339, 102011.0
249.0160, 101990.3
249.4982, 102036.8
249.9803, 102186.1
250.4624, 102326.0
250.9445, 102443.1
251.4266, 102539.6
251.9087, 102636.0
252.3909, 102737.5
252.8730, 102832.1
253.3551, 102905.7
253.8372, 102940.3
254.3193, 102998.0
254.8014, 103093.8
255.2836, 103222.1
255.7657, 103339.6
256.2478, 103447.2
256.7299, 103542.9
257.2120, 103621.8
257.6941, 103670.0
258.1762, 103738.4
258.6584, 103847.5
259.1405, 103990.2
259.6226, 104088.4
260.1047, 104125.8
260.5868, 104144.2
261.0689, 104170.6
261.5511, 104189.3
262.0332, 104264.6
262.5153, 104439.8
262.9974, 104695.2
263.4795, 104839.8
263.9616, 104824.3
264.4438, 104777.6
264.9259, 104819.2
265.4080, 104981.1
265.8901, 105124.0
266.3722, 105218.5
266.8543, 105268.8
267.3365, 105322.9
267.8186, 105383.7
268.3007, 105442.3
268.7828, 105477.8
269.2649, 105472.1
269.7470, 105521.6
270.2292, 105663.4
270.7113, 105885.6
271.1934, 106063.7
271.6755, 106199.7
272.1576, 106289.7
272.6397, 106308.8
273.1219, 106234.9
273.6040, 106212.4
274.0861, 106287.5
274.5682, 106444.6
275.0503, 106554.0
275.5324, 106605.7
276.0146, 106641.0
276.4967, 106682.8
276.9788, 106725.2
277.4609, 106837.0
277.9430, 107071.3
278.4251, 107390.1
278.9073, 107561.7
279.3894, 107556.3
279.8715, 107512.3
280.3536, 107558.1
280.8357, 107696.2
281.3178, 107850.3
281.8000, 108010.9
282.2821, 108172.8
282.7642, 108322.2
283.2463, 108460.8
283.7284, 108570.4
284.2105, 108615.9
284.6927, 108600.9
285.1748, 108606.8
285.6569, 108654.5
286.1390, 108736.2
286.6211, 108843.3
287.1032, 108981.7
287.5853, 109095.8
288.0674, 109105.0
288.5496, 109027.0
289.0317, 109006.2
289.5138, 109092.8
289.9959, 109247.9
290.4780, 109384.7
290.9601, 109503.6
291.4423, 109609.1
291.9244, 109698.4
292.4065, 109776.0
292.8886, 109861.5
293.3707, 109970.3
293.8528, 110080.2
294.3350, 110140.2
294.8171, 110152.0
295.2992, 110166.7
295.7813, 110237.0
296.2634, 110344.0
296.7455, 110430.3
297.2277, 110472.0
297.7098, 110500.7
298.1919, 110573.9
298.6740, 110686.7
299.1561, 110789.5
299.6382, 110819.0
300.1204, 110815.7
300.6025, 110861.7
301.0846, 110995.2
301.5667, 111156.0
302.0488, 111281.3
302.5309, 111373.7
303.0131, 111451.3
303.4952, 111509.0
303.9773, 111564.3
304.4594, 111646.1
304.9415, 111779.5
305.4236, 111909.3
305.9058, 111976.1
306.3879, 111993.2
306.8700, 112007.2
307.3521, 112033.9
307.8342, 112077.4
308.3163, 112146.8
308.7985, 112256.7
309.2806, 112366.2
309.7627, 112439.1
310.2448, 112487.8
310.7269, 112544.4
311.2090, 112627.1
311.6912, 112723.4
312.1733, 112825.0
312.6554, 112935.0
313.1375, 113038.1
313.6196, 113115.5
314.1017, 113180.2
314.5839, 113261.9
315.0660, 113392.0
315.5481, 113529.6
316.0302, 113654.4
316.5123, 113769.2
316.9944, 113857.8
317.4766, 113892.9
317.9587, 113900.5
318.4408, 113924.8
318.9229, 113977.7
319.4050, 114052.0
319.8871, 114157.8
320.3692, 114315.4
320.8513, 114430.2
321.3335, 114437.6
321.8156, 114400.5
322.2977, 114405.0
322.7798, 114469.8
323.2619, 114575.7
323.7440, 114741.0
324.2262, 114993.3
324.7083, 115174.2
325.1904, 115203.0
325.6725, 115177.0
326.1546, 115204.2
326.6367, 115365.0
327.1189, 115503.5
327.6010, 115573.4
328.0831, 115561.0
328.5652, 115593.3
329.0473, 115697.8
329.5294, 115830.2
330.0116, 115952.4
330.4937, 116078.1
330.9758, 116171.2
331.4579, 116212.9
331.9400, 116204.7
332.4221, 116215.3
332.9043, 116230.8
333.3864, 116280.1
333.8685, 116397.7
334.3506, 116626.5
334.8327, 116820.8
335.3148, 116962.8
335.7970, 117053.2
336.2791, 117102.9
336.7612, 117096.0
337.2433, 117079.5
337.7254, 117079.1
338.2076, 117090.1
338.6897, 117143.6
339.1718, 117254.9
339.6539, 117404.2
340.1360, 117551.4
340.6181, 117702.3
341.1003, 117817.0
341.5824, 117835.8
342.0645, 117758.2
342.5466, 117778.4
343.0287, 117943.3
343.5108, 118164.3
343.9930, 118263.3
344.4751, 118239.3
344.9572, 118195.6
345.4393, 118165.6
345.9214, 118157.2
346.4035, 118225.2
346.8857, 118392.1
347.3678, 118570.1
347.8499, 118625.7
348.3320, 118578.8
348.8141, 118535.4
349.2962, 118530.2
349.7784, 118566.8
350.2605, 118673.0
350.7426, 118857.6
351.2247, 119034.5
351.7068, 119091.5
352.1889, 119075.3
352.6710, 119092.5
353.1531, 119222.1
353.6353, 119389.5
354.1174, 119519.0
354.5995, 119610.0
355.0816, 119672.7
355.5637, 119704.5
356.0458, 119714.8
356.5280, 119713.6
357.0101, 119659.7
357.4922, 119636.0
357.9743, 119724.2
358.4564, 119906.7
358.9385, 120070.7
359.4207, 120141.3
359.9028, 120176.4
360.3849, 120224.9
360.8670, 120331.0
361.3491, 120409.2
361.8312, 120385.2
362.3134, 120299.5
362.7955, 120282.9
363.2776, 120452.7
363.7597, 120645.7
364.2418, 120776.1
364.7239, 120805.4
365.2061, 120823.6
365.6882, 120815.3
366.1703, 120806.8
366.6524, 120851.1
367.1345, 121023.8
367.6166, 121186.2
368.0988, 121296.6
368.5809, 121345.4
369.0630, 121368.6
369.5451, 121325.1
370.0272, 121275.8
370.5093, 121304.1
370.9915, 121465.9
371.4736, 121619.1
371.9557, 121726.0
372.4378, 121783.9
372.9199, 121854.1
373.4020, 121933.3
373.8842, 122029.9
374.3663, 122170.3
374.8484, 122393.4
375.3305, 122521.0
375.8126, 122485.3
376.2947, 122326.6
376.7769, 122252.9
377.2590, 122270.4
377.7411, 122346.5
378.2232, 122498.0
378.7053, 122726.8
379.1874, 122835.2
379.6696, 122755.8
380.1517, 122600.7
380.6338, 122617.1
381.1159, 122802.3
381.5980, 123000.8
382.0801, 123096.6
382.5623, 123125.3
383.0444, 123220.5
383.5265, 123409.5
384.0086, 123600.8
384.4907, 123658.7
384.9728, 123618.1
385.4549, 123597.1
385.9370, 123686.6
386.4192, 123814.6
386.9013, 123874.7
387.3834, 123860.3
387.8655, 123839.7
388.3476, 123859.5
388.8297, 123909.0
389.3119, 123972.0
389.7940, 124061.8
390.2761, 124148.3
390.7582, 124198.8
391.2403, 124219.8
391.7224, 124263.4
392.2046, 124391.8
392.6867, 124534.3
393.1688, 124629.7
393.6509, 124608.5
394.1330, 124612.2
394.6151, 124717.6
395.0973, 124887.9
395.5794, 125007.1
396.0615, 125023.1
396.5436, 125004.0
397.0257, 124965.3
397.5078, 124848.2
397.9900, 124839.8
398.4721, 125051.5
398.9542, 125354.7
399.4363, 125553.4
399.9184, 125587.0
400.4005, 125588.9
400.8827, 125575.1
401.3648, 125536.5
401.8469, 125567.3
402.3290, 125714.5
402.8111, 125879.5
403.2932, 125951.9
403.7754, 125888.3
404.2575, 125866.7
404.7396, 125929.2
405.2217, 126059.4
405.7038, 126176.6
406.1859, 126281.2
406.6681, 126371.4
407.1502, 126431.2
407.6323, 126461.6
408.1144, 126541.8
408.5965, 126700.5
409.0786, 126878.4
409.5608, 126946.7
410.0429, 126914.8
410.5250, 126892.9
411.0071, 126960.3
411.4892, 127082.2
411.9713, 127170.2
412.4535, 127216.8
412.9356, 127256.5
413.4177, 127321.4
413.8998, 127406.7
414.3819, 127500.3
414.8640, 127609.9
415.3462, 127717.6
415.8283, 127816.1
416.3104, 127904.5
416.7925, 127966.2
417.2746, 127959.0
417.7567, 127935.8
418.2388, 127951.4
418.7209, 128056.9
419.2031, 128155.6
419.6852, 128181.5
420.1673, 128163.7
420.6494, 128185.6
421.1315, 128300.7
421.6136, 128439.5
422.0958, 128574.3
422.5779, 128717.5
423.0600, 128822.0
423.5421, 128859.7
424.0242, 128861.7
424.5063, 128872.3
424.9885, 128859.5
425.4706, 128896.0
425.9527, 129017.9
426.4348, 129234.8
426.9169, 129387.1
427.3990, 129436.8
427.8812, 129469.0
428.3633, 129566.3
428.8454, 129759.8
429.3275, 129903.8
429.8096, 129966.6
430.2917, 129972.7
430.7739, 129994.8
431.2560, 130032.8
431.7381, 130089.2
432.2202, 130183.1
432.7023, 130306.7
433.1844, 130376.5
433.6666, 130374.7
434.1487, 130363.4
434.6308, 130435.8
435.1129, 130578.7
435.5950, 130723.1
436.0771, 130864.2
436.5593, 130980.1
437.0414, 131013.1
437.5235, 130965.4
438.0056, 130926.0
438.4877, 130975.4
438.9698, 131072.1
439.4520, 131157.2
439.9341, 131203.5
440.4162, 131249.5
440.8983, 131337.4
441.3804, 131448.4
441.8625, 131524.3
442.3447, 131481.4
442.8268, 131438.0
443.3089, 131463.9
443.7910, 131579.5
444.2731, 131729.1
444.7552, 131941.8
445.2374, 132170.7
445.7195, 132350.0
446.2016, 132462.7
446.6837, 132536.5
447.1658, 132549.2
447.6479, 132499.3
448.1301, 132530.1
448.6122, 132685.4
449.0943, 132874.0
449.5764, 133032.0
450.0585, 133153.6
450.5406, 133263.3
451.0227, 133357.6
451.5049, 133443.7
451.9870, 133551.6
452.4691, 133690.6
452.9512, 133796.1
453.4333, 133808.4
453.9154, 133740.3
454.3976, 133734.6
454.8797, 133796.9
455.3618, 133902.6
455.8439, 134052.9
456.3260, 134230.0
456.8081, 134352.3
457.2903, 134371.7
457.7724, 134340.7
458.2545, 134327.0
458.7366, 134329.8
459.2187, 134342.1
459.7008, 134357.8
460.1830, 134381.4
460.6651, 134421.5
461.1472, 134488.8
461.6293, 134547.6
462.1114, 134564.4
462.5935, 134559.5
463.0757, 134569.3
463.5578, 134613.0
464.0399, 134668.0
464.5220, 134736.2
465.0041, 134821.1
465.4862, 134872.0
465.9684, 134856.8
466.4505, 134819.1
466.9326, 134791.8
467.4147, 134749.2
467.8968, 134758.0
468.3789, 134856.3
468.8611, 135008.3
469.3432, 135081.4
469.8253, 135026.6
470.3074, 134990.5
470.7895, 135048.5
471.2716, 135213.2
471.7538, 135364.6
472.2359, 135511.1
472.7180, 135624.4
473.2001, 135649.4
473.6822, 135589.3
474.1643, 135544.9
474.6465, 135555.0
475.1286, 135593.0
475.6107, 135567.0
476.0928, 135486.7
476.5749, 135475.1
477.0570, 135710.8
477.5392, 136049.9
478.0213, 136248.4
478.5034, 136243.0
478.9855, 136176.6
479.4676, 136111.2
479.9497, 136071.6
480.4319, 136103.2
480.9140, 136327.1
481.3961, 136540.8
481.8782, 136619.3
482.3603, 136560.1
482.8424, 136514.2
483.3246, 136518.0
483.8066, 136557.0
484.2888, 136621.3
484.7709, 136739.6
485.2530, 136846.0
485.7351, 136932.6
486.2172, 137006.2
486.6993, 137082.7
487.1815, 137152.1
487.6636, 137241.1
488.1457, 137370.5
488.6278, 137547.8
489.1099, 137668.9
489.5920, 137728.5
490.0742, 137741.7
490.5563, 137683.8
491.0384, 137554.5
491.5205, 137541.1
492.0026, 137717.0
492.4847, 137983.6
492.9669, 138132.5
493.4490, 138175.5
493.9311, 138206.2
494.4132, 138298.9
494.8953, 138411.3
495.3774, 138456.8
495.8596, 138421.5
496.3417, 138400.7
496.8238, 138490.0
497.3059, 138636.5
497.7880, 138764.5
498.2701, 138847.3
498.7523, 138906.6
499.2344, 138949.7
499.7165, 138977.7
500.1986, 138993.0
500.6807, 138963.7
501.1628, 138947.7
501.6450, 138974.4
502.1271, 139058.7
502.6092, 139158.9
503.0913, 139290.3
503.5734, 139425.7
504.0555, 139532.5
504.5377, 139596.2
505.0198, 139657.6
505.5019, 139716.7
505.9840, 139779.3
506.4661, 139885.7
506.9482, 140045.3
507.4304, 140205.5
507.9125, 140353.4
508.3946, 140483.8
508.8767, 140503.0
509.3588, 140380.0
509.8409, 140234.9
510.3231, 140220.8
510.8052, 140315.7
511.2873, 140443.8
511.7694, 140592.6
512.2515, 140747.0
512.7336, 140912.5
513.2158, 141079.5
513.6979, 141186.4
514.1800, 141120.9
514.6621, 141024.8
515.1442, 141029.3
515.6263, 141211.5
516.1085, 141345.5
516.5906, 141293.4
517.0727, 141166.4
517.5548, 141121.8
518.0369, 141273.6
518.5190, 141414.6
519.0012, 141511.3
519.4833, 141563.6
519.9654, 141575.1
520.4475, 141517.0
520.9296, 141459.4
521.4117, 141432.4
521.8939, 141425.9
522.3760, 141521.9
522.8581, 141767.5
523.3402, 142032.7
523.8223, 142077.6
524.3044, 141911.3
524.7866, 141803.3
525.2687, 141874.6
525.7508, 142048.3
526.2329, 142179.5
526.7150, 142267.9
527.1971, 142320.0
527.6793, 142313.5
528.1614, 142284.4
528.6435, 142275.8
529.1256, 142292.3
529.6077, 142337.6
530.0898, 142422.5
530.5720, 142535.9
531.0541, 142660.9
531.5362, 142849.5
532.0183, 142992.4
532.5004, 143037.3
532.9825, 142992.1
533.4646, 142956.1
533.9467, 142946.0
534.4288, 142939.1
534.9109, 142916.0
535.3931, 142838.8
535.8752, 142861.1
536.3573, 143021.5
536.8394, 143234.9
537.3215, 143379.4
537.8036, 143446.0
538.2858, 143521.3
538.7679, 143639.5
539.2500, 143772.3
539.7321, 143828.1
540.2142, 143809.6
540.6964, 143777.5
541.1785, 143733.1
541.6606, 143712.6
542.1427, 143815.2
542.6248, 144065.8
543.1069, 144292.6
543.5891, 144342.0
544.0712, 144287.8
544.5533, 144229.6
545.0354, 144169.6
545.5175, 144143.6
545.9996, 144174.6
546.4818, 144253.3
546.9639, 144348.5
547.4460, 144487.6
547.9281, 144611.0
548.4102, 144687.8
548.8923, 144699.9
549.3745, 144754.0
549.8566, 144893.9
550.3387, 145028.0
550.8208, 145050.3
551.3029, 144918.1
551.7850, 144876.1
552.2672, 144980.6
552.7493, 145166.5
553.2314, 145287.0
553.7135, 145343.8
554.1956, 145398.1
554.6777, 145506.9
555.1599, 145628.0
555.6420, 145658.2
556.1241, 145598.5
556.6062, 145530.0
557.0883, 145480.8
557.5704, 145472.4
558.0526, 145544.2
558.5347, 145746.4
559.0168, 145934.3
559.4989, 146011.8
559.9810, 146033.5
560.4631, 146093.5
560.9453, 146310.6
561.4274, 146471.1
561.9095, 146473.8
562.3916, 146332.3
562.8737, 146266.9
563.3558, 146314.3
563.8380, 146389.5
564.3201, 146439.3
564.8022, 146448.2
565.2843, 146515.9
565.7664, 146662.5
566.2485, 146828.4
566.7307, 146936.6
567.2128, 146990.3
567.6949, 147016.1
568.1770, 147006.7
568.6591, 146990.0
569.1412, 147025.7
569.6234, 147102.0
570.1055, 147161.7
570.5876, 147134.9
571.0697, 147098.0
571.5518, 147128.4
572.0339, 147237.0
572.5161, 147357.0
572.9982, 147466.0
573.4803, 147566.7
573.9624, 147664.2
574.4445, 147776.7
574.9266, 147862.9
575.4088, 147918.3
575.8909, 147944.9
576.3730, 147938.1
576.8551, 147858.0
577.3372, 147823.9
577.8193, 147886.8
578.3015, 148035.2
578.7836, 148133.8
579.2657, 148171.7
579.7478, 148218.1
580.2299, 148352.1
580.7120, 148545.7
581.1942, 148670.1
581.6763, 148704.9
582.1584, 148703.9
582.6405, 148685.1
583.1226, 148676.7
583.6047, 148735.6
584.0869, 148985.5
584.5690, 149209.0
585.0511, 149207.7
585.5332, 149051.3
586.0153, 148988.1
586.4974, 149221.5
586.9796, 149458.9
587.4617, 149569.1
587.9438, 149517.0
588.4259, 149452.8
588.9080, 149336.3
589.3901, 149248.1
589.8723, 149258.8
590.3544, 149391.4
590.8365, 149536.4
591.3186, 149696.9
591.8007, 149846.6
592.2828, 149927.7
592.7650, 149943.5
593.2471, 149956.1
593.7292, 149997.2
594.2113, 150045.4
594.6934, 150034.7
595.1755, 149979.8
595.6577, 149981.4
596.1398, 150182.3
596.6219, 150425.9
597.1040, 150556.2
597.5861, 150534.5
598.0682, 150508.9
598.5504, 150517.5
599.0324, 150558.8
599.5145, 150631.2
599.9966, 150788.4
600.4788, 150909.2
600.9609, 150972.4
601.4430, 150998.2
601.9251, 151035.0
602.4072, 151091.8
602.8893, 151132.1
603.3715, 151124.6
603.8536, 151086.7
604.3357, 151141.8
604.8178, 151296.2
605.2999, 151459.5
605.7820, 151575.0
606.2642, 151646.1
606.7463, 151663.3
607.2284, 151615.1
607.7105, 151578.3
608.1926, 151623.8
608.6747, 151717.8
609.1569, 151815.5
609.6390, 151908.1
610.1211, 151994.3
610.6032, 152058.6
611.0853, 152114.0
611.5674, 152199.4
612.0496, 152368.8
612.5317, 152513.5
613.0138, 152590.2
613.4959, 152599.9
613.9780, 152652.0
614.4601, 152758.6
614.9423, 152878.0
615.4244, 153005.9
615.9065, 153137.3
616.3886, 153147.7
616.8707, 153002.2
617.3528, 152858.9
617.8350, 152949.7
618.3171, 153191.1
618.7992, 153373.9
619.2813, 153393.6
619.7634, 153386.3
620.2455, 153487.7
620.7277, 153649.0
621.2098, 153748.2
621.6919, 153674.8
622.1740, 153589.4
622.6561, 153555.7
623.1382, 153579.0
623.6204, 153614.6
624.1025, 153679.9
624.5846, 153735.8
625.0667, 153750.2
625.5488, 153698.3
626.0309, 153719.0
626.5131, 153833.0
626.9952, 153973.8
627.4773, 154057.4
627.9594, 154090.9
628.4415, 154133.2
628.9236, 154207.4
629.4058, 154278.2
629.8879, 154290.0
630.3700, 154259.2
630.8521, 154230.8
631.3342, 154192.5
631.8163, 154192.3
632.2985, 154286.6
632.7806, 154465.3
633.2627, 154618.0
633.7448, 154700.8
634.2269, 154761.1
634.7090, 154821.0
635.1912, 154878.5
635.6733, 154943.1
636.1554, 155019.5
636.6375, 155095.7
637.1196, 155158.4
637.6017, 155207.1
638.0839, 155254.0
638.5660, 155303.9
639.0481, 155344.8
639.5302, 155330.5
640.0123, 155283.2
640.4944, 155289.7
640.9766, 155442.1
641.4587, 155618.9
641.9408, 155696.2
642.4229, 155692.3
642.9050, 155685.6
643.3871, 155666.5
643.8693, 155692.1
644.3514, 155823.5
644.8335, 156098.0
645.3156, 156266.5
645.7977, 156262.5
646.2798, 156206.0
646.7620, 156161.1
647.2441, 156107.2
647.7262, 156160.1
648.2083, 156356.8
648.6904, 156594.2
649.1725, 156732.0
649.6547, 156778.1
650.1368, 156806.2
650.6189, 156836.7
651.1010, 156857.7
651.5831, 156851.7
652.0652, 156823.0
652.5474, 156783.5
653.0295, 156699.3
653.5116, 156640.3
653.9937, 156657.6
654.4758, 156748.7
654.9579, 156850.7
655.4401, 156979.8
655.9222, 157089.6
656.4043, 157153.6
656.8864, 157156.8
657.3685, 157181.8
657.8506, 157230.8
658.3328, 157298.6
658.8149, 157365.3
659.2970, 157433.0
659.7791, 157592.1
660.2612, 157876.5
660.7433, 158189.3
661.2255, 158442.7
661.7076, 158623.2
662.1897, 158695.4
662.6718, 158607.7
663.1539, 158447.2
663.6360, 158209.5
664.1182, 157939.7
664.6002, 157767.6
665.0823, 157832.6
665.5645, 157907.3
666.0466, 157876.5
666.5287, 157741.3
667.0108, 157743.3
667.4929, 157964.1
667.9750, 158180.8
668.4572, 158242.9
668.9393, 158144.6
669.4214, 158105.0
669.9035, 158130.1
670.3856, 158192.1
670.8677, 158308.0
671.3499, 158434.7
671.8320, 158446.1
672.3141, 158261.6
672.7962, 158117.0
673.2783, 158266.0
673.7604, 158564.4
674.2426, 158794.1
674.7247, 158854.5
675.2068, 158867.0
675.6889, 158826.4
676.1710, 158760.1
676.6531, 158757.7
677.1353, 158872.2
677.6174, 158951.6
678.0995, 158922.1
678.5816, 158809.8
679.0637, 158839.7
679.5458, 159023.9
680.0280, 159212.9
680.5101, 159308.9
680.9922, 159336.5
681.4743, 159340.8
681.9564, 159323.9
682.4385, 159319.8
682.9207, 159366.3
683.4028, 159432.4
683.8849, 159485.0
684.3670, 159505.4
684.8491, 159541.5
685.3312, 159629.4
685.8134, 159728.6
686.2955, 159791.6
686.7776, 159812.9
687.2597, 159803.8
687.7418, 159746.1
688.2239, 159676.6
688.7061, 159685.8
689.1882, 159774.7
689.6703, 159848.4
690.1524, 159854.9
690.6345, 159839.8
691.1166, 159895.2
691.5988, 160005.6
692.0809, 160104.4
692.5630, 160107.2
693.0451, 160118.4
693.5272, 160251.5
694.0093, 160512.0
694.4915, 160672.2
694.9736, 160589.4
695.4557, 160469.4
695.9378, 160417.1
696.4199, 160445.8
696.9020, 160497.1
697.3842, 160589.7
697.8663, 160667.3
698.3484, 160653.6
698.8305, 160560.3
699.3126, 160508.1
699.7947, 160519.4
700.2769, 160551.5
700.7590, 160571.6
701.2411, 160573.6
701.7232, 160539.3
702.2053, 160384.5
702.6874, 160296.7
703.1696, 160411.2
703.6517, 160657.3
704.1338, 160881.8
704.6159, 161125.8
705.0980, 161258.7
705.5801, 161197.4
706.0623, 161002.0
706.5444, 160960.1
707.0265, 161109.5
707.5086, 161247.1
707.9907, 161259.8
708.4728, 161185.0
708.9550, 161171.3
709.4371, 161214.7
709.9192, 161226.5
710.4013, 161073.1
710.8834, 160895.9
711.3655, 160855.3
711.8477, 160979.0
712.3298, 161129.9
712.8119, 161287.4
713.2940, 161430.3
713.7761, 161541.4
714.2582, 161612.7
714.7404, 161670.3
715.2225, 161712.0
715.7046, 161742.6
716.1867, 161764.4
716.6688, 161776.6
717.1509, 161802.3
717.6331, 161850.4
718.1152, 161898.5
718.5973, 161904.9
719.0794, 161885.1
719.5615, 161877.6
720.0436, 161889.7
720.5258, 161926.7
721.0079, 162026.5
721.4900, 162154.3
721.9721, 162223.1
722.4542, 162132.2
722.9363, 162071.0
723.4185, 162087.4
723.9006, 162172.1
724.3827, 162280.4
724.8648, 162430.7
725.3469, 162543.9
725.8290, 162561.3
726.3112, 162512.9
726.7933, 162506.0
727.2754, 162541.5
727.7575, 162633.7
728.2396, 162888.4
728.7217, 163152.7
729.2039, 163232.4
729.6860, 163099.4
730.1681, 162950.3
730.6501, 162804.1
731.1323, 162708.8
731.6144, 162717.5
732.0965, 162902.8
732.5786, 162990.1
733.0607, 162922.8
733.5428, 162840.9
734.0250, 162918.8
734.5071, 163152.2
734.9892, 163315.8
735.4713, 163371.2
735.9534, 163373.8
736.4355, 163349.5
736.9177, 163328.7
737.3998, 163378.5
737.8819, 163586.0
738.3640, 163772.2
738.8461, 163831.6
739.3282, 163808.0
739.8104, 163782.8
740.2925, 163727.4
740.7746, 163727.5
741.2567, 163818.7
741.7388, 163966.3
742.2209, 164069.5
742.7031, 164124.3
743.1852, 164163.2
743.6673, 164192.4
744.1494, 164218.4
744.6315, 164269.9
745.1136, 164337.6
745.5958, 164372.3
746.0779, 164270.7
746.5600, 164183.3
747.0421, 164268.6
747.5242, 164519.1
748.0063, 164674.2
748.4885, 164577.5
748.9706, 164457.3
749.4527, 164401.9
749.9348, 164413.1
750.4169, 164477.0
750.8990, 164613.0
751.3812, 164736.6
751.8633, 164768.3
752.3454, 164730.1
752.8275, 164702.7
753.3096, 164690.5
753.7917, 164706.3
754.2739, 164785.4
754.7560, 164886.3
755.2381, 164960.9
755.7202, 164995.2
756.2023, 165021.1
756.6844, 165070.6
757.1666, 165101.4
757.6487, 165066.2
758.1308, 164907.5
758.6129, 164838.7
759.0950, 164894.7
759.5771, 165001.4
760.0593, 165053.2
760.5414, 165059.0
761.0235, 165072.5
761.5056, 165109.6
761.9877, 165150.7
762.4698, 165176.3
762.9520, 165190.2
763.4341, 165199.2
763.9162, 165139.4
764.3983, 165150.4
764.8804, 165340.1
765.3625, 165620.6
765.8447, 165795.1
766.3268, 165814.6
766.8089, 165833.0
767.2910, 165886.6
767.7731, 165959.3
768.2552, 166028.9
768.7374, 166090.1
769.2195, 166082.8
769.7016, 165891.6
770.1837, 165684.9
770.6658, 165694.6
771.1479, 165873.3
771.6301, 166044.6
772.1122, 166184.9
772.5943, 166251.2
773.0764, 166170.0
773.5585, 165961.7
774.0406, 165884.3
774.5228, 166000.1
775.0049, 166120.0
775.4870, 166152.4
775.9691, 166114.9
776.4512, 166115.3
776.9333, 166153.3
777.4155, 166224.7
777.8976, 166376.4
778.3797, 166533.0
778.8618, 166575.5
779.3439, 166501.8
779.8260, 166455.5
780.3082, 166547.0
780.7903, 166646.0
781.2724, 166656.5
781.7545, 166550.2
782.2366, 166525.4
782.7188, 166608.2
783.2009, 166721.6
783.6830, 166822.3
784.1651, 166908.0
784.6472, 166948.5
785.1293, 166940.2
785.6115, 166911.1
786.0936, 166837.0
786.5757, 166780.4
787.0578, 166839.6
787.5399, 167064.0
788.0220, 167247.1
788.5042, 167270.9
788.9863, 167251.4
789.4684, 167291.7
789.9505, 167440.8
790.4326, 167533.0
790.9147, 167563.3
791.3969, 167543.9
791.8790, 167442.9
792.3611, 167287.6
792.8432, 167257.5
793.3253, 167399.6
793.8074, 167578.8
794.2896, 167709.4
794.7717, 167779.0
795.2538, 167754.7
795.7359, 167513.4
796.2180, 167380.6
796.7001, 167525.8
797.1822, 167773.0
797.6643, 167920.8
798.1464, 167928.7
798.6285, 167976.8
799.1107, 168097.2
799.5928, 168240.3
800.0749, 168363.5
800.5570, 168449.8
801.0391, 168415.5
801.5212, 168172.8
802.0034, 167944.2
802.4855, 167928.4
802.9676, 168039.9
803.4497, 168148.4
803.9318, 168240.7
804.4139, 168295.7
804.8961, 168276.8
805.3782, 168239.3
805.8603, 168307.1
806.3424, 168512.0
806.8245, 168593.1
807.3066, 168445.5
807.7888, 168233.8
808.2709, 168235.3
808.7530, 168402.1
809.2351, 168602.6
809.7172, 168873.6
810.1993, 169052.8
810.6815, 168955.4
811.1636, 168709.8
811.6457, 168588.9
812.1278, 168732.0
812.6099, 168856.2
813.0920, 168911.2
813.5742, 168927.7
814.0563, 168987.3
814.5384, 169089.9
815.0205, 169175.1
815.5026, 169214.9
815.9847, 169237.1
816.4669, 169278.6
816.9490, 169334.3
817.4311, 169391.3
817.9132, 169466.8
818.3953, 169519.3
818.8774, 169508.8
819.3596, 169461.7
819.8417, 169461.8
820.3238, 169534.9
820.8059, 169596.1
821.2880, 169617.8
821.7701, 169621.1
822.2523, 169672.1
822.7344, 169762.3
823.2165, 169827.5
823.6986, 169815.1
824.1807, 169789.5
824.6628, 169824.9
825.1450, 169897.6
825.6271, 169943.2
826.1092, 169932.1
826.5913, 169899.9
827.0734, 169809.6
827.5555, 169712.2
828.0377, 169819.3
828.5198, 170194.7
829.0019, 170395.6
829.4840, 170176.9
829.9661, 169791.0
830.4482, 169761.7
830.9304, 170003.2
831.4125, 170216.9
831.8946, 170199.6
832.3767, 170163.6
832.8588, 170230.0
833.3409, 170374.3
833.8231, 170503.1
834.3052, 170622.4
834.7873, 170706.6
835.2694, 170745.8
835.7515, 170748.7
836.2336, 170738.9
836.7158, 170716.7
837.1979, 170682.6
837.6800, 170607.0
838.1621, 170551.4
838.6442, 170616.5
839.1263, 170761.0
839.6085, 170874.2
840.0906, 170847.3
840.5727, 170856.2
841.0548, 171012.5
841.5369, 171237.6
842.0190, 171299.6
842.5012, 171147.9
842.9833, 171038.9
843.4654, 171059.0
843.9475, 171152.5
844.4296, 171192.0
844.9117, 171199.0
845.3939, 171247.8
845.8760, 171466.9
846.3581, 171646.6
846.8402, 171577.2
847.3223, 171374.0
847.8044, 171342.5
848.2866, 171706.0
848.7687, 171922.6
849.2508, 171846.4
849.7329, 171610.2
850.2150, 171520.1
850.6971, 171571.7
851.1793, 171687.2
851.6614, 171894.6
852.1435, 172066.8
852.6256, 171963.1
853.1077, 171723.8
853.5898, 171636.2
854.0720, 171966.6
854.5541, 172262.4
855.0362, 172410.5
855.5183, 172455.0
856.0004, 172452.5
856.4825, 172390.5
856.9647, 172339.1
857.4468, 172307.7
857.9289, 172302.0
858.4110, 172329.3
858.8931, 172389.3
859.3752, 172489.4
859.8574, 172699.5
860.3395, 172837.4
860.8216, 172735.8
861.3037, 172525.0
861.7858, 172414.3
862.2679, 172469.5
862.7500, 172513.1
863.2321, 172521.5
863.7142, 172526.8
864.1964, 172589.6
864.6785, 172698.8
865.1606, 172782.1
865.6427, 172817.6
866.1248, 172848.2
866.6069, 172907.0
867.0891, 172988.1
867.5712, 173084.6
868.0533, 173201.2
868.5354, 173327.2
869.0175, 173496.1
869.4996, 173641.3
869.9818, 173675.9
870.4639, 173590.5
870.9460, 173540.5
871.4281, 173544.7
871.9102, 173557.5
872.3923, 173511.6
872.8745, 173448.3
873.3566, 173431.6
873.8387, 173480.4
874.3208, 173549.0
874.8029, 173590.8
875.2850, 173670.2
875.7672, 173863.3
876.2493, 174263.9
876.7314, 174378.4
877.2135, 174136.5
877.6956, 173859.4
878.1777, 173869.8
878.6599, 174061.5
879.1420, 174171.8
879.6241, 174177.5
880.1062, 174201.4
880.5883, 174384.8
881.0704, 174565.1
881.5526, 174616.3
882.0347, 174507.5
882.5168, 174400.5
882.9989, 174277.1
883.4810, 174194.3
883.9631, 174214.3
884.4453, 174310.6
884.9274, 174291.7
885.4095, 174172.1
885.8916, 174130.3
886.3737, 174348.6
886.8558, 174643.3
887.3380, 174921.8
887.8201, 175165.3
888.3022, 175245.7
888.7843, 175014.1
889.2664, 174808.9
889.7485, 174733.2
890.2307, 174776.0
890.7128, 174940.5
891.1949, 175220.0
891.6770, 175429.6
892.1591, 175436.7
892.6412, 175357.7
893.1234, 175294.4
893.6055, 175248.0
894.0876, 175225.5
894.5697, 175232.7
895.0518, 175261.6
895.5339, 175323.8
896.0161, 175399.1
896.4982, 175433.2
896.9803, 175424.0
897.4624, 175403.7
897.9445, 175365.8
898.4266, 175351.6
898.9088, 175455.3
899.3909, 175617.0
899.8730, 175722.3
900.3551, 175654.0
900.8372, 175626.1
901.3193, 175743.2
901.8015, 175905.1
902.2836, 175999.1
902.7657, 176015.6
903.2478, 175997.8
903.7299, 175934.8
904.2120, 175893.8
904.6942, 175990.1
905.1763, 176160.6
905.6584, 176288.9
906.1405, 176350.5
906.6226, 176374.4
907.1047, 176308.4
907.5869, 176256.0
908.0690, 176309.9
908.5511, 176508.8
909.0332, 176657.6
909.5153, 176749.4
909.9974, 176817.0
910.4796, 176908.0
910.9617, 176991.6
911.4438, 176981.4
911.9259, 176875.1
912.4080, 176759.6
912.8901, 176602.4
913.3723, 176522.5
913.8544, 176651.3
914.3365, 176986.1
914.8186, 177164.3
915.3007, 177144.5
915.7828, 177088.7
916.2650, 177053.8
916.7471, 177048.3
917.2292, 177110.7
917.7113, 177229.6
918.1934, 177350.9
918.6755, 177482.7
919.1577, 177572.6
919.6398, 177548.3
920.1219, 177454.8
920.6040, 177456.4
921.0861, 177630.0
921.5682, 177704.9
922.0504, 177587.4
922.5325, 177393.1
923.0146, 177359.8
923.4967, 177447.5
923.9788, 177506.8
924.4609, 177451.3
924.9431, 177436.7
925.4252, 177641.8
925.9073, 177912.8
926.3894, 178037.1
926.8715, 177873.0
927.3536, 177841.7
927.8358, 178003.1
928.3178, 178197.6
928.7999, 178236.2
929.2820, 178159.3
929.7642, 178126.3
930.2463, 178160.3
930.7284, 178170.7
931.2105, 178004.5
931.6926, 177852.2
932.1747, 177902.5
932.6569, 178231.5
933.1390, 178406.1
933.6211, 178379.5
934.1032, 178305.6
934.5853, 178241.3
935.0674, 178204.1
935.5496, 178293.2
936.0317, 178489.6
936.5138, 178653.5
936.9959, 178664.0
937.4780, 178653.6
937.9601, 178730.5
938.4423, 178866.5
938.9244, 178898.7
939.4065, 178747.6
939.8886, 178678.4
940.3707, 178784.2
940.8528, 178976.6
941.3350, 179041.1
941.8171, 179020.0
942.2992, 179078.9
942.7813, 179350.1
943.2634, 179579.5
943.7455, 179546.1
944.2277, 179407.5
944.7098, 179396.1
945.1919, 179647.0
945.6740, 179703.8
946.1561, 179471.9
946.6382, 179228.6
947.1204, 179360.1
947.6025, 179721.1
948.0846, 179867.1
948.5667, 179734.2
949.0488, 179617.9
949.5309, 179714.7
950.0131, 179883.3
950.4952, 180041.5
950.9773, 180188.8
951.4594, 180254.8
951.9415, 180213.7
952.4236, 180177.6
952.9058, 180233.0
953.3879, 180328.3
953.8700, 180298.3
954.3521, 180180.5
954.8342, 180131.9
955.3163, 180316.1
955.7985, 180499.2
956.2806, 180551.8
956.7627, 180525.6
957.2448, 180564.3
957.7269, 180685.5
958.2090, 180793.7
958.6912, 180869.5
959.1733, 180921.5
959.6554, 180955.5
960.1375, 180976.0
960.6196, 180987.2
961.1017, 180976.7
961.5839, 180991.5
962.0660, 181102.6
962.5481, 181207.1
963.0302, 181196.7
963.5123, 181025.1
963.9944, 181010.3
964.4766, 181173.9
964.9587, 181366.8
965.4408, 181514.3
965.9229, 181586.3
966.4050, 181465.8
966.8871, 181171.2
967.3693, 181017.5
967.8514, 181266.0
968.3335, 181523.4
968.8156, 181660.5
969.2977, 181690.1
969.7798, 181622.4
970.2620, 181456.6
970.7441, 181375.5
971.2262, 181494.7
971.7083, 181670.1
972.1904, 181749.0
972.6725, 181761.8
973.1547, 181760.7
973.6368, 181738.7
974.1189, 181732.7
974.6010, 181738.0
975.0831, 181768.8
975.5652, 181862.0
976.0474, 182008.2
976.5295, 182098.3
977.0116, 182116.0
977.4937, 182138.8
977.9758, 182217.3
978.4579, 182338.8
978.9401, 182512.7
979.4222, 182755.5
979.9043, 182915.2
980.3864, 182955.8
980.8685, 182982.5
981.3506, 183032.8
981.8328, 183112.1
982.3149, 183233.9
982.7970, 183401.0
983.2791, 183617.0
983.7612, 183977.9
984.2433, 184292.0
984.7255, 184398.8
985.2076, 184397.3
985.6897, 184525.4
986.1718, 184840.3
986.6539, 185098.5
987.1360, 185256.3
987.6182, 185375.1
988.1003, 185541.7
988.5824, 185730.2
989.0645, 185903.8
989.5466, 186065.9
990.0287, 186142.2
990.5109, 186065.2
990.9930, 185920.3
991.4751, 185763.8
991.9572, 185596.6
992.4393, 185355.0
992.9214, 185035.5
993.4036, 184728.5
993.8856, 184476.3
994.3677, 184277.2
994.8499, 184163.2
995.3320, 184106.9
995.8141, 184025.8
996.2962, 183815.0
996.7783, 183690.7
997.2604, 183720.4
997.7426, 183821.8
998.2247, 183827.0
998.7068, 183754.0
999.1889, 183749.5
999.6710, 183866.0
1000.153, 183954.2
1000.635, 183836.1
1001.117, 183661.3
1001.599, 183568.2
1002.082, 183579.6
1002.564, 183687.3
1003.046, 183941.1
1003.528, 184158.9
1004.010, 184199.1
1004.492, 184115.2
1004.974, 184030.4
1005.456, 183954.9
1005.939, 183946.2
1006.421, 184129.6
1006.903, 184281.7
1007.385, 184263.5
1007.867, 184155.3
1008.349, 184124.2
1008.831, 184181.9
1009.313, 184222.1
1009.795, 184215.7
1010.278, 184215.3
1010.760, 184323.8
1011.242, 184461.6
1011.724, 184498.7
1012.206, 184368.2
1012.688, 184310.8
1013.170, 184436.7
1013.652, 184558.5
1014.135, 184557.8
1014.617, 184454.0
1015.099, 184389.5
1015.581, 184368.1
1016.063, 184425.5
1016.545, 184704.4
1017.027, 184955.4
1017.509, 184963.2
1017.991, 184806.5
1018.474, 184727.9
1018.956, 184760.8
1019.438, 184811.3
1019.920, 184868.4
1020.402, 184931.3
1020.884, 185019.8
1021.366, 185108.7
1021.848, 185120.1
1022.331, 185014.2
1022.813, 184987.9
1023.295, 185229.7
1023.777, 185480.1
1024.259, 185576.1
1024.741, 185523.5
1025.223, 185529.1
1025.705, 185593.7
1026.188, 185666.1
1026.670, 185749.7
1027.152, 185799.7
1027.634, 185725.0
1028.116, 185584.2
1028.598, 185520.4
1029.080, 185592.1
1029.562, 185707.7
1030.044, 185895.6
1030.526, 186064.9
1031.009, 186054.6
1031.491, 185920.9
1031.973, 185858.6
1032.455, 185894.9
1032.937, 185966.2
1033.419, 186092.0
1033.901, 186189.6
1034.383, 186177.0
1034.865, 186069.0
1035.348, 186074.3
1035.830, 186207.6
1036.312, 186320.0
1036.794, 186330.3
1037.276, 186311.3
1037.758, 186351.1
1038.240, 186437.1
1038.722, 186546.3
1039.205, 186726.4
1039.687, 186846.4
1040.169, 186886.5
1040.651, 186883.3
1041.133, 186858.9
1041.615, 186820.1
1042.097, 186800.3
1042.579, 186802.1
1043.062, 186844.6
1043.544, 187002.0
1044.026, 187147.4
1044.508, 187178.9
1044.990, 187120.5
1045.472, 187110.3
1045.954, 187151.8
1046.436, 187234.5
1046.918, 187386.6
1047.401, 187511.1
1047.883, 187397.4
1048.365, 187188.7
1048.847, 187131.1
1049.329, 187362.3
1049.811, 187566.9
1050.293, 187767.9
1050.775, 187843.7
1051.257, 187608.6
1051.740, 187131.1
1052.222, 187031.8
1052.704, 187273.3
1053.186, 187510.8
1053.668, 187513.9
1054.150, 187473.6
1054.632, 187513.4
1055.114, 187592.9
1055.597, 187582.6
1056.079, 187438.7
1056.561, 187425.6
1057.043, 187601.5
1057.525, 187854.5
1058.007, 188137.3
1058.489, 188369.6
1058.971, 188398.4
1059.453, 188166.6
1059.936, 188020.5
1060.418, 188050.4
1060.900, 188134.3
1061.382, 188234.5
1061.864, 188344.2
1062.346, 188443.1
1062.828, 188532.1
1063.310, 188614.3
1063.792, 188709.7
1064.275, 188774.1
1064.757, 188744.0
1065.239, 188691.5
1065.721, 188726.3
1066.203, 188885.5
1066.685, 188904.2
1067.167, 188753.5
1067.649, 188625.8
1068.132, 188709.7
1068.614, 188895.5
1069.096, 189079.9
1069.578, 189252.8
1070.060, 189401.2
1070.542, 189555.9
1071.024, 189617.7
1071.506, 189530.3
1071.989, 189387.4
1072.471, 189389.5
1072.953, 189481.8
1073.435, 189493.8
1073.917, 189356.3
1074.399, 189262.3
1074.881, 189304.1
1075.363, 189422.6
1075.845, 189601.0
1076.328, 189835.9
1076.810, 189946.5
1077.292, 189937.2
1077.774, 189955.4
1078.256, 190162.6
1078.738, 190352.0
1079.220, 190279.6
1079.702, 190073.7
1080.184, 190003.9
1080.667, 190188.0
1081.149, 190240.5
1081.631, 190087.9
1082.113, 189966.7
1082.595, 190251.9
1083.077, 190683.7
1083.559, 190724.0
1084.041, 190369.4
1084.524, 190141.1
1085.006, 190376.9
1085.488, 190583.7
1085.970, 190607.3
1086.452, 190524.8
1086.934, 190521.5
1087.416, 190585.7
1087.898, 190645.7
1088.380, 190669.4
1088.863, 190740.7
1089.345, 191027.0
1089.827, 191299.0
1090.309, 191339.0
1090.791, 191129.6
1091.273, 190960.0
1091.755, 190827.9
1092.237, 190805.4
1092.719, 191011.6
1093.202, 191274.4
1093.684, 191429.9
1094.166, 191492.7
1094.648, 191488.1
1095.130, 191355.5
1095.612, 191286.3
1096.094, 191313.0
1096.576, 191346.6
1097.058, 191214.5
1097.541, 191046.5
1098.023, 191223.3
1098.505, 191726.2
1098.987, 192068.8
1099.469, 191869.4
1099.951, 191698.6
1100.433, 191764.1
1100.915, 191943.1
1101.398, 191924.8
1101.880, 191743.2
1102.362, 191630.9
1102.844, 191645.3
1103.326, 191705.8
1103.808, 191787.4
1104.290, 191868.4
1104.772, 191914.9
1105.255, 191927.3
1105.737, 192056.6
1106.219, 192315.3
1106.701, 192521.0
1107.183, 192569.3
1107.665, 192549.1
1108.147, 192540.7
1108.629, 192537.9
1109.111, 192528.8
1109.594, 192470.3
1110.076, 192500.0
1110.558, 192654.8
1111.040, 192792.0
1111.522, 192753.7
1112.004, 192627.8
1112.486, 192574.6
1112.968, 192595.9
1113.450, 192668.8
1113.933, 192891.4
1114.415, 193010.8
1114.897, 192920.9
1115.379, 192775.7
1115.861, 192852.8
1116.343, 193096.5
1116.825, 193264.5
1117.307, 193319.0
1117.790, 193355.1
1118.272, 193419.5
1118.754, 193492.4
1119.236, 193583.6
1119.718, 193674.8
1120.200, 193641.7
1120.682, 193487.8
1121.164, 193402.0
1121.646, 193461.5
1122.129, 193562.2
1122.611, 193624.7
1123.093, 193672.7
1123.575, 193739.5
1124.057, 193839.5
1124.539, 193881.5
1125.021, 193859.4
1125.503, 193813.5
1125.985, 193698.5
1126.468, 193630.5
1126.950, 193823.5
1127.432, 194177.2
1127.914, 194473.7
1128.396, 194745.9
1128.878, 194763.2
1129.360, 194427.4
1129.842, 194053.3
1130.325, 193942.9
1130.807, 194026.0
1131.289, 194194.4
1131.771, 194425.2
1132.253, 194605.4
1132.735, 194627.0
1133.217, 194686.2
1133.699, 194872.4
1134.182, 195068.8
1134.664, 194982.0
1135.146, 194713.0
1135.628, 194747.0
1136.110, 195195.4
1136.592, 195509.8
1137.074, 195183.2
1137.556, 194845.5
1138.038, 194855.3
1138.521, 195131.7
1139.003, 195295.5
1139.485, 195353.8
1139.967, 195390.5
1140.449, 195421.2
1140.931, 195470.7
1141.413, 195557.5
1141.895, 195673.9
1142.377, 195835.6
1142.860, 196054.8
1143.342, 196124.5
1143.824, 196034.8
1144.306, 195952.0
1144.788, 195967.4
1145.270, 196036.5
1145.752, 196135.5
1146.234, 196251.6
1146.717, 196359.6
1147.199, 196455.0
1147.681, 196575.2
1148.163, 196747.9
1148.645, 196823.3
1149.127, 196555.3
1149.609, 196185.6
1150.091, 196034.4
1150.573, 196089.2
1151.056, 196259.2
1151.538, 196662.7
1152.020, 196918.1
1152.502, 196949.4
1152.984, 196884.7
1153.466, 196892.1
1153.948, 196922.2
1154.430, 196842.5
1154.912, 196646.4
1155.395, 196537.2
1155.877, 196641.8
1156.359, 196778.9
1156.841, 196924.0
1157.323, 197053.4
1157.805, 197111.2
1158.287, 197111.7
1158.769, 197089.2
1159.251, 197041.5
1159.734, 197026.0
1160.216, 197040.0
1160.698, 197131.8
1161.180, 197363.9
1161.662, 197680.7
1162.144, 197863.9
1162.626, 197917.4
1163.108, 197841.4
1163.591, 197533.1
1164.073, 197319.0
1164.555, 197455.7
1165.037, 197694.1
1165.519, 197841.1
1166.001, 197896.5
1166.483, 197877.4
1166.965, 197792.5
1167.448, 197762.0
1167.930, 197934.4
1168.412, 198095.0
1168.894, 198048.4
1169.376, 197944.6
1169.858, 198016.5
1170.340, 198306.3
1170.822, 198440.6
1171.304, 198406.7
1171.786, 198303.0
1172.269, 198119.8
1172.751, 197976.5
1173.233, 198000.2
1173.715, 198139.1
1174.197, 198227.5
1174.679, 198244.0
1175.161, 198333.1
1175.643, 198524.7
1176.126, 198701.1
1176.608, 198727.1
1177.090, 198708.9
1177.572, 198775.6
1178.054, 198908.7
1178.536, 198900.2
1179.018, 198679.9
1179.500, 198597.9
1179.983, 198753.0
1180.465, 198973.2
1180.947, 199099.8
1181.429, 199147.2
1181.911, 199089.5
1182.393, 198916.1
1182.875, 198894.5
1183.357, 199076.8
1183.839, 199276.0
1184.322, 199453.1
1184.804, 199573.7
1185.286, 199522.2
1185.768, 199409.8
1186.250, 199421.7
1186.732, 199640.7
1187.214, 199763.0
1187.696, 199729.0
1188.178, 199740.3
1188.661, 199963.6
1189.143, 200211.3
1189.625, 200044.6
1190.107, 199660.8
1190.589, 199452.6
1191.071, 199587.9
1191.553, 199787.9
1192.035, 200094.1
1192.518, 200317.8
1193.000, 200268.5
1193.482, 200083.7
1193.964, 200067.5
1194.446, 200174.2
1194.928, 200281.4
1195.410, 200336.1
1195.892, 200412.1
1196.375, 200529.7
1196.857, 200637.7
1197.339, 200676.3
1197.821, 200676.4
1198.303, 200732.3
1198.785, 200822.6
1199.267, 200852.6
1199.749, 200692.5
1200.231, 200609.2
1200.714, 200653.6
1201.196, 200755.6
1201.678, 200873.8
1202.160, 200977.4
1202.642, 200971.0
1203.124, 200863.4
1203.606, 200764.0
1204.088, 200624.6
1204.570, 200646.0
1205.053, 200931.7
1205.535, 201286.5
1206.017, 201466.4
1206.499, 201491.5
1206.981, 201345.2
1207.463, 201036.5
1207.945, 200879.7
1208.427, 201092.6
1208.910, 201377.2
1209.392, 201716.8
1209.874, 202000.4
1210.356, 201923.1
1210.838, 201633.6
1211.320, 201537.5
1211.802, 201720.6
1212.284, 201838.2
1212.766, 201652.3
1213.249, 201541.7
1213.731, 201654.7
1214.213, 201887.3
1214.695, 202007.6
1215.177, 202049.4
1215.659, 202091.2
1216.141, 202145.5
1216.623, 202231.5
1217.105, 202421.0
1217.588, 202543.2
1218.070, 202499.3
1218.552, 202360.0
1219.034, 202293.9
1219.516, 202289.8
1219.998, 202316.8
1220.480, 202355.6
1220.962, 202470.1
1221.445, 202786.5
1221.927, 202994.0
1222.409, 202855.7
1222.891, 202532.7
1223.373, 202491.8
1223.855, 202656.7
1224.337, 202840.3
1224.819, 203048.2
1225.301, 203113.9
1225.784, 202952.1
1226.266, 202773.9
1226.748, 202683.7
1227.230, 202694.7
1227.712, 202926.8
1228.194, 203290.1
1228.676, 203536.2
1229.158, 203505.5
1229.641, 203453.7
1230.123, 203384.7
1230.605, 203345.9
1231.087, 203399.3
1231.569, 203502.5
1232.051, 203535.5
1232.533, 203526.9
1233.015, 203567.1
1233.497, 203789.5
1233.979, 203893.9
1234.462, 203821.9
1234.944, 203715.2
1235.426, 203686.0
1235.908, 203718.9
1236.390, 203807.0
1236.872, 203932.4
1237.354, 204036.4
1237.836, 204099.9
1238.319, 204126.7
1238.801, 204084.7
1239.283, 204099.2
1239.765, 204414.8
1240.247, 204803.9
1240.729, 204837.1
1241.211, 204581.4
1241.693, 204409.6
1242.176, 204372.0
1242.658, 204478.7
1243.140, 204776.7
1243.622, 205059.7
1244.104, 205079.4
1244.586, 204975.6
1245.068, 204930.4
1245.550, 204941.4
1246.032, 204909.0
1246.515, 204770.7
1246.997, 204760.7
1247.479, 204926.5
1247.961, 205159.2
1248.443, 205425.9
1248.925, 205634.0
1249.407, 205639.2
1249.889, 205471.8
1250.371, 205401.5
1250.854, 205462.6
1251.336, 205498.1
1251.818, 205477.2
1252.300, 205450.7
1252.782, 205494.7
1253.264, 205538.8
1253.746, 205460.6
1254.228, 205306.2
1254.711, 205401.0
1255.193, 205789.0
1255.675, 205982.6
1256.157, 205857.2
1256.639, 205719.5
1257.121, 205874.4
1257.603, 206104.5
1258.085, 206262.5
1258.568, 206339.9
1259.050, 206281.8
1259.532, 206088.7
1260.014, 206005.1
1260.496, 206094.7
1260.978, 206226.4
1261.460, 206354.3
1261.942, 206438.9
1262.424, 206446.6
1262.906, 206395.5
1263.389, 206285.1
1263.871, 206145.1
1264.353, 206256.5
1264.835, 206732.4
1265.317, 207126.6
1265.799, 207031.3
1266.281, 206945.3
1266.763, 207193.3
1267.246, 207595.7
1267.728, 207566.7
1268.210, 207229.7
1268.692, 207075.2
1269.174, 207249.3
1269.656, 207399.9
1270.138, 207361.2
1270.620, 207279.3
1271.103, 207172.9
1271.585, 207096.0
1272.067, 207212.7
1272.549, 207461.2
1273.031, 207702.2
1273.513, 207917.5
1273.995, 208060.0
1274.477, 208096.6
1274.959, 208106.8
1275.442, 208111.0
1275.924, 208120.0
1276.406, 208162.8
1276.888, 208222.0
1277.370, 208258.9
1277.852, 208254.2
1278.334, 208321.9
1278.816, 208507.7
1279.298, 208618.5
1279.781, 208551.4
1280.263, 208431.2
1280.745, 208449.5
1281.227, 208508.9
1281.709, 208443.0
1282.191, 208207.4
1282.673, 208213.9
1283.155, 208496.0
1283.638, 208727.3
1284.120, 208759.9
1284.602, 208756.7
1285.084, 208925.1
1285.566, 209108.1
1286.048, 209115.0
1286.530, 208960.2
1287.012, 208924.9
1287.495, 209004.9
1287.977, 209091.2
1288.459, 209150.4
1288.941, 209192.0
1289.423, 209189.2
1289.905, 209205.7
1290.387, 209307.5
1290.869, 209464.0
1291.351, 209451.3
1291.833, 209322.1
1292.316, 209374.5
1292.798, 209806.6
1293.280, 210081.4
1293.762, 209727.0
1294.244, 209440.7
1294.726, 209604.0
1295.208, 210019.9
1295.690, 210100.5
1296.172, 209954.9
1296.655, 209838.8
1297.137, 209809.3
1297.619, 209852.5
1298.101, 210000.3
1298.583, 210122.0
1299.065, 210137.3
1299.547, 210124.3
1300.029, 210273.2
1300.512, 210466.2
1300.994, 210478.1
1301.476, 210189.8
1301.958, 210155.0
1302.440, 210435.8
1302.922, 210670.6
1303.404, 210707.1
1303.886, 210654.6
1304.369, 210601.2
1304.851, 210550.3
1305.333, 210503.3
1305.815, 210460.0
1306.297, 210451.0
1306.779, 210475.9
1307.261, 210502.0
1307.743, 210506.2
1308.225, 210544.1
1308.708, 210645.5
1309.190, 210814.0
##END=



