##NAMES=Nesquehonite
##RRUFFID=R050639
##IDEAL CHEMISTRY=MgCO_3_&#183;3H_2_O
##LOCALITY=Nesquehoning, Pennsylvania, USA
##OWNER=RRUFF
##SOURCE=University of Arizona Mineral Museum
##DESCRIPTION=White to colorless bladed crystals
##STATUS=The identification of this mineral has been confirmed by X-ray diffraction and chemical analysis
##URL=rruff.info/R050639
##MEASURED CHEMISTRY=Mg_1.00_(HCO_3_)(OH)Â·2H_2_O ; C and H not measured but estimated by difference and charge balance
89.78156, 0.0000000E+00
90.26367, 51.86893
90.74579, 53.14286
91.22791, 52.65133
91.71002, 50.58020
92.19214, 48.55310
92.67426, 48.13961
93.15638, 48.83433
93.63850, 49.29055
94.12061, 48.66205
94.60273, 47.60352
95.08485, 48.09981
95.56696, 50.39704
96.04908, 52.55577
96.53120, 51.55323
97.01331, 47.59139
97.49543, 44.39824
97.97755, 44.06583
98.45966, 46.41250
98.94178, 47.98363
99.42390, 48.68440
99.90602, 48.70402
100.3881, 48.16231
100.8703, 46.78379
101.3524, 45.82397
101.8345, 46.16222
102.3166, 48.25159
102.7987, 49.66240
103.2808, 50.08768
103.7630, 49.71835
104.2451, 49.28205
104.7272, 48.43943
105.2093, 47.97384
105.6914, 48.50307
106.1735, 50.87523
106.6557, 52.73753
107.1378, 53.21426
107.6199, 52.21421
108.1020, 53.24152
108.5841, 58.37871
109.0662, 64.46056
109.5484, 68.71213
110.0305, 69.15894
110.5126, 69.78661
110.9947, 71.00926
111.4768, 72.66916
111.9590, 75.76595
112.4411, 81.11108
112.9232, 87.80260
113.4053, 94.52033
113.8874, 100.3257
114.3695, 106.7484
114.8517, 114.3343
115.3338, 123.2940
115.8159, 133.0146
116.2980, 143.3351
116.7801, 154.3872
117.2622, 166.3400
117.7444, 178.5343
118.2265, 192.1797
118.7086, 207.9828
119.1907, 226.2519
119.6728, 246.7642
120.1549, 270.0646
120.6371, 295.7739
121.1192, 322.4703
121.6013, 350.1299
122.0834, 377.8351
122.5655, 404.4340
123.0476, 429.4785
123.5298, 453.3654
124.0119, 476.5918
124.4940, 499.1164
124.9761, 520.4481
125.4582, 539.7930
125.9404, 557.5276
126.4225, 574.2041
126.9046, 588.8721
127.3867, 602.9678
127.8688, 618.2395
128.3509, 634.5691
128.8331, 653.2293
129.3152, 675.8237
129.7973, 702.1913
130.2794, 730.8575
130.7615, 762.1216
131.2436, 795.3312
131.7258, 827.7284
132.2079, 859.0520
132.6900, 890.0280
133.1721, 921.8952
133.6542, 954.5252
134.1364, 987.2753
134.6185, 1020.721
135.1006, 1054.894
135.5827, 1086.510
136.0648, 1115.000
136.5469, 1141.515
137.0291, 1169.188
137.5112, 1198.334
137.9933, 1226.593
138.4754, 1253.282
138.9575, 1278.458
139.4396, 1299.995
139.9218, 1316.448
140.4039, 1329.004
140.8860, 1343.175
141.3681, 1359.311
141.8502, 1376.291
142.3323, 1392.301
142.8145, 1405.854
143.2966, 1422.916
143.7787, 1445.135
144.2608, 1472.603
144.7429, 1498.766
145.2250, 1523.246
145.7072, 1547.072
146.1893, 1571.275
146.6714, 1595.633
147.1535, 1620.640
147.6356, 1646.286
148.1178, 1672.505
148.5999, 1699.208
149.0820, 1727.354
149.5641, 1755.481
150.0462, 1781.576
150.5283, 1803.986
151.0105, 1825.682
151.4926, 1830.581
151.9747, 1832.719
152.4568, 1835.451
152.9389, 1840.053
153.4210, 1845.029
153.9032, 1848.334
154.3853, 1848.373
154.8674, 1847.964
155.3495, 1847.862
155.8316, 1847.885
156.3137, 1848.713
156.7959, 1851.173
157.2780, 1854.415
157.7601, 1856.843
158.2422, 1856.287
158.7243, 1856.150
159.2065, 1858.163
159.6886, 1863.569
160.1707, 1869.264
160.6528, 1874.453
161.1349, 1879.236
161.6170, 1883.905
162.0992, 1887.818
162.5813, 1892.066
163.0634, 1897.435
163.5455, 1904.836
164.0276, 1912.335
164.5097, 1919.869
164.9919, 1927.062
165.4740, 1932.402
165.9561, 1933.808
166.4382, 1933.667
166.9203, 1934.160
167.4024, 1936.398
167.8846, 1938.947
168.3667, 1941.003
168.8488, 1942.621
169.3309, 1944.100
169.8130, 1946.770
170.2952, 1949.079
170.7773, 1949.019
171.2594, 1943.173
171.7415, 1936.768
172.2236, 1934.406
172.7057, 1935.865
173.1879, 1938.295
173.6700, 1939.439
174.1521, 1940.110
174.6342, 1941.696
175.1163, 1944.448
175.5984, 1948.476
176.0806, 1954.320
176.5627, 1961.999
177.0448, 1969.907
177.5269, 1976.629
178.0090, 1982.463
178.4911, 1988.313
178.9733, 1994.863
179.4554, 2001.509
179.9375, 2007.392
180.4196, 2012.445
180.9017, 2016.940
181.3838, 2020.682
181.8660, 2023.955
182.3481, 2027.874
182.8302, 2034.447
183.3123, 2041.926
183.7944, 2046.232
184.2766, 2047.219
184.7587, 2045.761
185.2408, 2042.151
185.7229, 2036.701
186.2050, 2031.026
186.6871, 2026.179
187.1693, 2021.763
187.6514, 2016.595
188.1335, 2010.453
188.6156, 2003.815
189.0977, 1996.830
189.5798, 1989.558
190.0620, 1983.071
190.5441, 1977.660
191.0262, 1973.342
191.5083, 1970.621
191.9904, 1969.789
192.4725, 1969.746
192.9547, 1968.526
193.4368, 1966.084
193.9189, 1963.736
194.4010, 1962.229
194.8831, 1961.535
195.3652, 1960.856
195.8474, 1959.875
196.3295, 1959.347
196.8116, 1960.548
197.2937, 1963.431
197.7758, 1968.289
198.2579, 1977.745
198.7401, 1992.054
199.2222, 1998.023
199.7043, 1992.487
200.1864, 1980.574
200.6685, 1974.307
201.1507, 1974.784
201.6328, 1975.819
202.1149, 1973.307
202.5970, 1966.780
203.0791, 1961.619
203.5612, 1958.863
204.0434, 1957.342
204.5255, 1953.433
205.0076, 1946.317
205.4897, 1939.687
205.9718, 1936.370
206.4539, 1937.166
206.9361, 1936.560
207.4182, 1933.896
207.9003, 1929.629
208.3824, 1924.550
208.8645, 1917.787
209.3466, 1912.488
209.8288, 1911.106
210.3109, 1914.747
210.7930, 1917.555
211.2751, 1919.226
211.7572, 1919.654
212.2393, 1918.031
212.7215, 1913.340
213.2036, 1908.838
213.6857, 1906.625
214.1678, 1907.135
214.6499, 1908.484
215.1320, 1910.808
215.6142, 1913.816
216.0963, 1916.218
216.5784, 1917.855
217.0605, 1919.157
217.5426, 1920.333
218.0247, 1921.271
218.5069, 1922.383
218.9890, 1923.713
219.4711, 1925.256
219.9532, 1926.837
220.4353, 1928.007
220.9175, 1930.000
221.3996, 1934.165
221.8817, 1942.320
222.3638, 1947.748
222.8459, 1949.155
223.3280, 1947.274
223.8102, 1945.716
224.2923, 1944.625
224.7744, 1943.572
225.2565, 1942.296
225.7386, 1940.735
226.2207, 1939.102
226.7029, 1937.740
227.1850, 1936.347
227.6671, 1933.493
228.1492, 1928.972
228.6313, 1923.281
229.1134, 1916.796
229.5956, 1909.735
230.0777, 1901.139
230.5598, 1889.801
231.0419, 1876.701
231.5240, 1866.834
232.0062, 1862.996
232.4883, 1858.640
232.9704, 1849.393
233.4525, 1832.161
233.9346, 1816.953
234.4167, 1804.847
234.8989, 1795.420
235.3810, 1786.922
235.8631, 1780.026
236.3452, 1772.995
236.8273, 1764.312
237.3094, 1751.632
237.7916, 1742.595
238.2737, 1739.607
238.7558, 1740.641
239.2379, 1736.804
239.7200, 1724.961
240.2021, 1712.445
240.6843, 1703.248
241.1664, 1699.245
241.6485, 1694.452
242.1306, 1688.389
242.6127, 1681.343
243.0948, 1674.497
243.5770, 1667.520
244.0591, 1661.244
244.5412, 1656.313
245.0233, 1653.545
245.5054, 1650.278
245.9876, 1646.158
246.4697, 1641.562
246.9518, 1637.534
247.4339, 1634.258
247.9160, 1631.262
248.3981, 1628.282
248.8803, 1624.953
249.3624, 1622.468
249.8445, 1621.179
250.3266, 1620.623
250.8087, 1619.586
251.2908, 1618.052
251.7730, 1616.005
252.2551, 1613.109
252.7372, 1608.047
253.2193, 1605.594
253.7014, 1606.936
254.1835, 1610.367
254.6657, 1611.874
255.1478, 1610.467
255.6299, 1608.889
256.1120, 1608.366
256.5941, 1609.457
257.0763, 1609.839
257.5584, 1609.213
258.0405, 1608.097
258.5226, 1607.564
259.0047, 1607.874
259.4868, 1608.247
259.9690, 1608.404
260.4511, 1608.316
260.9332, 1608.082
261.4153, 1607.412
261.8974, 1606.844
262.3795, 1607.573
262.8617, 1610.480
263.3438, 1612.525
263.8259, 1612.199
264.3080, 1608.894
264.7901, 1607.694
265.2722, 1609.266
265.7544, 1612.128
266.2365, 1613.965
266.7186, 1614.190
267.2007, 1615.224
267.6828, 1618.441
268.1649, 1624.161
268.6471, 1626.780
269.1292, 1625.414
269.6113, 1622.440
270.0934, 1620.952
270.5755, 1621.483
271.0576, 1621.342
271.5398, 1619.336
272.0219, 1615.550
272.5040, 1613.846
272.9861, 1614.792
273.4682, 1616.615
273.9503, 1617.540
274.4325, 1617.458
274.9146, 1616.942
275.3967, 1615.777
275.8788, 1614.172
276.3610, 1614.359
276.8431, 1616.947
277.3252, 1619.461
277.8073, 1619.096
278.2894, 1615.523
278.7715, 1613.092
279.2537, 1613.128
279.7358, 1614.876
280.2179, 1614.966
280.7000, 1613.128
281.1821, 1610.917
281.6642, 1609.519
282.1464, 1608.943
282.6285, 1608.633
283.1106, 1608.594
283.5927, 1608.677
284.0748, 1608.127
284.5569, 1606.775
285.0391, 1606.206
285.5212, 1608.352
286.0033, 1612.851
286.4854, 1615.420
286.9675, 1615.052
287.4496, 1613.178
287.9318, 1612.431
288.4139, 1612.815
288.8960, 1614.011
289.3781, 1616.569
289.8602, 1620.040
290.3423, 1621.754
290.8245, 1621.000
291.3066, 1619.743
291.7887, 1621.304
292.2708, 1625.455
292.7529, 1629.953
293.2350, 1634.175
293.7172, 1637.848
294.1993, 1639.686
294.6814, 1639.429
295.1635, 1638.397
295.6456, 1637.818
296.1277, 1637.737
296.6099, 1638.424
297.0920, 1640.184
297.5741, 1642.725
298.0562, 1645.470
298.5383, 1648.366
299.0204, 1651.631
299.5026, 1655.318
299.9847, 1659.506
300.4668, 1664.614
300.9489, 1672.960
301.4311, 1681.146
301.9132, 1682.884
302.3953, 1678.452
302.8774, 1674.087
303.3595, 1675.059
303.8416, 1679.508
304.3238, 1684.259
304.8059, 1688.352
305.2880, 1692.179
305.7701, 1695.421
306.2522, 1698.363
306.7343, 1702.576
307.2165, 1711.305
307.6986, 1721.198
308.1807, 1728.006
308.6628, 1730.091
309.1449, 1729.901
309.6270, 1728.777
310.1092, 1726.827
310.5913, 1724.469
311.0734, 1721.154
311.5555, 1717.913
312.0376, 1716.022
312.5197, 1716.473
313.0019, 1716.150
313.4840, 1712.424
313.9661, 1706.664
314.4482, 1701.638
314.9303, 1699.843
315.4124, 1698.230
315.8946, 1694.411
316.3767, 1687.402
316.8588, 1681.815
317.3409, 1681.201
317.8230, 1682.669
318.3051, 1682.408
318.7873, 1676.922
319.2694, 1671.525
319.7515, 1668.587
320.2336, 1668.393
320.7157, 1668.396
321.1978, 1667.531
321.6800, 1666.696
322.1621, 1666.705
322.6442, 1668.352
323.1263, 1670.182
323.6084, 1672.245
324.0905, 1674.450
324.5727, 1675.618
325.0548, 1673.333
325.5369, 1671.399
326.0190, 1672.131
326.5012, 1680.899
326.9833, 1686.317
327.4654, 1685.388
327.9475, 1679.877
328.4296, 1676.859
328.9117, 1677.411
329.3939, 1679.515
329.8760, 1682.546
330.3581, 1687.788
330.8402, 1691.497
331.3223, 1692.728
331.8044, 1692.661
332.2866, 1693.820
332.7687, 1697.383
333.2508, 1700.313
333.7329, 1701.303
334.2150, 1699.610
334.6971, 1699.656
335.1793, 1702.536
335.6614, 1706.106
336.1435, 1707.226
336.6256, 1704.590
337.1077, 1703.162
337.5898, 1704.731
338.0720, 1709.123
338.5541, 1711.623
339.0362, 1711.660
339.5183, 1711.272
340.0004, 1712.809
340.4825, 1716.834
340.9647, 1718.856
341.4468, 1717.371
341.9289, 1713.773
342.4110, 1713.002
342.8931, 1715.483
343.3752, 1717.928
343.8574, 1717.525
344.3395, 1714.483
344.8216, 1712.726
345.3037, 1712.908
345.7858, 1713.884
346.2679, 1713.839
346.7501, 1712.774
347.2322, 1711.075
347.7143, 1707.908
348.1964, 1704.172
348.6785, 1703.320
349.1607, 1705.870
349.6428, 1708.900
350.1249, 1709.317
350.6070, 1707.562
351.0891, 1704.949
351.5713, 1701.481
352.0534, 1697.785
352.5355, 1694.526
353.0176, 1691.776
353.4997, 1689.840
353.9818, 1689.425
354.4640, 1689.904
354.9461, 1690.399
355.4282, 1691.158
355.9103, 1691.213
356.3924, 1689.015
356.8745, 1685.140
357.3567, 1681.906
357.8388, 1680.935
358.3209, 1680.978
358.8030, 1680.962
359.2851, 1680.641
359.7672, 1680.417
360.2494, 1680.401
360.7315, 1680.646
361.2136, 1681.238
361.6957, 1682.414
362.1778, 1683.774
362.6599, 1685.218
363.1421, 1686.776
363.6242, 1688.009
364.1063, 1688.072
364.5884, 1688.012
365.0705, 1688.901
365.5526, 1691.627
366.0348, 1694.576
366.5169, 1697.463
366.9990, 1700.269
367.4811, 1702.984
367.9632, 1707.103
368.4453, 1710.097
368.9275, 1710.390
369.4096, 1702.918
369.8917, 1699.779
370.3738, 1703.629
370.8559, 1711.874
371.3380, 1717.259
371.8202, 1719.006
372.3023, 1718.996
372.7844, 1717.424
373.2665, 1713.404
373.7487, 1711.561
374.2308, 1712.558
374.7129, 1715.083
375.1950, 1717.678
375.6771, 1720.738
376.1592, 1722.578
376.6414, 1722.310
377.1235, 1720.250
377.6056, 1719.628
378.0877, 1720.701
378.5698, 1722.384
379.0519, 1723.968
379.5341, 1725.450
380.0162, 1726.272
380.4983, 1726.015
380.9804, 1725.431
381.4625, 1726.487
381.9446, 1729.155
382.4268, 1731.779
382.9089, 1733.379
383.3910, 1734.129
383.8731, 1734.664
384.3552, 1735.039
384.8373, 1735.107
385.3195, 1734.216
385.8016, 1732.792
386.2837, 1732.097
386.7658, 1733.655
387.2479, 1735.781
387.7300, 1736.123
388.2122, 1734.739
388.6943, 1733.200
389.1764, 1733.058
389.6585, 1733.323
390.1406, 1732.625
390.6227, 1729.665
391.1049, 1726.964
391.5870, 1726.712
392.0691, 1728.175
392.5512, 1729.151
393.0333, 1727.934
393.5154, 1726.390
393.9976, 1726.038
394.4797, 1727.796
394.9618, 1728.267
395.4439, 1725.551
395.9260, 1721.162
396.4081, 1717.123
396.8903, 1713.019
397.3724, 1710.113
397.8545, 1709.361
398.3366, 1710.890
398.8188, 1711.324
399.3009, 1709.614
399.7830, 1707.280
400.2651, 1705.238
400.7472, 1703.222
401.2293, 1701.928
401.7115, 1701.852
402.1936, 1702.461
402.6757, 1702.009
403.1578, 1699.666
403.6399, 1697.668
404.1220, 1697.036
404.6042, 1697.986
405.0863, 1699.097
405.5684, 1700.623
406.0505, 1701.877
406.5326, 1701.476
407.0147, 1699.045
407.4969, 1697.969
407.9790, 1699.786
408.4611, 1703.525
408.9432, 1705.125
409.4253, 1704.450
409.9074, 1703.044
410.3896, 1701.380
410.8717, 1699.814
411.3538, 1700.285
411.8359, 1703.625
412.3180, 1707.682
412.8001, 1709.071
413.2823, 1708.385
413.7644, 1708.101
414.2465, 1711.328
414.7286, 1714.902
415.2107, 1713.477
415.6928, 1706.659
416.1750, 1700.557
416.6571, 1700.296
417.1392, 1703.456
417.6213, 1706.835
418.1034, 1710.392
418.5855, 1712.757
419.0677, 1712.181
419.5498, 1709.465
420.0319, 1707.612
420.5140, 1708.569
420.9961, 1710.242
421.4782, 1711.499
421.9604, 1712.337
422.4425, 1712.331
422.9246, 1710.696
423.4067, 1708.358
423.8889, 1706.563
424.3710, 1705.053
424.8531, 1704.560
425.3352, 1705.836
425.8173, 1708.894
426.2994, 1710.538
426.7816, 1709.512
427.2637, 1708.329
427.7458, 1708.841
428.2279, 1712.414
428.7100, 1714.238
429.1921, 1713.345
429.6743, 1710.960
430.1564, 1709.941
430.6385, 1710.496
431.1206, 1711.646
431.6027, 1713.387
432.0848, 1715.655
432.5670, 1716.301
433.0491, 1714.989
433.5312, 1713.461
434.0133, 1713.953
434.4954, 1716.113
434.9775, 1717.478
435.4597, 1717.215
435.9418, 1716.154
436.4239, 1715.530
436.9060, 1715.352
437.3881, 1715.620
437.8702, 1716.663
438.3524, 1718.023
438.8345, 1718.799
439.3166, 1718.718
439.7987, 1719.167
440.2808, 1721.732
440.7629, 1725.452
441.2451, 1728.802
441.7272, 1732.957
442.2093, 1735.002
442.6914, 1731.417
443.1735, 1723.294
443.6556, 1717.864
444.1378, 1720.687
444.6199, 1725.074
445.1020, 1726.678
445.5841, 1723.011
446.0662, 1720.262
446.5483, 1719.657
447.0305, 1720.406
447.5126, 1721.209
447.9947, 1722.159
448.4768, 1723.004
448.9590, 1723.692
449.4411, 1724.212
449.9232, 1724.502
450.4053, 1724.278
450.8874, 1724.188
451.3695, 1724.873
451.8517, 1726.652
452.3338, 1727.598
452.8159, 1727.190
453.2980, 1726.214
453.7801, 1726.422
454.2622, 1727.888
454.7444, 1729.297
455.2265, 1729.866
455.7086, 1729.872
456.1907, 1730.613
456.6728, 1732.166
457.1549, 1733.715
457.6371, 1734.485
458.1192, 1734.700
458.6013, 1734.924
459.0834, 1735.326
459.5655, 1735.727
460.0476, 1735.899
460.5298, 1735.902
461.0119, 1735.917
461.4940, 1735.659
461.9761, 1735.708
462.4582, 1736.771
462.9403, 1739.002
463.4225, 1740.922
463.9046, 1742.021
464.3867, 1742.426
464.8688, 1742.239
465.3509, 1740.831
465.8330, 1739.593
466.3152, 1738.654
466.7973, 1738.084
467.2794, 1738.120
467.7615, 1738.969
468.2436, 1740.254
468.7257, 1742.227
469.2079, 1745.459
469.6900, 1746.366
470.1721, 1743.178
470.6542, 1739.575
471.1363, 1740.199
471.6184, 1746.822
472.1006, 1750.314
472.5827, 1747.960
473.0648, 1742.141
473.5469, 1740.558
474.0291, 1743.557
474.5112, 1746.777
474.9933, 1747.481
475.4754, 1746.265
475.9575, 1745.518
476.4396, 1745.299
476.9218, 1745.796
477.4039, 1747.856
477.8860, 1750.773
478.3681, 1752.840
478.8502, 1753.084
479.3323, 1752.765
479.8145, 1752.870
480.2966, 1753.388
480.7787, 1754.297
481.2608, 1755.711
481.7429, 1757.400
482.2250, 1759.645
482.7072, 1762.845
483.1893, 1764.349
483.6714, 1761.512
484.1535, 1757.293
484.6356, 1754.691
485.1177, 1755.525
485.5999, 1756.481
486.0820, 1757.103
486.5641, 1757.508
487.0462, 1758.121
487.5283, 1759.267
488.0104, 1760.247
488.4926, 1760.800
488.9747, 1760.888
489.4568, 1760.696
489.9389, 1759.887
490.4210, 1759.410
490.9031, 1760.787
491.3853, 1764.195
491.8674, 1766.306
492.3495, 1765.975
492.8316, 1764.479
493.3137, 1764.777
493.7958, 1766.705
494.2780, 1768.576
494.7601, 1769.246
495.2422, 1769.204
495.7243, 1769.168
496.2064, 1769.148
496.6885, 1769.638
497.1707, 1771.596
497.6528, 1774.137
498.1349, 1776.048
498.6170, 1776.805
499.0992, 1777.136
499.5813, 1777.348
500.0634, 1777.436
500.5455, 1777.396
501.0276, 1777.337
501.5097, 1777.053
501.9919, 1776.337
502.4740, 1775.080
502.9561, 1774.128
503.4382, 1773.169
503.9203, 1772.802
504.4024, 1773.641
504.8846, 1777.084
505.3667, 1778.729
505.8488, 1777.541
506.3309, 1774.902
506.8130, 1773.791
507.2951, 1774.423
507.7773, 1775.690
508.2594, 1777.548
508.7415, 1779.746
509.2236, 1780.821
509.7057, 1780.725
510.1878, 1780.161
510.6700, 1779.444
511.1521, 1778.714
511.6342, 1778.398
512.1163, 1778.614
512.5984, 1779.082
513.0806, 1779.358
513.5627, 1779.670
514.0448, 1780.493
514.5269, 1783.368
515.0090, 1785.713
515.4911, 1785.205
515.9733, 1782.251
516.4554, 1779.770
516.9375, 1778.469
517.4196, 1778.239
517.9017, 1779.300
518.3839, 1782.696
518.8660, 1784.829
519.3481, 1784.515
519.8302, 1783.100
520.3123, 1781.929
520.7944, 1780.788
521.2766, 1780.321
521.7587, 1780.812
522.2408, 1782.060
522.7229, 1783.466
523.2050, 1785.318
523.6871, 1786.398
524.1693, 1785.534
524.6514, 1782.993
525.1335, 1781.934
525.6156, 1782.492
526.0977, 1783.706
526.5798, 1784.818
527.0620, 1785.811
527.5441, 1786.696
528.0262, 1787.640
528.5083, 1788.091
528.9904, 1786.157
529.4725, 1783.149
529.9547, 1782.322
530.4368, 1787.551
530.9189, 1793.641
531.4010, 1797.340
531.8831, 1798.549
532.3652, 1798.792
532.8474, 1797.408
533.3295, 1796.044
533.8116, 1795.780
534.2937, 1797.527
534.7758, 1799.086
535.2579, 1800.753
535.7401, 1802.067
536.2222, 1802.148
536.7043, 1800.188
537.1864, 1799.043
537.6685, 1799.654
538.1506, 1801.550
538.6328, 1802.537
539.1149, 1802.617
539.5970, 1801.970
540.0791, 1799.969
540.5612, 1797.158
541.0433, 1796.561
541.5255, 1798.455
542.0076, 1800.794
542.4897, 1801.759
542.9718, 1801.658
543.4539, 1800.954
543.9360, 1799.048
544.4182, 1797.811
544.9003, 1799.416
545.3824, 1802.790
545.8645, 1805.577
546.3466, 1805.899
546.8287, 1806.222
547.3109, 1808.030
547.7930, 1811.395
548.2751, 1813.758
548.7572, 1813.831
549.2393, 1813.502
549.7214, 1813.836
550.2036, 1815.424
550.6857, 1816.367
551.1678, 1816.490
551.6499, 1816.189
552.1320, 1815.342
552.6141, 1813.401
553.0963, 1814.952
553.5784, 1822.634
554.0605, 1833.162
554.5426, 1837.795
555.0247, 1836.745
555.5068, 1833.704
555.9890, 1829.757
556.4711, 1825.650
556.9532, 1822.597
557.4353, 1820.640
557.9174, 1819.826
558.3995, 1821.021
558.8817, 1822.988
559.3638, 1824.407
559.8459, 1824.919
560.3281, 1824.906
560.8102, 1824.005
561.2923, 1822.787
561.7744, 1822.156
562.2565, 1822.246
562.7386, 1823.026
563.2208, 1825.188
563.7029, 1828.324
564.1850, 1829.388
564.6671, 1827.018
565.1492, 1825.004
565.6313, 1825.466
566.1135, 1828.637
566.5956, 1831.116
567.0777, 1832.878
567.5598, 1833.957
568.0419, 1834.142
568.5240, 1833.584
569.0062, 1833.070
569.4883, 1832.707
569.9704, 1832.556
570.4525, 1833.025
570.9346, 1833.808
571.4167, 1834.101
571.8989, 1832.943
572.3810, 1831.674
572.8631, 1831.178
573.3452, 1831.412
573.8273, 1831.934
574.3094, 1832.596
574.7916, 1833.503
575.2737, 1834.838
575.7558, 1836.935
576.2379, 1838.425
576.7200, 1839.093
577.2021, 1839.281
577.6843, 1839.122
578.1664, 1838.166
578.6485, 1838.288
579.1306, 1840.084
579.6127, 1842.571
580.0948, 1843.750
580.5770, 1843.611
581.0591, 1843.293
581.5412, 1843.026
582.0233, 1842.995
582.5054, 1844.085
582.9875, 1846.070
583.4697, 1847.327
583.9518, 1844.654
584.4339, 1841.784
584.9160, 1843.888
585.3981, 1852.201
585.8802, 1858.891
586.3624, 1859.184
586.8445, 1856.446
587.3266, 1853.766
587.8087, 1851.308
588.2908, 1849.547
588.7729, 1848.575
589.2551, 1848.327
589.7372, 1848.820
590.2193, 1850.543
590.7014, 1852.045
591.1835, 1853.066
591.6656, 1853.562
592.1478, 1852.705
592.6299, 1850.110
593.1120, 1848.917
593.5941, 1852.557
594.0762, 1859.260
594.5583, 1862.325
595.0405, 1861.434
595.5226, 1859.109
596.0047, 1856.679
596.4868, 1854.520
596.9689, 1853.155
597.4510, 1852.784
597.9332, 1853.087
598.4153, 1854.297
598.8974, 1856.000
599.3795, 1857.595
599.8616, 1859.304
600.3438, 1860.530
600.8259, 1860.760
601.3080, 1860.320
601.7901, 1860.506
602.2722, 1861.670
602.7543, 1862.836
603.2365, 1863.598
603.7186, 1863.936
604.2007, 1864.322
604.6828, 1864.637
605.1649, 1865.326
605.6470, 1867.258
606.1292, 1869.936
606.6113, 1871.231
607.0934, 1870.713
607.5755, 1869.759
608.0576, 1869.869
608.5398, 1870.503
609.0219, 1870.735
609.5040, 1870.036
609.9861, 1869.252
610.4683, 1868.731
610.9504, 1868.524
611.4325, 1868.700
611.9146, 1870.191
612.3967, 1871.222
612.8788, 1871.105
613.3610, 1869.981
613.8431, 1869.102
614.3252, 1868.437
614.8073, 1868.127
615.2894, 1868.183
615.7715, 1868.584
616.2537, 1869.642
616.7358, 1871.385
617.2179, 1873.484
617.7000, 1876.003
618.1821, 1878.612
618.6642, 1879.817
619.1464, 1878.888
619.6285, 1878.213
620.1106, 1880.738
620.5927, 1885.085
621.0748, 1888.886
621.5569, 1891.314
622.0391, 1892.970
622.5212, 1893.383
623.0033, 1893.183
623.4854, 1894.268
623.9675, 1898.581
624.4496, 1902.635
624.9318, 1905.508
625.4139, 1907.240
625.8960, 1908.402
626.3781, 1908.645
626.8602, 1909.172
627.3423, 1911.023
627.8245, 1914.143
628.3066, 1916.010
628.7887, 1916.261
629.2708, 1917.112
629.7529, 1921.894
630.2350, 1928.895
630.7172, 1934.068
631.1993, 1935.832
631.6814, 1937.448
632.1635, 1941.560
632.6456, 1947.258
633.1277, 1953.171
633.6099, 1961.119
634.0920, 1966.740
634.5741, 1966.523
635.0562, 1962.514
635.5383, 1962.604
636.0204, 1969.055
636.5026, 1976.746
636.9847, 1984.934
637.4668, 1993.423
637.9489, 1999.261
638.4310, 2002.364
638.9131, 2003.559
639.3953, 2003.407
639.8774, 2001.848
640.3595, 1998.325
640.8416, 1992.724
641.3237, 1986.349
641.8058, 1980.098
642.2880, 1974.030
642.7701, 1968.087
643.2522, 1961.476
643.7343, 1956.935
644.2164, 1957.869
644.6985, 1960.975
645.1807, 1961.849
645.6628, 1956.981
646.1449, 1952.968
646.6270, 1950.674
647.1091, 1949.800
647.5912, 1949.939
648.0734, 1951.820
648.5555, 1952.581
649.0376, 1950.727
649.5197, 1947.127
650.0018, 1946.007
650.4839, 1947.330
650.9661, 1948.696
651.4482, 1947.800
651.9303, 1946.206
652.4124, 1947.073
652.8945, 1950.486
653.3766, 1953.731
653.8588, 1955.117
654.3409, 1955.504
654.8230, 1955.584
655.3051, 1955.461
655.7872, 1955.063
656.2693, 1953.135
656.7515, 1951.625
657.2336, 1952.537
657.7158, 1957.443
658.1979, 1961.288
658.6800, 1963.563
659.1621, 1964.695
659.6442, 1965.241
660.1263, 1965.169
660.6085, 1965.012
661.0906, 1964.688
661.5727, 1964.622
662.0548, 1965.881
662.5369, 1968.146
663.0190, 1970.218
663.5012, 1971.907
663.9833, 1972.838
664.4654, 1972.375
664.9475, 1970.725
665.4296, 1969.319
665.9117, 1968.452
666.3939, 1968.165
666.8760, 1968.717
667.3581, 1970.327
667.8402, 1971.359
668.3223, 1971.364
668.8044, 1971.559
669.2866, 1972.988
669.7687, 1975.707
670.2508, 1978.101
670.7329, 1980.044
671.2150, 1981.730
671.6971, 1984.044
672.1793, 1986.249
672.6614, 1986.162
673.1435, 1982.474
673.6256, 1978.428
674.1077, 1976.598
674.5898, 1976.073
675.0720, 1975.467
675.5541, 1973.015
676.0362, 1971.918
676.5183, 1974.932
677.0004, 1979.941
677.4825, 1980.901
677.9647, 1975.263
678.4468, 1970.611
678.9289, 1969.291
679.4110, 1970.610
679.8931, 1970.773
680.3752, 1969.652
680.8574, 1969.783
681.3395, 1974.349
681.8216, 1980.713
682.3037, 1982.969
682.7858, 1981.271
683.2679, 1978.396
683.7501, 1973.865
684.2322, 1970.471
684.7143, 1971.095
685.1964, 1976.778
685.6785, 1981.899
686.1606, 1984.662
686.6428, 1986.509
687.1249, 1988.566
687.6070, 1991.285
688.0891, 1993.124
688.5712, 1993.905
689.0533, 1994.138
689.5355, 1994.517
690.0176, 1995.035
690.4997, 1994.873
690.9818, 1993.697
691.4639, 1992.400
691.9460, 1992.229
692.4282, 1992.876
692.9103, 1993.634
693.3924, 1993.541
693.8745, 1994.275
694.3566, 1997.660
694.8387, 2002.554
695.3209, 2006.293
695.8030, 2006.799
696.2851, 2007.684
696.7672, 2009.890
697.2493, 2013.153
697.7314, 2016.136
698.2136, 2018.844
698.6957, 2021.237
699.1778, 2023.413
699.6599, 2025.268
700.1420, 2026.195
700.6241, 2026.238
701.1063, 2025.889
701.5884, 2025.331
702.0705, 2024.688
702.5526, 2024.051
703.0347, 2023.436
703.5168, 2023.021
703.9990, 2023.530
704.4811, 2023.828
704.9632, 2022.878
705.4453, 2019.557
705.9274, 2017.946
706.4095, 2018.531
706.8917, 2020.288
707.3738, 2023.152
707.8560, 2027.555
708.3381, 2027.829
708.8202, 2022.549
709.3023, 2016.607
709.7844, 2017.449
710.2665, 2022.660
710.7487, 2025.297
711.2308, 2022.999
711.7129, 2019.305
712.1950, 2015.778
712.6771, 2012.990
713.1592, 2011.796
713.6414, 2015.104
714.1235, 2016.972
714.6056, 2014.443
715.0877, 2009.890
715.5698, 2008.321
716.0519, 2011.310
716.5341, 2013.030
717.0162, 2011.706
717.4983, 2008.425
717.9804, 2006.268
718.4625, 2005.152
718.9446, 2004.201
719.4268, 2002.402
719.9089, 2000.914
720.3910, 2001.739
720.8731, 2004.375
721.3552, 2006.728
721.8373, 2007.796
722.3195, 2008.263
722.8016, 2008.142
723.2837, 2007.463
723.7658, 2007.663
724.2479, 2008.967
724.7300, 2010.939
725.2122, 2013.532
725.6943, 2016.765
726.1764, 2020.227
726.6585, 2024.283
727.1406, 2026.442
727.6227, 2022.970
728.1049, 2016.470
728.5870, 2013.097
729.0691, 2013.354
729.5512, 2015.325
730.0333, 2019.128
730.5154, 2023.136
730.9976, 2025.631
731.4797, 2025.834
731.9618, 2026.155
732.4439, 2027.055
732.9260, 2028.214
733.4081, 2029.458
733.8903, 2030.887
734.3724, 2032.120
734.8545, 2033.160
735.3366, 2033.953
735.8187, 2034.658
736.3008, 2035.106
736.7830, 2034.142
737.2651, 2030.939
737.7472, 2028.212
738.2293, 2029.542
738.7114, 2032.864
739.1935, 2035.125
739.6757, 2035.570
740.1578, 2034.520
740.6399, 2030.338
741.1220, 2025.160
741.6041, 2022.704
742.0862, 2024.267
742.5684, 2025.621
743.0505, 2026.007
743.5326, 2025.876
744.0147, 2026.403
744.4968, 2027.500
744.9789, 2028.051
745.4611, 2027.258
745.9432, 2026.201
746.4253, 2026.394
746.9074, 2027.483
747.3895, 2028.542
747.8716, 2029.266
748.3538, 2029.830
748.8359, 2030.754
749.3180, 2031.750
749.8001, 2031.172
750.2822, 2027.376
750.7643, 2024.897
751.2465, 2025.258
751.7286, 2028.043
752.2107, 2031.632
752.6928, 2036.071
753.1749, 2039.968
753.6570, 2042.508
754.1392, 2043.977
754.6213, 2044.107
755.1034, 2043.261
755.5855, 2043.545
756.0676, 2047.548
756.5498, 2051.728
757.0319, 2053.831
757.5140, 2053.632
757.9962, 2053.826
758.4783, 2054.449
758.9604, 2055.591
759.4425, 2057.499
759.9246, 2060.111
760.4067, 2062.142
760.8889, 2063.575
761.3710, 2064.426
761.8531, 2064.806
762.3352, 2064.599
762.8173, 2062.944
763.2994, 2059.917
763.7816, 2058.127
764.2637, 2060.195
764.7458, 2063.465
765.2279, 2066.454
765.7100, 2069.467
766.1921, 2069.891
766.6743, 2065.893
767.1564, 2061.527
767.6385, 2059.492
768.1206, 2060.084
768.6027, 2059.889
769.0848, 2058.699
769.5670, 2057.810
770.0491, 2059.006
770.5312, 2061.186
771.0133, 2061.814
771.4954, 2060.400
771.9775, 2059.554
772.4597, 2063.088
772.9418, 2066.540
773.4239, 2065.585
773.9060, 2056.406
774.3881, 2051.166
774.8702, 2052.241
775.3524, 2055.109
775.8345, 2056.257
776.3166, 2055.646
776.7987, 2053.633
777.2808, 2049.939
777.7629, 2046.581
778.2451, 2046.358
778.7272, 2047.944
779.2093, 2048.521
779.6914, 2047.231
780.1735, 2046.345
780.6556, 2048.466
781.1378, 2050.982
781.6199, 2051.230
782.1020, 2045.890
782.5841, 2043.300
783.0662, 2044.947
783.5483, 2047.644
784.0305, 2047.505
784.5126, 2044.380
784.9947, 2043.096
785.4768, 2044.619
785.9589, 2046.222
786.4410, 2043.981
786.9232, 2039.757
787.4053, 2036.782
787.8874, 2035.786
788.3695, 2036.303
788.8516, 2039.291
789.3337, 2043.080
789.8159, 2045.832
790.2980, 2047.456
790.7801, 2047.753
791.2622, 2045.933
791.7443, 2043.805
792.2264, 2044.120
792.7086, 2046.709
793.1907, 2048.341
793.6728, 2048.199
794.1549, 2048.206
794.6370, 2051.345
795.1191, 2055.890
795.6013, 2058.869
796.0834, 2058.237
796.5655, 2058.479
797.0476, 2062.359
797.5297, 2067.460
798.0118, 2070.783
798.4940, 2071.535
798.9761, 2072.172
799.4582, 2072.441
799.9403, 2073.380
800.4224, 2077.304
800.9045, 2083.527
801.3867, 2087.803
801.8688, 2088.817
802.3509, 2089.356
802.8330, 2091.615
803.3151, 2095.280
803.7972, 2099.998
804.2794, 2106.955
804.7615, 2112.827
805.2436, 2116.398
805.7258, 2118.872
806.2079, 2121.486
806.6900, 2124.383
807.1721, 2126.774
807.6542, 2128.389
808.1364, 2129.949
808.6185, 2133.317
809.1006, 2137.431
809.5827, 2138.560
810.0648, 2134.806
810.5469, 2131.573
811.0291, 2133.903
811.5112, 2138.528
811.9933, 2141.608
812.4754, 2139.908
812.9575, 2140.636
813.4396, 2145.702
813.9218, 2151.742
814.4039, 2154.595
814.8860, 2154.047
815.3681, 2154.451
815.8502, 2156.401
816.3323, 2158.965
816.8145, 2160.897
817.2966, 2162.721
817.7787, 2165.598
818.2608, 2170.264
818.7429, 2174.474
819.2250, 2176.780
819.7072, 2178.339
820.1893, 2180.270
820.6714, 2182.683
821.1535, 2185.215
821.6356, 2187.646
822.1177, 2190.577
822.5999, 2196.281
823.0820, 2203.686
823.5641, 2204.692
824.0462, 2197.769
824.5283, 2189.492
825.0104, 2184.714
825.4926, 2182.615
825.9747, 2183.043
826.4568, 2187.414
826.9389, 2189.229
827.4210, 2183.196
827.9031, 2177.099
828.3853, 2176.616
828.8674, 2183.431
829.3495, 2187.564
829.8316, 2188.543
830.3137, 2188.532
830.7958, 2190.016
831.2780, 2191.950
831.7601, 2191.667
832.2422, 2188.809
832.7243, 2186.137
833.2064, 2185.563
833.6885, 2185.796
834.1707, 2186.149
834.6528, 2186.910
835.1349, 2185.942
835.6170, 2182.137
836.0991, 2178.509
836.5812, 2177.329
837.0634, 2178.395
837.5455, 2178.630
838.0276, 2177.993
838.5097, 2177.495
838.9918, 2178.031
839.4739, 2178.992
839.9561, 2180.034
840.4382, 2181.080
840.9203, 2181.021
841.4024, 2179.045
841.8845, 2176.212
842.3666, 2172.668
842.8488, 2168.451
843.3309, 2165.797
843.8130, 2165.079
844.2951, 2163.926
844.7772, 2160.588
845.2593, 2155.955
845.7415, 2151.565
846.2236, 2147.603
846.7057, 2145.117
847.1878, 2146.669
847.6699, 2148.058
848.1520, 2146.440
848.6342, 2142.158
849.1163, 2139.042
849.5984, 2137.645
850.0805, 2136.477
850.5626, 2134.826
851.0447, 2133.166
851.5269, 2133.873
852.0090, 2136.534
852.4911, 2137.804
852.9732, 2134.717
853.4553, 2130.768
853.9374, 2128.976
854.4196, 2128.806
854.9017, 2128.951
855.3839, 2129.381
855.8660, 2129.640
856.3481, 2129.472
856.8302, 2129.173
857.3123, 2129.686
857.7944, 2131.161
858.2766, 2131.573
858.7587, 2130.321
859.2408, 2128.024
859.7229, 2124.424
860.2050, 2120.638
860.6871, 2119.172
861.1693, 2122.917
861.6514, 2125.872
862.1335, 2124.919
862.6156, 2122.323
863.0977, 2121.236
863.5798, 2122.388
864.0620, 2122.839
864.5441, 2122.119
865.0262, 2121.159
865.5083, 2121.355
865.9904, 2122.259
866.4725, 2122.272
866.9547, 2120.851
867.4368, 2119.933
867.9189, 2121.612
868.4010, 2123.975
868.8831, 2125.110
869.3652, 2123.782
869.8474, 2123.990
870.3295, 2127.031
870.8116, 2129.564
871.2937, 2128.234
871.7758, 2123.527
872.2579, 2121.144
872.7401, 2121.250
873.2222, 2122.020
873.7043, 2122.699
874.1864, 2122.862
874.6685, 2121.714
875.1506, 2119.183
875.6328, 2117.352
876.1149, 2116.622
876.5970, 2116.880
877.0791, 2118.411
877.5612, 2121.037
878.0433, 2123.180
878.5255, 2124.860
879.0076, 2125.547
879.4897, 2123.964
879.9718, 2121.815
880.4539, 2121.908
880.9360, 2123.604
881.4182, 2124.672
881.9003, 2123.662
882.3824, 2122.450
882.8645, 2121.011
883.3466, 2119.951
883.8287, 2121.378
884.3109, 2125.989
884.7930, 2129.033
885.2751, 2128.943
885.7572, 2127.214
886.2393, 2125.716
886.7214, 2124.585
887.2036, 2124.236
887.6857, 2125.183
888.1678, 2126.292
888.6499, 2128.070
889.1320, 2129.254
889.6141, 2127.899
890.0963, 2122.088
890.5784, 2119.257
891.0605, 2120.556
891.5426, 2123.239
892.0247, 2124.183
892.5068, 2123.932
892.9890, 2124.133
893.4711, 2125.090
893.9532, 2125.916
894.4353, 2125.851
894.9174, 2125.514
895.3995, 2125.513
895.8817, 2126.139
896.3638, 2125.621
896.8459, 2122.763
897.3280, 2121.230
897.8101, 2124.472
898.2922, 2131.259
898.7744, 2134.264
899.2565, 2133.793
899.7386, 2133.391
900.2207, 2135.511
900.7028, 2138.372
901.1849, 2141.240
901.6671, 2143.840
902.1492, 2144.828
902.6313, 2143.075
903.1134, 2141.424
903.5955, 2140.284
904.0776, 2139.997
904.5598, 2142.838
905.0419, 2148.126
905.5240, 2150.099
906.0062, 2144.596
906.4883, 2138.338
906.9704, 2137.072
907.4525, 2139.231
907.9346, 2142.284
908.4167, 2147.676
908.8989, 2150.935
909.3810, 2151.082
909.8631, 2149.819
910.3452, 2148.516
910.8273, 2147.324
911.3094, 2149.333
911.7916, 2155.269
912.2737, 2161.352
912.7558, 2164.267
913.2379, 2165.326
913.7200, 2165.422
914.2021, 2164.196
914.6843, 2164.986
915.1664, 2170.270
915.6485, 2175.191
916.1306, 2177.268
916.6127, 2176.608
917.0948, 2174.354
917.5770, 2170.511
918.0591, 2167.166
918.5412, 2165.428
919.0233, 2164.996
919.5054, 2166.379
919.9875, 2168.975
920.4697, 2170.410
920.9518, 2168.698
921.4339, 2167.314
921.9160, 2167.000
922.3981, 2167.470
922.8802, 2167.913
923.3624, 2168.337
923.8445, 2169.604
924.3266, 2172.205
924.8087, 2175.153
925.2908, 2178.692
925.7729, 2181.442
926.2551, 2181.219
926.7372, 2174.683
927.2193, 2170.209
927.7014, 2169.292
928.1835, 2170.063
928.6656, 2171.266
929.1478, 2172.927
929.6299, 2173.331
930.1120, 2172.318
930.5941, 2171.752
931.0762, 2173.260
931.5583, 2176.059
932.0405, 2179.981
932.5226, 2184.891
933.0047, 2188.188
933.4868, 2187.880
933.9689, 2187.459
934.4510, 2188.179
934.9332, 2189.707
935.4153, 2190.157
935.8974, 2189.582
936.3795, 2189.644
936.8616, 2191.591
937.3438, 2193.903
937.8259, 2195.818
938.3080, 2196.826
938.7901, 2195.887
939.2722, 2189.633
939.7543, 2185.707
940.2365, 2185.599
940.7186, 2187.318
941.2007, 2188.705
941.6828, 2189.676
942.1649, 2188.715
942.6470, 2185.391
943.1292, 2182.038
943.6113, 2180.271
944.0934, 2179.871
944.5755, 2181.145
945.0576, 2184.724
945.5397, 2186.270
946.0219, 2184.861
946.5040, 2182.497
946.9861, 2179.724
947.4682, 2176.816
947.9503, 2176.058
948.4324, 2177.178
948.9146, 2177.925
949.3967, 2176.879
949.8788, 2175.061
950.3609, 2171.861
950.8430, 2168.448
951.3251, 2168.595
951.8073, 2175.333
952.2894, 2180.185
952.7715, 2181.709
953.2536, 2181.187
953.7357, 2179.888
954.2179, 2178.264
954.7000, 2178.606
955.1821, 2181.961
955.6642, 2184.465
956.1464, 2181.997
956.6285, 2178.354
957.1106, 2177.378
957.5927, 2180.428
958.0748, 2180.626
958.5569, 2176.864
959.0391, 2173.142
959.5212, 2172.275
960.0033, 2173.411
960.4854, 2174.039
960.9675, 2174.318
961.4496, 2175.222
961.9318, 2178.217
962.4139, 2180.991
962.8960, 2182.704
963.3781, 2183.234
963.8602, 2182.110
964.3423, 2178.793
964.8245, 2176.296
965.3066, 2175.326
965.7887, 2175.207
966.2708, 2174.946
966.7529, 2174.834
967.2350, 2175.626
967.7172, 2177.965
968.1993, 2179.565
968.6814, 2178.672
969.1635, 2177.478
969.6456, 2177.447
970.1277, 2178.632
970.6099, 2180.362
971.0920, 2182.693
971.5741, 2184.350
972.0562, 2184.047
972.5383, 2182.757
973.0204, 2180.709
973.5026, 2178.546
973.9847, 2178.701
974.4668, 2184.599
974.9489, 2189.586
975.4310, 2192.328
975.9131, 2193.388
976.3953, 2193.253
976.8774, 2192.110
977.3595, 2193.259
977.8416, 2198.262
978.3237, 2202.142
978.8058, 2197.848
979.2880, 2191.375
979.7701, 2189.704
980.2522, 2196.152
980.7343, 2199.847
981.2164, 2199.458
981.6985, 2198.178
982.1807, 2197.775
982.6628, 2198.105
983.1449, 2198.380
983.6270, 2198.718
984.1091, 2199.942
984.5912, 2203.460
985.0734, 2207.007
985.5555, 2209.960
986.0376, 2211.844
986.5197, 2211.480
987.0018, 2207.674
987.4839, 2205.884
987.9661, 2207.493
988.4482, 2209.851
988.9303, 2209.310
989.4124, 2206.946
989.8945, 2204.526
990.3766, 2202.252
990.8588, 2200.921
991.3409, 2201.207
991.8230, 2202.321
992.3051, 2203.788
992.7872, 2205.600
993.2693, 2208.533
993.7515, 2212.664
994.2336, 2215.491
994.7157, 2214.603
995.1978, 2212.570
995.6799, 2212.343
996.1620, 2213.265
996.6442, 2213.843
997.1263, 2212.455
997.6084, 2212.375
998.0905, 2214.118
998.5726, 2216.940
999.0547, 2220.334
999.5369, 2224.114
1000.019, 2227.422
1000.501, 2230.248
1000.983, 2231.038
1001.465, 2225.702
1001.947, 2220.270
1002.430, 2220.102
1002.912, 2225.580
1003.394, 2229.292
1003.876, 2230.869
1004.358, 2232.165
1004.840, 2234.440
1005.322, 2236.291
1005.804, 2233.354
1006.287, 2227.879
1006.769, 2225.450
1007.251, 2230.780
1007.733, 2235.374
1008.215, 2236.184
1008.697, 2235.390
1009.179, 2234.709
1009.661, 2234.123
1010.143, 2233.730
1010.626, 2233.509
1011.108, 2233.690
1011.590, 2234.467
1012.072, 2235.720
1012.554, 2237.759
1013.036, 2240.371
1013.518, 2241.942
1014.000, 2241.391
1014.483, 2241.344
1014.965, 2242.706
1015.447, 2244.569
1015.929, 2245.162
1016.411, 2244.675
1016.893, 2243.417
1017.375, 2240.841
1017.857, 2239.747
1018.339, 2244.127
1018.822, 2249.090
1019.304, 2249.809
1019.786, 2245.354
1020.268, 2244.133
1020.750, 2246.598
1021.232, 2249.256
1021.714, 2249.333
1022.196, 2248.571
1022.679, 2250.281
1023.161, 2253.449
1023.643, 2255.168
1024.125, 2252.541
1024.607, 2250.914
1025.089, 2251.155
1025.571, 2252.761
1026.053, 2255.489
1026.535, 2259.123
1027.018, 2262.074
1027.500, 2264.143
1027.982, 2266.041
1028.464, 2268.370
1028.946, 2270.725
1029.428, 2272.608
1029.910, 2274.038
1030.392, 2276.129
1030.875, 2279.062
1031.357, 2281.952
1031.839, 2284.302
1032.321, 2286.718
1032.803, 2290.493
1033.285, 2295.096
1033.767, 2299.505
1034.249, 2304.370
1034.731, 2306.952
1035.214, 2304.459
1035.696, 2301.549
1036.178, 2301.578
1036.660, 2304.537
1037.142, 2309.246
1037.624, 2315.501
1038.106, 2319.935
1038.588, 2318.332
1039.071, 2315.801
1039.553, 2316.705
1040.035, 2319.939
1040.517, 2321.394
1040.999, 2320.563
1041.481, 2318.586
1041.963, 2314.972
1042.445, 2311.992
1042.927, 2313.404
1043.410, 2317.364
1043.892, 2320.693
1044.374, 2323.019
1044.856, 2323.528
1045.338, 2320.490
1045.820, 2316.949
1046.302, 2313.804
1046.784, 2311.266
1047.266, 2310.657
1047.749, 2311.876
1048.231, 2314.127
1048.713, 2317.975
1049.195, 2321.119
1049.677, 2321.129
1050.159, 2319.644
1050.641, 2318.970
1051.123, 2320.016
1051.606, 2319.724
1052.088, 2317.601
1052.570, 2316.069
1053.052, 2317.996
1053.534, 2321.372
1054.016, 2321.813
1054.498, 2320.014
1054.980, 2319.580
1055.463, 2323.246
1055.945, 2326.855
1056.427, 2329.884
1056.909, 2331.851
1057.391, 2330.945
1057.873, 2327.743
1058.355, 2327.345
1058.837, 2330.690
1059.319, 2334.944
1059.802, 2338.809
1060.284, 2341.932
1060.766, 2343.497
1061.248, 2343.685
1061.730, 2345.109
1062.212, 2347.763
1062.694, 2352.126
1063.176, 2359.548
1063.658, 2366.684
1064.141, 2367.271
1064.623, 2364.610
1065.105, 2364.268
1065.587, 2368.177
1066.069, 2373.629
1066.551, 2381.682
1067.033, 2388.825
1067.515, 2391.354
1067.998, 2390.633
1068.480, 2394.432
1068.962, 2402.029
1069.444, 2409.492
1069.926, 2414.144
1070.408, 2418.663
1070.890, 2424.218
1071.372, 2430.375
1071.854, 2436.608
1072.337, 2442.983
1072.819, 2447.834
1073.301, 2450.568
1073.783, 2455.752
1074.265, 2470.719
1074.747, 2488.035
1075.229, 2499.508
1075.711, 2505.096
1076.193, 2513.418
1076.676, 2525.430
1077.158, 2538.989
1077.640, 2553.788
1078.122, 2569.171
1078.604, 2583.384
1079.086, 2597.445
1079.568, 2613.525
1080.051, 2632.498
1080.533, 2652.411
1081.015, 2671.842
1081.497, 2692.948
1081.979, 2716.802
1082.461, 2743.071
1082.943, 2770.879
1083.425, 2800.413
1083.907, 2831.064
1084.390, 2860.248
1084.872, 2893.806
1085.354, 2936.380
1085.836, 2984.990
1086.318, 3036.315
1086.800, 3089.272
1087.282, 3147.459
1087.764, 3210.873
1088.246, 3279.806
1088.729, 3356.340
1089.211, 3437.069
1089.693, 3518.692
1090.175, 3601.797
1090.657, 3689.304
1091.139, 3783.147
1091.621, 3878.137
1092.103, 3972.094
1092.586, 4070.211
1093.068, 4178.958
1093.550, 4297.072
1094.032, 4423.013
1094.514, 4556.566
1094.996, 4703.424
1095.478, 4866.522
1095.960, 5042.250
1096.443, 5232.910
1096.925, 5431.577
1097.407, 5629.550
1097.889, 5824.674
1098.371, 5998.149
1098.853, 6151.332
1099.335, 6263.424
1099.817, 6334.063
1100.299, 6344.556
1100.781, 6275.388
1101.264, 6128.250
1101.746, 5932.248
1102.228, 5684.135
1102.710, 5419.203
1103.192, 5148.333
1103.674, 4881.198
1104.156, 4623.461
1104.638, 4383.548
1105.121, 4173.053
1105.603, 4003.335
1106.085, 3849.195
1106.567, 3709.750
1107.049, 3587.586
1107.531, 3485.959
1108.013, 3401.318
1108.495, 3323.168
1108.978, 3251.999
1109.460, 3189.511
1109.942, 3139.054
1110.424, 3093.479
1110.906, 3051.952
1111.388, 3012.825
1111.870, 2972.473
1112.352, 2932.281
1112.834, 2899.972
1113.317, 2875.651
1113.799, 2850.633
1114.281, 2817.794
1114.763, 2785.020
1115.245, 2756.376
1115.727, 2731.019
1116.209, 2707.731
1116.691, 2686.316
1117.173, 2665.085
1117.656, 2643.489
1118.138, 2623.229
1118.620, 2605.173
1119.102, 2589.576
1119.584, 2577.877
1120.066, 2569.803
1120.548, 2558.338
1121.030, 2542.636
1121.513, 2529.708
1121.995, 2523.446
1122.477, 2518.402
1122.959, 2507.017
1123.441, 2492.653
1123.923, 2479.838
1124.405, 2469.478
1124.887, 2460.933
1125.370, 2454.366
1125.852, 2449.108
1126.334, 2445.168
1126.816, 2442.005
1127.298, 2439.176
1127.780, 2436.121
1128.262, 2431.492
1128.744, 2421.620
1129.226, 2415.115
1129.709, 2414.135
1130.191, 2414.327
1130.673, 2411.443
1131.155, 2406.550
1131.637, 2403.804
1132.119, 2403.040
1132.601, 2402.811
1133.083, 2402.813
1133.566, 2402.716
1134.048, 2403.026
1134.530, 2402.668
1135.012, 2399.243
1135.494, 2393.278
1135.976, 2390.700
1136.458, 2392.001
1136.940, 2393.289
1137.422, 2391.273
1137.905, 2389.074
1138.387, 2389.026
1138.869, 2390.143
1139.351, 2389.560
1139.833, 2387.153
1140.315, 2386.673
1140.797, 2389.124
1141.279, 2391.224
1141.761, 2389.625
1142.244, 2386.698
1142.726, 2384.094
1143.208, 2382.015
1143.690, 2380.853
1144.172, 2380.563
1144.654, 2381.543
1145.136, 2384.152
1145.618, 2387.305
1146.101, 2390.510
1146.583, 2392.944
1147.065, 2393.204
1147.547, 2390.357
1148.029, 2389.314
1148.511, 2390.734
1148.993, 2392.044
1149.475, 2392.524
1149.958, 2391.714
1150.440, 2387.002
1150.922, 2380.983
1151.404, 2378.738
1151.886, 2384.537
1152.368, 2386.478
1152.850, 2382.354
1153.332, 2377.702
1153.814, 2375.969
1154.297, 2376.212
1154.779, 2376.382
1155.261, 2376.487
1155.743, 2376.517
1156.225, 2376.201
1156.707, 2376.211
1157.189, 2376.780
1157.671, 2377.360
1158.153, 2377.241
1158.636, 2376.722
1159.118, 2377.431
1159.600, 2379.058
1160.082, 2380.016
1160.564, 2379.315
1161.046, 2378.019
1161.528, 2375.241
1162.010, 2373.279
1162.493, 2375.888
1162.975, 2382.094
1163.457, 2384.843
1163.939, 2384.051
1164.421, 2383.449
1164.903, 2385.426
1165.385, 2387.885
1165.867, 2390.553
1166.349, 2392.655
1166.832, 2391.702
1167.314, 2388.178
1167.796, 2390.026
1168.278, 2398.194
1168.760, 2404.691
1169.242, 2401.848
1169.724, 2397.634
1170.206, 2397.249
1170.688, 2399.133
1171.171, 2399.106
1171.653, 2397.216
1172.135, 2396.021
1172.617, 2395.963
1173.099, 2397.006
1173.581, 2400.279
1174.063, 2403.667
1174.545, 2404.895
1175.028, 2404.691
1175.510, 2406.904
1175.992, 2411.682
1176.474, 2415.599
1176.956, 2417.701
1177.438, 2419.147
1177.920, 2419.840
1178.402, 2421.257
1178.885, 2425.085
1179.367, 2431.259
1179.849, 2438.261
1180.331, 2446.429
1180.813, 2452.367
1181.295, 2454.518
1181.777, 2455.116
1182.259, 2455.204
1182.741, 2455.837
1183.224, 2458.614
1183.706, 2463.896
1184.188, 2468.178
1184.670, 2471.457
1185.152, 2473.985
1185.634, 2475.660
1186.116, 2476.941
1186.598, 2479.053
1187.081, 2480.724
1187.563, 2480.018
1188.045, 2476.290
1188.527, 2471.645
1189.009, 2465.783
1189.491, 2460.870
1189.973, 2458.678
1190.455, 2457.356
1190.938, 2454.995
1191.420, 2451.819
1191.902, 2448.148
1192.384, 2444.357
1192.866, 2438.968
1193.348, 2431.435
1193.830, 2425.026
1194.312, 2422.609
1194.794, 2421.857
1195.276, 2419.283
1195.759, 2419.349
1196.241, 2415.424
1196.723, 2419.207
1197.205, 2421.023
1197.687, 2420.576
1198.169, 2419.082
1198.651, 2416.674
1199.133, 2414.336
1199.616, 2413.535
1200.098, 2413.869
1200.580, 2414.344
1201.062, 2414.523
1201.544, 2415.676
1202.026, 2418.224
1202.508, 2420.147
1202.990, 2417.919
1203.473, 2415.245
1203.955, 2418.032
1204.437, 2424.635
1204.919, 2429.289
1205.401, 2430.791
1205.883, 2431.246
1206.365, 2430.594
1206.847, 2429.856
1207.329, 2429.664
1207.812, 2430.222
1208.294, 2432.406
1208.776, 2435.706
1209.258, 2437.719
1209.740, 2437.115
1210.222, 2438.516
1210.704, 2442.966
1211.186, 2447.499
1211.668, 2448.458
1212.151, 2448.259
1212.633, 2450.062
1213.115, 2453.634
1213.597, 2456.435
1214.079, 2457.367
1214.561, 2460.438
1215.043, 2466.747
1215.525, 2472.844
1216.008, 2474.315
1216.490, 2473.982
1216.972, 2475.063
1217.454, 2477.629
1217.936, 2480.521
1218.418, 2484.113
1218.900, 2485.893
1219.382, 2484.913
1219.865, 2484.404
1220.347, 2489.088
1220.829, 2495.437
1221.311, 2499.590
1221.793, 2501.379
1222.275, 2503.039
1222.757, 2504.818
1223.239, 2505.813
1223.721, 2505.709
1224.203, 2505.552
1224.686, 2506.482
1225.168, 2507.970
1225.650, 2509.769
1226.132, 2511.721
1226.614, 2512.720
1227.096, 2512.591
1227.578, 2512.113
1228.061, 2511.122
1228.543, 2511.384
1229.025, 2516.215
1229.507, 2522.068
1229.989, 2525.930
1230.471, 2527.459
1230.953, 2526.456
1231.435, 2522.487
1231.917, 2519.646
1232.400, 2518.970
1232.882, 2519.049
1233.364, 2519.042
1233.846, 2518.739
1234.328, 2517.646
1234.810, 2516.011
1235.292, 2515.442
1235.774, 2516.028
1236.256, 2516.665
1236.739, 2517.515
1237.221, 2516.254
1237.703, 2507.121
1238.185, 2498.304
1238.667, 2498.030
1239.149, 2504.066
1239.631, 2506.884
1240.113, 2506.556
1240.596, 2505.652
1241.078, 2504.562
1241.560, 2504.296
1242.042, 2506.225
1242.524, 2508.642
1243.006, 2510.319
1243.488, 2511.471
1243.970, 2513.373
1244.453, 2515.789
1244.935, 2516.422
1245.417, 2514.230
1245.899, 2513.166
1246.381, 2516.915
1246.863, 2521.245
1247.345, 2523.966
1247.827, 2525.350
1248.309, 2526.042
1248.792, 2526.062
1249.274, 2524.906
1249.756, 2521.999
1250.238, 2521.096
1250.720, 2526.840
1251.202, 2531.690
1251.684, 2532.280
1252.166, 2530.084
1252.648, 2528.084
1253.131, 2526.544
1253.613, 2526.697
1254.095, 2529.240
1254.577, 2530.179
1255.059, 2527.051
1255.541, 2523.804
1256.023, 2521.729
1256.505, 2520.458
1256.988, 2519.000
1257.470, 2517.846
1257.952, 2518.547
1258.434, 2521.841
1258.916, 2523.093
1259.398, 2520.827
1259.880, 2518.556
1260.362, 2517.398
1260.844, 2516.993
1261.327, 2517.437
1261.809, 2517.902
1262.291, 2516.181
1262.773, 2511.511
1263.255, 2512.270
1263.737, 2521.035
1264.219, 2526.860
1264.701, 2525.475
1265.183, 2521.804
1265.666, 2521.466
1266.148, 2522.749
1266.630, 2523.478
1267.112, 2525.263
1267.594, 2525.392
1268.076, 2529.717
1268.558, 2533.448
1269.040, 2535.981
1269.523, 2536.613
1270.005, 2532.910
1270.487, 2528.362
1270.969, 2526.016
1271.451, 2525.833
1271.933, 2528.520
1272.415, 2534.006
1272.897, 2536.015
1273.380, 2532.262
1273.862, 2529.454
1274.344, 2534.573
1274.826, 2540.196
1275.308, 2541.038
1275.790, 2543.828
1276.272, 2545.519
1276.754, 2544.426
1277.236, 2546.149
1277.719, 2544.249
1278.201, 2541.705
1278.683, 2538.265
1279.165, 2536.936
1279.647, 2539.497
1280.129, 2544.064
1280.611, 2546.770
1281.093, 2548.226
1281.576, 2550.354
1282.058, 2553.550
1282.540, 2555.591
1283.022, 2554.715
1283.504, 2554.487
1283.986, 2555.870
1284.468, 2558.149
1284.950, 2560.927
1285.432, 2563.490
1285.915, 2564.061
1286.397, 2562.566
1286.879, 2562.985
1287.361, 2565.962
1287.843, 2569.631
1288.325, 2573.718
1288.807, 2577.758
1289.289, 2581.468
1289.771, 2584.650
1290.254, 2587.039
1290.736, 2588.614
1291.218, 2589.703
1291.700, 2590.207
1292.182, 2591.091
1292.664, 2592.591
1293.146, 2593.701
1293.628, 2592.236
1294.111, 2591.326
1294.593, 2593.757
1295.075, 2598.149
1295.557, 2602.392
1296.039, 2606.326
1296.521, 2608.065
1297.003, 2607.562
1297.485, 2606.146
1297.968, 2602.605
1298.450, 2600.116
1298.932, 2599.888
1299.414, 2601.181
1299.896, 2603.875
1300.378, 2607.030
1300.860, 2606.836
1301.342, 2603.431
1301.824, 2600.591
##END=



