##NAMES=Olmiite
##RRUFFID=R050144
##IDEAL CHEMISTRY=CaMn^2+^SiO_3_(OH)_2_
##LOCALITY=N'Chwaning II mine, Kuruman, South Africa
##OWNER=RRUFF
##SOURCE=Rock Currier
##DESCRIPTION=Tan colored prismatic crystals associated with fibrous bultfonteinite, R050088
##STATUS=The identification of this mineral has been confirmed by X-ray diffraction and chemical analysis
##URL=rruff.info/R050144
##MEASURED CHEMISTRY=Ca_1.00_(Mn_0.98_Ca_0.02_)(Si_1.00_O_3_OH)(OH)
114.9877, 157.5679
115.4698, 164.3133
115.9520, 175.6052
116.4341, 186.6015
116.9162, 195.0451
117.3983, 201.5262
117.8804, 208.3322
118.3625, 216.7166
118.8447, 225.9012
119.3268, 235.1602
119.8089, 243.5820
120.2910, 252.3502
120.7731, 262.6818
121.2552, 274.7553
121.7374, 286.3237
122.2195, 294.6114
122.7016, 301.2327
123.1837, 309.3881
123.6658, 323.4054
124.1479, 338.7541
124.6301, 348.4185
125.1122, 349.8397
125.5943, 351.1948
126.0764, 362.8938
126.5585, 383.4586
127.0406, 404.5483
127.5227, 420.6853
128.0049, 433.3451
128.4870, 445.8833
128.9691, 458.3653
129.4512, 471.7761
129.9333, 489.6987
130.4155, 512.5240
130.8976, 533.8875
131.3797, 547.8405
131.8618, 554.8483
132.3439, 559.3918
132.8260, 563.5134
133.3081, 566.5551
133.7903, 564.4280
134.2724, 556.3196
134.7545, 545.1396
135.2366, 534.9071
135.7187, 525.6449
136.2008, 516.6981
136.6830, 506.3163
137.1651, 493.7926
137.6472, 488.4690
138.1293, 492.4093
138.6114, 502.5600
139.0935, 510.6386
139.5757, 515.2062
140.0578, 520.9003
140.5399, 530.9755
141.0220, 546.8375
141.5041, 562.6014
141.9862, 577.3166
142.4684, 591.2348
142.9505, 606.3406
143.4326, 625.7739
143.9147, 643.2389
144.3968, 652.1439
144.8789, 643.9642
145.3611, 641.0694
145.8432, 650.2446
146.3253, 675.5693
146.8074, 691.8552
147.2895, 692.1255
147.7716, 685.9903
148.2537, 687.4352
148.7359, 701.4873
149.2180, 718.0938
149.7001, 734.8814
150.1822, 752.4661
150.6643, 768.8318
151.1464, 782.8630
151.6286, 795.6191
152.1107, 810.0735
152.5928, 825.8970
153.0749, 843.8124
153.5570, 864.1416
154.0391, 888.0950
154.5213, 913.1674
155.0034, 939.7615
155.4855, 967.5635
155.9676, 994.0999
156.4497, 1017.538
156.9318, 1040.407
157.4140, 1064.944
157.8961, 1095.185
158.3782, 1123.857
158.8603, 1149.141
159.3424, 1170.859
159.8245, 1189.322
160.3067, 1204.875
160.7888, 1216.912
161.2709, 1224.958
161.7530, 1229.225
162.2351, 1229.157
162.7172, 1223.495
163.1994, 1210.980
163.6815, 1197.600
164.1636, 1188.094
164.6457, 1179.717
165.1278, 1167.205
165.6099, 1146.247
166.0920, 1121.198
166.5742, 1094.702
167.0563, 1065.522
167.5384, 1038.260
168.0205, 1015.489
168.5026, 996.8922
168.9847, 982.1780
169.4669, 970.5634
169.9490, 962.5406
170.4311, 958.8516
170.9132, 961.3766
171.3953, 966.6404
171.8774, 974.3869
172.3596, 983.9739
172.8417, 988.4526
173.3238, 978.0836
173.8059, 959.4343
174.2880, 943.9268
174.7701, 937.1750
175.2523, 935.0875
175.7344, 932.6157
176.2165, 929.6633
176.6986, 928.0133
177.1807, 931.4813
177.6628, 937.9483
178.1450, 941.7924
178.6271, 939.1023
179.1092, 932.3184
179.5913, 926.9821
180.0734, 924.6075
180.5555, 918.8959
181.0376, 898.1083
181.5198, 865.4071
182.0019, 835.0786
182.4840, 815.0110
182.9661, 803.7661
183.4482, 798.6460
183.9303, 800.1592
184.4125, 805.9288
184.8946, 813.0508
185.3767, 821.4554
185.8588, 830.2372
186.3409, 836.6337
186.8230, 842.1343
187.3052, 854.3439
187.7873, 877.1609
188.2694, 905.2686
188.7515, 925.3640
189.2336, 937.2357
189.7157, 946.7916
190.1979, 961.0574
190.6800, 979.3070
191.1621, 991.4517
191.6442, 992.0926
192.1263, 985.1008
192.6084, 985.0966
193.0906, 992.4165
193.5727, 1005.153
194.0548, 1021.038
194.5369, 1040.043
195.0190, 1064.435
195.5011, 1097.151
195.9833, 1137.302
196.4654, 1172.613
196.9475, 1202.048
197.4296, 1229.275
197.9117, 1257.614
198.3938, 1286.654
198.8759, 1320.615
199.3581, 1365.421
199.8402, 1422.053
200.3223, 1464.831
200.8044, 1491.743
201.2865, 1507.624
201.7686, 1520.775
202.2508, 1531.176
202.7329, 1538.398
203.2150, 1544.151
203.6971, 1549.699
204.1792, 1541.878
204.6613, 1515.971
205.1435, 1479.260
205.6256, 1451.057
206.1077, 1433.496
206.5898, 1418.821
207.0719, 1401.220
207.5540, 1378.624
208.0362, 1363.756
208.5183, 1359.710
209.0004, 1363.960
209.4825, 1365.942
209.9646, 1364.452
210.4467, 1363.262
210.9289, 1366.672
211.4110, 1377.968
211.8931, 1382.098
212.3752, 1376.081
212.8573, 1360.762
213.3394, 1342.148
213.8215, 1317.893
214.3037, 1293.912
214.7858, 1275.286
215.2679, 1262.540
215.7500, 1253.162
216.2321, 1246.249
216.7142, 1241.790
217.1964, 1243.731
217.6785, 1253.294
218.1606, 1267.722
218.6427, 1284.761
219.1248, 1305.195
219.6069, 1326.104
220.0891, 1347.819
220.5712, 1370.684
221.0533, 1388.109
221.5354, 1396.688
222.0175, 1402.858
222.4996, 1415.182
222.9818, 1436.803
223.4639, 1458.578
223.9460, 1477.981
224.4281, 1494.236
224.9102, 1511.463
225.3923, 1530.737
225.8745, 1550.231
226.3566, 1566.410
226.8387, 1579.437
227.3208, 1589.348
227.8029, 1595.610
228.2850, 1596.852
228.7672, 1599.127
229.2493, 1603.127
229.7314, 1607.871
230.2135, 1611.161
230.6956, 1611.734
231.1777, 1612.862
231.6599, 1616.481
232.1420, 1625.759
232.6241, 1629.470
233.1062, 1624.326
233.5883, 1614.486
234.0704, 1610.131
234.5526, 1610.463
235.0347, 1617.584
235.5168, 1633.806
235.9989, 1665.654
236.4810, 1691.818
236.9631, 1709.021
237.4453, 1720.244
237.9274, 1736.293
238.4095, 1761.020
238.8916, 1784.901
239.3737, 1802.813
239.8558, 1811.438
240.3380, 1821.175
240.8201, 1836.180
241.3022, 1853.253
241.7843, 1857.174
242.2664, 1845.602
242.7485, 1823.800
243.2307, 1794.040
243.7128, 1753.804
244.1949, 1710.737
244.6770, 1664.807
245.1591, 1616.347
245.6412, 1567.882
246.1234, 1521.164
246.6055, 1472.216
247.0876, 1416.851
247.5697, 1349.193
248.0518, 1286.957
248.5339, 1231.088
249.0160, 1181.690
249.4982, 1140.120
249.9803, 1108.218
250.4624, 1081.795
250.9445, 1058.824
251.4266, 1042.335
251.9087, 1022.408
252.3909, 995.3034
252.8730, 961.8344
253.3551, 936.9475
253.8372, 922.9854
254.3193, 914.3069
254.8014, 907.4669
255.2836, 905.4901
255.7657, 897.9229
256.2478, 880.4401
256.7299, 853.8997
257.2120, 835.0848
257.6941, 827.0244
258.1762, 822.7905
258.6584, 815.0025
259.1405, 799.6638
259.6226, 791.3290
260.1047, 795.1099
260.5868, 810.4023
261.0689, 819.5882
261.5511, 820.9343
262.0332, 818.5054
262.5153, 815.3798
262.9974, 810.3813
263.4795, 808.4392
263.9616, 811.8842
264.4438, 820.4077
264.9259, 824.7708
265.4080, 823.0998
265.8901, 820.1282
266.3722, 821.0833
266.8543, 827.1968
267.3365, 832.9596
267.8186, 836.4758
268.3007, 837.9457
268.7828, 842.4781
269.2649, 850.3887
269.7470, 860.9152
270.2292, 874.1626
270.7113, 891.5234
271.1934, 906.6003
271.6755, 917.7706
272.1576, 925.1616
272.6397, 931.1262
273.1219, 935.1967
273.6040, 938.7277
274.0861, 943.5085
274.5682, 950.0131
275.0503, 955.2053
275.5324, 956.9185
276.0146, 955.9236
276.4967, 961.7224
276.9788, 976.1417
277.4609, 992.7720
277.9430, 1004.905
278.4251, 1012.325
278.9073, 1017.146
279.3894, 1018.522
279.8715, 1017.380
280.3536, 1020.637
280.8357, 1029.041
281.3178, 1039.264
281.8000, 1047.362
282.2821, 1053.259
282.7642, 1060.453
283.2463, 1070.739
283.7284, 1083.178
284.2105, 1093.241
284.6927, 1100.866
285.1748, 1106.410
285.6569, 1108.261
286.1390, 1106.800
286.6211, 1109.473
287.1032, 1120.399
287.5853, 1136.946
288.0674, 1150.507
288.5496, 1161.015
289.0317, 1169.056
289.5138, 1174.553
289.9959, 1177.766
290.4780, 1179.929
290.9601, 1179.147
291.4423, 1178.357
291.9244, 1186.608
292.4065, 1204.284
292.8886, 1224.424
293.3707, 1243.246
293.8528, 1259.588
294.3350, 1269.169
294.8171, 1267.782
295.2992, 1260.330
295.7813, 1258.005
296.2634, 1260.840
296.7455, 1259.897
297.2277, 1245.254
297.7098, 1220.305
298.1919, 1194.685
298.6740, 1171.183
299.1561, 1148.405
299.6382, 1122.952
300.1204, 1094.896
300.6025, 1069.287
301.0846, 1049.218
301.5667, 1034.349
302.0488, 1023.829
302.5309, 1019.466
303.0131, 1017.544
303.4952, 1011.964
303.9773, 1003.605
304.4594, 1000.098
304.9415, 1012.876
305.4236, 1032.383
305.9058, 1044.321
306.3879, 1038.760
306.8700, 1031.206
307.3521, 1034.981
307.8342, 1048.893
308.3163, 1066.525
308.7985, 1086.453
309.2806, 1107.246
309.7627, 1127.153
310.2448, 1144.446
310.7269, 1162.894
311.2090, 1183.193
311.6912, 1206.242
312.1733, 1234.526
312.6554, 1274.503
313.1375, 1317.404
313.6196, 1355.973
314.1017, 1384.007
314.5839, 1413.865
315.0660, 1452.905
315.5481, 1498.545
316.0302, 1543.813
316.5123, 1583.441
316.9944, 1623.895
317.4766, 1669.031
317.9587, 1718.401
318.4408, 1774.610
318.9229, 1841.931
319.4050, 1916.626
319.8871, 1991.254
320.3693, 2066.453
320.8513, 2139.062
321.3335, 2205.999
321.8156, 2259.616
322.2977, 2322.681
322.7798, 2407.625
323.2619, 2503.748
323.7440, 2591.696
324.2262, 2654.902
324.7083, 2721.456
325.1904, 2802.300
325.6725, 2905.339
326.1546, 3005.497
326.6367, 3099.451
327.1189, 3190.563
327.6010, 3283.588
328.0831, 3383.730
328.5652, 3479.921
329.0473, 3571.168
329.5294, 3660.734
330.0116, 3733.656
330.4937, 3785.945
330.9758, 3823.295
331.4579, 3852.259
331.9400, 3874.348
332.4221, 3886.156
332.9043, 3887.229
333.3864, 3877.831
333.8685, 3856.194
334.3506, 3825.014
334.8327, 3779.067
335.3148, 3709.584
335.7970, 3610.726
336.2791, 3507.994
336.7612, 3405.191
337.2433, 3303.348
337.7254, 3205.039
338.2076, 3112.231
338.6897, 3020.944
339.1718, 2924.748
339.6539, 2823.219
340.1360, 2732.240
340.6181, 2660.334
341.1003, 2600.761
341.5824, 2525.065
342.0645, 2429.193
342.5466, 2334.398
343.0287, 2259.773
343.5108, 2204.646
343.9930, 2142.833
344.4751, 2066.532
344.9572, 1985.423
345.4393, 1922.094
345.9214, 1877.028
346.4035, 1832.543
346.8857, 1773.814
347.3678, 1705.356
347.8499, 1644.071
348.3320, 1593.221
348.8141, 1548.131
349.2962, 1499.772
349.7784, 1449.857
350.2605, 1406.597
350.7426, 1378.797
351.2247, 1359.918
351.7068, 1336.384
352.1889, 1304.299
352.6711, 1278.562
353.1532, 1280.834
353.6353, 1301.559
354.1174, 1316.496
354.5995, 1307.753
355.0816, 1290.502
355.5637, 1279.879
356.0458, 1277.139
356.5280, 1276.384
357.0101, 1274.734
357.4922, 1272.259
357.9743, 1269.058
358.4564, 1262.137
358.9385, 1256.887
359.4207, 1256.272
359.9028, 1260.366
360.3849, 1268.221
360.8670, 1281.473
361.3491, 1297.405
361.8312, 1313.448
362.3134, 1328.526
362.7955, 1343.989
363.2776, 1361.392
363.7597, 1380.157
364.2418, 1396.352
364.7239, 1405.280
365.2061, 1413.811
365.6882, 1426.092
366.1703, 1441.791
366.6524, 1462.309
367.1345, 1490.423
367.6166, 1524.076
368.0988, 1555.816
368.5809, 1584.652
369.0630, 1612.318
369.5451, 1639.634
370.0272, 1666.182
370.5093, 1693.153
370.9915, 1719.065
371.4736, 1745.814
371.9557, 1777.626
372.4378, 1820.075
372.9199, 1858.393
373.4020, 1888.128
373.8842, 1909.136
374.3663, 1922.232
374.8484, 1926.370
375.3305, 1924.099
375.8126, 1918.146
376.2947, 1907.774
376.7769, 1897.176
377.2590, 1889.032
377.7411, 1882.368
378.2232, 1866.082
378.7053, 1838.020
379.1874, 1808.266
379.6696, 1786.719
380.1517, 1773.057
380.6338, 1761.909
381.1159, 1752.529
381.5980, 1744.599
382.0801, 1736.025
382.5623, 1726.965
383.0444, 1722.858
383.5265, 1729.131
384.0086, 1743.664
384.4907, 1761.357
384.9728, 1782.132
385.4550, 1804.402
385.9371, 1823.841
386.4192, 1842.483
386.9013, 1867.390
387.3834, 1906.850
387.8655, 1952.781
388.3476, 1993.505
388.8297, 2025.607
389.3119, 2062.523
389.7940, 2120.259
390.2761, 2189.024
390.7582, 2252.016
391.2403, 2296.899
391.7224, 2337.908
392.2046, 2384.842
392.6867, 2438.762
393.1688, 2487.846
393.6509, 2520.473
394.1330, 2548.922
394.6151, 2585.318
395.0973, 2647.030
395.5794, 2701.946
396.0615, 2741.476
396.5436, 2766.372
397.0257, 2786.286
397.5078, 2809.220
397.9900, 2822.883
398.4721, 2820.131
398.9542, 2789.587
399.4363, 2757.278
399.9184, 2720.636
400.4005, 2682.683
400.8827, 2652.831
401.3648, 2637.098
401.8469, 2620.865
402.3290, 2597.550
402.8111, 2564.126
403.2932, 2535.238
403.7754, 2511.423
404.2575, 2491.840
404.7396, 2477.117
405.2217, 2468.797
405.7038, 2457.716
406.1859, 2439.128
406.6681, 2414.407
407.1502, 2395.772
407.6323, 2383.591
408.1144, 2377.289
408.5965, 2374.953
409.0786, 2377.227
409.5608, 2391.133
410.0429, 2422.591
410.5250, 2462.169
411.0071, 2489.550
411.4892, 2505.639
411.9713, 2523.126
412.4535, 2552.577
412.9356, 2589.223
413.4177, 2625.196
413.8998, 2659.732
414.3819, 2692.292
414.8640, 2721.255
415.3462, 2747.812
415.8283, 2776.252
416.3104, 2811.624
416.7925, 2847.659
417.2746, 2881.501
417.7567, 2912.991
418.2389, 2937.320
418.7210, 2951.149
419.2031, 2956.512
419.6852, 2955.416
420.1673, 2944.657
420.6494, 2931.476
421.1315, 2917.667
421.6136, 2903.323
422.0958, 2888.329
422.5779, 2862.788
423.0600, 2843.123
423.5421, 2838.907
424.0242, 2871.674
424.5063, 2892.908
424.9885, 2890.841
425.4706, 2878.139
425.9527, 2886.445
426.4348, 2925.801
426.9169, 2972.254
427.3990, 3018.503
427.8812, 3063.985
428.3633, 3109.472
428.8454, 3155.499
429.3275, 3200.350
429.8096, 3241.814
430.2917, 3280.184
430.7739, 3315.640
431.2560, 3348.581
431.7381, 3378.525
432.2202, 3407.048
432.7023, 3435.124
433.1844, 3453.086
433.6666, 3456.711
434.1487, 3444.495
434.6308, 3407.970
435.1129, 3341.738
435.5950, 3258.447
436.0771, 3173.673
436.5593, 3086.339
437.0414, 2991.859
437.5235, 2888.653
438.0056, 2776.374
438.4877, 2650.443
438.9698, 2507.943
439.4520, 2369.505
439.9341, 2248.508
440.4162, 2139.744
440.8983, 2035.921
441.3804, 1934.042
441.8625, 1836.692
442.3447, 1743.026
442.8268, 1654.017
443.3089, 1575.179
443.7910, 1510.177
444.2731, 1453.934
444.7552, 1403.417
445.2374, 1361.273
445.7195, 1320.544
446.2016, 1281.390
446.6837, 1242.955
447.1658, 1202.647
447.6479, 1155.845
448.1301, 1113.989
448.6122, 1081.121
449.0943, 1058.216
449.5764, 1039.085
450.0585, 1025.501
450.5406, 1013.219
451.0228, 996.8499
451.5049, 975.0652
451.9870, 955.8316
452.4691, 940.9619
452.9512, 929.9680
453.4333, 922.9414
453.9154, 920.3632
454.3976, 916.6245
454.8797, 903.4447
455.3618, 884.2900
455.8439, 878.7253
456.3260, 891.7971
456.8081, 908.7998
457.2903, 908.1117
457.7724, 894.9919
458.2545, 886.5823
458.7366, 895.9160
459.2187, 911.8244
459.7008, 921.4914
460.1830, 924.7612
460.6651, 928.4512
461.1472, 935.4779
461.6293, 945.8945
462.1114, 959.8513
462.5935, 980.7352
463.0757, 1001.118
463.5578, 1016.022
464.0399, 1027.723
464.5220, 1043.723
465.0041, 1068.359
465.4862, 1095.433
465.9684, 1122.890
466.4505, 1151.037
466.9326, 1177.970
467.4147, 1202.617
467.8968, 1226.406
468.3789, 1250.234
468.8611, 1272.442
469.3432, 1297.773
469.8253, 1327.316
470.3074, 1360.708
470.7895, 1397.387
471.2716, 1438.241
471.7538, 1478.434
472.2359, 1515.376
472.7180, 1549.094
473.2001, 1577.053
473.6822, 1598.527
474.1643, 1615.240
474.6465, 1630.804
475.1286, 1644.765
475.6107, 1653.102
476.0928, 1647.382
476.5749, 1636.917
477.0570, 1641.068
477.5392, 1659.916
478.0213, 1679.037
478.5034, 1686.372
478.9855, 1687.069
479.4676, 1687.992
479.9497, 1689.885
480.4319, 1694.107
480.9140, 1701.675
481.3961, 1712.212
481.8782, 1724.855
482.3603, 1747.382
482.8424, 1765.481
483.3246, 1770.349
483.8067, 1757.804
484.2888, 1746.000
484.7709, 1738.250
485.2530, 1731.877
485.7351, 1724.095
486.2172, 1714.346
486.6993, 1704.144
487.1815, 1694.073
487.6636, 1683.776
488.1457, 1671.601
488.6278, 1656.728
489.1099, 1641.602
489.5920, 1628.682
490.0742, 1618.383
490.5563, 1602.180
491.0384, 1577.574
491.5205, 1552.876
492.0026, 1541.237
492.4847, 1541.501
492.9669, 1544.335
493.4490, 1548.591
493.9311, 1552.031
494.4132, 1547.333
494.8953, 1535.559
495.3774, 1528.544
495.8596, 1537.953
496.3417, 1555.878
496.8238, 1572.234
497.3059, 1584.704
497.7880, 1597.039
498.2701, 1608.446
498.7523, 1621.832
499.2344, 1642.414
499.7165, 1673.622
500.1986, 1710.928
500.6807, 1753.854
501.1628, 1802.273
501.6450, 1853.099
502.1271, 1906.625
502.6092, 1962.780
503.0913, 2020.871
503.5734, 2080.477
504.0555, 2143.352
504.5377, 2210.302
505.0198, 2279.786
505.5019, 2348.888
505.9840, 2419.113
506.4661, 2486.493
506.9482, 2548.678
507.4304, 2606.290
507.9125, 2663.542
508.3946, 2721.736
508.8767, 2774.800
509.3588, 2820.916
509.8409, 2858.104
510.3231, 2877.975
510.8052, 2877.635
511.2873, 2861.586
511.7694, 2832.932
512.2515, 2792.684
512.7336, 2743.908
513.2158, 2682.764
513.6979, 2617.414
514.1800, 2554.427
514.6621, 2494.822
515.1442, 2434.407
515.6263, 2370.451
516.1085, 2305.373
516.5906, 2241.233
517.0727, 2176.907
517.5548, 2115.376
518.0369, 2055.211
518.5190, 1998.462
519.0012, 1948.806
519.4833, 1911.625
519.9654, 1875.136
520.4475, 1834.834
520.9296, 1789.864
521.4117, 1751.048
521.8939, 1719.474
522.3760, 1691.765
522.8581, 1665.188
523.3402, 1639.647
523.8223, 1614.748
524.3044, 1591.148
524.7866, 1567.476
525.2687, 1539.762
525.7508, 1509.010
526.2329, 1480.715
526.7150, 1460.993
527.1971, 1444.681
527.6793, 1423.471
528.1614, 1396.955
528.6435, 1370.069
529.1256, 1347.961
529.6077, 1326.346
530.0898, 1300.256
530.5720, 1264.754
531.0541, 1230.167
531.5362, 1199.139
532.0183, 1171.830
532.5004, 1147.755
532.9825, 1130.841
533.4647, 1113.566
533.9468, 1092.592
534.4288, 1067.160
534.9109, 1046.151
535.3931, 1030.124
535.8752, 1017.603
536.3573, 1008.658
536.8394, 1005.094
537.3215, 996.2662
537.8036, 978.7664
538.2858, 958.3326
538.7679, 948.0077
539.2500, 947.4958
539.7321, 946.5040
540.2142, 939.7149
540.6964, 929.3223
541.1785, 921.2621
541.6606, 915.4071
542.1427, 908.4366
542.6248, 896.9881
543.1069, 883.0192
543.5891, 868.7929
544.0712, 854.2292
544.5533, 840.9163
545.0354, 829.3151
545.5175, 819.5147
545.9996, 811.7133
546.4818, 808.5811
546.9639, 804.7456
547.4460, 798.1798
547.9281, 788.8781
548.4102, 779.7614
548.8923, 770.4415
549.3745, 761.8713
549.8566, 754.9371
550.3387, 751.1439
550.8208, 744.1495
551.3029, 732.1641
551.7850, 719.4286
552.2672, 712.9634
552.7493, 713.0706
553.2314, 712.8406
553.7135, 710.0651
554.1956, 705.7222
554.6777, 701.5910
555.1599, 697.7393
555.6420, 695.0072
556.1241, 694.3229
556.6062, 694.9479
557.0883, 696.2068
557.5704, 698.1783
558.0526, 699.6217
558.5347, 699.3763
559.0168, 698.2938
559.4989, 697.3505
559.9810, 696.3059
560.4631, 696.0075
560.9453, 699.0075
561.4274, 703.4423
561.9095, 702.0185
562.3916, 687.2382
562.8737, 675.0688
563.3558, 671.4044
563.8380, 677.3703
564.3201, 682.4117
564.8022, 686.5925
565.2843, 689.8083
565.7664, 691.8444
566.2485, 692.6931
566.7307, 692.7145
567.2128, 691.6862
567.6949, 690.4341
568.1770, 691.0176
568.6591, 692.8620
569.1412, 693.2953
569.6234, 688.5972
570.1055, 683.2738
570.5876, 682.9385
571.0697, 687.2244
571.5518, 692.0813
572.0339, 698.0378
572.5161, 701.8317
572.9982, 699.6166
573.4803, 686.5729
573.9624, 678.3000
574.4445, 682.2907
574.9266, 691.5556
575.4088, 696.9271
575.8909, 696.1483
576.3730, 694.5240
576.8551, 692.1260
577.3372, 689.4934
577.8193, 689.5298
578.3015, 693.2298
578.7836, 696.0820
579.2657, 695.2233
579.7478, 691.0438
580.2299, 687.5690
580.7120, 684.7922
581.1942, 682.9295
581.6763, 681.9832
582.1584, 682.1282
582.6405, 684.3472
583.1226, 690.5855
583.6047, 695.3560
584.0869, 690.3140
584.5690, 680.4961
585.0511, 676.5889
585.5332, 689.8625
586.0153, 703.6480
586.4974, 710.9846
586.9796, 711.6605
587.4617, 710.1498
587.9438, 704.4351
588.4259, 698.8346
588.9080, 695.3163
589.3901, 694.2040
589.8723, 694.4567
590.3544, 696.4708
590.8365, 699.2881
591.3186, 702.1853
591.8007, 705.2509
592.2828, 706.1350
592.7650, 703.2311
593.2471, 699.1005
593.7292, 700.1334
594.2113, 705.2805
594.6934, 708.9427
595.1755, 704.3605
595.6577, 698.5957
596.1398, 702.0245
596.6219, 714.9630
597.1040, 723.8967
597.5861, 715.9802
598.0682, 704.3813
598.5504, 700.2764
599.0325, 711.1983
599.5146, 719.8851
599.9967, 721.4460
600.4788, 720.1877
600.9609, 722.7518
601.4430, 733.4924
601.9251, 739.3019
602.4072, 735.8727
602.8893, 725.8035
603.3715, 720.7583
603.8536, 721.1157
604.3357, 723.5975
604.8178, 728.1616
605.2999, 733.4813
605.7820, 733.5083
606.2642, 727.8285
606.7463, 722.4174
607.2284, 722.6312
607.7105, 726.4055
608.1926, 730.9413
608.6747, 735.8738
609.1569, 740.6084
609.6390, 746.7701
610.1211, 752.1297
610.6032, 752.8596
611.0853, 743.0240
611.5674, 733.7586
612.0496, 726.7641
612.5317, 722.2729
613.0138, 723.5250
613.4959, 734.5629
613.9780, 744.1243
614.4601, 744.7803
614.9423, 735.6528
615.4244, 736.0674
615.9065, 747.8671
616.3886, 761.7153
616.8707, 768.5494
617.3528, 769.4370
617.8350, 766.8521
618.3171, 759.8157
618.7992, 753.4509
619.2813, 753.9905
619.7634, 759.0836
620.2455, 764.0118
620.7277, 766.1192
621.2098, 768.1208
621.6919, 771.7608
622.1740, 776.6780
622.6561, 780.4377
623.1382, 782.2606
623.6204, 783.1027
624.1025, 782.9984
624.5846, 781.5634
625.0667, 781.7821
625.5488, 784.8524
626.0309, 787.4514
626.5131, 785.6498
626.9952, 779.3824
627.4773, 775.0731
627.9594, 773.5453
628.4415, 774.2574
628.9236, 776.2955
629.4058, 779.8710
629.8879, 785.7190
630.3700, 796.7024
630.8521, 807.7584
631.3342, 815.8453
631.8163, 820.6221
632.2985, 820.6653
632.7806, 808.4689
633.2627, 797.3877
633.7448, 793.9866
634.2269, 799.6459
634.7090, 807.9008
635.1912, 820.3273
635.6733, 833.2421
636.1554, 844.5366
636.6375, 854.8919
637.1196, 860.5340
637.6017, 860.1280
638.0839, 857.5248
638.5660, 858.7040
639.0481, 863.0615
639.5302, 865.8181
640.0123, 864.1796
640.4944, 862.1796
640.9766, 866.3156
641.4587, 874.7711
641.9408, 882.0288
642.4229, 882.9737
642.9050, 883.6238
643.3871, 887.3058
643.8693, 894.1800
644.3514, 903.3628
644.8335, 918.7635
645.3156, 933.0879
645.7977, 942.4106
646.2798, 944.8561
646.7620, 947.6310
647.2441, 949.6227
647.7262, 953.6119
648.2083, 963.8416
648.6904, 980.3572
649.1725, 995.9409
649.6547, 1010.813
650.1368, 1020.729
650.6189, 1011.379
651.1010, 989.9475
651.5831, 979.6858
652.0652, 1001.208
652.5474, 1029.981
653.0295, 1047.897
653.5116, 1056.625
653.9937, 1062.485
654.4758, 1064.045
654.9579, 1066.657
655.4401, 1072.704
655.9222, 1082.516
656.4043, 1095.287
656.8864, 1113.953
657.3685, 1131.761
657.8506, 1143.119
658.3328, 1146.492
658.8149, 1154.353
659.2970, 1168.312
659.7791, 1184.079
660.2612, 1196.606
660.7433, 1206.431
661.2255, 1215.511
661.7076, 1224.224
662.1897, 1232.683
662.6718, 1241.513
663.1539, 1250.136
663.6360, 1257.446
664.1182, 1261.044
664.6003, 1265.094
665.0824, 1272.550
665.5645, 1282.936
666.0466, 1289.895
666.5287, 1289.765
667.0108, 1290.411
667.4929, 1296.234
667.9750, 1308.107
668.4572, 1311.904
668.9393, 1305.440
669.4214, 1298.902
669.9035, 1303.743
670.3856, 1316.948
670.8677, 1324.308
671.3499, 1323.344
671.8320, 1319.457
672.3141, 1317.340
672.7962, 1315.983
673.2783, 1313.594
673.7604, 1306.029
674.2426, 1302.034
674.7247, 1309.120
675.2068, 1322.133
675.6889, 1329.959
676.1710, 1330.813
676.6531, 1326.354
677.1353, 1313.256
677.6174, 1294.418
678.0995, 1288.924
678.5816, 1301.315
679.0637, 1309.011
679.5458, 1295.855
680.0280, 1267.434
680.5101, 1248.546
680.9922, 1239.355
681.4743, 1234.370
681.9564, 1229.987
682.4385, 1226.955
682.9207, 1227.727
683.4028, 1234.310
683.8849, 1236.639
684.3670, 1224.116
684.8491, 1207.989
685.3312, 1199.576
685.8134, 1212.337
686.2955, 1216.606
686.7776, 1208.468
687.2597, 1193.512
687.7418, 1180.568
688.2239, 1169.414
688.7061, 1162.108
689.1882, 1160.457
689.6703, 1161.781
690.1524, 1159.987
690.6345, 1155.536
691.1166, 1151.071
691.5988, 1147.443
692.0809, 1144.875
692.5630, 1144.507
693.0451, 1145.957
693.5272, 1146.097
694.0093, 1137.975
694.4915, 1132.776
694.9736, 1138.808
695.4557, 1161.010
695.9378, 1173.364
696.4199, 1170.932
696.9020, 1165.115
697.3842, 1164.403
697.8663, 1169.293
698.3484, 1173.928
698.8305, 1177.989
699.3126, 1181.685
699.7947, 1184.214
700.2769, 1186.559
700.7590, 1191.585
701.2411, 1200.786
701.7232, 1211.375
702.2053, 1223.229
702.6874, 1234.476
703.1696, 1241.779
703.6517, 1240.027
704.1338, 1238.647
704.6159, 1237.080
705.0980, 1237.589
705.5801, 1249.672
706.0623, 1280.289
706.5444, 1306.175
707.0265, 1317.951
707.5086, 1318.374
707.9907, 1320.422
708.4728, 1324.055
708.9550, 1333.213
709.4371, 1357.080
709.9192, 1385.455
710.4013, 1400.818
710.8834, 1402.405
711.3655, 1405.407
711.8477, 1422.029
712.3298, 1441.632
712.8119, 1454.974
713.2940, 1455.514
713.7761, 1464.105
714.2582, 1489.623
714.7404, 1517.084
715.2225, 1531.465
715.7046, 1528.274
716.1867, 1533.001
716.6688, 1550.136
717.1509, 1570.908
717.6331, 1580.893
718.1152, 1582.459
718.5973, 1584.852
719.0794, 1592.015
719.5615, 1599.103
720.0436, 1599.121
720.5258, 1595.737
721.0079, 1596.839
721.4900, 1609.701
721.9721, 1623.011
722.4542, 1634.871
722.9363, 1644.379
723.4185, 1648.083
723.9006, 1642.883
724.3827, 1637.632
724.8648, 1635.108
725.3469, 1635.149
725.8290, 1636.539
726.3112, 1639.270
726.7933, 1643.230
727.2754, 1652.128
727.7575, 1660.731
728.2396, 1658.217
728.7217, 1644.236
729.2039, 1630.970
729.6860, 1624.487
730.1681, 1622.255
730.6502, 1623.208
731.1323, 1629.232
731.6144, 1632.346
732.0965, 1634.294
732.5786, 1631.186
733.0607, 1617.042
733.5428, 1587.964
734.0250, 1571.647
734.5071, 1572.724
734.9892, 1579.274
735.4713, 1576.209
735.9534, 1565.556
736.4355, 1552.794
736.9177, 1536.872
737.3998, 1525.119
737.8819, 1528.665
738.3640, 1539.502
738.8461, 1544.300
739.3282, 1536.826
739.8104, 1525.267
740.2925, 1505.208
740.7746, 1483.222
741.2567, 1476.296
741.7388, 1491.165
742.2209, 1501.435
742.7031, 1497.508
743.1852, 1484.903
743.6673, 1482.207
744.1494, 1488.419
744.6315, 1491.621
745.1136, 1482.560
745.5958, 1468.842
746.0779, 1458.993
746.5600, 1452.624
747.0421, 1445.522
747.5242, 1430.237
748.0063, 1418.566
748.4885, 1420.263
748.9706, 1437.617
749.4527, 1441.628
749.9348, 1423.476
750.4169, 1407.546
750.8990, 1412.510
751.3812, 1437.788
751.8633, 1450.307
752.3454, 1448.877
752.8275, 1444.514
753.3096, 1446.594
753.7917, 1452.504
754.2739, 1457.787
754.7560, 1461.377
755.2381, 1466.983
755.7202, 1477.688
756.2023, 1490.708
756.6844, 1504.028
757.1666, 1522.702
757.6487, 1531.495
758.1308, 1523.322
758.6129, 1512.911
759.0950, 1520.113
759.5771, 1546.055
760.0593, 1568.566
760.5414, 1583.726
761.0235, 1596.412
761.5056, 1611.869
761.9877, 1630.228
762.4698, 1651.161
762.9520, 1671.533
763.4341, 1698.772
763.9162, 1747.239
764.3983, 1803.840
764.8804, 1843.160
765.3625, 1839.113
765.8447, 1847.386
766.3268, 1880.458
766.8089, 1929.133
767.2910, 1967.869
767.7731, 1995.400
768.2552, 2023.789
768.7374, 2055.642
769.2195, 2092.462
769.7016, 2140.296
770.1837, 2196.745
770.6658, 2253.097
771.1479, 2304.344
771.6301, 2353.590
772.1122, 2400.883
772.5943, 2446.971
773.0764, 2496.940
773.5585, 2557.763
774.0406, 2614.686
774.5228, 2659.841
775.0049, 2695.092
775.4870, 2745.364
775.9691, 2812.934
776.4512, 2880.605
776.9333, 2937.554
777.4155, 2987.596
777.8976, 3037.068
778.3797, 3086.652
778.8618, 3139.746
779.3439, 3204.267
779.8260, 3269.304
780.3082, 3325.586
780.7903, 3369.812
781.2724, 3423.176
781.7545, 3492.494
782.2366, 3564.124
782.7188, 3629.490
783.2009, 3687.100
783.6830, 3751.289
784.1651, 3823.143
784.6472, 3896.839
785.1293, 3962.285
785.6115, 4026.128
786.0936, 4103.300
786.5757, 4195.383
787.0578, 4290.369
787.5399, 4381.438
788.0220, 4470.333
788.5042, 4557.850
788.9863, 4638.702
789.4684, 4729.123
789.9505, 4834.922
790.4326, 4943.430
790.9147, 5038.239
791.3969, 5119.818
791.8790, 5204.909
792.3611, 5295.789
792.8432, 5390.684
793.3253, 5496.118
793.8074, 5603.993
794.2896, 5697.061
794.7717, 5769.716
795.2538, 5835.946
795.7359, 5900.024
796.2180, 5963.508
796.7001, 6028.592
797.1823, 6101.185
797.6643, 6167.203
798.1464, 6225.365
798.6285, 6276.485
799.1107, 6324.369
799.5928, 6368.279
800.0749, 6396.471
800.5570, 6405.567
801.0391, 6400.696
801.5212, 6378.507
802.0034, 6348.553
802.4855, 6327.532
802.9676, 6324.282
803.4497, 6326.563
803.9318, 6336.186
804.4139, 6347.173
804.8961, 6348.706
805.3782, 6335.151
805.8603, 6326.965
806.3424, 6332.209
806.8245, 6337.301
807.3066, 6310.845
807.7888, 6257.886
808.2709, 6211.756
808.7530, 6194.410
809.2351, 6170.306
809.7172, 6097.934
810.1993, 5994.092
810.6815, 5891.459
811.1636, 5805.231
811.6457, 5716.018
812.1278, 5619.976
812.6099, 5517.750
813.0920, 5408.229
813.5742, 5289.838
814.0563, 5173.658
814.5384, 5060.741
815.0205, 4956.158
815.5026, 4873.317
815.9847, 4808.983
816.4669, 4751.310
816.9490, 4698.483
817.4311, 4647.844
817.9132, 4594.400
818.3953, 4541.327
818.8774, 4497.517
819.3596, 4470.877
819.8417, 4445.138
820.3238, 4415.168
820.8059, 4385.290
821.2880, 4368.531
821.7701, 4365.182
822.2523, 4366.002
822.7344, 4369.521
823.2165, 4373.085
823.6986, 4364.257
824.1807, 4351.313
824.6628, 4358.124
825.1450, 4415.004
825.6271, 4473.063
826.1092, 4510.200
826.5913, 4531.398
827.0734, 4558.158
827.5555, 4589.441
828.0377, 4628.375
828.5198, 4676.005
829.0019, 4731.307
829.4840, 4791.969
829.9661, 4857.636
830.4482, 4928.262
830.9304, 5003.386
831.4125, 5083.041
831.8946, 5161.228
832.3767, 5242.366
832.8588, 5341.771
833.3409, 5467.969
833.8231, 5607.729
834.3052, 5756.628
834.7873, 5916.829
835.2694, 6096.874
835.7515, 6296.332
836.2336, 6515.003
836.7158, 6750.798
837.1979, 7002.037
837.6800, 7255.019
838.1621, 7517.000
838.6442, 7816.462
839.1263, 8170.036
839.6085, 8560.043
840.0906, 8974.329
840.5727, 9415.933
841.0548, 9892.918
841.5369, 10422.98
842.0190, 10948.24
842.5012, 11452.92
842.9833, 11953.39
843.4654, 12493.82
843.9475, 13076.43
844.4296, 13697.56
844.9117, 14382.95
845.3939, 15080.11
845.8760, 15733.50
846.3581, 16358.04
846.8402, 16977.17
847.3223, 17633.11
847.8044, 18251.28
848.2866, 18837.37
848.7687, 19373.87
849.2508, 19826.88
849.7329, 20199.87
850.2150, 20467.59
850.6971, 20620.05
851.1793, 20669.57
851.6614, 20645.21
852.1435, 20537.60
852.6256, 20320.37
853.1077, 19955.59
853.5898, 19511.90
854.0720, 19012.77
854.5541, 18453.75
855.0362, 17827.27
855.5183, 17109.29
856.0004, 16385.33
856.4825, 15659.84
856.9647, 14943.01
857.4468, 14233.52
857.9289, 13538.59
858.4110, 12862.44
858.8931, 12210.21
859.3752, 11583.97
859.8574, 10969.40
860.3395, 10383.15
860.8216, 9840.043
861.3037, 9367.163
861.7858, 8908.228
862.2679, 8436.243
862.7501, 7983.984
863.2322, 7598.081
863.7142, 7283.733
864.1964, 6979.679
864.6785, 6677.405
865.1606, 6388.466
865.6427, 6122.349
866.1248, 5877.863
866.6069, 5651.574
867.0891, 5444.883
867.5712, 5251.429
868.0533, 5070.704
868.5354, 4899.534
869.0175, 4732.102
869.4996, 4561.231
869.9818, 4411.792
870.4639, 4286.426
870.9460, 4177.362
871.4281, 4078.376
871.9102, 3986.409
872.3923, 3888.302
872.8745, 3780.624
873.3566, 3682.351
873.8387, 3608.441
874.3208, 3550.241
874.8029, 3500.906
875.2850, 3464.701
875.7672, 3422.960
876.2493, 3373.332
876.7314, 3321.287
877.2135, 3268.802
877.6956, 3216.415
878.1777, 3172.567
878.6599, 3137.438
879.1420, 3105.880
879.6241, 3074.628
880.1062, 3044.333
880.5883, 3015.456
881.0704, 2988.009
881.5526, 2962.618
882.0347, 2942.837
882.5168, 2921.454
882.9989, 2893.001
883.4810, 2858.019
883.9631, 2835.875
884.4453, 2827.095
884.9274, 2821.224
885.4095, 2808.117
885.8916, 2795.576
886.3737, 2797.302
886.8558, 2811.149
887.3380, 2820.994
887.8201, 2816.118
888.3022, 2810.092
888.7843, 2808.184
889.2664, 2809.746
889.7485, 2809.154
890.2307, 2804.724
890.7128, 2808.490
891.1949, 2827.512
891.6770, 2856.097
892.1591, 2891.346
892.6412, 2928.428
893.1234, 2950.251
893.6055, 2928.851
894.0876, 2912.986
894.5697, 2926.850
895.0518, 2961.795
895.5339, 2993.339
896.0161, 3021.955
896.4982, 3047.372
896.9803, 3072.059
897.4624, 3089.742
897.9445, 3083.572
898.4266, 3061.179
898.9088, 3047.026
899.3909, 3054.841
899.8730, 3061.844
900.3551, 3053.296
900.8372, 3035.895
901.3193, 3018.462
901.8015, 2999.695
902.2836, 2985.082
902.7657, 2974.798
903.2478, 2969.112
903.7299, 2970.534
904.2120, 2977.396
904.6942, 2981.957
905.1763, 2982.847
905.6584, 2983.168
906.1405, 2989.707
906.6226, 2994.194
907.1047, 2986.359
907.5869, 2956.562
908.0690, 2941.836
908.5511, 2947.007
909.0332, 2960.924
909.5153, 2979.226
909.9974, 3000.790
910.4796, 3013.674
910.9617, 3017.836
911.4438, 3020.042
911.9259, 3024.424
912.4080, 3029.685
912.8901, 3036.591
913.3723, 3044.856
913.8544, 3046.070
914.3365, 3035.795
914.8186, 3022.861
915.3007, 3008.241
915.7828, 2993.622
916.2650, 2993.160
916.7471, 3005.140
917.2292, 3005.047
917.7113, 2973.909
918.1934, 2930.102
918.6755, 2887.294
919.1577, 2845.953
919.6398, 2808.079
920.1219, 2775.836
920.6040, 2745.088
921.0861, 2717.848
921.5682, 2689.402
922.0504, 2645.596
922.5325, 2587.364
923.0146, 2542.563
923.4967, 2521.810
923.9788, 2508.515
924.4609, 2484.809
924.9431, 2457.654
925.4252, 2437.916
925.9073, 2435.997
926.3894, 2426.436
926.8715, 2399.025
927.3536, 2370.994
927.8358, 2359.589
928.3179, 2365.047
928.8000, 2365.559
929.2821, 2359.316
929.7642, 2353.724
930.2463, 2350.785
930.7284, 2354.880
931.2105, 2374.417
931.6926, 2411.795
932.1747, 2443.481
932.6569, 2459.395
933.1390, 2473.977
933.6211, 2493.643
934.1032, 2517.658
934.5853, 2537.766
935.0674, 2553.719
935.5496, 2575.502
936.0317, 2613.144
936.5138, 2656.219
936.9959, 2689.570
937.4780, 2718.191
937.9601, 2761.221
938.4423, 2840.826
938.9244, 2913.432
939.4065, 2967.512
939.8886, 3011.962
940.3707, 3068.303
940.8528, 3136.542
941.3350, 3202.430
941.8171, 3259.035
942.2992, 3319.958
942.7813, 3407.713
943.2634, 3507.513
943.7455, 3598.186
944.2277, 3662.800
944.7098, 3739.176
945.1919, 3837.827
945.6740, 3941.209
946.1561, 4031.609
946.6382, 4110.047
947.1204, 4189.858
947.6025, 4271.994
948.0846, 4352.496
948.5667, 4434.213
949.0488, 4508.537
949.5309, 4569.720
950.0131, 4617.501
950.4952, 4641.258
950.9773, 4634.754
951.4594, 4613.582
951.9415, 4581.384
952.4236, 4540.069
952.9058, 4500.866
953.3879, 4462.028
953.8700, 4409.314
954.3521, 4322.365
954.8342, 4229.730
955.3163, 4159.296
955.7985, 4100.023
956.2806, 4023.018
956.7627, 3901.099
957.2448, 3801.470
957.7269, 3738.882
958.2090, 3690.390
958.6912, 3614.924
959.1733, 3518.534
959.6554, 3430.995
960.1375, 3357.415
960.6196, 3295.924
961.1017, 3253.978
961.5839, 3218.945
962.0660, 3177.740
962.5481, 3125.184
963.0302, 3077.755
963.5123, 3033.766
963.9944, 2998.131
964.4766, 2981.640
964.9587, 2976.253
965.4408, 2951.623
965.9229, 2909.326
966.4050, 2871.127
966.8871, 2849.475
967.3693, 2835.281
967.8514, 2826.402
968.3335, 2821.277
968.8156, 2814.014
969.2977, 2804.966
969.7798, 2792.052
970.2620, 2774.098
970.7441, 2752.581
971.2262, 2724.094
971.7083, 2694.303
972.1904, 2679.257
972.6725, 2695.958
973.1547, 2706.914
973.6368, 2692.854
974.1189, 2669.365
974.6010, 2651.785
975.0831, 2640.144
975.5652, 2636.453
976.0474, 2642.468
976.5295, 2646.803
977.0116, 2637.527
977.4937, 2620.682
977.9758, 2602.403
978.4579, 2583.453
978.9401, 2571.364
979.4222, 2573.978
979.9043, 2578.443
980.3864, 2581.663
980.8685, 2582.648
981.3506, 2573.935
981.8328, 2555.865
982.3149, 2539.305
982.7970, 2526.864
983.2791, 2520.589
983.7612, 2527.321
984.2433, 2540.553
984.7255, 2548.122
985.2076, 2537.406
985.6897, 2535.824
986.1718, 2550.559
986.6539, 2567.019
987.1360, 2564.275
987.6182, 2546.193
988.1003, 2532.798
988.5824, 2526.403
989.0645, 2525.799
989.5466, 2534.971
990.0287, 2545.904
990.5109, 2551.731
990.9930, 2551.372
991.4751, 2553.010
991.9572, 2556.549
992.4393, 2562.655
992.9214, 2573.987
993.4036, 2586.490
993.8857, 2588.567
994.3678, 2582.873
994.8499, 2578.704
995.3320, 2575.278
995.8141, 2579.756
996.2962, 2601.329
996.7783, 2629.687
997.2604, 2651.045
997.7426, 2665.471
998.2247, 2670.524
998.7068, 2663.978
999.1889, 2657.742
999.6710, 2668.361
1000.153, 2685.815
1000.635, 2695.197
1001.117, 2693.147
1001.599, 2694.344
1002.082, 2701.356
1002.564, 2714.123
1003.046, 2736.823
1003.528, 2766.129
1004.010, 2774.895
1004.492, 2764.739
1004.974, 2753.551
1005.456, 2746.207
1005.939, 2746.131
1006.421, 2763.697
1006.903, 2789.356
1007.385, 2799.858
1007.867, 2780.515
1008.349, 2776.312
1008.831, 2797.456
1009.313, 2822.130
1009.795, 2814.479
1010.278, 2788.182
1010.760, 2781.049
1011.242, 2800.438
1011.724, 2816.630
1012.206, 2804.709
1012.688, 2792.600
1013.170, 2800.724
1013.652, 2827.805
1014.135, 2842.180
1014.617, 2842.695
1015.099, 2842.933
1015.581, 2850.644
1016.063, 2860.811
1016.545, 2869.326
1017.027, 2874.675
1017.509, 2873.659
1017.991, 2856.729
1018.474, 2845.724
1018.956, 2846.883
1019.438, 2850.024
1019.920, 2839.749
1020.402, 2818.587
1020.884, 2808.447
1021.366, 2812.471
1021.848, 2813.276
1022.331, 2793.332
1022.813, 2768.550
1023.295, 2749.963
1023.777, 2738.544
1024.259, 2731.303
1024.741, 2728.029
1025.223, 2730.145
1025.705, 2739.712
1026.188, 2753.327
1026.670, 2768.444
1027.152, 2782.009
1027.634, 2786.725
1028.116, 2768.031
1028.598, 2756.934
1029.080, 2766.516
1029.562, 2782.744
1030.044, 2794.260
1030.526, 2801.153
1031.009, 2794.645
1031.491, 2773.234
1031.973, 2761.522
1032.455, 2794.404
1032.937, 2834.484
1033.419, 2848.362
1033.901, 2835.159
1034.383, 2817.093
1034.865, 2785.475
1035.348, 2774.546
1035.830, 2802.071
1036.312, 2844.287
1036.794, 2853.422
1037.276, 2838.254
1037.758, 2821.004
1038.240, 2803.573
1038.722, 2796.843
1039.205, 2814.247
1039.687, 2838.204
1040.169, 2855.162
1040.651, 2865.165
1041.133, 2867.293
1041.615, 2861.173
1042.097, 2854.497
1042.579, 2851.163
1043.062, 2851.316
1043.544, 2855.190
1044.026, 2862.670
1044.508, 2873.914
1044.990, 2893.535
1045.472, 2908.420
1045.954, 2916.651
1046.436, 2918.993
1046.918, 2912.948
1047.401, 2902.346
1047.883, 2899.098
1048.365, 2906.863
1048.847, 2913.999
1049.329, 2914.107
1049.811, 2911.499
1050.293, 2906.960
1050.775, 2900.803
1051.257, 2910.139
1051.740, 2935.916
1052.222, 2954.449
1052.704, 2949.398
1053.186, 2935.063
1053.668, 2919.233
1054.150, 2907.177
1054.632, 2910.495
1055.114, 2949.166
1055.597, 2973.503
1056.079, 2978.098
1056.561, 2973.784
1057.043, 2969.171
1057.525, 2965.641
1058.007, 2969.036
1058.489, 2979.454
1058.971, 2987.880
1059.453, 2979.961
1059.936, 2979.304
1060.418, 3003.651
1060.900, 3043.292
1061.382, 3061.997
1061.864, 3059.458
1062.346, 3051.422
1062.828, 3039.627
1063.310, 3031.683
1063.792, 3039.423
1064.275, 3053.508
1064.757, 3062.131
1065.239, 3060.341
1065.721, 3060.867
1066.203, 3064.775
1066.685, 3068.245
1067.167, 3065.809
1067.649, 3061.859
1068.132, 3068.393
1068.614, 3083.906
1069.096, 3101.945
1069.578, 3130.538
1070.060, 3147.048
1070.542, 3139.497
1071.024, 3121.385
1071.506, 3112.828
1071.989, 3113.308
1072.471, 3113.205
1072.953, 3111.118
1073.435, 3110.578
1073.917, 3117.403
1074.399, 3124.641
1074.881, 3125.052
1075.363, 3118.466
1075.845, 3117.055
1076.328, 3120.152
1076.810, 3132.640
1077.292, 3161.456
1077.774, 3192.352
1078.256, 3201.766
1078.738, 3197.237
1079.220, 3192.510
1079.702, 3189.486
1080.184, 3191.043
1080.667, 3200.942
1081.149, 3209.984
1081.631, 3208.359
1082.113, 3199.119
1082.595, 3203.698
1083.077, 3220.415
1083.559, 3236.104
1084.041, 3250.915
1084.524, 3254.626
1085.006, 3227.282
1085.488, 3190.726
1085.970, 3187.360
1086.452, 3220.927
1086.934, 3250.845
1087.416, 3272.630
1087.898, 3284.515
1088.380, 3276.343
1088.863, 3263.520
1089.345, 3264.416
1089.827, 3281.407
1090.309, 3288.043
1090.791, 3277.983
1091.273, 3270.869
1091.755, 3274.180
1092.237, 3283.469
1092.719, 3290.940
1093.202, 3297.810
1093.684, 3307.259
1094.166, 3322.972
1094.648, 3334.670
1095.130, 3336.880
1095.612, 3337.536
1096.094, 3342.002
1096.576, 3349.790
1097.058, 3357.914
1097.541, 3365.724
1098.023, 3367.670
1098.505, 3348.952
1098.987, 3335.774
1099.469, 3348.062
1099.951, 3373.453
1100.433, 3389.347
1100.915, 3393.982
1101.398, 3402.028
1101.880, 3415.651
1102.362, 3427.066
1102.844, 3424.373
1103.326, 3418.980
1103.808, 3426.204
1104.290, 3445.504
1104.772, 3449.937
1105.255, 3429.767
1105.737, 3416.297
1106.219, 3419.042
1106.701, 3431.456
1107.183, 3446.353
1107.665, 3461.642
1108.147, 3471.947
1108.629, 3473.885
1109.111, 3479.596
1109.594, 3495.626
1110.076, 3511.849
1110.558, 3523.341
1111.040, 3530.879
1111.522, 3539.001
1112.004, 3547.217
1112.486, 3552.618
1112.968, 3548.146
1113.450, 3547.839
1113.933, 3565.411
1114.415, 3585.881
1114.897, 3590.060
1115.379, 3575.299
1115.861, 3576.988
1116.343, 3596.831
1116.825, 3614.613
1117.307, 3609.206
1117.790, 3600.520
1118.272, 3605.239
1118.754, 3621.078
1119.236, 3636.054
1119.718, 3650.738
1120.200, 3661.684
1120.682, 3668.373
1121.164, 3671.137
1121.646, 3667.348
1122.129, 3661.604
1122.611, 3658.804
1123.093, 3659.405
1123.575, 3669.257
1124.057, 3698.564
1124.539, 3716.070
1125.021, 3704.095
1125.503, 3682.808
1125.985, 3703.466
1126.468, 3748.540
1126.950, 3773.278
1127.432, 3755.862
1127.914, 3743.391
1128.396, 3752.487
1128.878, 3769.195
1129.360, 3787.599
1129.842, 3807.167
1130.325, 3827.690
1130.807, 3847.416
1131.289, 3855.134
1131.771, 3829.293
1132.253, 3808.668
1132.735, 3814.138
1133.217, 3833.136
1133.699, 3853.137
1134.182, 3874.880
1134.664, 3885.536
1135.146, 3884.289
1135.628, 3882.579
1136.110, 3887.335
1136.592, 3896.413
1137.074, 3910.597
1137.556, 3927.803
1138.038, 3941.508
1138.521, 3951.397
1139.003, 3958.202
1139.485, 3961.099
1139.967, 3965.487
1140.449, 3982.680
1140.931, 4001.132
1141.413, 4005.090
1141.895, 3993.107
1142.377, 3988.681
1142.860, 3995.126
1143.342, 4004.340
1143.824, 4014.607
1144.306, 4025.016
1144.788, 4032.033
1145.270, 4038.529
1145.752, 4051.177
1146.234, 4075.053
1146.717, 4090.233
1147.199, 4091.913
1147.681, 4089.021
1148.163, 4082.832
1148.645, 4077.295
1149.127, 4087.080
1149.609, 4107.855
1150.091, 4126.358
1150.573, 4136.375
1151.056, 4145.453
1151.538, 4155.293
1152.020, 4165.197
1152.502, 4175.336
1152.984, 4185.389
1153.466, 4190.222
1153.948, 4190.734
1154.430, 4193.688
1154.912, 4207.904
1155.395, 4219.524
1155.877, 4218.547
1156.359, 4213.770
1156.841, 4215.716
1157.323, 4224.321
1157.805, 4236.616
1158.287, 4252.286
1158.769, 4266.209
1159.252, 4264.900
1159.734, 4269.960
1160.216, 4306.277
1160.698, 4358.688
1161.180, 4383.854
1161.662, 4379.868
1162.144, 4371.150
1162.626, 4360.322
1163.108, 4355.713
1163.591, 4369.898
1164.073, 4390.313
1164.555, 4406.640
1165.037, 4418.078
1165.519, 4428.787
1166.001, 4439.574
1166.483, 4443.325
1166.965, 4436.376
1167.448, 4425.560
1167.930, 4411.609
1168.412, 4402.788
1168.894, 4411.529
1169.376, 4443.812
1169.858, 4472.276
1170.340, 4497.752
1170.822, 4516.341
1171.304, 4526.036
1171.786, 4528.503
1172.269, 4517.970
1172.751, 4504.590
1173.233, 4507.020
1173.715, 4544.171
1174.197, 4563.767
1174.679, 4560.426
1175.161, 4553.240
1175.643, 4555.263
1176.126, 4562.272
1176.608, 4564.149
1177.090, 4564.334
1177.572, 4571.887
1178.054, 4597.680
1178.536, 4618.764
1179.018, 4632.324
1179.500, 4644.340
1179.983, 4659.019
1180.465, 4676.872
1180.947, 4703.687
1181.429, 4736.292
1181.911, 4758.223
1182.393, 4755.334
1182.875, 4751.500
1183.357, 4749.736
1183.839, 4749.942
1184.322, 4749.451
1184.804, 4751.249
1185.286, 4766.415
1185.768, 4794.763
1186.250, 4820.190
1186.732, 4836.283
1187.214, 4847.322
1187.696, 4853.590
1188.178, 4857.089
1188.661, 4862.709
1189.143, 4868.475
1189.625, 4863.453
1190.107, 4844.604
1190.589, 4840.389
1191.071, 4886.769
1191.553, 4922.249
1192.035, 4918.801
1192.518, 4893.349
1193.000, 4890.425
1193.482, 4904.970
1193.964, 4915.834
1194.446, 4915.099
1194.928, 4924.818
1195.410, 4972.924
1195.892, 5015.653
1196.375, 5031.411
1196.857, 5024.895
1197.339, 5006.293
1197.821, 4981.273
1198.303, 4975.728
1198.785, 5002.350
1199.267, 5038.628
1199.749, 5090.268
1200.231, 5131.978
1200.714, 5143.831
1201.196, 5130.766
1201.678, 5128.546
1202.160, 5136.161
1202.642, 5148.019
1203.124, 5167.405
1203.606, 5181.264
1204.088, 5173.772
1204.570, 5166.441
1205.053, 5180.033
1205.535, 5212.265
1206.017, 5225.107
1206.499, 5221.553
1206.981, 5223.819
1207.463, 5257.275
1207.945, 5283.125
1208.427, 5274.301
1208.910, 5256.527
1209.392, 5254.842
1209.874, 5268.338
1210.356, 5284.565
1210.838, 5302.335
1211.320, 5312.133
1211.802, 5293.179
1212.284, 5282.875
1212.766, 5311.994
1213.249, 5349.896
1213.731, 5353.058
1214.213, 5325.601
1214.695, 5326.021
1215.177, 5356.482
1215.659, 5390.777
1216.141, 5417.970
1216.623, 5438.997
1217.105, 5453.917
1217.588, 5463.413
1218.070, 5465.034
1218.552, 5460.205
1219.034, 5461.313
1219.516, 5469.669
1219.998, 5486.123
1220.480, 5527.685
1220.962, 5558.152
1221.445, 5554.291
1221.927, 5533.846
1222.409, 5530.946
1222.891, 5543.775
1223.373, 5560.944
1223.855, 5581.029
1224.337, 5600.553
1224.819, 5624.026
1225.302, 5637.826
1225.784, 5630.225
1226.266, 5613.943
1226.748, 5625.910
1227.230, 5659.334
1227.712, 5674.097
1228.194, 5660.086
1228.676, 5655.828
1229.158, 5694.985
1229.641, 5734.637
1230.123, 5752.791
1230.605, 5758.630
1231.087, 5783.375
1231.569, 5819.922
1232.051, 5839.134
1232.533, 5831.956
1233.015, 5820.644
1233.497, 5806.313
1233.979, 5801.910
1234.462, 5816.210
1234.944, 5842.267
1235.426, 5858.325
1235.908, 5867.897
1236.390, 5882.237
1236.872, 5904.768
1237.354, 5930.101
1237.836, 5968.033
1238.319, 5993.185
1238.801, 5990.540
1239.283, 5970.370
1239.765, 5957.193
1240.247, 5953.054
1240.729, 5966.160
1241.211, 6006.659
1241.693, 6040.772
1242.176, 6059.771
1242.658, 6073.738
1243.140, 6087.483
1243.622, 6100.083
1244.104, 6105.794
1244.586, 6109.077
1245.068, 6122.711
1245.550, 6161.457
1246.032, 6180.723
1246.515, 6167.141
1246.997, 6153.822
1247.479, 6160.930
1247.961, 6180.524
1248.443, 6195.411
1248.925, 6208.601
1249.407, 6227.715
1249.889, 6262.872
1250.371, 6284.932
1250.854, 6288.947
1251.336, 6291.475
1251.818, 6305.107
1252.300, 6322.405
1252.782, 6332.267
1253.264, 6335.371
1253.746, 6331.320
1254.228, 6303.202
1254.711, 6311.507
1255.193, 6366.417
1255.675, 6414.891
1256.157, 6405.779
1256.639, 6382.184
1257.121, 6399.478
1257.603, 6442.387
1258.085, 6483.724
1258.568, 6528.835
1259.050, 6542.583
1259.532, 6520.834
1260.014, 6499.107
1260.496, 6502.227
1260.978, 6517.183
1261.460, 6527.813
1261.942, 6543.771
1262.424, 6587.355
1262.906, 6672.844
1263.389, 6705.311
1263.871, 6681.770
1264.353, 6653.703
1264.835, 6660.164
1265.317, 6670.044
1265.799, 6649.347
1266.281, 6625.739
1266.763, 6644.895
1267.246, 6709.670
1267.728, 6744.148
1268.210, 6748.045
1268.692, 6752.208
1269.174, 6786.708
1269.656, 6813.928
1270.138, 6794.108
1270.620, 6771.733
1271.103, 6806.078
1271.585, 6888.989
1272.067, 6929.262
1272.549, 6928.379
1273.031, 6918.564
1273.513, 6910.271
1273.995, 6903.714
1274.477, 6891.438
1274.959, 6890.153
1275.442, 6929.108
1275.924, 6993.688
1276.406, 7024.242
1276.888, 7025.411
1277.370, 7030.661
1277.852, 7061.958
1278.334, 7086.660
1278.816, 7099.032
1279.298, 7106.141
1279.781, 7116.329
1280.263, 7125.697
1280.745, 7121.441
1281.227, 7108.408
1281.709, 7107.013
1282.191, 7125.046
1282.673, 7151.240
1283.155, 7187.258
1283.638, 7221.934
1284.120, 7244.420
1284.602, 7259.290
1285.084, 7267.494
1285.566, 7273.256
1286.048, 7291.898
1286.530, 7333.996
1287.012, 7346.431
1287.495, 7322.275
1287.977, 7301.156
1288.459, 7322.292
1288.941, 7354.013
1289.423, 7367.915
1289.905, 7373.207
1290.387, 7393.639
1290.869, 7431.349
1291.351, 7454.194
1291.833, 7460.603
1292.316, 7467.080
1292.798, 7491.096
1293.280, 7511.351
1293.762, 7505.434
1294.244, 7496.374
1294.726, 7516.876
1295.208, 7562.286
1295.690, 7587.855
1296.172, 7594.158
1296.655, 7604.335
1297.137, 7639.518
1297.619, 7667.201
1298.101, 7678.621
1298.583, 7681.941
1299.065, 7680.567
1299.547, 7679.632
1300.029, 7696.739
1300.512, 7728.584
1300.994, 7757.512
1301.476, 7778.450
1301.958, 7794.027
1302.440, 7803.276
1302.922, 7810.566
1303.404, 7822.271
1303.886, 7833.154
1304.369, 7828.372
1304.851, 7816.500
1305.333, 7827.320
1305.815, 7872.877
1306.297, 7900.751
1306.779, 7905.383
1307.261, 7918.157
1307.743, 7983.255
1308.225, 8047.447
1308.708, 8055.115
1309.190, 8033.968
1309.672, 8039.867
1310.154, 8075.751
1310.636, 8090.952
1311.118, 8085.381
1311.600, 8087.531
1312.082, 8130.458
1312.564, 8166.070
1313.047, 8157.033
1313.529, 8143.929
1314.011, 8172.531
##END=



