##NAMES=Opal
##RRUFFID=R100149
##IDEAL CHEMISTRY=SiO_2_&#183;<i>n</i>H_2_O
##LOCALITY=Sri Lanka
##OWNER=RRUFF
##SOURCE=William W. Pinch
##DESCRIPTION=White polished hemisphere
##STATUS=The identification of this mineral is not yet confirmed.
##URL=rruff.info/R100149
174.9236, 468.6322
175.4057, 469.6450
175.8878, 472.2875
176.3699, 475.0728
176.8520, 477.2477
177.3341, 478.6793
177.8163, 479.0638
178.2984, 476.9669
178.7805, 474.1871
179.2626, 473.6519
179.7447, 475.5200
180.2268, 478.1573
180.7090, 480.1755
181.1911, 481.6672
181.6732, 482.8777
182.1553, 483.8645
182.6374, 484.6566
183.1195, 485.2724
183.6017, 485.7153
184.0838, 486.0258
184.5659, 485.9005
185.0480, 485.5253
185.5301, 485.8734
186.0123, 487.8911
186.4944, 491.0343
186.9765, 493.6494
187.4586, 495.7474
187.9407, 497.1564
188.4228, 497.4614
188.9050, 496.7336
189.3871, 495.7040
189.8692, 494.3731
190.3513, 492.9334
190.8334, 492.4769
191.3155, 493.2065
191.7977, 494.5363
192.2798, 495.5860
192.7619, 496.3609
193.2440, 497.1588
193.7261, 498.4825
194.2082, 500.2083
194.6904, 500.6232
195.1725, 499.2666
195.6546, 497.3177
196.1367, 497.2395
196.6188, 499.1706
197.1009, 501.0620
197.5831, 501.5253
198.0652, 500.5722
198.5473, 500.5274
199.0294, 501.7023
199.5115, 503.5643
199.9937, 504.8047
200.4758, 505.1901
200.9579, 506.2580
201.4400, 509.8584
201.9221, 516.4128
202.4042, 519.2061
202.8864, 516.8635
203.3685, 511.5739
203.8506, 508.3230
204.3327, 507.3475
204.8148, 507.5110
205.2969, 508.4675
205.7791, 510.3606
206.2612, 512.0020
206.7433, 513.3478
207.2254, 514.3881
207.7075, 514.9734
208.1896, 514.9053
208.6718, 514.9685
209.1539, 515.8363
209.6360, 517.8553
210.1181, 518.8521
210.6002, 518.4905
211.0823, 517.1771
211.5645, 516.0262
212.0466, 515.1107
212.5287, 514.2046
213.0108, 512.7620
213.4929, 510.0065
213.9750, 510.0002
214.4572, 514.1888
214.9393, 520.7686
215.4214, 524.3372
215.9035, 523.8859
216.3856, 522.4850
216.8678, 521.7623
217.3499, 521.9506
217.8320, 521.9559
218.3141, 521.5971
218.7962, 521.0410
219.2783, 520.8464
219.7605, 521.1063
220.2426, 521.5273
220.7247, 521.9588
221.2068, 522.3808
221.6889, 522.8738
222.1710, 523.5674
222.6532, 524.3066
223.1353, 524.4763
223.6174, 523.6211
224.0995, 522.9788
224.5816, 523.3152
225.0637, 525.3198
225.5459, 526.5616
226.0280, 526.8063
226.5101, 526.2872
226.9922, 525.5865
227.4743, 524.2709
227.9564, 523.4414
228.4386, 523.7435
228.9207, 525.7910
229.4028, 527.4667
229.8849, 528.7484
230.3670, 529.6322
230.8492, 530.1348
231.3313, 530.1888
231.8134, 529.9554
232.2955, 529.3347
232.7776, 527.6172
233.2597, 527.3133
233.7419, 529.2148
234.2240, 532.3369
234.7061, 534.0177
235.1882, 533.7149
235.6703, 532.8298
236.1524, 531.8413
236.6346, 530.4270
237.1167, 529.7170
237.5988, 530.0063
238.0809, 530.8861
238.5630, 531.3876
239.0451, 531.2424
239.5273, 531.0999
240.0094, 531.1204
240.4915, 531.0157
240.9736, 531.8597
241.4557, 534.0626
241.9378, 537.0162
242.4200, 539.5408
242.9021, 541.8953
243.3842, 543.4359
243.8663, 543.7743
244.3484, 542.3922
244.8306, 541.3040
245.3127, 540.3536
245.7948, 539.7845
246.2769, 540.2481
246.7590, 542.7103
247.2411, 544.5512
247.7233, 544.5905
248.2054, 542.0136
248.6875, 540.7691
249.1696, 541.4728
249.6517, 543.1104
250.1338, 544.0053
250.6160, 543.7269
251.0981, 543.4932
251.5802, 543.7380
252.0623, 544.6067
252.5444, 545.1360
253.0265, 544.8728
253.5087, 544.6438
253.9908, 545.9576
254.4729, 550.3318
254.9550, 553.1559
255.4371, 552.5359
255.9192, 547.8234
256.4014, 545.0622
256.8835, 544.7916
257.3656, 545.9407
257.8477, 547.1277
258.3298, 547.8983
258.8120, 549.8586
259.2941, 554.3557
259.7762, 561.7828
260.2583, 564.6627
260.7404, 560.9247
261.2225, 555.2255
261.7047, 552.5613
262.1868, 553.9844
262.6689, 555.6868
263.1510, 556.9736
263.6331, 557.8348
264.1152, 558.4259
264.5974, 558.6229
265.0795, 558.7305
265.5616, 559.0478
266.0437, 559.6516
266.5258, 560.2537
267.0079, 560.8355
267.4901, 561.3967
267.9722, 561.7642
268.4543, 561.7904
268.9364, 561.9576
269.4185, 562.7535
269.9006, 564.3651
270.3828, 565.7820
270.8649, 566.7109
271.3470, 567.3466
271.8291, 568.8102
272.3112, 571.4850
272.7933, 573.9905
273.2755, 574.9919
273.7576, 574.1297
274.2397, 574.3246
274.7218, 576.4150
275.2039, 579.4739
275.6860, 580.3079
276.1682, 578.3014
276.6503, 576.4171
277.1324, 576.8517
277.6145, 579.8359
278.0966, 582.0852
278.5787, 583.2473
279.0609, 583.6985
279.5430, 584.3026
280.0251, 585.1412
280.5072, 585.7145
280.9893, 585.6929
281.4715, 585.0873
281.9536, 584.2294
282.4357, 582.8585
282.9178, 581.7645
283.3999, 582.4818
283.8820, 585.0759
284.3642, 588.1130
284.8463, 591.2470
285.3284, 594.4011
285.8105, 596.5273
286.2926, 597.4374
286.7747, 597.8908
287.2569, 599.1721
287.7390, 601.2183
288.2211, 602.5494
288.7032, 602.0084
289.1853, 600.1713
289.6674, 599.5590
290.1496, 600.2102
290.6317, 601.7980
291.1138, 604.7996
291.5959, 608.8699
292.0780, 611.4019
292.5602, 610.7621
293.0423, 608.3353
293.5244, 607.8090
294.0065, 609.2598
294.4886, 611.0561
294.9707, 611.4633
295.4529, 610.9305
295.9350, 611.1805
296.4171, 613.2255
296.8992, 615.7642
297.3813, 616.0175
297.8634, 614.1904
298.3456, 612.6054
298.8277, 613.4813
299.3098, 615.8856
299.7919, 617.7739
300.2740, 618.6203
300.7561, 618.9494
301.2383, 619.2805
301.7204, 619.6271
302.2025, 620.0262
302.6846, 620.5600
303.1667, 621.1481
303.6488, 621.6340
304.1310, 621.9245
304.6131, 622.3162
305.0952, 623.4642
305.5773, 625.0015
306.0594, 625.9332
306.5415, 625.3650
307.0237, 624.1129
307.5058, 622.8707
307.9879, 621.6481
308.4700, 620.8713
308.9521, 620.8362
309.4343, 621.4685
309.9164, 622.6208
310.3985, 625.2822
310.8806, 627.7309
311.3627, 628.3537
311.8448, 627.0680
312.3270, 625.7328
312.8091, 625.2375
313.2912, 625.3912
313.7733, 625.9678
314.2554, 627.5137
314.7375, 628.9247
315.2197, 629.3974
315.7018, 629.0641
316.1839, 629.0167
316.6660, 630.1125
317.1481, 631.5192
317.6302, 632.5544
318.1124, 633.0608
318.5945, 633.1782
319.0766, 632.9273
319.5587, 632.3185
320.0408, 631.3934
320.5229, 629.0625
321.0051, 627.1888
321.4872, 627.0456
321.9693, 630.3557
322.4514, 632.5172
322.9335, 631.4012
323.4156, 628.6086
323.8978, 627.2264
324.3799, 629.3056
324.8620, 631.5598
325.3441, 632.6773
325.8262, 631.9724
326.3083, 631.9800
326.7905, 633.8450
327.2726, 636.2223
327.7547, 637.4337
328.2368, 636.0417
328.7189, 634.9340
329.2010, 634.7740
329.6832, 635.6722
330.1653, 636.2980
330.6474, 636.3987
331.1295, 636.4095
331.6116, 636.7106
332.0938, 637.6638
332.5759, 638.3209
333.0580, 638.4387
333.5401, 638.1073
334.0222, 638.0622
334.5043, 638.6707
334.9865, 639.0549
335.4686, 638.5440
335.9507, 636.5295
336.4328, 635.2393
336.9149, 634.7540
337.3970, 635.0742
337.8792, 636.4250
338.3613, 639.3150
338.8434, 641.8629
339.3255, 643.1376
339.8076, 642.9702
340.2898, 642.9540
340.7719, 643.2614
341.2540, 643.4468
341.7361, 642.5831
342.2182, 640.5323
342.7003, 638.9300
343.1825, 638.4529
343.6646, 638.9495
344.1467, 639.5009
344.6288, 640.1289
345.1109, 640.7130
345.5930, 641.0973
346.0752, 641.2946
346.5573, 641.5257
347.0394, 641.8438
347.5215, 642.2168
348.0036, 642.4719
348.4857, 642.6151
348.9679, 643.0558
349.4500, 644.6183
349.9321, 646.7574
350.4142, 647.8102
350.8963, 647.3500
351.3784, 646.2059
351.8606, 645.3155
352.3427, 644.6328
352.8248, 643.9644
353.3069, 642.9280
353.7890, 641.9608
354.2711, 641.9346
354.7533, 643.0567
355.2354, 643.8610
355.7175, 642.4149
356.1996, 639.8574
356.6817, 638.1735
357.1638, 639.2509
357.6460, 640.7493
358.1281, 640.7584
358.6102, 639.3648
359.0923, 637.9391
359.5744, 637.2402
360.0565, 636.9024
360.5387, 636.5768
361.0208, 636.1714
361.5029, 635.7557
361.9850, 635.2627
362.4671, 634.7672
362.9492, 634.5080
363.4314, 635.1544
363.9135, 635.6365
364.3956, 635.2499
364.8777, 633.3997
365.3598, 631.8826
365.8419, 631.4003
366.3241, 631.4096
366.8062, 631.0986
367.2883, 629.0748
367.7704, 627.9506
368.2526, 628.9894
368.7347, 632.8649
369.2168, 635.0652
369.6989, 635.0195
370.1810, 633.6070
370.6631, 631.4291
371.1453, 627.1028
371.6274, 624.0816
372.1095, 623.0531
372.5916, 623.7522
373.0737, 624.5576
373.5558, 626.0220
374.0380, 626.7824
374.5201, 625.8688
375.0022, 622.6091
375.4843, 619.9007
375.9664, 617.7978
376.4485, 616.3250
376.9307, 615.5267
377.4128, 615.4531
377.8949, 615.8840
378.3770, 617.0187
378.8591, 618.7800
379.3412, 619.6490
379.8234, 619.5201
380.3055, 618.8431
380.7876, 618.2385
381.2697, 617.6615
381.7518, 616.2175
382.2339, 613.0115
382.7161, 609.3112
383.1982, 608.6575
383.6803, 610.9517
384.1624, 613.0891
384.6445, 612.2184
385.1266, 609.4377
385.6088, 607.5326
386.0909, 607.0757
386.5730, 607.0946
387.0551, 606.1026
387.5372, 604.6088
388.0193, 604.0660
388.5015, 606.8619
388.9836, 610.1309
389.4657, 610.4360
389.9478, 607.5193
390.4299, 604.1633
390.9120, 601.8580
391.3942, 600.3324
391.8763, 599.2932
392.3584, 598.7302
392.8405, 598.5352
393.3226, 598.7466
393.8047, 599.3146
394.2869, 600.0085
394.7690, 601.5887
395.2511, 602.6914
395.7332, 602.2282
396.2154, 598.7664
396.6975, 596.4020
397.1796, 596.3117
397.6617, 597.7977
398.1438, 599.6376
398.6259, 603.4470
399.1081, 605.8749
399.5902, 605.3575
400.0723, 601.2618
400.5544, 598.6143
401.0365, 598.0936
401.5186, 598.5025
402.0008, 598.9739
402.4829, 600.0141
402.9650, 600.0834
403.4471, 598.5428
403.9292, 595.8961
404.4113, 594.3751
404.8935, 594.3309
405.3756, 594.5758
405.8577, 594.3014
406.3398, 593.2903
406.8219, 593.7936
407.3040, 596.5574
407.7862, 599.4799
408.2683, 598.9496
408.7504, 594.8509
409.2325, 591.4796
409.7146, 590.7805
410.1967, 591.8253
410.6789, 591.0801
411.1610, 588.4716
411.6431, 586.1556
412.1252, 586.4289
412.6073, 588.5150
413.0894, 590.3393
413.5716, 591.6461
414.0537, 592.1504
414.5358, 590.7081
415.0179, 587.9636
415.5000, 585.9830
415.9821, 586.5936
416.4643, 588.1624
416.9464, 589.0501
417.4285, 589.0938
417.9106, 588.8381
418.3927, 588.8105
418.8748, 588.6130
419.3570, 587.7799
419.8391, 584.9789
420.3212, 582.6384
420.8033, 582.1544
421.2854, 583.1444
421.7675, 583.7684
422.2497, 583.4449
422.7318, 582.6403
423.2139, 581.5457
423.6960, 579.9922
424.1781, 578.6057
424.6602, 577.5628
425.1424, 576.7123
425.6245, 575.8152
426.1066, 574.2106
426.5887, 573.4335
427.0709, 574.2415
427.5530, 576.6298
428.0351, 577.7383
428.5172, 577.0389
428.9993, 575.7827
429.4814, 574.7571
429.9636, 573.8912
430.4457, 573.5593
430.9278, 573.9357
431.4099, 574.7147
431.8920, 575.3424
432.3741, 575.8570
432.8563, 575.9454
433.3384, 575.2973
433.8205, 574.0318
434.3026, 572.9694
434.7847, 572.1111
435.2668, 571.4016
435.7490, 570.9164
436.2311, 570.5576
436.7132, 569.9794
437.1953, 569.0282
437.6774, 567.9036
438.1595, 566.5540
438.6417, 565.1487
439.1238, 564.3883
439.6059, 565.5092
440.0880, 567.0779
440.5701, 567.4495
441.0522, 566.3086
441.5344, 564.9625
442.0165, 564.3403
442.4986, 563.9576
442.9807, 563.2227
443.4628, 561.3230
443.9449, 559.6378
444.4271, 558.8109
444.9092, 558.7158
445.3913, 558.6014
445.8734, 557.6090
446.3555, 557.0656
446.8376, 557.9101
447.3198, 562.1272
447.8019, 563.8470
448.2840, 561.3942
448.7661, 557.0509
449.2482, 553.8865
449.7303, 552.0082
450.2125, 551.2480
450.6946, 552.0566
451.1767, 554.2524
451.6588, 554.9590
452.1409, 553.7248
452.6230, 552.0742
453.1052, 551.2049
453.5873, 551.2072
454.0694, 550.4848
454.5515, 548.5779
455.0337, 546.5956
455.5158, 547.2549
455.9979, 550.2885
456.4800, 551.6247
456.9621, 547.7765
457.4442, 541.5443
457.9264, 540.0724
458.4085, 543.2090
458.8906, 546.9177
459.3727, 548.2487
459.8548, 547.9047
460.3369, 546.7087
460.8191, 544.2546
461.3012, 542.3774
461.7833, 543.3632
462.2654, 545.9947
462.7475, 547.7326
463.2296, 546.6205
463.7118, 545.0319
464.1939, 544.3187
464.6760, 544.5657
465.1581, 544.7394
465.6402, 544.3862
466.1223, 543.9069
466.6045, 543.5843
467.0866, 543.3516
467.5687, 543.3890
468.0508, 543.8224
468.5329, 544.5109
469.0150, 545.2075
469.4972, 546.2880
469.9793, 546.7711
470.4614, 546.0527
470.9435, 544.0232
471.4256, 543.2586
471.9077, 544.3149
472.3899, 545.5458
472.8720, 545.2621
473.3541, 543.2867
473.8362, 542.0082
474.3183, 541.9485
474.8004, 542.4271
475.2826, 541.9117
475.7647, 540.4913
476.2468, 539.4489
476.7289, 539.5287
477.2110, 540.4270
477.6931, 541.7406
478.1753, 543.4608
478.6574, 544.7921
479.1395, 544.9572
479.6216, 544.3476
480.1037, 543.4353
480.5858, 541.9739
481.0680, 540.9305
481.5501, 541.1442
482.0322, 542.2560
482.5143, 543.5175
482.9964, 545.3553
483.4786, 546.6685
483.9607, 546.8904
484.4428, 545.9468
484.9249, 544.4961
485.4070, 541.9293
485.8892, 539.3741
486.3713, 537.6403
486.8534, 537.0464
487.3355, 536.8675
487.8176, 537.5486
488.2997, 538.4778
488.7819, 538.1541
489.2640, 535.7028
489.7461, 533.9849
490.2282, 534.1285
490.7103, 536.0056
491.1924, 537.5819
491.6746, 538.9445
492.1567, 539.6713
492.6388, 539.0621
493.1209, 537.2786
493.6030, 535.8962
494.0851, 535.1783
494.5673, 534.7125
495.0494, 533.8674
495.5315, 532.7551
496.0136, 531.8155
496.4957, 531.2260
496.9778, 530.9286
497.4600, 530.9320
497.9421, 531.2105
498.4242, 531.5001
498.9063, 531.2825
499.3884, 531.2156
499.8705, 532.0486
500.3527, 534.5084
500.8348, 536.4026
501.3169, 537.0331
501.7990, 536.5916
502.2811, 535.3323
502.7632, 532.1630
503.2454, 529.4151
503.7275, 527.6356
504.2096, 526.7685
504.6917, 526.1651
505.1738, 526.1729
505.6559, 525.9962
506.1381, 524.9033
506.6202, 522.1833
507.1023, 521.7276
507.5844, 524.2265
508.0665, 527.7536
508.5486, 529.7720
509.0308, 530.2610
509.5129, 530.1656
509.9950, 529.4939
510.4771, 528.6183
510.9592, 528.3574
511.4413, 528.6669
511.9235, 529.1722
512.4056, 529.9094
512.8877, 530.5778
513.3698, 530.6360
513.8519, 530.0051
514.3340, 529.3074
514.8162, 528.9805
515.2983, 528.8553
515.7804, 528.7313
516.2625, 528.5350
516.7446, 528.3615
517.2267, 528.2446
517.7089, 528.1917
518.1910, 528.2124
518.6731, 528.3522
519.1552, 528.5431
519.6373, 528.9543
520.1194, 529.6967
520.6016, 529.4863
521.0837, 527.2945
521.5658, 525.2902
522.0479, 525.2684
522.5300, 527.9863
523.0121, 529.8971
523.4943, 530.6735
523.9764, 530.6570
524.4585, 530.2215
524.9406, 529.3569
525.4227, 528.8715
525.9048, 529.4017
526.3870, 530.3445
526.8691, 529.8292
527.3513, 527.9717
527.8334, 526.5247
528.3155, 527.4816
528.7976, 529.3614
529.2797, 529.6407
529.7618, 527.6747
530.2440, 526.2349
530.7261, 528.1967
531.2082, 531.5634
531.6903, 533.7447
532.1724, 532.9930
532.6545, 531.9084
533.1367, 531.2645
533.6188, 530.9517
534.1009, 530.5379
534.5830, 529.4376
535.0651, 528.7531
535.5472, 529.0612
536.0294, 530.6140
536.5115, 531.3068
536.9936, 530.7213
537.4757, 529.8669
537.9578, 529.7084
538.4399, 530.4476
538.9221, 530.4587
539.4042, 529.2798
539.8863, 527.8199
540.3684, 527.8873
540.8505, 529.3544
541.3326, 530.7098
541.8148, 531.3381
542.2969, 531.4729
542.7790, 531.4825
543.2611, 531.3671
543.7432, 531.1293
544.2253, 530.6962
544.7075, 530.1837
545.1896, 529.7496
545.6717, 529.4564
546.1538, 529.0123
546.6359, 527.7993
547.1180, 526.5585
547.6002, 526.0944
548.0823, 527.0457
548.5644, 528.2669
549.0465, 529.9646
549.5286, 531.8076
550.0107, 532.7995
550.4929, 532.3403
550.9750, 531.9243
551.4571, 532.0586
551.9392, 532.7458
552.4213, 533.3716
552.9034, 534.0665
553.3856, 534.3051
553.8677, 533.2098
554.3498, 530.9641
554.8319, 529.9745
555.3140, 530.6874
555.7961, 531.9208
556.2783, 532.2302
556.7604, 531.8182
557.2425, 531.2028
557.7246, 530.1511
558.2067, 529.4304
558.6888, 530.3348
559.1710, 532.3354
559.6531, 533.6131
560.1352, 532.3151
560.6173, 530.7910
561.0994, 530.6911
561.5815, 532.3916
562.0637, 533.3378
562.5458, 532.0620
563.0279, 530.4841
563.5100, 530.0235
563.9921, 531.6142
564.4742, 532.6501
564.9564, 532.8148
565.4385, 532.5880
565.9206, 532.8356
566.4027, 533.6754
566.8848, 534.3594
567.3669, 534.6757
567.8491, 534.6738
568.3312, 534.2384
568.8133, 533.4037
569.2954, 533.1021
569.7775, 535.0533
570.2596, 537.6363
570.7418, 537.1824
571.2239, 533.3742
571.7060, 530.0160
572.1881, 530.7172
572.6702, 533.1210
573.1523, 534.6049
573.6345, 534.0704
574.1166, 533.3334
574.5987, 532.8793
575.0808, 532.6957
575.5629, 532.7595
576.0450, 533.3524
576.5272, 533.8776
577.0093, 534.2951
577.4914, 534.5758
577.9735, 534.4760
578.4556, 533.8120
578.9377, 533.1571
579.4199, 532.7929
579.9020, 532.7333
580.3841, 532.7277
580.8662, 532.7806
581.3483, 532.8972
581.8304, 533.1274
582.3126, 533.4343
582.7947, 533.6453
583.2768, 533.6726
583.7589, 533.7676
584.2410, 534.4709
584.7231, 535.4108
585.2053, 535.8537
585.6874, 534.9447
586.1696, 533.9436
586.6517, 533.3069
587.1338, 533.0767
587.6159, 533.4308
588.0980, 535.2961
588.5801, 536.9500
589.0623, 537.4073
589.5444, 536.3535
590.0265, 536.2261
590.5086, 537.4879
590.9907, 539.0910
591.4728, 540.5447
591.9550, 542.0903
592.4371, 541.5743
592.9192, 538.2533
593.4013, 534.2832
593.8834, 533.1971
594.3655, 534.5354
594.8477, 535.2207
595.3298, 533.5323
595.8119, 531.6458
596.2940, 533.4225
596.7761, 537.7092
597.2582, 540.6874
597.7404, 539.0338
598.2225, 536.3389
598.7046, 535.1322
599.1867, 535.5482
599.6688, 535.8138
600.1509, 535.1273
600.6331, 534.3023
601.1152, 533.8302
601.5973, 533.7496
602.0794, 533.9237
602.5615, 534.2142
603.0436, 534.8912
603.5258, 536.7939
604.0079, 540.5992
604.4900, 541.6016
604.9721, 538.0268
605.4542, 532.7873
605.9363, 532.4757
606.4185, 536.5153
606.9006, 539.6856
607.3827, 538.6544
607.8648, 535.9507
608.3469, 535.2439
608.8290, 536.2562
609.3112, 537.4604
609.7933, 538.7615
610.2754, 539.3375
610.7575, 537.8866
611.2396, 533.8321
611.7217, 531.5528
612.2039, 534.3646
612.6860, 538.1013
613.1681, 539.4984
613.6502, 536.0099
614.1323, 534.5626
614.6144, 536.3291
615.0966, 539.1857
615.5787, 539.7705
616.0608, 537.5788
616.5429, 536.4680
617.0250, 537.7839
617.5071, 540.2006
617.9893, 540.4562
618.4714, 538.8127
618.9535, 537.2845
619.4356, 536.9656
619.9177, 537.3258
620.3998, 537.9025
620.8820, 538.6348
621.3641, 539.0724
621.8462, 538.8868
622.3283, 538.3640
622.8104, 537.3969
623.2925, 535.4794
623.7747, 535.0946
624.2568, 538.8495
624.7389, 542.9370
625.2210, 544.0823
625.7031, 540.0671
626.1852, 538.1282
626.6674, 539.4383
627.1495, 542.0857
627.6316, 542.7675
628.1137, 541.3941
628.5958, 540.3035
629.0779, 540.3326
629.5601, 540.8519
630.0422, 540.3176
630.5243, 539.0402
631.0064, 538.4439
631.4885, 540.3536
631.9706, 542.6199
632.4528, 542.9477
632.9349, 541.4475
633.4170, 540.1630
633.8991, 539.9872
634.3812, 540.3105
634.8633, 540.9130
635.3455, 542.0753
635.8276, 542.4495
636.3097, 541.2113
636.7918, 539.9092
637.2739, 539.9445
637.7560, 541.6926
638.2382, 543.3231
638.7203, 544.8190
639.2024, 545.8577
639.6845, 545.5546
640.1666, 544.1136
640.6487, 543.2928
641.1309, 543.7853
641.6130, 544.8945
642.0951, 545.9921
642.5772, 546.9431
643.0594, 547.3283
643.5415, 545.8729
644.0236, 544.7297
644.5057, 545.7350
644.9879, 548.6223
645.4700, 550.4930
645.9521, 550.8920
646.4342, 549.8994
646.9163, 547.0172
647.3984, 541.5536
647.8806, 539.1092
648.3627, 540.8768
648.8448, 543.4188
649.3269, 543.4193
649.8090, 540.8957
650.2911, 541.2288
650.7733, 545.3901
651.2554, 549.9361
651.7375, 550.1968
652.2196, 547.6838
652.7017, 546.1892
653.1838, 547.2106
653.6660, 548.6536
654.1481, 548.9026
654.6302, 548.4366
655.1123, 548.1083
655.5944, 548.0900
656.0765, 548.3457
656.5587, 549.0852
657.0408, 550.1344
657.5229, 550.7488
658.0050, 550.8315
658.4871, 550.5707
658.9692, 549.7924
659.4514, 548.6141
659.9335, 548.4421
660.4156, 549.3421
660.8977, 550.6879
661.3798, 552.6832
661.8619, 554.7142
662.3441, 554.6921
662.8262, 552.4431
663.3083, 550.4250
663.7904, 550.6326
664.2725, 552.1168
664.7546, 554.1449
665.2368, 557.3191
665.7189, 558.9737
666.2010, 556.9720
666.6831, 553.5761
667.1652, 551.3990
667.6473, 551.4932
668.1295, 551.2130
668.6116, 550.1169
669.0937, 548.7416
669.5758, 548.1288
670.0579, 548.3084
670.5400, 548.9539
671.0222, 550.1836
671.5043, 551.5779
671.9864, 552.3519
672.4685, 552.5320
672.9506, 552.2763
673.4327, 550.9760
673.9149, 549.7701
674.3970, 549.7725
674.8791, 550.8820
675.3612, 552.2165
675.8433, 554.2141
676.3254, 555.6956
676.8076, 555.7853
677.2897, 554.1383
677.7718, 553.1276
678.2539, 552.8583
678.7360, 553.1160
679.2181, 554.0054
679.7003, 555.6622
680.1824, 556.4395
680.6645, 556.1578
681.1466, 555.5654
681.6287, 555.4212
682.1108, 555.6173
682.5930, 555.9515
683.0751, 556.5084
683.5572, 556.7344
684.0393, 555.7004
684.5214, 554.1619
685.0035, 553.1982
685.4857, 553.5052
685.9678, 553.9995
686.4499, 554.4545
686.9320, 554.9064
687.4141, 555.4665
687.8962, 556.2953
688.3784, 556.9592
688.8605, 557.5202
689.3426, 557.7938
689.8247, 556.6543
690.3068, 554.0091
690.7889, 552.3553
691.2711, 553.6995
691.7532, 556.4884
692.2353, 557.6815
692.7174, 557.4119
693.1995, 556.5755
693.6816, 554.6755
694.1638, 553.1867
694.6459, 553.6624
695.1280, 556.3074
695.6101, 558.2700
696.0922, 558.7373
696.5743, 558.4054
697.0565, 557.4979
697.5386, 555.6625
698.0207, 554.8278
698.5028, 555.3089
698.9849, 556.1365
699.4670, 556.4128
699.9492, 556.1881
700.4313, 555.8828
700.9135, 555.4725
701.3956, 555.3632
701.8777, 556.4185
702.3598, 557.9679
702.8419, 558.8152
703.3240, 558.3033
703.8062, 557.6724
704.2883, 557.4035
704.7704, 557.4492
705.2525, 557.7498
705.7346, 558.9288
706.2167, 559.5090
706.6989, 558.9634
707.1810, 557.9183
707.6631, 557.9498
708.1452, 559.3206
708.6273, 560.1957
709.1094, 559.7527
709.5916, 558.7565
710.0737, 559.2513
710.5558, 560.9236
711.0379, 562.1552
711.5200, 561.6138
712.0021, 560.5877
712.4843, 560.0794
712.9664, 560.0676
713.4485, 560.3568
713.9306, 561.5635
714.4127, 562.4118
714.8948, 561.9342
715.3770, 560.0957
715.8591, 559.4301
716.3412, 560.4886
716.8233, 561.6328
717.3054, 561.8478
717.7875, 561.1844
718.2697, 560.9840
718.7518, 561.3007
719.2339, 561.3801
719.7160, 559.8636
720.1981, 557.9476
720.6802, 557.9281
721.1624, 560.2772
721.6445, 562.2297
722.1266, 561.8578
722.6087, 560.5295
723.0908, 559.3085
723.5729, 557.9210
724.0551, 557.6945
724.5372, 559.5829
725.0193, 561.8036
725.5014, 562.4402
725.9835, 561.2129
726.4656, 559.9847
726.9478, 558.7684
727.4299, 558.0468
727.9120, 558.9016
728.3941, 560.8583
728.8762, 562.4255
729.3583, 563.2449
729.8405, 563.4236
730.3226, 562.3707
730.8047, 560.8784
731.2868, 560.2858
731.7689, 561.9675
732.2510, 563.4442
732.7332, 564.0578
733.2153, 564.1271
733.6974, 564.3259
734.1795, 564.8857
734.6616, 564.8304
735.1437, 563.5409
735.6259, 561.8239
736.1080, 562.1623
736.5901, 564.3088
737.0722, 566.0844
737.5543, 566.3353
738.0364, 565.7491
738.5186, 564.5160
739.0007, 563.0092
739.4828, 562.5245
739.9649, 564.9007
740.4470, 567.1987
740.9291, 567.8342
741.4113, 566.9086
741.8934, 566.9310
742.3755, 568.9772
742.8576, 569.9643
743.3397, 567.9013
743.8218, 563.4446
744.3040, 562.6027
744.7861, 565.4769
745.2682, 568.2659
745.7503, 567.7087
746.2324, 565.6840
746.7145, 565.2164
747.1967, 566.3433
747.6788, 567.8437
748.1609, 570.3509
748.6430, 571.9913
749.1251, 570.8608
749.6072, 565.7783
750.0894, 563.5921
750.5715, 566.3161
751.0536, 569.5823
751.5357, 570.4767
752.0178, 568.7510
752.4999, 567.8002
752.9821, 567.6592
753.4642, 568.0648
753.9463, 569.0689
754.4284, 570.3690
754.9105, 571.3550
755.3926, 571.9433
755.8748, 572.3281
756.3569, 572.5081
756.8390, 572.6125
757.3211, 572.7374
757.8032, 572.7945
758.2853, 573.1152
758.7675, 573.9581
759.2496, 574.8096
759.7318, 575.2408
760.2139, 575.2379
760.6960, 574.6290
761.1781, 573.0776
761.6602, 572.1189
762.1423, 574.7257
762.6245, 579.3001
763.1066, 581.7169
763.5887, 580.5331
764.0708, 578.9560
764.5529, 579.0129
765.0350, 580.0301
765.5172, 581.2066
765.9993, 582.5952
766.4814, 583.8114
766.9635, 584.7486
767.4456, 585.5590
767.9277, 586.4627
768.4099, 587.4963
768.8920, 588.3653
769.3741, 589.0088
769.8562, 589.4937
770.3383, 589.6513
770.8204, 589.7363
771.3026, 590.5297
771.7847, 592.7199
772.2668, 594.8508
772.7489, 595.8754
773.2310, 596.2266
773.7131, 596.5690
774.1953, 596.8326
774.6774, 597.4611
775.1595, 598.9662
775.6416, 600.5916
776.1237, 600.6595
776.6058, 598.8777
777.0880, 597.8220
777.5701, 598.2277
778.0522, 599.4213
778.5343, 600.4011
779.0164, 601.2348
779.4985, 602.1534
779.9807, 603.5408
780.4628, 604.6501
780.9449, 604.5943
781.4270, 603.9667
781.9091, 604.0104
782.3912, 606.6356
782.8734, 607.7205
783.3555, 605.8748
783.8376, 602.5287
784.3197, 601.5400
784.8018, 603.1465
785.2839, 604.2521
785.7661, 603.9474
786.2482, 602.5667
786.7303, 599.6730
787.2124, 596.0859
787.6945, 594.0589
788.1766, 596.6569
788.6588, 599.0577
789.1409, 598.1903
789.6230, 595.2083
790.1051, 593.4207
790.5872, 593.5140
791.0693, 594.3445
791.5515, 596.2013
792.0336, 598.3887
792.5157, 598.5169
792.9978, 596.5773
793.4799, 594.9111
793.9620, 594.2979
794.4442, 594.5149
794.9263, 596.0153
795.4084, 598.1213
795.8905, 598.9700
796.3726, 596.6960
796.8547, 594.0641
797.3369, 591.8630
797.8190, 590.2017
798.3011, 589.2514
798.7832, 589.1259
799.2653, 589.4509
799.7474, 590.2108
800.2296, 591.2958
800.7117, 592.9247
801.1938, 594.9249
801.6759, 595.3256
802.1580, 592.1217
802.6401, 588.1898
803.1223, 586.9196
803.6044, 587.6102
804.0865, 588.4346
804.5686, 588.8681
805.0507, 589.1768
805.5328, 589.6006
806.0150, 589.9662
806.4971, 589.6905
806.9792, 588.4933
807.4613, 587.5443
807.9434, 587.0951
808.4255, 587.1627
808.9077, 588.3174
809.3898, 590.1775
809.8719, 591.0016
810.3540, 588.8879
810.8361, 586.6291
811.3182, 586.7157
811.8004, 588.3253
812.2825, 589.5128
812.7646, 589.6602
813.2467, 589.4465
813.7288, 588.7762
814.2109, 587.9307
814.6931, 587.8476
815.1752, 588.6960
815.6573, 588.7086
816.1394, 587.0515
816.6215, 584.8456
817.1037, 583.7323
817.5858, 583.5969
818.0679, 584.1099
818.5500, 585.7531
819.0322, 587.3313
819.5143, 588.2875
819.9964, 588.7386
820.4785, 588.8701
820.9606, 588.5114
821.4427, 588.1874
821.9249, 587.9832
822.4070, 587.8341
822.8891, 587.6627
823.3712, 587.4566
823.8533, 586.9594
824.3354, 585.7584
824.8176, 584.9739
825.2997, 586.8588
825.7818, 589.8580
826.2639, 591.2639
826.7460, 588.2274
827.2281, 585.8990
827.7103, 586.1914
828.1924, 587.4710
828.6745, 587.3603
829.1566, 585.1467
829.6387, 584.6531
830.1208, 586.9552
830.6030, 589.9167
831.0851, 589.7636
831.5672, 587.5675
832.0493, 586.4202
832.5314, 587.6024
833.0135, 588.7813
833.4957, 588.0558
833.9778, 586.5524
834.4599, 585.5811
834.9420, 585.6122
835.4241, 586.0257
835.9063, 587.2507
836.3884, 588.3555
836.8705, 587.9177
837.3526, 586.0035
837.8347, 584.8942
838.3168, 584.9109
838.7990, 585.4843
839.2811, 586.3445
839.7632, 587.2389
840.2453, 587.7488
840.7274, 587.6318
841.2095, 587.6840
841.6917, 588.8122
842.1738, 589.7274
842.6559, 589.2564
843.1380, 586.5948
843.6201, 585.6212
844.1022, 586.7502
844.5844, 588.1395
845.0665, 587.7509
845.5486, 586.2936
846.0307, 585.8964
846.5128, 586.7771
846.9949, 587.5092
847.4771, 587.1103
847.9592, 586.2089
848.4413, 585.0090
848.9234, 583.2634
849.4055, 583.0517
849.8876, 585.4968
850.3698, 587.7107
850.8519, 587.7081
851.3340, 585.7173
851.8161, 584.6583
852.2982, 584.5230
852.7803, 584.8590
853.2625, 585.6413
853.7446, 586.5152
854.2267, 587.2109
854.7088, 587.6928
855.1909, 587.8068
855.6730, 586.6675
856.1552, 586.0798
856.6373, 587.2123
857.1194, 589.6732
857.6015, 589.9255
858.0836, 587.6529
858.5657, 585.6213
859.0479, 585.2474
859.5300, 585.8692
860.0121, 586.3258
860.4942, 586.6815
860.9763, 587.1524
861.4584, 588.3373
861.9406, 589.1500
862.4227, 588.7119
862.9048, 587.4503
863.3869, 586.8893
863.8690, 587.1752
864.3511, 587.8417
864.8333, 588.9860
865.3154, 590.1880
865.7975, 590.5635
866.2796, 590.2244
866.7617, 589.6690
867.2438, 588.9802
867.7260, 588.2693
868.2081, 587.0771
868.6902, 586.0666
869.1723, 586.2395
869.6544, 589.3793
870.1365, 591.5099
870.6187, 592.2750
871.1008, 592.1324
871.5829, 591.2981
872.0650, 589.8533
872.5471, 589.6448
873.0292, 591.2020
873.5114, 592.7418
873.9935, 591.6641
874.4756, 589.8275
874.9577, 589.9534
875.4399, 593.6504
875.9220, 595.8144
876.4041, 593.9910
876.8862, 591.1843
877.3683, 589.0458
877.8505, 587.5101
878.3326, 587.2560
878.8147, 588.4056
879.2968, 589.8861
879.7789, 590.9071
880.2610, 591.5734
880.7432, 592.1766
881.2253, 592.7139
881.7074, 592.6895
882.1895, 591.4694
882.6716, 589.9851
883.1537, 588.4760
883.6359, 587.0038
884.1180, 586.7911
884.6001, 588.1513
885.0822, 589.4771
885.5643, 590.0561
886.0464, 590.0422
886.5286, 589.4045
887.0107, 588.3951
887.4928, 588.0477
887.9749, 589.6487
888.4570, 591.3027
888.9391, 591.8962
889.4213, 592.8801
889.9034, 593.6375
890.3855, 593.4755
890.8676, 594.0910
891.3497, 593.4246
891.8318, 592.0790
892.3140, 590.8391
892.7961, 589.8405
893.2782, 589.7810
893.7603, 591.3795
894.2424, 592.7606
894.7245, 591.8312
895.2067, 590.1758
895.6888, 589.7509
896.1709, 592.2167
896.6530, 593.7182
897.1351, 593.9104
897.6172, 593.6617
898.0994, 594.0512
898.5815, 594.8997
899.0636, 594.3889
899.5457, 592.2335
900.0278, 591.0092
900.5099, 594.7415
900.9921, 599.1182
901.4742, 599.7244
901.9563, 595.4718
902.4384, 592.2020
902.9205, 590.7211
903.4026, 590.1580
903.8848, 590.2321
904.3669, 590.8948
904.8490, 591.9072
905.3311, 593.2447
905.8132, 594.4110
906.2953, 595.1049
906.7775, 595.4899
907.2596, 595.8314
907.7417, 596.0297
908.2238, 595.7330
908.7059, 593.8912
909.1880, 592.7932
909.6702, 593.3514
910.1523, 594.6598
910.6344, 594.0928
911.1165, 591.7190
911.5986, 590.9346
912.0807, 593.2032
912.5629, 596.0743
913.0450, 597.1996
913.5271, 596.9402
914.0092, 595.7020
914.4913, 592.3923
914.9734, 590.3633
915.4556, 590.6775
915.9377, 591.8865
916.4198, 592.9933
916.9019, 594.0527
917.3840, 593.6414
917.8661, 591.4987
918.3483, 589.6473
918.8304, 590.2639
919.3125, 592.0172
919.7946, 593.5521
920.2767, 594.7184
920.7589, 595.0311
921.2410, 593.2699
921.7231, 591.7367
922.2052, 591.3431
922.6873, 591.9858
923.1694, 592.9196
923.6516, 594.1477
924.1337, 595.1672
924.6158, 595.7536
925.0979, 595.9574
925.5800, 595.6541
926.0621, 595.0215
926.5443, 594.5062
927.0264, 594.0593
927.5085, 594.0292
927.9906, 594.6511
928.4727, 595.5858
928.9548, 596.3116
929.4370, 596.8311
929.9191, 597.2054
930.4012, 597.4928
930.8833, 597.4348
931.3654, 596.3376
931.8475, 594.8868
932.3297, 593.9297
932.8118, 593.5768
933.2939, 593.9850
933.7761, 596.1754
934.2582, 598.1348
934.7403, 598.6093
935.2224, 597.5644
935.7045, 596.0887
936.1866, 594.1246
936.6688, 592.9626
937.1509, 594.3161
937.6330, 596.4080
938.1151, 597.1158
938.5972, 596.6649
939.0793, 596.4496
939.5615, 597.7668
940.0436, 598.2468
940.5257, 596.8848
941.0078, 594.5660
941.4899, 593.9426
941.9720, 594.9350
942.4542, 595.1796
942.9363, 593.5039
943.4184, 592.0566
943.9005, 594.1937
944.3826, 597.6218
944.8647, 599.1036
945.3469, 596.4493
945.8290, 594.3867
946.3111, 592.9989
946.7932, 592.6642
947.2753, 594.3688
947.7574, 597.9471
948.2396, 599.0328
948.7217, 597.4719
949.2038, 596.1814
949.6859, 598.7088
950.1680, 601.5906
950.6501, 601.0460
951.1323, 597.1606
951.6144, 595.1750
952.0965, 596.7368
952.5786, 598.5180
953.0607, 599.7471
953.5428, 600.3486
954.0250, 599.7692
954.5071, 598.2174
954.9892, 596.9199
955.4713, 596.3065
955.9534, 596.1808
956.4355, 596.7040
956.9177, 597.5084
957.3998, 598.0535
957.8819, 597.9029
958.3640, 598.3818
958.8461, 600.0917
959.3282, 601.2811
959.8104, 599.0004
960.2925, 594.6501
960.7746, 593.4575
961.2567, 595.8359
961.7388, 598.6138
962.2209, 599.8239
962.7031, 600.6797
963.1852, 602.3570
963.6673, 604.7464
964.1494, 605.1667
964.6315, 602.9805
965.1136, 600.9505
965.5958, 600.0165
966.0779, 599.9863
966.5600, 600.6091
967.0421, 601.7964
967.5242, 603.3344
968.0063, 606.0680
968.4885, 607.8737
968.9706, 607.0889
969.4527, 605.4275
969.9348, 605.1026
970.4169, 606.5732
970.8990, 607.0187
971.3812, 606.1355
971.8633, 605.0359
972.3454, 604.9432
972.8275, 605.2881
973.3096, 605.3319
973.7917, 604.9923
974.2739, 604.2024
974.7560, 601.5368
975.2381, 600.0295
975.7202, 601.3392
976.2023, 604.7112
976.6844, 606.2258
977.1666, 605.9195
977.6487, 605.6976
978.1308, 606.8398
978.6129, 607.6185
979.0950, 605.1658
979.5771, 601.3932
980.0593, 599.4177
980.5414, 602.1344
981.0235, 603.5325
981.5056, 602.5524
981.9877, 601.3891
982.4698, 602.6497
982.9520, 605.8458
983.4341, 608.2327
983.9162, 609.6152
984.3983, 609.4344
984.8804, 605.6627
985.3625, 601.5162
985.8447, 599.3240
986.3268, 599.1931
986.8089, 599.4608
987.2910, 600.1911
987.7731, 601.2468
988.2552, 603.0001
988.7374, 604.5040
989.2195, 602.8508
989.7016, 599.3939
990.1837, 597.7634
990.6658, 600.1124
991.1479, 602.6022
991.6301, 604.1444
992.1122, 604.6973
992.5944, 604.0414
993.0765, 601.7780
993.5586, 600.6237
994.0407, 600.6932
994.5228, 601.1283
995.0049, 601.3303
995.4871, 601.4122
995.9692, 601.5355
996.4513, 601.6915
996.9334, 601.7731
997.4155, 601.0808
997.8976, 601.2377
998.3798, 603.1263
998.8619, 605.7401
999.3440, 606.5479
999.8261, 605.7192
1000.308, 604.8225
1000.790, 604.2090
1001.272, 603.8191
1001.755, 603.7457
1002.237, 603.7813
1002.719, 603.7217
1003.201, 603.5638
1003.683, 603.1384
1004.165, 602.2109
1004.647, 601.6129
1005.129, 602.2112
1005.612, 603.4916
1006.094, 603.7639
1006.576, 603.2716
1007.058, 603.1589
1007.540, 604.8135
1008.022, 606.0847
1008.504, 605.6953
1008.986, 604.5088
1009.468, 604.0466
1009.951, 604.4471
1010.433, 604.3346
1010.915, 603.3665
1011.397, 602.4363
1011.879, 602.5197
1012.361, 603.2393
1012.843, 604.3840
1013.325, 606.0551
1013.807, 606.7562
1014.290, 605.2745
1014.772, 604.2722
1015.254, 605.3241
1015.736, 607.6509
1016.218, 607.7137
1016.700, 605.9143
1017.182, 604.5715
1017.664, 604.9484
1018.147, 605.8156
1018.629, 606.8592
1019.111, 607.7100
1019.593, 607.7154
1020.075, 606.2917
1020.557, 606.0287
1021.039, 607.3842
1021.521, 608.5148
1022.003, 607.0331
1022.486, 604.3792
1022.968, 602.9991
1023.450, 603.0035
1023.932, 603.7885
1024.414, 606.2786
1024.896, 608.1365
1025.378, 608.4149
1025.860, 607.6623
1026.343, 607.3161
1026.825, 607.3765
1027.307, 607.9391
1027.789, 609.3032
1028.271, 610.2855
1028.753, 609.3746
1029.235, 607.7465
1029.717, 606.6434
1030.199, 606.1823
1030.682, 606.7004
1031.164, 608.7921
1031.646, 610.2032
1032.128, 608.7677
1032.610, 605.9100
1033.092, 605.4443
1033.574, 606.8685
1034.056, 608.3549
1034.539, 608.8885
1035.021, 609.5901
1035.503, 611.3680
1035.985, 613.1323
1036.467, 613.2874
1036.949, 611.7908
1037.431, 610.0411
1037.913, 608.0965
1038.396, 606.9830
1038.878, 608.3729
1039.360, 610.4755
1039.842, 611.5791
1040.324, 611.5277
1040.806, 611.7639
1041.288, 612.8469
1041.770, 613.0057
1042.252, 611.1973
1042.734, 608.7910
1043.217, 608.9496
1043.699, 610.7914
1044.181, 611.9379
1044.663, 611.3217
1045.145, 610.7809
1045.627, 611.5208
1046.109, 612.1834
1046.591, 611.3758
1047.074, 608.9598
1047.556, 609.2343
1048.038, 612.2122
1048.520, 614.8329
1049.002, 614.8797
1049.484, 613.8325
1049.966, 611.9881
1050.448, 610.1080
1050.931, 610.5009
1051.413, 615.3007
1051.895, 617.7086
1052.377, 616.2995
1052.859, 614.0074
1053.341, 614.7401
1053.823, 617.2274
1054.305, 618.3777
1054.787, 617.8288
1055.270, 618.0449
1055.752, 621.3429
1056.234, 624.3242
1056.716, 625.5588
1057.198, 625.3566
1057.680, 624.8089
1058.162, 623.9115
1058.644, 622.5214
1059.126, 620.2948
1059.609, 618.3074
1060.091, 617.2073
1060.573, 617.0715
1061.055, 618.3874
1061.537, 622.0422
1062.019, 623.3273
1062.501, 621.5840
1062.983, 619.9278
1063.466, 621.2991
1063.948, 623.6758
1064.430, 622.6129
1064.912, 619.2825
1065.394, 617.1807
1065.876, 619.1090
1066.358, 620.3849
1066.840, 619.6620
1067.323, 618.6155
1067.805, 619.5897
1068.287, 622.2401
1068.769, 624.1747
1069.251, 625.1960
1069.733, 625.5430
1070.215, 624.7991
1070.697, 623.9337
1071.179, 623.7227
1071.661, 623.9576
1072.144, 623.5228
1072.626, 622.1773
1073.108, 621.9645
1073.590, 623.7070
1074.072, 625.8835
1074.554, 626.7724
1075.036, 626.8279
1075.518, 626.5689
1076.001, 626.0090
1076.483, 625.5246
1076.965, 624.9893
1077.447, 624.9002
1077.929, 625.7498
1078.411, 627.0978
1078.893, 627.5586
1079.375, 627.3874
1079.858, 627.4412
1080.340, 628.7151
1080.822, 629.3257
1081.304, 627.6957
1081.786, 625.7739
1082.268, 625.5245
1082.750, 626.9883
1083.232, 627.4930
1083.714, 626.9864
1084.197, 626.3102
1084.679, 625.5782
1085.161, 625.3701
1085.643, 626.8973
1086.125, 629.3030
1086.607, 629.7753
1087.089, 627.5904
1087.571, 625.9362
1088.054, 625.3484
1088.536, 625.1524
1089.018, 624.6514
1089.500, 623.9775
1089.982, 623.3103
1090.464, 622.6627
1090.946, 621.9938
1091.428, 620.7612
1091.911, 620.4182
1092.393, 621.7643
1092.875, 623.9092
1093.357, 624.7272
1093.839, 624.5320
1094.321, 624.4213
1094.803, 624.9456
1095.285, 624.7809
1095.767, 622.5123
1096.250, 620.0459
1096.732, 618.5596
1097.214, 618.0477
1097.696, 618.3024
1098.178, 619.2932
1098.660, 620.3151
1099.142, 621.2878
1099.624, 621.8333
1100.106, 621.1959
1100.589, 620.1248
1101.071, 619.8670
1101.553, 620.8410
1102.035, 621.3499
1102.517, 621.3179
1102.999, 621.0603
1103.481, 620.5193
1103.963, 620.1157
1104.446, 620.3830
1104.928, 621.2869
1105.410, 622.6988
1105.892, 625.9979
1106.374, 627.1051
1106.856, 624.6768
1107.338, 621.4053
1107.820, 621.5599
1108.302, 623.5764
1108.785, 623.1182
1109.267, 619.7089
1109.749, 617.5458
1110.231, 619.9593
1110.713, 622.1826
1111.195, 622.3006
1111.677, 621.1341
1112.159, 620.8972
1112.641, 621.4826
1113.124, 622.3531
1113.606, 623.5931
1114.088, 624.1940
1114.570, 622.7676
1115.052, 621.0052
1115.534, 620.1234
1116.016, 620.1300
1116.498, 621.2512
1116.981, 623.5485
1117.463, 625.3446
1117.945, 625.9664
1118.427, 625.6723
1118.909, 623.7445
1119.391, 621.4729
1119.873, 620.8675
1120.355, 622.9221
1120.838, 624.0481
1121.320, 624.0357
1121.802, 623.9661
1122.284, 624.6788
1122.766, 625.7385
1123.248, 626.6316
1123.730, 627.3347
1124.212, 627.8037
1124.694, 628.2834
1125.177, 627.9533
1125.659, 626.1980
1126.141, 624.7510
1126.623, 626.2543
1127.105, 629.3263
1127.587, 630.0404
1128.069, 628.4964
1128.551, 627.0582
1129.033, 626.8079
1129.516, 626.7700
1129.998, 626.7596
1130.480, 626.6767
1130.962, 626.3468
1131.444, 625.7889
1131.926, 624.9684
1132.408, 623.8524
1132.890, 623.1512
1133.373, 623.3162
1133.855, 624.0839
1134.337, 625.8275
1134.819, 627.9420
1135.301, 627.9543
1135.783, 625.9579
1136.265, 624.4495
1136.747, 624.1337
1137.229, 624.2196
1137.712, 623.7522
1138.194, 623.5759
1138.676, 624.9196
1139.158, 627.7665
1139.640, 628.7580
1140.122, 627.6913
1140.604, 626.7343
1141.086, 626.6506
1141.569, 627.2737
1142.051, 629.3332
1142.533, 631.5455
1143.015, 631.9904
1143.497, 629.5818
1143.979, 628.2524
1144.461, 628.1693
1144.943, 628.5559
1145.426, 629.2882
1145.908, 629.9063
1146.390, 629.0993
1146.872, 627.6868
1147.354, 627.3849
1147.836, 630.2014
1148.318, 631.6622
1148.800, 631.1209
1149.282, 630.4867
1149.765, 632.2217
1150.247, 634.7346
1150.729, 633.6448
1151.211, 629.8539
1151.693, 627.3840
1152.175, 629.1566
1152.657, 630.5228
1153.139, 630.6745
1153.621, 630.2497
1154.104, 629.7616
1154.586, 629.3420
1155.068, 629.5695
1155.550, 630.4167
1156.032, 631.1633
1156.514, 631.6713
1156.996, 631.6826
1157.478, 630.7491
1157.961, 629.6771
1158.443, 630.2396
1158.925, 632.0618
1159.407, 633.0359
1159.889, 632.8538
1160.371, 632.2098
1160.853, 630.6874
1161.335, 629.7320
1161.818, 630.5153
1162.300, 629.6262
1162.782, 632.0798
1163.264, 630.3372
1163.746, 630.0295
1164.228, 632.0914
1164.710, 633.9517
1165.192, 633.2165
1165.674, 632.0274
1166.156, 631.9797
1166.639, 632.9227
1167.121, 633.9504
1167.603, 635.0617
1168.085, 635.9107
1168.567, 636.4633
1169.049, 636.5364
1169.531, 635.3240
1170.013, 633.9975
1170.496, 633.8668
1170.978, 634.9528
1171.460, 635.7933
1171.942, 636.3782
1172.424, 636.8888
1172.906, 637.4428
1173.388, 637.8683
1173.870, 637.8662
1174.353, 637.6864
1174.835, 637.6546
1175.317, 637.7996
1175.799, 638.2244
1176.281, 639.0633
1176.763, 639.1276
1177.245, 636.7733
1177.727, 634.3681
1178.209, 635.2426
1178.692, 634.5668
1179.174, 635.0749
1179.656, 637.0703
1180.138, 637.5963
1180.620, 641.0211
1181.102, 643.6832
1181.584, 641.5451
1182.066, 638.2023
1182.548, 638.7756
1183.031, 641.6791
1183.513, 643.0795
1183.995, 641.5930
1184.477, 640.4120
1184.959, 639.6691
1185.441, 639.2059
1185.923, 638.7949
1186.405, 638.6465
1186.888, 639.5090
1187.370, 640.9402
1187.852, 641.2991
1188.334, 639.6980
1188.816, 638.1974
1189.298, 636.8623
1189.780, 636.0567
1190.262, 636.3828
1190.745, 637.3533
1191.227, 638.6010
1191.709, 639.8971
1192.191, 640.1844
1192.673, 638.1475
1193.155, 637.4420
1193.637, 638.9558
1194.119, 640.8295
1194.601, 640.5215
1195.084, 639.2687
1195.566, 639.0135
1196.048, 639.8538
1196.530, 641.0428
1197.012, 643.0482
1197.494, 644.0411
1197.976, 643.3662
1198.458, 642.2916
1198.941, 642.8013
1199.423, 644.0560
1199.905, 644.4997
1200.387, 643.9955
1200.869, 644.0020
1201.351, 645.6451
1201.833, 645.9505
1202.315, 643.7028
1202.797, 640.8026
1203.280, 640.4237
1203.762, 641.5311
1204.244, 642.2948
1204.726, 642.4099
1205.208, 643.0873
1205.690, 645.1597
1206.172, 646.4835
1206.654, 646.1933
1207.136, 645.2634
1207.619, 645.2525
1208.101, 645.8799
1208.583, 646.9314
1209.065, 648.5705
1209.547, 648.7777
1210.029, 646.5723
1210.511, 644.5189
1210.993, 643.3853
1211.476, 643.0927
1211.958, 643.7715
1212.440, 645.0521
1212.922, 646.4023
1213.404, 647.8864
1213.886, 648.4983
1214.368, 648.0771
1214.850, 647.0075
1215.333, 645.0502
1215.815, 643.1487
1216.297, 643.5701
1216.779, 645.1236
1217.261, 645.4013
1217.743, 643.1631
1218.225, 642.9242
1218.707, 645.9852
1219.189, 648.3770
1219.672, 647.9006
1220.154, 646.1229
1220.636, 645.7532
1221.118, 646.2513
1221.600, 646.6889
1222.082, 646.8596
1222.564, 646.8600
1223.046, 646.5377
1223.528, 646.5339
1224.011, 647.4075
1224.493, 648.5228
1224.975, 648.5651
1225.457, 648.1427
1225.939, 648.3192
1226.421, 649.4941
1226.903, 651.0690
1227.385, 653.3145
1227.868, 654.9726
1228.350, 655.3535
1228.832, 654.7237
1229.314, 652.7172
1229.796, 650.2569
1230.278, 649.0260
1230.760, 649.9770
1231.242, 650.1783
1231.724, 649.3475
1232.207, 649.1490
1232.689, 651.4796
1233.171, 654.0094
1233.653, 653.4346
1234.135, 651.0710
1234.617, 649.0853
1235.099, 647.7916
1235.581, 646.6653
1236.063, 645.6304
1236.546, 645.4384
1237.028, 647.5463
1237.510, 649.7087
1237.992, 649.2529
1238.474, 647.3487
1238.956, 645.7828
1239.438, 644.3636
1239.920, 644.8486
1240.403, 647.3740
1240.885, 649.7559
1241.367, 650.4813
1241.849, 650.5436
1242.331, 650.4340
1242.813, 650.3619
1243.295, 650.6525
1243.777, 651.3638
1244.260, 652.2252
1244.742, 653.2438
1245.224, 653.6913
1245.706, 652.5637
1246.188, 651.3249
1246.670, 651.2881
1247.152, 651.5438
1247.634, 650.5956
1248.116, 648.2233
1248.599, 648.1210
1249.081, 650.1628
1249.563, 652.1487
1250.045, 652.8785
1250.527, 653.0540
1251.009, 652.6830
1251.491, 652.1906
1251.973, 652.1122
1252.455, 652.4055
1252.938, 651.7358
1253.420, 650.3104
1253.902, 649.8407
1254.384, 652.2228
1254.866, 654.5134
1255.348, 655.7835
1255.830, 656.3892
1256.313, 656.5535
1256.795, 656.2871
1257.277, 655.3412
1257.759, 653.9168
1258.241, 653.0100
1258.723, 652.9960
1259.205, 653.7764
1259.687, 655.8070
1260.169, 657.7651
1260.651, 658.2895
1261.134, 657.8408
1261.616, 657.7767
1262.098, 658.0585
1262.580, 658.5009
1263.062, 659.3527
1263.544, 659.8164
1264.026, 659.7165
1264.508, 659.4895
1264.991, 659.4485
1265.473, 659.5658
1265.955, 660.0693
1266.437, 660.6703
1266.919, 660.6044
1267.401, 659.4883
1267.883, 657.8193
1268.365, 655.3056
1268.848, 653.4155
1269.330, 653.7782
1269.812, 655.0436
1270.294, 655.3748
1270.776, 655.2842
1271.258, 656.0211
1271.740, 658.1801
1272.222, 659.3779
1272.704, 659.4690
1273.187, 659.5170
1273.669, 660.5008
1274.151, 661.5090
1274.633, 661.8897
1275.115, 661.6623
1275.597, 660.7479
1276.079, 658.8996
1276.561, 658.4961
1277.043, 659.5064
1277.526, 660.4283
1278.008, 660.1471
1278.490, 659.7535
1278.972, 660.0199
1279.454, 660.4130
1279.936, 660.3922
1280.418, 659.9697
1280.900, 659.2152
1281.383, 658.2429
1281.865, 657.7978
1282.347, 659.0690
1282.829, 659.7143
1283.311, 658.4391
1283.793, 656.8528
1284.275, 655.8952
1284.757, 655.6487
1285.240, 656.7925
1285.722, 658.9914
1286.204, 661.1661
1286.686, 663.6033
1287.168, 664.5805
1287.650, 663.4541
1288.132, 662.1588
1288.614, 662.2320
1289.096, 662.9017
1289.578, 662.1427
1290.061, 660.8451
1290.543, 660.8621
1291.025, 663.1208
1291.507, 665.9652
1291.989, 669.7863
1292.471, 672.2770
1292.953, 671.6501
1293.435, 669.5948
1293.918, 667.4437
1294.400, 665.5052
1294.882, 664.2234
1295.364, 663.5735
1295.846, 663.8676
1296.328, 665.1486
1296.810, 665.7029
1297.292, 663.9756
1297.775, 662.4930
1298.257, 664.1533
1298.739, 666.3235
1299.221, 666.3796
1299.703, 664.5814
1300.185, 663.7014
1300.667, 663.5872
1301.149, 663.2016
1301.631, 661.8515
1302.114, 660.7501
1302.596, 661.0467
##END=



