##NAMES=Opal
##RRUFFID=R060651
##IDEAL CHEMISTRY=SiO_2_&#183;<i>n</i>H_2_O
##LOCALITY=Mexico
##OWNER=RRUFF
##SOURCE=Gemological Institute of America
##DESCRIPTION=Orange-brown glassy fragment, variety is opal-CT, based on its X-ray diffraction pattern
##STATUS=The identification of this mineral has been confirmed by X-ray diffraction and chemical analysis
##URL=rruff.info/R060651
##MEASURED CHEMISTRY=Si_1.00_O_2_ Â· 0.31H_2_O
9.059570e+001, 7.935355e+002
9.107782e+001, 7.798152e+002
9.155994e+001, 7.749752e+002
9.204205e+001, 7.858957e+002
9.252417e+001, 8.010117e+002
9.300629e+001, 8.163635e+002
9.348840e+001, 8.264035e+002
9.397052e+001, 8.261699e+002
9.445264e+001, 8.143582e+002
9.493475e+001, 8.012628e+002
9.541687e+001, 7.891368e+002
9.589898e+001, 7.792170e+002
9.638110e+001, 7.703372e+002
9.686321e+001, 7.612862e+002
9.734533e+001, 7.510046e+002
9.782745e+001, 7.386723e+002
9.830956e+001, 7.285523e+002
9.879168e+001, 7.214873e+002
9.927380e+001, 7.151330e+002
9.975591e+001, 7.088219e+002
1.002380e+002, 7.025427e+002
1.007201e+002, 6.965945e+002
1.012023e+002, 6.912502e+002
1.016844e+002, 6.862726e+002
1.021665e+002, 6.808361e+002
1.026486e+002, 6.741633e+002
1.031307e+002, 6.674081e+002
1.036128e+002, 6.615201e+002
1.040950e+002, 6.564034e+002
1.045771e+002, 6.521971e+002
1.050592e+002, 6.491932e+002
1.055413e+002, 6.469000e+002
1.060234e+002, 6.447424e+002
1.065055e+002, 6.423402e+002
1.069877e+002, 6.398126e+002
1.074698e+002, 6.378265e+002
1.079519e+002, 6.373748e+002
1.084340e+002, 6.360988e+002
1.089161e+002, 6.330710e+002
1.093982e+002, 6.284854e+002
1.098804e+002, 6.229070e+002
1.103625e+002, 6.164614e+002
1.108446e+002, 6.087253e+002
1.113267e+002, 6.024814e+002
1.118088e+002, 5.982493e+002
1.122909e+002, 5.948897e+002
1.127731e+002, 5.921132e+002
1.132552e+002, 5.897771e+002
1.137373e+002, 5.876937e+002
1.142194e+002, 5.856286e+002
1.147015e+002, 5.835477e+002
1.151836e+002, 5.815120e+002
1.156658e+002, 5.797067e+002
1.161479e+002, 5.778557e+002
1.166300e+002, 5.757106e+002
1.171121e+002, 5.731782e+002
1.175942e+002, 5.702903e+002
1.180763e+002, 5.669841e+002
1.185584e+002, 5.627466e+002
1.190406e+002, 5.591614e+002
1.195227e+002, 5.573122e+002
1.200048e+002, 5.565751e+002
1.204869e+002, 5.551221e+002
1.209690e+002, 5.518056e+002
1.214511e+002, 5.475280e+002
1.219333e+002, 5.441794e+002
1.224154e+002, 5.419429e+002
1.228975e+002, 5.403012e+002
1.233796e+002, 5.389961e+002
1.238617e+002, 5.380687e+002
1.243438e+002, 5.370699e+002
1.248260e+002, 5.360422e+002
1.253081e+002, 5.347374e+002
1.257902e+002, 5.327816e+002
1.262723e+002, 5.299121e+002
1.267544e+002, 5.265056e+002
1.272365e+002, 5.233879e+002
1.277187e+002, 5.204550e+002
1.282008e+002, 5.180524e+002
1.286829e+002, 5.163663e+002
1.291650e+002, 5.151425e+002
1.296471e+002, 5.140993e+002
1.301292e+002, 5.131064e+002
1.306114e+002, 5.121434e+002
1.310935e+002, 5.108758e+002
1.315756e+002, 5.089857e+002
1.320577e+002, 5.070748e+002
1.325398e+002, 5.053882e+002
1.330219e+002, 5.038212e+002
1.335041e+002, 5.020669e+002
1.339862e+002, 4.997832e+002
1.344683e+002, 4.967759e+002
1.349504e+002, 4.945756e+002
1.354325e+002, 4.935687e+002
1.359146e+002, 4.928790e+002
1.363968e+002, 4.920305e+002
1.368789e+002, 4.909706e+002
1.373610e+002, 4.899306e+002
1.378431e+002, 4.892470e+002
1.383252e+002, 4.890435e+002
1.388073e+002, 4.884624e+002
1.392895e+002, 4.870775e+002
1.397716e+002, 4.854348e+002
1.402537e+002, 4.842170e+002
1.407358e+002, 4.836342e+002
1.412179e+002, 4.832589e+002
1.417000e+002, 4.826286e+002
1.421821e+002, 4.817841e+002
1.426643e+002, 4.806654e+002
1.431464e+002, 4.790898e+002
1.436285e+002, 4.771827e+002
1.441106e+002, 4.753771e+002
1.445927e+002, 4.737440e+002
1.450748e+002, 4.722923e+002
1.455570e+002, 4.709513e+002
1.460391e+002, 4.697256e+002
1.465212e+002, 4.687014e+002
1.470033e+002, 4.679889e+002
1.474854e+002, 4.676098e+002
1.479675e+002, 4.673217e+002
1.484497e+002, 4.676978e+002
1.489318e+002, 4.677411e+002
1.494139e+002, 4.666004e+002
1.498960e+002, 4.641646e+002
1.503781e+002, 4.613545e+002
1.508602e+002, 4.596154e+002
1.513424e+002, 4.595179e+002
1.518245e+002, 4.592655e+002
1.523066e+002, 4.586250e+002
1.527887e+002, 4.578250e+002
1.532708e+002, 4.569914e+002
1.537529e+002, 4.561840e+002
1.542351e+002, 4.554419e+002
1.547172e+002, 4.548736e+002
1.551993e+002, 4.548442e+002
1.556814e+002, 4.545494e+002
1.561635e+002, 4.537701e+002
1.566456e+002, 4.527616e+002
1.571278e+002, 4.518846e+002
1.576099e+002, 4.513353e+002
1.580920e+002, 4.509594e+002
1.585741e+002, 4.500735e+002
1.590562e+002, 4.480404e+002
1.595383e+002, 4.462791e+002
1.600205e+002, 4.452433e+002
1.605026e+002, 4.447469e+002
1.609847e+002, 4.443360e+002
1.614668e+002, 4.437271e+002
1.619489e+002, 4.430370e+002
1.624310e+002, 4.427465e+002
1.629131e+002, 4.432255e+002
1.633953e+002, 4.437173e+002
1.638774e+002, 4.438646e+002
1.643595e+002, 4.436726e+002
1.648416e+002, 4.431502e+002
1.653237e+002, 4.421070e+002
1.658058e+002, 4.407657e+002
1.662880e+002, 4.396519e+002
1.667701e+002, 4.388898e+002
1.672522e+002, 4.383172e+002
1.677343e+002, 4.378091e+002
1.682164e+002, 4.373970e+002
1.686985e+002, 4.369036e+002
1.691807e+002, 4.360413e+002
1.696628e+002, 4.350782e+002
1.701449e+002, 4.343672e+002
1.706270e+002, 4.341368e+002
1.711091e+002, 4.341861e+002
1.715912e+002, 4.340729e+002
1.720734e+002, 4.337989e+002
1.725555e+002, 4.333323e+002
1.730376e+002, 4.325280e+002
1.735197e+002, 4.315832e+002
1.740018e+002, 4.307901e+002
1.744839e+002, 4.303697e+002
1.749661e+002, 4.302399e+002
1.754482e+002, 4.298854e+002
1.759303e+002, 4.289381e+002
1.764124e+002, 4.281849e+002
1.768945e+002, 4.278893e+002
1.773766e+002, 4.279302e+002
1.778588e+002, 4.281086e+002
1.783409e+002, 4.283145e+002
1.788230e+002, 4.285501e+002
1.793051e+002, 4.285069e+002
1.797872e+002, 4.278223e+002
1.802693e+002, 4.272142e+002
1.807515e+002, 4.269550e+002
1.812336e+002, 4.269649e+002
1.817157e+002, 4.270099e+002
1.821978e+002, 4.269001e+002
1.826799e+002, 4.266274e+002
1.831620e+002, 4.262222e+002
1.836441e+002, 4.255616e+002
1.841263e+002, 4.249042e+002
1.846084e+002, 4.244218e+002
1.850905e+002, 4.240897e+002
1.855726e+002, 4.237017e+002
1.860547e+002, 4.229976e+002
1.865368e+002, 4.219001e+002
1.870190e+002, 4.214350e+002
1.875011e+002, 4.220921e+002
1.879832e+002, 4.230092e+002
1.884653e+002, 4.235901e+002
1.889474e+002, 4.237665e+002
1.894296e+002, 4.237677e+002
1.899117e+002, 4.238001e+002
1.903938e+002, 4.238583e+002
1.908759e+002, 4.238115e+002
1.913580e+002, 4.236970e+002
1.918401e+002, 4.234483e+002
1.923223e+002, 4.228664e+002
1.928044e+002, 4.218470e+002
1.932865e+002, 4.209233e+002
1.937686e+002, 4.208402e+002
1.942507e+002, 4.213350e+002
1.947328e+002, 4.216193e+002
1.952150e+002, 4.211873e+002
1.956971e+002, 4.204240e+002
1.961792e+002, 4.201832e+002
1.966613e+002, 4.207881e+002
1.971434e+002, 4.213439e+002
1.976255e+002, 4.209822e+002
1.981077e+002, 4.200225e+002
1.985898e+002, 4.192918e+002
1.990719e+002, 4.193627e+002
1.995540e+002, 4.200474e+002
2.000361e+002, 4.205191e+002
2.005182e+002, 4.205776e+002
2.010004e+002, 4.206777e+002
2.014825e+002, 4.211395e+002
2.019646e+002, 4.218392e+002
2.024467e+002, 4.224591e+002
2.029288e+002, 4.227053e+002
2.034109e+002, 4.226120e+002
2.038930e+002, 4.227594e+002
2.043752e+002, 4.234996e+002
2.048573e+002, 4.241227e+002
2.053394e+002, 4.243580e+002
2.058215e+002, 4.242605e+002
2.063036e+002, 4.239832e+002
2.067857e+002, 4.235684e+002
2.072679e+002, 4.229902e+002
2.077500e+002, 4.227978e+002
2.082321e+002, 4.234738e+002
2.087142e+002, 4.241158e+002
2.091963e+002, 4.244015e+002
2.096784e+002, 4.243947e+002
2.101606e+002, 4.243429e+002
2.106427e+002, 4.244678e+002
2.111248e+002, 4.247921e+002
2.116069e+002, 4.250764e+002
2.120890e+002, 4.253234e+002
2.125711e+002, 4.255311e+002
2.130533e+002, 4.257037e+002
2.135354e+002, 4.258369e+002
2.140175e+002, 4.259019e+002
2.144996e+002, 4.258417e+002
2.149817e+002, 4.255933e+002
2.154638e+002, 4.257069e+002
2.159460e+002, 4.264360e+002
2.164281e+002, 4.272167e+002
2.169102e+002, 4.277483e+002
2.173923e+002, 4.280501e+002
2.178744e+002, 4.283532e+002
2.183565e+002, 4.288794e+002
2.188387e+002, 4.296685e+002
2.193208e+002, 4.303123e+002
2.198029e+002, 4.309928e+002
2.202850e+002, 4.314099e+002
2.207671e+002, 4.310621e+002
2.212492e+002, 4.300782e+002
2.217314e+002, 4.294112e+002
2.222135e+002, 4.300003e+002
2.226956e+002, 4.319477e+002
2.231777e+002, 4.333436e+002
2.236598e+002, 4.337653e+002
2.241419e+002, 4.339559e+002
2.246240e+002, 4.345987e+002
2.251062e+002, 4.356977e+002
2.255883e+002, 4.365235e+002
2.260704e+002, 4.362861e+002
2.265525e+002, 4.351475e+002
2.270346e+002, 4.345385e+002
2.275167e+002, 4.347658e+002
2.279989e+002, 4.354230e+002
2.284810e+002, 4.361996e+002
2.289631e+002, 4.370816e+002
2.294452e+002, 4.380546e+002
2.299273e+002, 4.392935e+002
2.304094e+002, 4.406040e+002
2.308916e+002, 4.414482e+002
2.313737e+002, 4.412793e+002
2.318558e+002, 4.408532e+002
2.323379e+002, 4.410878e+002
2.328200e+002, 4.420685e+002
2.333021e+002, 4.431057e+002
2.337843e+002, 4.436960e+002
2.342664e+002, 4.440733e+002
2.347485e+002, 4.446057e+002
2.352306e+002, 4.455144e+002
2.357127e+002, 4.465065e+002
2.361948e+002, 4.471506e+002
2.366770e+002, 4.473712e+002
2.371591e+002, 4.475699e+002
2.376412e+002, 4.478621e+002
2.381233e+002, 4.482788e+002
2.386054e+002, 4.489243e+002
2.390875e+002, 4.499406e+002
2.395697e+002, 4.510410e+002
2.400518e+002, 4.517206e+002
2.405339e+002, 4.518531e+002
2.410160e+002, 4.519748e+002
2.414981e+002, 4.519266e+002
2.419802e+002, 4.521174e+002
2.424624e+002, 4.531414e+002
2.429445e+002, 4.553607e+002
2.434266e+002, 4.579781e+002
2.439087e+002, 4.595220e+002
2.443908e+002, 4.595312e+002
2.448729e+002, 4.597051e+002
2.453550e+002, 4.607317e+002
2.458372e+002, 4.619939e+002
2.463193e+002, 4.629483e+002
2.468014e+002, 4.634021e+002
2.472835e+002, 4.636150e+002
2.477656e+002, 4.640666e+002
2.482477e+002, 4.649116e+002
2.487299e+002, 4.656162e+002
2.492120e+002, 4.659610e+002
2.496941e+002, 4.662196e+002
2.501762e+002, 4.665371e+002
2.506583e+002, 4.669696e+002
2.511404e+002, 4.675949e+002
2.516226e+002, 4.686407e+002
2.521047e+002, 4.704834e+002
2.525868e+002, 4.718659e+002
2.530689e+002, 4.724529e+002
2.535510e+002, 4.727717e+002
2.540331e+002, 4.731592e+002
2.545153e+002, 4.737128e+002
2.549974e+002, 4.743630e+002
2.554795e+002, 4.749919e+002
2.559616e+002, 4.754981e+002
2.564437e+002, 4.762210e+002
2.569258e+002, 4.772567e+002
2.574080e+002, 4.784010e+002
2.578901e+002, 4.795792e+002
2.583722e+002, 4.807497e+002
2.588543e+002, 4.818531e+002
2.593364e+002, 4.827606e+002
2.598185e+002, 4.832203e+002
2.603007e+002, 4.841550e+002
2.607828e+002, 4.857138e+002
2.612649e+002, 4.875290e+002
2.617470e+002, 4.895605e+002
2.622291e+002, 4.917034e+002
2.627112e+002, 4.936299e+002
2.631934e+002, 4.949342e+002
2.636755e+002, 4.953813e+002
2.641576e+002, 4.960365e+002
2.646397e+002, 4.969108e+002
2.651218e+002, 4.979312e+002
2.656039e+002, 4.990803e+002
2.660861e+002, 5.003387e+002
2.665682e+002, 5.016729e+002
2.670503e+002, 5.030461e+002
2.675324e+002, 5.044423e+002
2.680145e+002, 5.059825e+002
2.684966e+002, 5.078195e+002
2.689788e+002, 5.096313e+002
2.694609e+002, 5.113247e+002
2.699430e+002, 5.128599e+002
2.704251e+002, 5.141390e+002
2.709072e+002, 5.150212e+002
2.713893e+002, 5.154718e+002
2.718715e+002, 5.164401e+002
2.723536e+002, 5.181339e+002
2.728357e+002, 5.200140e+002
2.733178e+002, 5.220181e+002
2.737999e+002, 5.240388e+002
2.742820e+002, 5.258069e+002
2.747642e+002, 5.270845e+002
2.752463e+002, 5.279422e+002
2.757284e+002, 5.292477e+002
2.762105e+002, 5.311296e+002
2.766926e+002, 5.331967e+002
2.771747e+002, 5.355702e+002
2.776568e+002, 5.380446e+002
2.781389e+002, 5.401234e+002
2.786211e+002, 5.414793e+002
2.791032e+002, 5.423210e+002
2.795853e+002, 5.435696e+002
2.800674e+002, 5.453967e+002
2.805495e+002, 5.473380e+002
2.810316e+002, 5.494337e+002
2.815138e+002, 5.515512e+002
2.819959e+002, 5.533755e+002
2.824780e+002, 5.547140e+002
2.829601e+002, 5.558685e+002
2.834422e+002, 5.576469e+002
2.839243e+002, 5.604857e+002
2.844065e+002, 5.630432e+002
2.848886e+002, 5.648102e+002
2.853707e+002, 5.661971e+002
2.858528e+002, 5.678688e+002
2.863349e+002, 5.700794e+002
2.868170e+002, 5.724190e+002
2.872992e+002, 5.741094e+002
2.877813e+002, 5.748284e+002
2.882634e+002, 5.760189e+002
2.887455e+002, 5.784025e+002
2.892276e+002, 5.811686e+002
2.897097e+002, 5.831540e+002
2.901919e+002, 5.840651e+002
2.906740e+002, 5.848481e+002
2.911561e+002, 5.868471e+002
2.916382e+002, 5.902897e+002
2.921203e+002, 5.930707e+002
2.926024e+002, 5.945156e+002
2.930846e+002, 5.954715e+002
2.935667e+002, 5.967287e+002
2.940488e+002, 5.983956e+002
2.945309e+002, 6.001906e+002
2.950130e+002, 6.018797e+002
2.954951e+002, 6.034573e+002
2.959773e+002, 6.050179e+002
2.964594e+002, 6.065850e+002
2.969415e+002, 6.081178e+002
2.974236e+002, 6.096318e+002
2.979057e+002, 6.111051e+002
2.983878e+002, 6.123939e+002
2.988700e+002, 6.132963e+002
2.993521e+002, 6.139101e+002
2.998342e+002, 6.148692e+002
3.003163e+002, 6.165803e+002
3.007984e+002, 6.182491e+002
3.012805e+002, 6.193980e+002
3.017627e+002, 6.200950e+002
3.022448e+002, 6.206621e+002
3.027269e+002, 6.211920e+002
3.032090e+002, 6.217713e+002
3.036911e+002, 6.226591e+002
3.041732e+002, 6.241316e+002
3.046554e+002, 6.254522e+002
3.051375e+002, 6.263499e+002
3.056196e+002, 6.268553e+002
3.061017e+002, 6.269534e+002
3.065838e+002, 6.265144e+002
3.070659e+002, 6.259022e+002
3.075481e+002, 6.258875e+002
3.080302e+002, 6.265981e+002
3.085123e+002, 6.272433e+002
3.089944e+002, 6.274405e+002
3.094765e+002, 6.274340e+002
3.099586e+002, 6.277081e+002
3.104408e+002, 6.284406e+002
3.109229e+002, 6.292207e+002
3.114050e+002, 6.293477e+002
3.118871e+002, 6.287809e+002
3.123692e+002, 6.286144e+002
3.128513e+002, 6.296363e+002
3.133335e+002, 6.309010e+002
3.138156e+002, 6.310160e+002
3.142977e+002, 6.297310e+002
3.147798e+002, 6.285341e+002
3.152619e+002, 6.290370e+002
3.157440e+002, 6.311077e+002
3.162262e+002, 6.324447e+002
3.167083e+002, 6.323122e+002
3.171904e+002, 6.317672e+002
3.176725e+002, 6.316916e+002
3.181546e+002, 6.320878e+002
3.186367e+002, 6.324746e+002
3.191188e+002, 6.325856e+002
3.196010e+002, 6.324005e+002
3.200831e+002, 6.319889e+002
3.205652e+002, 6.309012e+002
3.210473e+002, 6.300357e+002
3.215294e+002, 6.302322e+002
3.220115e+002, 6.311523e+002
3.224937e+002, 6.315333e+002
3.229758e+002, 6.306593e+002
3.234579e+002, 6.290380e+002
3.239400e+002, 6.279863e+002
3.244221e+002, 6.276471e+002
3.249042e+002, 6.274313e+002
3.253864e+002, 6.271936e+002
3.258685e+002, 6.269309e+002
3.263506e+002, 6.265867e+002
3.268327e+002, 6.261078e+002
3.273148e+002, 6.256832e+002
3.277969e+002, 6.257559e+002
3.282791e+002, 6.264996e+002
3.287612e+002, 6.267076e+002
3.292433e+002, 6.258762e+002
3.297254e+002, 6.245247e+002
3.302075e+002, 6.231007e+002
3.306896e+002, 6.216815e+002
3.311718e+002, 6.205367e+002
3.316539e+002, 6.199650e+002
3.321360e+002, 6.200270e+002
3.326181e+002, 6.202341e+002
3.331002e+002, 6.211067e+002
3.335823e+002, 6.217137e+002
3.340645e+002, 6.210849e+002
3.345466e+002, 6.193600e+002
3.350287e+002, 6.177255e+002
3.355108e+002, 6.170300e+002
3.359929e+002, 6.171514e+002
3.364750e+002, 6.170709e+002
3.369572e+002, 6.165303e+002
3.374393e+002, 6.160749e+002
3.379214e+002, 6.161711e+002
3.384035e+002, 6.165332e+002
3.388856e+002, 6.164222e+002
3.393677e+002, 6.154358e+002
3.398499e+002, 6.139114e+002
3.403320e+002, 6.127963e+002
3.408141e+002, 6.125297e+002
3.412962e+002, 6.118248e+002
3.417783e+002, 6.098574e+002
3.422604e+002, 6.075231e+002
3.427426e+002, 6.061441e+002
3.432247e+002, 6.061049e+002
3.437068e+002, 6.065062e+002
3.441889e+002, 6.060995e+002
3.446710e+002, 6.045193e+002
3.451531e+002, 6.031044e+002
3.456353e+002, 6.018168e+002
3.461174e+002, 6.007413e+002
3.465995e+002, 6.002229e+002
3.470816e+002, 6.001489e+002
3.475637e+002, 5.996893e+002
3.480458e+002, 5.979695e+002
3.485280e+002, 5.948854e+002
3.490101e+002, 5.928488e+002
3.494922e+002, 5.927255e+002
3.499743e+002, 5.925922e+002
3.504564e+002, 5.915553e+002
3.509385e+002, 5.898679e+002
3.514207e+002, 5.882426e+002
3.519028e+002, 5.871250e+002
3.523849e+002, 5.863370e+002
3.528670e+002, 5.850856e+002
3.533491e+002, 5.828232e+002
3.538312e+002, 5.807850e+002
3.543134e+002, 5.791326e+002
3.547955e+002, 5.777798e+002
3.552776e+002, 5.767692e+002
3.557597e+002, 5.760934e+002
3.562418e+002, 5.753671e+002
3.567239e+002, 5.738808e+002
3.572061e+002, 5.709821e+002
3.576882e+002, 5.686454e+002
3.581703e+002, 5.673054e+002
3.586524e+002, 5.661400e+002
3.591345e+002, 5.645536e+002
3.596166e+002, 5.625247e+002
3.600987e+002, 5.604570e+002
3.605808e+002, 5.587367e+002
3.610630e+002, 5.573969e+002
3.615451e+002, 5.560722e+002
3.620272e+002, 5.553868e+002
3.625093e+002, 5.540793e+002
3.629914e+002, 5.511595e+002
3.634735e+002, 5.473366e+002
3.639557e+002, 5.440145e+002
3.644378e+002, 5.420662e+002
3.649199e+002, 5.411791e+002
3.654020e+002, 5.400233e+002
3.658841e+002, 5.383518e+002
3.663662e+002, 5.367415e+002
3.668484e+002, 5.354454e+002
3.673305e+002, 5.341566e+002
3.678126e+002, 5.325980e+002
3.682947e+002, 5.306821e+002
3.687768e+002, 5.284604e+002
3.692589e+002, 5.259333e+002
3.697411e+002, 5.229081e+002
3.702232e+002, 5.201185e+002
3.707053e+002, 5.176324e+002
3.711874e+002, 5.153246e+002
3.716695e+002, 5.131682e+002
3.721516e+002, 5.111348e+002
3.726338e+002, 5.091201e+002
3.731159e+002, 5.070532e+002
3.735980e+002, 5.049374e+002
3.740801e+002, 5.027599e+002
3.745622e+002, 5.003218e+002
3.750443e+002, 4.980742e+002
3.755265e+002, 4.964252e+002
3.760086e+002, 4.949912e+002
3.764907e+002, 4.931660e+002
3.769728e+002, 4.905843e+002
3.774549e+002, 4.875856e+002
3.779370e+002, 4.848787e+002
3.784192e+002, 4.824731e+002
3.789013e+002, 4.803461e+002
3.793834e+002, 4.787051e+002
3.798655e+002, 4.772064e+002
3.803476e+002, 4.756346e+002
3.808297e+002, 4.739445e+002
3.813119e+002, 4.721059e+002
3.817940e+002, 4.700017e+002
3.822761e+002, 4.676380e+002
3.827582e+002, 4.655058e+002
3.832403e+002, 4.638916e+002
3.837224e+002, 4.622569e+002
3.842046e+002, 4.601733e+002
3.846867e+002, 4.577553e+002
3.851688e+002, 4.553652e+002
3.856509e+002, 4.531129e+002
3.861330e+002, 4.510588e+002
3.866151e+002, 4.493997e+002
3.870973e+002, 4.482444e+002
3.875794e+002, 4.471046e+002
3.880615e+002, 4.457331e+002
3.885436e+002, 4.441817e+002
3.890257e+002, 4.424674e+002
3.895078e+002, 4.404697e+002
3.899900e+002, 4.385285e+002
3.904721e+002, 4.370641e+002
3.909542e+002, 4.359942e+002
3.914363e+002, 4.347419e+002
3.919184e+002, 4.331525e+002
3.924005e+002, 4.312413e+002
3.928827e+002, 4.287855e+002
3.933648e+002, 4.256717e+002
3.938469e+002, 4.233146e+002
3.943290e+002, 4.230228e+002
3.948111e+002, 4.235970e+002
3.952932e+002, 4.230323e+002
3.957754e+002, 4.209669e+002
3.962575e+002, 4.185605e+002
3.967396e+002, 4.167333e+002
3.972217e+002, 4.154790e+002
3.977038e+002, 4.143488e+002
3.981859e+002, 4.135475e+002
3.986681e+002, 4.126594e+002
3.991501e+002, 4.112877e+002
3.996323e+002, 4.095638e+002
4.001144e+002, 4.079693e+002
4.005965e+002, 4.067491e+002
4.010786e+002, 4.058061e+002
4.015607e+002, 4.049129e+002
4.020428e+002, 4.042617e+002
4.025250e+002, 4.033190e+002
4.030071e+002, 4.016630e+002
4.034892e+002, 3.998131e+002
4.039713e+002, 3.984657e+002
4.044534e+002, 3.977559e+002
4.049355e+002, 3.971557e+002
4.054177e+002, 3.960296e+002
4.058998e+002, 3.942432e+002
4.063819e+002, 3.926105e+002
4.068640e+002, 3.912545e+002
4.073461e+002, 3.899224e+002
4.078282e+002, 3.883539e+002
4.083104e+002, 3.866960e+002
4.087925e+002, 3.853229e+002
4.092746e+002, 3.844682e+002
4.097567e+002, 3.840469e+002
4.102388e+002, 3.836572e+002
4.107209e+002, 3.836265e+002
4.112031e+002, 3.831759e+002
4.116852e+002, 3.821818e+002
4.121673e+002, 3.807845e+002
4.126494e+002, 3.789418e+002
4.131315e+002, 3.767167e+002
4.136136e+002, 3.745266e+002
4.140958e+002, 3.729735e+002
4.145779e+002, 3.722252e+002
4.150600e+002, 3.714165e+002
4.155421e+002, 3.705929e+002
4.160242e+002, 3.696671e+002
4.165063e+002, 3.683484e+002
4.169885e+002, 3.668865e+002
4.174706e+002, 3.659529e+002
4.179527e+002, 3.661985e+002
4.184348e+002, 3.670714e+002
4.189169e+002, 3.665308e+002
4.193990e+002, 3.638786e+002
4.198812e+002, 3.613578e+002
4.203633e+002, 3.596730e+002
4.208454e+002, 3.584242e+002
4.213275e+002, 3.574380e+002
4.218096e+002, 3.566939e+002
4.222917e+002, 3.556932e+002
4.227739e+002, 3.535900e+002
4.232560e+002, 3.504730e+002
4.237381e+002, 3.482104e+002
4.242202e+002, 3.475297e+002
4.247023e+002, 3.471586e+002
4.251844e+002, 3.461792e+002
4.256666e+002, 3.446848e+002
4.261487e+002, 3.429878e+002
4.266308e+002, 3.411136e+002
4.271129e+002, 3.391552e+002
4.275950e+002, 3.372193e+002
4.280771e+002, 3.352877e+002
4.285593e+002, 3.335280e+002
4.290414e+002, 3.321432e+002
4.295235e+002, 3.309448e+002
4.300056e+002, 3.294545e+002
4.304877e+002, 3.274069e+002
4.309698e+002, 3.256714e+002
4.314520e+002, 3.251084e+002
4.319341e+002, 3.251047e+002
4.324162e+002, 3.243525e+002
4.328983e+002, 3.224848e+002
4.333804e+002, 3.201823e+002
4.338625e+002, 3.181893e+002
4.343447e+002, 3.165547e+002
4.348268e+002, 3.149154e+002
4.353089e+002, 3.131336e+002
4.357910e+002, 3.114486e+002
4.362731e+002, 3.101137e+002
4.367552e+002, 3.090387e+002
4.372374e+002, 3.078617e+002
4.377195e+002, 3.063322e+002
4.382016e+002, 3.046245e+002
4.386837e+002, 3.034375e+002
4.391658e+002, 3.038552e+002
4.396479e+002, 3.033933e+002
4.401301e+002, 3.013210e+002
4.406122e+002, 2.986227e+002
4.410943e+002, 2.960930e+002
4.415764e+002, 2.939660e+002
4.420585e+002, 2.921895e+002
4.425406e+002, 2.907810e+002
4.430227e+002, 2.898247e+002
4.435049e+002, 2.886048e+002
4.439870e+002, 2.868503e+002
4.444691e+002, 2.851149e+002
4.449512e+002, 2.835265e+002
4.454333e+002, 2.820901e+002
4.459154e+002, 2.808097e+002
4.463976e+002, 2.797199e+002
4.468797e+002, 2.786810e+002
4.473618e+002, 2.773406e+002
4.478439e+002, 2.755534e+002
4.483260e+002, 2.738984e+002
4.488081e+002, 2.725529e+002
4.492903e+002, 2.713119e+002
4.497724e+002, 2.701694e+002
4.502545e+002, 2.690665e+002
4.507366e+002, 2.677220e+002
4.512187e+002, 2.657153e+002
4.517008e+002, 2.632466e+002
4.521830e+002, 2.612764e+002
4.526651e+002, 2.600031e+002
4.531472e+002, 2.587947e+002
4.536293e+002, 2.571698e+002
4.541114e+002, 2.554002e+002
4.545935e+002, 2.539096e+002
4.550757e+002, 2.529248e+002
4.555578e+002, 2.519767e+002
4.560399e+002, 2.505919e+002
4.565220e+002, 2.488859e+002
4.570041e+002, 2.473817e+002
4.574862e+002, 2.463058e+002
4.579684e+002, 2.453078e+002
4.584505e+002, 2.438353e+002
4.589326e+002, 2.418907e+002
4.594147e+002, 2.401688e+002
4.598968e+002, 2.389628e+002
4.603789e+002, 2.379156e+002
4.608611e+002, 2.368884e+002
4.613432e+002, 2.357900e+002
4.618253e+002, 2.342026e+002
4.623074e+002, 2.317122e+002
4.627895e+002, 2.286840e+002
4.632716e+002, 2.265998e+002
4.637538e+002, 2.261763e+002
4.642359e+002, 2.256865e+002
4.647180e+002, 2.250053e+002
4.652001e+002, 2.241223e+002
4.656822e+002, 2.229507e+002
4.661643e+002, 2.215089e+002
4.666465e+002, 2.200281e+002
4.671286e+002, 2.187760e+002
4.676107e+002, 2.177765e+002
4.680928e+002, 2.166677e+002
4.685749e+002, 2.150181e+002
4.690570e+002, 2.137232e+002
4.695392e+002, 2.134328e+002
4.700213e+002, 2.135430e+002
4.705034e+002, 2.130540e+002
4.709855e+002, 2.114986e+002
4.714676e+002, 2.095967e+002
4.719497e+002, 2.087650e+002
4.724319e+002, 2.093581e+002
4.729140e+002, 2.094653e+002
4.733961e+002, 2.084073e+002
4.738782e+002, 2.071262e+002
4.743603e+002, 2.061480e+002
4.748424e+002, 2.054364e+002
4.753246e+002, 2.046651e+002
4.758067e+002, 2.034108e+002
4.762888e+002, 2.020561e+002
4.767709e+002, 2.015898e+002
4.772530e+002, 2.021792e+002
4.777351e+002, 2.026103e+002
4.782173e+002, 2.022032e+002
4.786994e+002, 2.013545e+002
4.791815e+002, 2.006938e+002
4.796636e+002, 2.002666e+002
4.801457e+002, 1.999508e+002
4.806278e+002, 1.997693e+002
4.811100e+002, 1.996367e+002
4.815920e+002, 1.993997e+002
4.820742e+002, 1.990306e+002
4.825563e+002, 1.985660e+002
4.830384e+002, 1.979929e+002
4.835205e+002, 1.973212e+002
4.840026e+002, 1.968253e+002
4.844847e+002, 1.966527e+002
4.849669e+002, 1.964841e+002
4.854490e+002, 1.963059e+002
4.859311e+002, 1.960162e+002
4.864132e+002, 1.953915e+002
4.868953e+002, 1.943506e+002
4.873774e+002, 1.931464e+002
4.878596e+002, 1.922545e+002
4.883417e+002, 1.920282e+002
4.888238e+002, 1.910951e+002
4.893059e+002, 1.888577e+002
4.897880e+002, 1.866110e+002
4.902701e+002, 1.851001e+002
4.907523e+002, 1.840937e+002
4.912344e+002, 1.829406e+002
4.917165e+002, 1.812265e+002
4.921986e+002, 1.791893e+002
4.926807e+002, 1.775120e+002
4.931628e+002, 1.763622e+002
4.936450e+002, 1.751212e+002
4.941271e+002, 1.737194e+002
4.946092e+002, 1.721483e+002
4.950913e+002, 1.702616e+002
4.955734e+002, 1.681174e+002
4.960555e+002, 1.661164e+002
4.965377e+002, 1.645957e+002
4.970198e+002, 1.634375e+002
4.975019e+002, 1.623910e+002
4.979840e+002, 1.614981e+002
4.984661e+002, 1.604755e+002
4.989482e+002, 1.589917e+002
4.994304e+002, 1.573330e+002
4.999125e+002, 1.560715e+002
5.003946e+002, 1.553681e+002
5.008767e+002, 1.547262e+002
5.013588e+002, 1.539059e+002
5.018409e+002, 1.529747e+002
5.023231e+002, 1.520137e+002
5.028052e+002, 1.510409e+002
5.032873e+002, 1.501255e+002
5.037694e+002, 1.493592e+002
5.042515e+002, 1.487438e+002
5.047336e+002, 1.480095e+002
5.052158e+002, 1.470197e+002
5.056979e+002, 1.460780e+002
5.061800e+002, 1.452446e+002
5.066621e+002, 1.445412e+002
5.071442e+002, 1.440520e+002
5.076263e+002, 1.437949e+002
5.081085e+002, 1.435963e+002
5.085906e+002, 1.431873e+002
5.090727e+002, 1.425135e+002
5.095548e+002, 1.418217e+002
5.100369e+002, 1.409312e+002
5.105190e+002, 1.402050e+002
5.110012e+002, 1.399166e+002
5.114833e+002, 1.398751e+002
5.119654e+002, 1.397223e+002
5.124475e+002, 1.392786e+002
5.129296e+002, 1.386415e+002
5.134117e+002, 1.379010e+002
5.138939e+002, 1.370038e+002
5.143760e+002, 1.364254e+002
5.148581e+002, 1.366110e+002
5.153402e+002, 1.367986e+002
5.158223e+002, 1.362249e+002
5.163044e+002, 1.350146e+002
5.167866e+002, 1.340268e+002
5.172687e+002, 1.338092e+002
5.177508e+002, 1.338981e+002
5.182329e+002, 1.336854e+002
5.187150e+002, 1.331850e+002
5.191971e+002, 1.327267e+002
5.196793e+002, 1.324855e+002
5.201614e+002, 1.323559e+002
5.206435e+002, 1.321109e+002
5.211256e+002, 1.317541e+002
5.216077e+002, 1.313036e+002
5.220898e+002, 1.305965e+002
5.225720e+002, 1.299129e+002
5.230541e+002, 1.295663e+002
5.235362e+002, 1.295199e+002
5.240183e+002, 1.294774e+002
5.245004e+002, 1.292313e+002
5.249825e+002, 1.288085e+002
5.254647e+002, 1.283278e+002
5.259468e+002, 1.276322e+002
5.264289e+002, 1.271187e+002
5.269110e+002, 1.269894e+002
5.273931e+002, 1.269273e+002
5.278752e+002, 1.266827e+002
5.283574e+002, 1.262265e+002
5.288395e+002, 1.256737e+002
5.293216e+002, 1.250729e+002
5.298037e+002, 1.244557e+002
5.302858e+002, 1.240224e+002
5.307679e+002, 1.238332e+002
5.312501e+002, 1.236926e+002
5.317322e+002, 1.235740e+002
5.322143e+002, 1.234343e+002
5.326964e+002, 1.232013e+002
5.331785e+002, 1.228470e+002
5.336606e+002, 1.225219e+002
5.341428e+002, 1.223526e+002
5.346249e+002, 1.222761e+002
5.351070e+002, 1.221820e+002
5.355891e+002, 1.220620e+002
5.360712e+002, 1.218390e+002
5.365533e+002, 1.214304e+002
5.370355e+002, 1.208632e+002
5.375176e+002, 1.203362e+002
5.379997e+002, 1.196498e+002
5.384818e+002, 1.192383e+002
5.389639e+002, 1.196110e+002
5.394460e+002, 1.201470e+002
5.399282e+002, 1.199415e+002
5.404103e+002, 1.188754e+002
5.408924e+002, 1.176742e+002
5.413745e+002, 1.171089e+002
5.418566e+002, 1.171988e+002
5.423387e+002, 1.172561e+002
5.428209e+002, 1.174097e+002
5.433029e+002, 1.173631e+002
5.437850e+002, 1.168849e+002
5.442672e+002, 1.162600e+002
5.447493e+002, 1.158286e+002
5.452314e+002, 1.156753e+002
5.457135e+002, 1.155841e+002
5.461956e+002, 1.152760e+002
5.466777e+002, 1.147810e+002
5.471599e+002, 1.144918e+002
5.476420e+002, 1.145162e+002
5.481241e+002, 1.145624e+002
5.486062e+002, 1.144620e+002
5.490883e+002, 1.142608e+002
5.495704e+002, 1.140153e+002
5.500526e+002, 1.137220e+002
5.505347e+002, 1.134146e+002
5.510168e+002, 1.130877e+002
5.514989e+002, 1.127655e+002
5.519810e+002, 1.125013e+002
5.524631e+002, 1.123069e+002
5.529453e+002, 1.121470e+002
5.534274e+002, 1.119895e+002
5.539095e+002, 1.118338e+002
5.543916e+002, 1.117052e+002
5.548737e+002, 1.117937e+002
5.553558e+002, 1.116795e+002
5.558380e+002, 1.110177e+002
5.563201e+002, 1.101922e+002
5.568022e+002, 1.097609e+002
5.572843e+002, 1.098247e+002
5.577664e+002, 1.099271e+002
5.582485e+002, 1.094724e+002
5.587307e+002, 1.084308e+002
5.592128e+002, 1.077542e+002
5.596949e+002, 1.076135e+002
5.601770e+002, 1.076218e+002
5.606591e+002, 1.077477e+002
5.611412e+002, 1.078848e+002
5.616234e+002, 1.079388e+002
5.621055e+002, 1.078955e+002
5.625876e+002, 1.076570e+002
5.630697e+002, 1.069062e+002
5.635518e+002, 1.058762e+002
5.640339e+002, 1.054530e+002
5.645161e+002, 1.058478e+002
5.649982e+002, 1.062749e+002
5.654803e+002, 1.061332e+002
5.659624e+002, 1.055557e+002
5.664445e+002, 1.051967e+002
5.669266e+002, 1.052984e+002
5.674088e+002, 1.052731e+002
5.678909e+002, 1.048029e+002
5.683730e+002, 1.041513e+002
5.688551e+002, 1.036342e+002
5.693372e+002, 1.033125e+002
5.698193e+002, 1.030748e+002
5.703015e+002, 1.028232e+002
5.707836e+002, 1.025603e+002
5.712657e+002, 1.023514e+002
5.717478e+002, 1.021819e+002
5.722299e+002, 1.020925e+002
5.727120e+002, 1.021831e+002
5.731942e+002, 1.022938e+002
5.736763e+002, 1.022392e+002
5.741584e+002, 1.020108e+002
5.746405e+002, 1.018065e+002
5.751226e+002, 1.018875e+002
5.756047e+002, 1.021471e+002
5.760869e+002, 1.021218e+002
5.765690e+002, 1.017675e+002
5.770511e+002, 1.013087e+002
5.775332e+002, 1.008037e+002
5.780153e+002, 1.002835e+002
5.784974e+002, 9.975852e+001
5.789796e+002, 9.917966e+001
5.794617e+002, 9.882125e+001
5.799438e+002, 9.899046e+001
5.804259e+002, 9.931392e+001
5.809080e+002, 9.935275e+001
5.813901e+002, 9.909953e+001
5.818723e+002, 9.877238e+001
5.823544e+002, 9.848724e+001
5.828365e+002, 9.827215e+001
5.833186e+002, 9.822850e+001
5.838007e+002, 9.861833e+001
5.842828e+002, 9.877727e+001
5.847650e+002, 9.861236e+001
5.852471e+002, 9.829898e+001
5.857292e+002, 9.787804e+001
5.862113e+002, 9.740808e+001
5.866934e+002, 9.699970e+001
5.871755e+002, 9.672600e+001
5.876577e+002, 9.654967e+001
5.881398e+002, 9.643398e+001
5.886219e+002, 9.641146e+001
5.891040e+002, 9.619541e+001
5.895861e+002, 9.550124e+001
5.900682e+002, 9.482980e+001
5.905504e+002, 9.471632e+001
5.910325e+002, 9.507444e+001
5.915146e+002, 9.535143e+001
5.919967e+002, 9.538537e+001
5.924788e+002, 9.526713e+001
5.929609e+002, 9.501060e+001
5.934431e+002, 9.466113e+001
5.939252e+002, 9.433725e+001
5.944073e+002, 9.408105e+001
5.948894e+002, 9.388677e+001
5.953715e+002, 9.376363e+001
5.958536e+002, 9.375970e+001
5.963358e+002, 9.360117e+001
5.968179e+002, 9.309904e+001
5.973000e+002, 9.267567e+001
5.977821e+002, 9.252107e+001
5.982642e+002, 9.252203e+001
5.987463e+002, 9.250911e+001
5.992285e+002, 9.242427e+001
5.997106e+002, 9.232787e+001
6.001927e+002, 9.230396e+001
6.006748e+002, 9.234854e+001
6.011569e+002, 9.238687e+001
6.016390e+002, 9.250292e+001
6.021212e+002, 9.242422e+001
6.026033e+002, 9.169946e+001
6.030854e+002, 9.076859e+001
6.035675e+002, 9.037360e+001
6.040496e+002, 9.077874e+001
6.045317e+002, 9.118411e+001
6.050139e+002, 9.113847e+001
6.054960e+002, 9.086629e+001
6.059781e+002, 9.066592e+001
6.064602e+002, 9.058035e+001
6.069423e+002, 9.058183e+001
6.074244e+002, 9.067135e+001
6.079066e+002, 9.081113e+001
6.083887e+002, 9.082870e+001
6.088708e+002, 9.065884e+001
6.093529e+002, 9.045195e+001
6.098350e+002, 9.014539e+001
6.103171e+002, 8.986123e+001
6.107993e+002, 8.968663e+001
6.112814e+002, 8.961536e+001
6.117635e+002, 8.960341e+001
6.122456e+002, 8.965018e+001
6.127277e+002, 8.969390e+001
6.132098e+002, 8.955581e+001
6.136920e+002, 8.920802e+001
6.141741e+002, 8.901774e+001
6.146562e+002, 8.918183e+001
6.151383e+002, 8.938870e+001
6.156204e+002, 8.929781e+001
6.161025e+002, 8.895750e+001
6.165847e+002, 8.864159e+001
6.170668e+002, 8.833308e+001
6.175489e+002, 8.813650e+001
6.180310e+002, 8.821675e+001
6.185131e+002, 8.844033e+001
6.189952e+002, 8.855671e+001
6.194774e+002, 8.848866e+001
6.199595e+002, 8.826894e+001
6.204416e+002, 8.791557e+001
6.209237e+002, 8.741336e+001
6.214058e+002, 8.699110e+001
6.218879e+002, 8.666476e+001
6.223701e+002, 8.640623e+001
6.228522e+002, 8.618229e+001
6.233343e+002, 8.603892e+001
6.238164e+002, 8.605368e+001
6.242985e+002, 8.623038e+001
6.247806e+002, 8.644444e+001
6.252628e+002, 8.666788e+001
6.257448e+002, 8.684138e+001
6.262269e+002, 8.671310e+001
6.267090e+002, 8.623948e+001
6.271912e+002, 8.596423e+001
6.276733e+002, 8.625493e+001
6.281554e+002, 8.677200e+001
6.286375e+002, 8.683121e+001
6.291196e+002, 8.634807e+001
6.296017e+002, 8.592583e+001
6.300839e+002, 8.558560e+001
6.305660e+002, 8.539130e+001
6.310481e+002, 8.547588e+001
6.315302e+002, 8.573439e+001
6.320123e+002, 8.594416e+001
6.324944e+002, 8.600244e+001
6.329766e+002, 8.593914e+001
6.334587e+002, 8.576894e+001
6.339408e+002, 8.544466e+001
6.344229e+002, 8.525369e+001
6.349050e+002, 8.524361e+001
6.353871e+002, 8.531804e+001
6.358693e+002, 8.553837e+001
6.363514e+002, 8.577339e+001
6.368335e+002, 8.578512e+001
6.373156e+002, 8.546437e+001
6.377977e+002, 8.516273e+001
6.382798e+002, 8.517672e+001
6.387620e+002, 8.536893e+001
6.392441e+002, 8.546333e+001
6.397262e+002, 8.543306e+001
6.402083e+002, 8.547530e+001
6.406904e+002, 8.577287e+001
6.411725e+002, 8.617577e+001
6.416547e+002, 8.617618e+001
6.421368e+002, 8.528919e+001
6.426189e+002, 8.470840e+001
6.431010e+002, 8.459136e+001
6.435831e+002, 8.463811e+001
6.440652e+002, 8.470126e+001
6.445474e+002, 8.476421e+001
6.450295e+002, 8.487296e+001
6.455116e+002, 8.507207e+001
6.459937e+002, 8.522803e+001
6.464758e+002, 8.506876e+001
6.469579e+002, 8.459764e+001
6.474401e+002, 8.419600e+001
6.479222e+002, 8.386942e+001
6.484043e+002, 8.373598e+001
6.488864e+002, 8.407833e+001
6.493685e+002, 8.469209e+001
6.498506e+002, 8.490932e+001
6.503328e+002, 8.437390e+001
6.508149e+002, 8.391241e+001
6.512970e+002, 8.393787e+001
6.517791e+002, 8.416402e+001
6.522612e+002, 8.425928e+001
6.527433e+002, 8.418736e+001
6.532255e+002, 8.407524e+001
6.537076e+002, 8.401015e+001
6.541897e+002, 8.399187e+001
6.546718e+002, 8.403624e+001
6.551539e+002, 8.420955e+001
6.556360e+002, 8.428246e+001
6.561182e+002, 8.410130e+001
6.566003e+002, 8.391422e+001
6.570824e+002, 8.385220e+001
6.575645e+002, 8.389726e+001
6.580466e+002, 8.397538e+001
6.585287e+002, 8.406260e+001
6.590109e+002, 8.416494e+001
6.594930e+002, 8.439139e+001
6.599751e+002, 8.463435e+001
6.604572e+002, 8.450381e+001
6.609393e+002, 8.390376e+001
6.614214e+002, 8.332837e+001
6.619036e+002, 8.323257e+001
6.623857e+002, 8.356458e+001
6.628678e+002, 8.376048e+001
6.633499e+002, 8.380683e+001
6.638320e+002, 8.373045e+001
6.643141e+002, 8.343889e+001
6.647963e+002, 8.309834e+001
6.652784e+002, 8.277970e+001
6.657605e+002, 8.252895e+001
6.662426e+002, 8.244253e+001
6.667247e+002, 8.262863e+001
6.672068e+002, 8.293044e+001
6.676890e+002, 8.305461e+001
6.681711e+002, 8.300658e+001
6.686532e+002, 8.296832e+001
6.691353e+002, 8.297587e+001
6.696174e+002, 8.301455e+001
6.700995e+002, 8.310410e+001
6.705817e+002, 8.322691e+001
6.710638e+002, 8.323124e+001
6.715459e+002, 8.292028e+001
6.720280e+002, 8.272923e+001
6.725101e+002, 8.291457e+001
6.729922e+002, 8.321915e+001
6.734744e+002, 8.338094e+001
6.739565e+002, 8.336170e+001
6.744386e+002, 8.324397e+001
6.749207e+002, 8.307684e+001
6.754028e+002, 8.287987e+001
6.758849e+002, 8.269458e+001
6.763671e+002, 8.249227e+001
6.768492e+002, 8.243874e+001
6.773313e+002, 8.267349e+001
6.778134e+002, 8.294776e+001
6.782955e+002, 8.314951e+001
6.787776e+002, 8.324156e+001
6.792598e+002, 8.306193e+001
6.797419e+002, 8.226592e+001
6.802240e+002, 8.158501e+001
6.807061e+002, 8.150525e+001
6.811882e+002, 8.179760e+001
6.816703e+002, 8.221091e+001
6.821525e+002, 8.264838e+001
6.826346e+002, 8.287834e+001
6.831167e+002, 8.267187e+001
6.835988e+002, 8.214644e+001
6.840809e+002, 8.189946e+001
6.845630e+002, 8.210702e+001
6.850452e+002, 8.220891e+001
6.855273e+002, 8.196465e+001
6.860094e+002, 8.174191e+001
6.864915e+002, 8.184505e+001
6.869736e+002, 8.215186e+001
6.874557e+002, 8.226807e+001
6.879379e+002, 8.196313e+001
6.884200e+002, 8.156731e+001
6.889021e+002, 8.133109e+001
6.893842e+002, 8.123425e+001
6.898663e+002, 8.127694e+001
6.903484e+002, 8.145348e+001
6.908306e+002, 8.159052e+001
6.913127e+002, 8.153347e+001
6.917948e+002, 8.133890e+001
6.922769e+002, 8.130130e+001
6.927590e+002, 8.167310e+001
6.932411e+002, 8.179369e+001
6.937233e+002, 8.139877e+001
6.942054e+002, 8.097644e+001
6.946875e+002, 8.082857e+001
6.951696e+002, 8.089896e+001
6.956517e+002, 8.099644e+001
6.961339e+002, 8.105442e+001
6.966160e+002, 8.105822e+001
6.970981e+002, 8.093919e+001
6.975802e+002, 8.074859e+001
6.980623e+002, 8.067094e+001
6.985444e+002, 8.073709e+001
6.990266e+002, 8.087880e+001
6.995087e+002, 8.107265e+001
6.999908e+002, 8.128996e+001
7.004729e+002, 8.142029e+001
7.009550e+002, 8.146884e+001
7.014371e+002, 8.141320e+001
7.019193e+002, 8.112163e+001
7.024014e+002, 8.084665e+001
7.028835e+002, 8.070166e+001
7.033656e+002, 8.070222e+001
7.038477e+002, 8.090533e+001
7.043298e+002, 8.136294e+001
7.048120e+002, 8.176936e+001
7.052941e+002, 8.163987e+001
7.057762e+002, 8.110298e+001
7.062583e+002, 8.079871e+001
7.067404e+002, 8.080862e+001
7.072225e+002, 8.090276e+001
7.077046e+002, 8.095847e+001
7.081867e+002, 8.100161e+001
7.086688e+002, 8.110550e+001
7.091509e+002, 8.131158e+001
7.096331e+002, 8.146839e+001
7.101152e+002, 8.166057e+001
7.105973e+002, 8.170834e+001
7.110794e+002, 8.134003e+001
7.115615e+002, 8.079569e+001
7.120436e+002, 8.051008e+001
7.125258e+002, 8.063703e+001
7.130079e+002, 8.093972e+001
7.134900e+002, 8.117721e+001
7.139721e+002, 8.135620e+001
7.144542e+002, 8.154813e+001
7.149363e+002, 8.177918e+001
7.154185e+002, 8.185088e+001
7.159006e+002, 8.160325e+001
7.163827e+002, 8.121700e+001
7.168648e+002, 8.100320e+001
7.173469e+002, 8.099168e+001
7.178290e+002, 8.095415e+001
7.183112e+002, 8.073823e+001
7.187933e+002, 8.063583e+001
7.192754e+002, 8.099858e+001
7.197575e+002, 8.148038e+001
7.202396e+002, 8.156140e+001
7.207217e+002, 8.112473e+001
7.212039e+002, 8.047251e+001
7.216860e+002, 7.977418e+001
7.221681e+002, 7.912560e+001
7.226502e+002, 7.898894e+001
7.231323e+002, 7.943043e+001
7.236144e+002, 7.982579e+001
7.240966e+002, 7.996775e+001
7.245787e+002, 8.000037e+001
7.250608e+002, 8.007682e+001
7.255429e+002, 8.019724e+001
7.260250e+002, 8.031726e+001
7.265071e+002, 8.043462e+001
7.269893e+002, 8.055305e+001
7.274714e+002, 8.067336e+001
7.279535e+002, 8.079668e+001
7.284356e+002, 8.099430e+001
7.289177e+002, 8.121982e+001
7.293998e+002, 8.123264e+001
7.298820e+002, 8.078862e+001
7.303641e+002, 8.014198e+001
7.308462e+002, 7.988943e+001
7.313283e+002, 8.004302e+001
7.318104e+002, 8.030068e+001
7.322925e+002, 8.069442e+001
7.327747e+002, 8.096498e+001
7.332568e+002, 8.080230e+001
7.337389e+002, 8.031675e+001
7.342210e+002, 8.010389e+001
7.347031e+002, 8.024647e+001
7.351852e+002, 8.052961e+001
7.356674e+002, 8.115218e+001
7.361495e+002, 8.170499e+001
7.366316e+002, 8.181893e+001
7.371137e+002, 8.156350e+001
7.375958e+002, 8.118703e+001
7.380779e+002, 8.079564e+001
7.385601e+002, 8.047374e+001
7.390422e+002, 8.033585e+001
7.395243e+002, 8.037802e+001
7.400064e+002, 8.060903e+001
7.404885e+002, 8.108402e+001
7.409706e+002, 8.149473e+001
7.414528e+002, 8.165229e+001
7.419349e+002, 8.164815e+001
7.424170e+002, 8.167955e+001
7.428991e+002, 8.176199e+001
7.433812e+002, 8.182523e+001
7.438633e+002, 8.187685e+001
7.443455e+002, 8.189527e+001
7.448276e+002, 8.183189e+001
7.453097e+002, 8.174265e+001
7.457918e+002, 8.168953e+001
7.462739e+002, 8.169826e+001
7.467560e+002, 8.180853e+001
7.472382e+002, 8.216035e+001
7.477203e+002, 8.262653e+001
7.482024e+002, 8.275594e+001
7.486845e+002, 8.253912e+001
7.491666e+002, 8.239584e+001
7.496487e+002, 8.247659e+001
7.501309e+002, 8.265897e+001
7.506130e+002, 8.282258e+001
7.510951e+002, 8.296830e+001
7.515772e+002, 8.303499e+001
7.520593e+002, 8.277795e+001
7.525414e+002, 8.276278e+001
7.530236e+002, 8.338301e+001
7.535057e+002, 8.410167e+001
7.539878e+002, 8.441284e+001
7.544699e+002, 8.433212e+001
7.549520e+002, 8.417983e+001
7.554341e+002, 8.408607e+001
7.559163e+002, 8.411259e+001
7.563984e+002, 8.444465e+001
7.568805e+002, 8.499059e+001
7.573626e+002, 8.530849e+001
7.578447e+002, 8.531454e+001
7.583268e+002, 8.529886e+001
7.588090e+002, 8.545262e+001
7.592911e+002, 8.575366e+001
7.597732e+002, 8.612453e+001
7.602553e+002, 8.653389e+001
7.607374e+002, 8.708320e+001
7.612195e+002, 8.795033e+001
7.617017e+002, 8.876089e+001
7.621838e+002, 8.930923e+001
7.626659e+002, 8.969535e+001
7.631480e+002, 9.009061e+001
7.636301e+002, 9.054160e+001
7.641122e+002, 9.098244e+001
7.645944e+002, 9.121156e+001
7.650765e+002, 9.147939e+001
7.655586e+002, 9.223684e+001
7.660407e+002, 9.343681e+001
7.665228e+002, 9.475044e+001
7.670049e+002, 9.606821e+001
7.674871e+002, 9.728165e+001
7.679692e+002, 9.819727e+001
7.684513e+002, 9.879835e+001
7.689334e+002, 9.968478e+001
7.694155e+002, 1.009657e+002
7.698976e+002, 1.023644e+002
7.703798e+002, 1.039517e+002
7.708619e+002, 1.055268e+002
7.713440e+002, 1.068032e+002
7.718261e+002, 1.078727e+002
7.723082e+002, 1.092342e+002
7.727903e+002, 1.113037e+002
7.732725e+002, 1.133887e+002
7.737546e+002, 1.148696e+002
7.742367e+002, 1.161063e+002
7.747188e+002, 1.177288e+002
7.752009e+002, 1.197542e+002
7.756830e+002, 1.217492e+002
7.761652e+002, 1.234638e+002
7.766473e+002, 1.248405e+002
7.771294e+002, 1.256235e+002
7.776115e+002, 1.256777e+002
7.780936e+002, 1.260954e+002
7.785757e+002, 1.271745e+002
7.790579e+002, 1.282036e+002
7.795400e+002, 1.288798e+002
7.800221e+002, 1.292216e+002
7.805042e+002, 1.291754e+002
7.809863e+002, 1.286205e+002
7.814684e+002, 1.282779e+002
7.819506e+002, 1.287366e+002
7.824327e+002, 1.290456e+002
7.829148e+002, 1.284330e+002
7.833969e+002, 1.273038e+002
7.838790e+002, 1.263156e+002
7.843611e+002, 1.256631e+002
7.848433e+002, 1.252489e+002
7.853254e+002, 1.251365e+002
7.858075e+002, 1.250987e+002
7.862896e+002, 1.243345e+002
7.867717e+002, 1.228340e+002
7.872538e+002, 1.214942e+002
7.877360e+002, 1.205748e+002
7.882181e+002, 1.197557e+002
7.887002e+002, 1.187268e+002
7.891823e+002, 1.175315e+002
7.896644e+002, 1.165759e+002
7.901465e+002, 1.160549e+002
7.906286e+002, 1.154768e+002
7.911107e+002, 1.148468e+002
7.915928e+002, 1.141115e+002
7.920750e+002, 1.130539e+002
7.925571e+002, 1.118993e+002
7.930392e+002, 1.111756e+002
7.935213e+002, 1.111312e+002
7.940034e+002, 1.110414e+002
7.944855e+002, 1.101363e+002
7.949677e+002, 1.088083e+002
7.954498e+002, 1.077710e+002
7.959319e+002, 1.070378e+002
7.964140e+002, 1.064111e+002
7.968961e+002, 1.058064e+002
7.973782e+002, 1.052712e+002
7.978604e+002, 1.049005e+002
7.983425e+002, 1.047065e+002
7.988246e+002, 1.043012e+002
7.993067e+002, 1.035503e+002
7.997888e+002, 1.028271e+002
8.002709e+002, 1.022146e+002
8.007531e+002, 1.016714e+002
8.012352e+002, 1.012074e+002
8.017173e+002, 1.008000e+002
8.021994e+002, 1.003500e+002
8.026815e+002, 9.966853e+001
8.031636e+002, 9.917751e+001
8.036458e+002, 9.937943e+001
8.041279e+002, 9.971911e+001
8.046100e+002, 9.948547e+001
8.050921e+002, 9.873305e+001
8.055742e+002, 9.792274e+001
8.060563e+002, 9.730147e+001
8.065385e+002, 9.682980e+001
8.070206e+002, 9.649458e+001
8.075027e+002, 9.628102e+001
8.079848e+002, 9.596233e+001
8.084669e+002, 9.549461e+001
8.089490e+002, 9.509634e+001
8.094312e+002, 9.487415e+001
8.099133e+002, 9.476145e+001
8.103954e+002, 9.469581e+001
8.108775e+002, 9.470996e+001
8.113596e+002, 9.453237e+001
8.118417e+002, 9.401474e+001
8.123239e+002, 9.349917e+001
8.128060e+002, 9.301682e+001
8.132881e+002, 9.262327e+001
8.137702e+002, 9.239558e+001
8.142523e+002, 9.231393e+001
8.147344e+002, 9.229829e+001
8.152166e+002, 9.238177e+001
8.156987e+002, 9.236113e+001
8.161808e+002, 9.192828e+001
8.166629e+002, 9.125536e+001
8.171450e+002, 9.066690e+001
8.176271e+002, 9.022181e+001
8.181093e+002, 9.004012e+001
8.185914e+002, 9.022390e+001
8.190735e+002, 9.050736e+001
8.195556e+002, 9.033097e+001
8.200377e+002, 8.958719e+001
8.205198e+002, 8.905665e+001
8.210020e+002, 8.879577e+001
8.214841e+002, 8.863414e+001
8.219662e+002, 8.857124e+001
8.224483e+002, 8.853404e+001
8.229304e+002, 8.843977e+001
8.234125e+002, 8.828954e+001
8.238947e+002, 8.814650e+001
8.243768e+002, 8.802708e+001
8.248589e+002, 8.791460e+001
8.253410e+002, 8.781771e+001
8.258231e+002, 8.771440e+001
8.263052e+002, 8.762164e+001
8.267874e+002, 8.750478e+001
8.272695e+002, 8.722827e+001
8.277516e+002, 8.667990e+001
8.282337e+002, 8.610743e+001
8.287158e+002, 8.589980e+001
8.291979e+002, 8.597408e+001
8.296801e+002, 8.598792e+001
8.301622e+002, 8.591099e+001
8.306443e+002, 8.583666e+001
8.311264e+002, 8.583151e+001
8.316085e+002, 8.578696e+001
8.320906e+002, 8.549355e+001
8.325728e+002, 8.489143e+001
8.330549e+002, 8.448804e+001
8.335370e+002, 8.448707e+001
8.340191e+002, 8.439394e+001
8.345012e+002, 8.391869e+001
8.349833e+002, 8.345742e+001
8.354655e+002, 8.348225e+001
8.359476e+002, 8.386047e+001
8.364297e+002, 8.385575e+001
8.369118e+002, 8.287306e+001
8.373939e+002, 8.206208e+001
8.378760e+002, 8.235133e+001
8.383582e+002, 8.294653e+001
8.388403e+002, 8.285197e+001
8.393224e+002, 8.217309e+001
8.398045e+002, 8.157551e+001
8.402866e+002, 8.137315e+001
8.407687e+002, 8.140762e+001
8.412509e+002, 8.160752e+001
8.417330e+002, 8.188891e+001
8.422151e+002, 8.162402e+001
8.426972e+002, 8.075407e+001
8.431793e+002, 8.022277e+001
8.436614e+002, 8.046775e+001
8.441436e+002, 8.089931e+001
8.446257e+002, 8.080411e+001
8.451078e+002, 8.019909e+001
8.455899e+002, 7.985682e+001
8.460720e+002, 7.999089e+001
8.465541e+002, 8.007950e+001
8.470363e+002, 8.007101e+001
8.475184e+002, 8.000984e+001
8.480005e+002, 7.992871e+001
8.484826e+002, 7.981550e+001
8.489647e+002, 7.962232e+001
8.494468e+002, 7.931017e+001
8.499290e+002, 7.904001e+001
8.504111e+002, 7.890971e+001
8.508932e+002, 7.885450e+001
8.513753e+002, 7.882408e+001
8.518574e+002, 7.881023e+001
8.523395e+002, 7.882253e+001
8.528217e+002, 7.885689e+001
8.533038e+002, 7.885194e+001
8.537859e+002, 7.872289e+001
8.542680e+002, 7.853052e+001
8.547501e+002, 7.848038e+001
8.552322e+002, 7.857238e+001
8.557144e+002, 7.868950e+001
8.561965e+002, 7.884963e+001
8.566786e+002, 7.882706e+001
8.571607e+002, 7.836230e+001
8.576428e+002, 7.765381e+001
8.581249e+002, 7.736333e+001
8.586071e+002, 7.784761e+001
8.590892e+002, 7.797402e+001
8.595713e+002, 7.727151e+001
8.600534e+002, 7.677003e+001
8.605355e+002, 7.706982e+001
8.610176e+002, 7.763134e+001
8.614998e+002, 7.776386e+001
8.619819e+002, 7.740743e+001
8.624640e+002, 7.708096e+001
8.629461e+002, 7.708057e+001
8.634282e+002, 7.708153e+001
8.639103e+002, 7.676674e+001
8.643925e+002, 7.636631e+001
8.648746e+002, 7.622745e+001
8.653567e+002, 7.635247e+001
8.658388e+002, 7.654210e+001
8.663209e+002, 7.669356e+001
8.668030e+002, 7.675123e+001
8.672852e+002, 7.658665e+001
8.677673e+002, 7.624267e+001
8.682494e+002, 7.593491e+001
8.687315e+002, 7.567632e+001
8.692136e+002, 7.545321e+001
8.696957e+002, 7.525560e+001
8.701779e+002, 7.510542e+001
8.706600e+002, 7.504465e+001
8.711421e+002, 7.507431e+001
8.716242e+002, 7.505245e+001
8.721063e+002, 7.494447e+001
8.725884e+002, 7.484556e+001
8.730705e+002, 7.479700e+001
8.735526e+002, 7.473786e+001
8.740347e+002, 7.462337e+001
8.745168e+002, 7.447112e+001
8.749990e+002, 7.432355e+001
8.754811e+002, 7.419074e+001
8.759632e+002, 7.405505e+001
8.764453e+002, 7.382961e+001
8.769274e+002, 7.367768e+001
8.774095e+002, 7.387381e+001
8.778917e+002, 7.417078e+001
8.783738e+002, 7.406436e+001
8.788559e+002, 7.349830e+001
8.793380e+002, 7.301005e+001
8.798201e+002, 7.312186e+001
8.803022e+002, 7.342859e+001
8.807844e+002, 7.315873e+001
8.812665e+002, 7.250113e+001
8.817486e+002, 7.219395e+001
8.822307e+002, 7.233794e+001
8.827128e+002, 7.250499e+001
8.831949e+002, 7.241994e+001
8.836771e+002, 7.221606e+001
8.841592e+002, 7.219604e+001
8.846413e+002, 7.240614e+001
8.851234e+002, 7.244346e+001
8.856055e+002, 7.226299e+001
8.860876e+002, 7.200845e+001
8.865698e+002, 7.163916e+001
8.870519e+002, 7.130911e+001
8.875340e+002, 7.122148e+001
8.880161e+002, 7.135981e+001
8.884982e+002, 7.145714e+001
8.889803e+002, 7.155167e+001
8.894625e+002, 7.154070e+001
8.899446e+002, 7.127073e+001
8.904267e+002, 7.101799e+001
8.909088e+002, 7.109022e+001
8.913909e+002, 7.129154e+001
8.918730e+002, 7.116418e+001
8.923552e+002, 7.056575e+001
8.928373e+002, 7.004438e+001
8.933194e+002, 7.003037e+001
8.938015e+002, 7.020000e+001
8.942836e+002, 7.028015e+001
8.947657e+002, 7.025565e+001
8.952479e+002, 7.006767e+001
8.957300e+002, 6.973972e+001
8.962121e+002, 6.947438e+001
8.966942e+002, 6.944279e+001
8.971763e+002, 6.949833e+001
8.976584e+002, 6.930656e+001
8.981406e+002, 6.890146e+001
8.986227e+002, 6.863741e+001
8.991048e+002, 6.855717e+001
8.995869e+002, 6.847738e+001
9.000690e+002, 6.830045e+001
9.005511e+002, 6.811148e+001
9.010333e+002, 6.804961e+001
9.015154e+002, 6.812440e+001
9.019975e+002, 6.810347e+001
9.024796e+002, 6.791750e+001
9.029617e+002, 6.776456e+001
9.034438e+002, 6.769826e+001
9.039260e+002, 6.766019e+001
9.044081e+002, 6.761114e+001
9.048902e+002, 6.755974e+001
9.053723e+002, 6.753329e+001
9.058544e+002, 6.755000e+001
9.063365e+002, 6.754858e+001
9.068187e+002, 6.746494e+001
9.073008e+002, 6.741118e+001
9.077829e+002, 6.751604e+001
9.082650e+002, 6.766006e+001
9.087471e+002, 6.769686e+001
9.092292e+002, 6.759433e+001
9.097114e+002, 6.736294e+001
9.101935e+002, 6.691854e+001
9.106756e+002, 6.649268e+001
9.111577e+002, 6.634241e+001
9.116398e+002, 6.636893e+001
9.121219e+002, 6.643031e+001
9.126041e+002, 6.648994e+001
9.130862e+002, 6.649380e+001
9.135683e+002, 6.641642e+001
9.140504e+002, 6.630816e+001
9.145325e+002, 6.625401e+001
9.150146e+002, 6.623034e+001
9.154968e+002, 6.605372e+001
9.159789e+002, 6.571493e+001
9.164610e+002, 6.552139e+001
9.169431e+002, 6.557346e+001
9.174252e+002, 6.568013e+001
9.179073e+002, 6.569711e+001
9.183895e+002, 6.563188e+001
9.188716e+002, 6.550628e+001
9.193537e+002, 6.528310e+001
9.198358e+002, 6.508947e+001
9.203179e+002, 6.492365e+001
9.208000e+002, 6.478880e+001
9.212822e+002, 6.463657e+001
9.217643e+002, 6.454771e+001
9.222464e+002, 6.469994e+001
9.227285e+002, 6.507237e+001
9.232106e+002, 6.519164e+001
9.236927e+002, 6.470829e+001
9.241749e+002, 6.434859e+001
9.246570e+002, 6.445753e+001
9.251391e+002, 6.463908e+001
9.256212e+002, 6.456680e+001
9.261033e+002, 6.432369e+001
9.265854e+002, 6.412492e+001
9.270676e+002, 6.403336e+001
9.275497e+002, 6.399979e+001
9.280318e+002, 6.406039e+001
9.285139e+002, 6.410415e+001
9.289960e+002, 6.398406e+001
9.294781e+002, 6.377467e+001
9.299603e+002, 6.359992e+001
9.304424e+002, 6.349262e+001
9.309245e+002, 6.346941e+001
9.314066e+002, 6.354779e+001
9.318887e+002, 6.367340e+001
9.323708e+002, 6.378143e+001
9.328530e+002, 6.386308e+001
9.333351e+002, 6.387724e+001
9.338172e+002, 6.382344e+001
9.342993e+002, 6.370647e+001
9.347814e+002, 6.351583e+001
9.352635e+002, 6.340092e+001
9.357457e+002, 6.354932e+001
9.362278e+002, 6.390117e+001
9.367099e+002, 6.409147e+001
9.371920e+002, 6.407250e+001
9.376741e+002, 6.410345e+001
9.381563e+002, 6.423772e+001
9.386384e+002, 6.437751e+001
9.391205e+002, 6.452156e+001
9.396026e+002, 6.459565e+001
9.400847e+002, 6.443481e+001
9.405668e+002, 6.397641e+001
9.410490e+002, 6.365673e+001
9.415311e+002, 6.354597e+001
9.420132e+002, 6.347169e+001
9.424953e+002, 6.341356e+001
9.429774e+002, 6.337102e+001
9.434595e+002, 6.329401e+001
9.439417e+002, 6.323940e+001
9.444238e+002, 6.336734e+001
9.449059e+002, 6.376005e+001
9.453880e+002, 6.413902e+001
9.458701e+002, 6.450806e+001
9.463522e+002, 6.472590e+001
9.468344e+002, 6.455251e+001
9.473165e+002, 6.424912e+001
9.477986e+002, 6.421176e+001
9.482807e+002, 6.443842e+001
9.487628e+002, 6.456403e+001
9.492449e+002, 6.432234e+001
9.497271e+002, 6.409945e+001
9.502092e+002, 6.437869e+001
9.506913e+002, 6.484877e+001
9.511734e+002, 6.499611e+001
9.516555e+002, 6.488222e+001
9.521376e+002, 6.482589e+001
9.526198e+002, 6.493997e+001
9.531019e+002, 6.516449e+001
9.535840e+002, 6.547863e+001
9.540661e+002, 6.581789e+001
9.545482e+002, 6.600692e+001
9.550303e+002, 6.606894e+001
9.555124e+002, 6.617466e+001
9.559945e+002, 6.634803e+001
9.564766e+002, 6.642490e+001
9.569587e+002, 6.629010e+001
9.574409e+002, 6.617109e+001
9.579230e+002, 6.649139e+001
9.584051e+002, 6.723885e+001
9.588872e+002, 6.756619e+001
9.593693e+002, 6.737457e+001
9.598514e+002, 6.717800e+001
9.603336e+002, 6.705691e+001
9.608157e+002, 6.702404e+001
9.612978e+002, 6.710414e+001
9.617799e+002, 6.727215e+001
9.622620e+002, 6.746092e+001
9.627441e+002, 6.767811e+001
9.632263e+002, 6.789514e+001
9.637084e+002, 6.826980e+001
9.641905e+002, 6.842629e+001
9.646726e+002, 6.794569e+001
9.651547e+002, 6.747276e+001
9.656368e+002, 6.768513e+001
9.661190e+002, 6.842062e+001
9.666011e+002, 6.887725e+001
9.670832e+002, 6.880064e+001
9.675653e+002, 6.876212e+001
9.680474e+002, 6.898006e+001
9.685295e+002, 6.916295e+001
9.690117e+002, 6.910070e+001
9.694938e+002, 6.892641e+001
9.699759e+002, 6.876789e+001
9.704580e+002, 6.867262e+001
9.709401e+002, 6.877435e+001
9.714222e+002, 6.933723e+001
9.719044e+002, 6.977794e+001
9.723865e+002, 6.960001e+001
9.728686e+002, 6.921528e+001
9.733507e+002, 6.905637e+001
9.738328e+002, 6.906479e+001
9.743149e+002, 6.900837e+001
9.747971e+002, 6.882156e+001
9.752792e+002, 6.862347e+001
9.757613e+002, 6.852553e+001
9.762434e+002, 6.844947e+001
9.767255e+002, 6.837672e+001
9.772076e+002, 6.821741e+001
9.776898e+002, 6.761150e+001
9.781719e+002, 6.666434e+001
9.786540e+002, 6.611819e+001
9.791361e+002, 6.632029e+001
9.796182e+002, 6.668381e+001
9.801003e+002, 6.646233e+001
9.805825e+002, 6.582015e+001
9.810646e+002, 6.531007e+001
9.815467e+002, 6.491039e+001
9.820288e+002, 6.441956e+001
9.825109e+002, 6.380028e+001
9.829930e+002, 6.317685e+001
9.834752e+002, 6.262706e+001
9.839573e+002, 6.214790e+001
9.844394e+002, 6.173048e+001
9.849215e+002, 6.137522e+001
9.854036e+002, 6.112408e+001
9.858857e+002, 6.099638e+001
9.863679e+002, 6.087024e+001
9.868500e+002, 6.073175e+001
9.873321e+002, 6.053160e+001
9.878142e+002, 6.023667e+001
9.882963e+002, 5.984089e+001
9.887784e+002, 5.927888e+001
9.892606e+002, 5.837364e+001
9.897427e+002, 5.797758e+001
9.902248e+002, 5.846024e+001
9.907069e+002, 5.873638e+001
9.911890e+002, 5.840319e+001
9.916711e+002, 5.779542e+001
9.921533e+002, 5.708287e+001
9.926354e+002, 5.634163e+001
9.931175e+002, 5.604928e+001
9.935996e+002, 5.659788e+001
9.940817e+002, 5.688882e+001
9.945638e+002, 5.680034e+001
9.950460e+002, 5.658069e+001
9.955281e+002, 5.625477e+001
9.960102e+002, 5.589444e+001
9.964923e+002, 5.551307e+001
9.969744e+002, 5.514362e+001
9.974565e+002, 5.499062e+001
9.979387e+002, 5.521740e+001
9.984208e+002, 5.545561e+001
9.989029e+002, 5.572217e+001
9.993850e+002, 5.585768e+001
9.998671e+002, 5.566534e+001
1.000349e+003, 5.532706e+001
1.000831e+003, 5.509089e+001
1.001313e+003, 5.498978e+001
1.001796e+003, 5.492937e+001
1.002278e+003, 5.490083e+001
1.002760e+003, 5.485927e+001
1.003242e+003, 5.479988e+001
1.003724e+003, 5.469984e+001
1.004206e+003, 5.442011e+001
1.004688e+003, 5.412206e+001
1.005170e+003, 5.420677e+001
1.005653e+003, 5.471431e+001
1.006135e+003, 5.504291e+001
1.006617e+003, 5.464444e+001
1.007099e+003, 5.413733e+001
1.007581e+003, 5.416105e+001
1.008063e+003, 5.440406e+001
1.008545e+003, 5.440416e+001
1.009027e+003, 5.421347e+001
1.009509e+003, 5.413261e+001
1.009992e+003, 5.426160e+001
1.010474e+003, 5.443620e+001
1.010956e+003, 5.451863e+001
1.011438e+003, 5.455568e+001
1.011920e+003, 5.458612e+001
1.012402e+003, 5.463559e+001
1.012884e+003, 5.485576e+001
1.013366e+003, 5.518020e+001
1.013849e+003, 5.514016e+001
1.014331e+003, 5.454757e+001
1.014813e+003, 5.411298e+001
1.015295e+003, 5.488890e+001
1.015777e+003, 5.621077e+001
1.016259e+003, 5.622470e+001
1.016741e+003, 5.523762e+001
1.017223e+003, 5.473885e+001
1.017705e+003, 5.490769e+001
1.018188e+003, 5.500079e+001
1.018670e+003, 5.462984e+001
1.019152e+003, 5.413244e+001
1.019634e+003, 5.399510e+001
1.020116e+003, 5.412782e+001
1.020598e+003, 5.404482e+001
1.021080e+003, 5.376007e+001
1.021562e+003, 5.369604e+001
1.022044e+003, 5.394182e+001
1.022527e+003, 5.408118e+001
1.023009e+003, 5.385390e+001
1.023491e+003, 5.348793e+001
1.023973e+003, 5.334083e+001
1.024455e+003, 5.340431e+001
1.024937e+003, 5.356299e+001
1.025419e+003, 5.383440e+001
1.025901e+003, 5.405204e+001
1.026384e+003, 5.418858e+001
1.026866e+003, 5.425475e+001
1.027348e+003, 5.425026e+001
1.027830e+003, 5.419132e+001
1.028312e+003, 5.408364e+001
1.028794e+003, 5.391679e+001
1.029276e+003, 5.398684e+001
1.029758e+003, 5.439960e+001
1.030240e+003, 5.466607e+001
1.030723e+003, 5.463814e+001
1.031205e+003, 5.459172e+001
1.031687e+003, 5.474767e+001
1.032169e+003, 5.495689e+001
1.032651e+003, 5.490575e+001
1.033133e+003, 5.456182e+001
1.033615e+003, 5.420429e+001
1.034097e+003, 5.365656e+001
1.034579e+003, 5.350749e+001
1.035062e+003, 5.413380e+001
1.035544e+003, 5.477837e+001
1.036026e+003, 5.491314e+001
1.036508e+003, 5.474083e+001
1.036990e+003, 5.468108e+001
1.037472e+003, 5.475886e+001
1.037954e+003, 5.480770e+001
1.038436e+003, 5.482178e+001
1.038919e+003, 5.481311e+001
1.039401e+003, 5.468640e+001
1.039883e+003, 5.464447e+001
1.040365e+003, 5.491143e+001
1.040847e+003, 5.532677e+001
1.041329e+003, 5.554285e+001
1.041811e+003, 5.552240e+001
1.042293e+003, 5.550880e+001
1.042776e+003, 5.557113e+001
1.043258e+003, 5.555144e+001
1.043740e+003, 5.524509e+001
1.044222e+003, 5.502365e+001
1.044704e+003, 5.525513e+001
1.045186e+003, 5.569926e+001
1.045668e+003, 5.585223e+001
1.046150e+003, 5.562562e+001
1.046632e+003, 5.551579e+001
1.047115e+003, 5.571747e+001
1.047597e+003, 5.584483e+001
1.048079e+003, 5.569192e+001
1.048561e+003, 5.554327e+001
1.049043e+003, 5.556913e+001
1.049525e+003, 5.574873e+001
1.050007e+003, 5.611263e+001
1.050489e+003, 5.670539e+001
1.050971e+003, 5.694639e+001
1.051454e+003, 5.627420e+001
1.051936e+003, 5.584786e+001
1.052418e+003, 5.618233e+001
1.052900e+003, 5.671569e+001
1.053382e+003, 5.710462e+001
1.053864e+003, 5.736890e+001
1.054346e+003, 5.760276e+001
1.054828e+003, 5.782178e+001
1.055311e+003, 5.795146e+001
1.055793e+003, 5.784605e+001
1.056275e+003, 5.781956e+001
1.056757e+003, 5.803511e+001
1.057239e+003, 5.831460e+001
1.057721e+003, 5.858044e+001
1.058203e+003, 5.878971e+001
1.058685e+003, 5.883870e+001
1.059167e+003, 5.872074e+001
1.059650e+003, 5.875074e+001
1.060132e+003, 5.923214e+001
1.060614e+003, 5.960781e+001
1.061096e+003, 5.953588e+001
1.061578e+003, 5.940770e+001
1.062060e+003, 5.949086e+001
1.062542e+003, 5.974237e+001
1.063024e+003, 6.010151e+001
1.063506e+003, 6.053926e+001
1.063989e+003, 6.088063e+001
1.064471e+003, 6.100810e+001
1.064953e+003, 6.110627e+001
1.065435e+003, 6.125475e+001
1.065917e+003, 6.139872e+001
1.066399e+003, 6.141478e+001
1.066881e+003, 6.143901e+001
1.067363e+003, 6.176681e+001
1.067846e+003, 6.237989e+001
1.068328e+003, 6.278449e+001
1.068810e+003, 6.264683e+001
1.069292e+003, 6.253208e+001
1.069774e+003, 6.254451e+001
1.070256e+003, 6.282584e+001
1.070738e+003, 6.370706e+001
1.071220e+003, 6.479720e+001
1.071703e+003, 6.568736e+001
1.072185e+003, 6.624883e+001
1.072667e+003, 6.626836e+001
1.073149e+003, 6.541574e+001
1.073631e+003, 6.459503e+001
1.074113e+003, 6.412376e+001
1.074595e+003, 6.394340e+001
1.075077e+003, 6.421570e+001
1.075559e+003, 6.462350e+001
1.076042e+003, 6.476323e+001
1.076524e+003, 6.462773e+001
1.077006e+003, 6.446443e+001
1.077488e+003, 6.435690e+001
1.077970e+003, 6.423224e+001
1.078452e+003, 6.400249e+001
1.078934e+003, 6.380278e+001
1.079416e+003, 6.372746e+001
1.079898e+003, 6.373126e+001
1.080380e+003, 6.382274e+001
1.080863e+003, 6.393578e+001
1.081345e+003, 6.388719e+001
1.081827e+003, 6.360711e+001
1.082309e+003, 6.323230e+001
1.082791e+003, 6.269048e+001
1.083273e+003, 6.222517e+001
1.083755e+003, 6.207010e+001
1.084237e+003, 6.200474e+001
1.084720e+003, 6.179145e+001
1.085202e+003, 6.145547e+001
1.085684e+003, 6.112133e+001
1.086166e+003, 6.081668e+001
1.086648e+003, 6.056821e+001
1.087130e+003, 6.036811e+001
1.087612e+003, 6.025044e+001
1.088094e+003, 6.038572e+001
1.088577e+003, 6.047725e+001
1.089059e+003, 6.020274e+001
1.089541e+003, 5.967944e+001
1.090023e+003, 5.918228e+001
1.090505e+003, 5.876498e+001
1.090987e+003, 5.838045e+001
1.091469e+003, 5.801707e+001
1.091951e+003, 5.767226e+001
1.092433e+003, 5.731749e+001
1.092916e+003, 5.700780e+001
1.093398e+003, 5.665593e+001
1.093880e+003, 5.644489e+001
1.094362e+003, 5.692924e+001
1.094844e+003, 5.806998e+001
1.095326e+003, 5.842810e+001
1.095808e+003, 5.684879e+001
1.096290e+003, 5.545948e+001
1.096772e+003, 5.501801e+001
1.097255e+003, 5.491493e+001
1.097737e+003, 5.498587e+001
1.098219e+003, 5.501476e+001
1.098701e+003, 5.468637e+001
1.099183e+003, 5.404060e+001
1.099665e+003, 5.350258e+001
1.100147e+003, 5.313178e+001
1.100629e+003, 5.295369e+001
1.101112e+003, 5.321572e+001
1.101594e+003, 5.338725e+001
1.102076e+003, 5.315427e+001
1.102558e+003, 5.273900e+001
1.103040e+003, 5.227104e+001
1.103522e+003, 5.183772e+001
1.104004e+003, 5.169657e+001
1.104486e+003, 5.198710e+001
1.104969e+003, 5.223873e+001
1.105451e+003, 5.253764e+001
1.105933e+003, 5.256395e+001
1.106415e+003, 5.189232e+001
1.106897e+003, 5.119355e+001
1.107379e+003, 5.115814e+001
1.107861e+003, 5.148190e+001
1.108343e+003, 5.132627e+001
1.108825e+003, 5.049857e+001
1.109307e+003, 4.995613e+001
1.109790e+003, 4.997869e+001
1.110272e+003, 5.001233e+001
1.110754e+003, 4.986072e+001
1.111236e+003, 4.978196e+001
1.111718e+003, 5.014758e+001
1.112200e+003, 5.058533e+001
1.112682e+003, 5.036842e+001
1.113164e+003, 4.944164e+001
1.113647e+003, 4.892015e+001
1.114129e+003, 4.909907e+001
1.114611e+003, 4.919443e+001
1.115093e+003, 4.903713e+001
1.115575e+003, 4.895538e+001
1.116057e+003, 4.920184e+001
1.116539e+003, 4.948413e+001
1.117021e+003, 4.938905e+001
1.117504e+003, 4.900048e+001
1.117986e+003, 4.896627e+001
1.118468e+003, 4.958559e+001
1.118950e+003, 4.983094e+001
1.119432e+003, 4.950764e+001
1.119914e+003, 4.917668e+001
1.120396e+003, 4.898222e+001
1.120878e+003, 4.888769e+001
1.121360e+003, 4.887346e+001
1.121843e+003, 4.892675e+001
1.122325e+003, 4.902130e+001
1.122807e+003, 4.917882e+001
1.123289e+003, 4.924191e+001
1.123771e+003, 4.919090e+001
1.124253e+003, 4.910450e+001
1.124735e+003, 4.897686e+001
1.125217e+003, 4.889625e+001
1.125699e+003, 4.894697e+001
1.126182e+003, 4.901165e+001
1.126664e+003, 4.885357e+001
1.127146e+003, 4.849788e+001
1.127628e+003, 4.847109e+001
1.128110e+003, 4.883995e+001
1.128592e+003, 4.887424e+001
1.129074e+003, 4.841740e+001
1.129556e+003, 4.812795e+001
1.130039e+003, 4.833424e+001
1.130521e+003, 4.865219e+001
1.131003e+003, 4.863964e+001
1.131485e+003, 4.839238e+001
1.131967e+003, 4.820531e+001
1.132449e+003, 4.808527e+001
1.132931e+003, 4.824286e+001
1.133413e+003, 4.867585e+001
1.133896e+003, 4.880610e+001
1.134378e+003, 4.845792e+001
1.134860e+003, 4.811348e+001
1.135342e+003, 4.815651e+001
1.135824e+003, 4.837470e+001
1.136306e+003, 4.835348e+001
1.136788e+003, 4.818114e+001
1.137270e+003, 4.823126e+001
1.137752e+003, 4.845642e+001
1.138234e+003, 4.862794e+001
1.138717e+003, 4.869381e+001
1.139199e+003, 4.861365e+001
1.139681e+003, 4.836580e+001
1.140163e+003, 4.812185e+001
1.140645e+003, 4.809484e+001
1.141127e+003, 4.817748e+001
1.141609e+003, 4.819378e+001
1.142091e+003, 4.815695e+001
1.142574e+003, 4.801104e+001
1.143056e+003, 4.784256e+001
1.143538e+003, 4.801848e+001
1.144020e+003, 4.859045e+001
1.144502e+003, 4.897340e+001
1.144984e+003, 4.866245e+001
1.145466e+003, 4.821455e+001
1.145948e+003, 4.824186e+001
1.146431e+003, 4.844595e+001
1.146913e+003, 4.844796e+001
1.147395e+003, 4.833818e+001
1.147877e+003, 4.835538e+001
1.148359e+003, 4.849300e+001
1.148841e+003, 4.852929e+001
1.149323e+003, 4.835790e+001
1.149805e+003, 4.815725e+001
1.150287e+003, 4.802428e+001
1.150770e+003, 4.791952e+001
1.151252e+003, 4.773569e+001
1.151734e+003, 4.762812e+001
1.152216e+003, 4.787744e+001
1.152698e+003, 4.831148e+001
1.153180e+003, 4.850154e+001
1.153662e+003, 4.835900e+001
1.154144e+003, 4.822111e+001
1.154626e+003, 4.829638e+001
1.155109e+003, 4.825829e+001
1.155591e+003, 4.778286e+001
1.156073e+003, 4.739973e+001
1.156555e+003, 4.749379e+001
1.157037e+003, 4.783744e+001
1.157519e+003, 4.820070e+001
1.158001e+003, 4.853603e+001
1.158483e+003, 4.867092e+001
1.158966e+003, 4.848009e+001
1.159448e+003, 4.832634e+001
1.159930e+003, 4.826318e+001
1.160412e+003, 4.819496e+001
1.160894e+003, 4.804353e+001
1.161376e+003, 4.793929e+001
1.161858e+003, 4.802980e+001
1.162340e+003, 4.820562e+001
1.162822e+003, 4.821189e+001
1.163305e+003, 4.802287e+001
1.163787e+003, 4.794851e+001
1.164269e+003, 4.803996e+001
1.164751e+003, 4.809227e+001
1.165233e+003, 4.805800e+001
1.165715e+003, 4.804400e+001
1.166197e+003, 4.810283e+001
1.166679e+003, 4.820032e+001
1.167161e+003, 4.830214e+001
1.167644e+003, 4.840268e+001
1.168126e+003, 4.848934e+001
1.168608e+003, 4.856390e+001
1.169090e+003, 4.855082e+001
1.169572e+003, 4.844409e+001
1.170054e+003, 4.835274e+001
1.170536e+003, 4.830621e+001
1.171018e+003, 4.830204e+001
1.171500e+003, 4.834279e+001
1.171983e+003, 4.839488e+001
1.172465e+003, 4.837325e+001
1.172947e+003, 4.833032e+001
1.173429e+003, 4.852325e+001
1.173911e+003, 4.884893e+001
1.174393e+003, 4.887169e+001
1.174875e+003, 4.859869e+001
1.175357e+003, 4.836475e+001
1.175840e+003, 4.829521e+001
1.176322e+003, 4.827428e+001
1.176804e+003, 4.820124e+001
1.177286e+003, 4.813887e+001
1.177768e+003, 4.813552e+001
1.178250e+003, 4.821442e+001
1.178732e+003, 4.854063e+001
1.179214e+003, 4.891998e+001
1.179697e+003, 4.891697e+001
1.180179e+003, 4.855780e+001
1.180661e+003, 4.825098e+001
1.181143e+003, 4.815838e+001
1.181625e+003, 4.818719e+001
1.182107e+003, 4.835252e+001
1.182589e+003, 4.853516e+001
1.183071e+003, 4.867662e+001
1.183553e+003, 4.878011e+001
1.184036e+003, 4.885440e+001
1.184518e+003, 4.889321e+001
1.185000e+003, 4.887890e+001
1.185482e+003, 4.881099e+001
1.185964e+003, 4.872614e+001
1.186446e+003, 4.861438e+001
1.186928e+003, 4.851615e+001
1.187410e+003, 4.844537e+001
1.187892e+003, 4.838094e+001
1.188375e+003, 4.825024e+001
1.188857e+003, 4.818137e+001
1.189339e+003, 4.835747e+001
1.189821e+003, 4.866949e+001
1.190303e+003, 4.879356e+001
1.190785e+003, 4.869805e+001
1.191267e+003, 4.858239e+001
1.191749e+003, 4.835617e+001
1.192232e+003, 4.840370e+001
1.192714e+003, 4.891705e+001
1.193196e+003, 4.931403e+001
1.193678e+003, 4.928217e+001
1.194160e+003, 4.905629e+001
1.194642e+003, 4.891433e+001
1.195124e+003, 4.882709e+001
1.195606e+003, 4.862867e+001
1.196089e+003, 4.833261e+001
1.196571e+003, 4.841109e+001
1.197053e+003, 4.885863e+001
1.197535e+003, 4.910105e+001
1.198017e+003, 4.900420e+001
1.198499e+003, 4.888203e+001
1.198981e+003, 4.892772e+001
1.199463e+003, 4.906214e+001
1.199945e+003, 4.923482e+001
1.200427e+003, 4.938028e+001
1.200910e+003, 4.929345e+001
1.201392e+003, 4.910829e+001
1.201874e+003, 4.918996e+001
1.202356e+003, 4.944646e+001
1.202838e+003, 4.945565e+001
1.203320e+003, 4.914592e+001
1.203802e+003, 4.891389e+001
1.204284e+003, 4.901685e+001
1.204767e+003, 4.918341e+001
1.205249e+003, 4.927342e+001
1.205731e+003, 4.927209e+001
1.206213e+003, 4.902996e+001
1.206695e+003, 4.879173e+001
1.207177e+003, 4.889065e+001
1.207659e+003, 4.923683e+001
1.208141e+003, 4.956532e+001
1.208624e+003, 4.983381e+001
1.209106e+003, 4.990199e+001
1.209588e+003, 4.955572e+001
1.210070e+003, 4.927641e+001
1.210552e+003, 4.923066e+001
1.211034e+003, 4.919295e+001
1.211516e+003, 4.895903e+001
1.211998e+003, 4.876115e+001
1.212480e+003, 4.890139e+001
1.212963e+003, 4.925980e+001
1.213445e+003, 4.937352e+001
1.213927e+003, 4.919581e+001
1.214409e+003, 4.897955e+001
1.214891e+003, 4.866722e+001
1.215373e+003, 4.857301e+001
1.215855e+003, 4.880397e+001
1.216337e+003, 4.901744e+001
1.216819e+003, 4.902448e+001
1.217302e+003, 4.897320e+001
1.217784e+003, 4.905078e+001
1.218266e+003, 4.920344e+001
1.218748e+003, 4.926069e+001
1.219230e+003, 4.924058e+001
1.219712e+003, 4.922609e+001
1.220194e+003, 4.922160e+001
1.220676e+003, 4.925306e+001
1.221159e+003, 4.930153e+001
1.221641e+003, 4.917848e+001
1.222123e+003, 4.877191e+001
1.222605e+003, 4.841816e+001
1.223087e+003, 4.854261e+001
1.223569e+003, 4.880949e+001
1.224051e+003, 4.885541e+001
1.224533e+003, 4.879237e+001
1.225016e+003, 4.867382e+001
1.225498e+003, 4.860478e+001
1.225980e+003, 4.884007e+001
1.226462e+003, 4.933820e+001
1.226944e+003, 4.962748e+001
1.227426e+003, 4.947740e+001
1.227908e+003, 4.929930e+001
1.228390e+003, 4.913356e+001
1.228872e+003, 4.909882e+001
1.229354e+003, 4.941975e+001
1.229837e+003, 4.971970e+001
1.230319e+003, 4.964014e+001
1.230801e+003, 4.937178e+001
1.231283e+003, 4.931033e+001
1.231765e+003, 4.944199e+001
1.232247e+003, 4.924817e+001
1.232729e+003, 4.847880e+001
1.233211e+003, 4.820471e+001
1.233694e+003, 4.865114e+001
1.234176e+003, 4.892915e+001
1.234658e+003, 4.873228e+001
1.235140e+003, 4.850800e+001
1.235622e+003, 4.860781e+001
1.236104e+003, 4.874674e+001
1.236586e+003, 4.834921e+001
1.237068e+003, 4.761683e+001
1.237551e+003, 4.744622e+001
1.238033e+003, 4.771103e+001
1.238515e+003, 4.785100e+001
1.238997e+003, 4.784176e+001
1.239479e+003, 4.790200e+001
1.239961e+003, 4.808452e+001
1.240443e+003, 4.827161e+001
1.240925e+003, 4.840685e+001
1.241407e+003, 4.842547e+001
1.241890e+003, 4.816711e+001
1.242372e+003, 4.786560e+001
1.242854e+003, 4.780285e+001
1.243336e+003, 4.779023e+001
1.243818e+003, 4.748754e+001
1.244300e+003, 4.707649e+001
1.244782e+003, 4.704217e+001
1.245264e+003, 4.742643e+001
1.245746e+003, 4.766223e+001
1.246229e+003, 4.750838e+001
1.246711e+003, 4.737163e+001
1.247193e+003, 4.732869e+001
1.247675e+003, 4.730146e+001
1.248157e+003, 4.726363e+001
1.248639e+003, 4.723144e+001
1.249121e+003, 4.721052e+001
1.249603e+003, 4.721299e+001
1.250085e+003, 4.729631e+001
1.250568e+003, 4.744011e+001
1.251050e+003, 4.720395e+001
1.251532e+003, 4.650772e+001
1.252014e+003, 4.641218e+001
1.252496e+003, 4.702568e+001
1.252978e+003, 4.736116e+001
1.253460e+003, 4.712389e+001
1.253942e+003, 4.685809e+001
1.254425e+003, 4.694135e+001
1.254907e+003, 4.715259e+001
1.255389e+003, 4.721697e+001
1.255871e+003, 4.717406e+001
1.256353e+003, 4.706685e+001
1.256835e+003, 4.692466e+001
1.257317e+003, 4.682573e+001
1.257799e+003, 4.673586e+001
1.258281e+003, 4.651454e+001
1.258764e+003, 4.617593e+001
1.259246e+003, 4.596706e+001
1.259728e+003, 4.603439e+001
1.260210e+003, 4.608521e+001
1.260692e+003, 4.593050e+001
1.261174e+003, 4.579746e+001
1.261656e+003, 4.593602e+001
1.262138e+003, 4.599223e+001
1.262620e+003, 4.547221e+001
1.263103e+003, 4.482030e+001
1.263585e+003, 4.484394e+001
1.264067e+003, 4.543880e+001
1.264549e+003, 4.568546e+001
1.265031e+003, 4.540836e+001
1.265513e+003, 4.541496e+001
1.265995e+003, 4.580957e+001
1.266477e+003, 4.603608e+001
1.266960e+003, 4.596650e+001
1.267442e+003, 4.568707e+001
1.267924e+003, 4.521041e+001
1.268406e+003, 4.488391e+001
1.268888e+003, 4.519981e+001
1.269370e+003, 4.581271e+001
1.269852e+003, 4.593100e+001
1.270334e+003, 4.570624e+001
1.270817e+003, 4.537689e+001
1.271299e+003, 4.508298e+001
1.271781e+003, 4.524841e+001
1.272263e+003, 4.577429e+001
1.272745e+003, 4.599534e+001
1.273227e+003, 4.565649e+001
1.273709e+003, 4.535894e+001
1.274191e+003, 4.559631e+001
1.274673e+003, 4.577694e+001
1.275156e+003, 4.557757e+001
1.275638e+003, 4.525283e+001
1.276120e+003, 4.483422e+001
1.276602e+003, 4.449030e+001
1.277084e+003, 4.444906e+001
1.277566e+003, 4.462678e+001
1.278048e+003, 4.473125e+001
1.278530e+003, 4.475208e+001
1.279012e+003, 4.478954e+001
1.279495e+003, 4.484341e+001
1.279977e+003, 4.492002e+001
1.280459e+003, 4.504258e+001
1.280941e+003, 4.505957e+001
1.281423e+003, 4.490200e+001
1.281905e+003, 4.474531e+001
1.282387e+003, 4.472433e+001
1.282869e+003, 4.480572e+001
1.283352e+003, 4.500047e+001
1.283834e+003, 4.521320e+001
1.284316e+003, 4.523552e+001
1.284798e+003, 4.506952e+001
##END=



