##NAMES=Orthoclase
##RRUFFID=R150014
##IDEAL CHEMISTRY=KAlSi_3_O_8_
##LOCALITY=Locality: Cathedral Peak granite, near Toulumne meadows, Yosemite National Park, California, USA
##OWNER=RRUFF
##SOURCE=Jennifer Schmidt (LDP12-02)
##DESCRIPTION=White to colorless, massive, in a granitic rock
##STATUS=The identification of this mineral is confirmed by single-crystal X-ray diffraction and chemical analysis.
##URL=rruff.info/R150014
##MEASURED CHEMISTRY=(K_0.86_Na_0.14_)Al_1.01_Si_2.98_O_8_
9.059570e+001, 6.303562e+002
9.107782e+001, 6.243774e+002
9.155994e+001, 6.222821e+002
9.204205e+001, 6.267836e+002
9.252417e+001, 6.333359e+002
9.300629e+001, 6.404464e+002
9.348840e+001, 6.442717e+002
9.397052e+001, 6.408630e+002
9.445264e+001, 6.291627e+002
9.493475e+001, 6.177462e+002
9.541687e+001, 6.068729e+002
9.589898e+001, 5.971697e+002
9.638110e+001, 5.882351e+002
9.686321e+001, 5.796498e+002
9.734533e+001, 5.708183e+002
9.782745e+001, 5.608613e+002
9.830956e+001, 5.521913e+002
9.879168e+001, 5.445906e+002
9.927380e+001, 5.381833e+002
9.975591e+001, 5.331725e+002
1.002380e+002, 5.292182e+002
1.007201e+002, 5.256984e+002
1.012023e+002, 5.223672e+002
1.016844e+002, 5.191082e+002
1.021665e+002, 5.155920e+002
1.026486e+002, 5.112623e+002
1.031307e+002, 5.069393e+002
1.036128e+002, 5.033631e+002
1.040950e+002, 5.005175e+002
1.045771e+002, 4.981895e+002
1.050592e+002, 4.958762e+002
1.055413e+002, 4.938225e+002
1.060234e+002, 4.926261e+002
1.065055e+002, 4.929919e+002
1.069877e+002, 4.944612e+002
1.074698e+002, 4.952268e+002
1.079519e+002, 4.952263e+002
1.084340e+002, 4.943983e+002
1.089161e+002, 4.928247e+002
1.093982e+002, 4.904928e+002
1.098804e+002, 4.873725e+002
1.103625e+002, 4.832193e+002
1.108446e+002, 4.777415e+002
1.113267e+002, 4.728135e+002
1.118088e+002, 4.684051e+002
1.122909e+002, 4.644790e+002
1.127731e+002, 4.612171e+002
1.132552e+002, 4.585572e+002
1.137373e+002, 4.560990e+002
1.142194e+002, 4.532658e+002
1.147015e+002, 4.493733e+002
1.151836e+002, 4.463641e+002
1.156658e+002, 4.448575e+002
1.161479e+002, 4.438911e+002
1.166300e+002, 4.424889e+002
1.171121e+002, 4.402819e+002
1.175942e+002, 4.376564e+002
1.180763e+002, 4.355357e+002
1.185584e+002, 4.339645e+002
1.190406e+002, 4.326180e+002
1.195227e+002, 4.315872e+002
1.200048e+002, 4.307423e+002
1.204869e+002, 4.296480e+002
1.209690e+002, 4.278839e+002
1.214511e+002, 4.259601e+002
1.219333e+002, 4.248369e+002
1.224154e+002, 4.247645e+002
1.228975e+002, 4.250489e+002
1.233796e+002, 4.252079e+002
1.238617e+002, 4.252531e+002
1.243438e+002, 4.250588e+002
1.248260e+002, 4.243720e+002
1.253081e+002, 4.234715e+002
1.257902e+002, 4.226064e+002
1.262723e+002, 4.219259e+002
1.267544e+002, 4.212565e+002
1.272365e+002, 4.201265e+002
1.277187e+002, 4.180039e+002
1.282008e+002, 4.163341e+002
1.286829e+002, 4.157696e+002
1.291650e+002, 4.157919e+002
1.296471e+002, 4.157509e+002
1.301292e+002, 4.152650e+002
1.306114e+002, 4.143460e+002
1.310935e+002, 4.131334e+002
1.315756e+002, 4.111868e+002
1.320577e+002, 4.093510e+002
1.325398e+002, 4.078275e+002
1.330219e+002, 4.065943e+002
1.335041e+002, 4.055413e+002
1.339862e+002, 4.045626e+002
1.344683e+002, 4.036369e+002
1.349504e+002, 4.029726e+002
1.354325e+002, 4.024512e+002
1.359146e+002, 4.022152e+002
1.363968e+002, 4.023246e+002
1.368789e+002, 4.027903e+002
1.373610e+002, 4.036449e+002
1.378431e+002, 4.050213e+002
1.383252e+002, 4.070867e+002
1.388073e+002, 4.088258e+002
1.392895e+002, 4.098490e+002
1.397716e+002, 4.106518e+002
1.402537e+002, 4.119680e+002
1.407358e+002, 4.140855e+002
1.412179e+002, 4.161911e+002
1.417000e+002, 4.170835e+002
1.421821e+002, 4.168912e+002
1.426643e+002, 4.165584e+002
1.431464e+002, 4.163463e+002
1.436285e+002, 4.162729e+002
1.441106e+002, 4.163864e+002
1.445927e+002, 4.166498e+002
1.450748e+002, 4.172057e+002
1.455570e+002, 4.180395e+002
1.460391e+002, 4.191553e+002
1.465212e+002, 4.206986e+002
1.470033e+002, 4.231552e+002
1.474854e+002, 4.267076e+002
1.479675e+002, 4.294078e+002
1.484497e+002, 4.298584e+002
1.489318e+002, 4.299857e+002
1.494139e+002, 4.307563e+002
1.498960e+002, 4.323814e+002
1.503781e+002, 4.345555e+002
1.508602e+002, 4.369165e+002
1.513424e+002, 4.397995e+002
1.518245e+002, 4.421392e+002
1.523066e+002, 4.435938e+002
1.527887e+002, 4.447313e+002
1.532708e+002, 4.462572e+002
1.537529e+002, 4.483857e+002
1.542351e+002, 4.504746e+002
1.547172e+002, 4.508795e+002
1.551993e+002, 4.477506e+002
1.556814e+002, 4.449829e+002
1.561635e+002, 4.433329e+002
1.566456e+002, 4.419781e+002
1.571278e+002, 4.398204e+002
1.576099e+002, 4.362679e+002
1.580920e+002, 4.317285e+002
1.585741e+002, 4.279506e+002
1.590562e+002, 4.256646e+002
1.595383e+002, 4.231953e+002
1.600205e+002, 4.200026e+002
1.605026e+002, 4.163201e+002
1.609847e+002, 4.126927e+002
1.614668e+002, 4.094614e+002
1.619489e+002, 4.065309e+002
1.624310e+002, 4.034973e+002
1.629131e+002, 4.002056e+002
1.633953e+002, 3.969762e+002
1.638774e+002, 3.939261e+002
1.643595e+002, 3.910628e+002
1.648416e+002, 3.885528e+002
1.653237e+002, 3.866972e+002
1.658058e+002, 3.852425e+002
1.662880e+002, 3.835512e+002
1.667701e+002, 3.812211e+002
1.672522e+002, 3.788848e+002
1.677343e+002, 3.774064e+002
1.682164e+002, 3.769755e+002
1.686985e+002, 3.765128e+002
1.691807e+002, 3.751592e+002
1.696628e+002, 3.734524e+002
1.701449e+002, 3.720363e+002
1.706270e+002, 3.711879e+002
1.711091e+002, 3.707614e+002
1.715912e+002, 3.704482e+002
1.720734e+002, 3.702934e+002
1.725555e+002, 3.701781e+002
1.730376e+002, 3.700940e+002
1.735197e+002, 3.700059e+002
1.740018e+002, 3.698530e+002
1.744839e+002, 3.695773e+002
1.749661e+002, 3.692121e+002
1.754482e+002, 3.689741e+002
1.759303e+002, 3.691620e+002
1.764124e+002, 3.691318e+002
1.768945e+002, 3.685292e+002
1.773766e+002, 3.676024e+002
1.778588e+002, 3.668224e+002
1.783409e+002, 3.665815e+002
1.788230e+002, 3.668867e+002
1.793051e+002, 3.667076e+002
1.797872e+002, 3.656543e+002
1.802693e+002, 3.645037e+002
1.807515e+002, 3.633141e+002
1.812336e+002, 3.621935e+002
1.817157e+002, 3.613961e+002
1.821978e+002, 3.612368e+002
1.826799e+002, 3.618806e+002
1.831620e+002, 3.613987e+002
1.836441e+002, 3.587721e+002
1.841263e+002, 3.561844e+002
1.846084e+002, 3.547515e+002
1.850905e+002, 3.544446e+002
1.855726e+002, 3.545543e+002
1.860547e+002, 3.544736e+002
1.865368e+002, 3.541710e+002
1.870190e+002, 3.538507e+002
1.875011e+002, 3.535935e+002
1.879832e+002, 3.532701e+002
1.884653e+002, 3.526767e+002
1.889474e+002, 3.518143e+002
1.894296e+002, 3.510490e+002
1.899117e+002, 3.507887e+002
1.903938e+002, 3.510291e+002
1.908759e+002, 3.512454e+002
1.913580e+002, 3.513776e+002
1.918401e+002, 3.514634e+002
1.923223e+002, 3.515367e+002
1.928044e+002, 3.515977e+002
1.932865e+002, 3.516661e+002
1.937686e+002, 3.517122e+002
1.942507e+002, 3.517626e+002
1.947328e+002, 3.519503e+002
1.952150e+002, 3.524205e+002
1.956971e+002, 3.530384e+002
1.961792e+002, 3.535585e+002
1.966613e+002, 3.539779e+002
1.971434e+002, 3.542478e+002
1.976255e+002, 3.541948e+002
1.981077e+002, 3.539524e+002
1.985898e+002, 3.538798e+002
1.990719e+002, 3.543270e+002
1.995540e+002, 3.551383e+002
2.000361e+002, 3.556250e+002
2.005182e+002, 3.556156e+002
2.010004e+002, 3.554749e+002
2.014825e+002, 3.554903e+002
2.019646e+002, 3.555627e+002
2.024467e+002, 3.554369e+002
2.029288e+002, 3.548300e+002
2.034109e+002, 3.537817e+002
2.038930e+002, 3.529756e+002
2.043752e+002, 3.524671e+002
2.048573e+002, 3.521930e+002
2.053394e+002, 3.522256e+002
2.058215e+002, 3.524792e+002
2.063036e+002, 3.527843e+002
2.067857e+002, 3.530594e+002
2.072679e+002, 3.533207e+002
2.077500e+002, 3.532359e+002
2.082321e+002, 3.522523e+002
2.087142e+002, 3.514099e+002
2.091963e+002, 3.511153e+002
2.096784e+002, 3.512675e+002
2.101606e+002, 3.515276e+002
2.106427e+002, 3.516103e+002
2.111248e+002, 3.515052e+002
2.116069e+002, 3.512944e+002
2.120890e+002, 3.504934e+002
2.125711e+002, 3.500354e+002
2.130533e+002, 3.506470e+002
2.135354e+002, 3.520396e+002
2.140175e+002, 3.532530e+002
2.144996e+002, 3.533472e+002
2.149817e+002, 3.520859e+002
2.154638e+002, 3.513527e+002
2.159460e+002, 3.514824e+002
2.164281e+002, 3.517142e+002
2.169102e+002, 3.516259e+002
2.173923e+002, 3.512533e+002
2.178744e+002, 3.509128e+002
2.183565e+002, 3.508769e+002
2.188387e+002, 3.511762e+002
2.193208e+002, 3.517155e+002
2.198029e+002, 3.529984e+002
2.202850e+002, 3.540926e+002
2.207671e+002, 3.542464e+002
2.212492e+002, 3.535261e+002
2.217314e+002, 3.527252e+002
2.222135e+002, 3.525070e+002
2.226956e+002, 3.529328e+002
2.231777e+002, 3.533958e+002
2.236598e+002, 3.539858e+002
2.241419e+002, 3.545478e+002
2.246240e+002, 3.550271e+002
2.251062e+002, 3.554097e+002
2.255883e+002, 3.555400e+002
2.260704e+002, 3.551069e+002
2.265525e+002, 3.542379e+002
2.270346e+002, 3.538915e+002
2.275167e+002, 3.545681e+002
2.279989e+002, 3.555185e+002
2.284810e+002, 3.560211e+002
2.289631e+002, 3.560303e+002
2.294452e+002, 3.560102e+002
2.299273e+002, 3.563329e+002
2.304094e+002, 3.568864e+002
2.308916e+002, 3.573564e+002
2.313737e+002, 3.576238e+002
2.318558e+002, 3.578218e+002
2.323379e+002, 3.581002e+002
2.328200e+002, 3.584672e+002
2.333021e+002, 3.588555e+002
2.337843e+002, 3.592873e+002
2.342664e+002, 3.597008e+002
2.347485e+002, 3.599946e+002
2.352306e+002, 3.601588e+002
2.357127e+002, 3.601776e+002
2.361948e+002, 3.598214e+002
2.366770e+002, 3.588626e+002
2.371591e+002, 3.584837e+002
2.376412e+002, 3.600670e+002
2.381233e+002, 3.623377e+002
2.386054e+002, 3.638744e+002
2.390875e+002, 3.640717e+002
2.395697e+002, 3.635957e+002
2.400518e+002, 3.634782e+002
2.405339e+002, 3.638079e+002
2.410160e+002, 3.642186e+002
2.414981e+002, 3.645461e+002
2.419802e+002, 3.648897e+002
2.424624e+002, 3.653596e+002
2.429445e+002, 3.660040e+002
2.434266e+002, 3.667480e+002
2.439087e+002, 3.674378e+002
2.443908e+002, 3.679922e+002
2.448729e+002, 3.687163e+002
2.453550e+002, 3.697837e+002
2.458372e+002, 3.709894e+002
2.463193e+002, 3.722374e+002
2.468014e+002, 3.735108e+002
2.472835e+002, 3.746404e+002
2.477656e+002, 3.752879e+002
2.482477e+002, 3.752014e+002
2.487299e+002, 3.752202e+002
2.492120e+002, 3.754551e+002
2.496941e+002, 3.758560e+002
2.501762e+002, 3.763553e+002
2.506583e+002, 3.769400e+002
2.511404e+002, 3.777127e+002
2.516226e+002, 3.789614e+002
2.521047e+002, 3.811402e+002
2.525868e+002, 3.827273e+002
2.530689e+002, 3.832331e+002
2.535510e+002, 3.834373e+002
2.540331e+002, 3.838192e+002
2.545153e+002, 3.845248e+002
2.549974e+002, 3.854909e+002
2.554795e+002, 3.866770e+002
2.559616e+002, 3.882905e+002
2.564437e+002, 3.896628e+002
2.569258e+002, 3.906700e+002
2.574080e+002, 3.915645e+002
2.578901e+002, 3.924878e+002
2.583722e+002, 3.934769e+002
2.588543e+002, 3.945161e+002
2.593364e+002, 3.955918e+002
2.598185e+002, 3.967396e+002
2.603007e+002, 3.978321e+002
2.607828e+002, 3.987754e+002
2.612649e+002, 3.997547e+002
2.617470e+002, 4.008939e+002
2.622291e+002, 4.022010e+002
2.627112e+002, 4.035751e+002
2.631934e+002, 4.049018e+002
2.636755e+002, 4.061350e+002
2.641576e+002, 4.074976e+002
2.646397e+002, 4.091147e+002
2.651218e+002, 4.107240e+002
2.656039e+002, 4.123179e+002
2.660861e+002, 4.138052e+002
2.665682e+002, 4.149193e+002
2.670503e+002, 4.153145e+002
2.675324e+002, 4.147849e+002
2.680145e+002, 4.148835e+002
2.684966e+002, 4.162004e+002
2.689788e+002, 4.174760e+002
2.694609e+002, 4.182107e+002
2.699430e+002, 4.183607e+002
2.704251e+002, 4.179477e+002
2.709072e+002, 4.168465e+002
2.713893e+002, 4.150057e+002
2.718715e+002, 4.143417e+002
2.723536e+002, 4.153691e+002
2.728357e+002, 4.167859e+002
2.733178e+002, 4.181558e+002
2.737999e+002, 4.194686e+002
2.742820e+002, 4.208481e+002
2.747642e+002, 4.224064e+002
2.752463e+002, 4.241106e+002
2.757284e+002, 4.255033e+002
2.762105e+002, 4.264480e+002
2.766926e+002, 4.273154e+002
2.771747e+002, 4.282307e+002
2.776568e+002, 4.291670e+002
2.781389e+002, 4.298128e+002
2.786211e+002, 4.297878e+002
2.791032e+002, 4.296402e+002
2.795853e+002, 4.319599e+002
2.800674e+002, 4.403747e+002
2.805495e+002, 4.465410e+002
2.810316e+002, 4.470569e+002
2.815138e+002, 4.440836e+002
2.819959e+002, 4.413796e+002
2.824780e+002, 4.405587e+002
2.829601e+002, 4.409070e+002
2.834422e+002, 4.406319e+002
2.839243e+002, 4.394527e+002
2.844065e+002, 4.383021e+002
2.848886e+002, 4.375728e+002
2.853707e+002, 4.369328e+002
2.858528e+002, 4.357656e+002
2.863349e+002, 4.338069e+002
2.868170e+002, 4.316491e+002
2.872992e+002, 4.304420e+002
2.877813e+002, 4.306855e+002
2.882634e+002, 4.301319e+002
2.887455e+002, 4.277600e+002
2.892276e+002, 4.246779e+002
2.897097e+002, 4.221826e+002
2.901919e+002, 4.205665e+002
2.906740e+002, 4.195139e+002
2.911561e+002, 4.187768e+002
2.916382e+002, 4.184329e+002
2.921203e+002, 4.177775e+002
2.926024e+002, 4.165892e+002
2.930846e+002, 4.151429e+002
2.935667e+002, 4.135749e+002
2.940488e+002, 4.119087e+002
2.945309e+002, 4.104637e+002
2.950130e+002, 4.096063e+002
2.954951e+002, 4.093548e+002
2.959773e+002, 4.089738e+002
2.964594e+002, 4.084088e+002
2.969415e+002, 4.077250e+002
2.974236e+002, 4.067979e+002
2.979057e+002, 4.056837e+002
2.983878e+002, 4.048906e+002
2.988700e+002, 4.048588e+002
2.993521e+002, 4.054953e+002
2.998342e+002, 4.059639e+002
3.003163e+002, 4.063945e+002
3.007984e+002, 4.065421e+002
3.012805e+002, 4.059818e+002
3.017627e+002, 4.049048e+002
3.022448e+002, 4.042345e+002
3.027269e+002, 4.046179e+002
3.032090e+002, 4.056192e+002
3.036911e+002, 4.058877e+002
3.041732e+002, 4.049775e+002
3.046554e+002, 4.041450e+002
3.051375e+002, 4.041653e+002
3.056196e+002, 4.047079e+002
3.061017e+002, 4.048247e+002
3.065838e+002, 4.040194e+002
3.070659e+002, 4.028920e+002
3.075481e+002, 4.026984e+002
3.080302e+002, 4.036237e+002
3.085123e+002, 4.044833e+002
3.089944e+002, 4.048790e+002
3.094765e+002, 4.049668e+002
3.099586e+002, 4.049391e+002
3.104408e+002, 4.048014e+002
3.109229e+002, 4.047391e+002
3.114050e+002, 4.050494e+002
3.118871e+002, 4.057313e+002
3.123692e+002, 4.064416e+002
3.128513e+002, 4.072559e+002
3.133335e+002, 4.079956e+002
3.138156e+002, 4.085000e+002
3.142977e+002, 4.087475e+002
3.147798e+002, 4.086335e+002
3.152619e+002, 4.078094e+002
3.157440e+002, 4.063620e+002
3.162262e+002, 4.055920e+002
3.167083e+002, 4.059979e+002
3.171904e+002, 4.068405e+002
3.176725e+002, 4.075900e+002
3.181546e+002, 4.082227e+002
3.186367e+002, 4.088096e+002
3.191188e+002, 4.094084e+002
3.196010e+002, 4.099925e+002
3.200831e+002, 4.104778e+002
3.205652e+002, 4.106833e+002
3.210473e+002, 4.109745e+002
3.215294e+002, 4.117108e+002
3.220115e+002, 4.127406e+002
3.224937e+002, 4.135010e+002
3.229758e+002, 4.136532e+002
3.234579e+002, 4.134623e+002
3.239400e+002, 4.136035e+002
3.244221e+002, 4.141687e+002
3.249042e+002, 4.147938e+002
3.253864e+002, 4.154116e+002
3.258685e+002, 4.159960e+002
3.263506e+002, 4.165556e+002
3.268327e+002, 4.171338e+002
3.273148e+002, 4.175337e+002
3.277969e+002, 4.172529e+002
3.282791e+002, 4.160881e+002
3.287612e+002, 4.155082e+002
3.292433e+002, 4.162578e+002
3.297254e+002, 4.175158e+002
3.302075e+002, 4.182828e+002
3.306896e+002, 4.183867e+002
3.311718e+002, 4.183856e+002
3.316539e+002, 4.188693e+002
3.321360e+002, 4.198851e+002
3.326181e+002, 4.206926e+002
3.331002e+002, 4.212106e+002
3.335823e+002, 4.215530e+002
3.340645e+002, 4.217563e+002
3.345466e+002, 4.218394e+002
3.350287e+002, 4.218485e+002
3.355108e+002, 4.217206e+002
3.359929e+002, 4.215560e+002
3.364750e+002, 4.219770e+002
3.369572e+002, 4.233955e+002
3.374393e+002, 4.248918e+002
3.379214e+002, 4.263125e+002
3.384035e+002, 4.275268e+002
3.388856e+002, 4.281109e+002
3.393677e+002, 4.277598e+002
3.398499e+002, 4.269124e+002
3.403320e+002, 4.268006e+002
3.408141e+002, 4.278028e+002
3.412962e+002, 4.287227e+002
3.417783e+002, 4.293473e+002
3.422604e+002, 4.297625e+002
3.427426e+002, 4.300911e+002
3.432247e+002, 4.303679e+002
3.437068e+002, 4.304929e+002
3.441889e+002, 4.302643e+002
3.446710e+002, 4.294043e+002
3.451531e+002, 4.290699e+002
3.456353e+002, 4.295431e+002
3.461174e+002, 4.303585e+002
3.465995e+002, 4.312952e+002
3.470816e+002, 4.322677e+002
3.475637e+002, 4.331030e+002
3.480458e+002, 4.335949e+002
3.485280e+002, 4.337189e+002
3.490101e+002, 4.341215e+002
3.494922e+002, 4.349798e+002
3.499743e+002, 4.358880e+002
3.504564e+002, 4.368809e+002
3.509385e+002, 4.377889e+002
3.514207e+002, 4.381773e+002
3.519028e+002, 4.377197e+002
3.523849e+002, 4.367052e+002
3.528670e+002, 4.363858e+002
3.533491e+002, 4.370988e+002
3.538312e+002, 4.380829e+002
3.543134e+002, 4.394973e+002
3.547955e+002, 4.410388e+002
3.552776e+002, 4.424426e+002
3.557597e+002, 4.436027e+002
3.562418e+002, 4.444270e+002
3.567239e+002, 4.447061e+002
3.572061e+002, 4.438230e+002
3.576882e+002, 4.436857e+002
3.581703e+002, 4.447957e+002
3.586524e+002, 4.461984e+002
3.591345e+002, 4.472693e+002
3.596166e+002, 4.479504e+002
3.600987e+002, 4.485142e+002
3.605808e+002, 4.492354e+002
3.610630e+002, 4.501397e+002
3.615451e+002, 4.509359e+002
3.620272e+002, 4.508134e+002
3.625093e+002, 4.514148e+002
3.629914e+002, 4.542722e+002
3.634735e+002, 4.581953e+002
3.639557e+002, 4.608461e+002
3.644378e+002, 4.607424e+002
3.649199e+002, 4.585076e+002
3.654020e+002, 4.567532e+002
3.658841e+002, 4.553616e+002
3.663662e+002, 4.547192e+002
3.668484e+002, 4.553445e+002
3.673305e+002, 4.564561e+002
3.678126e+002, 4.572005e+002
3.682947e+002, 4.573329e+002
3.687768e+002, 4.574117e+002
3.692589e+002, 4.584731e+002
3.697411e+002, 4.611948e+002
3.702232e+002, 4.630257e+002
3.707053e+002, 4.632642e+002
3.711874e+002, 4.631752e+002
3.716695e+002, 4.633801e+002
3.721516e+002, 4.638964e+002
3.726338e+002, 4.644130e+002
3.731159e+002, 4.646166e+002
3.735980e+002, 4.645208e+002
3.740801e+002, 4.646298e+002
3.745622e+002, 4.650875e+002
3.750443e+002, 4.655861e+002
3.755265e+002, 4.660792e+002
3.760086e+002, 4.665315e+002
3.764907e+002, 4.668819e+002
3.769728e+002, 4.670889e+002
3.774549e+002, 4.672116e+002
3.779370e+002, 4.673838e+002
3.784192e+002, 4.676237e+002
3.789013e+002, 4.678620e+002
3.793834e+002, 4.678981e+002
3.798655e+002, 4.680356e+002
3.803476e+002, 4.685614e+002
3.808297e+002, 4.695297e+002
3.813119e+002, 4.706821e+002
3.817940e+002, 4.718593e+002
3.822761e+002, 4.730594e+002
3.827582e+002, 4.739666e+002
3.832403e+002, 4.743911e+002
3.837224e+002, 4.746763e+002
3.842046e+002, 4.750195e+002
3.846867e+002, 4.754244e+002
3.851688e+002, 4.759026e+002
3.856509e+002, 4.764574e+002
3.861330e+002, 4.770856e+002
3.866151e+002, 4.778198e+002
3.870973e+002, 4.787009e+002
3.875794e+002, 4.795110e+002
3.880615e+002, 4.792534e+002
3.885436e+002, 4.791029e+002
3.890257e+002, 4.811160e+002
3.895078e+002, 4.867370e+002
3.899900e+002, 4.926565e+002
3.904721e+002, 4.963011e+002
3.909542e+002, 4.977572e+002
3.914363e+002, 4.973003e+002
3.919184e+002, 4.940287e+002
3.924005e+002, 4.900868e+002
3.928827e+002, 4.884838e+002
3.933648e+002, 4.892882e+002
3.938469e+002, 4.905903e+002
3.943290e+002, 4.920074e+002
3.948111e+002, 4.933513e+002
3.952932e+002, 4.941603e+002
3.957754e+002, 4.943223e+002
3.962575e+002, 4.945730e+002
3.967396e+002, 4.957192e+002
3.972217e+002, 4.976575e+002
3.977038e+002, 4.990634e+002
3.981859e+002, 4.992938e+002
3.986681e+002, 4.995075e+002
3.991501e+002, 5.005272e+002
3.996323e+002, 5.021985e+002
4.001144e+002, 5.038761e+002
4.005965e+002, 5.051942e+002
4.010786e+002, 5.063758e+002
4.015607e+002, 5.081133e+002
4.020428e+002, 5.109262e+002
4.025250e+002, 5.132958e+002
4.030071e+002, 5.149147e+002
4.034892e+002, 5.159733e+002
4.039713e+002, 5.165379e+002
4.044534e+002, 5.166589e+002
4.049355e+002, 5.166632e+002
4.054177e+002, 5.169386e+002
4.058998e+002, 5.175548e+002
4.063819e+002, 5.180974e+002
4.068640e+002, 5.186605e+002
4.073461e+002, 5.190734e+002
4.078282e+002, 5.191965e+002
4.083104e+002, 5.190994e+002
4.087925e+002, 5.189847e+002
4.092746e+002, 5.189933e+002
4.097567e+002, 5.190457e+002
4.102388e+002, 5.187583e+002
4.107209e+002, 5.174283e+002
4.112031e+002, 5.166902e+002
4.116852e+002, 5.170204e+002
4.121673e+002, 5.178004e+002
4.126494e+002, 5.185616e+002
4.131315e+002, 5.191332e+002
4.136136e+002, 5.194357e+002
4.140958e+002, 5.192686e+002
4.145779e+002, 5.184257e+002
4.150600e+002, 5.179431e+002
4.155421e+002, 5.183558e+002
4.160242e+002, 5.186411e+002
4.165063e+002, 5.181487e+002
4.169885e+002, 5.171946e+002
4.174706e+002, 5.165706e+002
4.179527e+002, 5.168007e+002
4.184348e+002, 5.177091e+002
4.189169e+002, 5.187521e+002
4.193990e+002, 5.200519e+002
4.198812e+002, 5.212017e+002
4.203633e+002, 5.219105e+002
4.208454e+002, 5.225046e+002
4.213275e+002, 5.234078e+002
4.218096e+002, 5.247382e+002
4.222917e+002, 5.258475e+002
4.227739e+002, 5.257928e+002
4.232560e+002, 5.246515e+002
4.237381e+002, 5.241019e+002
4.242202e+002, 5.245463e+002
4.247023e+002, 5.254456e+002
4.251844e+002, 5.265237e+002
4.256666e+002, 5.277029e+002
4.261487e+002, 5.287028e+002
4.266308e+002, 5.293083e+002
4.271129e+002, 5.297117e+002
4.275950e+002, 5.300432e+002
4.280771e+002, 5.302760e+002
4.285593e+002, 5.310286e+002
4.290414e+002, 5.330588e+002
4.295235e+002, 5.356047e+002
4.300056e+002, 5.369222e+002
4.304877e+002, 5.364212e+002
4.309698e+002, 5.360344e+002
4.314520e+002, 5.369364e+002
4.319341e+002, 5.385936e+002
4.324162e+002, 5.398716e+002
4.328983e+002, 5.404395e+002
4.333804e+002, 5.409359e+002
4.338625e+002, 5.421544e+002
4.343447e+002, 5.442177e+002
4.348268e+002, 5.460485e+002
4.353089e+002, 5.476855e+002
4.357910e+002, 5.490163e+002
4.362731e+002, 5.496756e+002
4.367552e+002, 5.499002e+002
4.372374e+002, 5.504736e+002
4.377195e+002, 5.518904e+002
4.382016e+002, 5.539134e+002
4.386837e+002, 5.556213e+002
4.391658e+002, 5.565402e+002
4.396479e+002, 5.577558e+002
4.401301e+002, 5.595159e+002
4.406122e+002, 5.615020e+002
4.410943e+002, 5.634580e+002
4.415764e+002, 5.653026e+002
4.420585e+002, 5.670509e+002
4.425406e+002, 5.687032e+002
4.430227e+002, 5.702627e+002
4.435049e+002, 5.717498e+002
4.439870e+002, 5.730643e+002
4.444691e+002, 5.744108e+002
4.449512e+002, 5.757677e+002
4.454333e+002, 5.772070e+002
4.459154e+002, 5.788492e+002
4.463976e+002, 5.807460e+002
4.468797e+002, 5.828649e+002
4.473618e+002, 5.851737e+002
4.478439e+002, 5.877552e+002
4.483260e+002, 5.902700e+002
4.488081e+002, 5.927020e+002
4.492903e+002, 5.950235e+002
4.497724e+002, 5.971028e+002
4.502545e+002, 5.989865e+002
4.507366e+002, 6.010124e+002
4.512187e+002, 6.034918e+002
4.517008e+002, 6.063370e+002
4.521830e+002, 6.091627e+002
4.526651e+002, 6.120146e+002
4.531472e+002, 6.146748e+002
4.536293e+002, 6.166564e+002
4.541114e+002, 6.184467e+002
4.545935e+002, 6.208495e+002
4.550757e+002, 6.243330e+002
4.555578e+002, 6.278503e+002
4.560399e+002, 6.305151e+002
4.565220e+002, 6.324628e+002
4.570041e+002, 6.342300e+002
4.574862e+002, 6.357976e+002
4.579684e+002, 6.376076e+002
4.584505e+002, 6.405224e+002
4.589326e+002, 6.445370e+002
4.594147e+002, 6.480787e+002
4.598968e+002, 6.505563e+002
4.603789e+002, 6.526652e+002
4.608611e+002, 6.549875e+002
4.613432e+002, 6.575233e+002
4.618253e+002, 6.599737e+002
4.623074e+002, 6.621185e+002
4.627895e+002, 6.640977e+002
4.632716e+002, 6.665569e+002
4.637538e+002, 6.700971e+002
4.642359e+002, 6.733014e+002
4.647180e+002, 6.755342e+002
4.652001e+002, 6.776405e+002
4.656822e+002, 6.804296e+002
4.661643e+002, 6.840856e+002
4.666465e+002, 6.883823e+002
4.671286e+002, 6.932208e+002
4.676107e+002, 6.988068e+002
4.680928e+002, 7.032562e+002
4.685749e+002, 7.052707e+002
4.690570e+002, 7.075129e+002
4.695392e+002, 7.106354e+002
4.700213e+002, 7.144423e+002
4.705034e+002, 7.186616e+002
4.709855e+002, 7.231968e+002
4.714676e+002, 7.277810e+002
4.719497e+002, 7.319184e+002
4.724319e+002, 7.355153e+002
4.729140e+002, 7.390690e+002
4.733961e+002, 7.429305e+002
4.738782e+002, 7.464932e+002
4.743603e+002, 7.495515e+002
4.748424e+002, 7.520240e+002
4.753246e+002, 7.537869e+002
4.758067e+002, 7.548320e+002
4.762888e+002, 7.550795e+002
4.767709e+002, 7.543207e+002
4.772530e+002, 7.525224e+002
4.777351e+002, 7.499573e+002
4.782173e+002, 7.466553e+002
4.786994e+002, 7.426380e+002
4.791815e+002, 7.380363e+002
4.796636e+002, 7.328251e+002
4.801457e+002, 7.271656e+002
4.806278e+002, 7.206461e+002
4.811100e+002, 7.138527e+002
4.815920e+002, 7.077371e+002
4.820742e+002, 7.024550e+002
4.825563e+002, 6.980233e+002
4.830384e+002, 6.945446e+002
4.835205e+002, 6.920479e+002
4.840026e+002, 6.897141e+002
4.844847e+002, 6.877149e+002
4.849669e+002, 6.856828e+002
4.854490e+002, 6.831433e+002
4.859311e+002, 6.805252e+002
4.864132e+002, 6.786470e+002
4.868953e+002, 6.778018e+002
4.873774e+002, 6.775132e+002
4.878596e+002, 6.769831e+002
4.883417e+002, 6.759344e+002
4.888238e+002, 6.754167e+002
4.893059e+002, 6.754401e+002
4.897880e+002, 6.758889e+002
4.902701e+002, 6.769831e+002
4.907523e+002, 6.784500e+002
4.912344e+002, 6.797071e+002
4.917165e+002, 6.803598e+002
4.921986e+002, 6.806920e+002
4.926807e+002, 6.814265e+002
4.931628e+002, 6.825038e+002
4.936450e+002, 6.841500e+002
4.941271e+002, 6.865126e+002
4.946092e+002, 6.893920e+002
4.950913e+002, 6.929336e+002
4.955734e+002, 6.970215e+002
4.960555e+002, 7.009721e+002
4.965377e+002, 7.034254e+002
4.970198e+002, 7.054244e+002
4.975019e+002, 7.106697e+002
4.979840e+002, 7.202371e+002
4.984661e+002, 7.282461e+002
4.989482e+002, 7.305468e+002
4.994304e+002, 7.295446e+002
4.999125e+002, 7.299212e+002
5.003946e+002, 7.321765e+002
5.008767e+002, 7.351657e+002
5.013588e+002, 7.382618e+002
5.018409e+002, 7.417391e+002
5.023231e+002, 7.463344e+002
5.028052e+002, 7.522010e+002
5.032873e+002, 7.583510e+002
5.037694e+002, 7.637432e+002
5.042515e+002, 7.683817e+002
5.047336e+002, 7.738854e+002
5.052158e+002, 7.807200e+002
5.056979e+002, 7.877888e+002
5.061800e+002, 7.946053e+002
5.066621e+002, 8.014425e+002
5.071442e+002, 8.086637e+002
5.076263e+002, 8.164063e+002
5.081085e+002, 8.246043e+002
5.085906e+002, 8.331055e+002
5.090727e+002, 8.418987e+002
5.095548e+002, 8.510549e+002
5.100369e+002, 8.610964e+002
5.105190e+002, 8.709474e+002
5.110012e+002, 8.807042e+002
5.114833e+002, 8.899268e+002
5.119654e+002, 8.979169e+002
5.124475e+002, 9.043383e+002
5.129296e+002, 9.093584e+002
5.134117e+002, 9.133215e+002
5.138939e+002, 9.162769e+002
5.143760e+002, 9.180265e+002
5.148581e+002, 9.195315e+002
5.153402e+002, 9.185904e+002
5.158223e+002, 9.130367e+002
5.163044e+002, 9.033730e+002
5.167866e+002, 8.929806e+002
5.172687e+002, 8.834218e+002
5.177508e+002, 8.737765e+002
5.182329e+002, 8.623658e+002
5.187150e+002, 8.493494e+002
5.191971e+002, 8.370603e+002
5.196793e+002, 8.267101e+002
5.201614e+002, 8.175924e+002
5.206435e+002, 8.082514e+002
5.211256e+002, 7.981841e+002
5.216077e+002, 7.892225e+002
5.220898e+002, 7.821226e+002
5.225720e+002, 7.759689e+002
5.230541e+002, 7.699358e+002
5.235362e+002, 7.640762e+002
5.240183e+002, 7.589558e+002
5.245004e+002, 7.550163e+002
5.249825e+002, 7.521732e+002
5.254647e+002, 7.499690e+002
5.259468e+002, 7.493138e+002
5.264289e+002, 7.480166e+002
5.269110e+002, 7.449567e+002
5.273931e+002, 7.418512e+002
5.278752e+002, 7.404229e+002
5.283574e+002, 7.406443e+002
5.288395e+002, 7.408570e+002
5.293216e+002, 7.392772e+002
5.298037e+002, 7.363703e+002
5.302858e+002, 7.351278e+002
5.307679e+002, 7.362207e+002
5.312501e+002, 7.374348e+002
5.317322e+002, 7.382144e+002
5.322143e+002, 7.384352e+002
5.326964e+002, 7.376514e+002
5.331785e+002, 7.356096e+002
5.336606e+002, 7.338759e+002
5.341428e+002, 7.334717e+002
5.346249e+002, 7.340987e+002
5.351070e+002, 7.354022e+002
5.355891e+002, 7.374151e+002
5.360712e+002, 7.390206e+002
5.365533e+002, 7.391757e+002
5.370355e+002, 7.381682e+002
5.375176e+002, 7.378752e+002
5.379997e+002, 7.387559e+002
5.384818e+002, 7.397172e+002
5.389639e+002, 7.404569e+002
5.394460e+002, 7.411082e+002
5.399282e+002, 7.418601e+002
5.404103e+002, 7.427401e+002
5.408924e+002, 7.436092e+002
5.413745e+002, 7.442974e+002
5.418566e+002, 7.447949e+002
5.423387e+002, 7.454553e+002
5.428209e+002, 7.463207e+002
5.433029e+002, 7.473085e+002
5.437850e+002, 7.485154e+002
5.442672e+002, 7.497791e+002
5.447493e+002, 7.509152e+002
5.452314e+002, 7.518772e+002
5.457135e+002, 7.527520e+002
5.461956e+002, 7.536512e+002
5.466777e+002, 7.545627e+002
5.471599e+002, 7.552734e+002
5.476420e+002, 7.556859e+002
5.481241e+002, 7.560803e+002
5.486062e+002, 7.566044e+002
5.490883e+002, 7.572323e+002
5.495704e+002, 7.579295e+002
5.500526e+002, 7.586443e+002
5.505347e+002, 7.595239e+002
5.510168e+002, 7.606734e+002
5.514989e+002, 7.620551e+002
5.519810e+002, 7.637463e+002
5.524631e+002, 7.657776e+002
5.529453e+002, 7.675583e+002
5.534274e+002, 7.684784e+002
5.539095e+002, 7.685331e+002
5.543916e+002, 7.687078e+002
5.548737e+002, 7.685912e+002
5.553558e+002, 7.690549e+002
5.558380e+002, 7.707850e+002
5.563201e+002, 7.730262e+002
5.568022e+002, 7.748514e+002
5.572843e+002, 7.760286e+002
5.577664e+002, 7.769049e+002
5.582485e+002, 7.778320e+002
5.587307e+002, 7.787972e+002
5.592128e+002, 7.800266e+002
5.596949e+002, 7.818598e+002
5.601770e+002, 7.834470e+002
5.606591e+002, 7.842908e+002
5.611412e+002, 7.848599e+002
5.616234e+002, 7.857932e+002
5.621055e+002, 7.872841e+002
5.625876e+002, 7.887560e+002
5.630697e+002, 7.896703e+002
5.635518e+002, 7.901586e+002
5.640339e+002, 7.905179e+002
5.645161e+002, 7.906713e+002
5.649982e+002, 7.913052e+002
5.654803e+002, 7.931263e+002
5.659624e+002, 7.958563e+002
5.664445e+002, 7.981490e+002
5.669266e+002, 7.998742e+002
5.674088e+002, 8.013527e+002
5.678909e+002, 8.025253e+002
5.683730e+002, 8.035889e+002
5.688551e+002, 8.048291e+002
5.693372e+002, 8.062711e+002
5.698193e+002, 8.077422e+002
5.703015e+002, 8.090849e+002
5.707836e+002, 8.102985e+002
5.712657e+002, 8.112780e+002
5.717478e+002, 8.117050e+002
5.722299e+002, 8.123270e+002
5.727120e+002, 8.130922e+002
5.731942e+002, 8.141963e+002
5.736763e+002, 8.160112e+002
5.741584e+002, 8.184992e+002
5.746405e+002, 8.209474e+002
5.751226e+002, 8.227084e+002
5.756047e+002, 8.239105e+002
5.760869e+002, 8.250740e+002
5.765690e+002, 8.261963e+002
5.770511e+002, 8.272747e+002
5.775332e+002, 8.282682e+002
5.780153e+002, 8.292256e+002
5.784974e+002, 8.302421e+002
5.789796e+002, 8.313499e+002
5.794617e+002, 8.323786e+002
5.799438e+002, 8.330203e+002
5.804259e+002, 8.336959e+002
5.809080e+002, 8.351392e+002
5.813901e+002, 8.372314e+002
5.818723e+002, 8.389388e+002
5.823544e+002, 8.395351e+002
5.828365e+002, 8.394131e+002
5.833186e+002, 8.399152e+002
5.838007e+002, 8.416402e+002
5.842828e+002, 8.431109e+002
5.847650e+002, 8.440829e+002
5.852471e+002, 8.450070e+002
5.857292e+002, 8.462753e+002
5.862113e+002, 8.477816e+002
5.866934e+002, 8.490881e+002
5.871755e+002, 8.498571e+002
5.876577e+002, 8.503758e+002
5.881398e+002, 8.513158e+002
5.886219e+002, 8.527364e+002
5.891040e+002, 8.541666e+002
5.895861e+002, 8.553953e+002
5.900682e+002, 8.567174e+002
5.905504e+002, 8.586124e+002
5.910325e+002, 8.609353e+002
5.915146e+002, 8.626981e+002
5.919967e+002, 8.632963e+002
5.924788e+002, 8.634647e+002
5.929609e+002, 8.633438e+002
5.934431e+002, 8.632678e+002
5.939252e+002, 8.645163e+002
5.944073e+002, 8.676613e+002
5.948894e+002, 8.710798e+002
5.953715e+002, 8.722949e+002
5.958536e+002, 8.703890e+002
5.963358e+002, 8.704987e+002
5.968179e+002, 8.743499e+002
5.973000e+002, 8.779908e+002
5.977821e+002, 8.799291e+002
5.982642e+002, 8.808333e+002
5.987463e+002, 8.816826e+002
5.992285e+002, 8.828273e+002
5.997106e+002, 8.841735e+002
6.001927e+002, 8.856409e+002
6.006748e+002, 8.872296e+002
6.011569e+002, 8.889305e+002
6.016390e+002, 8.909667e+002
6.021212e+002, 8.926120e+002
6.026033e+002, 8.927372e+002
6.030854e+002, 8.924161e+002
6.035675e+002, 8.934767e+002
6.040496e+002, 8.966793e+002
6.045317e+002, 8.996422e+002
6.050139e+002, 9.007461e+002
6.054960e+002, 9.010692e+002
6.059781e+002, 9.023004e+002
6.064602e+002, 9.045588e+002
6.069423e+002, 9.067684e+002
6.074244e+002, 9.081315e+002
6.079066e+002, 9.088408e+002
6.083887e+002, 9.097757e+002
6.088708e+002, 9.113154e+002
6.093529e+002, 9.125407e+002
6.098350e+002, 9.130491e+002
6.103171e+002, 9.135487e+002
6.107993e+002, 9.144748e+002
6.112814e+002, 9.158541e+002
6.117635e+002, 9.175855e+002
6.122456e+002, 9.197104e+002
6.127277e+002, 9.219746e+002
6.132098e+002, 9.236745e+002
6.136920e+002, 9.247157e+002
6.141741e+002, 9.265224e+002
6.146562e+002, 9.300762e+002
6.151383e+002, 9.336732e+002
6.156204e+002, 9.355652e+002
6.161025e+002, 9.359794e+002
6.165847e+002, 9.360325e+002
6.170668e+002, 9.350853e+002
6.175489e+002, 9.346953e+002
6.180310e+002, 9.362988e+002
6.185131e+002, 9.391049e+002
6.189952e+002, 9.415964e+002
6.194774e+002, 9.433074e+002
6.199595e+002, 9.444802e+002
6.204416e+002, 9.452921e+002
6.209237e+002, 9.456817e+002
6.214058e+002, 9.467375e+002
6.218879e+002, 9.493398e+002
6.223701e+002, 9.515442e+002
6.228522e+002, 9.525173e+002
6.233343e+002, 9.531479e+002
6.238164e+002, 9.543495e+002
6.242985e+002, 9.562855e+002
6.247806e+002, 9.584930e+002
6.252628e+002, 9.608570e+002
6.257448e+002, 9.631629e+002
6.262269e+002, 9.647408e+002
6.267090e+002, 9.655358e+002
6.271912e+002, 9.660370e+002
6.276733e+002, 9.661370e+002
6.281554e+002, 9.663902e+002
6.286375e+002, 9.682028e+002
6.291196e+002, 9.720526e+002
6.296017e+002, 9.748826e+002
6.300839e+002, 9.756224e+002
6.305660e+002, 9.757639e+002
6.310481e+002, 9.759898e+002
6.315302e+002, 9.764960e+002
6.320123e+002, 9.775413e+002
6.324944e+002, 9.792393e+002
6.329766e+002, 9.813297e+002
6.334587e+002, 9.833806e+002
6.339408e+002, 9.853743e+002
6.344229e+002, 9.874968e+002
6.349050e+002, 9.901863e+002
6.353871e+002, 9.923934e+002
6.358693e+002, 9.933842e+002
6.363514e+002, 9.937458e+002
6.368335e+002, 9.943643e+002
6.373156e+002, 9.954686e+002
6.377977e+002, 9.967393e+002
6.382798e+002, 9.980088e+002
6.387620e+002, 9.992636e+002
6.392441e+002, 1.000415e+003
6.397262e+002, 1.001464e+003
6.402083e+002, 1.002747e+003
6.406904e+002, 1.004511e+003
6.411725e+002, 1.006629e+003
6.416547e+002, 1.008690e+003
6.421368e+002, 1.010697e+003
6.426189e+002, 1.012615e+003
6.431010e+002, 1.014482e+003
6.435831e+002, 1.016217e+003
6.440652e+002, 1.017562e+003
6.445474e+002, 1.018742e+003
6.450295e+002, 1.020398e+003
6.455116e+002, 1.022957e+003
6.459937e+002, 1.025672e+003
6.464758e+002, 1.027228e+003
6.469579e+002, 1.027637e+003
6.474401e+002, 1.028068e+003
6.479222e+002, 1.028663e+003
6.484043e+002, 1.029367e+003
6.488864e+002, 1.030083e+003
6.493685e+002, 1.030886e+003
6.498506e+002, 1.031994e+003
6.503328e+002, 1.033581e+003
6.508149e+002, 1.035243e+003
6.512970e+002, 1.036712e+003
6.517791e+002, 1.038234e+003
6.522612e+002, 1.040264e+003
6.527433e+002, 1.042730e+003
6.532255e+002, 1.044942e+003
6.537076e+002, 1.046334e+003
6.541897e+002, 1.047183e+003
6.546718e+002, 1.048572e+003
6.551539e+002, 1.050747e+003
6.556360e+002, 1.052843e+003
6.561182e+002, 1.054588e+003
6.566003e+002, 1.056347e+003
6.570824e+002, 1.058520e+003
6.575645e+002, 1.060882e+003
6.580466e+002, 1.062697e+003
6.585287e+002, 1.063373e+003
6.590109e+002, 1.063908e+003
6.594930e+002, 1.065444e+003
6.599751e+002, 1.067583e+003
6.604572e+002, 1.069150e+003
6.609393e+002, 1.069872e+003
6.614214e+002, 1.070463e+003
6.619036e+002, 1.071522e+003
6.623857e+002, 1.073029e+003
6.628678e+002, 1.074701e+003
6.633499e+002, 1.077042e+003
6.638320e+002, 1.078894e+003
6.643141e+002, 1.079641e+003
6.647963e+002, 1.080283e+003
6.652784e+002, 1.081670e+003
6.657605e+002, 1.083738e+003
6.662426e+002, 1.085881e+003
6.667247e+002, 1.087802e+003
6.672068e+002, 1.089490e+003
6.676890e+002, 1.090939e+003
6.681711e+002, 1.092152e+003
6.686532e+002, 1.093111e+003
6.691353e+002, 1.093643e+003
6.696174e+002, 1.094318e+003
6.700995e+002, 1.095751e+003
6.705817e+002, 1.097874e+003
6.710638e+002, 1.099823e+003
6.715459e+002, 1.101581e+003
6.720280e+002, 1.103152e+003
6.725101e+002, 1.104318e+003
6.729922e+002, 1.105398e+003
6.734744e+002, 1.106809e+003
6.739565e+002, 1.108540e+003
6.744386e+002, 1.110189e+003
6.749207e+002, 1.111383e+003
6.754028e+002, 1.112396e+003
6.758849e+002, 1.114353e+003
6.763671e+002, 1.117661e+003
6.768492e+002, 1.120020e+003
6.773313e+002, 1.120039e+003
6.778134e+002, 1.120067e+003
6.782955e+002, 1.122108e+003
6.787776e+002, 1.125712e+003
6.792598e+002, 1.129328e+003
6.797419e+002, 1.133465e+003
6.802240e+002, 1.136433e+003
6.807061e+002, 1.136357e+003
6.811882e+002, 1.134808e+003
6.816703e+002, 1.134119e+003
6.821525e+002, 1.134740e+003
6.826346e+002, 1.136174e+003
6.831167e+002, 1.138111e+003
6.835988e+002, 1.140410e+003
6.840809e+002, 1.142355e+003
6.845630e+002, 1.143730e+003
6.850452e+002, 1.145216e+003
6.855273e+002, 1.146827e+003
6.860094e+002, 1.148627e+003
6.864915e+002, 1.150730e+003
6.869736e+002, 1.153052e+003
6.874557e+002, 1.155430e+003
6.879379e+002, 1.158073e+003
6.884200e+002, 1.160242e+003
6.889021e+002, 1.160633e+003
6.893842e+002, 1.160134e+003
6.898663e+002, 1.161039e+003
6.903484e+002, 1.163734e+003
6.908306e+002, 1.166542e+003
6.913127e+002, 1.168108e+003
6.917948e+002, 1.168743e+003
6.922769e+002, 1.170054e+003
6.927590e+002, 1.172484e+003
6.932411e+002, 1.174931e+003
6.937233e+002, 1.177989e+003
6.942054e+002, 1.180470e+003
6.946875e+002, 1.181197e+003
6.951696e+002, 1.180793e+003
6.956517e+002, 1.180860e+003
6.961339e+002, 1.182140e+003
6.966160e+002, 1.184014e+003
6.970981e+002, 1.185908e+003
6.975802e+002, 1.187828e+003
6.980623e+002, 1.189771e+003
6.985444e+002, 1.191708e+003
6.990266e+002, 1.193949e+003
6.995087e+002, 1.196901e+003
6.999908e+002, 1.200200e+003
7.004729e+002, 1.202423e+003
7.009550e+002, 1.202484e+003
7.014371e+002, 1.203078e+003
7.019193e+002, 1.204222e+003
7.024014e+002, 1.205909e+003
7.028835e+002, 1.208536e+003
7.033656e+002, 1.211639e+003
7.038477e+002, 1.214368e+003
7.043298e+002, 1.216347e+003
7.048120e+002, 1.217829e+003
7.052941e+002, 1.218947e+003
7.057762e+002, 1.219785e+003
7.062583e+002, 1.220728e+003
7.067404e+002, 1.221809e+003
7.072225e+002, 1.223035e+003
7.077046e+002, 1.224451e+003
7.081867e+002, 1.225991e+003
7.086688e+002, 1.227441e+003
7.091509e+002, 1.228562e+003
7.096331e+002, 1.230190e+003
7.101152e+002, 1.232876e+003
7.105973e+002, 1.235597e+003
7.110794e+002, 1.237705e+003
7.115615e+002, 1.239411e+003
7.120436e+002, 1.241175e+003
7.125258e+002, 1.243170e+003
7.130079e+002, 1.245128e+003
7.134900e+002, 1.246534e+003
7.139721e+002, 1.247580e+003
7.144542e+002, 1.249634e+003
7.149363e+002, 1.252979e+003
7.154185e+002, 1.255630e+003
7.159006e+002, 1.256244e+003
7.163827e+002, 1.256098e+003
7.168648e+002, 1.257507e+003
7.173469e+002, 1.260775e+003
7.178290e+002, 1.263571e+003
7.183112e+002, 1.265400e+003
7.187933e+002, 1.267032e+003
7.192754e+002, 1.269111e+003
7.197575e+002, 1.271127e+003
7.202396e+002, 1.272111e+003
7.207217e+002, 1.271931e+003
7.212039e+002, 1.271690e+003
7.216860e+002, 1.272268e+003
7.221681e+002, 1.273700e+003
7.226502e+002, 1.276402e+003
7.231323e+002, 1.280602e+003
7.236144e+002, 1.284351e+003
7.240966e+002, 1.287042e+003
7.245787e+002, 1.289017e+003
7.250608e+002, 1.290459e+003
7.255429e+002, 1.291398e+003
7.260250e+002, 1.292566e+003
7.265071e+002, 1.294327e+003
7.269893e+002, 1.295957e+003
7.274714e+002, 1.296645e+003
7.279535e+002, 1.297403e+003
7.284356e+002, 1.299802e+003
7.289177e+002, 1.303663e+003
7.293998e+002, 1.307039e+003
7.298820e+002, 1.308375e+003
7.303641e+002, 1.308536e+003
7.308462e+002, 1.309382e+003
7.313283e+002, 1.310910e+003
7.318104e+002, 1.313122e+003
7.322925e+002, 1.316241e+003
7.327747e+002, 1.319524e+003
7.332568e+002, 1.322574e+003
7.337389e+002, 1.325273e+003
7.342210e+002, 1.327165e+003
7.347031e+002, 1.327360e+003
7.351852e+002, 1.328091e+003
7.356674e+002, 1.330023e+003
7.361495e+002, 1.332486e+003
7.366316e+002, 1.335124e+003
7.371137e+002, 1.337799e+003
7.375958e+002, 1.340339e+003
7.380779e+002, 1.342671e+003
7.385601e+002, 1.344959e+003
7.390422e+002, 1.347690e+003
7.395243e+002, 1.350738e+003
7.400064e+002, 1.352567e+003
7.404885e+002, 1.352604e+003
7.409706e+002, 1.353583e+003
7.414528e+002, 1.357591e+003
7.419349e+002, 1.363104e+003
7.424170e+002, 1.366636e+003
7.428991e+002, 1.367622e+003
7.433812e+002, 1.368850e+003
7.438633e+002, 1.370910e+003
7.443455e+002, 1.372899e+003
7.448276e+002, 1.374412e+003
7.453097e+002, 1.375520e+003
7.457918e+002, 1.375998e+003
7.462739e+002, 1.375938e+003
7.467560e+002, 1.376689e+003
7.472382e+002, 1.380723e+003
7.477203e+002, 1.386386e+003
7.482024e+002, 1.387761e+003
7.486845e+002, 1.384719e+003
7.491666e+002, 1.382877e+003
7.496487e+002, 1.384014e+003
7.501309e+002, 1.387337e+003
7.506130e+002, 1.392647e+003
7.510951e+002, 1.400143e+003
7.515772e+002, 1.404942e+003
7.520593e+002, 1.404102e+003
7.525414e+002, 1.404567e+003
7.530236e+002, 1.410070e+003
7.535057e+002, 1.415901e+003
7.539878e+002, 1.416916e+003
7.544699e+002, 1.413814e+003
7.549520e+002, 1.411625e+003
7.554341e+002, 1.413566e+003
7.559163e+002, 1.416929e+003
7.563984e+002, 1.417592e+003
7.568805e+002, 1.416296e+003
7.573626e+002, 1.416593e+003
7.578447e+002, 1.419175e+003
7.583268e+002, 1.421461e+003
7.588090e+002, 1.421346e+003
7.592911e+002, 1.419863e+003
7.597732e+002, 1.420506e+003
7.602553e+002, 1.425118e+003
7.607374e+002, 1.428585e+003
7.612195e+002, 1.430570e+003
7.617017e+002, 1.431896e+003
7.621838e+002, 1.432664e+003
7.626659e+002, 1.433159e+003
7.631480e+002, 1.433645e+003
7.636301e+002, 1.434181e+003
7.641122e+002, 1.435189e+003
7.645944e+002, 1.437370e+003
7.650765e+002, 1.440018e+003
7.655586e+002, 1.441924e+003
7.660407e+002, 1.443189e+003
7.665228e+002, 1.444579e+003
7.670049e+002, 1.446387e+003
7.674871e+002, 1.448430e+003
7.679692e+002, 1.450461e+003
7.684513e+002, 1.452476e+003
7.689334e+002, 1.454538e+003
7.694155e+002, 1.456217e+003
7.698976e+002, 1.458633e+003
7.703798e+002, 1.463145e+003
7.708619e+002, 1.467562e+003
7.713440e+002, 1.469915e+003
7.718261e+002, 1.470465e+003
7.723082e+002, 1.471053e+003
7.727903e+002, 1.472467e+003
7.732725e+002, 1.473913e+003
7.737546e+002, 1.474322e+003
7.742367e+002, 1.474633e+003
7.747188e+002, 1.476750e+003
7.752009e+002, 1.480571e+003
7.756830e+002, 1.483999e+003
7.761652e+002, 1.485651e+003
7.766473e+002, 1.486127e+003
7.771294e+002, 1.486693e+003
7.776115e+002, 1.487289e+003
7.780936e+002, 1.488480e+003
7.785757e+002, 1.490621e+003
7.790579e+002, 1.492783e+003
7.795400e+002, 1.494327e+003
7.800221e+002, 1.495638e+003
7.805042e+002, 1.497298e+003
7.809863e+002, 1.499334e+003
7.814684e+002, 1.501730e+003
7.819506e+002, 1.504876e+003
7.824327e+002, 1.507982e+003
7.829148e+002, 1.510162e+003
7.833969e+002, 1.512096e+003
7.838790e+002, 1.515297e+003
7.843611e+002, 1.519942e+003
7.848433e+002, 1.524160e+003
7.853254e+002, 1.526029e+003
7.858075e+002, 1.526286e+003
7.862896e+002, 1.526956e+003
7.867717e+002, 1.528032e+003
7.872538e+002, 1.529676e+003
7.877360e+002, 1.532046e+003
7.882181e+002, 1.534662e+003
7.887002e+002, 1.537210e+003
7.891823e+002, 1.539638e+003
7.896644e+002, 1.541417e+003
7.901465e+002, 1.541849e+003
7.906286e+002, 1.542683e+003
7.911107e+002, 1.543936e+003
7.915928e+002, 1.545740e+003
7.920750e+002, 1.548601e+003
7.925571e+002, 1.551999e+003
7.930392e+002, 1.554804e+003
7.935213e+002, 1.556526e+003
7.940034e+002, 1.558308e+003
7.944855e+002, 1.561612e+003
7.949677e+002, 1.565471e+003
7.954498e+002, 1.567903e+003
7.959319e+002, 1.568992e+003
7.964140e+002, 1.570015e+003
7.968961e+002, 1.571504e+003
7.973782e+002, 1.573069e+003
7.978604e+002, 1.573923e+003
7.983425e+002, 1.573943e+003
7.988246e+002, 1.576515e+003
7.993067e+002, 1.583735e+003
7.997888e+002, 1.589708e+003
8.002709e+002, 1.592792e+003
8.007531e+002, 1.594205e+003
8.012352e+002, 1.594027e+003
8.017173e+002, 1.592718e+003
8.021994e+002, 1.592208e+003
8.026815e+002, 1.593199e+003
8.031636e+002, 1.594802e+003
8.036458e+002, 1.596806e+003
8.041279e+002, 1.599020e+003
8.046100e+002, 1.601171e+003
8.050921e+002, 1.603301e+003
8.055742e+002, 1.605757e+003
8.060563e+002, 1.608734e+003
8.065385e+002, 1.611852e+003
8.070206e+002, 1.614437e+003
8.075027e+002, 1.616543e+003
8.079848e+002, 1.618780e+003
8.084669e+002, 1.621205e+003
8.089490e+002, 1.623701e+003
8.094312e+002, 1.626327e+003
8.099133e+002, 1.628828e+003
8.103954e+002, 1.630698e+003
8.108775e+002, 1.631760e+003
8.113596e+002, 1.633398e+003
8.118417e+002, 1.636363e+003
8.123239e+002, 1.638938e+003
8.128060e+002, 1.640074e+003
8.132881e+002, 1.641028e+003
8.137702e+002, 1.643195e+003
8.142523e+002, 1.646394e+003
8.147344e+002, 1.649270e+003
8.152166e+002, 1.651109e+003
8.156987e+002, 1.652452e+003
8.161808e+002, 1.653730e+003
8.166629e+002, 1.654944e+003
8.171450e+002, 1.655975e+003
8.176271e+002, 1.656865e+003
8.181093e+002, 1.658021e+003
8.185914e+002, 1.659640e+003
8.190735e+002, 1.661811e+003
8.195556e+002, 1.664965e+003
8.200377e+002, 1.669471e+003
8.205198e+002, 1.672454e+003
8.210020e+002, 1.673142e+003
8.214841e+002, 1.673757e+003
8.219662e+002, 1.674758e+003
8.224483e+002, 1.676346e+003
8.229304e+002, 1.678945e+003
8.234125e+002, 1.682516e+003
8.238947e+002, 1.685854e+003
8.243768e+002, 1.689371e+003
8.248589e+002, 1.691838e+003
8.253410e+002, 1.691537e+003
8.258231e+002, 1.690717e+003
8.263052e+002, 1.692217e+003
8.267874e+002, 1.695781e+003
8.272695e+002, 1.699061e+003
8.277516e+002, 1.700742e+003
8.282337e+002, 1.701667e+003
8.287158e+002, 1.702995e+003
8.291979e+002, 1.704597e+003
8.296801e+002, 1.705612e+003
8.301622e+002, 1.705947e+003
8.306443e+002, 1.707633e+003
8.311264e+002, 1.712114e+003
8.316085e+002, 1.717120e+003
8.320906e+002, 1.718672e+003
8.325728e+002, 1.716023e+003
8.330549e+002, 1.715229e+003
8.335370e+002, 1.717187e+003
8.340191e+002, 1.719736e+003
8.345012e+002, 1.722597e+003
8.349833e+002, 1.725629e+003
8.354655e+002, 1.728959e+003
8.359476e+002, 1.732428e+003
8.364297e+002, 1.735382e+003
8.369118e+002, 1.737258e+003
8.373939e+002, 1.739179e+003
8.378760e+002, 1.742139e+003
8.383582e+002, 1.745249e+003
8.388403e+002, 1.747297e+003
8.393224e+002, 1.748506e+003
8.398045e+002, 1.750082e+003
8.402866e+002, 1.752600e+003
8.407687e+002, 1.755058e+003
8.412509e+002, 1.755489e+003
8.417330e+002, 1.754482e+003
8.422151e+002, 1.755832e+003
8.426972e+002, 1.759757e+003
8.431793e+002, 1.763133e+003
8.436614e+002, 1.764687e+003
8.441436e+002, 1.765606e+003
8.446257e+002, 1.767159e+003
8.451078e+002, 1.769330e+003
8.455899e+002, 1.771825e+003
8.460720e+002, 1.775012e+003
8.465541e+002, 1.777922e+003
8.470363e+002, 1.780325e+003
8.475184e+002, 1.782554e+003
8.480005e+002, 1.785046e+003
8.484826e+002, 1.787490e+003
8.489647e+002, 1.789124e+003
8.494468e+002, 1.789611e+003
8.499290e+002, 1.789935e+003
8.504111e+002, 1.790256e+003
8.508932e+002, 1.790983e+003
8.513753e+002, 1.792797e+003
8.518574e+002, 1.795330e+003
8.523395e+002, 1.797668e+003
8.528217e+002, 1.799549e+003
8.533038e+002, 1.801531e+003
8.537859e+002, 1.804247e+003
8.542680e+002, 1.807380e+003
8.547501e+002, 1.809803e+003
8.552322e+002, 1.811528e+003
8.557144e+002, 1.813416e+003
8.561965e+002, 1.815761e+003
8.566786e+002, 1.817679e+003
8.571607e+002, 1.818324e+003
8.576428e+002, 1.818152e+003
8.581249e+002, 1.818608e+003
8.586071e+002, 1.819444e+003
8.590892e+002, 1.821445e+003
8.595713e+002, 1.826245e+003
8.600534e+002, 1.830243e+003
8.605355e+002, 1.830848e+003
8.610176e+002, 1.830709e+003
8.614998e+002, 1.833783e+003
8.619819e+002, 1.840244e+003
8.624640e+002, 1.844948e+003
8.629461e+002, 1.843930e+003
8.634282e+002, 1.842566e+003
8.639103e+002, 1.844922e+003
8.643925e+002, 1.849010e+003
8.648746e+002, 1.852298e+003
8.653567e+002, 1.854396e+003
8.658388e+002, 1.855610e+003
8.663209e+002, 1.856040e+003
8.668030e+002, 1.856326e+003
8.672852e+002, 1.857554e+003
8.677673e+002, 1.859532e+003
8.682494e+002, 1.861283e+003
8.687315e+002, 1.862750e+003
8.692136e+002, 1.863823e+003
8.696957e+002, 1.864299e+003
8.701779e+002, 1.864951e+003
8.706600e+002, 1.866905e+003
8.711421e+002, 1.870176e+003
8.716242e+002, 1.872961e+003
8.721063e+002, 1.875050e+003
8.725884e+002, 1.877015e+003
8.730705e+002, 1.878648e+003
8.735526e+002, 1.880435e+003
8.740347e+002, 1.882984e+003
8.745168e+002, 1.885859e+003
8.749990e+002, 1.887933e+003
8.754811e+002, 1.888609e+003
8.759632e+002, 1.889716e+003
8.764453e+002, 1.892630e+003
8.769274e+002, 1.895481e+003
8.774095e+002, 1.896751e+003
8.778917e+002, 1.897026e+003
8.783738e+002, 1.897192e+003
8.788559e+002, 1.897592e+003
8.793380e+002, 1.898584e+003
8.798201e+002, 1.900499e+003
8.803022e+002, 1.903119e+003
8.807844e+002, 1.906173e+003
8.812665e+002, 1.909634e+003
8.817486e+002, 1.913855e+003
8.822307e+002, 1.918763e+003
8.827128e+002, 1.922088e+003
8.831949e+002, 1.922174e+003
8.836771e+002, 1.920684e+003
8.841592e+002, 1.921177e+003
8.846413e+002, 1.923983e+003
8.851234e+002, 1.926256e+003
8.856055e+002, 1.927903e+003
8.860876e+002, 1.929156e+003
8.865698e+002, 1.929578e+003
8.870519e+002, 1.930166e+003
8.875340e+002, 1.932383e+003
8.880161e+002, 1.936074e+003
8.884982e+002, 1.938931e+003
8.889803e+002, 1.940228e+003
8.894625e+002, 1.941620e+003
8.899446e+002, 1.943011e+003
8.904267e+002, 1.944960e+003
8.909088e+002, 1.948311e+003
8.913909e+002, 1.952396e+003
8.918730e+002, 1.955857e+003
8.923552e+002, 1.958337e+003
8.928373e+002, 1.960635e+003
8.933194e+002, 1.964399e+003
8.938015e+002, 1.967308e+003
8.942836e+002, 1.965624e+003
8.947657e+002, 1.961502e+003
8.952479e+002, 1.959289e+003
8.957300e+002, 1.959957e+003
8.962121e+002, 1.962602e+003
8.966942e+002, 1.966903e+003
8.971763e+002, 1.971490e+003
8.976584e+002, 1.972874e+003
8.981406e+002, 1.971525e+003
8.986227e+002, 1.972679e+003
8.991048e+002, 1.977019e+003
8.995869e+002, 1.981088e+003
9.000690e+002, 1.983301e+003
9.005511e+002, 1.984300e+003
9.010333e+002, 1.984986e+003
9.015154e+002, 1.985350e+003
9.019975e+002, 1.985397e+003
9.024796e+002, 1.983969e+003
9.029617e+002, 1.984407e+003
9.034438e+002, 1.988515e+003
9.039260e+002, 1.993562e+003
9.044081e+002, 1.998419e+003
9.048902e+002, 2.002701e+003
9.053723e+002, 2.005168e+003
9.058544e+002, 2.004882e+003
9.063365e+002, 2.005099e+003
9.068187e+002, 2.006562e+003
9.073008e+002, 2.008790e+003
9.077829e+002, 2.012308e+003
9.082650e+002, 2.015956e+003
9.087471e+002, 2.017902e+003
9.092292e+002, 2.018112e+003
9.097114e+002, 2.018629e+003
9.101935e+002, 2.021032e+003
9.106756e+002, 2.023609e+003
9.111577e+002, 2.024437e+003
9.116398e+002, 2.024270e+003
9.121219e+002, 2.024164e+003
9.126041e+002, 2.024432e+003
9.130862e+002, 2.025860e+003
9.135683e+002, 2.028833e+003
9.140504e+002, 2.031898e+003
9.145325e+002, 2.032844e+003
9.150146e+002, 2.032156e+003
9.154968e+002, 2.032698e+003
9.159789e+002, 2.034530e+003
9.164610e+002, 2.036363e+003
9.169431e+002, 2.037929e+003
9.174252e+002, 2.039217e+003
9.179073e+002, 2.040018e+003
9.183895e+002, 2.040720e+003
9.188716e+002, 2.042791e+003
9.193537e+002, 2.046791e+003
9.198358e+002, 2.050786e+003
9.203179e+002, 2.055205e+003
9.208000e+002, 2.058945e+003
9.212822e+002, 2.061547e+003
9.217643e+002, 2.063219e+003
9.222464e+002, 2.063785e+003
9.227285e+002, 2.063311e+003
9.232106e+002, 2.063443e+003
9.236927e+002, 2.064191e+003
9.241749e+002, 2.065838e+003
9.246570e+002, 2.069305e+003
9.251391e+002, 2.072952e+003
9.256212e+002, 2.075528e+003
9.261033e+002, 2.077261e+003
9.265854e+002, 2.078832e+003
9.270676e+002, 2.080453e+003
9.275497e+002, 2.081914e+003
9.280318e+002, 2.083117e+003
9.285139e+002, 2.084077e+003
9.289960e+002, 2.084088e+003
9.294781e+002, 2.084145e+003
9.299603e+002, 2.086597e+003
9.304424e+002, 2.091396e+003
9.309245e+002, 2.096128e+003
9.314066e+002, 2.099340e+003
9.318887e+002, 2.101196e+003
9.323708e+002, 2.101012e+003
9.328530e+002, 2.099618e+003
9.333351e+002, 2.100978e+003
9.338172e+002, 2.105099e+003
9.342993e+002, 2.108505e+003
9.347814e+002, 2.109813e+003
9.352635e+002, 2.110675e+003
9.357457e+002, 2.112863e+003
9.362278e+002, 2.116183e+003
9.367099e+002, 2.119627e+003
9.371920e+002, 2.123318e+003
9.376741e+002, 2.126597e+003
9.381563e+002, 2.129513e+003
9.386384e+002, 2.131789e+003
9.391205e+002, 2.133639e+003
9.396026e+002, 2.134450e+003
9.400847e+002, 2.132470e+003
9.405668e+002, 2.126581e+003
9.410490e+002, 2.124566e+003
9.415311e+002, 2.130102e+003
9.420132e+002, 2.134347e+003
9.424953e+002, 2.133932e+003
9.429774e+002, 2.133243e+003
9.434595e+002, 2.136419e+003
9.439417e+002, 2.141826e+003
9.444238e+002, 2.144671e+003
9.449059e+002, 2.143286e+003
9.453880e+002, 2.142242e+003
9.458701e+002, 2.142744e+003
9.463522e+002, 2.144552e+003
9.468344e+002, 2.148635e+003
9.473165e+002, 2.153292e+003
9.477986e+002, 2.156532e+003
9.482807e+002, 2.157991e+003
9.487628e+002, 2.157893e+003
9.492449e+002, 2.155634e+003
9.497271e+002, 2.153737e+003
9.502092e+002, 2.154701e+003
9.506913e+002, 2.157525e+003
9.511734e+002, 2.161467e+003
9.516555e+002, 2.165812e+003
9.521376e+002, 2.168500e+003
9.526198e+002, 2.168993e+003
9.531019e+002, 2.169583e+003
9.535840e+002, 2.172700e+003
9.540661e+002, 2.177198e+003
9.545482e+002, 2.180177e+003
9.550303e+002, 2.181898e+003
9.555124e+002, 2.184235e+003
9.559945e+002, 2.187459e+003
9.564766e+002, 2.190106e+003
9.569587e+002, 2.191289e+003
9.574409e+002, 2.192099e+003
9.579230e+002, 2.194304e+003
9.584051e+002, 2.197892e+003
9.588872e+002, 2.201691e+003
9.593693e+002, 2.206118e+003
9.598514e+002, 2.208941e+003
9.603336e+002, 2.209371e+003
9.608157e+002, 2.208693e+003
9.612978e+002, 2.207180e+003
9.617799e+002, 2.205676e+003
9.622620e+002, 2.206789e+003
9.627441e+002, 2.211952e+003
9.632263e+002, 2.215275e+003
9.637084e+002, 2.214755e+003
9.641905e+002, 2.215120e+003
9.646726e+002, 2.217763e+003
9.651547e+002, 2.221666e+003
9.656368e+002, 2.227401e+003
9.661190e+002, 2.233904e+003
9.666011e+002, 2.236360e+003
9.670832e+002, 2.231253e+003
9.675653e+002, 2.228069e+003
9.680474e+002, 2.229964e+003
9.685295e+002, 2.233071e+003
9.690117e+002, 2.235634e+003
9.694938e+002, 2.237811e+003
9.699759e+002, 2.239900e+003
9.704580e+002, 2.241992e+003
9.709401e+002, 2.244237e+003
9.714222e+002, 2.246975e+003
9.719044e+002, 2.249435e+003
9.723865e+002, 2.251335e+003
9.728686e+002, 2.252564e+003
9.733507e+002, 2.252487e+003
9.738328e+002, 2.251750e+003
9.743149e+002, 2.251835e+003
9.747971e+002, 2.253125e+003
9.752792e+002, 2.254516e+003
9.757613e+002, 2.254620e+003
9.762434e+002, 2.254913e+003
9.767255e+002, 2.258168e+003
9.772076e+002, 2.262853e+003
9.776898e+002, 2.265410e+003
9.781719e+002, 2.265855e+003
9.786540e+002, 2.266638e+003
9.791361e+002, 2.268927e+003
9.796182e+002, 2.271800e+003
9.801003e+002, 2.274088e+003
9.805825e+002, 2.276051e+003
9.810646e+002, 2.278742e+003
9.815467e+002, 2.281995e+003
9.820288e+002, 2.284326e+003
9.825109e+002, 2.285440e+003
9.829930e+002, 2.286510e+003
9.834752e+002, 2.288344e+003
9.839573e+002, 2.290347e+003
9.844394e+002, 2.291104e+003
9.849215e+002, 2.290597e+003
9.854036e+002, 2.292001e+003
9.858857e+002, 2.295806e+003
9.863679e+002, 2.298395e+003
9.868500e+002, 2.298306e+003
9.873321e+002, 2.298529e+003
9.878142e+002, 2.301805e+003
9.882963e+002, 2.306954e+003
9.887784e+002, 2.310283e+003
9.892606e+002, 2.311473e+003
9.897427e+002, 2.311755e+003
9.902248e+002, 2.310078e+003
9.907069e+002, 2.309491e+003
9.911890e+002, 2.310942e+003
9.916711e+002, 2.313880e+003
9.921533e+002, 2.318365e+003
9.926354e+002, 2.324022e+003
9.931175e+002, 2.328612e+003
9.935996e+002, 2.332894e+003
9.940817e+002, 2.334750e+003
9.945638e+002, 2.331294e+003
9.950460e+002, 2.328855e+003
9.955281e+002, 2.331068e+003
9.960102e+002, 2.334684e+003
9.964923e+002, 2.335791e+003
9.969744e+002, 2.334698e+003
9.974565e+002, 2.335093e+003
9.979387e+002, 2.338714e+003
9.984208e+002, 2.342105e+003
9.989029e+002, 2.343994e+003
9.993850e+002, 2.345805e+003
9.998671e+002, 2.349227e+003
1.000349e+003, 2.352690e+003
1.000831e+003, 2.352980e+003
1.001313e+003, 2.350273e+003
1.001796e+003, 2.349784e+003
1.002278e+003, 2.354842e+003
1.002760e+003, 2.360806e+003
1.003242e+003, 2.365643e+003
1.003724e+003, 2.369797e+003
1.004206e+003, 2.374761e+003
1.004688e+003, 2.379039e+003
1.005170e+003, 2.378893e+003
1.005653e+003, 2.373957e+003
1.006135e+003, 2.369801e+003
1.006617e+003, 2.369788e+003
1.007099e+003, 2.372192e+003
1.007581e+003, 2.377215e+003
1.008063e+003, 2.382490e+003
1.008545e+003, 2.384255e+003
1.009027e+003, 2.383158e+003
1.009509e+003, 2.381634e+003
1.009992e+003, 2.380693e+003
1.010474e+003, 2.381062e+003
1.010956e+003, 2.384012e+003
1.011438e+003, 2.387954e+003
1.011920e+003, 2.390894e+003
1.012402e+003, 2.392827e+003
1.012884e+003, 2.393207e+003
1.013366e+003, 2.392452e+003
1.013849e+003, 2.392546e+003
1.014331e+003, 2.394350e+003
1.014813e+003, 2.396857e+003
1.015295e+003, 2.398824e+003
1.015777e+003, 2.400744e+003
1.016259e+003, 2.404285e+003
1.016741e+003, 2.408972e+003
1.017223e+003, 2.412706e+003
1.017705e+003, 2.415116e+003
1.018188e+003, 2.415895e+003
1.018670e+003, 2.414802e+003
1.019152e+003, 2.413363e+003
1.019634e+003, 2.413666e+003
1.020116e+003, 2.415451e+003
1.020598e+003, 2.417781e+003
1.021080e+003, 2.420597e+003
1.021562e+003, 2.422398e+003
1.022044e+003, 2.422874e+003
1.022527e+003, 2.423148e+003
1.023009e+003, 2.423746e+003
1.023491e+003, 2.425150e+003
1.023973e+003, 2.428618e+003
1.024455e+003, 2.433878e+003
1.024937e+003, 2.435699e+003
1.025419e+003, 2.433488e+003
1.025901e+003, 2.433167e+003
1.026384e+003, 2.436328e+003
1.026866e+003, 2.439186e+003
1.027348e+003, 2.439223e+003
1.027830e+003, 2.437899e+003
1.028312e+003, 2.437932e+003
1.028794e+003, 2.439402e+003
1.029276e+003, 2.440445e+003
1.029758e+003, 2.440832e+003
1.030240e+003, 2.441671e+003
1.030723e+003, 2.443288e+003
1.031205e+003, 2.445140e+003
1.031687e+003, 2.446883e+003
1.032169e+003, 2.448595e+003
1.032651e+003, 2.450283e+003
1.033133e+003, 2.451731e+003
1.033615e+003, 2.454903e+003
1.034097e+003, 2.460570e+003
1.034579e+003, 2.466372e+003
1.035062e+003, 2.472972e+003
1.035544e+003, 2.477829e+003
1.036026e+003, 2.478316e+003
1.036508e+003, 2.476403e+003
1.036990e+003, 2.476221e+003
1.037472e+003, 2.478068e+003
1.037954e+003, 2.479917e+003
1.038436e+003, 2.482146e+003
1.038919e+003, 2.483736e+003
1.039401e+003, 2.484478e+003
1.039883e+003, 2.484579e+003
1.040365e+003, 2.483855e+003
1.040847e+003, 2.482703e+003
1.041329e+003, 2.481766e+003
1.041811e+003, 2.480844e+003
1.042293e+003, 2.481306e+003
1.042776e+003, 2.484105e+003
1.043258e+003, 2.487042e+003
1.043740e+003, 2.490852e+003
1.044222e+003, 2.493579e+003
1.044704e+003, 2.492936e+003
1.045186e+003, 2.490660e+003
1.045668e+003, 2.490202e+003
1.046150e+003, 2.492026e+003
1.046632e+003, 2.493865e+003
1.047115e+003, 2.494728e+003
1.047597e+003, 2.496603e+003
1.048079e+003, 2.501121e+003
1.048561e+003, 2.505659e+003
1.049043e+003, 2.509044e+003
1.049525e+003, 2.510922e+003
1.050007e+003, 2.509904e+003
1.050489e+003, 2.505321e+003
1.050971e+003, 2.504204e+003
1.051454e+003, 2.510697e+003
1.051936e+003, 2.517011e+003
1.052418e+003, 2.520993e+003
1.052900e+003, 2.523847e+003
1.053382e+003, 2.526896e+003
1.053864e+003, 2.529323e+003
1.054346e+003, 2.528906e+003
1.054828e+003, 2.525241e+003
1.055311e+003, 2.523223e+003
1.055793e+003, 2.525146e+003
1.056275e+003, 2.527564e+003
1.056757e+003, 2.530194e+003
1.057239e+003, 2.532040e+003
1.057721e+003, 2.531548e+003
1.058203e+003, 2.530100e+003
1.058685e+003, 2.529977e+003
1.059167e+003, 2.531544e+003
1.059650e+003, 2.533999e+003
1.060132e+003, 2.537692e+003
1.060614e+003, 2.541412e+003
1.061096e+003, 2.545447e+003
1.061578e+003, 2.548619e+003
1.062060e+003, 2.549457e+003
1.062542e+003, 2.549085e+003
1.063024e+003, 2.549317e+003
1.063506e+003, 2.550428e+003
1.063989e+003, 2.551682e+003
1.064471e+003, 2.552640e+003
1.064953e+003, 2.553919e+003
1.065435e+003, 2.556648e+003
1.065917e+003, 2.558915e+003
1.066399e+003, 2.558727e+003
1.066881e+003, 2.557350e+003
1.067363e+003, 2.556946e+003
1.067846e+003, 2.557713e+003
1.068328e+003, 2.558004e+003
1.068810e+003, 2.556008e+003
1.069292e+003, 2.555558e+003
1.069774e+003, 2.560211e+003
1.070256e+003, 2.565212e+003
1.070738e+003, 2.566923e+003
1.071220e+003, 2.566753e+003
1.071703e+003, 2.566608e+003
1.072185e+003, 2.566956e+003
1.072667e+003, 2.568230e+003
1.073149e+003, 2.571125e+003
1.073631e+003, 2.573711e+003
1.074113e+003, 2.574527e+003
1.074595e+003, 2.575289e+003
1.075077e+003, 2.577730e+003
1.075559e+003, 2.580560e+003
1.076042e+003, 2.581834e+003
1.076524e+003, 2.581663e+003
1.077006e+003, 2.581767e+003
1.077488e+003, 2.582828e+003
1.077970e+003, 2.583906e+003
1.078452e+003, 2.584080e+003
1.078934e+003, 2.584666e+003
1.079416e+003, 2.586955e+003
1.079898e+003, 2.589899e+003
1.080380e+003, 2.592738e+003
1.080863e+003, 2.595009e+003
1.081345e+003, 2.595565e+003
1.081827e+003, 2.593573e+003
1.082309e+003, 2.592271e+003
1.082791e+003, 2.593295e+003
1.083273e+003, 2.595217e+003
1.083755e+003, 2.597534e+003
1.084237e+003, 2.599985e+003
1.084720e+003, 2.602417e+003
1.085202e+003, 2.604744e+003
1.085684e+003, 2.606681e+003
1.086166e+003, 2.608023e+003
1.086648e+003, 2.610143e+003
1.087130e+003, 2.615129e+003
1.087612e+003, 2.619141e+003
1.088094e+003, 2.619227e+003
1.088577e+003, 2.618279e+003
1.089059e+003, 2.619395e+003
1.089541e+003, 2.621563e+003
1.090023e+003, 2.621505e+003
1.090505e+003, 2.618548e+003
1.090987e+003, 2.618024e+003
1.091469e+003, 2.625439e+003
1.091951e+003, 2.631067e+003
1.092433e+003, 2.629078e+003
1.092916e+003, 2.625367e+003
1.093398e+003, 2.624180e+003
1.093880e+003, 2.624790e+003
1.094362e+003, 2.625454e+003
1.094844e+003, 2.625917e+003
1.095326e+003, 2.626742e+003
1.095808e+003, 2.629023e+003
1.096290e+003, 2.630342e+003
1.096772e+003, 2.628004e+003
1.097255e+003, 2.626501e+003
1.097737e+003, 2.629750e+003
1.098219e+003, 2.634911e+003
1.098701e+003, 2.638051e+003
1.099183e+003, 2.639044e+003
1.099665e+003, 2.640255e+003
1.100147e+003, 2.642278e+003
1.100629e+003, 2.644396e+003
1.101112e+003, 2.646352e+003
1.101594e+003, 2.648403e+003
1.102076e+003, 2.650746e+003
1.102558e+003, 2.653185e+003
1.103040e+003, 2.655523e+003
1.103522e+003, 2.657754e+003
1.104004e+003, 2.660073e+003
1.104486e+003, 2.662984e+003
1.104969e+003, 2.664451e+003
1.105451e+003, 2.662405e+003
1.105933e+003, 2.661075e+003
1.106415e+003, 2.662242e+003
1.106897e+003, 2.664411e+003
1.107379e+003, 2.666516e+003
1.107861e+003, 2.668630e+003
1.108343e+003, 2.671082e+003
1.108825e+003, 2.673949e+003
1.109307e+003, 2.676873e+003
1.109790e+003, 2.680796e+003
1.110272e+003, 2.683381e+003
1.110754e+003, 2.683373e+003
1.111236e+003, 2.682725e+003
1.111718e+003, 2.681894e+003
1.112200e+003, 2.681525e+003
1.112682e+003, 2.683097e+003
1.113164e+003, 2.686789e+003
1.113647e+003, 2.688989e+003
1.114129e+003, 2.688327e+003
1.114611e+003, 2.688501e+003
1.115093e+003, 2.690770e+003
1.115575e+003, 2.692522e+003
1.116057e+003, 2.691858e+003
1.116539e+003, 2.690868e+003
1.117021e+003, 2.691903e+003
1.117504e+003, 2.694801e+003
1.117986e+003, 2.698507e+003
1.118468e+003, 2.704356e+003
1.118950e+003, 2.707560e+003
1.119432e+003, 2.706130e+003
1.119914e+003, 2.706071e+003
1.120396e+003, 2.710420e+003
1.120878e+003, 2.714765e+003
1.121360e+003, 2.714800e+003
1.121843e+003, 2.712337e+003
1.122325e+003, 2.712971e+003
1.122807e+003, 2.717591e+003
1.123289e+003, 2.719770e+003
1.123771e+003, 2.718710e+003
1.124253e+003, 2.717934e+003
1.124735e+003, 2.718115e+003
1.125217e+003, 2.719111e+003
1.125699e+003, 2.721213e+003
1.126182e+003, 2.723243e+003
1.126664e+003, 2.722966e+003
1.127146e+003, 2.720552e+003
1.127628e+003, 2.719008e+003
1.128110e+003, 2.718350e+003
1.128592e+003, 2.718476e+003
1.129074e+003, 2.719421e+003
1.129556e+003, 2.720668e+003
1.130039e+003, 2.721935e+003
1.130521e+003, 2.723666e+003
1.131003e+003, 2.726532e+003
1.131485e+003, 2.730005e+003
1.131967e+003, 2.732083e+003
1.132449e+003, 2.732852e+003
1.132931e+003, 2.733899e+003
1.133413e+003, 2.735315e+003
1.133896e+003, 2.736697e+003
1.134378e+003, 2.737922e+003
1.134860e+003, 2.738557e+003
1.135342e+003, 2.738187e+003
1.135824e+003, 2.737453e+003
1.136306e+003, 2.737320e+003
1.136788e+003, 2.737851e+003
1.137270e+003, 2.740035e+003
1.137752e+003, 2.743222e+003
1.138234e+003, 2.743490e+003
1.138717e+003, 2.740737e+003
1.139199e+003, 2.739925e+003
1.139681e+003, 2.743609e+003
1.140163e+003, 2.748218e+003
1.140645e+003, 2.749806e+003
1.141127e+003, 2.749643e+003
1.141609e+003, 2.749689e+003
1.142091e+003, 2.749978e+003
1.142574e+003, 2.750809e+003
1.143056e+003, 2.751957e+003
1.143538e+003, 2.752507e+003
1.144020e+003, 2.752274e+003
1.144502e+003, 2.752314e+003
1.144984e+003, 2.753550e+003
1.145466e+003, 2.754934e+003
1.145948e+003, 2.755079e+003
1.146431e+003, 2.754963e+003
1.146913e+003, 2.755877e+003
1.147395e+003, 2.757441e+003
1.147877e+003, 2.758649e+003
1.148359e+003, 2.759573e+003
1.148841e+003, 2.761502e+003
1.149323e+003, 2.765279e+003
1.149805e+003, 2.768232e+003
1.150287e+003, 2.768305e+003
1.150770e+003, 2.767366e+003
1.151252e+003, 2.765508e+003
1.151734e+003, 2.764373e+003
1.152216e+003, 2.766623e+003
1.152698e+003, 2.770752e+003
1.153180e+003, 2.773225e+003
1.153662e+003, 2.773305e+003
1.154144e+003, 2.772348e+003
1.154626e+003, 2.769228e+003
1.155109e+003, 2.767422e+003
1.155591e+003, 2.769518e+003
1.156073e+003, 2.771712e+003
1.156555e+003, 2.771216e+003
1.157037e+003, 2.769712e+003
1.157519e+003, 2.769547e+003
1.158001e+003, 2.770657e+003
1.158483e+003, 2.771398e+003
1.158966e+003, 2.770728e+003
1.159448e+003, 2.771591e+003
1.159930e+003, 2.776291e+003
1.160412e+003, 2.779597e+003
1.160894e+003, 2.778838e+003
1.161376e+003, 2.777684e+003
1.161858e+003, 2.778913e+003
1.162340e+003, 2.781610e+003
1.162822e+003, 2.783918e+003
1.163305e+003, 2.785892e+003
1.163787e+003, 2.786968e+003
1.164269e+003, 2.787219e+003
1.164751e+003, 2.786022e+003
1.165233e+003, 2.782220e+003
1.165715e+003, 2.780349e+003
1.166197e+003, 2.783190e+003
1.166679e+003, 2.787140e+003
1.167161e+003, 2.787671e+003
1.167644e+003, 2.786017e+003
1.168126e+003, 2.787841e+003
1.168608e+003, 2.793327e+003
1.169090e+003, 2.796078e+003
1.169572e+003, 2.795738e+003
1.170054e+003, 2.795311e+003
1.170536e+003, 2.795584e+003
1.171018e+003, 2.797200e+003
1.171500e+003, 2.800779e+003
1.171983e+003, 2.804732e+003
1.172465e+003, 2.806403e+003
1.172947e+003, 2.806417e+003
1.173429e+003, 2.806695e+003
1.173911e+003, 2.807197e+003
1.174393e+003, 2.807735e+003
1.174875e+003, 2.808315e+003
1.175357e+003, 2.809246e+003
1.175840e+003, 2.810587e+003
1.176322e+003, 2.811443e+003
1.176804e+003, 2.810806e+003
1.177286e+003, 2.809956e+003
1.177768e+003, 2.810533e+003
1.178250e+003, 2.811872e+003
1.178732e+003, 2.813104e+003
1.179214e+003, 2.814275e+003
1.179697e+003, 2.815498e+003
1.180179e+003, 2.816897e+003
1.180661e+003, 2.818906e+003
1.181143e+003, 2.821830e+003
1.181625e+003, 2.824263e+003
1.182107e+003, 2.824926e+003
1.182589e+003, 2.825300e+003
1.183071e+003, 2.826687e+003
1.183553e+003, 2.827930e+003
1.184036e+003, 2.827502e+003
1.184518e+003, 2.826248e+003
1.185000e+003, 2.825989e+003
1.185482e+003, 2.826919e+003
1.185964e+003, 2.827426e+003
1.186446e+003, 2.826029e+003
1.186928e+003, 2.826028e+003
1.187410e+003, 2.830202e+003
1.187892e+003, 2.833138e+003
1.188375e+003, 2.831083e+003
1.188857e+003, 2.828106e+003
1.189339e+003, 2.827660e+003
1.189821e+003, 2.829381e+003
1.190303e+003, 2.832689e+003
1.190785e+003, 2.838491e+003
1.191267e+003, 2.840246e+003
1.191749e+003, 2.835973e+003
1.192232e+003, 2.833168e+003
1.192714e+003, 2.833076e+003
1.193196e+003, 2.834523e+003
1.193678e+003, 2.837341e+003
1.194160e+003, 2.840143e+003
1.194642e+003, 2.841183e+003
1.195124e+003, 2.840812e+003
1.195606e+003, 2.840065e+003
1.196089e+003, 2.839004e+003
1.196571e+003, 2.840405e+003
1.197053e+003, 2.844183e+003
1.197535e+003, 2.846116e+003
1.198017e+003, 2.845207e+003
1.198499e+003, 2.843431e+003
1.198981e+003, 2.841931e+003
1.199463e+003, 2.841401e+003
1.199945e+003, 2.843236e+003
1.200427e+003, 2.846341e+003
1.200910e+003, 2.848930e+003
1.201392e+003, 2.850922e+003
1.201874e+003, 2.852004e+003
1.202356e+003, 2.852352e+003
1.202838e+003, 2.852353e+003
1.203320e+003, 2.852208e+003
1.203802e+003, 2.852411e+003
1.204284e+003, 2.853538e+003
1.204767e+003, 2.854213e+003
1.205249e+003, 2.852150e+003
1.205731e+003, 2.850534e+003
1.206213e+003, 2.853226e+003
1.206695e+003, 2.857010e+003
1.207177e+003, 2.857911e+003
1.207659e+003, 2.856434e+003
1.208141e+003, 2.854580e+003
1.208624e+003, 2.852620e+003
1.209106e+003, 2.852563e+003
1.209588e+003, 2.856735e+003
1.210070e+003, 2.860094e+003
1.210552e+003, 2.860766e+003
1.211034e+003, 2.861387e+003
1.211516e+003, 2.863407e+003
1.211998e+003, 2.865877e+003
1.212480e+003, 2.868077e+003
1.212963e+003, 2.869864e+003
1.213445e+003, 2.870788e+003
1.213927e+003, 2.870949e+003
1.214409e+003, 2.869237e+003
1.214891e+003, 2.864714e+003
1.215373e+003, 2.862032e+003
1.215855e+003, 2.862228e+003
1.216337e+003, 2.863822e+003
1.216819e+003, 2.866372e+003
1.217302e+003, 2.868208e+003
1.217784e+003, 2.867069e+003
1.218266e+003, 2.863996e+003
1.218748e+003, 2.861793e+003
1.219230e+003, 2.860567e+003
1.219712e+003, 2.861494e+003
1.220194e+003, 2.863953e+003
1.220676e+003, 2.864032e+003
1.221159e+003, 2.861301e+003
1.221641e+003, 2.859082e+003
1.222123e+003, 2.859156e+003
1.222605e+003, 2.860432e+003
1.223087e+003, 2.861513e+003
1.223569e+003, 2.863470e+003
1.224051e+003, 2.869191e+003
1.224533e+003, 2.875208e+003
1.225016e+003, 2.875969e+003
1.225498e+003, 2.873694e+003
1.225980e+003, 2.872830e+003
1.226462e+003, 2.874338e+003
1.226944e+003, 2.878211e+003
1.227426e+003, 2.886108e+003
1.227908e+003, 2.891260e+003
1.228390e+003, 2.889478e+003
1.228872e+003, 2.886859e+003
1.229354e+003, 2.885795e+003
1.229837e+003, 2.885036e+003
1.230319e+003, 2.882875e+003
1.230801e+003, 2.880691e+003
1.231283e+003, 2.881368e+003
1.231765e+003, 2.884797e+003
1.232247e+003, 2.886473e+003
1.232729e+003, 2.885822e+003
1.233211e+003, 2.885291e+003
1.233694e+003, 2.885103e+003
1.234176e+003, 2.884538e+003
1.234658e+003, 2.883158e+003
1.235140e+003, 2.882471e+003
1.235622e+003, 2.883674e+003
1.236104e+003, 2.885768e+003
1.236586e+003, 2.887245e+003
1.237068e+003, 2.888032e+003
1.237551e+003, 2.887533e+003
1.238033e+003, 2.886075e+003
1.238515e+003, 2.884973e+003
1.238997e+003, 2.884392e+003
1.239479e+003, 2.884323e+003
1.239961e+003, 2.884735e+003
1.240443e+003, 2.885595e+003
1.240925e+003, 2.887038e+003
1.241407e+003, 2.888129e+003
1.241890e+003, 2.887614e+003
1.242372e+003, 2.886709e+003
1.242854e+003, 2.886296e+003
1.243336e+003, 2.886463e+003
1.243818e+003, 2.887672e+003
1.244300e+003, 2.889362e+003
1.244782e+003, 2.890291e+003
1.245264e+003, 2.890338e+003
1.245746e+003, 2.890709e+003
1.246229e+003, 2.891914e+003
1.246711e+003, 2.893100e+003
1.247193e+003, 2.894187e+003
1.247675e+003, 2.895135e+003
1.248157e+003, 2.895836e+003
1.248639e+003, 2.896503e+003
1.249121e+003, 2.897381e+003
1.249603e+003, 2.898195e+003
1.250085e+003, 2.898373e+003
1.250568e+003, 2.897960e+003
1.251050e+003, 2.897786e+003
1.251532e+003, 2.897715e+003
1.252014e+003, 2.899599e+003
1.252496e+003, 2.903668e+003
1.252978e+003, 2.906811e+003
1.253460e+003, 2.908096e+003
1.253942e+003, 2.909243e+003
1.254425e+003, 2.911468e+003
1.254907e+003, 2.913706e+003
1.255389e+003, 2.914651e+003
1.255871e+003, 2.914434e+003
1.256353e+003, 2.912011e+003
1.256835e+003, 2.909327e+003
1.257317e+003, 2.910856e+003
1.257799e+003, 2.915157e+003
1.258281e+003, 2.918200e+003
1.258764e+003, 2.919090e+003
1.259246e+003, 2.918827e+003
1.259728e+003, 2.917551e+003
1.260210e+003, 2.916308e+003
1.260692e+003, 2.914914e+003
1.261174e+003, 2.914573e+003
1.261656e+003, 2.916652e+003
1.262138e+003, 2.919184e+003
1.262620e+003, 2.920371e+003
1.263103e+003, 2.921185e+003
1.263585e+003, 2.923827e+003
1.264067e+003, 2.927822e+003
1.264549e+003, 2.928869e+003
1.265031e+003, 2.925502e+003
1.265513e+003, 2.924201e+003
1.265995e+003, 2.925475e+003
1.266477e+003, 2.926612e+003
1.266960e+003, 2.927028e+003
1.267442e+003, 2.926954e+003
1.267924e+003, 2.926475e+003
1.268406e+003, 2.926011e+003
1.268888e+003, 2.926188e+003
1.269370e+003, 2.926523e+003
1.269852e+003, 2.925332e+003
1.270334e+003, 2.923653e+003
1.270817e+003, 2.924345e+003
1.271299e+003, 2.926807e+003
1.271781e+003, 2.929669e+003
1.272263e+003, 2.932139e+003
1.272745e+003, 2.932465e+003
1.273227e+003, 2.929975e+003
1.273709e+003, 2.927445e+003
1.274191e+003, 2.925739e+003
1.274673e+003, 2.925534e+003
1.275156e+003, 2.927492e+003
1.275638e+003, 2.930672e+003
1.276120e+003, 2.935325e+003
1.276602e+003, 2.940156e+003
1.277084e+003, 2.943913e+003
1.277566e+003, 2.946615e+003
1.278048e+003, 2.948718e+003
1.278530e+003, 2.950390e+003
1.279012e+003, 2.949693e+003
1.279495e+003, 2.945147e+003
1.279977e+003, 2.943300e+003
1.280459e+003, 2.945455e+003
1.280941e+003, 2.947952e+003
1.281423e+003, 2.949533e+003
1.281905e+003, 2.950279e+003
1.282387e+003, 2.950193e+003
1.282869e+003, 2.949810e+003
1.283352e+003, 2.950052e+003
1.283834e+003, 2.950361e+003
1.284316e+003, 2.949324e+003
1.284798e+003, 2.947084e+003
##END=



