##NAMES=Orthoclase
##RRUFFID=R050367
##IDEAL CHEMISTRY=KAlSi_3_O_8_
##LOCALITY=Pazunseik, Mandalay Division, Burma
##OWNER=RRUFF
##SOURCE=Marcus Origlieri
##DESCRIPTION=Green crystal associated with topaz. Single-crystal structure refinement was conducted to demonstrate that it is orthoclase.
##STATUS=The identification of this mineral has been confirmed by X-ray diffraction and chemical analysis
##URL=rruff.info/R050367
##MEASURED CHEMISTRY=(K_0.90_Na_0.10_)_Î£=1_Al_1.00_Si_3.00_O_8_; trace amounts of Fe
92.52344, 5633.892
93.00555, 5585.669
93.48767, 5594.158
93.96979, 5783.084
94.45190, 5979.837
94.93402, 6170.326
95.41614, 6263.551
95.89825, 6276.398
96.38037, 6255.375
96.86249, 6210.942
97.34460, 6180.068
97.82672, 6194.620
98.30884, 6194.747
98.79095, 6165.703
99.27307, 6108.464
99.75519, 6037.873
100.2373, 5980.849
100.7194, 5940.445
101.2015, 5904.718
101.6837, 5877.874
102.1658, 5849.365
102.6479, 5802.778
103.1300, 5734.270
103.6121, 5680.051
104.0942, 5684.462
104.5764, 5719.955
105.0585, 5746.417
105.5406, 5742.457
106.0227, 5718.106
106.5048, 5704.354
106.9869, 5705.607
107.4691, 5708.423
107.9512, 5706.295
108.4333, 5700.161
108.9154, 5692.821
109.3975, 5685.049
109.8796, 5675.503
110.3618, 5673.017
110.8439, 5685.191
111.3260, 5697.689
111.8081, 5704.676
112.2902, 5705.206
112.7723, 5701.657
113.2544, 5697.320
113.7366, 5692.807
114.2187, 5685.944
114.7008, 5673.601
115.1829, 5660.538
115.6650, 5651.267
116.1471, 5647.363
116.6293, 5646.929
117.1114, 5645.491
117.5935, 5640.257
118.0756, 5638.878
118.5577, 5648.205
119.0398, 5663.149
119.5220, 5671.182
120.0041, 5665.033
120.4862, 5649.144
120.9683, 5635.310
121.4504, 5624.081
121.9325, 5613.795
122.4147, 5597.841
122.8968, 5574.456
123.3789, 5566.535
123.8610, 5608.667
124.3431, 5665.005
124.8252, 5699.955
125.3074, 5697.431
125.7895, 5673.869
126.2716, 5663.405
126.7537, 5672.506
127.2358, 5684.300
127.7179, 5695.853
128.2001, 5705.762
128.6822, 5711.798
129.1643, 5711.725
129.6464, 5706.333
130.1285, 5705.686
130.6107, 5719.035
131.0928, 5728.568
131.5749, 5725.674
132.0570, 5714.873
132.5391, 5706.553
133.0212, 5709.971
133.5034, 5726.844
133.9855, 5746.067
134.4676, 5773.220
134.9497, 5797.942
135.4318, 5813.397
135.9139, 5819.389
136.3960, 5821.657
136.8782, 5826.667
137.3603, 5835.424
137.8424, 5840.881
138.3245, 5838.645
138.8066, 5834.414
139.2887, 5836.651
139.7709, 5848.773
140.2530, 5861.077
140.7351, 5854.861
141.2172, 5831.760
141.6993, 5821.097
142.1814, 5845.404
142.6636, 5894.739
143.1457, 5932.573
143.6278, 5948.555
144.1099, 5952.150
144.5920, 5946.443
145.0741, 5932.393
145.5563, 5927.977
146.0384, 5957.282
146.5205, 6026.199
147.0026, 6077.964
147.4847, 6094.905
147.9668, 6096.232
148.4490, 6084.449
148.9311, 6061.961
149.4132, 6040.329
149.8953, 6039.110
150.3774, 6072.393
150.8595, 6097.897
151.3417, 6106.680
151.8238, 6110.821
152.3059, 6122.160
152.7880, 6144.620
153.2701, 6170.748
153.7522, 6181.317
154.2344, 6153.119
154.7165, 6134.599
155.1986, 6132.526
155.6807, 6139.601
156.1628, 6144.898
156.6449, 6142.209
157.1271, 6136.591
157.6092, 6150.203
158.0913, 6210.492
158.5734, 6256.086
159.0555, 6257.326
159.5376, 6228.569
160.0198, 6208.258
160.5019, 6219.948
160.9840, 6255.325
161.4661, 6279.226
161.9482, 6285.064
162.4303, 6287.069
162.9125, 6295.786
163.3946, 6310.826
163.8767, 6322.415
164.3588, 6320.223
164.8409, 6312.098
165.3230, 6311.737
165.8052, 6325.335
166.2873, 6344.024
166.7694, 6355.292
167.2515, 6356.738
167.7336, 6359.148
168.2157, 6368.766
168.6979, 6382.093
169.1800, 6395.462
169.6621, 6407.454
170.1442, 6418.432
170.6263, 6428.845
171.1084, 6435.527
171.5906, 6447.285
172.0727, 6474.020
172.5548, 6505.508
173.0369, 6525.455
173.5190, 6520.431
174.0011, 6495.593
174.4833, 6494.863
174.9654, 6555.072
175.4475, 6604.133
175.9296, 6624.729
176.4117, 6622.896
176.8938, 6610.341
177.3760, 6593.818
177.8581, 6572.789
178.3402, 6569.747
178.8223, 6606.619
179.3044, 6638.020
179.7865, 6642.304
180.2687, 6625.557
180.7508, 6609.219
181.2329, 6612.181
181.7150, 6636.835
182.1971, 6653.654
182.6792, 6658.755
183.1614, 6660.597
183.6435, 6662.752
184.1256, 6665.829
184.6077, 6670.172
185.0898, 6675.819
185.5719, 6683.043
186.0541, 6693.233
186.5362, 6707.408
187.0183, 6723.951
187.5004, 6743.027
187.9825, 6764.983
188.4646, 6784.321
188.9468, 6794.139
189.4289, 6796.452
189.9110, 6799.183
190.3931, 6800.876
190.8752, 6804.964
191.3573, 6819.638
191.8395, 6850.082
192.3216, 6878.050
192.8037, 6885.647
193.2858, 6879.934
193.7679, 6876.255
194.2500, 6883.277
194.7322, 6897.819
195.2143, 6909.269
195.6964, 6914.730
196.1785, 6921.413
196.6606, 6932.127
197.1427, 6946.689
197.6249, 6964.861
198.1070, 6988.940
198.5891, 7017.800
199.0712, 7040.503
199.5533, 7059.654
200.0354, 7068.043
200.5176, 7057.001
200.9997, 7033.030
201.4818, 7009.249
201.9639, 6993.943
202.4460, 6986.851
202.9281, 6995.135
203.4103, 7030.298
203.8924, 7071.601
204.3745, 7122.695
204.8566, 7176.462
205.3387, 7217.221
205.8208, 7229.514
206.3030, 7209.491
206.7851, 7197.283
207.2672, 7191.273
207.7493, 7193.407
208.2314, 7207.375
208.7135, 7231.162
209.1957, 7259.819
209.6778, 7290.220
210.1599, 7323.994
210.6420, 7343.613
211.1241, 7336.885
211.6062, 7329.419
212.0884, 7336.602
212.5705, 7357.016
213.0526, 7377.739
213.5347, 7387.065
214.0168, 7383.234
214.4989, 7381.401
214.9811, 7372.186
215.4632, 7371.733
215.9453, 7402.104
216.4274, 7460.567
216.9095, 7508.484
217.3916, 7506.918
217.8737, 7454.630
218.3559, 7424.772
218.8380, 7427.735
219.3201, 7447.450
219.8022, 7475.969
220.2843, 7512.669
220.7664, 7544.352
221.2486, 7555.114
221.7307, 7550.823
222.2128, 7556.491
222.6949, 7588.165
223.1770, 7624.974
223.6591, 7637.586
224.1413, 7620.967
224.6234, 7610.181
225.1055, 7646.358
225.5876, 7705.416
226.0697, 7742.314
226.5518, 7732.549
227.0340, 7700.711
227.5161, 7679.761
227.9982, 7669.039
228.4803, 7671.911
228.9624, 7704.949
229.4445, 7749.257
229.9267, 7778.619
230.4088, 7775.033
230.8909, 7758.036
231.3730, 7768.639
231.8551, 7820.220
232.3372, 7865.472
232.8194, 7877.762
233.3015, 7875.718
233.7836, 7881.448
234.2657, 7906.017
234.7478, 7940.418
235.2299, 7965.444
235.7121, 7982.180
236.1942, 7986.063
236.6763, 7963.287
237.1584, 7934.137
237.6405, 7921.330
238.1227, 7935.825
238.6048, 7967.379
239.0869, 7989.453
239.5690, 7994.689
240.0511, 8003.286
240.5332, 8025.458
241.0154, 8049.620
241.4975, 8061.853
241.9796, 8056.016
242.4617, 8041.160
242.9438, 8040.189
243.4259, 8061.611
243.9081, 8084.853
244.3902, 8110.777
244.8723, 8135.640
245.3544, 8155.247
245.8365, 8168.150
246.3186, 8177.065
246.8008, 8188.357
247.2829, 8203.947
247.7650, 8219.224
248.2471, 8233.909
248.7292, 8248.183
249.2113, 8260.191
249.6935, 8269.756
250.1756, 8281.453
250.6577, 8305.147
251.1398, 8361.396
251.6219, 8398.818
252.1040, 8405.065
252.5862, 8399.756
253.0683, 8398.501
253.5504, 8406.225
254.0325, 8420.437
254.5146, 8437.607
254.9967, 8462.266
255.4789, 8480.909
255.9610, 8485.022
256.4431, 8488.028
256.9252, 8505.425
257.4073, 8539.947
257.8894, 8576.501
258.3716, 8594.122
258.8537, 8582.449
259.3358, 8577.461
259.8179, 8582.176
260.3000, 8591.754
260.7821, 8601.767
261.2643, 8611.540
261.7464, 8623.877
262.2285, 8642.917
262.7106, 8671.075
263.1927, 8693.897
263.6748, 8703.866
264.1570, 8712.937
264.6391, 8733.202
265.1212, 8765.347
265.6033, 8798.100
266.0854, 8820.949
266.5675, 8832.926
267.0497, 8843.127
267.5318, 8843.793
268.0139, 8848.153
268.4960, 8870.211
268.9781, 8909.797
269.4602, 8951.108
269.9424, 8984.597
270.4245, 9009.008
270.9066, 9024.815
271.3887, 9030.069
271.8708, 9028.236
272.3529, 9016.431
272.8351, 8996.161
273.3172, 8983.909
273.7993, 8992.050
274.2814, 9016.071
274.7635, 9037.041
275.2456, 9049.355
275.7278, 9064.394
276.2099, 9097.145
276.6920, 9144.324
277.1741, 9176.582
277.6562, 9169.441
278.1383, 9145.531
278.6205, 9152.878
279.1026, 9204.810
279.5847, 9259.235
280.0668, 9286.511
280.5489, 9290.702
281.0310, 9295.599
281.5132, 9311.049
281.9953, 9329.167
282.4774, 9338.191
282.9595, 9336.714
283.4416, 9334.590
283.9237, 9335.323
284.4059, 9339.592
284.8880, 9351.651
285.3701, 9376.793
285.8522, 9404.222
286.3343, 9422.514
286.8164, 9432.115
287.2986, 9439.738
287.7807, 9446.111
288.2628, 9452.973
288.7449, 9466.303
289.2270, 9488.504
289.7091, 9514.780
290.1913, 9542.222
290.6734, 9570.426
291.1555, 9598.736
291.6376, 9634.328
292.1197, 9668.993
292.6018, 9680.518
293.0840, 9660.195
293.5661, 9634.474
294.0482, 9611.870
294.5303, 9596.696
295.0124, 9599.993
295.4945, 9636.438
295.9767, 9688.452
296.4588, 9723.013
296.9409, 9735.150
297.4230, 9746.961
297.9051, 9775.415
298.3872, 9808.749
298.8694, 9832.465
299.3515, 9840.396
299.8336, 9840.772
300.3157, 9843.508
300.7978, 9848.721
301.2799, 9855.649
301.7621, 9861.862
302.2442, 9871.047
302.7263, 9889.002
303.2084, 9918.280
303.6905, 9947.351
304.1726, 9962.208
304.6548, 9962.048
305.1369, 9966.097
305.6190, 9980.202
306.1011, 9999.653
306.5832, 10022.35
307.0653, 10047.91
307.5475, 10072.26
308.0296, 10089.41
308.5117, 10100.42
308.9938, 10120.50
309.4759, 10164.30
309.9580, 10201.77
310.4402, 10206.80
310.9223, 10187.06
311.4044, 10172.26
311.8865, 10182.46
312.3686, 10213.35
312.8507, 10247.25
313.3329, 10286.24
313.8150, 10324.14
314.2971, 10363.24
314.7792, 10398.97
315.2613, 10421.81
315.7434, 10422.28
316.2256, 10410.66
316.7077, 10409.71
317.1898, 10422.80
317.6719, 10437.20
318.1540, 10446.25
318.6361, 10453.95
319.1183, 10464.40
319.6004, 10478.66
320.0825, 10496.62
320.5646, 10518.02
321.0467, 10542.75
321.5288, 10572.15
322.0110, 10625.29
322.4931, 10671.18
322.9752, 10674.60
323.4573, 10628.96
323.9394, 10584.98
324.4215, 10596.38
324.9037, 10661.81
325.3858, 10718.98
325.8679, 10755.58
326.3500, 10781.59
326.8321, 10804.40
327.3142, 10824.10
327.7964, 10839.18
328.2785, 10849.99
328.7606, 10855.76
329.2427, 10849.16
329.7248, 10816.46
330.2069, 10795.19
330.6891, 10809.70
331.1712, 10850.62
331.6533, 10900.35
332.1354, 10959.48
332.6175, 11018.18
333.0996, 11051.28
333.5818, 11049.02
334.0639, 11053.25
334.5460, 11098.42
335.0281, 11157.22
335.5102, 11199.10
335.9923, 11214.80
336.4745, 11215.34
336.9566, 11208.69
337.4387, 11193.96
337.9208, 11187.81
338.4029, 11204.35
338.8850, 11225.79
339.3671, 11230.90
339.8492, 11216.56
340.3314, 11207.84
340.8135, 11230.25
341.2956, 11278.05
341.7777, 11311.45
342.2598, 11311.23
342.7419, 11313.09
343.2241, 11356.06
343.7062, 11431.50
344.1883, 11494.76
344.6704, 11518.75
345.1525, 11516.79
345.6346, 11514.71
346.1168, 11511.44
346.5989, 11515.75
347.0810, 11541.29
347.5631, 11578.29
348.0452, 11610.64
348.5273, 11635.17
349.0095, 11652.55
349.4916, 11661.71
349.9737, 11662.49
350.4558, 11661.11
350.9379, 11652.61
351.4200, 11649.08
351.9022, 11671.18
352.3843, 11728.97
352.8664, 11786.73
353.3485, 11817.40
353.8306, 11827.30
354.3127, 11842.10
354.7949, 11871.28
355.2770, 11903.75
355.7591, 11923.59
356.2412, 11931.00
356.7233, 11942.68
357.2054, 11967.04
357.6876, 11998.56
358.1697, 12031.12
358.6518, 12065.02
359.1339, 12092.07
359.6160, 12101.02
360.0981, 12095.38
360.5803, 12094.12
361.0624, 12098.62
361.5445, 12109.04
362.0266, 12127.71
362.5087, 12153.74
362.9908, 12180.79
363.4730, 12207.53
363.9551, 12231.30
364.4372, 12245.06
364.9193, 12242.93
365.4014, 12241.45
365.8835, 12242.62
366.3657, 12249.60
366.8478, 12272.69
367.3299, 12317.94
367.8120, 12368.92
368.2941, 12397.24
368.7762, 12396.06
369.2584, 12404.04
369.7405, 12427.78
370.2226, 12462.08
370.7047, 12511.42
371.1868, 12573.71
371.6689, 12620.56
372.1511, 12621.63
372.6332, 12574.31
373.1153, 12552.77
373.5974, 12569.54
374.0795, 12596.73
374.5616, 12622.89
375.0438, 12648.71
375.5259, 12679.66
376.0080, 12719.49
376.4901, 12764.19
376.9722, 12799.09
377.4543, 12812.41
377.9365, 12831.11
378.4186, 12866.94
378.9007, 12905.36
379.3828, 12929.36
379.8649, 12934.52
380.3470, 12928.85
380.8292, 12921.47
381.3113, 12904.73
381.7934, 12911.79
382.2755, 12962.38
382.7576, 13016.36
383.2397, 13050.59
383.7219, 13066.94
384.2040, 13078.85
384.6861, 13096.36
385.1682, 13119.34
385.6503, 13144.87
386.1324, 13195.36
386.6146, 13222.74
387.0967, 13193.83
387.5788, 13145.12
388.0609, 13124.55
388.5430, 13152.49
389.0251, 13208.11
389.5073, 13249.22
389.9894, 13265.17
390.4715, 13288.79
390.9536, 13322.81
391.4357, 13362.86
391.9178, 13412.24
392.4000, 13467.40
392.8821, 13515.21
393.3642, 13540.41
393.8463, 13542.13
394.3284, 13549.90
394.8105, 13575.24
395.2927, 13593.00
395.7748, 13584.19
396.2569, 13564.24
396.7390, 13559.03
397.2211, 13582.79
397.7032, 13625.91
398.1854, 13667.57
398.6675, 13707.58
399.1496, 13747.41
399.6317, 13798.35
400.1138, 13842.93
400.5959, 13862.28
401.0781, 13853.82
401.5602, 13841.58
402.0423, 13849.51
402.5244, 13875.48
403.0065, 13894.77
403.4886, 13897.99
403.9708, 13903.91
404.4529, 13929.91
404.9350, 13969.15
405.4171, 14002.28
405.8992, 14011.20
406.3813, 14014.08
406.8635, 14045.11
407.3456, 14108.04
407.8277, 14164.59
408.3098, 14194.48
408.7919, 14206.89
409.2740, 14217.67
409.7562, 14226.72
410.2383, 14236.95
410.7204, 14248.96
411.2025, 14263.56
411.6846, 14284.61
412.1667, 14315.00
412.6489, 14346.93
413.1310, 14370.14
413.6131, 14385.12
414.0952, 14400.19
414.5773, 14415.74
415.0594, 14432.74
415.5416, 14452.94
416.0237, 14475.97
416.5058, 14497.28
416.9879, 14511.25
417.4700, 14521.89
417.9521, 14551.24
418.4343, 14617.73
418.9164, 14677.38
419.3985, 14714.15
419.8806, 14738.08
420.3627, 14762.53
420.8448, 14791.92
421.3270, 14825.23
421.8091, 14863.05
422.2912, 14914.74
422.7733, 14940.24
423.2554, 14909.52
423.7375, 14880.63
424.2197, 14894.98
424.7018, 14943.84
425.1839, 14989.84
425.6660, 15005.41
426.1481, 14995.65
426.6302, 14995.80
427.1124, 15014.07
427.5945, 15033.07
428.0766, 15049.66
428.5587, 15066.52
429.0408, 15083.43
429.5229, 15101.34
430.0051, 15128.22
430.4872, 15185.24
430.9693, 15290.16
431.4514, 15350.04
431.9335, 15314.23
432.4156, 15274.57
432.8978, 15264.38
433.3799, 15280.26
433.8620, 15305.36
434.3441, 15328.17
434.8262, 15353.73
435.3083, 15401.96
435.7905, 15486.46
436.2726, 15555.25
436.7547, 15579.47
437.2368, 15585.07
437.7189, 15590.57
438.2010, 15598.91
438.6832, 15613.37
439.1653, 15641.74
439.6474, 15680.39
440.1295, 15708.40
440.6116, 15717.55
441.0938, 15725.11
441.5759, 15744.62
442.0580, 15774.07
442.5401, 15809.61
443.0222, 15851.86
443.5043, 15898.45
443.9865, 15958.14
444.4686, 16026.66
444.9507, 16064.73
445.4328, 16043.46
445.9149, 15990.92
446.3970, 15970.64
446.8792, 15985.63
447.3613, 16015.36
447.8434, 16073.06
448.3255, 16133.93
448.8076, 16160.70
449.2897, 16149.14
449.7719, 16134.95
450.2540, 16154.11
450.7361, 16209.17
451.2182, 16243.55
451.7003, 16234.62
452.1824, 16233.06
452.6646, 16261.23
453.1467, 16308.46
453.6288, 16358.26
454.1109, 16403.53
454.5930, 16441.86
455.0751, 16467.62
455.5573, 16470.44
456.0394, 16480.73
456.5215, 16489.76
457.0036, 16512.05
457.4857, 16568.89
457.9678, 16649.32
458.4500, 16717.76
458.9321, 16743.20
459.4142, 16735.00
459.8963, 16751.52
460.3784, 16815.25
460.8605, 16863.25
461.3427, 16863.29
461.8248, 16850.38
462.3069, 16862.13
462.7890, 16907.90
463.2711, 16958.81
463.7532, 16977.00
464.2354, 16966.39
464.7175, 16985.22
465.1996, 17060.33
465.6817, 17133.28
466.1638, 17152.46
466.6459, 17137.30
467.1281, 17136.88
467.6102, 17176.90
468.0923, 17229.78
468.5744, 17265.64
469.0565, 17286.11
469.5386, 17304.04
470.0208, 17320.95
470.5029, 17342.35
470.9850, 17382.90
471.4671, 17448.38
471.9492, 17498.63
472.4313, 17514.21
472.9135, 17515.24
473.3956, 17522.37
473.8777, 17537.58
474.3598, 17553.31
474.8419, 17563.14
475.3240, 17568.37
475.8062, 17581.21
476.2883, 17616.84
476.7704, 17640.85
477.2525, 17624.69
477.7346, 17602.87
478.2167, 17627.19
478.6989, 17707.30
479.1810, 17794.01
479.6631, 17820.01
480.1452, 17767.19
480.6273, 17745.61
481.1094, 17773.41
481.5916, 17814.28
482.0737, 17866.97
482.5558, 17922.82
483.0379, 17968.18
483.5200, 17995.58
484.0021, 18014.88
484.4843, 18044.32
484.9664, 18085.01
485.4485, 18131.96
485.9306, 18204.14
486.4127, 18264.57
486.8948, 18279.76
487.3770, 18256.59
487.8591, 18237.22
488.3412, 18251.24
488.8233, 18283.46
489.3054, 18303.91
489.7875, 18311.16
490.2697, 18316.73
490.7518, 18318.18
491.2339, 18327.16
491.7160, 18368.47
492.1981, 18457.76
492.6802, 18532.83
493.1624, 18555.65
493.6445, 18551.96
494.1266, 18560.15
494.6087, 18586.67
495.0908, 18615.78
495.5729, 18632.07
496.0551, 18635.88
496.5372, 18654.93
497.0193, 18709.54
497.5014, 18753.37
497.9835, 18758.77
498.4656, 18749.65
498.9478, 18763.34
499.4299, 18811.06
499.9120, 18869.38
500.3941, 18902.42
500.8762, 18900.65
501.3583, 18912.36
501.8405, 18947.89
502.3226, 18986.32
502.8047, 19027.63
503.2868, 19065.30
503.7689, 19084.68
504.2510, 19075.51
504.7331, 19058.77
505.2152, 19076.64
505.6974, 19135.66
506.1795, 19188.85
506.6616, 19220.55
507.1437, 19249.44
507.6258, 19290.06
508.1079, 19341.09
508.5901, 19391.59
509.0722, 19435.77
509.5543, 19476.74
510.0364, 19523.07
510.5185, 19574.46
511.0006, 19612.37
511.4828, 19622.18
511.9649, 19618.26
512.4470, 19630.91
512.9291, 19662.34
513.4113, 19698.40
513.8934, 19738.20
514.3755, 19779.03
514.8576, 19819.81
515.3397, 19859.50
515.8218, 19894.64
516.3040, 19924.33
516.7861, 19946.63
517.2682, 19947.32
517.7503, 19877.95
518.2324, 19848.07
518.7145, 19900.22
519.1967, 19976.55
519.6788, 20025.73
520.1609, 20037.74
520.6430, 20029.43
521.1251, 20008.66
521.6072, 19976.92
522.0894, 19991.75
522.5715, 20085.72
523.0536, 20175.35
523.5357, 20243.13
524.0178, 20286.84
524.4999, 20292.98
524.9821, 20254.04
525.4642, 20221.56
525.9463, 20249.74
526.4284, 20326.43
526.9105, 20404.46
527.3926, 20486.31
527.8748, 20540.67
528.3569, 20518.99
528.8390, 20447.49
529.3211, 20417.55
529.8032, 20465.01
530.2853, 20525.31
530.7675, 20565.30
531.2496, 20592.98
531.7317, 20626.08
532.2138, 20670.05
532.6959, 20711.12
533.1780, 20729.42
533.6602, 20717.61
534.1423, 20729.43
534.6244, 20787.37
535.1065, 20840.51
535.5886, 20867.40
536.0707, 20877.54
536.5529, 20884.56
537.0350, 20894.15
537.5171, 20908.59
537.9992, 20929.44
538.4813, 20954.41
538.9634, 20998.97
539.4456, 21096.95
539.9277, 21177.37
540.4098, 21193.90
540.8919, 21171.33
541.3740, 21159.81
541.8561, 21180.08
542.3383, 21216.51
542.8204, 21251.45
543.3025, 21285.45
543.7846, 21325.92
544.2667, 21379.74
544.7488, 21430.43
545.2310, 21454.34
545.7131, 21454.88
546.1952, 21463.45
546.6773, 21492.94
547.1594, 21524.04
547.6415, 21535.49
548.1237, 21538.71
548.6058, 21569.20
549.0879, 21642.46
549.5700, 21725.81
550.0521, 21761.14
550.5342, 21718.23
551.0164, 21720.51
551.4985, 21809.57
551.9806, 21894.20
552.4627, 21931.36
552.9448, 21935.41
553.4269, 21935.41
553.9091, 21944.11
554.3912, 21964.99
554.8733, 22011.03
555.3554, 22088.89
555.8375, 22145.36
556.3196, 22157.94
556.8018, 22165.16
557.2839, 22191.29
557.7660, 22231.96
558.2481, 22274.88
558.7302, 22318.54
559.2123, 22359.04
559.6945, 22399.84
560.1766, 22436.10
560.6587, 22436.34
561.1408, 22380.76
561.6229, 22321.41
562.1050, 22328.03
562.5872, 22413.97
563.0693, 22477.54
563.5514, 22485.22
564.0335, 22502.90
564.5156, 22578.71
564.9977, 22685.10
565.4799, 22770.60
565.9620, 22814.52
566.4441, 22835.44
566.9262, 22862.21
567.4083, 22897.14
567.8904, 22928.17
568.3726, 22949.85
568.8547, 22973.03
569.3368, 23005.74
569.8189, 23041.27
570.3010, 23067.08
570.7831, 23077.44
571.2653, 23084.02
571.7474, 23098.56
572.2295, 23121.03
572.7116, 23154.75
573.1937, 23206.62
573.6758, 23253.36
574.1580, 23265.25
574.6401, 23254.08
575.1222, 23266.68
575.6043, 23334.08
576.0864, 23395.88
576.5685, 23406.75
577.0507, 23396.62
577.5328, 23421.41
578.0149, 23493.33
578.4970, 23572.53
578.9791, 23615.03
579.4612, 23619.01
579.9434, 23633.39
580.4255, 23658.86
580.9076, 23694.72
581.3897, 23756.24
581.8718, 23820.50
582.3539, 23862.36
582.8361, 23876.71
583.3182, 23877.01
583.8003, 23862.74
584.2824, 23840.62
584.7645, 23866.41
585.2466, 23955.91
585.7288, 24049.25
586.2108, 24125.28
586.6929, 24183.35
587.1750, 24217.49
587.6572, 24221.31
588.1393, 24226.97
588.6214, 24241.61
589.1035, 24270.17
589.5856, 24329.36
590.0677, 24415.77
590.5499, 24491.84
591.0320, 24532.29
591.5141, 24546.06
591.9962, 24565.38
592.4783, 24587.59
592.9604, 24620.08
593.4426, 24677.84
593.9247, 24733.71
594.4068, 24768.26
594.8889, 24783.38
595.3710, 24791.78
595.8531, 24800.54
596.3353, 24810.05
596.8174, 24819.56
597.2995, 24827.46
597.7816, 24845.28
598.2637, 24877.98
598.7458, 24919.34
599.2280, 24968.52
599.7101, 25022.76
600.1922, 25067.71
600.6743, 25090.44
601.1564, 25109.11
601.6385, 25137.54
602.1207, 25174.28
602.6028, 25217.10
603.0849, 25265.57
603.5670, 25312.92
604.0491, 25349.82
604.5313, 25374.25
605.0134, 25399.95
605.4955, 25422.78
605.9776, 25451.40
606.4597, 25500.82
606.9418, 25552.46
607.4240, 25577.08
607.9061, 25568.42
608.3882, 25554.73
608.8703, 25565.96
609.3524, 25601.15
609.8345, 25648.95
610.3167, 25713.26
610.7988, 25780.74
611.2809, 25849.82
611.7630, 25916.01
612.2451, 25977.46
612.7272, 26038.60
613.2094, 26072.84
613.6915, 26035.88
614.1736, 25983.27
614.6557, 25995.03
615.1378, 26068.05
615.6199, 26135.34
616.1021, 26153.80
616.5842, 26144.65
617.0663, 26169.08
617.5484, 26261.73
618.0305, 26329.57
618.5126, 26356.10
618.9948, 26375.25
619.4769, 26404.72
619.9590, 26442.46
620.4411, 26478.53
620.9232, 26507.48
621.4053, 26535.04
621.8875, 26567.32
622.3696, 26604.39
622.8517, 26661.30
623.3338, 26755.40
623.8159, 26840.78
624.2980, 26862.47
624.7802, 26842.54
625.2623, 26854.37
625.7444, 26930.11
626.2265, 27008.08
626.7086, 27066.34
627.1907, 27107.25
627.6729, 27129.31
628.1550, 27134.58
628.6371, 27135.29
629.1192, 27140.08
629.6013, 27150.74
630.0834, 27183.70
630.5656, 27260.59
631.0477, 27323.78
631.5298, 27359.92
632.0119, 27384.73
632.4940, 27401.44
632.9761, 27415.71
633.4583, 27445.88
633.9404, 27509.82
634.4225, 27590.01
634.9046, 27670.73
635.3867, 27749.40
635.8688, 27779.15
636.3510, 27729.66
636.8331, 27664.66
637.3152, 27662.82
637.7973, 27731.88
638.2794, 27792.01
638.7615, 27847.78
639.2437, 27888.72
639.7258, 27901.29
640.2079, 27900.40
640.6900, 27899.01
641.1721, 27903.98
641.6542, 27931.79
642.1364, 28010.21
642.6185, 28132.64
643.1006, 28208.24
643.5827, 28220.37
644.0648, 28221.52
644.5469, 28209.62
645.0291, 28207.70
645.5112, 28245.55
645.9933, 28324.51
646.4754, 28395.95
646.9575, 28430.27
647.4396, 28451.67
647.9218, 28483.00
648.4039, 28524.75
648.8860, 28579.41
649.3681, 28650.77
649.8502, 28715.05
650.3323, 28731.19
650.8145, 28679.84
651.2966, 28669.73
651.7787, 28731.59
652.2608, 28797.24
652.7429, 28849.46
653.2250, 28892.24
653.7072, 28929.57
654.1893, 28963.23
654.6714, 28998.36
655.1535, 29046.95
655.6356, 29100.87
656.1177, 29126.70
656.5999, 29119.21
657.0820, 29121.00
657.5641, 29155.02
658.0462, 29206.60
658.5283, 29246.29
659.0104, 29267.85
659.4926, 29309.58
659.9747, 29409.24
660.4568, 29499.72
660.9389, 29525.87
661.4210, 29512.29
661.9031, 29510.50
662.3853, 29541.08
662.8674, 29591.49
663.3495, 29652.95
663.8316, 29728.26
664.3137, 29761.63
664.7958, 29717.06
665.2780, 29695.71
665.7601, 29767.10
666.2422, 29874.22
666.7243, 29951.87
667.2064, 29990.18
667.6885, 30024.56
668.1707, 30090.83
668.6528, 30149.23
669.1349, 30135.38
669.6170, 30066.16
670.0991, 30021.81
670.5812, 30040.24
671.0634, 30097.96
671.5455, 30157.40
672.0276, 30222.28
672.5097, 30273.93
672.9918, 30297.74
673.4739, 30324.14
673.9561, 30363.87
674.4382, 30410.34
674.9203, 30453.96
675.4024, 30492.15
675.8845, 30532.85
676.3666, 30594.53
676.8488, 30659.60
677.3309, 30682.04
677.8130, 30660.57
678.2951, 30642.13
678.7772, 30646.55
679.2593, 30670.21
679.7415, 30706.50
680.2236, 30754.77
680.7057, 30820.10
681.1878, 30927.92
681.6699, 31025.27
682.1520, 31080.19
682.6342, 31112.53
683.1163, 31157.27
683.5984, 31224.01
684.0805, 31283.94
684.5626, 31296.84
685.0447, 31273.77
685.5269, 31276.63
686.0090, 31309.49
686.4911, 31349.94
686.9732, 31390.60
687.4553, 31431.74
687.9374, 31475.24
688.4196, 31522.15
688.9017, 31563.32
689.3838, 31586.53
689.8659, 31614.58
690.3480, 31684.04
690.8301, 31761.27
691.3123, 31770.12
691.7944, 31693.54
692.2765, 31621.40
692.7586, 31670.63
693.2407, 31829.55
693.7228, 31925.93
694.2050, 31937.10
694.6871, 31948.36
695.1692, 31992.82
695.6513, 32048.75
696.1334, 32090.24
696.6155, 32117.25
697.0977, 32154.29
697.5798, 32229.78
698.0619, 32298.12
698.5440, 32319.71
699.0261, 32310.36
699.5082, 32296.38
699.9904, 32287.60
700.4725, 32297.99
700.9546, 32349.01
701.4367, 32435.90
701.9188, 32482.22
702.4009, 32463.84
702.8831, 32452.87
703.3652, 32450.69
703.8473, 32475.51
704.3294, 32568.43
704.8115, 32713.44
705.2936, 32812.18
705.7758, 32775.67
706.2579, 32726.37
706.7400, 32777.91
707.2221, 32891.28
707.7042, 32987.13
708.1863, 33045.25
708.6685, 33070.07
709.1506, 33060.17
709.6327, 33022.76
710.1148, 33012.02
710.5969, 33030.79
711.0790, 33072.18
711.5612, 33158.16
712.0433, 33245.52
712.5254, 33308.98
713.0075, 33350.09
713.4896, 33378.95
713.9717, 33397.75
714.4539, 33408.82
714.9360, 33399.70
715.4181, 33387.26
715.9002, 33416.67
716.3823, 33493.19
716.8644, 33576.45
717.3466, 33638.13
717.8287, 33682.44
718.3108, 33725.54
718.7929, 33765.53
719.2750, 33807.48
719.7571, 33865.41
720.2393, 33911.17
720.7214, 33928.95
721.2035, 33924.39
721.6856, 33900.94
722.1677, 33851.85
722.6498, 33827.34
723.1320, 33893.34
723.6141, 34006.66
724.0962, 34076.48
724.5783, 34098.06
725.0604, 34110.97
725.5425, 34132.81
726.0247, 34170.81
726.5068, 34246.71
726.9889, 34394.93
727.4710, 34475.50
727.9531, 34419.50
728.4352, 34376.03
728.9174, 34400.46
729.3995, 34462.85
729.8816, 34526.53
730.3637, 34582.94
730.8458, 34635.20
731.3279, 34683.62
731.8101, 34730.46
732.2922, 34785.19
732.7743, 34844.07
733.2564, 34879.04
733.7385, 34876.90
734.2206, 34868.61
734.7028, 34896.79
735.1849, 34965.53
735.6670, 35007.93
736.1491, 34978.96
736.6312, 34981.77
737.1133, 35068.88
737.5955, 35168.13
738.0776, 35206.50
738.5597, 35190.48
739.0418, 35190.70
739.5239, 35261.29
740.0060, 35343.74
740.4882, 35361.21
740.9703, 35334.75
741.4524, 35328.87
741.9345, 35356.94
742.4166, 35397.06
742.8987, 35431.12
743.3809, 35461.82
743.8630, 35504.01
744.3451, 35570.68
744.8272, 35624.61
745.3093, 35661.71
745.7914, 35688.11
746.2736, 35684.53
746.7557, 35676.80
747.2378, 35725.82
747.7199, 35866.66
748.2020, 35996.45
748.6841, 36011.64
749.1663, 35975.10
749.6484, 36016.97
750.1305, 36129.14
750.6126, 36170.46
751.0947, 36059.28
751.5768, 35898.99
752.0590, 35883.99
752.5411, 36056.27
753.0232, 36176.59
753.5053, 36223.11
753.9874, 36245.16
754.4695, 36230.58
754.9517, 36217.04
755.4338, 36257.52
755.9159, 36354.31
756.3980, 36428.87
756.8801, 36419.39
757.3622, 36392.22
757.8444, 36414.04
758.3265, 36468.35
758.8086, 36512.15
759.2907, 36534.58
759.7728, 36556.50
760.2549, 36597.17
760.7371, 36655.14
761.2192, 36723.69
761.7013, 36814.73
762.1834, 36885.38
762.6655, 36926.96
763.1476, 36946.64
763.6298, 36938.72
764.1119, 36914.36
764.5940, 36904.17
765.0761, 36918.23
765.5582, 36939.71
766.0403, 36949.43
766.5225, 36969.65
767.0046, 37038.14
767.4867, 37143.25
767.9688, 37234.41
768.4509, 37285.80
768.9330, 37318.81
769.4152, 37378.78
769.8973, 37468.97
770.3794, 37489.46
770.8615, 37403.32
771.3436, 37342.59
771.8257, 37375.03
772.3079, 37457.36
772.7900, 37533.31
773.2721, 37604.39
773.7542, 37651.00
774.2363, 37640.63
774.7184, 37638.16
775.2006, 37686.04
775.6827, 37756.66
776.1648, 37812.06
776.6469, 37846.51
777.1290, 37879.15
777.6111, 37925.62
778.0933, 37978.67
778.5754, 38021.50
779.0575, 38054.43
779.5396, 38084.60
780.0217, 38113.21
780.5038, 38139.59
780.9860, 38161.34
781.4681, 38180.82
781.9502, 38209.78
782.4323, 38268.85
782.9144, 38302.83
783.3965, 38263.80
783.8787, 38244.20
784.3608, 38326.98
784.8429, 38457.62
785.3250, 38531.68
785.8071, 38516.12
786.2892, 38482.34
786.7714, 38487.41
787.2535, 38517.11
787.7356, 38539.55
788.2177, 38558.41
788.6998, 38619.70
789.1819, 38746.80
789.6641, 38857.36
790.1462, 38837.37
790.6283, 38687.81
791.1104, 38631.17
791.5925, 38736.44
792.0746, 38819.02
792.5568, 38821.87
793.0389, 38814.44
793.5210, 38844.46
794.0031, 38905.70
794.4852, 38968.52
794.9673, 39025.55
795.4495, 39079.86
795.9316, 39123.65
796.4137, 39170.89
796.8958, 39256.61
797.3779, 39367.34
797.8600, 39438.70
798.3422, 39436.20
798.8243, 39402.61
799.3064, 39410.62
799.7885, 39461.98
800.2706, 39497.26
800.7527, 39512.65
801.2349, 39521.55
801.7170, 39526.79
802.1991, 39530.27
802.6812, 39525.71
803.1633, 39512.00
803.6454, 39537.83
804.1276, 39642.39
804.6097, 39745.21
805.0918, 39810.20
805.5739, 39863.22
806.0560, 39940.92
806.5381, 40036.91
807.0203, 40112.51
807.5024, 40145.41
807.9845, 40146.93
808.4666, 40111.22
808.9487, 40055.76
809.4308, 40062.43
809.9130, 40141.87
810.3951, 40202.00
810.8772, 40181.49
811.3593, 40130.35
811.8414, 40153.83
812.3235, 40277.75
812.8057, 40379.75
813.2878, 40481.79
813.7699, 40532.38
814.2520, 40468.89
814.7341, 40380.44
815.2162, 40354.21
815.6984, 40396.07
816.1805, 40464.02
816.6626, 40572.61
817.1447, 40668.93
817.6268, 40697.71
818.1089, 40695.55
818.5911, 40726.06
819.0732, 40791.87
819.5553, 40844.36
820.0374, 40849.41
820.5195, 40835.98
821.0016, 40874.22
821.4838, 40966.66
821.9659, 41011.61
822.4480, 40986.52
822.9301, 40964.67
823.4122, 40983.48
823.8943, 41026.58
824.3765, 41066.27
824.8586, 41100.81
825.3407, 41141.13
825.8228, 41193.74
826.3049, 41244.39
826.7870, 41299.39
827.2692, 41342.92
827.7513, 41344.40
828.2334, 41313.75
828.7155, 41307.00
829.1976, 41364.19
829.6797, 41439.44
830.1619, 41476.91
830.6440, 41493.57
831.1261, 41535.72
831.6082, 41605.22
832.0903, 41662.94
832.5724, 41686.27
833.0546, 41685.48
833.5367, 41673.67
834.0188, 41642.90
834.5009, 41660.44
834.9830, 41757.61
835.4651, 41839.34
835.9473, 41859.34
836.4294, 41856.23
836.9115, 41869.63
837.3936, 41899.41
837.8757, 41939.95
838.3578, 42018.98
838.8400, 42073.38
839.3221, 42054.86
839.8042, 42019.07
840.2863, 42021.09
840.7684, 42059.01
841.2505, 42104.14
841.7327, 42143.46
842.2148, 42180.27
842.6969, 42219.29
843.1790, 42258.81
843.6611, 42295.04
844.1432, 42327.60
844.6254, 42354.68
845.1075, 42374.98
845.5896, 42392.67
846.0717, 42414.39
846.5538, 42439.99
847.0359, 42453.63
847.5181, 42435.49
848.0002, 42444.32
848.4823, 42526.54
848.9644, 42606.36
849.4465, 42616.16
849.9286, 42581.79
850.4108, 42586.26
850.8929, 42669.62
851.3750, 42731.50
851.8571, 42706.36
852.3392, 42672.70
852.8214, 42713.72
853.3035, 42792.51
853.7856, 42813.51
854.2677, 42752.20
854.7498, 42699.22
855.2319, 42760.35
855.7141, 42881.14
856.1962, 42929.16
856.6783, 42915.84
857.1604, 42929.48
857.6425, 42993.40
858.1246, 43056.97
858.6068, 43076.92
859.0889, 43064.45
859.5710, 43057.43
860.0531, 43040.48
860.5352, 43073.55
861.0173, 43222.15
861.4995, 43336.83
861.9816, 43297.80
862.4637, 43215.08
862.9458, 43249.31
863.4279, 43419.85
863.9100, 43552.41
864.3922, 43580.40
864.8743, 43586.21
865.3564, 43604.98
865.8385, 43630.63
866.3206, 43653.58
866.8027, 43673.63
867.2849, 43701.13
867.7670, 43747.62
868.2491, 43780.87
868.7312, 43720.44
869.2133, 43618.49
869.6954, 43657.85
870.1776, 43837.62
870.6597, 43956.82
871.1418, 43920.20
871.6239, 43822.58
872.1060, 43794.05
872.5881, 43834.34
873.0703, 43876.49
873.5524, 43923.33
874.0345, 43964.98
874.5166, 43996.71
874.9987, 44026.02
875.4808, 44050.89
875.9630, 44078.24
876.4451, 44136.82
876.9272, 44278.56
877.4093, 44342.93
877.8914, 44216.07
878.3735, 44087.16
878.8557, 44077.62
879.3378, 44140.89
879.8199, 44200.71
880.3020, 44237.81
880.7841, 44263.16
881.2662, 44278.08
881.7484, 44291.29
882.2305, 44308.54
882.7126, 44333.59
883.1947, 44383.21
883.6768, 44455.28
884.1589, 44519.36
884.6411, 44556.48
885.1232, 44568.97
885.6053, 44550.16
886.0874, 44498.18
886.5695, 44489.81
887.0516, 44535.57
887.5338, 44590.40
888.0159, 44645.90
888.4980, 44687.93
888.9801, 44691.25
889.4622, 44656.08
889.9443, 44653.75
890.4265, 44718.62
890.9086, 44766.64
891.3907, 44772.77
891.8728, 44777.06
892.3549, 44801.11
892.8370, 44842.52
893.3192, 44898.93
893.8013, 44973.52
894.2834, 45031.98
894.7655, 45056.57
895.2476, 45059.09
895.7297, 45028.48
896.2119, 44991.26
896.6940, 45001.58
897.1761, 45059.80
897.6582, 45100.89
898.1403, 45068.63
898.6224, 45028.32
899.1046, 45118.89
899.5867, 45299.29
900.0688, 45378.13
900.5509, 45339.77
901.0330, 45290.35
901.5151, 45277.14
901.9973, 45291.64
902.4794, 45321.87
902.9615, 45367.84
903.4436, 45436.70
903.9257, 45547.77
904.4078, 45634.01
904.8900, 45696.36
905.3721, 45710.68
905.8542, 45607.83
906.3363, 45445.73
906.8184, 45412.70
907.3005, 45587.16
907.7827, 45705.30
908.2648, 45684.36
908.7469, 45657.21
909.2290, 45697.36
909.7111, 45762.68
910.1932, 45793.34
910.6754, 45785.96
911.1575, 45786.01
911.6396, 45816.09
912.1217, 45860.26
912.6038, 45918.48
913.0859, 45974.88
913.5681, 45997.05
914.0502, 45994.64
914.5323, 46016.88
915.0144, 46084.45
915.4965, 46147.57
915.9786, 46137.74
916.4607, 46076.42
916.9428, 46035.14
917.4249, 46014.03
917.9070, 46021.03
918.3892, 46061.52
918.8713, 46092.68
919.3534, 46076.71
919.8355, 46033.05
920.3176, 46018.30
920.7997, 46032.15
921.2819, 46082.43
921.7640, 46202.38
922.2461, 46292.70
922.7282, 46289.10
923.2103, 46257.08
923.6924, 46285.07
924.1746, 46368.28
924.6567, 46419.25
925.1388, 46396.46
925.6209, 46393.50
926.1030, 46450.47
926.5851, 46509.11
927.0673, 46515.80
927.5494, 46499.80
928.0315, 46526.70
928.5136, 46613.59
928.9957, 46681.34
929.4778, 46661.66
929.9600, 46633.30
930.4421, 46670.83
930.9242, 46737.78
931.4063, 46777.07
931.8884, 46783.45
932.3705, 46781.73
932.8527, 46786.09
933.3348, 46787.46
933.8169, 46759.94
934.2990, 46723.46
934.7811, 46748.95
935.2632, 46826.96
935.7454, 46864.19
936.2275, 46829.82
936.7096, 46787.34
937.1917, 46799.84
937.6738, 46852.87
938.1559, 46891.49
938.6381, 46913.47
939.1202, 46934.39
939.6023, 46951.29
940.0844, 46984.78
940.5665, 47061.74
941.0486, 47137.76
941.5308, 47132.04
942.0129, 47031.78
942.4950, 46989.89
942.9771, 47044.34
943.4592, 47099.74
943.9413, 47146.54
944.4235, 47186.56
944.9056, 47226.16
945.3877, 47258.93
945.8698, 47264.48
946.3519, 47228.34
946.8340, 47220.33
947.3162, 47287.28
947.7983, 47353.64
948.2804, 47361.78
948.7625, 47360.29
949.2446, 47431.09
949.7267, 47553.16
950.2089, 47608.86
950.6910, 47526.16
951.1731, 47433.00
951.6552, 47429.80
952.1373, 47472.75
952.6194, 47519.75
953.1016, 47563.86
953.5837, 47608.34
954.0658, 47649.34
954.5479, 47650.66
955.0300, 47559.46
955.5121, 47456.32
955.9943, 47519.16
956.4764, 47701.25
956.9585, 47819.52
957.4406, 47856.10
957.9227, 47852.79
958.4048, 47826.87
958.8870, 47797.18
959.3691, 47786.58
959.8512, 47795.36
960.3333, 47835.19
960.8154, 47914.40
961.2975, 47955.97
961.7797, 47933.10
962.2618, 47918.20
962.7439, 47972.52
963.2260, 48047.22
963.7081, 48026.92
964.1902, 47876.97
964.6724, 47819.44
965.1545, 47915.61
965.6366, 48003.19
966.1187, 48056.06
966.6008, 48077.28
967.0829, 48053.34
967.5651, 48001.07
968.0472, 47969.51
968.5293, 47954.67
969.0114, 47978.36
969.4935, 48108.52
969.9756, 48201.46
970.4578, 48144.90
970.9399, 48052.53
971.4220, 48056.19
971.9041, 48149.36
972.3862, 48234.94
972.8683, 48286.38
973.3505, 48309.70
973.8326, 48291.59
974.3147, 48261.49
974.7968, 48245.77
975.2789, 48237.62
975.7610, 48212.25
976.2432, 48170.97
976.7253, 48157.93
977.2074, 48213.93
977.6895, 48289.35
978.1716, 48343.39
978.6537, 48372.98
979.1359, 48352.95
979.6180, 48302.60
980.1001, 48297.94
980.5822, 48364.09
981.0643, 48437.13
981.5464, 48452.61
982.0286, 48429.13
982.5107, 48396.14
982.9928, 48360.73
983.4749, 48362.41
983.9570, 48404.71
984.4391, 48453.12
984.9213, 48489.51
985.4034, 48523.32
985.8855, 48572.86
986.3676, 48633.04
986.8497, 48647.89
987.3318, 48610.22
987.8140, 48619.54
988.2961, 48707.30
988.7782, 48783.32
989.2603, 48781.63
989.7424, 48743.58
990.2245, 48758.03
990.7067, 48834.27
991.1888, 48891.09
991.6709, 48937.46
992.1530, 48938.59
992.6351, 48846.94
993.1172, 48766.59
993.5994, 48784.84
994.0815, 48873.95
994.5636, 48950.10
995.0457, 49010.18
995.5278, 49064.99
996.0099, 49127.65
996.4921, 49167.61
996.9742, 49151.76
997.4563, 49130.97
997.9384, 49155.96
998.4205, 49212.66
998.9026, 49248.64
999.3848, 49257.01
999.8669, 49245.79
1000.349, 49191.05
1000.831, 49147.14
1001.313, 49149.57
1001.795, 49170.21
1002.277, 49175.45
1002.760, 49167.48
1003.242, 49173.37
1003.724, 49209.96
1004.206, 49240.87
1004.688, 49235.13
1005.170, 49231.98
1005.652, 49274.81
1006.134, 49333.87
1006.617, 49361.21
1007.099, 49353.16
1007.581, 49341.30
1008.063, 49343.46
1008.545, 49341.05
1009.027, 49306.00
1009.509, 49268.27
1009.991, 49261.01
1010.473, 49280.50
1010.956, 49316.18
1011.438, 49363.45
1011.920, 49418.30
1012.402, 49485.23
1012.884, 49540.84
1013.366, 49548.98
1013.848, 49528.37
1014.330, 49506.30
1014.813, 49489.30
1015.295, 49493.58
1015.777, 49521.46
1016.259, 49542.61
1016.741, 49522.21
1017.223, 49499.03
1017.705, 49567.47
1018.187, 49693.10
1018.669, 49746.80
1019.152, 49727.10
1019.634, 49708.30
1020.116, 49718.47
1020.598, 49744.05
1021.080, 49775.36
1021.562, 49804.54
1022.044, 49802.48
1022.526, 49773.23
1023.008, 49765.05
1023.491, 49782.71
1023.973, 49767.50
1024.455, 49690.39
1024.937, 49611.77
1025.419, 49600.23
1025.901, 49646.99
1026.383, 49723.09
1026.865, 49832.64
1027.348, 49907.29
1027.830, 49940.88
1028.312, 49929.38
1028.794, 49858.93
1029.276, 49781.79
1029.758, 49764.04
1030.240, 49799.52
1030.722, 49846.44
1031.204, 49914.66
1031.687, 49944.27
1032.169, 49912.25
1032.651, 49894.89
1033.133, 49937.40
1033.615, 49993.89
1034.097, 49997.02
1034.579, 49953.20
1035.061, 49968.84
1035.544, 50085.48
1036.026, 50149.78
1036.508, 50120.62
1036.990, 50091.75
1037.472, 50114.01
1037.954, 50151.47
1038.436, 50160.36
1038.918, 50140.88
1039.401, 50096.14
1039.883, 49963.67
1040.365, 49925.65
1040.847, 50073.02
1041.329, 50209.93
1041.811, 50250.91
1042.293, 50235.59
1042.775, 50207.29
1043.257, 50166.54
1043.740, 50126.79
1044.222, 50058.23
1044.704, 50037.32
1045.186, 50135.89
1045.668, 50204.00
1046.150, 50100.62
1046.632, 49979.59
1047.114, 50072.67
1047.596, 50361.57
1048.079, 50519.88
1048.561, 50435.29
1049.043, 50346.74
1049.525, 50241.89
1050.007, 50183.84
1050.489, 50249.38
1050.971, 50347.13
1051.453, 50349.88
1051.936, 50267.60
1052.418, 50244.71
1052.900, 50374.95
1053.382, 50444.16
1053.864, 50329.04
1054.346, 50237.71
1054.828, 50326.27
1055.310, 50466.82
1055.792, 50484.46
1056.275, 50393.45
1056.757, 50365.29
1057.239, 50482.51
1057.721, 50571.62
1058.203, 50579.46
1058.685, 50554.02
1059.167, 50507.38
1059.649, 50451.50
1060.131, 50376.01
1060.614, 50298.75
1061.096, 50296.70
1061.578, 50428.54
1062.060, 50533.74
1062.542, 50533.81
1063.024, 50519.09
1063.506, 50542.81
1063.988, 50578.23
1064.471, 50599.61
1064.953, 50601.29
1065.435, 50575.45
1065.917, 50510.00
1066.399, 50452.77
1066.881, 50420.49
1067.363, 50404.34
1067.845, 50405.28
1068.328, 50415.17
1068.810, 50426.82
1069.292, 50439.64
1069.774, 50456.96
1070.256, 50481.82
1070.738, 50499.16
1071.220, 50505.19
1071.702, 50498.75
1072.184, 50462.75
1072.667, 50426.84
1073.149, 50413.89
1073.631, 50429.32
1074.113, 50487.97
1074.595, 50599.03
1075.077, 50682.79
1075.559, 50691.00
1076.041, 50675.85
1076.523, 50656.77
1077.006, 50636.02
1077.488, 50599.08
1077.970, 50565.77
1078.452, 50587.93
1078.934, 50677.43
1079.416, 50746.97
1079.898, 50743.92
1080.380, 50729.16
1080.862, 50739.32
1081.345, 50747.81
1081.827, 50727.95
1082.309, 50689.30
1082.791, 50646.29
1083.273, 50604.16
1083.755, 50584.77
1084.237, 50606.36
1084.719, 50640.16
1085.202, 50686.38
1085.684, 50726.09
1086.166, 50748.14
1086.648, 50751.29
1087.130, 50722.59
1087.612, 50668.93
1088.094, 50645.27
1088.576, 50694.92
1089.058, 50732.07
1089.541, 50703.11
1090.023, 50666.18
1090.505, 50672.61
1090.987, 50689.40
1091.469, 50648.49
1091.951, 50567.45
1092.433, 50560.06
1092.915, 50696.00
1093.397, 50804.79
1093.880, 50780.29
1094.362, 50754.22
1094.844, 50840.54
1095.326, 50937.94
1095.808, 50918.69
1096.290, 50808.26
1096.772, 50713.32
1097.254, 50654.98
1097.737, 50634.89
1098.219, 50687.79
1098.701, 50735.90
1099.183, 50749.88
1099.665, 50738.68
1100.147, 50685.48
1100.629, 50622.32
1101.111, 50629.42
1101.594, 50728.98
1102.076, 50775.23
1102.558, 50683.36
1103.040, 50597.58
1103.522, 50537.23
1104.004, 50527.14
1104.486, 50640.52
1104.968, 50788.32
1105.450, 50809.84
1105.932, 50694.93
1106.415, 50626.75
1106.897, 50648.31
1107.379, 50705.61
1107.861, 50857.72
1108.343, 50963.02
1108.825, 50929.71
1109.307, 50821.67
1109.789, 50679.32
1110.272, 50525.48
1110.754, 50481.64
1111.236, 50656.00
1111.718, 50750.37
1112.200, 50644.72
1112.682, 50575.68
1113.164, 50687.03
1113.646, 50817.37
1114.129, 50798.18
1114.611, 50678.55
1115.093, 50632.02
1115.575, 50693.60
1116.057, 50726.55
1116.539, 50711.58
1117.021, 50697.30
1117.503, 50695.95
1117.985, 50693.73
1118.468, 50671.87
1118.950, 50648.80
1119.432, 50666.21
1119.914, 50729.92
1120.396, 50758.72
1120.878, 50727.29
1121.360, 50716.65
1121.842, 50753.48
1122.324, 50777.45
1122.807, 50741.25
1123.289, 50702.64
1123.771, 50745.82
1124.253, 50856.32
1124.735, 50911.12
1125.217, 50900.96
1125.699, 50863.32
1126.181, 50782.60
1126.664, 50730.63
1127.146, 50738.51
1127.628, 50767.11
1128.110, 50782.87
1128.592, 50789.29
1129.074, 50797.03
1129.556, 50806.76
1130.038, 50811.80
1130.521, 50813.68
1131.003, 50792.43
1131.485, 50737.27
1131.967, 50699.70
1132.449, 50714.51
1132.931, 50758.51
1133.413, 50796.52
1133.895, 50828.57
1134.377, 50864.96
1134.859, 50904.06
1135.342, 50870.15
1135.824, 50755.27
1136.306, 50704.18
1136.788, 50782.01
1137.270, 50873.11
1137.752, 50846.02
1138.234, 50763.57
1138.716, 50808.80
1139.199, 50936.02
1139.681, 50913.71
1140.163, 50764.21
1140.645, 50715.50
1141.127, 50818.96
1141.609, 50919.94
1142.091, 50912.60
1142.573, 50848.89
1143.056, 50777.72
1143.538, 50715.82
1144.020, 50700.57
1144.502, 50722.50
1144.984, 50761.26
1145.466, 50809.72
1145.948, 50866.32
1146.430, 50929.41
1146.912, 50961.08
1147.395, 50890.89
1147.877, 50814.61
1148.359, 50876.78
1148.841, 50975.95
1149.323, 50940.58
1149.805, 50828.26
1150.287, 50803.17
1150.769, 50892.46
1151.251, 50989.25
1151.734, 51051.69
1152.216, 51071.25
1152.698, 51004.92
1153.180, 50931.64
1153.662, 50915.51
1154.144, 50933.76
1154.626, 50959.53
1155.108, 50986.70
1155.591, 51012.80
1156.073, 51037.75
1156.555, 51058.49
1157.037, 51073.05
1157.519, 51084.80
1158.001, 51099.53
1158.483, 51108.00
1158.965, 51085.85
1159.448, 51060.85
1159.930, 51100.69
1160.412, 51207.98
1160.894, 51236.69
1161.376, 51078.10
1161.858, 50986.71
1162.340, 51045.88
1162.822, 51095.85
1163.304, 51066.18
1163.786, 51015.01
1164.269, 51001.14
1164.751, 51008.59
1165.233, 50976.60
1165.715, 50885.13
1166.197, 50844.79
1166.679, 50865.02
1167.161, 50918.96
1167.643, 51029.75
1168.126, 51091.56
1168.608, 51024.29
1169.090, 50912.50
1169.572, 50879.31
1170.054, 50918.40
1170.536, 50995.44
1171.018, 51114.17
1171.500, 51183.30
1171.983, 51193.91
1172.465, 51195.10
1172.947, 51203.96
1173.429, 51200.53
1173.911, 51165.70
1174.393, 51118.79
1174.875, 51108.66
1175.357, 51115.84
1175.839, 51029.80
1176.322, 50890.26
1176.804, 50898.28
1177.286, 51056.78
1177.768, 51159.67
1178.250, 51115.43
1178.732, 51064.38
1179.214, 51170.39
1179.696, 51301.80
1180.178, 51260.48
1180.661, 51142.01
1181.143, 51096.26
1181.625, 51098.73
1182.107, 51053.11
1182.589, 50955.76
1183.071, 50906.96
1183.553, 50968.34
1184.035, 51028.50
1184.518, 50988.14
1185.000, 50955.49
1185.482, 51031.95
1185.964, 51135.51
1186.446, 51179.23
1186.928, 51175.30
1187.410, 51168.69
1187.892, 51167.21
1188.375, 51162.99
1188.857, 51163.14
1189.339, 51146.87
1189.821, 51088.48
1190.303, 51038.11
1190.785, 51016.18
1191.267, 51017.49
1191.749, 51052.55
1192.231, 51103.98
1192.714, 51099.70
1193.196, 51015.99
1193.678, 50968.37
1194.160, 50961.62
1194.642, 50983.32
1195.124, 51046.82
1195.606, 51093.42
1196.088, 51089.25
1196.570, 51049.91
1197.053, 50992.38
1197.535, 50922.57
1198.017, 50861.87
1198.499, 50811.22
1198.981, 50821.68
1199.463, 50892.53
1199.945, 50924.48
1200.427, 50891.31
1200.910, 50872.96
1201.392, 50927.13
1201.874, 51001.27
1202.356, 51021.29
1202.838, 51006.63
1203.320, 50994.81
1203.802, 50983.29
1204.284, 50959.51
1204.766, 50930.00
1205.249, 50918.61
1205.731, 50932.16
1206.213, 50961.37
1206.695, 51014.47
1207.177, 51048.09
1207.659, 51018.26
1208.141, 50965.37
1208.623, 50897.63
1209.105, 50848.14
1209.588, 50874.68
1210.070, 50951.37
1210.552, 50993.58
1211.034, 50981.64
1211.516, 50957.02
1211.998, 50912.74
1212.480, 50881.41
1212.962, 50870.53
1213.445, 50874.93
1213.927, 50901.27
1214.409, 50934.55
1214.891, 50972.52
1215.373, 51002.25
1215.855, 50955.83
1216.337, 50795.15
1216.819, 50733.27
1217.302, 50799.52
1217.784, 50855.15
1218.266, 50877.32
1218.748, 50848.80
1219.230, 50746.34
1219.712, 50658.40
1220.194, 50712.50
1220.676, 50851.88
1221.158, 50883.05
1221.641, 50830.68
1222.123, 50837.73
1222.605, 50893.66
1223.087, 50879.44
1223.569, 50781.21
1224.051, 50724.08
1224.533, 50781.36
1225.015, 50831.78
1225.497, 50707.02
1225.980, 50554.48
1226.462, 50564.02
1226.944, 50637.54
1227.426, 50645.77
1227.908, 50611.14
1228.390, 50606.89
1228.872, 50640.34
1229.354, 50661.07
1229.837, 50644.16
1230.319, 50634.95
1230.801, 50660.80
1231.283, 50681.76
1231.765, 50672.27
1232.247, 50659.96
1232.729, 50686.04
1233.211, 50714.18
1233.693, 50656.03
1234.176, 50518.41
1234.658, 50509.26
1235.140, 50709.66
1235.622, 50779.98
1236.104, 50658.81
1236.586, 50583.84
1237.068, 50635.41
1237.550, 50694.11
1238.032, 50670.72
1238.515, 50617.72
1238.997, 50632.37
1239.479, 50686.22
1239.961, 50642.61
1240.443, 50532.45
1240.925, 50513.66
1241.407, 50575.21
1241.889, 50580.07
1242.372, 50500.95
1242.854, 50461.35
1243.336, 50551.22
1243.818, 50619.52
1244.300, 50459.41
1244.782, 50279.17
1245.264, 50304.52
1245.746, 50410.85
1246.229, 50479.02
1246.711, 50488.91
1247.193, 50409.18
1247.675, 50249.89
1248.157, 50145.14
1248.639, 50129.66
1249.121, 50166.73
1249.603, 50317.12
1250.085, 50426.45
1250.568, 50429.95
1251.050, 50397.02
1251.532, 50362.08
1252.014, 50329.73
1252.496, 50310.62
1252.978, 50301.75
1253.460, 50264.44
1253.942, 50191.76
1254.424, 50162.54
1254.907, 50181.78
1255.389, 50260.22
1255.871, 50398.43
1256.353, 50459.74
1256.835, 50350.54
1257.317, 50203.41
1257.799, 50201.26
1258.281, 50261.34
1258.764, 50238.15
1259.246, 50166.38
1259.728, 50077.32
1260.210, 50004.40
1260.692, 50024.34
1261.174, 50129.91
1261.656, 50221.25
1262.138, 50261.27
1262.620, 50272.16
1263.103, 50226.64
1263.585, 50204.45
1264.067, 50287.58
1264.549, 50356.41
1265.031, 50289.69
1265.513, 50181.82
1265.995, 50177.54
1266.477, 50254.60
1266.959, 50292.99
1267.442, 50282.53
1267.924, 50275.72
1268.406, 50277.14
1268.888, 50255.30
1269.370, 50199.88
1269.852, 50155.16
1270.334, 50143.35
1270.816, 50156.93
1271.299, 50194.95
1271.781, 50233.59
1272.263, 50209.40
1272.745, 50154.85
1273.227, 50152.73
1273.709, 50186.32
1274.191, 50218.32
1274.673, 50234.95
1275.156, 50210.09
1275.638, 50139.20
1276.120, 50090.03
1276.602, 50110.19
1277.084, 50141.23
1277.566, 50167.40
1278.048, 50179.40
1278.530, 50163.92
1279.012, 50137.68
1279.495, 50114.36
1279.977, 50094.03
1280.459, 50073.72
1280.941, 50050.21
1281.423, 50029.76
1281.905, 50023.27
1282.387, 50004.39
1282.869, 49967.24
1283.351, 49949.70
1283.834, 49966.82
1284.316, 49972.98
1284.798, 49935.18
1285.280, 49879.91
1285.762, 49841.77
1286.244, 49845.38
##END=



