##NAMES=Painite
##RRUFFID=R100164
##IDEAL CHEMISTRY=CaZr^4+^Al_9_O_15_(BO_3_)
##LOCALITY=Mogok, Burma
##OWNER=RRUFF
##SOURCE=William W. Pinch
##DESCRIPTION=Brown fragment associated with red ruby corundum
##STATUS=The identification of this mineral has been confirmed by single-crystal X-ray diffraction.
##URL=rruff.info/R100164
133.5138, 44126.40
133.9959, 44129.41
134.4781, 44159.25
134.9602, 44183.92
135.4423, 44190.84
135.9244, 44188.63
136.4065, 44189.43
136.8886, 44201.65
137.3708, 44223.82
137.8529, 44235.69
138.3350, 44224.00
138.8171, 44214.34
139.2992, 44213.42
139.7813, 44219.43
140.2635, 44227.40
140.7456, 44233.37
141.2277, 44237.31
141.7098, 44238.51
142.1919, 44233.02
142.6740, 44228.68
143.1561, 44232.61
143.6383, 44244.14
144.1204, 44253.84
144.6025, 44250.67
145.0846, 44231.91
145.5667, 44219.76
146.0488, 44219.33
146.5310, 44224.21
147.0131, 44229.67
147.4952, 44235.95
147.9773, 44237.85
148.4594, 44221.71
148.9415, 44191.22
149.4237, 44171.77
149.9058, 44179.60
150.3879, 44206.07
150.8700, 44227.78
151.3521, 44242.07
151.8342, 44248.50
152.3164, 44243.20
152.7985, 44228.13
153.2806, 44218.80
153.7627, 44232.48
154.2448, 44269.77
154.7269, 44295.14
155.2091, 44287.49
155.6912, 44278.34
156.1733, 44283.87
156.6554, 44305.11
157.1375, 44332.75
157.6196, 44356.95
158.1018, 44378.39
158.5839, 44393.22
159.0660, 44401.68
159.5481, 44404.09
160.0302, 44397.36
160.5123, 44381.81
160.9945, 44363.80
161.4766, 44354.74
161.9587, 44360.68
162.4408, 44367.36
162.9229, 44376.12
163.4050, 44384.89
163.8871, 44391.58
164.3693, 44395.50
164.8514, 44397.71
165.3335, 44400.76
165.8156, 44406.81
166.2977, 44410.98
166.7798, 44412.52
167.2620, 44412.10
167.7441, 44411.01
168.2262, 44410.13
168.7083, 44408.44
169.1904, 44402.49
169.6725, 44389.68
170.1547, 44378.32
170.6368, 44369.68
171.1189, 44364.62
171.6010, 44366.98
172.0831, 44381.75
172.5652, 44402.76
173.0474, 44417.46
173.5295, 44424.88
174.0116, 44427.95
174.4937, 44426.80
174.9758, 44421.48
175.4579, 44418.76
175.9401, 44425.77
176.4222, 44435.01
176.9043, 44437.53
177.3864, 44430.00
177.8685, 44419.75
178.3506, 44415.00
178.8328, 44415.59
179.3149, 44422.88
179.7970, 44444.20
180.2791, 44468.98
180.7612, 44487.63
181.2433, 44496.23
181.7255, 44498.85
182.2076, 44504.69
182.6897, 44517.45
183.1718, 44525.92
183.6539, 44523.92
184.1360, 44518.46
184.6181, 44517.53
185.1003, 44525.20
185.5824, 44537.96
186.0645, 44543.29
186.5466, 44530.09
187.0287, 44522.73
187.5108, 44527.75
187.9930, 44539.50
188.4751, 44551.23
188.9572, 44559.25
189.4393, 44564.05
189.9214, 44567.65
190.4035, 44570.74
190.8857, 44572.33
191.3678, 44565.99
191.8499, 44558.68
192.3320, 44565.58
192.8141, 44598.88
193.2962, 44651.92
193.7784, 44670.80
194.2605, 44624.10
194.7426, 44585.18
195.2247, 44584.08
195.7068, 44611.80
196.1889, 44641.43
196.6711, 44657.45
197.1532, 44661.37
197.6353, 44664.84
198.1174, 44666.86
198.5995, 44668.93
199.0816, 44671.94
199.5638, 44675.68
200.0459, 44679.02
200.5280, 44680.18
201.0101, 44681.05
201.4922, 44686.25
201.9743, 44698.81
202.4565, 44713.17
202.9386, 44724.79
203.4207, 44733.78
203.9028, 44742.45
204.3849, 44751.52
204.8670, 44761.62
205.3492, 44773.96
205.8313, 44791.22
206.3134, 44807.91
206.7955, 44815.42
207.2776, 44811.45
207.7597, 44809.28
208.2419, 44817.48
208.7240, 44829.55
209.2061, 44839.29
209.6882, 44844.00
210.1703, 44846.55
210.6524, 44852.77
211.1346, 44865.25
211.6167, 44873.82
212.0988, 44868.42
212.5809, 44860.55
213.0630, 44862.66
213.5451, 44880.60
214.0273, 44907.00
214.5094, 44925.04
214.9915, 44929.79
215.4736, 44934.64
215.9557, 44945.73
216.4378, 44957.09
216.9200, 44961.04
217.4021, 44953.92
217.8842, 44941.74
218.3663, 44941.88
218.8484, 44966.84
219.3305, 44987.00
219.8127, 45001.59
220.2948, 45009.32
220.7769, 45005.78
221.2590, 44988.96
221.7411, 44966.14
222.2232, 44959.03
222.7054, 44987.43
223.1875, 45008.89
223.6696, 45019.83
224.1517, 45023.04
224.6338, 45018.82
225.1159, 45007.16
225.5980, 44993.74
226.0802, 44995.44
226.5623, 45034.31
227.0444, 45062.27
227.5265, 45068.40
228.0086, 45063.84
228.4907, 45062.84
228.9729, 45071.51
229.4550, 45085.75
229.9371, 45094.80
230.4192, 45095.99
230.9013, 45096.68
231.3834, 45096.46
231.8656, 45096.71
232.3477, 45100.12
232.8298, 45108.07
233.3119, 45118.11
233.7940, 45124.21
234.2761, 45123.25
234.7583, 45126.29
235.2404, 45138.49
235.7225, 45155.91
236.2046, 45171.32
236.6867, 45181.68
237.1688, 45190.60
237.6510, 45206.14
238.1331, 45229.80
238.6152, 45249.25
239.0973, 45260.52
239.5794, 45264.57
240.0615, 45261.31
240.5437, 45247.37
241.0258, 45233.09
241.5079, 45234.27
241.9900, 45250.61
242.4721, 45266.11
242.9542, 45275.39
243.4364, 45279.06
243.9185, 45276.27
244.4006, 45262.02
244.8827, 45251.02
245.3648, 45259.81
245.8469, 45286.03
246.3290, 45314.71
246.8112, 45342.49
247.2933, 45367.45
247.7754, 45383.16
248.2575, 45385.31
248.7396, 45383.35
249.2217, 45382.85
249.7039, 45384.02
250.1860, 45388.26
250.6681, 45399.75
251.1502, 45415.38
251.6323, 45423.80
252.1144, 45422.68
252.5966, 45416.44
253.0787, 45401.01
253.5608, 45382.63
254.0429, 45376.02
254.5250, 45396.15
255.0071, 45434.96
255.4893, 45460.44
255.9714, 45465.39
256.4535, 45467.89
256.9356, 45477.62
257.4177, 45490.76
257.8998, 45500.65
258.3820, 45502.04
258.8641, 45498.27
259.3462, 45502.26
259.8283, 45522.16
260.3104, 45536.06
260.7925, 45532.94
261.2747, 45521.69
261.7568, 45513.29
262.2389, 45512.64
262.7210, 45519.04
263.2031, 45532.13
263.6852, 45560.15
264.1674, 45580.23
264.6495, 45581.55
265.1316, 45575.82
265.6137, 45575.17
266.0958, 45584.88
266.5779, 45602.08
267.0601, 45620.18
267.5422, 45639.24
268.0243, 45659.51
268.5064, 45688.45
268.9885, 45714.82
269.4706, 45727.36
269.9528, 45722.34
270.4349, 45706.35
270.9170, 45689.32
271.3991, 45660.52
271.8812, 45653.88
272.3633, 45686.91
272.8455, 45729.13
273.3276, 45757.79
273.8097, 45767.30
274.2918, 45766.62
274.7739, 45768.69
275.2560, 45774.32
275.7382, 45781.07
276.2202, 45786.17
276.7024, 45793.90
277.1845, 45808.94
277.6666, 45830.77
278.1487, 45853.20
278.6308, 45868.36
279.1129, 45873.09
279.5951, 45880.71
280.0772, 45887.86
280.5593, 45899.74
281.0414, 45925.60
281.5235, 45961.14
282.0056, 45990.60
282.4878, 45998.12
282.9699, 45980.65
283.4520, 45962.89
283.9341, 45942.59
284.4162, 45924.52
284.8983, 45910.93
285.3805, 45901.60
285.8626, 45894.57
286.3447, 45887.80
286.8268, 45881.64
287.3089, 45887.46
287.7910, 45919.57
288.2732, 45947.67
288.7553, 45960.36
289.2374, 45962.80
289.7195, 45965.82
290.2016, 45976.24
290.6837, 45991.77
291.1659, 46000.31
291.6480, 45992.33
292.1301, 45987.87
292.6122, 45992.43
293.0943, 46001.61
293.5764, 46009.49
294.0586, 46013.38
294.5407, 46013.94
295.0228, 46013.05
295.5049, 46008.19
295.9870, 46005.05
296.4691, 46001.37
296.9513, 46000.79
297.4334, 46010.23
297.9155, 46031.45
298.3976, 46055.43
298.8797, 46066.33
299.3618, 46051.27
299.8440, 46047.49
300.3261, 46062.29
300.8082, 46083.45
301.2903, 46103.50
301.7724, 46120.04
302.2545, 46131.16
302.7367, 46133.60
303.2188, 46123.11
303.7009, 46119.66
304.1830, 46127.32
304.6651, 46137.51
305.1472, 46143.76
305.6294, 46146.57
306.1115, 46152.00
306.5936, 46166.37
307.0757, 46190.52
307.5578, 46204.77
308.0399, 46202.21
308.5221, 46198.55
309.0042, 46201.81
309.4863, 46209.85
309.9684, 46216.49
310.4505, 46218.23
310.9326, 46215.04
311.4148, 46205.69
311.8969, 46173.06
312.3790, 46155.00
312.8611, 46172.04
313.3432, 46207.72
313.8253, 46235.05
314.3075, 46241.40
314.7896, 46234.82
315.2717, 46235.66
315.7538, 46250.50
316.2359, 46263.77
316.7180, 46274.25
317.2001, 46282.73
317.6823, 46289.61
318.1644, 46295.07
318.6465, 46299.71
319.1286, 46303.89
319.6107, 46304.90
320.0928, 46312.37
320.5750, 46331.98
321.0571, 46353.38
321.5392, 46367.48
322.0213, 46373.61
322.5034, 46378.71
322.9855, 46390.08
323.4677, 46409.14
323.9498, 46421.49
324.4319, 46424.09
324.9140, 46423.56
325.3961, 46418.77
325.8782, 46412.94
326.3604, 46416.24
326.8425, 46438.55
327.3246, 46476.44
327.8067, 46488.41
328.2888, 46450.92
328.7709, 46419.11
329.2531, 46412.37
329.7352, 46420.16
330.2173, 46424.74
330.6994, 46417.80
331.1815, 46403.27
331.6636, 46391.23
332.1458, 46374.54
332.6279, 46370.48
333.1100, 46389.29
333.5921, 46416.23
334.0742, 46437.14
334.5563, 46447.84
335.0385, 46453.20
335.5206, 46459.61
336.0027, 46465.24
336.4848, 46476.98
336.9669, 46504.08
337.4490, 46529.13
337.9312, 46538.43
338.4133, 46532.96
338.8954, 46524.18
339.3775, 46522.41
339.8596, 46528.02
340.3417, 46535.42
340.8239, 46549.19
341.3060, 46559.56
341.7881, 46559.52
342.2702, 46553.39
342.7523, 46550.80
343.2344, 46558.09
343.7166, 46572.34
344.1987, 46579.56
344.6808, 46571.50
345.1629, 46565.23
345.6450, 46562.53
346.1271, 46562.35
346.6093, 46564.71
347.0914, 46569.43
347.5735, 46573.80
348.0556, 46572.94
348.5377, 46567.58
349.0198, 46555.25
349.5020, 46528.05
349.9841, 46501.21
350.4662, 46484.66
350.9483, 46479.85
351.4304, 46483.25
351.9125, 46492.61
352.3947, 46509.85
352.8768, 46520.32
353.3589, 46517.02
353.8410, 46513.85
354.3231, 46512.56
354.8052, 46515.07
355.2874, 46526.22
355.7695, 46551.64
356.2516, 46585.81
356.7337, 46597.38
357.2158, 46565.34
357.6979, 46537.83
358.1800, 46525.89
358.6621, 46521.73
359.1443, 46517.25
359.6264, 46509.37
360.1085, 46499.39
360.5906, 46488.64
361.0727, 46474.66
361.5548, 46467.04
362.0370, 46470.01
362.5191, 46476.82
363.0012, 46484.97
363.4833, 46493.44
363.9654, 46500.44
364.4475, 46502.64
364.9297, 46499.38
365.4118, 46501.60
365.8939, 46516.26
366.3760, 46528.41
366.8581, 46525.57
367.3402, 46515.82
367.8224, 46517.20
368.3045, 46544.73
368.7866, 46586.71
369.2687, 46607.86
369.7508, 46601.40
370.2329, 46588.26
370.7151, 46569.70
371.1972, 46551.51
371.6793, 46540.39
372.1614, 46539.05
372.6435, 46540.69
373.1256, 46537.27
373.6078, 46528.65
374.0899, 46518.61
374.5720, 46501.44
375.0541, 46489.45
375.5362, 46495.41
376.0183, 46517.43
376.5005, 46537.17
376.9826, 46539.61
377.4647, 46529.49
377.9468, 46524.45
378.4289, 46525.76
378.9110, 46530.93
379.3932, 46543.07
379.8753, 46557.17
380.3574, 46562.80
380.8395, 46551.80
381.3216, 46535.27
381.8037, 46528.00
382.2859, 46530.25
382.7680, 46529.90
383.2501, 46519.40
383.7322, 46504.99
384.2143, 46497.90
384.6964, 46501.64
385.1786, 46502.12
385.6607, 46487.48
386.1428, 46463.73
386.6249, 46446.26
387.1070, 46439.08
387.5891, 46438.59
388.0713, 46443.72
388.5534, 46453.98
389.0355, 46460.74
389.5176, 46461.86
389.9997, 46459.01
390.4818, 46450.10
390.9640, 46435.96
391.4461, 46427.93
391.9282, 46433.56
392.4103, 46452.12
392.8924, 46476.27
393.3745, 46516.73
393.8567, 46550.16
394.3388, 46561.48
394.8209, 46559.55
395.3030, 46560.86
395.7851, 46571.21
396.2672, 46588.21
396.7494, 46609.62
397.2315, 46643.17
397.7136, 46660.08
398.1957, 46644.58
398.6778, 46621.46
399.1599, 46613.04
399.6420, 46620.04
400.1241, 46627.22
400.6063, 46620.69
401.0884, 46600.02
401.5705, 46582.92
402.0526, 46569.54
402.5347, 46559.64
403.0168, 46555.42
403.4990, 46554.73
403.9811, 46555.79
404.4632, 46558.06
404.9453, 46558.65
405.4274, 46549.30
405.9095, 46520.64
406.3917, 46498.79
406.8738, 46481.61
407.3559, 46473.06
407.8380, 46479.50
408.3201, 46499.26
408.8022, 46521.72
409.2844, 46536.66
409.7665, 46543.46
410.2486, 46547.76
410.7307, 46541.23
411.2128, 46540.70
411.6949, 46557.39
412.1771, 46581.55
412.6592, 46596.96
413.1413, 46594.62
413.6234, 46582.27
414.1055, 46577.04
414.5876, 46581.62
415.0698, 46584.96
415.5519, 46584.39
416.0340, 46581.93
416.5161, 46577.39
416.9982, 46571.30
417.4803, 46568.14
417.9625, 46572.56
418.4446, 46583.76
418.9267, 46596.38
419.4088, 46612.13
419.8909, 46625.46
420.3730, 46631.13
420.8552, 46631.98
421.3373, 46633.75
421.8194, 46639.82
422.3015, 46645.96
422.7836, 46647.05
423.2657, 46643.07
423.7479, 46635.91
424.2300, 46621.77
424.7121, 46609.19
425.1942, 46613.18
425.6763, 46637.87
426.1584, 46657.90
426.6406, 46659.95
427.1227, 46651.22
427.6048, 46640.65
428.0869, 46629.05
428.5690, 46625.61
429.0511, 46642.33
429.5333, 46679.33
430.0154, 46704.94
430.4975, 46716.88
430.9796, 46719.43
431.4617, 46708.82
431.9438, 46690.29
432.4260, 46676.27
432.9081, 46672.58
433.3902, 46676.75
433.8723, 46683.64
434.3544, 46697.66
434.8365, 46706.19
435.3187, 46704.02
435.8008, 46699.04
436.2829, 46699.82
436.7650, 46705.89
437.2471, 46708.17
437.7292, 46697.42
438.2114, 46673.18
438.6935, 46653.39
439.1756, 46640.73
439.6577, 46630.05
440.1398, 46615.09
440.6219, 46603.59
441.1040, 46611.04
441.5862, 46643.88
442.0683, 46683.41
442.5504, 46692.97
443.0325, 46661.85
443.5146, 46634.50
443.9967, 46613.09
444.4789, 46598.13
444.9610, 46591.86
445.4431, 46593.13
445.9252, 46598.19
446.4073, 46606.56
446.8894, 46616.20
447.3716, 46618.53
447.8537, 46610.25
448.3358, 46602.18
448.8179, 46597.38
449.3000, 46595.52
449.7821, 46596.92
450.2643, 46601.75
450.7464, 46608.05
451.2285, 46615.61
451.7106, 46623.48
452.1927, 46626.63
452.6748, 46622.28
453.1570, 46616.32
453.6391, 46615.04
454.1212, 46617.41
454.6033, 46619.37
455.0854, 46615.68
455.5675, 46614.43
456.0497, 46628.93
456.5318, 46655.52
457.0139, 46670.65
457.4960, 46659.65
457.9781, 46633.05
458.4602, 46619.64
458.9424, 46624.75
459.4245, 46629.55
459.9066, 46628.86
460.3887, 46627.48
460.8708, 46633.57
461.3529, 46646.70
461.8351, 46654.26
462.3172, 46642.18
462.7993, 46609.37
463.2814, 46592.70
463.7635, 46609.25
464.2456, 46620.95
464.7278, 46614.51
465.2099, 46598.57
465.6920, 46584.04
466.1741, 46575.27
466.6562, 46572.40
467.1383, 46578.65
467.6205, 46601.84
468.1026, 46609.40
468.5847, 46588.12
469.0668, 46561.87
469.5489, 46537.93
470.0310, 46517.87
470.5132, 46503.36
470.9953, 46497.37
471.4774, 46496.02
471.9595, 46487.98
472.4416, 46470.85
472.9237, 46456.96
473.4059, 46456.15
473.8880, 46457.51
474.3701, 46450.28
474.8522, 46433.12
475.3343, 46414.94
475.8164, 46400.93
476.2986, 46390.27
476.7807, 46381.78
477.2628, 46375.96
477.7449, 46368.05
478.2270, 46350.09
478.7091, 46326.60
479.1913, 46316.39
479.6734, 46327.49
480.1555, 46343.84
480.6376, 46361.11
481.1197, 46377.08
481.6018, 46387.12
482.0839, 46389.62
482.5660, 46386.11
483.0482, 46377.63
483.5303, 46361.35
484.0124, 46350.89
484.4945, 46353.09
484.9766, 46354.27
485.4587, 46342.93
485.9409, 46324.50
486.4230, 46313.60
486.9051, 46318.84
487.3872, 46334.20
487.8693, 46342.81
488.3514, 46345.90
488.8336, 46339.33
489.3157, 46310.39
489.7978, 46283.22
490.2799, 46278.60
490.7620, 46293.67
491.2441, 46307.49
491.7263, 46301.78
492.2084, 46281.21
492.6905, 46269.39
493.1726, 46272.13
493.6547, 46270.16
494.1368, 46244.89
494.6190, 46216.36
495.1011, 46207.17
495.5832, 46223.04
496.0653, 46243.71
496.5474, 46254.70
497.0295, 46258.24
497.5117, 46261.46
497.9938, 46265.70
498.4759, 46267.47
498.9580, 46264.30
499.4401, 46255.74
499.9222, 46241.81
500.4044, 46215.02
500.8865, 46190.11
501.3686, 46172.76
501.8507, 46162.83
502.3328, 46162.46
502.8149, 46172.87
503.2971, 46184.73
503.7792, 46184.18
504.2613, 46166.00
504.7434, 46154.51
505.2255, 46151.52
505.7076, 46153.06
506.1898, 46161.80
506.6719, 46173.37
507.1540, 46178.65
507.6361, 46172.57
508.1182, 46161.34
508.6003, 46159.25
509.0825, 46168.40
509.5646, 46181.15
510.0467, 46211.39
510.5288, 46232.36
511.0109, 46224.45
511.4930, 46192.69
511.9752, 46157.26
512.4573, 46123.40
512.9394, 46098.82
513.4215, 46108.93
513.9036, 46160.98
514.3857, 46201.35
514.8679, 46206.23
515.3500, 46190.75
515.8321, 46173.31
516.3142, 46153.56
516.7963, 46138.32
517.2784, 46131.81
517.7606, 46130.90
518.2427, 46131.26
518.7248, 46132.55
519.2069, 46137.26
519.6890, 46148.81
520.1711, 46164.56
520.6533, 46170.57
521.1354, 46164.68
521.6175, 46153.80
522.0996, 46136.45
522.5817, 46116.09
523.0638, 46093.64
523.5460, 46070.83
524.0281, 46052.88
524.5102, 46044.38
524.9923, 46045.32
525.4744, 46058.42
525.9565, 46108.39
526.4387, 46137.19
526.9208, 46115.72
527.4029, 46077.68
527.8850, 46059.83
528.3671, 46070.98
528.8492, 46089.61
529.3314, 46095.27
529.8135, 46088.82
530.2956, 46076.30
530.7777, 46054.14
531.2598, 46034.43
531.7419, 46029.55
532.2241, 46031.23
532.7062, 46024.38
533.1883, 45999.63
533.6704, 45979.70
534.1525, 45990.61
534.6346, 46016.82
535.1168, 46016.83
535.5989, 45979.14
536.0810, 45936.49
536.5631, 45921.92
537.0452, 45936.94
537.5273, 45950.55
538.0095, 45962.13
538.4916, 45973.02
538.9737, 45984.92
539.4558, 45996.11
539.9379, 46006.46
540.4200, 46015.31
540.9022, 46016.47
541.3843, 45998.36
541.8664, 45955.15
542.3485, 45926.47
542.8306, 45922.30
543.3127, 45923.32
543.7948, 45923.58
544.2769, 45925.29
544.7590, 45933.97
545.2411, 45952.73
545.7233, 45971.40
546.2054, 45974.26
546.6875, 45962.61
547.1696, 45958.50
547.6517, 45969.52
548.1339, 45980.00
548.6160, 45969.34
549.0981, 45946.44
549.5802, 45938.02
550.0623, 45959.37
550.5444, 45985.21
551.0266, 45999.28
551.5087, 46005.55
551.9908, 46013.57
552.4729, 46026.34
552.9550, 46040.23
553.4371, 46052.11
553.9193, 46064.05
554.4014, 46060.84
554.8835, 46024.96
555.3656, 45996.00
555.8477, 45994.52
556.3298, 46007.20
556.8120, 46013.09
557.2941, 46004.75
557.7762, 45991.65
558.2583, 45987.10
558.7404, 45991.99
559.2225, 45997.88
559.7047, 46005.36
560.1868, 46012.39
560.6689, 46016.45
561.1510, 46019.60
561.6331, 46025.73
562.1152, 46036.62
562.5974, 46048.52
563.0795, 46059.92
563.5616, 46069.63
564.0437, 46072.99
564.5258, 46068.45
565.0079, 46059.80
565.4901, 46046.68
565.9722, 46030.78
566.4543, 46031.23
566.9364, 46071.20
567.4185, 46101.46
567.9006, 46094.58
568.3828, 46070.25
568.8649, 46057.52
569.3470, 46063.55
569.8291, 46074.10
570.3112, 46072.67
570.7933, 46058.55
571.2755, 46045.43
571.7576, 46027.32
572.2397, 46018.07
572.7218, 46024.18
573.2039, 46038.63
573.6860, 46053.77
574.1682, 46067.61
574.6503, 46082.53
575.1324, 46104.57
575.6145, 46130.16
576.0966, 46142.21
576.5787, 46136.79
577.0609, 46128.58
577.5430, 46126.49
578.0251, 46127.68
578.5072, 46124.54
578.9893, 46112.52
579.4714, 46106.25
579.9536, 46121.83
580.4357, 46140.89
580.9178, 46137.77
581.3999, 46111.67
581.8820, 46081.38
582.3641, 46060.01
582.8463, 46047.92
583.3284, 46046.45
583.8105, 46062.68
584.2926, 46080.50
584.7747, 46110.88
585.2568, 46133.65
585.7390, 46126.61
586.2211, 46094.55
586.7032, 46065.05
587.1853, 46058.30
587.6674, 46067.77
588.1495, 46077.02
588.6317, 46086.29
589.1138, 46094.16
589.5959, 46099.75
590.0780, 46104.11
590.5601, 46108.83
591.0422, 46113.82
591.5244, 46116.87
592.0065, 46113.46
592.4886, 46110.48
592.9707, 46112.20
593.4528, 46119.34
593.9349, 46135.82
594.4171, 46164.22
594.8992, 46194.95
595.3813, 46210.08
595.8634, 46199.61
596.3455, 46202.88
596.8276, 46249.99
597.3098, 46277.20
597.7919, 46236.81
598.2740, 46163.51
598.7561, 46119.21
599.2382, 46129.95
599.7203, 46160.70
600.2025, 46163.89
600.6846, 46140.50
601.1667, 46122.11
601.6488, 46111.13
602.1309, 46107.64
602.6130, 46115.36
603.0952, 46130.61
603.5773, 46147.14
604.0594, 46169.72
604.5415, 46183.77
605.0236, 46176.45
605.5057, 46158.25
605.9879, 46143.42
606.4700, 46134.82
606.9521, 46131.71
607.4342, 46133.31
607.9163, 46139.73
608.3984, 46152.66
608.8806, 46174.11
609.3627, 46199.00
609.8448, 46236.18
610.3269, 46269.04
610.8090, 46282.81
611.2911, 46278.45
611.7733, 46267.54
612.2554, 46255.02
612.7375, 46244.01
613.2196, 46244.71
613.7017, 46258.83
614.1838, 46266.40
614.6660, 46258.63
615.1481, 46245.66
615.6302, 46240.62
616.1123, 46242.98
616.5944, 46240.68
617.0765, 46221.29
617.5587, 46206.20
618.0408, 46216.05
618.5229, 46240.50
619.0050, 46256.94
619.4871, 46257.35
619.9692, 46247.18
620.4514, 46231.42
620.9335, 46207.05
621.4156, 46198.72
621.8977, 46218.36
622.3798, 46240.48
622.8619, 46266.63
623.3441, 46287.77
623.8262, 46290.89
624.3083, 46273.41
624.7904, 46251.96
625.2725, 46242.77
625.7546, 46240.36
626.2367, 46228.14
626.7188, 46204.58
627.2009, 46179.95
627.6830, 46155.52
628.1652, 46136.67
628.6473, 46140.94
629.1294, 46181.40
629.6115, 46199.55
630.0936, 46161.74
630.5757, 46120.24
631.0579, 46119.23
631.5400, 46146.86
632.0221, 46162.46
632.5042, 46144.85
632.9863, 46115.30
633.4684, 46118.39
633.9506, 46165.09
634.4327, 46188.90
634.9148, 46171.14
635.3969, 46148.80
635.8790, 46139.21
636.3611, 46137.89
636.8433, 46137.00
637.3254, 46133.94
637.8075, 46132.81
638.2896, 46140.00
638.7717, 46150.18
639.2538, 46152.07
639.7360, 46144.32
640.2181, 46135.26
640.7002, 46130.94
641.1823, 46129.88
641.6644, 46125.95
642.1465, 46121.91
642.6287, 46111.06
643.1108, 46080.73
643.5929, 46054.91
644.0750, 46054.71
644.5571, 46073.56
645.0392, 46088.64
645.5214, 46086.10
646.0035, 46078.00
646.4856, 46088.00
646.9677, 46116.05
647.4498, 46132.52
647.9319, 46126.51
648.4141, 46119.71
648.8962, 46136.56
649.3783, 46167.90
649.8604, 46178.55
650.3425, 46145.91
650.8246, 46118.58
651.3068, 46117.82
651.7889, 46131.26
652.2710, 46149.05
652.7531, 46166.57
653.2352, 46173.86
653.7173, 46161.32
654.1995, 46135.23
654.6816, 46121.60
655.1637, 46121.95
655.6458, 46131.27
656.1279, 46157.55
656.6100, 46185.64
657.0922, 46208.85
657.5743, 46226.81
658.0564, 46240.08
658.5385, 46251.21
659.0206, 46254.82
659.5027, 46240.80
659.9849, 46215.24
660.4670, 46195.70
660.9491, 46186.39
661.4312, 46179.22
661.9133, 46166.49
662.3954, 46148.84
662.8776, 46135.13
663.3597, 46137.37
663.8418, 46128.00
664.3239, 46090.04
664.8060, 46050.51
665.2881, 46029.82
665.7703, 46029.10
666.2524, 46041.70
666.7345, 46070.04
667.2166, 46099.38
667.6987, 46099.25
668.1808, 46070.45
668.6630, 46040.06
669.1451, 46009.46
669.6272, 45990.89
670.1093, 46003.35
670.5914, 46043.29
671.0735, 46065.52
671.5557, 46058.75
672.0378, 46046.53
672.5199, 46032.76
673.0020, 46019.16
673.4841, 46006.91
673.9662, 45996.52
674.4484, 45988.88
674.9305, 45985.10
675.4126, 45983.88
675.8947, 45980.97
676.3768, 45976.47
676.8589, 45970.02
677.3411, 45955.11
677.8232, 45946.14
678.3053, 45963.76
678.7874, 45998.30
679.2695, 46012.92
679.7516, 45990.08
680.2338, 45957.31
680.7159, 45927.79
681.1980, 45899.99
681.6801, 45866.94
682.1622, 45829.73
682.6443, 45805.36
683.1265, 45810.85
683.6086, 45836.57
684.0907, 45833.06
684.5728, 45775.64
685.0549, 45742.10
685.5370, 45762.37
686.0192, 45791.63
686.5013, 45810.87
686.9834, 45817.85
687.4655, 45810.20
687.9476, 45781.00
688.4297, 45747.61
688.9119, 45724.05
689.3940, 45708.40
689.8761, 45696.09
690.3582, 45686.41
690.8403, 45684.43
691.3224, 45697.55
691.8046, 45719.04
692.2867, 45714.93
692.7688, 45657.87
693.2509, 45620.23
693.7330, 45623.02
694.2151, 45629.00
694.6973, 45613.49
695.1794, 45583.31
695.6615, 45559.17
696.1436, 45550.86
696.6257, 45548.32
697.1078, 45538.92
697.5900, 45525.74
698.0721, 45520.86
698.5542, 45526.23
699.0363, 45533.30
699.5184, 45537.20
700.0005, 45537.36
700.4827, 45532.34
700.9648, 45517.41
701.4469, 45504.23
701.9290, 45485.64
702.4111, 45475.46
702.8932, 45491.89
703.3754, 45521.29
703.8575, 45535.15
704.3396, 45521.17
704.8217, 45496.67
705.3038, 45481.20
705.7859, 45473.27
706.2681, 45465.46
706.7502, 45457.25
707.2323, 45449.61
707.7144, 45444.04
708.1965, 45438.49
708.6786, 45427.99
709.1607, 45411.80
709.6428, 45392.93
710.1249, 45364.04
710.6071, 45339.79
711.0892, 45331.30
711.5713, 45332.49
712.0534, 45334.48
712.5355, 45333.86
713.0176, 45328.04
713.4998, 45309.48
713.9819, 45282.22
714.4640, 45273.63
714.9461, 45290.25
715.4282, 45282.90
715.9103, 45213.89
716.3925, 45129.39
716.8746, 45109.11
717.3567, 45162.47
717.8388, 45188.99
718.3209, 45156.29
718.8030, 45121.11
719.2852, 45112.95
719.7673, 45117.09
720.2494, 45108.80
720.7315, 45084.28
721.2136, 45063.48
721.6957, 45067.63
722.1779, 45088.35
722.6600, 45097.27
723.1421, 45094.10
723.6242, 45079.20
724.1063, 45046.09
724.5884, 45011.74
725.0706, 44998.09
725.5527, 45002.98
726.0348, 44997.66
726.5169, 44974.36
726.9990, 44948.65
727.4811, 44926.42
727.9633, 44904.18
728.4454, 44872.84
728.9275, 44836.39
729.4096, 44815.00
729.8917, 44825.82
730.3738, 44851.50
730.8560, 44854.98
731.3381, 44835.80
731.8202, 44811.32
732.3023, 44783.05
732.7844, 44752.48
733.2665, 44715.70
733.7487, 44677.99
734.2308, 44657.51
734.7129, 44659.04
735.1950, 44668.77
735.6771, 44707.01
736.1592, 44733.17
736.6414, 44702.86
737.1235, 44634.65
737.6056, 44576.48
738.0877, 44549.37
738.5698, 44544.22
739.0519, 44556.96
739.5341, 44583.93
740.0162, 44589.29
740.4983, 44566.61
740.9804, 44543.52
741.4625, 44532.63
741.9446, 44529.70
742.4268, 44528.68
742.9089, 44530.89
743.3910, 44527.21
743.8731, 44517.00
744.3552, 44500.41
744.8373, 44470.45
745.3195, 44437.33
745.8016, 44410.53
746.2837, 44394.61
746.7658, 44399.23
747.2479, 44449.81
747.7300, 44518.86
748.2122, 44518.79
748.6943, 44448.40
749.1764, 44398.36
749.6585, 44398.93
750.1406, 44415.56
750.6227, 44412.71
751.1049, 44391.29
751.5870, 44381.74
752.0691, 44403.54
752.5512, 44409.89
753.0333, 44380.17
753.5154, 44341.16
753.9976, 44312.97
754.4797, 44296.05
754.9618, 44282.60
755.4439, 44268.77
755.9260, 44255.27
756.4081, 44243.02
756.8903, 44231.80
757.3724, 44221.54
757.8545, 44212.20
758.3366, 44202.46
758.8187, 44190.79
759.3008, 44179.27
759.7830, 44173.30
760.2651, 44175.99
760.7472, 44177.38
761.2293, 44181.21
761.7114, 44180.14
762.1935, 44174.91
762.6757, 44161.67
763.1578, 44129.40
763.6399, 44077.17
764.1220, 44033.87
764.6041, 44027.40
765.0862, 44038.34
765.5684, 44038.04
766.0505, 44027.96
766.5326, 44019.39
767.0147, 44016.07
767.4968, 44009.50
767.9789, 43988.33
768.4611, 43953.42
768.9432, 43933.74
769.4253, 43931.47
769.9074, 43940.29
770.3895, 43976.71
770.8716, 44007.63
771.3538, 44002.34
771.8359, 43971.86
772.3180, 43955.55
772.8001, 43975.46
773.2822, 43992.71
773.7643, 43972.24
774.2465, 43937.23
774.7286, 43926.29
775.2107, 43937.88
775.6928, 43940.61
776.1749, 43916.46
776.6570, 43879.58
777.1392, 43857.57
777.6213, 43853.02
778.1034, 43844.98
778.5855, 43827.91
779.0676, 43818.38
779.5497, 43834.49
780.0319, 43855.61
780.5140, 43852.44
780.9961, 43822.47
781.4782, 43796.69
781.9603, 43781.17
782.4424, 43772.93
782.9246, 43772.74
783.4067, 43777.22
783.8888, 43783.89
784.3709, 43790.71
784.8530, 43792.23
785.3351, 43782.75
785.8173, 43766.73
786.2994, 43753.64
786.7815, 43743.46
787.2636, 43744.50
787.7457, 43763.77
788.2278, 43776.06
788.7100, 43758.36
789.1921, 43719.57
789.6742, 43695.20
790.1563, 43696.25
790.6384, 43691.42
791.1205, 43676.43
791.6026, 43658.49
792.0847, 43636.32
792.5668, 43616.23
793.0490, 43610.13
793.5311, 43621.33
794.0132, 43633.00
794.4953, 43631.04
794.9774, 43620.60
795.4595, 43608.88
795.9417, 43596.45
796.4238, 43585.34
796.9059, 43575.81
797.3880, 43570.43
797.8701, 43573.77
798.3522, 43584.16
798.8344, 43579.32
799.3165, 43543.98
799.7986, 43521.29
800.2807, 43532.73
800.7628, 43544.65
801.2449, 43536.04
801.7271, 43511.86
802.2092, 43486.15
802.6913, 43457.97
803.1734, 43439.56
803.6555, 43437.19
804.1376, 43448.67
804.6198, 43485.24
805.1019, 43533.68
805.5840, 43556.66
806.0661, 43538.48
806.5482, 43505.08
807.0303, 43495.31
807.5125, 43504.62
807.9946, 43478.39
808.4767, 43406.65
808.9588, 43359.00
809.4409, 43369.96
809.9230, 43395.82
810.4052, 43385.77
810.8873, 43339.48
811.3694, 43304.05
811.8515, 43277.81
812.3336, 43263.98
812.8157, 43264.81
813.2979, 43276.54
813.7800, 43303.20
814.2621, 43337.56
814.7442, 43364.75
815.2263, 43379.71
815.7084, 43379.44
816.1906, 43348.52
816.6727, 43304.35
817.1548, 43285.40
817.6369, 43291.21
818.1190, 43297.85
818.6011, 43294.73
819.0833, 43286.17
819.5654, 43277.59
820.0475, 43268.73
820.5296, 43264.00
821.0117, 43265.02
821.4938, 43266.27
821.9760, 43264.79
822.4581, 43264.27
822.9402, 43270.97
823.4223, 43282.17
823.9044, 43285.03
824.3865, 43275.68
824.8687, 43260.16
825.3508, 43225.91
825.8329, 43198.09
826.3150, 43216.71
826.7971, 43263.21
827.2792, 43279.96
827.7614, 43241.29
828.2435, 43185.30
828.7256, 43160.46
829.2077, 43157.41
829.6898, 43136.82
830.1719, 43097.82
830.6541, 43069.34
831.1362, 43064.58
831.6183, 43064.57
832.1004, 43044.75
832.5825, 43005.58
833.0646, 42981.89
833.5468, 42986.13
834.0289, 42986.84
834.5110, 42979.85
834.9931, 42969.11
835.4752, 42953.17
835.9573, 42936.04
836.4395, 42927.76
836.9216, 42933.74
837.4037, 42939.55
837.8858, 42937.74
838.3679, 42932.06
838.8500, 42927.52
839.3322, 42922.41
839.8143, 42908.50
840.2964, 42884.11
840.7785, 42863.68
841.2606, 42866.12
841.7427, 42884.29
842.2249, 42889.04
842.7070, 42879.45
843.1891, 42873.06
843.6712, 42875.22
844.1533, 42876.58
844.6354, 42867.23
845.1176, 42850.55
845.5997, 42844.05
846.0818, 42855.02
846.5639, 42864.70
847.0460, 42881.06
847.5281, 42887.70
848.0103, 42875.58
848.4924, 42849.57
848.9745, 42811.74
849.4566, 42762.70
849.9387, 42727.18
850.4208, 42725.20
850.9030, 42736.04
851.3851, 42747.36
851.8672, 42755.49
852.3493, 42752.66
852.8314, 42738.88
853.3135, 42722.75
853.7957, 42710.20
854.2778, 42701.89
854.7599, 42702.82
855.2420, 42712.56
855.7241, 42708.57
856.2062, 42684.99
856.6884, 42663.90
857.1705, 42655.83
857.6526, 42659.31
858.1347, 42675.15
858.6168, 42710.80
859.0989, 42723.21
859.5811, 42692.42
860.0632, 42664.32
860.5453, 42649.42
861.0274, 42641.19
861.5095, 42632.17
861.9916, 42623.79
862.4738, 42627.15
862.9559, 42662.54
863.4380, 42679.09
863.9201, 42620.08
864.4022, 42540.28
864.8843, 42509.02
865.3665, 42520.03
865.8486, 42535.10
866.3307, 42537.71
866.8128, 42532.08
867.2949, 42520.20
867.7770, 42504.59
868.2592, 42495.73
868.7413, 42493.71
869.2234, 42497.26
869.7055, 42507.68
870.1876, 42516.18
870.6697, 42513.87
871.1519, 42502.58
871.6340, 42492.91
872.1161, 42483.73
872.5981, 42477.59
873.0803, 42470.72
873.5624, 42470.55
874.0445, 42491.45
874.5266, 42515.39
875.0087, 42512.77
875.4908, 42478.12
875.9730, 42449.69
876.4551, 42448.83
876.9372, 42448.98
877.4193, 42429.73
877.9014, 42403.90
878.3835, 42391.01
878.8657, 42391.03
879.3478, 42388.99
879.8299, 42375.61
880.3120, 42358.70
880.7941, 42347.07
881.2762, 42341.14
881.7584, 42348.00
882.2405, 42366.02
882.7226, 42364.01
883.2047, 42325.77
883.6868, 42281.23
884.1689, 42274.02
884.6511, 42302.36
885.1332, 42307.29
885.6153, 42278.23
886.0974, 42254.15
886.5795, 42243.56
887.0616, 42238.12
887.5438, 42230.10
888.0259, 42221.93
888.5080, 42222.43
888.9901, 42238.81
889.4722, 42246.08
889.9543, 42232.22
890.4365, 42217.25
890.9186, 42208.43
891.4007, 42206.60
891.8828, 42213.74
892.3649, 42229.05
892.8470, 42246.70
893.3292, 42278.66
893.8113, 42292.56
894.2934, 42239.88
894.7755, 42155.32
895.2576, 42096.13
895.7397, 42068.61
896.2219, 42060.19
896.7040, 42065.13
897.1861, 42069.60
897.6682, 42049.12
898.1503, 42007.86
898.6324, 41979.15
899.1146, 41964.21
899.5967, 41945.79
900.0788, 41916.30
900.5609, 41890.79
901.0430, 41888.11
901.5251, 41901.35
902.0073, 41885.18
902.4894, 41809.32
902.9715, 41765.80
903.4536, 41780.58
903.9357, 41803.28
904.4178, 41814.79
904.9000, 41819.01
905.3821, 41820.60
905.8642, 41819.75
906.3463, 41818.32
906.8284, 41818.07
907.3105, 41815.62
907.7927, 41811.10
908.2748, 41802.36
908.7569, 41774.73
909.2390, 41740.65
909.7211, 41742.41
910.2032, 41804.93
910.6854, 41869.40
911.1675, 41880.30
911.6496, 41859.07
912.1317, 41832.99
912.6138, 41806.57
913.0959, 41788.71
913.5781, 41781.43
914.0602, 41775.25
914.5423, 41760.83
915.0244, 41741.57
915.5065, 41726.54
915.9886, 41715.75
916.4708, 41713.64
916.9529, 41723.37
917.4350, 41728.18
917.9171, 41717.69
918.3992, 41699.89
918.8813, 41689.38
919.3635, 41688.39
919.8456, 41679.14
920.3277, 41656.72
920.8098, 41634.93
921.2919, 41613.62
921.7740, 41597.05
922.2562, 41589.84
922.7383, 41589.86
923.2204, 41590.00
923.7025, 41585.55
924.1846, 41590.62
924.6667, 41630.44
925.1489, 41657.16
925.6310, 41621.12
926.1131, 41564.63
926.5952, 41552.50
927.0773, 41588.33
927.5594, 41616.17
928.0416, 41597.18
928.5237, 41570.88
929.0058, 41575.27
929.4879, 41594.70
929.9700, 41608.71
930.4521, 41613.70
930.9343, 41605.41
931.4164, 41582.64
931.8985, 41559.36
932.3806, 41556.00
932.8627, 41563.91
933.3448, 41552.42
933.8270, 41523.59
934.3091, 41494.31
934.7912, 41467.91
935.2733, 41455.17
935.7554, 41466.46
936.2375, 41490.36
936.7197, 41498.58
937.2018, 41488.43
937.6839, 41480.05
938.1660, 41477.73
938.6481, 41464.96
939.1302, 41424.40
939.6124, 41385.44
940.0945, 41382.32
940.5766, 41410.25
941.0587, 41426.22
941.5408, 41426.32
942.0229, 41420.01
942.5051, 41399.01
942.9872, 41380.47
943.4693, 41374.13
943.9514, 41374.34
944.4335, 41376.62
944.9156, 41379.70
945.3978, 41371.76
945.8799, 41335.23
946.3620, 41303.68
946.8441, 41301.57
947.3262, 41308.00
947.8083, 41303.89
948.2905, 41288.99
948.7726, 41265.81
949.2547, 41235.14
949.7368, 41213.95
950.2189, 41226.13
950.7010, 41248.70
951.1832, 41253.20
951.6653, 41242.09
952.1474, 41216.77
952.6295, 41181.57
953.1116, 41156.49
953.5938, 41154.89
954.0759, 41165.51
954.5580, 41174.35
955.0400, 41179.39
955.5222, 41167.04
956.0043, 41137.21
956.4864, 41108.15
956.9685, 41085.09
957.4506, 41069.87
957.9327, 41064.14
958.4149, 41068.09
958.8970, 41087.83
959.3791, 41133.10
959.8612, 41142.82
960.3433, 41100.66
960.8254, 41055.40
961.3076, 41028.28
961.7897, 41011.25
962.2718, 40993.79
962.7539, 40975.84
963.2360, 40961.15
963.7181, 40947.19
964.2003, 40940.40
964.6824, 40950.92
965.1645, 40958.24
965.6466, 40953.01
966.1287, 40936.67
966.6108, 40906.17
967.0930, 40857.73
967.5751, 40832.43
968.0572, 40863.39
968.5393, 40888.11
969.0214, 40869.31
969.5035, 40843.75
969.9857, 40854.39
970.4678, 40886.76
970.9499, 40893.22
971.4320, 40855.64
971.9141, 40818.49
972.3962, 40814.87
972.8784, 40816.11
973.3605, 40790.73
973.8426, 40756.16
974.3247, 40746.52
974.8068, 40759.74
975.2889, 40761.34
975.7711, 40730.37
976.2532, 40692.46
976.7353, 40678.09
977.2174, 40654.54
977.6995, 40659.04
978.1816, 40634.05
978.6638, 40624.94
979.1459, 40636.93
979.6280, 40651.88
980.1101, 40656.17
980.5922, 40651.38
981.0743, 40636.36
981.5565, 40614.19
982.0386, 40603.30
982.5207, 40605.04
983.0028, 40615.44
983.4849, 40634.23
983.9670, 40649.18
984.4492, 40646.48
984.9313, 40628.88
985.4134, 40605.73
985.8955, 40573.99
986.3776, 40560.52
986.8597, 40571.77
987.3419, 40585.86
987.8240, 40591.98
988.3061, 40596.19
988.7882, 40611.14
989.2703, 40636.43
989.7524, 40626.23
990.2346, 40554.13
990.7167, 40505.69
991.1988, 40505.27
991.6809, 40510.43
992.1630, 40490.96
992.6451, 40465.54
993.1273, 40473.71
993.6094, 40524.01
994.0915, 40546.89
994.5736, 40523.80
995.0557, 40498.44
995.5378, 40471.51
996.0200, 40452.36
996.5021, 40453.71
996.9842, 40465.17
997.4663, 40466.11
997.9484, 40452.85
998.4305, 40435.38
998.9127, 40410.64
999.3948, 40388.77
999.8769, 40374.01
1000.359, 40364.18
1000.841, 40357.33
1001.323, 40353.59
1001.805, 40357.39
1002.287, 40372.70
1002.770, 40374.70
1003.252, 40333.64
1003.734, 40293.12
1004.216, 40286.09
1004.698, 40298.14
1005.180, 40310.46
1005.662, 40321.02
1006.144, 40338.47
1006.627, 40368.98
1007.109, 40388.01
1007.591, 40363.01
1008.073, 40325.45
1008.555, 40316.16
1009.037, 40321.20
1009.519, 40305.47
1010.001, 40269.07
1010.483, 40248.05
1010.966, 40266.00
1011.448, 40286.54
1011.930, 40256.02
1012.412, 40202.92
1012.894, 40187.82
1013.376, 40200.63
1013.858, 40197.88
1014.340, 40171.86
1014.823, 40152.05
1015.305, 40161.00
1015.787, 40176.87
1016.269, 40159.46
1016.751, 40118.46
1017.233, 40089.36
1017.715, 40072.91
1018.197, 40060.91
1018.679, 40051.15
1019.162, 40050.73
1019.644, 40066.94
1020.126, 40090.88
1020.608, 40102.34
1021.090, 40102.12
1021.572, 40102.20
1022.054, 40103.20
1022.536, 40096.60
1023.018, 40077.91
1023.501, 40067.46
1023.983, 40086.21
1024.465, 40121.73
1024.947, 40132.77
1025.429, 40116.35
1025.911, 40110.50
1026.393, 40119.84
1026.875, 40117.99
1027.358, 40091.55
1027.840, 40064.09
1028.322, 40059.38
1028.804, 40071.63
1029.286, 40077.39
1029.768, 40073.76
1030.250, 40076.98
1030.732, 40094.14
1031.214, 40098.31
1031.697, 40072.48
1032.179, 40044.11
1032.661, 40043.82
1033.143, 40064.59
1033.625, 40068.63
1034.107, 40045.54
1034.589, 40033.74
1035.071, 40041.90
1035.553, 40047.05
1036.036, 40041.21
1036.518, 40029.23
1037.000, 40015.65
1037.482, 40000.12
1037.964, 39979.95
1038.446, 39942.70
1038.928, 39925.50
1039.410, 39943.68
1039.893, 39960.86
1040.375, 39961.20
1040.857, 39957.99
1041.339, 39965.23
1041.821, 39980.61
1042.303, 39991.99
1042.785, 40000.88
1043.267, 40002.34
1043.750, 39993.19
1044.232, 39980.11
1044.714, 39959.11
1045.196, 39939.86
1045.678, 39935.78
1046.160, 39942.43
1046.642, 39937.70
1047.124, 39909.78
1047.606, 39892.01
1048.089, 39901.64
1048.571, 39906.11
1049.053, 39886.11
1049.535, 39859.84
1050.017, 39846.21
1050.499, 39842.94
1050.981, 39835.34
1051.463, 39819.28
1051.945, 39804.95
1052.428, 39800.18
1052.910, 39791.50
1053.392, 39772.34
1053.874, 39747.25
1054.356, 39718.38
1054.838, 39687.87
1055.320, 39661.17
1055.802, 39639.10
1056.285, 39621.69
1056.767, 39611.63
1057.249, 39602.75
1057.731, 39588.23
1058.213, 39576.14
1058.695, 39574.94
1059.177, 39583.13
1059.659, 39596.61
1060.141, 39617.75
1060.624, 39628.00
1061.106, 39613.83
1061.588, 39595.73
1062.070, 39577.68
1062.552, 39565.85
1063.034, 39568.93
1063.516, 39582.68
1063.998, 39597.04
1064.480, 39610.88
1064.963, 39615.11
1065.445, 39595.72
1065.927, 39578.52
1066.409, 39583.28
1066.891, 39591.27
1067.373, 39581.76
1067.855, 39560.50
1068.337, 39545.49
1068.820, 39541.38
1069.302, 39535.10
1069.784, 39517.52
1070.266, 39500.74
1070.748, 39492.88
1071.230, 39487.15
1071.712, 39474.84
1072.194, 39460.18
1072.677, 39452.19
1073.159, 39452.89
1073.641, 39460.29
1074.123, 39481.93
1074.605, 39499.36
1075.087, 39507.79
1075.569, 39503.79
1076.051, 39474.30
1076.533, 39434.32
1077.016, 39414.07
1077.498, 39417.04
1077.980, 39411.44
1078.462, 39367.68
1078.944, 39336.19
1079.426, 39355.24
1079.908, 39382.92
1080.390, 39387.99
1080.872, 39376.99
1081.354, 39363.92
1081.837, 39350.74
1082.319, 39329.96
1082.801, 39286.89
1083.283, 39259.12
1083.765, 39282.27
1084.247, 39308.40
1084.729, 39291.41
1085.211, 39262.07
1085.694, 39271.56
1086.176, 39315.27
1086.658, 39338.92
1087.140, 39317.36
1087.622, 39294.30
1088.104, 39283.23
1088.586, 39281.52
1089.068, 39296.70
1089.551, 39313.45
1090.033, 39314.05
1090.515, 39299.82
1090.997, 39281.27
1091.479, 39259.59
1091.961, 39240.67
1092.443, 39238.62
1092.925, 39225.62
1093.407, 39172.25
1093.890, 39113.82
1094.372, 39085.39
1094.854, 39081.06
1095.336, 39079.45
1095.818, 39076.57
1096.300, 39075.16
1096.782, 39086.06
1097.264, 39085.93
1097.746, 39053.34
1098.229, 39018.02
1098.711, 39008.79
1099.193, 39012.10
1099.675, 38998.04
1100.157, 38962.35
1100.639, 38933.91
1101.121, 38929.07
1101.603, 38918.80
1102.086, 38884.13
1102.568, 38853.04
1103.050, 38846.76
1103.532, 38852.39
1104.014, 38852.30
1104.496, 38845.30
1104.978, 38836.98
1105.460, 38830.29
1105.943, 38818.96
1106.425, 38794.87
1106.907, 38774.73
1107.389, 38769.49
1107.871, 38769.29
1108.353, 38763.18
1108.835, 38752.52
1109.317, 38746.83
1109.799, 38756.24
1110.281, 38747.46
1110.764, 38699.85
1111.246, 38658.20
1111.728, 38636.75
1112.210, 38624.25
1112.692, 38615.38
1113.174, 38607.92
1113.656, 38595.79
1114.138, 38576.79
1114.621, 38562.77
1115.103, 38555.00
1115.585, 38550.37
1116.067, 38553.14
1116.549, 38552.83
1117.031, 38544.61
1117.513, 38528.54
1117.995, 38500.61
1118.478, 38460.67
1118.960, 38443.20
1119.442, 38467.55
1119.924, 38466.89
1120.406, 38418.05
1120.888, 38381.05
1121.370, 38386.30
1121.852, 38408.42
1122.334, 38420.65
1122.817, 38423.53
1123.299, 38419.01
1123.781, 38404.96
1124.263, 38390.54
1124.745, 38372.96
1125.227, 38367.40
1125.709, 38383.69
1126.191, 38394.41
1126.673, 38373.49
1127.156, 38336.61
1127.638, 38324.39
1128.120, 38337.96
1128.602, 38335.20
1129.084, 38313.39
1129.566, 38303.43
1130.048, 38312.67
1130.530, 38324.55
1131.013, 38330.21
1131.495, 38330.65
1131.977, 38327.29
1132.459, 38320.17
1132.941, 38305.23
1133.423, 38283.89
1133.905, 38278.88
1134.387, 38291.55
1134.870, 38291.01
1135.352, 38265.09
1135.834, 38232.08
1136.316, 38207.70
1136.798, 38192.63
1137.280, 38188.23
1137.762, 38194.33
1138.244, 38217.36
1138.726, 38251.55
1139.208, 38270.39
1139.691, 38268.25
1140.173, 38257.28
1140.655, 38244.38
1141.137, 38231.26
1141.619, 38220.39
1142.101, 38210.69
1142.583, 38202.40
1143.065, 38193.18
1143.548, 38174.19
1144.030, 38148.86
1144.512, 38132.79
1144.994, 38131.88
1145.476, 38136.42
1145.958, 38142.04
1146.440, 38145.35
1146.922, 38141.71
1147.405, 38134.68
1147.887, 38127.45
1148.369, 38120.88
1148.851, 38116.86
1149.333, 38114.75
1149.815, 38108.41
1150.297, 38091.36
1150.779, 38079.14
1151.261, 38089.05
1151.744, 38098.03
1152.226, 38086.94
1152.708, 38066.73
1153.190, 38044.23
1153.672, 38026.12
1154.154, 38030.07
1154.636, 38064.83
1155.118, 38087.36
1155.600, 38078.11
1156.083, 38064.19
1156.565, 38048.70
1157.047, 38038.24
1157.529, 38040.71
1158.011, 38049.27
1158.493, 38055.05
1158.975, 38057.36
1159.457, 38049.98
1159.940, 38020.79
1160.422, 38001.02
1160.904, 37989.01
1161.386, 37991.43
1161.868, 38029.89
1162.350, 38060.19
1162.832, 38033.29
1163.314, 37970.86
1163.796, 37942.01
1164.279, 37954.32
1164.761, 37957.21
1165.243, 37946.07
1165.725, 37942.88
1166.207, 37955.64
1166.689, 37962.27
1167.171, 37947.35
1167.653, 37928.06
1168.135, 37930.64
1168.618, 37949.71
1169.100, 37956.54
1169.582, 37951.10
1170.064, 37925.99
1170.546, 37881.39
1171.028, 37858.20
1171.510, 37870.07
1171.992, 37886.77
1172.474, 37883.89
1172.957, 37872.36
1173.439, 37870.09
1173.921, 37874.82
1174.403, 37883.22
1174.885, 37892.13
1175.367, 37889.53
1175.849, 37876.11
1176.331, 37865.28
1176.814, 37862.75
1177.296, 37861.63
1177.778, 37854.58
1178.260, 37847.31
1178.742, 37847.77
1179.224, 37851.14
1179.706, 37852.73
1180.188, 37851.19
1180.671, 37845.99
1181.153, 37836.40
1181.635, 37817.39
1182.117, 37780.39
1182.599, 37757.22
1183.081, 37786.09
1183.563, 37809.45
1184.045, 37782.47
1184.527, 37740.38
1185.010, 37717.26
1185.492, 37708.62
1185.974, 37694.96
1186.456, 37672.75
1186.938, 37663.84
1187.420, 37683.49
1187.902, 37698.98
1188.384, 37698.66
1188.866, 37701.43
1189.349, 37723.87
1189.831, 37744.74
1190.313, 37738.61
1190.795, 37712.77
1191.277, 37697.37
1191.759, 37696.13
1192.241, 37685.75
1192.723, 37659.73
1193.206, 37647.32
1193.688, 37656.88
1194.170, 37671.46
1194.652, 37682.29
1195.134, 37689.62
1195.616, 37695.53
1196.098, 37696.82
1196.580, 37673.68
1197.063, 37629.97
1197.545, 37605.95
1198.027, 37602.25
1198.509, 37589.36
1198.991, 37560.20
1199.473, 37538.68
1199.955, 37542.51
1200.437, 37552.37
1200.919, 37540.75
1201.401, 37538.29
1201.884, 37512.63
1202.366, 37510.73
1202.848, 37491.45
1203.330, 37460.42
1203.812, 37442.49
1204.294, 37443.93
1204.776, 37447.29
1205.258, 37441.75
1205.741, 37436.05
1206.223, 37430.13
1206.705, 37431.81
1207.187, 37459.92
1207.669, 37489.44
1208.151, 37485.42
1208.633, 37455.73
1209.115, 37435.06
1209.598, 37431.14
1210.080, 37424.56
1210.562, 37414.20
1211.044, 37398.30
1211.526, 37365.77
1212.008, 37341.68
1212.490, 37346.98
1212.972, 37356.40
1213.454, 37336.79
1213.937, 37329.83
1214.419, 37316.18
1214.901, 37287.39
1215.383, 37278.23
1215.865, 37245.64
1216.347, 37220.68
1216.829, 37211.64
1217.311, 37197.80
1217.793, 37165.43
1218.276, 37136.87
1218.758, 37148.40
1219.240, 37178.54
1219.722, 37160.66
1220.204, 37109.08
1220.686, 37071.45
1221.168, 37050.10
1221.650, 37035.88
1222.133, 37026.73
1222.615, 37027.30
1223.097, 37040.87
1223.579, 37057.93
1224.061, 37073.11
1224.543, 37083.92
1225.025, 37086.25
1225.507, 37083.65
1225.990, 37081.08
1226.472, 37076.40
1226.954, 37059.74
1227.436, 37032.55
1227.918, 37021.96
1228.400, 37050.28
1228.882, 37064.80
1229.364, 37036.73
1229.846, 37014.60
1230.328, 37028.56
1230.811, 37044.05
1231.293, 37029.52
1231.775, 37002.16
1232.257, 36992.26
1232.739, 36999.83
1233.221, 37024.94
1233.703, 37074.73
1234.185, 37112.11
1234.668, 37136.04
1235.150, 37131.70
1235.632, 37090.83
1236.114, 37047.74
1236.596, 37028.88
1237.078, 37024.59
1237.560, 37020.81
1238.042, 37016.68
1238.525, 37008.36
1239.007, 36997.48
1239.489, 36987.55
1239.971, 36980.27
1240.453, 36981.75
1240.935, 36991.92
1241.417, 36996.04
1241.899, 36984.65
1242.381, 36966.40
1242.864, 36943.27
1243.346, 36921.50
1243.828, 36900.04
1244.310, 36887.71
1244.792, 36906.20
1245.274, 36937.33
1245.756, 36936.24
1246.238, 36896.69
1246.720, 36872.00
1247.203, 36887.69
1247.685, 36889.93
1248.167, 36861.31
1248.649, 36840.15
1249.131, 36845.32
1249.613, 36849.44
1250.095, 36829.53
1250.577, 36798.31
1251.059, 36781.01
1251.542, 36776.27
1252.024, 36763.80
1252.506, 36743.76
1252.988, 36742.71
1253.470, 36761.48
1253.952, 36765.73
1254.434, 36746.05
1254.916, 36732.79
1255.399, 36748.62
1255.881, 36766.62
1256.363, 36745.13
1256.845, 36749.74
1257.327, 36711.23
1257.809, 36723.07
1258.291, 36713.70
1258.773, 36690.23
1259.255, 36677.12
1259.738, 36677.38
1260.220, 36672.39
1260.702, 36652.70
1261.184, 36636.05
1261.666, 36628.30
1262.148, 36624.88
1262.630, 36627.89
1263.112, 36630.93
1263.594, 36632.48
1264.077, 36628.83
1264.559, 36610.83
1265.041, 36581.70
1265.523, 36571.12
1266.005, 36582.77
1266.487, 36591.04
1266.969, 36595.16
1267.451, 36593.67
1267.934, 36586.03
1268.416, 36568.52
1268.898, 36537.83
1269.380, 36515.82
1269.862, 36534.10
1270.344, 36524.82
1270.826, 36566.92
1271.308, 36551.30
1271.791, 36564.92
1272.273, 36591.75
1272.755, 36590.04
1273.237, 36560.47
1273.719, 36532.39
1274.201, 36514.96
1274.683, 36511.61
1275.165, 36539.68
1275.647, 36559.51
1276.130, 36554.08
1276.612, 36539.07
1277.094, 36519.31
1277.576, 36498.32
1278.058, 36477.26
1278.540, 36458.70
1279.022, 36450.74
1279.504, 36454.75
1279.986, 36462.26
1280.469, 36472.79
1280.951, 36485.33
1281.433, 36500.73
1281.915, 36505.29
1282.397, 36493.96
1282.879, 36485.30
1283.361, 36495.00
1283.843, 36515.04
1284.326, 36536.71
1284.808, 36557.24
##END=



