##NAMES=Palladium
##RRUFFID=R070339
##IDEAL CHEMISTRY=Pd
##LOCALITY=Gongo Soco mine, Quadrilátero Ferrífero, Minas Gerais; Southeast, Brazil
##OWNER=RRUFF
##SOURCE=Michael Scott
##DESCRIPTION=Light gray metallic grain
##STATUS=The identification of this mineral is not yet confirmed.
##URL=rruff.info/R070339
127.7690, 1223.181
128.2512, 1288.003
128.7333, 1367.092
129.2154, 1465.186
129.6975, 1574.086
130.1796, 1707.256
130.6617, 1846.627
131.1439, 1970.630
131.6260, 2067.978
132.1081, 2137.134
132.5902, 2165.252
133.0723, 2120.713
133.5544, 2064.275
134.0366, 1998.312
134.5187, 1928.580
135.0008, 1862.224
135.4829, 1804.594
135.9650, 1755.292
136.4471, 1706.318
136.9293, 1645.766
137.4114, 1597.495
137.8935, 1568.842
138.3756, 1558.383
138.8577, 1562.217
139.3398, 1578.931
139.8220, 1608.761
140.3041, 1635.979
140.7862, 1648.407
141.2683, 1670.007
141.7504, 1712.142
142.2325, 1773.061
142.7147, 1845.143
143.1968, 1925.327
143.6789, 2013.291
144.1610, 2091.215
144.6431, 2146.066
145.1252, 2202.708
145.6074, 2279.318
146.0895, 2373.819
146.5716, 2468.766
147.0537, 2553.295
147.5358, 2625.162
148.0179, 2678.900
148.5001, 2707.991
148.9822, 2724.289
149.4643, 2735.289
149.9464, 2741.592
150.4285, 2742.555
150.9106, 2740.004
151.3928, 2731.691
151.8749, 2706.355
152.3570, 2655.108
152.8391, 2591.489
153.3212, 2522.221
153.8033, 2447.457
154.2855, 2380.030
154.7676, 2332.598
155.2497, 2301.874
155.7318, 2274.137
156.2139, 2239.576
156.6960, 2210.834
157.1782, 2205.205
157.6603, 2225.638
158.1424, 2254.517
158.6245, 2282.182
159.1066, 2308.257
159.5887, 2331.128
160.0709, 2350.093
160.5530, 2365.665
161.0351, 2378.547
161.5172, 2388.925
161.9993, 2395.711
162.4814, 2398.010
162.9636, 2396.255
163.4457, 2389.958
163.9278, 2372.675
164.4099, 2352.469
164.8920, 2344.211
165.3741, 2349.530
165.8563, 2362.606
166.3384, 2388.159
166.8205, 2418.112
167.3026, 2438.017
167.7847, 2439.987
168.2668, 2428.921
168.7490, 2413.148
169.2311, 2388.034
169.7132, 2368.957
170.1953, 2367.634
170.6774, 2376.533
171.1595, 2384.519
171.6417, 2387.271
172.1238, 2385.542
172.6059, 2380.253
173.0880, 2368.677
173.5701, 2359.110
174.0522, 2355.780
174.5344, 2356.356
175.0165, 2357.792
175.4986, 2358.818
175.9807, 2359.612
176.4628, 2361.412
176.9449, 2367.123
177.4271, 2368.038
177.9092, 2359.284
178.3913, 2344.924
178.8734, 2329.017
179.3555, 2310.580
179.8376, 2294.426
180.3197, 2297.188
180.8019, 2333.867
181.2840, 2362.965
181.7661, 2368.526
182.2482, 2361.200
182.7303, 2353.435
183.2124, 2350.890
183.6946, 2352.316
184.1767, 2354.455
184.6588, 2358.282
185.1409, 2361.021
185.6230, 2361.157
186.1051, 2360.261
186.5873, 2360.192
187.0694, 2361.896
187.5515, 2364.687
188.0336, 2366.581
188.5157, 2366.118
188.9978, 2367.397
189.4800, 2373.927
189.9621, 2381.278
190.4442, 2384.453
190.9263, 2380.983
191.4084, 2373.600
191.8905, 2368.328
192.3727, 2363.220
192.8548, 2364.418
193.3369, 2378.177
193.8190, 2395.147
194.3011, 2406.042
194.7832, 2407.129
195.2654, 2402.330
195.7475, 2400.299
196.2296, 2404.065
196.7117, 2404.756
197.1938, 2397.524
197.6759, 2389.240
198.1581, 2387.684
198.6402, 2395.204
199.1223, 2404.922
199.6044, 2401.935
200.0865, 2372.470
200.5686, 2358.519
201.0508, 2372.592
201.5329, 2395.021
202.0150, 2411.929
202.4971, 2419.213
202.9792, 2420.213
203.4613, 2420.166
203.9435, 2419.600
204.4256, 2416.564
204.9077, 2404.377
205.3898, 2394.519
205.8719, 2398.074
206.3540, 2415.743
206.8362, 2436.037
207.3183, 2442.618
207.8004, 2429.395
208.2825, 2417.380
208.7646, 2403.971
209.2467, 2393.651
209.7289, 2390.263
210.2110, 2393.603
210.6931, 2399.640
211.1752, 2403.138
211.6573, 2401.857
212.1395, 2406.445
212.6216, 2426.668
213.1037, 2444.063
213.5858, 2448.644
214.0679, 2441.027
214.5500, 2428.185
215.0322, 2415.803
215.5143, 2403.130
215.9964, 2396.438
216.4785, 2398.378
216.9606, 2403.693
217.4427, 2413.583
217.9249, 2425.728
218.4070, 2434.954
218.8891, 2436.249
219.3712, 2429.315
219.8533, 2425.326
220.3354, 2425.164
220.8176, 2427.343
221.2997, 2434.283
221.7818, 2443.297
222.2639, 2449.440
222.7460, 2449.033
223.2281, 2442.607
223.7103, 2435.779
224.1924, 2421.950
224.6745, 2415.459
225.1566, 2426.171
225.6387, 2444.704
226.1208, 2456.691
226.6030, 2453.209
227.0851, 2438.400
227.5672, 2429.588
228.0493, 2429.620
228.5314, 2432.517
229.0135, 2443.648
229.4957, 2454.578
229.9778, 2453.139
230.4599, 2433.333
230.9420, 2405.231
231.4241, 2394.751
231.9062, 2415.561
232.3884, 2431.195
232.8705, 2435.804
233.3526, 2434.693
233.8347, 2430.454
234.3168, 2424.300
234.7989, 2420.007
235.2811, 2426.437
235.7632, 2453.724
236.2453, 2467.162
236.7274, 2452.622
237.2095, 2432.986
237.6916, 2422.987
238.1738, 2425.551
238.6559, 2434.264
239.1380, 2441.738
239.6201, 2447.651
240.1022, 2453.533
240.5843, 2465.221
241.0665, 2472.162
241.5486, 2464.609
242.0307, 2445.060
242.5128, 2426.934
242.9949, 2424.604
243.4770, 2439.708
243.9592, 2450.989
244.4413, 2455.879
244.9234, 2459.111
245.4055, 2462.940
245.8876, 2466.628
246.3697, 2467.708
246.8519, 2462.857
247.3340, 2453.278
247.8161, 2450.842
248.2982, 2464.500
248.7803, 2473.206
249.2624, 2462.986
249.7446, 2444.530
250.2267, 2436.200
250.7088, 2450.464
251.1909, 2478.276
251.6730, 2492.771
252.1551, 2487.426
252.6373, 2481.754
253.1194, 2480.587
253.6015, 2482.941
254.0836, 2488.882
254.5657, 2499.211
255.0478, 2510.122
255.5300, 2516.450
256.0121, 2518.679
256.4942, 2514.228
256.9763, 2486.487
257.4584, 2460.935
257.9406, 2463.083
258.4227, 2499.309
258.9048, 2536.208
259.3869, 2531.677
259.8690, 2483.218
260.3511, 2451.847
260.8333, 2460.887
261.3154, 2480.653
261.7975, 2490.766
262.2796, 2490.512
262.7617, 2487.318
263.2438, 2486.928
263.7260, 2488.383
264.2081, 2484.994
264.6902, 2471.342
265.1723, 2460.286
265.6544, 2462.874
266.1365, 2475.790
266.6187, 2488.313
267.1008, 2494.744
267.5829, 2497.490
268.0650, 2502.550
268.5471, 2511.623
269.0292, 2517.897
269.5114, 2512.914
269.9935, 2502.154
270.4756, 2494.915
270.9577, 2496.027
271.4398, 2499.635
271.9219, 2498.890
272.4041, 2493.659
272.8862, 2488.457
273.3683, 2485.704
273.8504, 2484.305
274.3325, 2481.292
274.8146, 2473.260
275.2968, 2469.602
275.7789, 2481.514
276.2610, 2504.567
276.7431, 2520.303
277.2252, 2521.163
277.7073, 2512.998
278.1895, 2505.062
278.6716, 2497.260
279.1537, 2490.009
279.6358, 2479.195
280.1179, 2470.010
280.6000, 2473.962
281.0822, 2495.072
281.5643, 2520.219
282.0464, 2533.626
282.5285, 2534.277
283.0106, 2535.363
283.4927, 2540.713
283.9749, 2545.584
284.4570, 2544.217
284.9391, 2536.700
285.4212, 2529.368
285.9033, 2526.751
286.3854, 2529.185
286.8676, 2536.275
287.3497, 2555.273
287.8318, 2571.500
288.3139, 2579.433
288.7960, 2578.998
289.2781, 2569.055
289.7603, 2547.396
290.2424, 2518.385
290.7245, 2501.077
291.2066, 2499.632
291.6887, 2503.699
292.1708, 2519.970
292.6530, 2538.052
293.1351, 2542.782
293.6172, 2529.100
294.0993, 2507.654
294.5814, 2497.787
295.0635, 2510.139
295.5457, 2514.051
296.0278, 2500.004
296.5099, 2484.995
296.9920, 2481.660
297.4741, 2490.837
297.9562, 2505.198
298.4384, 2518.231
298.9205, 2530.776
299.4026, 2535.859
299.8847, 2524.301
300.3668, 2514.677
300.8489, 2513.888
301.3310, 2520.073
301.8131, 2528.010
302.2953, 2534.082
302.7774, 2539.328
303.2595, 2549.990
303.7416, 2575.806
304.2237, 2592.114
304.7058, 2591.540
305.1880, 2581.054
305.6701, 2567.185
306.1522, 2552.238
306.6343, 2536.749
307.1164, 2519.511
307.5985, 2497.265
308.0807, 2485.789
308.5628, 2498.356
309.0449, 2515.554
309.5270, 2526.993
310.0091, 2531.483
310.4912, 2532.686
310.9734, 2533.079
311.4555, 2532.705
311.9376, 2531.602
312.4197, 2527.575
312.9018, 2526.224
313.3839, 2533.975
313.8661, 2547.100
314.3482, 2555.692
314.8303, 2553.958
315.3124, 2545.560
315.7945, 2535.702
316.2766, 2523.825
316.7588, 2513.788
317.2409, 2507.474
317.7230, 2504.666
318.2051, 2505.016
318.6872, 2508.818
319.1693, 2515.217
319.6515, 2526.660
320.1336, 2541.149
320.6157, 2549.207
321.0978, 2545.990
321.5799, 2537.444
322.0620, 2532.813
322.5442, 2532.405
323.0263, 2532.566
323.5084, 2533.252
323.9905, 2533.517
324.4726, 2530.439
324.9547, 2523.566
325.4369, 2519.755
325.9190, 2527.837
326.4011, 2549.449
326.8832, 2558.216
327.3653, 2543.839
327.8474, 2526.655
328.3296, 2516.948
328.8117, 2513.950
329.2938, 2513.516
329.7759, 2513.429
330.2580, 2513.625
330.7401, 2513.820
331.2223, 2513.419
331.7044, 2513.765
332.1865, 2517.448
332.6686, 2520.833
333.1507, 2518.067
333.6328, 2507.990
334.1150, 2497.427
334.5971, 2497.444
335.0792, 2514.059
335.5613, 2524.964
336.0434, 2526.690
336.5255, 2526.500
337.0077, 2528.430
337.4898, 2531.891
337.9719, 2533.852
338.4540, 2532.054
338.9361, 2526.623
339.4182, 2517.637
339.9004, 2496.863
340.3825, 2485.433
340.8646, 2497.184
341.3467, 2517.859
341.8288, 2528.487
342.3109, 2520.891
342.7931, 2506.244
343.2752, 2502.074
343.7573, 2510.255
344.2394, 2515.405
344.7215, 2510.433
345.2036, 2503.867
345.6858, 2503.530
346.1679, 2509.590
346.6500, 2514.377
347.1321, 2511.627
347.6142, 2503.939
348.0963, 2497.737
348.5785, 2492.899
349.0606, 2491.993
349.5427, 2502.606
350.0248, 2519.517
350.5069, 2526.348
350.9890, 2509.566
351.4712, 2490.131
351.9533, 2487.026
352.4354, 2497.419
352.9175, 2506.140
353.3996, 2505.947
353.8817, 2499.807
354.3639, 2495.242
354.8460, 2492.934
355.3281, 2490.413
355.8102, 2484.978
356.2923, 2480.018
356.7744, 2480.995
357.2566, 2488.683
357.7387, 2497.244
358.2208, 2500.046
358.7029, 2495.913
359.1850, 2492.244
359.6671, 2487.717
360.1493, 2484.861
360.6314, 2486.333
361.1135, 2490.313
361.5956, 2492.527
362.0777, 2490.191
362.5598, 2485.178
363.0420, 2484.894
363.5241, 2496.478
364.0062, 2501.009
364.4883, 2491.863
364.9704, 2478.368
365.4525, 2467.624
365.9347, 2461.412
366.4168, 2457.928
366.8989, 2454.690
367.3810, 2451.430
367.8631, 2453.146
368.3452, 2466.253
368.8274, 2476.830
369.3095, 2474.302
369.7916, 2463.990
370.2737, 2459.120
370.7558, 2469.359
371.2379, 2485.709
371.7201, 2492.213
372.2022, 2487.891
372.6843, 2483.366
373.1664, 2485.299
373.6485, 2487.962
374.1306, 2481.067
374.6128, 2460.224
375.0949, 2444.583
375.5770, 2447.921
376.0591, 2462.907
376.5412, 2475.907
377.0233, 2484.371
377.5055, 2489.103
377.9876, 2490.340
378.4697, 2487.640
378.9518, 2484.768
379.4339, 2482.479
379.9160, 2479.388
380.3982, 2473.543
380.8803, 2466.115
381.3624, 2460.316
381.8445, 2457.893
382.3266, 2458.219
382.8087, 2459.471
383.2909, 2465.213
383.7730, 2466.963
384.2551, 2461.030
384.7372, 2453.387
385.2193, 2449.086
385.7014, 2448.768
386.1836, 2449.565
386.6657, 2448.733
387.1478, 2446.265
387.6299, 2442.054
388.1120, 2429.940
388.5941, 2423.560
389.0763, 2430.950
389.5584, 2445.889
390.0405, 2459.197
390.5226, 2467.647
391.0047, 2471.100
391.4868, 2466.869
391.9690, 2453.601
392.4511, 2446.169
392.9332, 2453.748
393.4153, 2463.989
393.8974, 2463.626
394.3795, 2452.670
394.8617, 2444.099
395.3438, 2447.425
395.8259, 2456.102
396.3080, 2459.319
396.7901, 2456.015
397.2722, 2449.277
397.7544, 2438.619
398.2365, 2426.365
398.7186, 2423.067
399.2007, 2437.925
399.6828, 2451.247
400.1649, 2455.428
400.6471, 2453.065
401.1292, 2447.587
401.6113, 2440.061
402.0934, 2432.030
402.5755, 2425.043
403.0576, 2416.706
403.5398, 2417.788
404.0219, 2443.135
404.5040, 2462.862
404.9861, 2456.083
405.4682, 2430.575
405.9503, 2406.757
406.4325, 2396.881
406.9146, 2399.695
407.3967, 2413.559
407.8788, 2450.382
408.3609, 2473.323
408.8430, 2467.181
409.3252, 2451.066
409.8073, 2437.226
410.2894, 2428.260
410.7715, 2424.680
411.2536, 2430.045
411.7357, 2442.135
412.2179, 2449.097
412.7000, 2448.994
413.1821, 2446.540
413.6642, 2445.571
414.1463, 2444.505
414.6284, 2439.349
415.1106, 2423.394
415.5927, 2410.426
416.0748, 2412.968
416.5569, 2427.009
417.0390, 2440.772
417.5211, 2450.651
418.0033, 2457.259
418.4854, 2461.229
418.9675, 2461.911
419.4496, 2461.814
419.9317, 2462.069
420.4138, 2460.678
420.8960, 2453.741
421.3781, 2443.551
421.8602, 2437.924
422.3423, 2442.678
422.8244, 2454.184
423.3065, 2456.125
423.7887, 2436.626
424.2708, 2426.247
424.7529, 2436.650
425.2350, 2450.851
425.7171, 2452.648
426.1992, 2441.091
426.6814, 2430.311
427.1635, 2438.186
427.6456, 2462.222
428.1277, 2470.057
428.6098, 2453.193
429.0919, 2436.370
429.5741, 2433.238
430.0562, 2437.980
430.5383, 2442.777
431.0204, 2446.340
431.5025, 2448.423
431.9846, 2449.097
432.4668, 2448.172
432.9489, 2443.737
433.4310, 2433.978
433.9131, 2425.332
434.3952, 2428.067
434.8773, 2444.156
435.3595, 2448.682
435.8416, 2423.271
436.3237, 2401.285
436.8058, 2408.362
437.2879, 2435.832
437.7701, 2460.754
438.2522, 2471.718
438.7343, 2470.709
439.2164, 2461.776
439.6985, 2436.241
440.1806, 2418.405
440.6628, 2407.979
441.1449, 2404.776
441.6270, 2413.931
442.1091, 2431.391
442.5912, 2444.044
443.0733, 2440.556
443.5555, 2425.095
444.0376, 2413.776
444.5197, 2407.813
445.0018, 2402.542
445.4839, 2392.577
445.9660, 2384.402
446.4482, 2386.401
446.9303, 2400.912
447.4124, 2415.062
447.8945, 2419.245
448.3766, 2417.830
448.8587, 2420.745
449.3409, 2429.676
449.8230, 2437.848
450.3051, 2440.185
450.7872, 2436.861
451.2693, 2431.792
451.7514, 2417.287
452.2336, 2410.034
452.7157, 2423.746
453.1978, 2445.062
453.6799, 2453.178
454.1620, 2442.820
454.6441, 2428.117
455.1263, 2429.127
455.6084, 2451.219
456.0905, 2458.557
456.5726, 2430.732
457.0547, 2408.633
457.5368, 2410.363
458.0190, 2424.656
458.5011, 2431.427
458.9832, 2420.919
459.4653, 2406.364
459.9474, 2409.022
460.4295, 2429.214
460.9117, 2444.066
461.3938, 2448.874
461.8759, 2447.432
462.3580, 2440.183
462.8401, 2428.718
463.3222, 2421.879
463.8044, 2425.295
464.2865, 2431.768
464.7686, 2434.198
465.2507, 2433.873
465.7328, 2437.893
466.2149, 2450.632
466.6971, 2464.655
467.1792, 2464.829
467.6613, 2441.397
468.1434, 2424.163
468.6255, 2415.173
469.1076, 2410.417
469.5898, 2408.747
470.0719, 2409.252
470.5540, 2410.688
471.0361, 2412.385
471.5182, 2414.187
472.0003, 2415.403
472.4825, 2415.223
472.9646, 2416.665
473.4467, 2426.900
473.9288, 2434.114
474.4109, 2426.211
474.8930, 2404.835
475.3752, 2388.394
475.8573, 2391.414
476.3394, 2404.488
476.8215, 2412.475
477.3036, 2414.980
477.7857, 2414.018
478.2679, 2409.527
478.7500, 2403.066
479.2321, 2398.261
479.7142, 2395.077
480.1963, 2393.297
480.6784, 2394.187
481.1606, 2395.594
481.6427, 2395.107
482.1248, 2392.937
482.6069, 2391.786
483.0890, 2394.246
483.5711, 2398.784
484.0533, 2396.379
484.5354, 2380.539
485.0175, 2368.373
485.4996, 2362.292
485.9817, 2360.335
486.4638, 2361.224
486.9460, 2364.713
487.4281, 2370.915
487.9102, 2382.252
488.3923, 2396.272
488.8744, 2406.208
489.3565, 2412.298
489.8387, 2411.852
490.3208, 2397.863
490.8029, 2379.372
491.2850, 2376.285
491.7671, 2395.696
492.2492, 2409.740
492.7314, 2404.647
493.2135, 2391.688
493.6956, 2382.097
494.1777, 2377.608
494.6598, 2377.174
495.1419, 2380.781
495.6241, 2387.254
496.1062, 2388.902
496.5883, 2380.990
497.0704, 2374.741
497.5525, 2370.091
498.0346, 2368.219
498.5168, 2371.914
498.9989, 2380.351
499.4810, 2387.688
499.9631, 2388.033
500.4452, 2383.468
500.9273, 2382.922
501.4095, 2388.168
501.8916, 2389.619
502.3737, 2379.689
502.8558, 2365.502
503.3379, 2358.084
503.8200, 2358.414
504.3022, 2362.322
504.7843, 2374.040
505.2664, 2385.213
505.7485, 2382.029
506.2306, 2366.057
506.7127, 2354.637
507.1949, 2359.939
507.6770, 2378.139
508.1591, 2392.653
508.6412, 2405.446
509.1233, 2411.125
509.6054, 2403.504
510.0876, 2393.610
510.5697, 2388.337
511.0518, 2388.573
511.5339, 2393.005
512.0161, 2402.875
512.4982, 2414.865
512.9803, 2420.466
513.4624, 2419.633
513.9445, 2411.337
514.4266, 2387.345
514.9088, 2362.570
515.3909, 2358.453
515.8730, 2376.791
516.3551, 2391.358
516.8372, 2394.237
517.3193, 2389.927
517.8015, 2376.240
518.2836, 2357.831
518.7657, 2352.679
519.2478, 2371.957
519.7299, 2402.869
520.2120, 2413.788
520.6942, 2387.316
521.1763, 2374.095
521.6584, 2383.910
522.1405, 2396.195
522.6226, 2401.344
523.1047, 2399.758
523.5869, 2394.392
524.0690, 2385.333
524.5511, 2376.533
525.0332, 2375.381
525.5153, 2381.829
525.9974, 2388.381
526.4796, 2394.364
526.9617, 2398.125
527.4438, 2395.426
527.9259, 2387.347
528.4080, 2384.499
528.8901, 2393.488
529.3723, 2403.039
529.8544, 2409.025
530.3365, 2410.288
530.8186, 2403.158
531.3007, 2386.640
531.7828, 2367.643
532.2650, 2354.956
532.7471, 2348.305
533.2292, 2349.654
533.7113, 2369.094
534.1934, 2385.071
534.6755, 2389.290
535.1577, 2386.903
535.6398, 2384.465
536.1219, 2383.646
536.6040, 2384.801
537.0861, 2388.671
537.5682, 2394.784
538.0504, 2403.098
538.5325, 2414.404
539.0146, 2421.481
539.4967, 2418.447
539.9788, 2406.856
540.4609, 2394.884
540.9431, 2376.375
541.4252, 2365.698
541.9073, 2371.511
542.3894, 2382.710
542.8715, 2389.040
543.3536, 2389.499
543.8358, 2389.021
544.3179, 2392.274
544.8000, 2397.055
545.2821, 2391.235
545.7642, 2366.894
546.2463, 2353.792
546.7285, 2369.878
547.2106, 2392.494
547.6926, 2405.536
548.1747, 2408.603
548.6569, 2407.641
549.1390, 2401.873
549.6211, 2395.666
550.1032, 2394.698
550.5853, 2397.859
551.0674, 2399.498
551.5496, 2397.003
552.0317, 2393.997
552.5138, 2396.939
552.9959, 2409.412
553.4780, 2415.613
553.9601, 2411.099
554.4423, 2406.047
554.9244, 2405.420
555.4065, 2406.681
555.8886, 2404.394
556.3707, 2396.394
556.8528, 2389.178
557.3350, 2392.530
557.8171, 2404.826
558.2992, 2412.688
558.7813, 2414.352
559.2634, 2413.283
559.7455, 2411.191
560.2277, 2408.056
560.7098, 2404.187
561.1919, 2400.163
561.6740, 2394.385
562.1561, 2383.492
562.6382, 2372.340
563.1204, 2363.912
563.6025, 2359.895
564.0846, 2365.671
564.5667, 2387.613
565.0488, 2418.157
565.5309, 2424.984
566.0131, 2394.261
566.4952, 2374.814
566.9773, 2385.483
567.4594, 2401.707
567.9415, 2410.420
568.4236, 2411.385
568.9058, 2407.636
569.3879, 2397.262
569.8700, 2385.577
570.3521, 2375.724
570.8342, 2368.790
571.3163, 2370.174
571.7985, 2382.176
572.2806, 2396.497
572.7627, 2403.236
573.2448, 2401.756
573.7269, 2398.760
574.2090, 2389.612
574.6912, 2384.513
575.1733, 2389.258
575.6554, 2397.677
576.1375, 2403.794
576.6196, 2405.968
577.1017, 2404.400
577.5839, 2397.056
578.0660, 2386.142
578.5481, 2378.637
579.0302, 2374.587
579.5123, 2375.305
579.9944, 2384.985
580.4766, 2396.661
580.9587, 2394.634
581.4408, 2374.630
581.9229, 2361.442
582.4050, 2360.178
582.8871, 2365.249
583.3693, 2380.175
583.8514, 2397.575
584.3335, 2400.388
584.8156, 2380.584
585.2977, 2354.541
585.7798, 2350.762
586.2620, 2371.861
586.7441, 2384.549
587.2262, 2385.023
587.7083, 2380.719
588.1904, 2371.925
588.6725, 2362.205
589.1547, 2358.756
589.6368, 2366.455
590.1189, 2369.927
590.6010, 2355.971
591.0831, 2336.757
591.5652, 2328.845
592.0474, 2332.382
592.5295, 2336.305
593.0116, 2332.707
593.4937, 2326.100
593.9758, 2332.513
594.4579, 2363.558
594.9401, 2379.897
595.4222, 2363.258
595.9043, 2344.680
596.3864, 2338.890
596.8685, 2343.519
597.3506, 2351.366
597.8328, 2362.443
598.3149, 2370.650
598.7970, 2366.935
599.2791, 2356.359
599.7612, 2353.792
600.2433, 2362.122
600.7255, 2369.468
601.2076, 2365.570
601.6897, 2351.729
602.1718, 2338.434
602.6539, 2318.778
603.1360, 2309.658
603.6182, 2319.220
604.1003, 2334.145
604.5824, 2348.453
605.0645, 2359.325
605.5466, 2361.165
606.0287, 2346.616
606.5109, 2326.997
606.9930, 2318.537
607.4751, 2320.554
607.9572, 2329.249
608.4393, 2345.556
608.9214, 2361.251
609.4036, 2368.256
609.8857, 2366.498
610.3678, 2361.752
610.8499, 2349.032
611.3320, 2339.936
611.8141, 2340.094
612.2963, 2343.289
612.7784, 2344.199
613.2605, 2341.688
613.7426, 2335.992
614.2247, 2324.990
614.7068, 2312.828
615.1890, 2310.263
615.6711, 2317.584
616.1532, 2329.456
616.6353, 2348.320
617.1174, 2363.977
617.5995, 2362.535
618.0817, 2343.556
618.5638, 2329.240
619.0459, 2318.594
619.5280, 2314.860
620.0101, 2327.365
620.4922, 2343.504
620.9744, 2344.365
621.4565, 2328.601
621.9386, 2314.434
622.4207, 2319.645
622.9028, 2338.960
623.3849, 2353.931
623.8671, 2365.909
624.3492, 2363.947
624.8313, 2335.330
625.3134, 2302.033
625.7955, 2292.992
626.2776, 2306.578
626.7598, 2316.997
627.2419, 2318.158
627.7240, 2318.144
628.2061, 2322.261
628.6882, 2327.230
629.1703, 2327.129
629.6525, 2321.167
630.1346, 2314.471
630.6167, 2311.421
631.0988, 2312.066
631.5809, 2318.206
632.0630, 2332.662
632.5452, 2341.116
633.0273, 2333.870
633.5094, 2324.003
633.9915, 2329.742
634.4736, 2349.899
634.9557, 2359.077
635.4379, 2342.331
635.9200, 2323.753
636.4021, 2317.957
636.8842, 2318.784
637.3663, 2315.500
637.8484, 2305.908
638.3306, 2296.353
638.8127, 2293.722
639.2948, 2296.545
639.7769, 2294.885
640.2590, 2286.202
640.7411, 2282.429
641.2233, 2291.385
641.7054, 2302.402
642.1875, 2303.178
642.6696, 2294.686
643.1517, 2289.020
643.6339, 2291.278
644.1160, 2294.185
644.5981, 2294.025
645.0802, 2291.818
645.5623, 2288.260
646.0444, 2284.033
646.5266, 2281.657
647.0087, 2283.846
647.4908, 2289.620
647.9729, 2294.659
648.4550, 2299.094
648.9371, 2302.272
649.4193, 2305.196
649.9014, 2305.461
650.3835, 2297.865
650.8656, 2284.160
651.3477, 2277.123
651.8298, 2287.171
652.3120, 2294.887
652.7941, 2286.817
653.2762, 2273.109
653.7583, 2267.005
654.2404, 2270.634
654.7225, 2279.243
655.2047, 2290.188
655.6868, 2301.575
656.1689, 2306.621
656.6510, 2304.599
657.1331, 2300.492
657.6152, 2294.356
658.0974, 2287.830
658.5795, 2280.753
659.0616, 2274.100
659.5437, 2272.988
660.0258, 2287.738
660.5079, 2295.813
660.9901, 2278.779
661.4722, 2258.168
661.9543, 2261.941
662.4364, 2287.052
662.9185, 2306.054
663.4006, 2299.473
663.8828, 2279.218
664.3649, 2271.914
664.8470, 2278.094
665.3291, 2278.629
665.8112, 2267.495
666.2933, 2257.750
666.7755, 2260.283
667.2576, 2272.345
667.7397, 2281.111
668.2218, 2283.029
668.7039, 2287.396
669.1860, 2303.402
669.6682, 2316.432
670.1503, 2310.178
670.6324, 2290.870
671.1145, 2278.288
671.5966, 2282.761
672.0787, 2293.469
672.5609, 2295.003
673.0430, 2288.709
673.5251, 2284.136
674.0072, 2282.244
674.4893, 2282.290
674.9714, 2286.193
675.4536, 2289.903
675.9357, 2281.925
676.4178, 2252.656
676.8999, 2232.686
677.3820, 2227.766
677.8641, 2227.216
678.3463, 2222.792
678.8284, 2219.803
679.3105, 2230.975
679.7926, 2260.292
680.2747, 2287.592
680.7568, 2290.601
681.2390, 2278.197
681.7211, 2270.888
682.2032, 2269.367
682.6853, 2268.661
683.1674, 2266.583
683.6495, 2264.568
684.1317, 2265.311
684.6138, 2270.086
685.0959, 2270.825
685.5780, 2263.914
686.0601, 2257.252
686.5422, 2251.993
687.0244, 2248.344
687.5065, 2247.925
687.9886, 2250.265
688.4707, 2249.699
688.9528, 2238.635
689.4349, 2226.376
689.9171, 2224.173
690.3992, 2229.619
690.8813, 2237.855
691.3634, 2247.248
691.8455, 2249.685
692.3276, 2234.408
692.8098, 2205.099
693.2919, 2196.111
693.7740, 2218.022
694.2561, 2236.870
694.7382, 2244.474
695.2203, 2248.888
695.7025, 2257.389
696.1846, 2267.737
696.6667, 2270.802
697.1488, 2258.506
697.6309, 2247.242
698.1130, 2246.857
698.5952, 2251.815
699.0773, 2256.318
699.5594, 2259.235
700.0415, 2261.157
700.5236, 2262.747
701.0057, 2261.913
701.4879, 2251.551
701.9700, 2230.716
702.4521, 2220.916
702.9342, 2227.799
703.4163, 2236.155
703.8984, 2236.991
704.3806, 2233.200
704.8627, 2232.113
705.3448, 2235.558
705.8269, 2236.283
706.3090, 2230.493
706.7911, 2224.518
707.2733, 2221.086
707.7554, 2220.442
708.2375, 2222.981
708.7196, 2228.694
709.2017, 2235.579
709.6838, 2243.107
710.1660, 2250.047
710.6481, 2252.676
711.1302, 2251.159
711.6123, 2248.594
712.0944, 2245.597
712.5765, 2244.306
713.0587, 2248.779
713.5408, 2259.760
714.0229, 2260.388
714.5050, 2236.944
714.9871, 2221.954
715.4692, 2224.750
715.9514, 2234.360
716.4335, 2246.936
716.9156, 2259.039
717.3977, 2259.947
717.8798, 2238.179
718.3619, 2214.081
718.8441, 2203.882
719.3262, 2202.324
719.8083, 2200.370
720.2904, 2197.102
720.7725, 2196.912
721.2546, 2202.984
721.7368, 2213.074
722.2189, 2223.381
722.7010, 2235.218
723.1831, 2236.641
723.6652, 2219.733
724.1473, 2206.291
724.6295, 2212.294
725.1116, 2228.544
725.5937, 2236.368
726.0758, 2234.425
726.5579, 2228.283
727.0400, 2213.395
727.5222, 2200.203
728.0043, 2197.541
728.4864, 2199.773
728.9685, 2196.455
729.4506, 2185.325
729.9327, 2174.810
730.4149, 2173.766
730.8970, 2178.288
731.3791, 2179.333
731.8612, 2177.325
732.3433, 2176.940
732.8254, 2179.983
733.3076, 2181.487
733.7897, 2174.584
734.2718, 2160.783
734.7539, 2160.614
735.2360, 2188.292
735.7181, 2205.769
736.2003, 2201.688
736.6824, 2193.204
737.1645, 2190.626
737.6466, 2192.240
738.1287, 2191.500
738.6108, 2184.661
739.0930, 2180.152
739.5751, 2185.433
740.0572, 2193.759
740.5393, 2196.583
741.0214, 2194.968
741.5035, 2195.382
741.9857, 2200.868
742.4678, 2207.418
742.9499, 2210.432
743.4320, 2209.743
743.9141, 2199.893
744.3962, 2177.052
744.8784, 2167.188
745.3605, 2185.987
745.8426, 2214.043
746.3247, 2225.478
746.8068, 2218.663
747.2889, 2209.466
747.7711, 2186.333
748.2532, 2175.743
748.7353, 2197.848
749.2174, 2224.685
749.6995, 2228.909
750.1816, 2213.050
750.6638, 2198.995
751.1459, 2197.424
751.6280, 2200.577
752.1101, 2205.135
752.5922, 2207.984
753.0743, 2198.391
753.5565, 2178.406
754.0386, 2169.595
754.5207, 2185.922
755.0028, 2211.179
755.4849, 2210.852
755.9670, 2181.024
756.4492, 2163.302
756.9313, 2163.185
757.4134, 2162.402
757.8955, 2145.417
758.3776, 2129.061
758.8597, 2147.153
759.3419, 2205.064
759.8240, 2236.004
760.3061, 2218.149
760.7882, 2192.211
761.2703, 2164.426
761.7524, 2142.165
762.2346, 2135.045
762.7167, 2141.470
763.1988, 2148.930
763.6809, 2150.445
764.1630, 2149.733
764.6451, 2151.468
765.1273, 2154.266
765.6094, 2153.117
766.0915, 2148.110
766.5736, 2147.467
767.0557, 2156.969
767.5378, 2170.651
768.0200, 2175.001
768.5021, 2168.274
768.9842, 2162.775
769.4663, 2159.724
769.9484, 2155.586
770.4305, 2147.190
770.9127, 2137.997
771.3948, 2132.354
771.8769, 2130.124
772.3590, 2132.369
772.8411, 2145.352
773.3232, 2155.502
773.8054, 2156.385
774.2875, 2152.608
774.7696, 2148.379
775.2517, 2144.536
775.7338, 2140.311
776.2159, 2133.633
776.6981, 2129.921
777.1802, 2139.391
777.6623, 2155.466
778.1444, 2162.255
778.6265, 2158.682
779.1086, 2153.641
779.5908, 2152.212
780.0729, 2151.414
780.5550, 2144.123
781.0371, 2128.846
781.5192, 2123.547
782.0013, 2132.979
782.4835, 2139.309
782.9656, 2131.795
783.4477, 2121.746
783.9298, 2127.896
784.4119, 2150.984
784.8940, 2157.090
785.3762, 2125.466
785.8583, 2101.718
786.3404, 2102.263
786.8225, 2112.367
787.3046, 2121.439
787.7867, 2128.116
788.2689, 2133.742
788.7510, 2139.085
789.2331, 2142.957
789.7152, 2144.166
790.1973, 2143.392
790.6794, 2142.605
791.1616, 2141.087
791.6437, 2133.428
792.1258, 2117.223
792.6079, 2102.932
793.0900, 2107.847
793.5721, 2128.919
794.0543, 2133.297
794.5364, 2117.587
795.0185, 2107.003
795.5006, 2110.155
795.9827, 2117.745
796.4648, 2121.138
796.9470, 2120.731
797.4291, 2120.696
797.9112, 2121.286
798.3933, 2121.893
798.8754, 2125.040
799.3575, 2125.670
799.8397, 2118.690
800.3218, 2107.739
800.8039, 2099.467
801.2860, 2095.446
801.7681, 2093.900
802.2502, 2095.428
802.7324, 2097.743
803.2145, 2100.541
803.6966, 2102.014
804.1787, 2096.405
804.6608, 2083.906
805.1429, 2076.006
805.6251, 2084.871
806.1072, 2101.327
806.5893, 2105.438
807.0714, 2098.501
807.5535, 2088.375
808.0356, 2075.897
808.5178, 2069.296
808.9999, 2075.789
809.4820, 2088.060
809.9641, 2085.897
810.4462, 2061.688
810.9283, 2051.590
811.4105, 2064.817
811.8926, 2077.056
812.3747, 2075.115
812.8568, 2070.059
813.3389, 2077.819
813.8210, 2098.337
814.3032, 2107.206
814.7853, 2088.189
815.2674, 2073.113
815.7495, 2072.340
816.2316, 2080.560
816.7137, 2099.925
817.1959, 2123.471
817.6780, 2133.597
818.1601, 2121.235
818.6422, 2102.041
819.1243, 2081.271
819.6064, 2066.649
820.0886, 2078.771
820.5707, 2108.836
821.0528, 2122.354
821.5349, 2107.580
822.0170, 2083.800
822.4991, 2071.075
822.9813, 2067.657
823.4634, 2066.149
823.9455, 2066.499
824.4276, 2070.837
824.9097, 2081.192
825.3918, 2088.878
825.8740, 2085.850
826.3561, 2076.272
826.8382, 2074.550
827.3203, 2085.656
827.8024, 2093.088
828.2845, 2092.564
828.7667, 2093.622
829.2488, 2101.354
829.7309, 2111.488
830.2130, 2121.690
830.6951, 2131.582
831.1772, 2129.931
831.6594, 2102.500
832.1415, 2077.128
832.6236, 2066.336
833.1057, 2063.034
833.5878, 2059.705
834.0699, 2056.740
834.5521, 2059.566
835.0342, 2071.674
835.5163, 2083.994
835.9984, 2088.417
836.4805, 2087.461
836.9626, 2083.981
837.4448, 2078.922
837.9269, 2075.403
838.4090, 2074.239
838.8911, 2070.181
839.3732, 2055.032
839.8553, 2034.899
840.3375, 2036.413
840.8196, 2060.203
841.3017, 2071.929
841.7838, 2063.958
842.2659, 2050.480
842.7480, 2038.931
843.2302, 2031.274
843.7123, 2033.204
844.1944, 2048.831
844.6765, 2060.678
845.1586, 2072.304
845.6407, 2074.837
846.1229, 2055.627
846.6050, 2032.587
847.0871, 2023.581
847.5692, 2027.957
848.0513, 2033.552
848.5334, 2043.217
849.0156, 2047.831
849.4977, 2040.684
849.9798, 2031.364
850.4619, 2026.652
850.9440, 2025.849
851.4261, 2025.105
851.9083, 2022.908
852.3904, 2025.807
852.8725, 2046.042
853.3546, 2066.868
853.8367, 2067.885
854.3188, 2056.611
854.8010, 2048.872
855.2831, 2047.880
855.7652, 2048.468
856.2473, 2047.231
856.7294, 2044.358
857.2115, 2037.583
857.6937, 2029.150
858.1758, 2030.966
858.6579, 2043.765
859.1400, 2056.066
859.6221, 2062.833
860.1042, 2064.922
860.5864, 2063.729
861.0685, 2059.165
861.5506, 2046.216
862.0327, 2019.380
862.5148, 2006.847
862.9969, 2020.208
863.4791, 2038.789
863.9612, 2047.326
864.4433, 2047.982
864.9254, 2048.035
865.4075, 2043.370
865.8896, 2046.797
866.3718, 2072.871
866.8539, 2089.364
867.3360, 2077.411
867.8181, 2054.925
868.3002, 2039.428
868.7823, 2032.620
869.2645, 2034.702
869.7466, 2059.648
870.2287, 2075.435
870.7108, 2060.906
871.1929, 2039.370
871.6750, 2030.840
872.1572, 2032.924
872.6393, 2036.277
873.1214, 2037.946
873.6035, 2036.999
874.0856, 2029.278
874.5677, 2021.475
875.0499, 2022.906
875.5320, 2029.569
876.0141, 2032.416
876.4962, 2030.267
876.9783, 2028.777
877.4604, 2032.176
877.9426, 2036.528
878.4247, 2035.569
878.9068, 2030.131
879.3889, 2021.242
879.8710, 2009.784
880.3531, 2005.104
880.8353, 2011.411
881.3174, 2019.118
881.7995, 2015.444
882.2816, 2003.582
882.7637, 2006.869
883.2458, 2028.906
883.7280, 2036.990
884.2101, 2020.957
884.6922, 2007.262
885.1743, 2016.347
885.6564, 2034.855
886.1385, 2031.567
886.6207, 1998.025
887.1028, 1981.456
887.5849, 1992.995
888.0670, 2003.655
888.5491, 2005.669
889.0313, 2004.027
889.5134, 2000.817
889.9955, 1997.279
890.4776, 1999.240
890.9597, 2010.696
891.4418, 2021.084
891.9240, 2033.612
892.4061, 2039.736
892.8882, 2028.462
893.3703, 2011.578
893.8524, 2007.573
894.3345, 2017.509
894.8167, 2021.159
895.2988, 2003.932
895.7809, 1986.343
896.2630, 1976.819
896.7451, 1974.274
897.2272, 1982.962
897.7094, 1996.799
898.1915, 1999.839
898.6736, 1986.275
899.1557, 1974.491
899.6378, 1984.083
900.1199, 1999.690
900.6021, 2002.138
901.0842, 1995.859
901.5663, 1988.428
902.0484, 1982.843
902.5305, 1984.554
903.0126, 1997.684
903.4948, 2015.092
903.9769, 2029.436
904.4590, 2039.047
904.9411, 2036.598
905.4232, 2023.053
905.9053, 2005.343
906.3875, 1985.873
906.8696, 1972.538
907.3517, 1974.573
907.8338, 1985.896
908.3159, 1983.685
908.7980, 1967.743
909.2802, 1969.231
909.7623, 1994.718
910.2444, 2010.379
910.7265, 1996.795
911.2086, 1974.767
911.6907, 1975.671
912.1729, 1999.106
912.6550, 2010.946
913.1371, 2007.290
913.6192, 2004.223
914.1013, 2003.434
914.5834, 2006.063
915.0656, 2016.129
915.5477, 2028.053
916.0298, 2027.796
916.5119, 2009.809
916.9940, 2000.575
917.4761, 2007.592
917.9583, 2012.763
918.4404, 2011.589
918.9225, 2007.313
919.4046, 2000.566
919.8867, 1992.705
920.3688, 1989.145
920.8510, 1995.528
921.3331, 1994.472
921.8152, 1972.673
922.2973, 1955.428
922.7794, 1953.416
923.2615, 1962.851
923.7437, 1988.614
924.2258, 2024.713
924.7079, 2034.983
925.1900, 1989.181
925.6721, 1948.056
926.1542, 1935.654
926.6364, 1938.290
927.1185, 1952.748
927.6006, 1971.303
928.0827, 1980.797
928.5648, 1979.537
929.0469, 1983.809
929.5291, 2021.303
930.0112, 2046.084
930.4933, 2002.373
930.9754, 1940.705
931.4575, 1928.594
931.9396, 1956.396
932.4218, 1977.313
932.9039, 1974.436
933.3860, 1967.672
933.8681, 1977.642
934.3502, 1990.538
934.8323, 1985.837
935.3145, 1971.280
935.7966, 1963.488
936.2787, 1963.491
936.7608, 1961.096
937.2429, 1950.614
937.7250, 1940.947
938.2072, 1944.225
938.6893, 1955.877
939.1714, 1969.335
939.6535, 1981.795
940.1356, 1981.190
940.6177, 1966.011
941.0999, 1948.498
941.5820, 1936.488
942.0641, 1931.226
942.5462, 1937.910
943.0283, 1953.784
943.5104, 1965.445
943.9926, 1972.246
944.4747, 1973.100
944.9568, 1967.551
945.4389, 1959.775
945.9210, 1952.714
946.4031, 1948.144
946.8853, 1952.816
947.3674, 1966.676
947.8495, 1976.742
948.3316, 1982.318
948.8137, 1982.025
949.2958, 1974.730
949.7780, 1963.819
950.2601, 1951.537
950.7422, 1940.028
951.2243, 1942.723
951.7064, 1962.593
952.1885, 1977.366
952.6707, 1984.500
953.1528, 1988.377
953.6349, 1992.021
954.1170, 1990.746
954.5991, 1975.400
955.0812, 1947.397
955.5634, 1937.781
956.0455, 1954.360
956.5276, 1965.126
957.0097, 1963.980
957.4918, 1961.453
957.9739, 1963.379
958.4561, 1967.160
958.9382, 1969.214
959.4203, 1969.810
959.9024, 1963.983
960.3845, 1942.595
960.8666, 1933.745
961.3488, 1951.679
961.8309, 1968.974
962.3130, 1965.261
962.7951, 1951.594
963.2772, 1951.300
963.7593, 1968.957
964.2415, 1975.452
964.7236, 1963.432
965.2057, 1950.934
965.6878, 1939.439
966.1699, 1929.804
966.6520, 1922.488
967.1342, 1917.401
967.6163, 1914.375
968.0984, 1913.408
968.5805, 1914.499
969.0626, 1919.904
969.5447, 1924.344
970.0269, 1919.211
970.5090, 1919.243
970.9911, 1946.961
971.4732, 1987.239
971.9553, 1996.835
972.4374, 1960.249
972.9196, 1934.497
973.4017, 1933.799
973.8838, 1936.719
974.3659, 1938.086
974.8480, 1937.958
975.3301, 1935.464
975.8123, 1931.779
976.2944, 1931.173
976.7765, 1937.097
977.2586, 1936.773
977.7407, 1917.099
978.2228, 1903.097
978.7050, 1905.938
979.1871, 1919.562
979.6692, 1943.857
980.1513, 1973.197
980.6334, 1991.628
981.1155, 1994.453
981.5977, 1990.065
982.0798, 1974.467
982.5619, 1959.854
983.0440, 1951.134
983.5261, 1947.511
984.0082, 1951.145
984.4904, 1958.961
984.9725, 1959.583
985.4546, 1945.599
985.9367, 1937.545
986.4188, 1948.714
986.9009, 1961.208
987.3831, 1965.363
987.8652, 1964.468
988.3473, 1963.468
988.8294, 1961.799
989.3115, 1953.422
989.7936, 1931.250
990.2758, 1917.961
990.7579, 1933.168
991.2400, 1949.039
991.7221, 1945.507
992.2042, 1933.729
992.6863, 1926.000
993.1685, 1924.361
993.6506, 1929.003
994.1327, 1943.554
994.6148, 1953.843
995.0969, 1951.054
995.5790, 1944.559
996.0612, 1936.186
996.5433, 1930.821
997.0254, 1938.861
997.5075, 1956.216
997.9896, 1961.068
998.4717, 1939.483
998.9539, 1924.438
999.4360, 1945.911
999.9181, 1963.392
1000.400, 1936.534
1000.882, 1896.606
1001.364, 1887.987
1001.847, 1907.867
1002.329, 1919.545
1002.811, 1906.545
1003.293, 1896.303
1003.775, 1905.367
1004.257, 1917.609
1004.739, 1924.517
1005.221, 1926.337
1005.703, 1923.484
1006.186, 1916.599
1006.668, 1905.703
1007.150, 1886.901
1007.632, 1877.640
1008.114, 1896.275
1008.596, 1915.549
1009.078, 1915.129
1009.560, 1906.931
1010.043, 1905.863
1010.525, 1911.901
1011.007, 1917.396
1011.489, 1920.305
1011.971, 1921.477
1012.453, 1921.571
1012.935, 1919.729
1013.417, 1912.911
1013.899, 1905.715
1014.382, 1900.733
1014.864, 1900.227
1015.346, 1912.631
1015.828, 1947.278
1016.310, 1964.015
1016.792, 1928.019
1017.274, 1893.019
1017.756, 1895.356
1018.239, 1907.762
1018.721, 1895.500
1019.203, 1868.023
1019.685, 1863.452
1020.167, 1896.409
1020.649, 1922.270
1021.131, 1919.704
1021.613, 1915.401
1022.095, 1922.656
1022.578, 1933.020
1023.060, 1943.437
1023.542, 1949.193
1024.024, 1935.447
1024.506, 1893.008
1024.988, 1874.212
1025.470, 1919.730
1025.952, 1955.708
1026.435, 1942.014
1026.917, 1919.656
1027.399, 1925.497
1027.881, 1947.378
1028.363, 1954.571
1028.845, 1941.323
1029.327, 1929.241
1029.809, 1922.785
1030.292, 1917.196
1030.774, 1910.084
1031.256, 1904.516
1031.738, 1904.026
1032.220, 1905.934
1032.702, 1904.991
1033.184, 1900.494
1033.666, 1898.002
1034.148, 1897.492
1034.630, 1899.882
1035.113, 1911.406
1035.595, 1919.260
1036.077, 1913.866
1036.559, 1901.759
1037.041, 1891.144
1037.523, 1882.037
1038.005, 1878.983
1038.487, 1886.405
1038.970, 1892.753
1039.452, 1898.600
1039.934, 1901.602
1040.416, 1897.688
1040.898, 1893.037
1041.380, 1897.149
1041.862, 1908.554
1042.344, 1910.300
1042.826, 1895.016
1043.309, 1886.394
1043.791, 1887.543
1044.273, 1891.286
1044.755, 1896.843
1045.237, 1901.380
1045.719, 1902.082
1046.201, 1899.321
1046.683, 1894.610
1047.166, 1886.950
1047.648, 1879.980
1048.130, 1871.684
1048.612, 1870.664
1049.094, 1881.183
1049.576, 1896.618
1050.058, 1915.086
1050.540, 1929.322
1051.022, 1915.067
1051.505, 1867.108
1051.987, 1844.246
1052.469, 1849.909
1052.951, 1862.061
1053.433, 1877.632
1053.915, 1886.523
1054.397, 1880.176
1054.879, 1869.278
1055.361, 1875.737
1055.844, 1897.161
1056.326, 1903.411
1056.808, 1894.601
1057.290, 1888.658
1057.772, 1888.626
1058.254, 1893.579
1058.736, 1903.545
1059.218, 1912.026
1059.701, 1908.729
1060.183, 1898.415
1060.665, 1898.396
1061.147, 1906.492
1061.629, 1910.924
1062.111, 1910.597
1062.593, 1908.287
1063.075, 1905.231
1063.557, 1903.739
1064.040, 1906.645
1064.522, 1911.278
1065.004, 1911.967
1065.486, 1910.806
1065.968, 1915.597
1066.450, 1923.373
1066.932, 1920.183
1067.414, 1904.210
1067.896, 1890.273
1068.379, 1887.731
1068.861, 1894.249
1069.343, 1918.965
1069.825, 1942.186
1070.307, 1925.686
1070.789, 1890.485
1071.271, 1883.378
1071.753, 1905.135
1072.236, 1920.490
1072.718, 1912.765
1073.200, 1902.589
1073.682, 1905.004
1074.164, 1911.183
1074.646, 1919.939
1075.128, 1923.620
1075.610, 1906.361
1076.093, 1877.368
1076.575, 1861.861
1077.057, 1866.628
1077.539, 1878.822
1078.021, 1903.942
1078.503, 1920.640
1078.985, 1914.497
1079.467, 1900.926
1079.949, 1888.677
1080.432, 1878.884
1080.914, 1870.399
1081.396, 1863.527
1081.878, 1864.915
1082.360, 1884.233
1082.842, 1898.889
1083.324, 1904.391
1083.806, 1905.837
1084.288, 1903.404
1084.771, 1899.582
1085.253, 1896.863
1085.735, 1895.075
1086.217, 1893.517
1086.699, 1893.793
1087.181, 1889.160
1087.663, 1870.940
1088.145, 1866.627
1088.628, 1890.984
1089.110, 1916.980
1089.592, 1925.427
1090.074, 1921.330
1090.556, 1914.161
1091.038, 1903.563
1091.520, 1901.594
1092.002, 1910.265
1092.484, 1912.750
1092.967, 1904.253
1093.449, 1906.399
1093.931, 1933.037
1094.413, 1958.711
1094.895, 1946.973
1095.377, 1912.639
1095.859, 1918.629
1096.341, 1956.603
1096.823, 1954.350
1097.306, 1911.331
1097.788, 1881.880
1098.270, 1883.302
1098.752, 1897.467
1099.234, 1912.104
1099.716, 1922.872
1100.198, 1919.262
1100.680, 1909.008
1101.163, 1911.152
1101.645, 1919.364
1102.127, 1913.877
1102.609, 1894.763
1103.091, 1877.359
1103.573, 1868.630
1104.055, 1868.715
1104.537, 1885.021
1105.020, 1902.459
1105.502, 1906.455
1105.984, 1904.005
1106.466, 1902.267
1106.948, 1902.004
1107.430, 1903.470
1107.912, 1906.375
1108.394, 1906.137
1108.876, 1894.645
1109.359, 1889.158
1109.841, 1904.440
1110.323, 1918.311
1110.805, 1919.100
1111.287, 1909.424
1111.769, 1885.735
1112.251, 1853.870
1112.733, 1842.174
1113.215, 1864.318
1113.698, 1878.926
1114.180, 1876.255
1114.662, 1879.813
1115.144, 1901.994
1115.626, 1921.436
1116.108, 1921.319
1116.590, 1911.839
1117.072, 1913.342
1117.555, 1925.928
1118.037, 1924.434
1118.519, 1905.737
1119.001, 1889.921
1119.483, 1878.952
1119.965, 1873.559
1120.447, 1874.309
1120.929, 1879.459
1121.411, 1888.063
1121.894, 1897.630
1122.376, 1901.437
1122.858, 1900.203
1123.340, 1896.885
1123.822, 1892.105
1124.304, 1886.345
1124.786, 1880.815
1125.268, 1883.518
1125.750, 1899.438
1126.233, 1917.380
1126.715, 1925.642
1127.197, 1927.493
1127.679, 1927.540
1128.161, 1924.285
1128.643, 1909.818
1129.125, 1890.968
1129.607, 1887.668
1130.090, 1903.431
1130.572, 1916.882
1131.054, 1914.516
1131.536, 1912.328
1132.018, 1927.665
1132.500, 1936.070
1132.982, 1908.225
1133.464, 1873.030
1133.947, 1867.573
1134.429, 1887.300
1134.911, 1903.202
1135.393, 1912.156
1135.875, 1916.068
1136.357, 1909.644
1136.839, 1906.373
1137.321, 1913.633
1137.803, 1916.507
1138.286, 1901.751
1138.768, 1883.563
1139.250, 1883.842
1139.732, 1900.424
1140.214, 1913.116
1140.696, 1921.712
1141.178, 1928.102
1141.660, 1932.267
1142.142, 1936.574
1142.625, 1941.957
1143.107, 1944.453
1143.589, 1940.998
1144.071, 1932.687
1144.553, 1917.464
1145.035, 1900.242
1145.517, 1901.862
1145.999, 1913.576
1146.482, 1901.766
1146.964, 1870.520
1147.446, 1856.360
1147.928, 1872.294
1148.410, 1895.988
1148.892, 1913.980
1149.374, 1927.851
1149.856, 1942.609
1150.339, 1950.272
1150.821, 1936.938
1151.303, 1914.653
1151.785, 1899.124
1152.267, 1892.650
1152.749, 1893.927
1153.231, 1905.841
1153.713, 1912.680
1154.195, 1902.724
1154.677, 1898.604
1155.160, 1911.440
1155.642, 1927.677
1156.124, 1947.751
1156.606, 1958.759
1157.088, 1935.586
1157.570, 1882.974
1158.052, 1857.729
1158.534, 1864.266
1159.017, 1881.278
1159.499, 1911.610
1159.981, 1927.580
1160.463, 1919.463
1160.945, 1907.507
1161.427, 1906.387
1161.909, 1909.999
1162.391, 1907.246
1162.874, 1901.009
1163.356, 1902.815
1163.838, 1909.214
1164.320, 1906.521
1164.802, 1896.868
1165.284, 1897.492
1165.766, 1912.073
1166.248, 1919.681
1166.730, 1901.481
1167.213, 1884.470
1167.695, 1897.151
1168.177, 1914.439
1168.659, 1911.489
1169.141, 1901.480
1169.623, 1904.170
1170.105, 1915.503
1170.587, 1917.060
1171.069, 1903.725
1171.552, 1896.757
1172.034, 1904.675
1172.516, 1911.578
1172.998, 1915.012
1173.480, 1917.149
1173.962, 1919.302
1174.444, 1919.835
1174.926, 1916.305
1175.409, 1910.353
1175.891, 1908.118
1176.373, 1910.023
1176.855, 1908.795
1177.337, 1904.278
1177.819, 1903.635
1178.301, 1908.177
1178.783, 1917.104
1179.266, 1930.087
1179.748, 1936.820
1180.230, 1922.967
1180.712, 1902.686
1181.194, 1897.594
1181.676, 1903.038
1182.158, 1918.119
1182.640, 1934.425
1183.122, 1935.503
1183.604, 1921.258
1184.087, 1901.111
1184.569, 1876.311
1185.051, 1863.178
1185.533, 1879.303
1186.015, 1894.817
1186.497, 1895.791
1186.979, 1893.265
1187.461, 1890.918
1187.944, 1892.639
1188.426, 1908.543
1188.908, 1933.951
1189.390, 1938.644
1189.872, 1914.359
1190.354, 1898.864
1190.836, 1893.797
1191.318, 1889.495
1191.801, 1883.201
1192.283, 1883.170
1192.765, 1894.867
1193.247, 1908.825
1193.729, 1912.622
1194.211, 1910.874
1194.693, 1915.738
1195.175, 1923.981
1195.657, 1926.277
1196.140, 1924.271
1196.622, 1923.267
1197.104, 1925.025
1197.586, 1932.789
1198.068, 1949.291
1198.550, 1958.044
1199.032, 1942.186
1199.514, 1924.103
1199.996, 1911.157
1200.479, 1906.533
1200.961, 1918.262
1201.443, 1936.299
1201.925, 1945.922
1202.407, 1947.553
1202.889, 1952.083
1203.371, 1964.710
1203.853, 1961.369
1204.336, 1932.712
1204.818, 1920.295
1205.300, 1936.179
1205.782, 1952.432
1206.264, 1954.774
1206.746, 1945.799
1207.228, 1925.036
1207.710, 1902.144
1208.193, 1905.450
1208.675, 1925.101
1209.157, 1932.561
1209.639, 1930.671
1210.121, 1932.522
1210.603, 1939.162
1211.085, 1943.668
1211.567, 1943.328
1212.049, 1939.538
1212.531, 1926.786
1213.014, 1919.479
1213.496, 1934.205
1213.978, 1947.101
1214.460, 1932.879
1214.942, 1913.600
1215.424, 1921.876
1215.906, 1949.184
1216.388, 1960.438
1216.871, 1952.637
1217.353, 1946.503
1217.835, 1941.355
1218.317, 1940.917
1218.799, 1946.011
1219.281, 1955.121
1219.763, 1968.270
1220.245, 1976.539
1220.728, 1970.771
1221.210, 1959.663
1221.692, 1960.214
1222.174, 1965.595
1222.656, 1960.432
1223.138, 1949.585
1223.620, 1942.281
1224.102, 1939.696
1224.584, 1941.022
1225.067, 1945.793
1225.549, 1952.416
1226.031, 1966.637
1226.513, 1969.817
1226.995, 1939.502
1227.477, 1917.847
1227.959, 1934.056
1228.441, 1954.515
1228.923, 1952.197
1229.406, 1939.665
1229.888, 1939.042
1230.370, 1948.843
1230.852, 1952.277
1231.334, 1949.013
1231.816, 1947.378
1232.298, 1947.911
1232.780, 1952.015
1233.263, 1959.415
1233.745, 1962.379
1234.227, 1956.359
1234.709, 1949.132
1235.191, 1947.054
1235.673, 1949.960
1236.155, 1962.289
1236.637, 1975.330
1237.120, 1978.828
1237.602, 1976.231
1238.084, 1970.990
1238.566, 1965.856
1239.048, 1970.251
1239.530, 1991.364
1240.012, 1996.793
1240.494, 1972.031
1240.976, 1958.042
1241.458, 1963.965
1241.941, 1969.526
1242.423, 1965.790
1242.905, 1960.814
##END=



