##NAMES=Parabutlerite
##RRUFFID=R060754
##IDEAL CHEMISTRY=Fe^3+^S^6+^O_4_(OH)&#183;2H_2_O
##LOCALITY=Chuquicamata, Chile
##OWNER=RRUFF
##SOURCE=Michael Scott
##DESCRIPTION=Aggregate of pale orange grains
##STATUS=The identification of this mineral has been confirmed by X-ray diffraction.
##URL=rruff.info/R060754
83.436, 27.940
83.918, 40.476
84.400, 52.483
84.882, 70.796
85.364, 82.568
85.846, 78.131
86.328, 58.577
86.810, 40.377
87.292, 32.254
87.775, 31.120
88.257, 32.625
88.739, 37.336
89.221, 42.617
89.703, 45.603
90.185, 45.679
90.667, 45.053
91.149, 45.375
91.632, 46.651
92.114, 48.873
92.596, 53.685
93.078, 59.504
93.560, 62.387
94.042, 60.468
94.524, 56.027
95.006, 52.949
95.488, 51.235
95.971, 50.841
96.453, 52.754
96.935, 56.778
97.417, 59.368
97.899, 58.523
98.381, 54.598
98.863, 51.403
99.345, 48.335
99.827, 47.054
100.310, 52.196
100.792, 66.019
101.274, 78.056
101.756, 80.821
102.238, 70.395
102.720, 67.306
103.202, 76.619
103.684, 94.971
104.166, 102.211
104.649, 91.071
105.131, 77.181
105.613, 73.387
106.095, 85.567
106.577, 98.818
107.059, 110.865
107.541, 121.195
108.023, 132.511
108.506, 146.368
108.988, 160.648
109.470, 172.507
109.952, 179.980
110.434, 186.667
110.916, 192.838
111.398, 193.657
111.880, 202.083
112.363, 223.614
112.845, 254.425
113.327, 282.760
113.809, 309.480
114.291, 331.722
114.773, 347.611
115.255, 349.167
115.737, 351.856
116.219, 360.001
116.702, 373.530
117.184, 389.528
117.666, 411.810
118.148, 434.791
118.630, 451.797
119.112, 454.552
119.594, 454.731
120.076, 459.349
120.559, 469.424
121.041, 481.875
121.523, 496.000
122.005, 511.268
122.487, 526.279
122.969, 543.591
123.451, 559.218
123.933, 567.433
124.415, 563.526
124.898, 557.720
125.380, 561.050
125.862, 572.689
126.344, 586.670
126.826, 601.630
127.308, 615.640
127.790, 623.624
128.272, 618.272
128.755, 608.251
129.237, 611.730
129.719, 629.746
130.201, 651.285
130.683, 663.803
131.165, 668.276
131.647, 672.865
132.129, 680.465
132.611, 690.967
133.094, 704.048
133.576, 720.086
134.058, 737.953
134.540, 757.393
135.022, 779.255
135.504, 796.027
135.986, 800.317
136.468, 791.287
136.951, 787.561
137.433, 792.768
137.915, 804.341
138.397, 813.127
138.879, 819.489
139.361, 822.279
139.843, 819.876
140.325, 810.813
140.807, 801.499
141.290, 792.320
141.772, 783.269
142.254, 778.278
142.736, 778.249
143.218, 781.460
143.700, 785.914
144.182, 791.838
144.664, 798.475
145.146, 805.162
145.629, 810.803
146.111, 819.962
146.593, 834.854
147.075, 852.956
147.557, 867.662
148.039, 877.714
148.521, 885.829
149.003, 893.197
149.486, 900.218
149.968, 905.875
150.450, 908.199
150.932, 908.185
151.414, 912.477
151.896, 924.536
152.378, 938.891
152.860, 952.247
153.342, 962.901
153.824, 974.454
154.307, 989.106
154.789, 1007.320
155.271, 1021.130
155.753, 1028.112
156.235, 1030.584
156.717, 1030.718
157.199, 1021.564
157.682, 1016.469
158.164, 1021.872
158.646, 1041.430
159.128, 1058.133
159.610, 1065.615
160.092, 1067.296
160.574, 1068.396
161.056, 1072.983
161.538, 1075.737
162.020, 1072.609
162.503, 1058.362
162.985, 1047.110
163.467, 1047.991
163.949, 1057.186
164.431, 1064.061
164.913, 1058.926
165.395, 1051.905
165.877, 1051.512
166.360, 1065.231
166.842, 1080.364
167.324, 1090.347
167.806, 1095.394
168.288, 1097.416
168.770, 1094.950
169.252, 1090.821
169.734, 1088.441
170.217, 1087.942
170.699, 1090.442
171.181, 1098.412
171.663, 1111.894
172.145, 1125.220
172.627, 1137.336
173.109, 1146.148
173.591, 1148.010
174.073, 1130.035
174.555, 1108.798
175.038, 1106.052
175.520, 1125.119
176.002, 1151.220
176.484, 1175.623
176.966, 1196.673
177.448, 1210.034
177.930, 1206.501
178.413, 1194.867
178.895, 1191.046
179.377, 1199.189
179.859, 1210.874
180.341, 1194.263
180.823, 1222.957
181.305, 1240.655
181.787, 1247.945
182.269, 1213.661
182.751, 1233.062
183.234, 1230.948
183.716, 1227.952
184.198, 1254.909
184.680, 1226.672
185.162, 1253.153
185.644, 1257.792
186.126, 1272.428
186.608, 1265.416
187.091, 1265.092
187.573, 1286.421
188.055, 1295.759
188.537, 1286.256
189.019, 1301.527
189.501, 1272.533
189.983, 1282.383
190.465, 1308.992
190.947, 1300.577
191.430, 1316.244
191.912, 1322.739
192.394, 1287.552
192.876, 1324.855
193.358, 1311.016
193.840, 1301.849
194.322, 1298.569
194.804, 1307.621
195.286, 1328.193
195.769, 1345.210
196.251, 1358.365
196.733, 1368.444
197.215, 1376.799
197.697, 1383.347
198.179, 1389.043
198.661, 1392.508
199.143, 1393.449
199.626, 1401.642
200.108, 1419.631
200.590, 1443.348
201.072, 1463.522
201.554, 1479.575
202.036, 1494.444
202.518, 1510.067
203.000, 1526.606
203.482, 1541.629
203.965, 1553.051
204.447, 1563.239
204.929, 1583.278
205.411, 1616.791
205.893, 1650.016
206.375, 1670.731
206.857, 1675.729
207.339, 1683.681
207.822, 1697.028
208.304, 1715.837
208.786, 1741.206
209.268, 1776.488
209.750, 1812.214
210.232, 1840.793
210.714, 1862.726
211.196, 1874.709
211.678, 1872.740
212.161, 1857.124
212.643, 1849.441
213.125, 1851.132
213.607, 1858.664
214.089, 1868.779
214.571, 1882.539
215.053, 1896.242
215.535, 1910.280
216.018, 1925.560
216.500, 1930.563
216.982, 1920.086
217.464, 1904.368
217.946, 1899.062
218.428, 1909.526
218.910, 1918.437
219.392, 1919.855
219.874, 1912.070
220.357, 1904.609
220.839, 1897.487
221.321, 1890.825
221.803, 1885.003
222.285, 1881.135
222.767, 1876.223
223.249, 1867.504
223.731, 1849.714
224.214, 1844.551
224.696, 1857.076
225.178, 1880.075
225.660, 1897.699
226.142, 1907.361
226.624, 1915.613
227.106, 1924.513
227.588, 1932.187
228.070, 1945.374
228.553, 1967.262
229.035, 1994.234
229.517, 2015.527
229.999, 2028.273
230.481, 2039.659
230.963, 2053.881
231.445, 2074.641
231.927, 2090.556
232.410, 2100.519
232.892, 2105.178
233.374, 2106.996
233.856, 2104.336
234.338, 2101.044
234.820, 2100.280
235.302, 2107.251
235.784, 2106.062
236.266, 2094.014
236.749, 2072.142
237.231, 2049.332
237.713, 2027.924
238.195, 2002.611
238.677, 1969.444
239.159, 1925.542
239.641, 1879.530
240.123, 1830.674
240.605, 1779.366
241.088, 1731.201
241.570, 1686.283
242.052, 1643.898
242.534, 1603.285
243.016, 1563.232
243.498, 1527.319
243.980, 1497.028
244.462, 1472.125
244.945, 1446.747
245.427, 1421.851
245.909, 1395.692
246.391, 1365.582
246.873, 1324.992
247.355, 1293.327
247.837, 1277.034
248.319, 1276.428
248.801, 1268.038
249.284, 1249.175
249.766, 1225.754
250.248, 1202.823
250.730, 1178.825
251.212, 1158.574
251.694, 1143.279
252.176, 1133.198
252.658, 1125.938
253.141, 1124.112
253.623, 1122.550
254.105, 1115.050
254.587, 1097.809
255.069, 1082.930
255.551, 1073.645
256.033, 1070.470
256.515, 1066.084
256.997, 1059.561
257.480, 1052.737
257.962, 1047.145
258.444, 1041.853
258.926, 1039.967
259.408, 1043.832
259.890, 1054.427
260.372, 1058.911
260.854, 1055.691
261.336, 1048.072
261.819, 1038.573
262.301, 1023.928
262.783, 1015.447
263.265, 1017.580
263.747, 1031.321
264.229, 1043.788
264.711, 1056.321
265.193, 1065.830
265.676, 1066.914
266.158, 1056.792
266.640, 1046.793
267.122, 1040.886
267.604, 1039.515
268.086, 1035.204
268.568, 1027.673
269.050, 1017.509
269.532, 1003.774
270.015, 983.416
270.497, 969.915
270.979, 970.793
271.461, 987.213
271.943, 991.320
272.425, 979.384
272.907, 961.123
273.389, 950.105
273.871, 947.192
274.354, 947.200
274.836, 950.106
275.318, 956.006
275.800, 955.882
276.282, 948.361
276.764, 937.464
277.246, 927.929
277.728, 919.885
278.211, 913.202
278.693, 907.895
279.175, 903.946
279.657, 901.690
280.139, 901.913
280.621, 901.875
281.103, 896.643
281.585, 885.813
282.068, 877.051
282.550, 874.078
283.032, 876.228
283.514, 877.025
283.996, 876.379
284.478, 874.690
284.960, 872.363
285.442, 869.379
285.924, 865.888
286.406, 861.046
286.889, 855.490
287.371, 852.690
287.853, 852.806
288.335, 854.985
288.817, 860.058
289.299, 867.589
289.781, 871.551
290.263, 867.405
290.746, 857.929
291.228, 852.367
291.710, 850.769
292.192, 852.676
292.674, 859.140
293.156, 869.349
293.638, 878.896
294.120, 886.399
294.603, 891.973
295.085, 895.365
295.567, 896.445
296.049, 897.286
296.531, 900.131
297.013, 904.548
297.495, 909.092
297.977, 914.286
298.459, 918.802
298.942, 917.430
299.424, 910.029
299.906, 906.548
300.388, 922.279
300.870, 949.444
301.352, 968.304
301.834, 966.043
302.316, 955.758
302.798, 955.522
303.281, 964.953
303.763, 974.079
304.245, 975.529
304.727, 970.998
305.209, 963.284
305.691, 951.797
306.173, 938.831
306.655, 924.243
307.138, 908.669
307.620, 898.005
308.102, 900.980
308.584, 909.869
309.066, 914.454
309.548, 908.520
310.030, 900.381
310.512, 896.821
310.994, 896.944
311.477, 895.367
311.959, 886.487
312.441, 875.425
312.923, 867.240
313.405, 862.787
313.887, 862.182
314.369, 870.654
314.851, 884.948
315.333, 890.779
315.816, 872.754
316.298, 848.789
316.780, 832.344
317.262, 831.472
317.744, 832.062
318.226, 828.901
318.708, 823.016
319.190, 817.763
319.672, 812.948
320.155, 809.966
320.637, 810.204
321.119, 818.722
321.601, 822.717
322.083, 815.919
322.565, 802.302
323.047, 791.889
323.530, 787.101
324.012, 785.493
324.494, 786.227
324.976, 790.192
325.458, 794.683
325.940, 792.893
326.422, 799.524
326.904, 804.111
327.386, 806.763
327.868, 801.688
328.351, 806.591
328.833, 807.496
329.315, 808.237
329.797, 814.545
330.279, 810.593
330.761, 816.813
331.243, 818.973
331.725, 822.991
332.208, 822.985
332.690, 824.222
333.172, 829.484
333.654, 832.517
334.136, 832.048
334.618, 836.184
335.100, 832.092
335.582, 835.220
336.065, 837.851
336.547, 850.572
337.029, 854.955
337.511, 846.023
337.993, 836.107
338.475, 840.144
338.957, 862.500
339.439, 879.693
339.921, 885.091
340.404, 880.300
340.886, 877.767
341.368, 878.084
341.850, 878.851
342.332, 876.169
342.814, 869.738
343.296, 870.294
343.778, 883.102
344.260, 902.343
344.743, 909.315
345.225, 903.001
345.707, 895.879
346.189, 899.970
346.671, 912.693
347.153, 918.203
347.635, 910.079
348.117, 899.419
348.599, 909.356
349.082, 937.954
349.564, 964.501
350.046, 973.489
350.528, 970.571
351.010, 967.280
351.492, 963.948
351.974, 963.890
352.457, 972.423
352.939, 987.896
353.421, 1004.812
353.903, 1021.448
354.385, 1037.324
354.867, 1051.919
355.349, 1065.221
355.831, 1077.213
356.313, 1086.384
356.796, 1094.422
357.278, 1104.237
357.760, 1120.492
358.242, 1136.581
358.724, 1146.486
359.206, 1149.595
359.688, 1153.877
360.170, 1166.890
360.652, 1182.222
361.135, 1192.639
361.617, 1194.121
362.099, 1191.560
362.581, 1181.626
363.063, 1165.471
363.545, 1160.915
364.027, 1185.691
364.509, 1217.228
364.991, 1238.966
365.474, 1238.662
365.956, 1238.343
366.438, 1246.488
366.920, 1259.804
367.402, 1260.480
367.884, 1229.184
368.366, 1198.046
368.848, 1182.793
369.331, 1198.230
369.813, 1208.579
370.295, 1211.116
370.777, 1208.947
371.259, 1210.364
371.741, 1221.310
372.223, 1227.736
372.705, 1222.083
373.188, 1196.982
373.670, 1185.526
374.152, 1193.360
374.634, 1209.814
375.116, 1217.573
375.598, 1213.359
376.080, 1210.573
376.562, 1215.257
377.044, 1227.309
377.526, 1229.475
378.009, 1218.741
378.491, 1206.184
378.973, 1205.477
379.455, 1217.129
379.937, 1226.585
380.419, 1228.926
380.901, 1227.081
381.384, 1231.128
381.866, 1241.402
382.348, 1253.179
382.830, 1262.561
383.312, 1270.203
383.794, 1278.162
384.276, 1286.467
384.758, 1295.804
385.240, 1306.873
385.723, 1319.671
386.205, 1334.294
386.687, 1351.852
387.169, 1370.942
387.651, 1389.760
388.133, 1408.502
388.615, 1424.849
389.097, 1432.181
389.579, 1435.278
390.062, 1444.537
390.544, 1472.838
391.026, 1503.860
391.508, 1524.643
391.990, 1533.739
392.472, 1541.301
392.954, 1548.449
393.436, 1558.311
393.918, 1574.295
394.401, 1607.179
394.883, 1637.158
395.365, 1654.772
395.847, 1660.848
396.329, 1668.964
396.811, 1689.070
397.293, 1708.091
397.775, 1717.366
398.258, 1697.210
398.740, 1689.513
399.222, 1707.110
399.704, 1740.965
400.186, 1760.700
400.668, 1753.577
401.150, 1745.876
401.632, 1748.913
402.114, 1769.274
402.597, 1782.239
403.079, 1784.900
403.561, 1782.257
404.043, 1782.369
404.525, 1786.034
405.007, 1790.648
405.489, 1797.442
405.971, 1806.055
406.453, 1804.643
406.936, 1791.930
407.418, 1772.638
407.900, 1748.721
408.382, 1720.284
408.864, 1697.364
409.346, 1682.963
409.828, 1675.202
410.310, 1672.021
410.793, 1673.425
411.275, 1669.709
411.757, 1648.994
412.239, 1617.416
412.721, 1590.597
413.203, 1570.007
413.685, 1557.129
414.167, 1558.659
414.650, 1570.154
415.132, 1577.124
415.614, 1568.129
416.096, 1552.670
416.578, 1540.581
417.060, 1532.871
417.542, 1525.362
418.024, 1510.985
418.506, 1496.191
418.988, 1489.250
419.471, 1504.676
419.953, 1518.369
420.435, 1516.686
420.917, 1501.016
421.399, 1487.820
421.881, 1483.193
422.363, 1482.321
422.845, 1482.186
423.328, 1489.818
423.810, 1488.814
424.292, 1473.533
424.774, 1447.903
425.256, 1423.676
425.738, 1398.725
426.220, 1377.702
426.702, 1363.485
427.185, 1359.453
427.667, 1349.777
428.149, 1332.719
428.631, 1311.620
429.113, 1289.255
429.595, 1263.913
430.077, 1243.922
430.559, 1233.041
431.041, 1229.794
431.524, 1222.090
432.006, 1208.554
432.488, 1196.120
432.970, 1193.115
433.452, 1198.539
433.934, 1198.167
434.416, 1188.601
434.898, 1174.234
435.380, 1159.192
435.863, 1144.488
436.345, 1137.959
436.827, 1150.301
437.309, 1172.304
437.791, 1187.485
438.273, 1193.985
438.755, 1198.966
439.237, 1211.642
439.720, 1226.832
440.202, 1235.488
440.684, 1223.657
441.166, 1211.999
441.648, 1214.828
442.130, 1231.305
442.612, 1252.701
443.094, 1283.529
443.576, 1312.703
444.059, 1331.501
444.541, 1328.358
445.023, 1329.294
445.505, 1343.617
445.987, 1366.308
446.469, 1384.749
446.951, 1394.013
447.433, 1402.353
447.915, 1412.009
448.398, 1422.972
448.880, 1435.499
449.362, 1449.075
449.844, 1464.656
450.326, 1483.616
450.808, 1507.988
451.290, 1530.909
451.772, 1551.658
452.254, 1569.813
452.737, 1581.652
453.219, 1585.820
453.701, 1588.589
454.183, 1593.569
454.665, 1600.725
455.147, 1610.841
455.629, 1624.522
456.112, 1639.606
456.594, 1652.805
457.076, 1664.439
457.558, 1675.207
458.040, 1683.989
458.522, 1692.860
459.004, 1706.659
459.486, 1725.344
459.968, 1743.139
460.451, 1752.516
460.933, 1759.000
461.415, 1770.452
461.897, 1796.010
462.379, 1818.187
462.861, 1823.096
463.343, 1815.611
463.825, 1810.644
464.307, 1813.978
464.790, 1821.367
465.272, 1832.860
465.754, 1853.375
466.236, 1862.552
466.718, 1848.934
467.200, 1825.402
467.682, 1808.196
468.164, 1804.574
468.647, 1798.244
469.129, 1785.982
469.611, 1768.278
470.093, 1749.810
470.575, 1728.960
471.057, 1710.073
471.539, 1698.176
472.021, 1695.853
472.503, 1685.141
472.986, 1663.369
473.468, 1635.006
473.950, 1605.477
474.432, 1574.805
474.914, 1548.623
475.396, 1534.343
475.878, 1526.028
476.360, 1503.775
476.842, 1467.074
477.325, 1428.861
477.807, 1397.504
478.289, 1372.790
478.771, 1354.984
479.253, 1346.922
479.735, 1341.272
480.217, 1334.309
480.699, 1324.974
481.181, 1310.454
481.664, 1281.712
482.146, 1252.671
482.628, 1233.246
483.110, 1225.785
483.592, 1219.026
484.074, 1212.455
484.556, 1203.636
485.039, 1190.280
485.521, 1164.980
486.003, 1143.097
486.485, 1126.492
486.967, 1114.842
487.449, 1106.965
487.931, 1105.700
488.413, 1104.195
488.895, 1098.931
489.378, 1088.914
489.860, 1079.348
490.342, 1069.759
490.824, 1061.649
491.306, 1058.942
491.788, 1062.042
492.270, 1061.597
492.752, 1054.385
493.234, 1041.794
493.717, 1025.101
494.199, 1004.482
494.681, 987.416
495.163, 982.528
495.645, 984.720
496.127, 984.713
496.609, 980.801
497.091, 975.310
497.573, 968.632
498.056, 961.933
498.538, 957.522
499.020, 957.963
499.502, 959.554
499.984, 960.333
500.466, 960.272
500.948, 960.632
501.430, 964.489
501.913, 967.148
502.395, 965.402
502.877, 952.194
503.359, 944.141
503.841, 945.254
504.323, 950.756
504.805, 950.743
505.287, 940.348
505.770, 933.749
506.252, 936.463
506.734, 948.265
507.216, 956.560
507.698, 961.163
508.180, 962.818
508.662, 959.313
509.144, 951.426
509.626, 952.779
510.108, 968.903
510.591, 987.666
511.073, 987.461
511.555, 971.879
512.037, 957.128
512.519, 950.895
513.001, 950.599
513.483, 955.790
513.966, 966.185
514.448, 973.572
514.930, 969.848
515.412, 961.810
515.894, 955.843
516.376, 951.823
516.858, 952.729
517.340, 963.598
517.822, 980.009
518.305, 991.962
518.787, 990.455
519.269, 991.532
519.751, 1001.651
520.233, 1022.638
520.715, 1036.820
521.197, 1040.701
521.679, 1042.470
522.161, 1049.998
522.644, 1066.360
523.126, 1074.254
523.608, 1068.998
524.090, 1057.996
524.572, 1057.426
525.054, 1067.205
525.536, 1078.777
526.018, 1089.281
526.500, 1098.480
526.983, 1104.958
527.465, 1108.741
527.947, 1112.326
528.429, 1115.887
528.911, 1121.101
529.393, 1130.005
529.875, 1142.279
530.357, 1160.112
530.839, 1193.712
531.322, 1233.368
531.804, 1259.065
532.286, 1246.747
532.768, 1234.992
533.250, 1240.110
533.732, 1264.061
534.214, 1287.786
534.696, 1311.551
535.179, 1333.078
535.661, 1350.011
536.143, 1357.531
536.625, 1371.195
537.107, 1392.889
537.589, 1420.108
538.071, 1450.068
538.553, 1484.414
539.036, 1512.719
539.518, 1528.309
540.000, 1535.509
540.482, 1551.204
540.964, 1575.373
541.446, 1601.927
541.928, 1627.063
542.410, 1650.653
542.892, 1672.162
543.375, 1691.476
543.857, 1709.708
544.339, 1729.107
544.821, 1748.058
545.303, 1764.120
545.785, 1775.187
546.267, 1783.960
546.749, 1795.011
547.231, 1806.850
547.714, 1807.012
548.196, 1780.189
548.678, 1751.094
549.160, 1733.053
549.642, 1733.854
550.124, 1725.917
550.606, 1704.779
551.088, 1678.849
551.570, 1659.912
552.053, 1651.527
552.535, 1635.152
553.017, 1603.725
553.499, 1563.744
553.981, 1536.721
554.463, 1522.820
554.945, 1507.579
555.427, 1478.920
555.909, 1443.116
556.392, 1413.580
556.874, 1391.316
557.356, 1370.604
557.838, 1345.492
558.320, 1319.282
558.802, 1296.713
559.284, 1282.441
559.766, 1267.844
560.249, 1246.096
560.731, 1220.751
561.213, 1200.425
561.695, 1189.333
562.177, 1181.985
562.659, 1179.707
563.141, 1183.971
563.623, 1175.700
564.106, 1144.147
564.588, 1112.663
565.070, 1099.454
565.552, 1108.707
566.034, 1117.918
566.516, 1126.960
566.998, 1133.011
567.480, 1129.308
567.963, 1116.479
568.445, 1103.917
568.927, 1095.435
569.409, 1089.327
569.891, 1083.814
570.373, 1078.509
570.855, 1070.800
571.337, 1055.763
571.819, 1039.215
572.302, 1026.264
572.784, 1017.566
573.266, 1013.364
573.748, 1019.714
574.230, 1028.300
574.712, 1029.896
575.194, 1014.981
575.676, 1001.898
576.158, 994.305
576.641, 990.575
577.123, 984.942
577.605, 973.260
578.087, 967.513
578.569, 974.816
579.051, 995.274
579.533, 1006.922
580.015, 1009.519
580.497, 1005.257
580.980, 990.185
581.462, 968.263
581.944, 961.127
582.426, 976.302
582.908, 994.011
583.390, 987.213
583.872, 965.127
584.354, 948.572
584.836, 950.518
585.319, 957.700
585.801, 962.977
586.283, 966.331
586.765, 968.426
587.247, 969.095
587.729, 968.850
588.211, 967.761
588.693, 965.360
589.176, 963.199
589.658, 957.669
590.140, 955.594
590.622, 966.266
591.104, 995.596
591.586, 1013.740
592.068, 1013.636
592.550, 1003.879
593.032, 1004.069
593.515, 1013.829
593.997, 1021.697
594.479, 1020.406
594.961, 1014.304
595.443, 1010.525
595.925, 1009.123
596.407, 1010.729
596.890, 1016.871
597.372, 1025.661
597.854, 1036.862
598.336, 1053.083
598.818, 1062.487
599.300, 1052.428
599.782, 1036.308
600.264, 1029.804
600.746, 1048.245
601.229, 1060.550
601.711, 1062.105
602.193, 1055.188
602.675, 1046.951
603.157, 1036.257
603.639, 1027.016
604.121, 1020.706
604.603, 1017.247
605.085, 1016.704
605.568, 1019.248
606.050, 1008.377
606.532, 1021.454
607.014, 1028.718
607.496, 1030.481
607.978, 1010.267
608.460, 1018.432
608.942, 1015.223
609.424, 1011.549
609.907, 1023.708
610.389, 1006.690
610.871, 1018.598
611.353, 1018.959
611.835, 1024.605
612.317, 1018.808
612.799, 1016.545
613.281, 1025.729
613.763, 1028.575
614.246, 1021.460
614.728, 1027.442
615.210, 1010.025
615.692, 1013.141
616.174, 1025.116
616.656, 1018.576
617.138, 1024.767
617.620, 1026.110
618.103, 1005.419
618.585, 1013.841
619.067, 1027.481
619.549, 1042.182
620.031, 1057.009
620.513, 1069.961
620.995, 1078.898
621.477, 1084.413
621.959, 1088.267
622.442, 1092.469
622.924, 1094.020
623.406, 1090.591
623.888, 1081.439
624.370, 1073.883
624.852, 1071.328
625.334, 1067.106
625.816, 1056.892
626.299, 1039.702
626.781, 1019.896
627.263, 995.607
627.745, 972.986
628.227, 962.469
628.709, 962.585
629.191, 960.031
629.673, 949.362
630.156, 937.401
630.638, 933.456
631.120, 935.791
631.602, 939.139
632.084, 944.049
632.566, 946.462
633.048, 941.213
633.530, 928.691
634.012, 920.734
634.495, 924.961
634.977, 930.994
635.459, 934.135
635.941, 936.150
636.423, 928.092
636.905, 902.244
637.387, 875.792
637.869, 870.537
638.351, 888.374
638.834, 901.469
639.316, 905.246
639.798, 902.553
640.280, 894.717
640.762, 883.527
641.244, 876.535
641.726, 881.379
642.208, 888.734
642.690, 887.727
643.173, 880.451
643.655, 876.496
644.137, 885.466
644.619, 894.903
645.101, 897.357
645.583, 890.767
646.065, 884.862
646.547, 878.098
647.029, 874.059
647.512, 876.504
647.994, 888.799
648.476, 894.322
648.958, 890.456
649.440, 882.756
649.922, 879.188
650.404, 879.289
650.886, 879.316
651.369, 877.904
651.851, 876.351
652.333, 877.109
652.815, 879.326
653.297, 880.289
653.779, 878.088
654.261, 874.769
654.743, 871.261
655.226, 867.674
655.708, 864.420
656.190, 858.043
656.672, 855.354
657.154, 861.995
657.636, 883.588
658.118, 887.885
658.600, 867.391
659.083, 842.914
659.565, 835.200
660.047, 843.929
660.529, 854.868
661.011, 867.222
661.493, 877.792
661.975, 883.186
662.457, 883.613
662.939, 879.229
663.422, 864.031
663.904, 850.735
664.386, 851.747
664.868, 862.250
665.350, 868.031
665.832, 860.876
666.314, 851.892
666.796, 843.811
667.278, 836.678
667.761, 834.085
668.243, 837.569
668.725, 842.900
669.207, 848.318
669.689, 853.801
670.171, 857.673
670.653, 859.929
671.135, 860.390
671.617, 856.338
672.100, 850.521
672.582, 850.646
673.064, 860.171
673.546, 869.669
674.028, 872.239
674.510, 869.794
674.992, 865.051
675.474, 852.309
675.956, 844.752
676.439, 850.081
676.921, 863.431
677.403, 870.215
677.885, 868.434
678.367, 863.472
678.849, 854.456
679.331, 843.162
679.813, 844.759
680.296, 860.810
680.778, 872.728
681.260, 861.773
681.742, 839.529
682.224, 833.878
682.706, 846.185
683.188, 859.846
683.670, 865.328
684.153, 864.592
684.635, 858.059
685.117, 841.516
685.599, 830.770
686.081, 834.731
686.563, 844.139
687.045, 848.601
687.527, 844.286
688.010, 843.308
688.492, 848.055
688.974, 855.397
689.456, 858.897
689.938, 858.546
690.420, 858.080
690.902, 859.210
691.384, 860.418
691.866, 857.044
692.349, 850.853
692.831, 848.625
693.313, 860.371
693.795, 872.433
694.277, 873.644
694.759, 864.208
695.241, 857.286
695.723, 859.195
696.205, 861.879
696.688, 861.445
697.170, 857.179
697.652, 854.205
698.134, 853.775
698.616, 851.988
699.098, 842.158
699.580, 825.802
700.062, 820.375
700.544, 828.792
701.027, 842.183
701.509, 855.802
701.991, 866.601
702.473, 868.370
702.955, 853.109
703.437, 838.644
703.919, 836.836
704.401, 841.219
704.883, 840.322
705.366, 819.736
705.848, 809.110
706.330, 816.921
706.812, 837.404
707.294, 850.878
707.776, 836.372
708.258, 855.920
708.740, 867.202
709.222, 870.662
709.705, 842.871
710.187, 855.433
710.669, 851.824
711.151, 847.552
711.633, 865.794
712.115, 842.548
712.597, 860.434
713.080, 861.901
713.562, 870.881
714.044, 863.591
714.526, 861.326
715.008, 875.338
715.490, 862.233
715.972, 854.890
716.454, 841.089
716.936, 824.476
717.419, 804.972
717.901, 799.428
718.383, 812.648
718.865, 830.559
719.347, 832.154
719.829, 824.611
720.311, 824.617
720.793, 845.714
721.276, 862.763
721.758, 854.036
722.240, 831.198
722.722, 816.855
723.204, 823.299
723.686, 830.480
724.168, 834.351
724.650, 836.223
725.132, 841.258
725.615, 850.775
726.097, 858.558
726.579, 862.292
727.061, 862.450
727.543, 859.944
728.025, 854.866
728.507, 848.099
728.989, 834.342
729.471, 822.818
729.954, 826.772
730.436, 846.212
730.918, 860.570
731.400, 858.817
731.882, 852.105
732.364, 846.545
732.846, 842.445
733.328, 838.662
733.810, 833.478
734.293, 831.474
734.775, 840.750
735.257, 860.398
735.739, 863.578
736.221, 845.906
736.703, 824.261
737.185, 815.518
737.667, 815.956
738.149, 819.888
738.632, 828.377
739.114, 834.219
739.596, 829.288
740.078, 821.038
740.560, 819.437
741.042, 833.334
741.524, 844.628
742.006, 852.644
742.489, 856.770
742.971, 853.994
743.453, 843.318
743.935, 835.453
744.417, 834.723
744.899, 836.922
745.381, 831.622
745.863, 821.669
746.346, 817.228
746.828, 828.590
747.310, 842.741
747.792, 852.260
748.274, 857.268
748.756, 859.147
749.238, 854.756
749.720, 851.077
750.203, 852.271
750.685, 857.517
751.167, 851.275
751.649, 829.763
752.131, 812.329
752.613, 816.161
753.095, 833.790
753.577, 833.687
754.059, 816.358
754.542, 800.200
755.024, 798.141
755.506, 804.370
755.988, 814.799
756.470, 829.603
756.952, 843.305
757.434, 860.384
757.916, 870.819
758.398, 866.241
758.881, 837.899
759.363, 825.487
759.845, 833.953
760.327, 846.645
760.809, 843.704
761.291, 828.915
761.773, 812.358
762.255, 834.936
762.737, 848.015
763.220, 852.104
763.702, 820.280
764.184, 834.830
764.666, 830.796
765.148, 826.000
765.630, 847.077
766.112, 820.477
766.594, 841.144
767.076, 831.825
767.559, 842.619
768.041, 848.531
768.523, 849.823
769.005, 832.658
769.487, 839.326
769.969, 836.443
770.451, 833.169
770.933, 843.192
771.416, 828.711
771.898, 838.523
772.380, 838.638
772.862, 843.191
773.344, 838.133
773.826, 836.044
774.308, 843.569
774.790, 845.770
775.273, 839.607
775.755, 844.442
776.237, 829.625
776.719, 833.651
777.201, 838.445
777.683, 844.624
778.165, 845.854
778.647, 830.374
779.130, 813.848
779.612, 818.749
780.094, 839.977
780.576, 853.691
781.058, 842.280
781.540, 829.234
782.022, 824.480
782.504, 813.785
782.986, 829.503
783.468, 838.810
783.951, 842.050
784.433, 821.051
784.915, 831.351
785.397, 829.108
785.879, 826.351
786.361, 841.056
786.843, 823.583
787.325, 838.011
787.807, 839.705
788.290, 847.227
788.772, 839.522
789.254, 849.685
789.736, 859.216
790.218, 858.702
790.700, 846.170
791.182, 840.113
791.664, 842.122
792.146, 846.349
792.629, 849.640
793.111, 851.625
793.593, 848.579
794.075, 840.139
794.557, 835.033
795.039, 845.785
795.521, 860.176
796.003, 865.330
796.486, 857.770
796.968, 849.678
797.450, 841.438
797.932, 835.815
798.414, 835.178
798.896, 841.133
799.378, 846.672
799.860, 852.717
800.343, 855.315
800.825, 847.680
801.307, 833.381
801.789, 822.592
802.271, 816.425
802.753, 815.586
803.235, 827.794
803.717, 841.687
804.200, 844.520
804.682, 824.065
805.164, 815.217
805.646, 827.204
806.128, 845.405
806.610, 857.606
807.092, 863.587
807.574, 863.659
808.056, 856.735
808.539, 848.540
809.021, 845.922
809.503, 846.935
809.985, 846.969
810.467, 843.998
810.949, 843.462
811.431, 853.254
811.913, 864.687
812.395, 868.357
812.878, 857.602
813.360, 847.783
813.842, 838.614
814.324, 830.887
814.806, 825.183
815.288, 821.529
815.770, 822.856
816.252, 830.864
816.734, 838.670
817.217, 835.299
817.699, 827.451
818.181, 826.097
818.663, 836.288
819.145, 848.811
819.627, 865.530
820.109, 880.450
820.591, 886.363
821.073, 879.304
821.556, 873.714
822.038, 870.899
822.520, 869.468
823.002, 868.211
823.484, 866.752
823.966, 862.346
824.448, 852.205
824.930, 845.928
825.413, 858.225
825.895, 877.070
826.377, 886.741
826.859, 875.328
827.341, 866.045
827.823, 861.907
828.305, 860.120
828.787, 856.964
829.269, 852.074
829.752, 849.376
830.234, 849.882
830.716, 851.454
831.198, 852.942
831.680, 853.143
832.162, 848.527
832.644, 834.243
833.127, 823.875
833.609, 824.013
834.091, 832.106
834.573, 845.980
835.055, 874.291
835.537, 890.207
836.019, 889.056
836.501, 880.286
836.983, 875.134
837.466, 873.472
837.948, 874.519
838.430, 879.077
838.912, 882.535
839.394, 878.516
839.876, 871.171
840.358, 865.984
840.840, 864.303
841.322, 865.021
841.805, 869.795
842.287, 875.532
842.769, 879.195
843.251, 880.328
843.733, 882.565
844.215, 887.492
844.697, 889.220
845.179, 874.585
845.661, 852.103
846.144, 842.277
846.626, 852.971
847.108, 863.460
847.590, 857.307
848.072, 847.286
848.554, 847.253
849.036, 866.204
849.518, 878.947
850.000, 884.492
850.483, 885.533
850.965, 884.431
851.447, 881.219
851.929, 875.300
852.411, 866.197
852.893, 858.308
853.375, 857.618
853.857, 859.346
854.340, 857.683
854.822, 850.117
855.304, 844.008
855.786, 837.174
856.268, 835.521
856.750, 846.232
857.232, 873.290
857.714, 883.094
858.196, 872.487
858.679, 860.884
859.161, 870.696
859.643, 891.153
860.125, 902.555
860.607, 902.558
861.089, 898.866
861.571, 891.111
862.054, 884.277
862.536, 882.869
863.018, 888.175
863.500, 890.906
863.982, 890.526
864.464, 888.975
864.946, 887.232
865.428, 885.422
865.910, 885.374
866.393, 886.886
866.875, 884.655
867.357, 866.757
867.839, 849.817
868.321, 848.435
868.803, 864.342
869.285, 879.153
869.767, 895.684
870.249, 904.030
870.732, 896.538
871.214, 875.810
871.696, 864.955
872.178, 863.876
872.660, 865.657
873.142, 868.839
873.624, 870.632
874.106, 863.629
874.588, 850.466
875.071, 846.638
875.553, 869.413
876.035, 889.182
876.517, 894.511
876.999, 888.585
877.481, 888.334
877.963, 894.479
878.445, 901.226
878.927, 907.955
879.410, 912.167
879.892, 905.829
880.374, 892.916
880.856, 885.433
881.338, 898.173
881.820, 907.504
882.302, 898.599
882.784, 879.572
883.266, 872.023
883.749, 880.298
884.231, 887.141
884.713, 888.786
885.195, 887.304
885.677, 885.852
886.159, 884.557
886.641, 883.558
887.123, 881.126
887.606, 882.202
888.088, 894.268
888.570, 910.315
889.052, 920.052
889.534, 920.002
890.016, 917.865
890.498, 913.582
890.980, 908.170
891.463, 902.395
891.945, 896.472
892.427, 891.193
892.909, 886.025
893.391, 884.956
893.873, 895.681
894.355, 910.113
894.837, 920.219
895.320, 924.852
895.802, 922.743
896.284, 907.088
896.766, 893.763
897.248, 897.527
897.730, 918.212
898.212, 933.407
898.694, 942.847
899.176, 944.529
899.659, 930.279
900.141, 911.598
900.623, 900.817
901.105, 899.287
901.587, 900.028
902.069, 900.412
902.551, 903.832
903.033, 913.628
903.515, 928.753
903.998, 935.136
904.480, 932.373
904.962, 927.100
905.444, 921.992
905.926, 917.383
906.408, 912.409
906.890, 907.996
907.372, 907.954
907.854, 919.820
908.337, 929.443
908.819, 931.481
909.301, 928.199
909.783, 925.663
910.265, 923.779
910.747, 923.777
911.229, 926.918
911.711, 930.571
912.193, 931.107
912.676, 928.909
913.158, 924.530
913.640, 909.117
914.122, 903.680
914.604, 925.692
915.086, 955.819
915.568, 970.186
916.050, 966.476
916.533, 955.377
917.015, 935.545
917.497, 917.727
917.979, 919.238
918.461, 931.009
918.943, 933.025
919.425, 917.444
919.907, 939.872
920.390, 953.074
920.872, 957.545
921.354, 927.138
921.836, 941.769
922.318, 938.350
922.800, 934.192
923.282, 955.162
923.764, 929.827
924.247, 950.399
924.729, 952.646
925.211, 950.645
925.693, 955.556
926.175, 953.003
926.657, 950.761
927.139, 954.966
927.621, 963.962
928.103, 965.873
928.586, 959.338
929.068, 951.278
929.550, 942.570
930.032, 935.867
930.514, 939.861
930.996, 950.768
931.478, 957.662
931.960, 949.841
932.442, 943.402
932.925, 945.144
933.407, 952.427
933.889, 937.094
934.371, 959.378
934.853, 972.531
935.335, 977.043
935.817, 947.037
936.299, 961.604
936.781, 958.308
937.264, 954.280
937.746, 975.122
938.228, 950.135
938.710, 970.582
939.192, 972.893
939.674, 971.000
940.156, 937.789
940.638, 923.176
941.120, 929.880
941.603, 943.005
942.085, 953.979
942.567, 962.411
943.049, 968.273
943.531, 971.246
944.013, 968.393
944.495, 945.613
944.977, 929.349
945.460, 939.754
945.942, 968.331
946.424, 975.790
946.906, 957.322
947.388, 945.483
947.870, 953.710
948.352, 970.649
948.834, 981.180
949.317, 985.330
949.799, 983.010
950.281, 965.224
950.763, 952.604
951.245, 956.935
951.727, 966.591
952.209, 967.219
952.691, 956.485
953.173, 950.914
953.656, 952.213
954.138, 957.691
954.620, 971.206
955.102, 984.024
955.584, 977.262
956.066, 945.160
956.548, 929.790
957.030, 965.798
957.513, 952.753
957.995, 974.782
958.477, 988.296
958.959, 993.754
959.441, 967.025
959.923, 981.859
960.405, 980.037
960.887, 977.532
961.369, 998.215
961.852, 976.168
962.334, 996.484
962.816, 999.889
963.298, 1011.035
963.780, 1005.421
964.262, 1004.541
964.744, 1006.093
965.226, 1006.868
965.708, 1012.800
966.191, 1026.246
966.673, 1041.032
967.155, 1055.733
967.637, 1065.985
968.119, 1065.146
968.601, 1044.035
969.083, 1032.868
969.565, 1036.052
970.047, 1045.118
970.530, 1056.807
971.012, 1070.036
971.494, 1073.199
971.976, 1066.768
972.458, 1060.858
972.940, 1060.650
973.422, 1065.176
973.904, 1077.061
974.386, 1094.378
974.869, 1103.887
975.351, 1098.803
975.833, 1100.773
976.315, 1117.484
976.797, 1141.992
977.279, 1163.373
977.761, 1180.867
978.244, 1190.450
978.726, 1185.755
979.208, 1183.369
979.690, 1194.751
980.172, 1211.777
980.654, 1224.521
981.136, 1230.408
981.618, 1241.058
982.100, 1258.124
982.583, 1273.736
983.065, 1279.385
983.547, 1279.247
984.029, 1280.394
984.511, 1283.384
984.993, 1288.228
985.475, 1298.197
985.957, 1306.562
986.440, 1310.616
986.922, 1310.866
987.404, 1308.550
987.886, 1303.393
988.368, 1301.391
988.850, 1306.050
989.332, 1312.615
989.814, 1314.914
990.296, 1315.080
990.779, 1316.770
991.261, 1322.813
991.743, 1327.539
992.225, 1327.935
992.707, 1330.215
993.189, 1344.767
993.671, 1369.078
994.153, 1376.293
994.635, 1364.167
995.118, 1357.104
995.600, 1378.594
996.082, 1408.832
996.564, 1433.528
997.046, 1451.583
997.528, 1468.333
998.010, 1482.451
998.492, 1499.204
998.974, 1520.260
999.457, 1545.060
999.939, 1573.601
1000.421, 1605.030
1000.903, 1637.880
1001.385, 1675.989
1001.867, 1708.728
1002.349, 1724.879
1002.831, 1737.127
1003.314, 1761.993
1003.796, 1802.564
1004.278, 1839.584
1004.760, 1871.961
1005.242, 1900.099
1005.724, 1921.497
1006.206, 1940.105
1006.688, 1961.547
1007.170, 1986.009
1007.653, 2007.969
1008.135, 2017.799
1008.617, 2034.555
1009.099, 2067.312
1009.581, 2109.854
1010.063, 2140.598
1010.545, 2160.151
1011.027, 2178.173
1011.510, 2199.333
1011.992, 2218.338
1012.474, 2216.202
1012.956, 2215.103
1013.438, 2248.632
1013.920, 2358.528
1014.402, 2427.378
1014.884, 2453.634
1015.366, 2444.552
1015.849, 2385.447
1016.331, 2300.069
1016.813, 2250.510
1017.295, 2238.380
1017.777, 2239.648
1018.259, 2258.251
1018.741, 2269.880
1019.223, 2256.315
1019.706, 2227.672
1020.188, 2222.053
1020.670, 2241.524
1021.152, 2256.831
1021.634, 2257.552
1022.116, 2254.500
1022.598, 2257.994
1023.080, 2267.125
1023.562, 2281.605
1024.045, 2307.000
1024.527, 2324.445
1025.009, 2334.791
1025.491, 2333.991
1025.973, 2315.807
1026.455, 2283.042
1026.937, 2255.343
1027.419, 2231.345
1027.901, 2196.906
1028.384, 2127.371
1028.866, 2060.385
1029.348, 2023.080
1029.830, 2005.596
1030.312, 1974.587
1030.794, 1927.650
1031.276, 1876.262
1031.758, 1820.516
1032.240, 1766.934
1032.723, 1720.587
1033.205, 1683.279
1033.687, 1661.833
1034.169, 1662.029
1034.651, 1655.311
1035.133, 1616.671
1035.615, 1580.376
1036.097, 1612.224
1036.580, 1627.519
1037.062, 1627.172
1037.544, 1564.294
1038.026, 1582.163
1038.508, 1567.672
1038.990, 1551.855
1039.472, 1581.089
1039.954, 1527.306
1040.437, 1555.813
1040.919, 1551.480
1041.401, 1539.530
1041.883, 1540.986
1042.365, 1550.884
1042.847, 1554.072
1043.329, 1555.623
1043.811, 1568.265
1044.293, 1593.651
1044.776, 1609.085
1045.258, 1601.785
1045.740, 1587.310
1046.222, 1570.201
1046.704, 1551.125
1047.186, 1532.574
1047.668, 1514.925
1048.150, 1501.304
1048.632, 1495.427
1049.115, 1488.929
1049.597, 1473.231
1050.079, 1453.597
1050.561, 1437.013
1051.043, 1423.858
1051.525, 1413.162
1052.007, 1404.252
1052.489, 1399.941
1052.972, 1408.293
1053.454, 1420.395
1053.936, 1417.366
1054.418, 1400.876
1054.900, 1385.006
1055.382, 1375.387
1055.864, 1366.744
1056.346, 1356.311
1056.828, 1346.895
1057.311, 1346.124
1057.793, 1336.431
1058.275, 1345.242
1058.757, 1349.561
1059.239, 1349.630
1059.721, 1332.719
1060.203, 1337.734
1060.685, 1333.961
1061.167, 1329.829
1061.650, 1337.927
1062.132, 1331.641
1062.614, 1316.850
1063.096, 1323.124
1063.578, 1338.334
1064.060, 1342.871
1064.542, 1339.764
1065.024, 1335.724
1065.507, 1329.923
1065.989, 1327.833
1066.471, 1329.684
1066.953, 1335.342
1067.435, 1346.291
1067.917, 1361.404
1068.399, 1374.874
1068.881, 1386.124
1069.364, 1392.730
1069.846, 1382.898
1070.328, 1377.382
1070.810, 1395.006
1071.292, 1427.864
1071.774, 1446.028
1072.256, 1447.041
1072.738, 1448.939
1073.220, 1455.677
1073.703, 1465.915
1074.185, 1483.047
1074.667, 1500.426
1075.149, 1508.052
1075.631, 1500.400
1076.113, 1498.951
1076.595, 1506.440
1077.077, 1517.985
1077.559, 1531.546
1078.042, 1547.283
1078.524, 1571.172
1079.006, 1598.792
1079.488, 1613.267
1079.970, 1587.092
1080.452, 1570.379
1080.934, 1585.338
1081.416, 1616.439
1081.898, 1652.423
1082.381, 1694.156
1082.863, 1721.166
1083.345, 1731.830
1083.827, 1741.563
1084.309, 1759.171
1084.791, 1783.569
1085.273, 1817.802
1085.755, 1859.269
1086.238, 1891.716
1086.720, 1911.899
1087.202, 1932.445
1087.684, 1956.210
1088.166, 1981.236
1088.648, 2005.524
1089.130, 2028.093
1089.612, 2045.958
1090.094, 2056.972
1090.577, 2072.078
1091.059, 2093.343
1091.541, 2119.970
1092.023, 2153.836
1092.505, 2192.141
1092.987, 2221.223
1093.469, 2243.019
1093.951, 2265.666
1094.433, 2296.750
1094.916, 2323.546
1095.398, 2335.813
1095.880, 2343.155
1096.362, 2356.650
1096.844, 2377.135
1097.326, 2395.412
1097.808, 2411.299
1098.290, 2423.815
1098.773, 2431.141
1099.255, 2435.666
1099.737, 2437.176
1100.219, 2437.630
1100.701, 2444.670
1101.183, 2460.783
1101.665, 2476.657
1102.147, 2490.599
1102.630, 2504.637
1103.112, 2527.694
1103.594, 2550.128
1104.076, 2549.876
1104.558, 2521.923
1105.040, 2509.863
1105.522, 2539.045
1106.004, 2565.350
1106.486, 2573.170
1106.969, 2568.590
1107.451, 2570.199
1107.933, 2575.021
1108.415, 2569.968
1108.897, 2542.066
1109.379, 2525.135
1109.861, 2558.601
1110.343, 2590.066
1110.825, 2574.147
1111.308, 2509.626
1111.790, 2475.916
1112.272, 2471.936
1112.754, 2466.341
1113.236, 2439.621
1113.718, 2404.781
1114.200, 2365.526
1114.682, 2326.800
1115.165, 2298.004
1115.647, 2280.700
1116.129, 2263.716
1116.611, 2243.265
1117.093, 2190.744
1117.575, 2187.291
1118.057, 2171.921
1118.539, 2145.292
1119.021, 2073.636
1119.504, 2060.050
1119.986, 2023.237
1120.468, 1985.462
1120.950, 1980.127
1121.432, 1915.019
1121.914, 1909.170
1122.396, 1879.662
1122.878, 1844.674
1123.360, 1824.279
1123.843, 1804.558
1124.325, 1781.472
1124.807, 1761.308
1125.289, 1747.449
1125.771, 1738.136
1126.253, 1730.859
1126.735, 1723.528
1127.217, 1704.236
1127.700, 1659.344
1128.182, 1623.264
1128.664, 1627.142
1129.146, 1639.035
1129.628, 1630.680
1130.110, 1601.186
1130.592, 1576.627
1131.074, 1556.932
1131.557, 1538.718
1132.039, 1518.454
1132.521, 1500.416
1133.003, 1490.921
1133.485, 1484.477
1133.967, 1469.915
1134.449, 1443.010
1134.931, 1423.712
1135.413, 1413.062
1135.896, 1410.051
1136.378, 1422.547
1136.860, 1435.868
1137.342, 1429.066
1137.824, 1406.088
1138.306, 1391.151
1138.788, 1388.289
1139.270, 1391.469
1139.752, 1402.417
1140.235, 1411.494
1140.717, 1402.144
1141.199, 1383.326
1141.681, 1370.385
1142.163, 1365.237
1142.645, 1361.791
1143.127, 1356.795
1143.609, 1356.489
1144.092, 1365.533
1144.574, 1377.154
1145.056, 1374.580
1145.538, 1362.317
1146.020, 1352.445
1146.502, 1347.433
1146.984, 1346.885
1147.466, 1355.311
1147.948, 1363.345
1148.431, 1365.459
1148.913, 1363.126
1149.395, 1364.646
1149.877, 1369.293
1150.359, 1373.236
1150.841, 1375.811
1151.323, 1375.490
1151.805, 1365.722
1152.287, 1356.926
1152.770, 1359.862
1153.252, 1375.179
1153.734, 1386.643
1154.216, 1394.324
1154.698, 1401.648
1155.180, 1415.700
1155.662, 1425.167
1156.144, 1418.870
1156.626, 1403.972
1157.109, 1393.940
1157.591, 1388.995
1158.073, 1388.081
1158.555, 1391.221
1159.037, 1397.061
1159.519, 1408.938
1160.001, 1419.234
1160.483, 1420.598
1160.966, 1413.948
1161.448, 1403.937
1161.930, 1387.105
1162.412, 1383.872
1162.894, 1399.987
1163.376, 1418.758
1163.858, 1421.262
1164.340, 1416.154
1164.823, 1412.851
1165.305, 1412.362
1165.787, 1413.547
1166.269, 1419.362
1166.751, 1417.171
1167.233, 1400.714
1167.715, 1381.713
1168.197, 1374.698
1168.679, 1378.450
1169.161, 1396.308
1169.644, 1434.522
1170.126, 1445.700
1170.608, 1413.019
1171.090, 1383.599
1171.572, 1379.196
1172.054, 1387.499
1172.536, 1383.157
1173.018, 1371.735
1173.501, 1364.584
1173.983, 1364.998
1174.465, 1370.079
1174.947, 1382.141
1175.429, 1393.365
1175.911, 1400.321
1176.393, 1402.321
1176.875, 1394.448
1177.358, 1379.671
1177.840, 1367.094
1178.322, 1358.651
1178.804, 1355.571
1179.286, 1360.879
1179.768, 1367.285
1180.250, 1368.809
1180.732, 1366.382
1181.214, 1362.129
1181.697, 1357.251
1182.179, 1357.452
1182.661, 1371.062
1183.143, 1383.290
1183.625, 1393.140
1184.107, 1396.475
1184.589, 1382.901
1185.071, 1357.136
1185.553, 1350.685
1186.036, 1363.146
1186.518, 1372.620
1187.000, 1358.397
1187.482, 1348.841
1187.964, 1355.587
1188.446, 1372.219
1188.928, 1393.826
1189.410, 1418.324
1189.893, 1428.947
1190.375, 1423.908
1190.857, 1411.659
1191.339, 1385.516
1191.821, 1366.881
1192.303, 1369.374
1192.785, 1384.546
1193.267, 1396.331
1193.750, 1404.256
1194.232, 1399.456
1194.714, 1378.326
1195.196, 1367.290
1195.678, 1400.068
1196.160, 1432.868
1196.642, 1435.981
1197.124, 1417.919
1197.606, 1409.820
1198.089, 1410.895
1198.571, 1410.744
1199.053, 1406.059
1199.535, 1402.848
1200.017, 1405.434
1200.499, 1411.418
1200.981, 1421.895
1201.463, 1434.732
1201.945, 1430.864
1202.428, 1411.985
1202.910, 1401.221
1203.392, 1409.798
1203.874, 1419.321
1204.356, 1416.328
1204.838, 1408.696
1205.320, 1401.415
1205.802, 1395.023
1206.285, 1402.124
1206.767, 1421.756
1207.249, 1436.273
1207.731, 1437.921
1208.213, 1432.740
1208.695, 1416.349
1209.177, 1401.642
1209.659, 1403.426
1210.141, 1422.751
1210.624, 1428.385
1211.106, 1420.982
1211.588, 1412.667
1212.070, 1410.599
1212.552, 1408.779
1213.034, 1404.969
1213.516, 1398.058
1213.998, 1384.457
1214.480, 1362.142
1214.963, 1362.896
1215.445, 1385.662
1215.927, 1400.823
1216.409, 1380.743
1216.891, 1357.971
1217.373, 1355.248
1217.855, 1359.920
1218.337, 1353.740
1218.820, 1335.720
1219.302, 1326.207
1219.784, 1325.455
1220.266, 1322.558
1220.748, 1305.385
1221.230, 1289.242
1221.712, 1283.515
1222.194, 1284.503
1222.677, 1287.176
1223.159, 1291.534
1223.641, 1298.153
1224.123, 1306.760
1224.605, 1309.209
1225.087, 1294.690
1225.569, 1277.999
1226.051, 1266.542
1226.533, 1259.060
1227.016, 1254.904
1227.498, 1253.839
1227.980, 1247.339
1228.462, 1234.846
1228.944, 1227.374
1229.426, 1244.023
1229.908, 1254.606
1230.390, 1234.700
1230.872, 1203.297
1231.355, 1196.672
1231.837, 1211.815
1232.319, 1220.777
1232.801, 1220.353
1233.283, 1212.011
1233.765, 1183.527
1234.247, 1162.494
1234.729, 1165.368
1235.212, 1181.121
1235.694, 1188.995
1236.176, 1190.213
1236.658, 1193.032
1237.140, 1198.774
1237.622, 1200.006
1238.104, 1187.115
1238.586, 1174.849
1239.068, 1168.255
1239.551, 1166.855
1240.033, 1173.406
1240.515, 1184.592
1240.997, 1186.635
1241.479, 1176.809
1241.961, 1165.330
1242.443, 1155.091
1242.925, 1146.117
1243.407, 1136.523
1243.890, 1130.301
1244.372, 1141.766
1244.854, 1163.587
1245.336, 1172.063
1245.818, 1161.836
1246.300, 1153.896
1246.782, 1135.722
1247.264, 1119.713
1247.746, 1137.709
1248.229, 1147.449
1248.711, 1149.379
1249.193, 1120.105
1249.675, 1131.125
1250.157, 1125.997
1250.639, 1120.207
1251.121, 1136.899
1251.603, 1112.163
1252.086, 1128.497
1252.568, 1128.438
1253.050, 1124.578
1253.532, 1114.634
1254.014, 1122.027
1254.496, 1110.905
1254.978, 1124.412
1255.460, 1131.941
1255.943, 1133.812
1256.425, 1113.082
1256.907, 1121.537
1257.389, 1118.296
1257.871, 1114.576
1258.353, 1127.138
1258.835, 1109.696
1259.317, 1122.000
1259.799, 1122.430
1260.281, 1128.295
1260.764, 1122.391
1261.246, 1120.122
1261.728, 1129.625
1262.210, 1132.610
1262.692, 1125.352
1263.174, 1131.562
1263.656, 1113.708
1264.138, 1116.971
1264.621, 1129.344
1265.103, 1122.677
1265.585, 1129.103
1266.067, 1118.336
1266.549, 1131.228
1267.031, 1130.276
1267.513, 1116.235
1267.995, 1118.365
1268.478, 1136.061
1268.960, 1146.578
1269.442, 1139.536
1269.924, 1127.441
1270.406, 1111.739
1270.888, 1101.855
1271.370, 1108.410
1271.852, 1127.570
1272.334, 1123.681
1272.817, 1101.353
1273.299, 1091.651
1273.781, 1111.340
1274.263, 1129.172
1274.745, 1124.445
1275.227, 1118.157
1275.709, 1124.238
1276.191, 1137.628
1276.673, 1137.473
1277.156, 1126.861
1277.638, 1114.990
1278.120, 1102.559
1278.602, 1096.606
1279.084, 1101.645
1279.566, 1108.217
1280.048, 1105.457
1280.530, 1095.560
1281.013, 1107.602
1281.495, 1114.319
1281.977, 1115.997
1282.459, 1097.541
1282.941, 1105.083
1283.423, 1102.207
1283.905, 1098.903
1284.387, 1110.104
1284.870, 1094.577
1285.352, 1105.548
1285.834, 1104.004
1286.316, 1100.476
1286.798, 1086.736
1287.280, 1090.632
1287.762, 1115.816
1288.244, 1136.269
1288.726, 1139.823
1289.208, 1135.186
1289.691, 1126.207
1290.173, 1117.554
1290.655, 1116.270
1291.137, 1122.292
1291.619, 1122.261
1292.101, 1116.115
1292.583, 1114.355
1293.065, 1123.684
1293.548, 1131.217
1294.030, 1124.460
1294.512, 1115.090
1294.994, 1113.285
1295.476, 1117.011
1295.958, 1113.432
1296.440, 1103.986
1296.922, 1096.591
1297.405, 1091.633
1297.887, 1089.633
1298.369, 1096.334
1298.851, 1106.559
1299.333, 1120.803
1299.815, 1134.513
1300.297, 1137.794
1300.779, 1130.645
##END=



