##NAMES=Paramontroseite
##RRUFFID=R050391
##IDEAL CHEMISTRY=V^4+^O_2_
##LOCALITY=J.J. mine, Buell Canyon District, Montrose County, Colorado, USA
##OWNER=RRUFF
##SOURCE=University of Arizona Mineral Museum
##DESCRIPTION=Black massive, radioactive
##STATUS=The identification of this mineral has been confirmed by X-ray diffraction and chemical analysis
##URL=rruff.info/R050391
##MEASURED CHEMISTRY=gray phase: (V^4+^_0.82_Fe^3+^_0.09_U^6+^_0.04_V^5+^_0.03_Al_0.02_)_Σ=1_O_2_; lightest phase is uranophane
133.7520, 3389.002
134.2341, 3559.726
134.7162, 3730.193
135.1983, 3901.108
135.6804, 4080.134
136.1626, 4267.919
136.6447, 4460.047
137.1268, 4647.042
137.6089, 4825.918
138.0910, 5005.303
138.5731, 5192.319
139.0553, 5398.236
139.5374, 5569.266
140.0195, 5698.854
140.5016, 5791.401
140.9837, 5859.394
141.4658, 5905.284
141.9480, 5923.818
142.4301, 5908.178
142.9122, 5844.889
143.3943, 5776.317
143.8764, 5707.534
144.3585, 5638.962
144.8407, 5559.717
145.3228, 5462.202
145.8049, 5360.300
146.2870, 5267.959
146.7691, 5194.404
147.2512, 5119.786
147.7334, 5039.742
148.2155, 4950.524
148.6976, 4869.296
149.1797, 4792.563
149.6618, 4724.714
150.1439, 4672.072
150.6261, 4649.692
151.1082, 4629.614
151.5903, 4604.282
152.0724, 4568.443
152.5545, 4538.839
153.0366, 4523.128
153.5188, 4514.375
154.0009, 4499.010
154.4830, 4473.333
154.9651, 4441.817
155.4472, 4405.747
155.9293, 4361.323
156.4115, 4318.450
156.8936, 4277.973
157.3757, 4240.183
157.8578, 4205.401
158.3399, 4176.448
158.8221, 4149.035
159.3042, 4120.091
159.7863, 4090.182
160.2684, 4057.403
160.7505, 4019.899
161.2326, 3977.957
161.7148, 3936.449
162.1969, 3891.974
162.6790, 3850.792
163.1611, 3819.435
163.6432, 3813.038
164.1253, 3806.287
164.6075, 3781.635
165.0896, 3738.311
165.5717, 3700.196
166.0538, 3688.107
166.5359, 3688.321
167.0180, 3681.171
167.5002, 3647.384
167.9823, 3610.051
168.4644, 3588.172
168.9465, 3584.823
169.4286, 3585.177
169.9107, 3580.431
170.3929, 3571.513
170.8750, 3560.241
171.3571, 3543.612
171.8392, 3526.918
172.3213, 3517.424
172.8034, 3518.306
173.2856, 3519.221
173.7677, 3508.798
174.2498, 3489.730
174.7319, 3471.487
175.2140, 3459.646
175.6961, 3452.240
176.1783, 3446.404
176.6604, 3441.650
177.1425, 3438.391
177.6246, 3437.943
178.1067, 3439.949
178.5888, 3442.057
179.0710, 3444.593
179.5531, 3445.975
180.0352, 3441.909
180.5173, 3428.929
180.9994, 3412.573
181.4815, 3400.329
181.9637, 3392.156
182.4458, 3390.018
182.9279, 3400.922
183.4100, 3420.698
183.8921, 3433.442
184.3742, 3431.342
184.8564, 3420.753
185.3385, 3397.136
185.8206, 3420.188
186.3027, 3431.989
186.7848, 3433.144
187.2669, 3391.766
187.7491, 3405.310
188.2312, 3396.843
188.7133, 3387.475
189.1954, 3408.749
189.6775, 3373.557
190.1596, 3394.345
190.6418, 3392.787
191.1239, 3401.456
191.6060, 3387.979
192.0881, 3381.343
192.5702, 3396.859
193.0524, 3400.109
193.5345, 3384.083
194.0166, 3393.402
194.4987, 3357.436
194.9808, 3361.209
195.4629, 3382.127
195.9451, 3359.318
196.4272, 3349.248
196.9093, 3336.023
197.3914, 3318.508
197.8735, 3299.788
198.3556, 3285.657
198.8378, 3276.493
199.3199, 3269.722
199.8020, 3264.426
200.2841, 3260.713
200.7662, 3257.663
201.2483, 3255.452
201.7305, 3253.667
202.2126, 3251.855
202.6947, 3250.579
203.1768, 3247.171
203.6589, 3237.641
204.1410, 3220.123
204.6232, 3211.332
205.1053, 3215.978
205.5874, 3228.890
206.0695, 3233.236
206.5516, 3228.275
207.0337, 3216.689
207.5159, 3196.008
207.9980, 3161.768
208.4801, 3142.736
208.9622, 3148.000
209.4443, 3171.070
209.9264, 3177.710
210.4086, 3160.293
210.8907, 3141.737
211.3728, 3141.554
211.8549, 3165.964
212.3370, 3188.108
212.8191, 3206.778
213.3013, 3220.774
213.7834, 3218.831
214.2655, 3193.803
214.7476, 3164.242
215.2297, 3145.416
215.7118, 3137.781
216.1940, 3139.877
216.6761, 3155.006
217.1582, 3182.298
217.6403, 3200.593
218.1224, 3207.616
218.6045, 3208.439
219.0867, 3206.644
219.5688, 3199.486
220.0509, 3196.461
220.5330, 3201.045
221.0151, 3213.538
221.4972, 3221.715
221.9794, 3223.830
222.4615, 3223.664
222.9436, 3225.462
223.4257, 3230.695
223.9078, 3234.975
224.3899, 3237.838
224.8721, 3239.527
225.3542, 3235.950
225.8363, 3220.955
226.3184, 3206.477
226.8005, 3208.295
227.2827, 3236.688
227.7648, 3261.821
228.2469, 3276.173
228.7290, 3278.687
229.2111, 3277.629
229.6932, 3268.870
230.1754, 3259.892
230.6575, 3261.620
231.1396, 3281.536
231.6217, 3298.837
232.1038, 3306.675
232.5859, 3302.470
233.0681, 3302.940
233.5502, 3310.401
234.0323, 3320.847
234.5144, 3328.815
234.9965, 3334.259
235.4786, 3337.124
235.9608, 3336.767
236.4429, 3332.216
236.9250, 3328.801
237.4071, 3325.545
237.8892, 3324.077
238.3713, 3327.767
238.8535, 3341.073
239.3356, 3351.957
239.8177, 3354.789
240.2998, 3344.970
240.7819, 3345.679
241.2640, 3363.031
241.7462, 3387.363
242.2283, 3401.504
242.7104, 3399.136
243.1925, 3396.929
243.6746, 3400.075
244.1567, 3409.262
244.6389, 3422.394
245.1210, 3443.302
245.6031, 3465.853
246.0852, 3477.925
246.5673, 3472.466
247.0494, 3468.536
247.5316, 3473.051
248.0137, 3488.222
248.4958, 3504.635
248.9779, 3522.733
249.4600, 3541.750
249.9421, 3560.565
250.4243, 3582.012
250.9064, 3598.384
251.3885, 3605.119
251.8706, 3597.195
252.3527, 3596.588
252.8348, 3604.698
253.3170, 3619.193
253.7991, 3636.022
254.2812, 3655.449
254.7633, 3676.427
255.2454, 3700.440
255.7275, 3731.021
256.2097, 3749.424
256.6918, 3749.092
257.1739, 3740.883
257.6560, 3745.581
258.1381, 3768.066
258.6202, 3793.481
259.1024, 3815.976
259.5845, 3833.407
260.0666, 3856.383
260.5487, 3887.431
261.0308, 3922.063
261.5129, 3954.182
261.9951, 3984.595
262.4772, 4009.805
262.9593, 4025.286
263.4414, 4026.629
263.9235, 4041.773
264.4056, 4077.894
264.8878, 4121.322
265.3699, 4145.984
265.8520, 4143.915
266.3341, 4146.479
266.8162, 4168.817
267.2983, 4215.227
267.7805, 4251.965
268.2626, 4275.906
268.7447, 4293.275
269.2268, 4314.947
269.7089, 4342.243
270.1910, 4368.974
270.6732, 4392.082
271.1553, 4410.697
271.6374, 4433.609
272.1195, 4461.772
272.6016, 4492.891
273.0837, 4522.491
273.5659, 4550.526
274.0480, 4577.932
274.5301, 4604.944
275.0122, 4631.385
275.4943, 4660.122
275.9764, 4692.694
276.4586, 4724.667
276.9407, 4747.278
277.4228, 4758.755
277.9049, 4773.863
278.3870, 4801.424
278.8691, 4840.501
279.3513, 4869.230
279.8334, 4886.699
280.3155, 4896.155
280.7976, 4904.378
281.2798, 4911.836
281.7619, 4905.507
282.2440, 4873.988
282.7261, 4821.593
283.2082, 4782.755
283.6903, 4759.879
284.1725, 4741.718
284.6546, 4712.324
285.1367, 4672.523
285.6188, 4637.528
286.1009, 4615.624
286.5830, 4603.196
287.0652, 4584.729
287.5473, 4560.018
288.0294, 4531.518
288.5115, 4498.884
288.9936, 4463.058
289.4757, 4433.085
289.9579, 4412.784
290.4400, 4400.124
290.9221, 4391.351
291.4042, 4386.991
291.8863, 4379.952
292.3684, 4358.595
292.8506, 4326.924
293.3327, 4302.300
293.8148, 4293.620
294.2969, 4293.205
294.7790, 4286.965
295.2611, 4274.842
295.7433, 4258.227
296.2254, 4232.357
296.7075, 4201.994
297.1896, 4182.105
297.6717, 4182.449
298.1538, 4190.158
298.6360, 4185.768
299.1181, 4169.961
299.6002, 4151.329
300.0823, 4134.570
300.5644, 4119.715
301.0465, 4106.925
301.5287, 4097.476
302.0108, 4088.566
302.4929, 4077.961
302.9750, 4065.484
303.4571, 4050.718
303.9392, 4030.814
304.4214, 4009.129
304.9035, 3989.932
305.3856, 3975.675
305.8677, 3962.557
306.3498, 3946.884
306.8319, 3929.639
307.3141, 3913.953
307.7962, 3902.975
308.2783, 3894.077
308.7604, 3885.365
309.2425, 3878.614
309.7246, 3867.628
310.2068, 3841.075
310.6889, 3806.213
311.1710, 3781.533
311.6531, 3787.893
312.1352, 3800.532
312.6173, 3801.202
313.0995, 3785.035
313.5816, 3762.573
314.0637, 3732.894
314.5458, 3700.575
315.0279, 3673.973
315.5100, 3652.632
315.9922, 3640.607
316.4743, 3643.419
316.9564, 3666.308
317.4385, 3684.837
317.9206, 3690.825
318.4027, 3687.656
318.8849, 3680.059
319.3670, 3665.653
319.8491, 3650.240
320.3312, 3634.338
320.8133, 3616.829
321.2954, 3605.875
321.7776, 3609.262
322.2597, 3617.489
322.7418, 3620.431
323.2239, 3614.799
323.7060, 3605.583
324.1881, 3590.757
324.6703, 3569.218
325.1524, 3556.257
325.6345, 3559.961
326.1166, 3569.079
326.5987, 3574.654
327.0808, 3578.096
327.5630, 3576.152
328.0451, 3564.076
328.5272, 3542.769
329.0093, 3532.454
329.4914, 3543.637
329.9735, 3556.493
330.4557, 3557.082
330.9378, 3532.109
331.4199, 3518.403
331.9020, 3522.859
332.3841, 3541.396
332.8662, 3554.670
333.3484, 3563.031
333.8305, 3565.399
334.3126, 3559.381
334.7947, 3540.264
335.2768, 3527.556
335.7589, 3523.050
336.2411, 3525.046
336.7232, 3530.269
337.2053, 3540.201
337.6874, 3548.915
338.1695, 3555.094
338.6516, 3559.393
339.1338, 3552.835
339.6159, 3531.018
340.0980, 3505.137
340.5801, 3495.705
341.0622, 3504.146
341.5443, 3515.249
342.0265, 3525.056
342.5086, 3533.030
342.9907, 3533.586
343.4728, 3525.495
343.9549, 3514.776
344.4370, 3507.729
344.9192, 3504.345
345.4013, 3504.728
345.8834, 3511.439
346.3655, 3521.273
346.8476, 3525.217
347.3297, 3523.157
347.8119, 3518.575
348.2940, 3514.090
348.7761, 3509.596
349.2582, 3504.421
349.7403, 3495.753
350.2225, 3488.862
350.7046, 3495.341
351.1867, 3513.238
351.6688, 3527.029
352.1509, 3518.866
352.6331, 3501.186
353.1152, 3493.074
353.5973, 3501.093
354.0794, 3515.285
354.5615, 3531.415
355.0436, 3547.407
355.5258, 3556.939
356.0079, 3548.625
356.4900, 3536.719
356.9721, 3535.400
357.4542, 3550.597
357.9363, 3563.655
358.4185, 3561.059
358.9006, 3549.565
359.3827, 3540.868
359.8648, 3540.833
360.3469, 3543.731
360.8290, 3548.836
361.3112, 3557.273
361.7933, 3558.776
362.2754, 3539.724
362.7575, 3515.962
363.2396, 3504.665
363.7217, 3522.641
364.2039, 3540.681
364.6860, 3550.777
365.1681, 3552.674
365.6502, 3555.115
366.1323, 3558.846
366.6144, 3563.603
367.0966, 3569.276
367.5787, 3580.656
368.0608, 3586.797
368.5429, 3581.164
369.0250, 3567.894
369.5071, 3569.014
369.9893, 3596.457
370.4714, 3624.352
370.9535, 3639.629
371.4356, 3635.183
371.9177, 3634.232
372.3998, 3639.231
372.8820, 3646.775
373.3641, 3648.444
373.8462, 3641.473
374.3283, 3635.813
374.8104, 3635.851
375.2925, 3642.110
375.7747, 3648.560
376.2568, 3656.117
376.7389, 3662.164
377.2210, 3660.727
377.7031, 3650.928
378.1852, 3646.564
378.6674, 3653.703
379.1495, 3669.534
379.6316, 3683.348
380.1137, 3695.164
380.5958, 3703.757
381.0779, 3703.495
381.5601, 3697.342
382.0422, 3700.675
382.5243, 3720.186
383.0064, 3746.697
383.4885, 3766.767
383.9706, 3780.730
384.4528, 3789.661
384.9349, 3786.966
385.4170, 3781.665
385.8991, 3790.288
386.3812, 3818.324
386.8633, 3850.844
387.3455, 3876.706
387.8276, 3896.492
388.3097, 3911.897
388.7918, 3923.982
389.2739, 3931.643
389.7560, 3928.798
390.2382, 3913.158
390.7203, 3909.339
391.2024, 3942.402
391.6845, 3990.498
392.1666, 4028.888
392.6487, 4043.509
393.1309, 4052.122
393.6130, 4057.221
394.0951, 4059.925
394.5772, 4070.499
395.0593, 4099.266
395.5414, 4131.861
396.0236, 4159.046
396.5057, 4179.599
396.9878, 4194.727
397.4699, 4198.792
397.9520, 4196.631
398.4341, 4203.441
398.9163, 4226.453
399.3984, 4251.010
399.8805, 4273.177
400.3626, 4295.588
400.8447, 4306.361
401.3268, 4295.740
401.8090, 4280.688
402.2911, 4288.712
402.7732, 4332.845
403.2553, 4365.272
403.7374, 4369.113
404.2195, 4346.442
404.7017, 4336.738
405.1838, 4343.882
405.6659, 4353.473
406.1480, 4352.577
406.6301, 4341.109
407.1122, 4326.732
407.5944, 4311.261
408.0765, 4293.117
408.5586, 4264.504
409.0407, 4225.611
409.5228, 4193.513
410.0049, 4185.646
410.4871, 4193.680
410.9692, 4194.065
411.4513, 4183.773
411.9334, 4168.354
412.4155, 4153.809
412.8976, 4139.027
413.3798, 4121.505
413.8619, 4091.144
414.3440, 4062.302
414.8261, 4052.986
415.3082, 4063.433
415.7903, 4074.630
416.2725, 4080.422
416.7546, 4077.776
417.2367, 4062.674
417.7188, 4019.158
418.2009, 3979.461
418.6830, 3957.274
419.1652, 3950.836
419.6473, 3954.585
420.1294, 3985.727
420.6115, 4012.459
421.0937, 4015.750
421.5758, 3980.129
422.0579, 3948.828
422.5400, 3925.082
423.0221, 3909.375
423.5042, 3902.218
423.9864, 3911.036
424.4685, 3920.081
424.9506, 3926.189
425.4327, 3929.116
425.9148, 3931.261
426.3969, 3933.109
426.8791, 3933.628
427.3612, 3931.819
427.8433, 3927.326
428.3254, 3921.316
428.8075, 3912.714
429.2896, 3903.192
429.7718, 3900.222
430.2539, 3905.493
430.7360, 3908.409
431.2181, 3899.863
431.7002, 3881.030
432.1823, 3868.816
432.6645, 3864.024
433.1466, 3865.975
433.6287, 3879.870
434.1108, 3902.181
434.5929, 3914.774
435.0750, 3899.910
435.5572, 3874.970
436.0393, 3874.555
436.5214, 3897.505
437.0035, 3919.199
437.4856, 3916.789
437.9677, 3902.076
438.4499, 3891.403
438.9320, 3890.051
439.4141, 3891.765
439.8962, 3888.188
440.3783, 3883.844
440.8604, 3890.300
441.3426, 3929.837
441.8247, 3968.542
442.3068, 3985.517
442.7889, 3974.553
443.2710, 3960.853
443.7531, 3950.553
444.2353, 3941.171
444.7174, 3929.778
445.1995, 3896.771
445.6816, 3882.994
446.1637, 3904.293
446.6458, 3956.470
447.1280, 3998.291
447.6101, 4032.612
448.0922, 4053.446
448.5743, 4055.540
449.0564, 4031.197
449.5385, 4007.100
450.0207, 3979.816
450.5028, 3956.869
450.9849, 3956.710
451.4670, 3984.336
451.9491, 4009.220
452.4312, 4017.212
452.9134, 4011.198
453.3955, 4015.952
453.8776, 4032.885
454.3597, 4050.322
454.8418, 4055.279
455.3239, 4050.476
455.8061, 4046.435
456.2882, 4044.208
456.7703, 4045.823
457.2524, 4057.358
457.7345, 4076.322
458.2166, 4092.825
458.6988, 4098.348
459.1809, 4099.508
459.6630, 4104.025
460.1451, 4113.428
460.6272, 4121.017
461.1093, 4117.384
461.5915, 4111.024
462.0736, 4112.613
462.5557, 4132.143
463.0378, 4153.867
463.5199, 4175.671
464.0020, 4196.230
464.4842, 4207.429
464.9663, 4201.191
465.4484, 4189.680
465.9305, 4179.124
466.4126, 4170.048
466.8947, 4161.122
467.3769, 4150.380
467.8590, 4140.661
468.3411, 4136.708
468.8232, 4140.171
469.3053, 4146.223
469.7874, 4153.403
470.2696, 4161.847
470.7517, 4175.299
471.2338, 4195.544
471.7159, 4215.197
472.1980, 4227.218
472.6801, 4231.786
473.1623, 4235.986
473.6444, 4241.874
474.1265, 4245.862
474.6086, 4239.670
475.0907, 4224.764
475.5728, 4210.627
476.0550, 4205.064
476.5371, 4202.458
477.0192, 4189.074
477.5013, 4164.108
477.9834, 4148.926
478.4655, 4171.458
478.9477, 4210.190
479.4298, 4236.665
479.9119, 4238.687
480.3940, 4231.678
480.8761, 4217.184
481.3582, 4199.075
481.8404, 4188.725
482.3225, 4194.734
482.8046, 4205.330
483.2867, 4216.201
483.7688, 4228.125
484.2509, 4236.306
484.7331, 4234.688
485.2152, 4232.055
485.6973, 4237.461
486.1794, 4260.470
486.6615, 4274.936
487.1436, 4275.140
487.6258, 4263.989
488.1079, 4254.862
488.5900, 4248.062
489.0721, 4242.614
489.5542, 4237.521
490.0363, 4232.726
490.5185, 4230.755
491.0006, 4231.268
491.4827, 4236.025
491.9648, 4248.877
492.4470, 4268.677
492.9291, 4289.988
493.4112, 4316.438
493.8933, 4338.194
494.3754, 4331.702
494.8575, 4301.662
495.3397, 4278.042
495.8218, 4287.638
496.3039, 4310.349
496.7860, 4323.476
497.2681, 4321.450
497.7502, 4319.266
498.2324, 4327.782
498.7145, 4340.163
499.1966, 4347.280
499.6787, 4337.789
500.1608, 4331.275
500.6429, 4335.734
501.1251, 4350.445
501.6072, 4362.033
502.0893, 4371.103
502.5714, 4375.640
503.0535, 4373.072
503.5356, 4354.876
504.0178, 4351.206
504.4999, 4369.489
504.9820, 4395.582
505.4641, 4406.576
505.9462, 4398.968
506.4283, 4394.896
506.9105, 4403.548
507.3926, 4419.926
507.8747, 4420.916
508.3568, 4405.566
508.8389, 4392.409
509.3210, 4396.500
509.8032, 4413.310
510.2853, 4432.450
510.7674, 4454.374
511.2495, 4471.067
511.7316, 4468.706
512.2137, 4455.306
512.6959, 4447.222
513.1780, 4457.367
513.6601, 4469.961
514.1422, 4473.908
514.6243, 4470.405
515.1064, 4468.416
515.5886, 4471.974
516.0707, 4477.776
516.5528, 4485.569
517.0349, 4504.331
517.5170, 4506.340
517.9991, 4469.512
518.4813, 4422.069
518.9634, 4400.351
519.4455, 4417.539
519.9276, 4438.373
520.4097, 4458.851
520.8918, 4477.632
521.3740, 4487.901
521.8561, 4489.080
522.3382, 4483.656
522.8203, 4471.597
523.3024, 4453.352
523.7845, 4432.053
524.2667, 4405.154
524.7488, 4385.382
525.2309, 4396.800
525.7130, 4429.873
526.1951, 4450.671
526.6772, 4439.633
527.1594, 4418.290
527.6415, 4413.805
528.1236, 4422.140
528.6057, 4425.403
529.0878, 4406.160
529.5699, 4382.667
530.0521, 4369.868
530.5342, 4372.118
531.0163, 4373.342
531.4984, 4370.862
531.9805, 4363.692
532.4626, 4350.814
532.9448, 4320.248
533.4269, 4298.385
533.9090, 4292.850
534.3911, 4298.668
534.8732, 4296.903
535.3553, 4286.161
535.8375, 4270.066
536.3196, 4246.857
536.8017, 4215.204
537.2838, 4200.107
537.7659, 4204.503
538.2480, 4215.342
538.7302, 4221.008
539.2123, 4221.460
539.6944, 4215.343
540.1765, 4200.556
540.6586, 4182.419
541.1407, 4162.980
541.6229, 4145.031
542.1050, 4138.122
542.5871, 4165.402
543.0692, 4194.229
543.5513, 4187.847
544.0334, 4144.821
544.5156, 4110.385
544.9977, 4114.590
545.4798, 4130.995
545.9619, 4138.538
546.4440, 4124.231
546.9261, 4114.384
547.4083, 4120.196
547.8904, 4131.112
548.3725, 4126.896
548.8546, 4092.377
549.3367, 4068.252
549.8188, 4069.919
550.3010, 4093.849
550.7831, 4094.846
551.2652, 4065.704
551.7473, 4037.623
552.2294, 4038.887
552.7115, 4065.477
553.1937, 4075.972
553.6758, 4065.405
554.1579, 4045.744
554.6400, 4032.094
555.1221, 4021.338
555.6042, 4004.044
556.0864, 3965.367
556.5685, 3930.062
557.0506, 3928.313
557.5327, 3952.112
558.0148, 3971.825
558.4969, 3968.389
558.9791, 3959.899
559.4612, 3959.628
559.9433, 3972.581
560.4254, 3974.788
560.9075, 3946.043
561.3896, 3913.694
561.8718, 3902.116
562.3539, 3929.051
562.8360, 3946.589
563.3181, 3949.223
563.8002, 3941.198
564.2823, 3930.369
564.7645, 3914.783
565.2466, 3906.135
565.7287, 3914.703
566.2108, 3934.480
566.6929, 3930.306
567.1750, 3901.057
567.6572, 3874.151
568.1393, 3882.560
568.6214, 3908.482
569.1035, 3913.032
569.5856, 3885.415
570.0677, 3855.722
570.5499, 3848.853
571.0320, 3856.217
571.5141, 3864.103
571.9962, 3867.226
572.4783, 3870.180
572.9604, 3878.902
573.4426, 3890.567
573.9247, 3890.783
574.4068, 3859.995
574.8889, 3833.162
575.3710, 3825.503
575.8531, 3841.937
576.3353, 3851.458
576.8174, 3850.461
577.2995, 3847.765
577.7816, 3854.000
578.2637, 3870.708
578.7458, 3878.971
579.2280, 3875.097
579.7101, 3863.378
580.1922, 3846.579
580.6743, 3826.728
581.1564, 3815.283
581.6385, 3823.757
582.1207, 3840.303
582.6028, 3851.197
583.0849, 3856.456
583.5670, 3857.045
584.0491, 3849.431
584.5313, 3839.963
585.0134, 3833.144
585.4955, 3829.383
585.9776, 3829.216
586.4597, 3838.943
586.9418, 3849.760
587.4240, 3851.181
587.9061, 3833.377
588.3882, 3821.378
588.8703, 3819.919
589.3524, 3825.411
589.8345, 3827.136
590.3167, 3824.120
590.7988, 3821.058
591.2809, 3820.092
591.7630, 3820.797
592.2451, 3819.586
592.7272, 3816.211
593.2094, 3816.947
593.6915, 3833.428
594.1736, 3856.436
594.6557, 3867.798
595.1378, 3863.051
595.6199, 3852.239
596.1021, 3833.266
596.5842, 3815.463
597.0663, 3812.135
597.5485, 3853.934
598.0306, 3883.252
598.5127, 3871.258
598.9948, 3828.691
599.4769, 3802.904
599.9590, 3807.658
600.4412, 3815.849
600.9233, 3818.148
601.4054, 3813.788
601.8875, 3817.787
602.3696, 3834.595
602.8517, 3848.740
603.3339, 3841.410
603.8160, 3815.033
604.2981, 3806.117
604.7802, 3823.174
605.2623, 3842.831
605.7444, 3827.127
606.2266, 3789.090
606.7087, 3764.477
607.1908, 3772.535
607.6729, 3792.126
608.1550, 3812.210
608.6371, 3830.885
609.1193, 3842.667
609.6014, 3841.556
610.0835, 3836.113
610.5656, 3827.272
611.0477, 3813.311
611.5298, 3811.708
612.0120, 3834.698
612.4941, 3858.384
612.9762, 3865.841
613.4583, 3851.815
613.9404, 3840.532
614.4225, 3833.364
614.9047, 3828.460
615.3868, 3819.833
615.8689, 3808.498
616.3510, 3810.698
616.8331, 3839.068
617.3152, 3872.986
617.7974, 3875.391
618.2795, 3854.027
618.7616, 3839.186
619.2437, 3856.156
619.7258, 3879.573
620.2079, 3889.792
620.6901, 3885.780
621.1722, 3882.433
621.6543, 3889.284
622.1364, 3895.419
622.6185, 3892.628
623.1006, 3872.498
623.5828, 3861.757
624.0649, 3865.680
624.5470, 3874.152
625.0291, 3874.269
625.5112, 3864.003
625.9933, 3855.861
626.4755, 3851.369
626.9576, 3851.275
627.4397, 3859.522
627.9218, 3875.016
