##NAMES=Pargasite
##RRUFFID=R060632
##IDEAL CHEMISTRY=NaCa_2_(Mg_4_Al)(Si_6_Al_2_)O_22_(OH)_2_
##LOCALITY=unknown
##OWNER=RRUFF
##SOURCE=Gemological Institute of America
##DESCRIPTION=Black cleavage fragment
##STATUS=The identification of this mineral is confirmed by single-crystal X-ray diffraction and chemical analysis.
##URL=rruff.info/R060632
##MEASURED CHEMISTRY=(Na_0.61_K_0.34_[box]_0.05_)(Ca_1.82_Na_0.18_)_&#931;=2_(Mg_3.12_Fe^2+^_0.88_)_&#931;=4_(Al_0.78_Ti_0.22_)(Si_6.00_Al_2.00_)_&#931;=8_O_22_((OH)_0.84_F_0.16_)_2_
9.059570e+001, 7.765052e+002
9.107782e+001, 7.751087e+002
9.155994e+001, 7.746500e+002
9.204205e+001, 7.762715e+002
9.252417e+001, 7.780328e+002
9.300629e+001, 7.789910e+002
9.348840e+001, 7.749958e+002
9.397052e+001, 7.619651e+002
9.445264e+001, 7.398499e+002
9.493475e+001, 7.197867e+002
9.541687e+001, 6.999521e+002
9.589898e+001, 6.803802e+002
9.638110e+001, 6.616805e+002
9.686321e+001, 6.442823e+002
9.734533e+001, 6.278646e+002
9.782745e+001, 6.112709e+002
9.830956e+001, 5.967439e+002
9.879168e+001, 5.845272e+002
9.927380e+001, 5.734405e+002
9.975591e+001, 5.631755e+002
1.002380e+002, 5.535860e+002
1.007201e+002, 5.446373e+002
1.012023e+002, 5.363571e+002
1.016844e+002, 5.286503e+002
1.021665e+002, 5.210264e+002
1.026486e+002, 5.129412e+002
1.031307e+002, 5.051455e+002
1.036128e+002, 4.983023e+002
1.040950e+002, 4.923415e+002
1.045771e+002, 4.872599e+002
1.050592e+002, 4.831207e+002
1.055413e+002, 4.796526e+002
1.060234e+002, 4.766439e+002
1.065055e+002, 4.739164e+002
1.069877e+002, 4.715215e+002
1.074698e+002, 4.699180e+002
1.079519e+002, 4.707217e+002
1.084340e+002, 4.701557e+002
1.089161e+002, 4.661952e+002
1.093982e+002, 4.596139e+002
1.098804e+002, 4.523776e+002
1.103625e+002, 4.460014e+002
1.108446e+002, 4.404659e+002
1.113267e+002, 4.360613e+002
1.118088e+002, 4.331668e+002
1.122909e+002, 4.309453e+002
1.127731e+002, 4.290971e+002
1.132552e+002, 4.275503e+002
1.137373e+002, 4.263484e+002
1.142194e+002, 4.255924e+002
1.147015e+002, 4.256233e+002
1.151836e+002, 4.255134e+002
1.156658e+002, 4.257889e+002
1.161479e+002, 4.257103e+002
1.166300e+002, 4.242858e+002
1.171121e+002, 4.210943e+002
1.175942e+002, 4.170316e+002
1.180763e+002, 4.143213e+002
1.185584e+002, 4.134985e+002
1.190406e+002, 4.125423e+002
1.195227e+002, 4.106029e+002
1.200048e+002, 4.080403e+002
1.204869e+002, 4.058500e+002
1.209690e+002, 4.045688e+002
1.214511e+002, 4.039012e+002
1.219333e+002, 4.030796e+002
1.224154e+002, 4.019747e+002
1.228975e+002, 4.009277e+002
1.233796e+002, 4.005202e+002
1.238617e+002, 4.008997e+002
1.243438e+002, 4.006374e+002
1.248260e+002, 3.987350e+002
1.253081e+002, 3.959268e+002
1.257902e+002, 3.926298e+002
1.262723e+002, 3.888380e+002
1.267544e+002, 3.848523e+002
1.272365e+002, 3.813618e+002
1.277187e+002, 3.783385e+002
1.282008e+002, 3.759472e+002
1.286829e+002, 3.745759e+002
1.291650e+002, 3.736689e+002
1.296471e+002, 3.724967e+002
1.301292e+002, 3.705702e+002
1.306114e+002, 3.679461e+002
1.310935e+002, 3.654357e+002
1.315756e+002, 3.633168e+002
1.320577e+002, 3.610357e+002
1.325398e+002, 3.583431e+002
1.330219e+002, 3.553533e+002
1.335041e+002, 3.523553e+002
1.339862e+002, 3.495659e+002
1.344683e+002, 3.469633e+002
1.349504e+002, 3.447626e+002
1.354325e+002, 3.428283e+002
1.359146e+002, 3.412965e+002
1.363968e+002, 3.405313e+002
1.368789e+002, 3.404569e+002
1.373610e+002, 3.403404e+002
1.378431e+002, 3.392174e+002
1.383252e+002, 3.367497e+002
1.388073e+002, 3.350781e+002
1.392895e+002, 3.348225e+002
1.397716e+002, 3.352191e+002
1.402537e+002, 3.355896e+002
1.407358e+002, 3.359153e+002
1.412179e+002, 3.356961e+002
1.417000e+002, 3.338531e+002
1.421821e+002, 3.305430e+002
1.426643e+002, 3.275095e+002
1.431464e+002, 3.255713e+002
1.436285e+002, 3.245097e+002
1.441106e+002, 3.235248e+002
1.445927e+002, 3.224542e+002
1.450748e+002, 3.214202e+002
1.455570e+002, 3.204682e+002
1.460391e+002, 3.196042e+002
1.465212e+002, 3.189129e+002
1.470033e+002, 3.186305e+002
1.474854e+002, 3.188382e+002
1.479675e+002, 3.186486e+002
1.484497e+002, 3.173057e+002
1.489318e+002, 3.158708e+002
1.494139e+002, 3.149812e+002
1.498960e+002, 3.147581e+002
1.503781e+002, 3.147745e+002
1.508602e+002, 3.143595e+002
1.513424e+002, 3.131794e+002
1.518245e+002, 3.122917e+002
1.523066e+002, 3.115723e+002
1.527887e+002, 3.112308e+002
1.532708e+002, 3.115869e+002
1.537529e+002, 3.127332e+002
1.542351e+002, 3.143017e+002
1.547172e+002, 3.153604e+002
1.551993e+002, 3.150572e+002
1.556814e+002, 3.152491e+002
1.561635e+002, 3.164208e+002
1.566456e+002, 3.180128e+002
1.571278e+002, 3.192967e+002
1.576099e+002, 3.198892e+002
1.580920e+002, 3.200179e+002
1.585741e+002, 3.206676e+002
1.590562e+002, 3.221691e+002
1.595383e+002, 3.237305e+002
1.600205e+002, 3.250295e+002
1.605026e+002, 3.262321e+002
1.609847e+002, 3.277542e+002
1.614668e+002, 3.298676e+002
1.619489e+002, 3.324725e+002
1.624310e+002, 3.349865e+002
1.629131e+002, 3.380092e+002
1.633953e+002, 3.404081e+002
1.638774e+002, 3.414802e+002
1.643595e+002, 3.412836e+002
1.648416e+002, 3.403308e+002
1.653237e+002, 3.388447e+002
1.658058e+002, 3.367510e+002
1.662880e+002, 3.340056e+002
1.667701e+002, 3.304296e+002
1.672522e+002, 3.263167e+002
1.677343e+002, 3.218661e+002
1.682164e+002, 3.169907e+002
1.686985e+002, 3.122286e+002
1.691807e+002, 3.078658e+002
1.696628e+002, 3.038306e+002
1.701449e+002, 3.000670e+002
1.706270e+002, 2.965745e+002
1.711091e+002, 2.933493e+002
1.715912e+002, 2.903949e+002
1.720734e+002, 2.877489e+002
1.725555e+002, 2.853441e+002
1.730376e+002, 2.831583e+002
1.735197e+002, 2.811295e+002
1.740018e+002, 2.791280e+002
1.744839e+002, 2.770159e+002
1.749661e+002, 2.748837e+002
1.754482e+002, 2.733316e+002
1.759303e+002, 2.728701e+002
1.764124e+002, 2.724737e+002
1.768945e+002, 2.719240e+002
1.773766e+002, 2.712390e+002
1.778588e+002, 2.704915e+002
1.783409e+002, 2.697284e+002
1.788230e+002, 2.689479e+002
1.793051e+002, 2.681387e+002
1.797872e+002, 2.672395e+002
1.802693e+002, 2.663692e+002
1.807515e+002, 2.655656e+002
1.812336e+002, 2.648212e+002
1.817157e+002, 2.641094e+002
1.821978e+002, 2.633954e+002
1.826799e+002, 2.626620e+002
1.831620e+002, 2.621171e+002
1.836441e+002, 2.619380e+002
1.841263e+002, 2.617437e+002
1.846084e+002, 2.612595e+002
1.850905e+002, 2.605347e+002
1.855726e+002, 2.599116e+002
1.860547e+002, 2.597837e+002
1.865368e+002, 2.602581e+002
1.870190e+002, 2.601293e+002
1.875011e+002, 2.590539e+002
1.879832e+002, 2.576551e+002
1.884653e+002, 2.563427e+002
1.889474e+002, 2.551724e+002
1.894296e+002, 2.540316e+002
1.899117e+002, 2.527794e+002
1.903938e+002, 2.514310e+002
1.908759e+002, 2.502445e+002
1.913580e+002, 2.493954e+002
1.918401e+002, 2.486612e+002
1.923223e+002, 2.477128e+002
1.928044e+002, 2.464532e+002
1.932865e+002, 2.452909e+002
1.937686e+002, 2.448684e+002
1.942507e+002, 2.449364e+002
1.947328e+002, 2.446982e+002
1.952150e+002, 2.436330e+002
1.956971e+002, 2.421401e+002
1.961792e+002, 2.409932e+002
1.966613e+002, 2.402898e+002
1.971434e+002, 2.398692e+002
1.976255e+002, 2.398149e+002
1.981077e+002, 2.399579e+002
1.985898e+002, 2.398426e+002
1.990719e+002, 2.389634e+002
1.995540e+002, 2.375611e+002
2.000361e+002, 2.367313e+002
2.005182e+002, 2.368762e+002
2.010004e+002, 2.370897e+002
2.014825e+002, 2.368759e+002
2.019646e+002, 2.363394e+002
2.024467e+002, 2.357438e+002
2.029288e+002, 2.351464e+002
2.034109e+002, 2.345716e+002
2.038930e+002, 2.344988e+002
2.043752e+002, 2.355629e+002
2.048573e+002, 2.364930e+002
2.053394e+002, 2.367220e+002
2.058215e+002, 2.364155e+002
2.063036e+002, 2.360202e+002
2.067857e+002, 2.358612e+002
2.072679e+002, 2.359400e+002
2.077500e+002, 2.362307e+002
2.082321e+002, 2.370819e+002
2.087142e+002, 2.378365e+002
2.091963e+002, 2.382032e+002
2.096784e+002, 2.382722e+002
2.101606e+002, 2.383137e+002
2.106427e+002, 2.385473e+002
2.111248e+002, 2.389670e+002
2.116069e+002, 2.396282e+002
2.120890e+002, 2.406635e+002
2.125711e+002, 2.417859e+002
2.130533e+002, 2.429758e+002
2.135354e+002, 2.441720e+002
2.140175e+002, 2.452710e+002
2.144996e+002, 2.461706e+002
2.149817e+002, 2.468488e+002
2.154638e+002, 2.474665e+002
2.159460e+002, 2.478860e+002
2.164281e+002, 2.483798e+002
2.169102e+002, 2.491075e+002
2.173923e+002, 2.500507e+002
2.178744e+002, 2.510670e+002
2.183565e+002, 2.519882e+002
2.188387e+002, 2.527764e+002
2.193208e+002, 2.540087e+002
2.198029e+002, 2.561054e+002
2.202850e+002, 2.582545e+002
2.207671e+002, 2.600225e+002
2.212492e+002, 2.613762e+002
2.217314e+002, 2.624386e+002
2.222135e+002, 2.632713e+002
2.226956e+002, 2.638503e+002
2.231777e+002, 2.644492e+002
2.236598e+002, 2.648592e+002
2.241419e+002, 2.654370e+002
2.246240e+002, 2.666296e+002
2.251062e+002, 2.684191e+002
2.255883e+002, 2.700991e+002
2.260704e+002, 2.710323e+002
2.265525e+002, 2.712891e+002
2.270346e+002, 2.716797e+002
2.275167e+002, 2.723446e+002
2.279989e+002, 2.731046e+002
2.284810e+002, 2.738548e+002
2.289631e+002, 2.745948e+002
2.294452e+002, 2.751729e+002
2.299273e+002, 2.754231e+002
2.304094e+002, 2.754117e+002
2.308916e+002, 2.753275e+002
2.313737e+002, 2.752008e+002
2.318558e+002, 2.750126e+002
2.323379e+002, 2.746734e+002
2.328200e+002, 2.741447e+002
2.333021e+002, 2.737364e+002
2.337843e+002, 2.737307e+002
2.342664e+002, 2.739629e+002
2.347485e+002, 2.742188e+002
2.352306e+002, 2.745545e+002
2.357127e+002, 2.747977e+002
2.361948e+002, 2.746340e+002
2.366770e+002, 2.739507e+002
2.371591e+002, 2.733245e+002
2.376412e+002, 2.731357e+002
2.381233e+002, 2.731437e+002
2.386054e+002, 2.731289e+002
2.390875e+002, 2.730908e+002
2.395697e+002, 2.729036e+002
2.400518e+002, 2.723490e+002
2.405339e+002, 2.713652e+002
2.410160e+002, 2.701920e+002
2.414981e+002, 2.687931e+002
2.419802e+002, 2.673129e+002
2.424624e+002, 2.658906e+002
2.429445e+002, 2.645867e+002
2.434266e+002, 2.633291e+002
2.439087e+002, 2.619992e+002
2.443908e+002, 2.605915e+002
2.448729e+002, 2.591243e+002
2.453550e+002, 2.575689e+002
2.458372e+002, 2.559823e+002
2.463193e+002, 2.543660e+002
2.468014e+002, 2.527075e+002
2.472835e+002, 2.511394e+002
2.477656e+002, 2.499405e+002
2.482477e+002, 2.493835e+002
2.487299e+002, 2.485379e+002
2.492120e+002, 2.471328e+002
2.496941e+002, 2.454864e+002
2.501762e+002, 2.437672e+002
2.506583e+002, 2.420348e+002
2.511404e+002, 2.403822e+002
2.516226e+002, 2.390314e+002
2.521047e+002, 2.383423e+002
2.525868e+002, 2.371266e+002
2.530689e+002, 2.347877e+002
2.535510e+002, 2.322946e+002
2.540331e+002, 2.303106e+002
2.545153e+002, 2.290097e+002
2.549974e+002, 2.281195e+002
2.554795e+002, 2.272775e+002
2.559616e+002, 2.266614e+002
2.564437e+002, 2.256868e+002
2.569258e+002, 2.240581e+002
2.574080e+002, 2.223478e+002
2.578901e+002, 2.209655e+002
2.583722e+002, 2.199659e+002
2.588543e+002, 2.190676e+002
2.593364e+002, 2.178708e+002
2.598185e+002, 2.161765e+002
2.603007e+002, 2.146850e+002
2.607828e+002, 2.133539e+002
2.612649e+002, 2.121937e+002
2.617470e+002, 2.112910e+002
2.622291e+002, 2.106065e+002
2.627112e+002, 2.099676e+002
2.631934e+002, 2.091633e+002
2.636755e+002, 2.081231e+002
2.641576e+002, 2.071695e+002
2.646397e+002, 2.064735e+002
2.651218e+002, 2.057084e+002
2.656039e+002, 2.046011e+002
2.660861e+002, 2.032096e+002
2.665682e+002, 2.018418e+002
2.670503e+002, 2.007982e+002
2.675324e+002, 2.001218e+002
2.680145e+002, 1.995547e+002
2.684966e+002, 1.991936e+002
2.689788e+002, 1.988305e+002
2.694609e+002, 1.983650e+002
2.699430e+002, 1.978044e+002
2.704251e+002, 1.972087e+002
2.709072e+002, 1.966223e+002
2.713893e+002, 1.960487e+002
2.718715e+002, 1.954851e+002
2.723536e+002, 1.949774e+002
2.728357e+002, 1.944341e+002
2.733178e+002, 1.936824e+002
2.737999e+002, 1.928435e+002
2.742820e+002, 1.922655e+002
2.747642e+002, 1.922259e+002
2.752463e+002, 1.926638e+002
2.757284e+002, 1.928261e+002
2.762105e+002, 1.925897e+002
2.766926e+002, 1.922855e+002
2.771747e+002, 1.919231e+002
2.776568e+002, 1.915731e+002
2.781389e+002, 1.913934e+002
2.786211e+002, 1.914876e+002
2.791032e+002, 1.917898e+002
2.795853e+002, 1.920222e+002
2.800674e+002, 1.922072e+002
2.805495e+002, 1.923164e+002
2.810316e+002, 1.923880e+002
2.815138e+002, 1.923747e+002
2.819959e+002, 1.921241e+002
2.824780e+002, 1.915267e+002
2.829601e+002, 1.907982e+002
2.834422e+002, 1.905221e+002
2.839243e+002, 1.907713e+002
2.844065e+002, 1.912315e+002
2.848886e+002, 1.921981e+002
2.853707e+002, 1.932478e+002
2.858528e+002, 1.937045e+002
2.863349e+002, 1.933167e+002
2.868170e+002, 1.924596e+002
2.872992e+002, 1.917048e+002
2.877813e+002, 1.910305e+002
2.882634e+002, 1.905195e+002
2.887455e+002, 1.902298e+002
2.892276e+002, 1.900972e+002
2.897097e+002, 1.900567e+002
2.901919e+002, 1.900942e+002
2.906740e+002, 1.902090e+002
2.911561e+002, 1.904485e+002
2.916382e+002, 1.908469e+002
2.921203e+002, 1.910726e+002
2.926024e+002, 1.910565e+002
2.930846e+002, 1.908729e+002
2.935667e+002, 1.905910e+002
2.940488e+002, 1.902184e+002
2.945309e+002, 1.897100e+002
2.950130e+002, 1.888931e+002
2.954951e+002, 1.877892e+002
2.959773e+002, 1.872422e+002
2.964594e+002, 1.876672e+002
2.969415e+002, 1.883800e+002
2.974236e+002, 1.890089e+002
2.979057e+002, 1.894973e+002
2.983878e+002, 1.896255e+002
2.988700e+002, 1.891125e+002
2.993521e+002, 1.880716e+002
2.998342e+002, 1.873488e+002
3.003163e+002, 1.870280e+002
3.007984e+002, 1.869420e+002
3.012805e+002, 1.871589e+002
3.017627e+002, 1.875882e+002
3.022448e+002, 1.878314e+002
3.027269e+002, 1.876740e+002
3.032090e+002, 1.871798e+002
3.036911e+002, 1.865731e+002
3.041732e+002, 1.857407e+002
3.046554e+002, 1.849853e+002
3.051375e+002, 1.844357e+002
3.056196e+002, 1.840659e+002
3.061017e+002, 1.838288e+002
3.065838e+002, 1.837356e+002
3.070659e+002, 1.837169e+002
3.075481e+002, 1.836230e+002
3.080302e+002, 1.834150e+002
3.085123e+002, 1.832893e+002
3.089944e+002, 1.833912e+002
3.094765e+002, 1.836001e+002
3.099586e+002, 1.836914e+002
3.104408e+002, 1.835913e+002
3.109229e+002, 1.834352e+002
3.114050e+002, 1.833899e+002
3.118871e+002, 1.834482e+002
3.123692e+002, 1.835845e+002
3.128513e+002, 1.839150e+002
3.133335e+002, 1.842642e+002
3.138156e+002, 1.843916e+002
3.142977e+002, 1.842550e+002
3.147798e+002, 1.840592e+002
3.152619e+002, 1.839465e+002
3.157440e+002, 1.839293e+002
3.162262e+002, 1.840819e+002
3.167083e+002, 1.846193e+002
3.171904e+002, 1.851811e+002
3.176725e+002, 1.854684e+002
3.181546e+002, 1.854805e+002
3.186367e+002, 1.853554e+002
3.191188e+002, 1.850968e+002
3.196010e+002, 1.847894e+002
3.200831e+002, 1.847695e+002
3.205652e+002, 1.852076e+002
3.210473e+002, 1.857528e+002
3.215294e+002, 1.863614e+002
3.220115e+002, 1.869547e+002
3.224937e+002, 1.872216e+002
3.229758e+002, 1.869373e+002
3.234579e+002, 1.863268e+002
3.239400e+002, 1.859713e+002
3.244221e+002, 1.859375e+002
3.249042e+002, 1.859536e+002
3.253864e+002, 1.859473e+002
3.258685e+002, 1.859230e+002
3.263506e+002, 1.858931e+002
3.268327e+002, 1.858657e+002
3.273148e+002, 1.858186e+002
3.277969e+002, 1.856767e+002
3.282791e+002, 1.853926e+002
3.287612e+002, 1.852812e+002
3.292433e+002, 1.855781e+002
3.297254e+002, 1.859968e+002
3.302075e+002, 1.861757e+002
3.306896e+002, 1.860524e+002
3.311718e+002, 1.858728e+002
3.316539e+002, 1.859361e+002
3.321360e+002, 1.862639e+002
3.326181e+002, 1.862483e+002
3.331002e+002, 1.855097e+002
3.335823e+002, 1.846955e+002
3.340645e+002, 1.842838e+002
3.345466e+002, 1.842687e+002
3.350287e+002, 1.843807e+002
3.355108e+002, 1.844738e+002
3.359929e+002, 1.845315e+002
3.364750e+002, 1.844683e+002
3.369572e+002, 1.841658e+002
3.374393e+002, 1.838791e+002
3.379214e+002, 1.837309e+002
3.384035e+002, 1.836796e+002
3.388856e+002, 1.836164e+002
3.393677e+002, 1.834810e+002
3.398499e+002, 1.833250e+002
3.403320e+002, 1.833059e+002
3.408141e+002, 1.835266e+002
3.412962e+002, 1.836752e+002
3.417783e+002, 1.835917e+002
3.422604e+002, 1.834396e+002
3.427426e+002, 1.834210e+002
3.432247e+002, 1.835934e+002
3.437068e+002, 1.839245e+002
3.441889e+002, 1.844401e+002
3.446710e+002, 1.853887e+002
3.451531e+002, 1.856743e+002
3.456353e+002, 1.846496e+002
3.461174e+002, 1.834029e+002
3.465995e+002, 1.827552e+002
3.470816e+002, 1.827685e+002
3.475637e+002, 1.830588e+002
3.480458e+002, 1.833243e+002
3.485280e+002, 1.835679e+002
3.490101e+002, 1.836778e+002
3.494922e+002, 1.836096e+002
3.499743e+002, 1.834793e+002
3.504564e+002, 1.832774e+002
3.509385e+002, 1.830518e+002
3.514207e+002, 1.828922e+002
3.519028e+002, 1.828512e+002
3.523849e+002, 1.829185e+002
3.528670e+002, 1.830554e+002
3.533491e+002, 1.834654e+002
3.538312e+002, 1.836939e+002
3.543134e+002, 1.835149e+002
3.547955e+002, 1.831935e+002
3.552776e+002, 1.830261e+002
3.557597e+002, 1.831180e+002
3.562418e+002, 1.833903e+002
3.567239e+002, 1.837087e+002
3.572061e+002, 1.840308e+002
3.576882e+002, 1.845072e+002
3.581703e+002, 1.854289e+002
3.586524e+002, 1.862746e+002
3.591345e+002, 1.865273e+002
3.596166e+002, 1.862512e+002
3.600987e+002, 1.860342e+002
3.605808e+002, 1.865079e+002
3.610630e+002, 1.877919e+002
3.615451e+002, 1.885912e+002
3.620272e+002, 1.884701e+002
3.625093e+002, 1.883488e+002
3.629914e+002, 1.885307e+002
3.634735e+002, 1.889393e+002
3.639557e+002, 1.893696e+002
3.644378e+002, 1.896919e+002
3.649199e+002, 1.899586e+002
3.654020e+002, 1.904016e+002
3.658841e+002, 1.912363e+002
3.663662e+002, 1.919549e+002
3.668484e+002, 1.923732e+002
3.673305e+002, 1.927153e+002
3.678126e+002, 1.932376e+002
3.682947e+002, 1.940090e+002
3.687768e+002, 1.948479e+002
3.692589e+002, 1.954858e+002
3.697411e+002, 1.959016e+002
3.702232e+002, 1.961560e+002
3.707053e+002, 1.959562e+002
3.711874e+002, 1.958518e+002
3.716695e+002, 1.962447e+002
3.721516e+002, 1.970567e+002
3.726338e+002, 1.978635e+002
3.731159e+002, 1.982805e+002
3.735980e+002, 1.983185e+002
3.740801e+002, 1.983640e+002
3.745622e+002, 1.984035e+002
3.750443e+002, 1.984687e+002
3.755265e+002, 1.986205e+002
3.760086e+002, 1.987918e+002
3.764907e+002, 1.988656e+002
3.769728e+002, 1.987659e+002
3.774549e+002, 1.985842e+002
3.779370e+002, 1.985364e+002
3.784192e+002, 1.986758e+002
3.789013e+002, 1.987986e+002
3.793834e+002, 1.988315e+002
3.798655e+002, 1.988374e+002
3.803476e+002, 1.988996e+002
3.808297e+002, 1.990320e+002
3.813119e+002, 1.990877e+002
3.817940e+002, 1.988333e+002
3.822761e+002, 1.982782e+002
3.827582e+002, 1.979416e+002
3.832403e+002, 1.980592e+002
3.837224e+002, 1.982134e+002
3.842046e+002, 1.982155e+002
3.846867e+002, 1.980401e+002
3.851688e+002, 1.976046e+002
3.856509e+002, 1.967175e+002
3.861330e+002, 1.955672e+002
3.866151e+002, 1.945788e+002
3.870973e+002, 1.937872e+002
3.875794e+002, 1.930414e+002
3.880615e+002, 1.922947e+002
3.885436e+002, 1.915247e+002
3.890257e+002, 1.906944e+002
3.895078e+002, 1.897946e+002
3.899900e+002, 1.888348e+002
3.904721e+002, 1.877316e+002
3.909542e+002, 1.865210e+002
3.914363e+002, 1.855841e+002
3.919184e+002, 1.852495e+002
3.924005e+002, 1.849827e+002
3.928827e+002, 1.839037e+002
3.933648e+002, 1.819353e+002
3.938469e+002, 1.802754e+002
3.943290e+002, 1.796921e+002
3.948111e+002, 1.796150e+002
3.952932e+002, 1.790763e+002
3.957754e+002, 1.778935e+002
3.962575e+002, 1.767106e+002
3.967396e+002, 1.761924e+002
3.972217e+002, 1.762590e+002
3.977038e+002, 1.759069e+002
3.981859e+002, 1.746956e+002
3.986681e+002, 1.733986e+002
3.991501e+002, 1.724290e+002
3.996323e+002, 1.717854e+002
4.001144e+002, 1.714495e+002
4.005965e+002, 1.714662e+002
4.010786e+002, 1.716972e+002
4.015607e+002, 1.717325e+002
4.020428e+002, 1.714068e+002
4.025250e+002, 1.712045e+002
4.030071e+002, 1.714083e+002
4.034892e+002, 1.716866e+002
4.039713e+002, 1.716165e+002
4.044534e+002, 1.711146e+002
4.049355e+002, 1.704549e+002
4.054177e+002, 1.699462e+002
4.058998e+002, 1.696158e+002
4.063819e+002, 1.693380e+002
4.068640e+002, 1.691352e+002
4.073461e+002, 1.689580e+002
4.078282e+002, 1.687397e+002
4.083104e+002, 1.685245e+002
4.087925e+002, 1.684350e+002
4.092746e+002, 1.685593e+002
4.097567e+002, 1.688396e+002
4.102388e+002, 1.690066e+002
4.107209e+002, 1.689117e+002
4.112031e+002, 1.688933e+002
4.116852e+002, 1.690206e+002
4.121673e+002, 1.692125e+002
4.126494e+002, 1.694262e+002
4.131315e+002, 1.696364e+002
4.136136e+002, 1.697801e+002
4.140958e+002, 1.697243e+002
4.145779e+002, 1.693573e+002
4.150600e+002, 1.692427e+002
4.155421e+002, 1.698167e+002
4.160242e+002, 1.702413e+002
4.165063e+002, 1.700284e+002
4.169885e+002, 1.693918e+002
4.174706e+002, 1.688953e+002
4.179527e+002, 1.689431e+002
4.184348e+002, 1.693510e+002
4.189169e+002, 1.694424e+002
4.193990e+002, 1.689936e+002
4.198812e+002, 1.687280e+002
4.203633e+002, 1.692095e+002
4.208454e+002, 1.697827e+002
4.213275e+002, 1.697216e+002
4.218096e+002, 1.688344e+002
4.222917e+002, 1.678640e+002
4.227739e+002, 1.676989e+002
4.232560e+002, 1.682867e+002
4.237381e+002, 1.685003e+002
4.242202e+002, 1.679362e+002
4.247023e+002, 1.672843e+002
4.251844e+002, 1.671665e+002
4.256666e+002, 1.674307e+002
4.261487e+002, 1.675202e+002
4.266308e+002, 1.669319e+002
4.271129e+002, 1.661567e+002
4.275950e+002, 1.660186e+002
4.280771e+002, 1.665585e+002
4.285593e+002, 1.670802e+002
4.290414e+002, 1.672810e+002
4.295235e+002, 1.671792e+002
4.300056e+002, 1.669109e+002
4.304877e+002, 1.665088e+002
4.309698e+002, 1.658681e+002
4.314520e+002, 1.646393e+002
4.319341e+002, 1.631835e+002
4.324162e+002, 1.623281e+002
4.328983e+002, 1.623420e+002
4.333804e+002, 1.625414e+002
4.338625e+002, 1.621004e+002
4.343447e+002, 1.609083e+002
4.348268e+002, 1.599318e+002
4.353089e+002, 1.594651e+002
4.357910e+002, 1.589981e+002
4.362731e+002, 1.581396e+002
4.367552e+002, 1.569740e+002
4.372374e+002, 1.558266e+002
4.377195e+002, 1.548761e+002
4.382016e+002, 1.541069e+002
4.386837e+002, 1.534822e+002
4.391658e+002, 1.532717e+002
4.396479e+002, 1.528569e+002
4.401301e+002, 1.519531e+002
4.406122e+002, 1.509677e+002
4.410943e+002, 1.503536e+002
4.415764e+002, 1.501678e+002
4.420585e+002, 1.500637e+002
4.425406e+002, 1.496551e+002
4.430227e+002, 1.489131e+002
4.435049e+002, 1.480743e+002
4.439870e+002, 1.468709e+002
4.444691e+002, 1.458533e+002
4.449512e+002, 1.452924e+002
4.454333e+002, 1.450200e+002
4.459154e+002, 1.447613e+002
4.463976e+002, 1.443864e+002
4.468797e+002, 1.439146e+002
4.473618e+002, 1.433814e+002
4.478439e+002, 1.427740e+002
4.483260e+002, 1.421426e+002
4.488081e+002, 1.412371e+002
4.492903e+002, 1.404985e+002
4.497724e+002, 1.403574e+002
4.502545e+002, 1.407639e+002
4.507366e+002, 1.411336e+002
4.512187e+002, 1.409211e+002
4.517008e+002, 1.402814e+002
4.521830e+002, 1.399229e+002
4.526651e+002, 1.399906e+002
4.531472e+002, 1.400104e+002
4.536293e+002, 1.396114e+002
4.541114e+002, 1.390081e+002
4.545935e+002, 1.385090e+002
4.550757e+002, 1.382468e+002
4.555578e+002, 1.379707e+002
4.560399e+002, 1.372681e+002
4.565220e+002, 1.363142e+002
4.570041e+002, 1.359832e+002
4.574862e+002, 1.367419e+002
4.579684e+002, 1.377372e+002
4.584505e+002, 1.377499e+002
4.589326e+002, 1.368004e+002
4.594147e+002, 1.359750e+002
4.598968e+002, 1.355380e+002
4.603789e+002, 1.352534e+002
4.608611e+002, 1.349650e+002
4.613432e+002, 1.346502e+002
4.618253e+002, 1.342635e+002
4.623074e+002, 1.337479e+002
4.627895e+002, 1.331663e+002
4.632716e+002, 1.327718e+002
4.637538e+002, 1.327249e+002
4.642359e+002, 1.326414e+002
4.647180e+002, 1.324284e+002
4.652001e+002, 1.321837e+002
4.656822e+002, 1.320002e+002
4.661643e+002, 1.318979e+002
4.666465e+002, 1.318600e+002
4.671286e+002, 1.318893e+002
4.676107e+002, 1.320099e+002
4.680928e+002, 1.319559e+002
4.685749e+002, 1.312348e+002
4.690570e+002, 1.308690e+002
4.695392e+002, 1.315682e+002
4.700213e+002, 1.326810e+002
4.705034e+002, 1.331958e+002
4.709855e+002, 1.326539e+002
4.714676e+002, 1.315712e+002
4.719497e+002, 1.308065e+002
4.724319e+002, 1.303859e+002
4.729140e+002, 1.301797e+002
4.733961e+002, 1.305344e+002
4.738782e+002, 1.307893e+002
4.743603e+002, 1.303387e+002
4.748424e+002, 1.293817e+002
4.753246e+002, 1.287668e+002
4.758067e+002, 1.292596e+002
4.762888e+002, 1.303438e+002
4.767709e+002, 1.308783e+002
4.772530e+002, 1.307934e+002
4.777351e+002, 1.305702e+002
4.782173e+002, 1.302654e+002
4.786994e+002, 1.300505e+002
4.791815e+002, 1.302777e+002
4.796636e+002, 1.311595e+002
4.801457e+002, 1.317507e+002
4.806278e+002, 1.312935e+002
4.811100e+002, 1.302962e+002
4.815920e+002, 1.296890e+002
4.820742e+002, 1.296413e+002
4.825563e+002, 1.297919e+002
4.830384e+002, 1.298053e+002
4.835205e+002, 1.296961e+002
4.840026e+002, 1.298601e+002
4.844847e+002, 1.306177e+002
4.849669e+002, 1.312824e+002
4.854490e+002, 1.315619e+002
4.859311e+002, 1.315627e+002
4.864132e+002, 1.314449e+002
4.868953e+002, 1.312709e+002
4.873774e+002, 1.311008e+002
4.878596e+002, 1.310443e+002
4.883417e+002, 1.311742e+002
4.888238e+002, 1.312159e+002
4.893059e+002, 1.309857e+002
4.897880e+002, 1.308568e+002
4.902701e+002, 1.310712e+002
4.907523e+002, 1.315329e+002
4.912344e+002, 1.320074e+002
4.917165e+002, 1.323562e+002
4.921986e+002, 1.326149e+002
4.926807e+002, 1.328854e+002
4.931628e+002, 1.331911e+002
4.936450e+002, 1.334426e+002
4.941271e+002, 1.336044e+002
4.946092e+002, 1.337157e+002
4.950913e+002, 1.337565e+002
4.955734e+002, 1.337459e+002
4.960555e+002, 1.338034e+002
4.965377e+002, 1.340453e+002
4.970198e+002, 1.344146e+002
4.975019e+002, 1.347558e+002
4.979840e+002, 1.350603e+002
4.984661e+002, 1.353627e+002
4.989482e+002, 1.356751e+002
4.994304e+002, 1.360043e+002
4.999125e+002, 1.363565e+002
5.003946e+002, 1.367263e+002
5.008767e+002, 1.371357e+002
5.013588e+002, 1.376474e+002
5.018409e+002, 1.381952e+002
5.023231e+002, 1.386902e+002
5.028052e+002, 1.391138e+002
5.032873e+002, 1.394046e+002
5.037694e+002, 1.394306e+002
5.042515e+002, 1.391790e+002
5.047336e+002, 1.393745e+002
5.052158e+002, 1.404313e+002
5.056979e+002, 1.414193e+002
5.061800e+002, 1.418882e+002
5.066621e+002, 1.421122e+002
5.071442e+002, 1.425586e+002
5.076263e+002, 1.433862e+002
5.081085e+002, 1.443205e+002
5.085906e+002, 1.449140e+002
5.090727e+002, 1.450412e+002
5.095548e+002, 1.452821e+002
5.100369e+002, 1.456469e+002
5.105190e+002, 1.461147e+002
5.110012e+002, 1.468390e+002
5.114833e+002, 1.476405e+002
5.119654e+002, 1.481617e+002
5.124475e+002, 1.481781e+002
5.129296e+002, 1.479856e+002
5.134117e+002, 1.481805e+002
5.138939e+002, 1.488415e+002
5.143760e+002, 1.492925e+002
5.148581e+002, 1.493752e+002
5.153402e+002, 1.491975e+002
5.158223e+002, 1.487284e+002
5.163044e+002, 1.480389e+002
5.167866e+002, 1.475730e+002
5.172687e+002, 1.476663e+002
5.177508e+002, 1.479971e+002
5.182329e+002, 1.482300e+002
5.187150e+002, 1.483495e+002
5.191971e+002, 1.482348e+002
5.196793e+002, 1.477607e+002
5.201614e+002, 1.470982e+002
5.206435e+002, 1.466557e+002
5.211256e+002, 1.465016e+002
5.216077e+002, 1.463083e+002
5.220898e+002, 1.459974e+002
5.225720e+002, 1.456429e+002
5.230541e+002, 1.452841e+002
5.235362e+002, 1.449409e+002
5.240183e+002, 1.446613e+002
5.245004e+002, 1.444946e+002
5.249825e+002, 1.444042e+002
5.254647e+002, 1.441884e+002
5.259468e+002, 1.436881e+002
5.264289e+002, 1.432932e+002
5.269110e+002, 1.430512e+002
5.273931e+002, 1.429105e+002
5.278752e+002, 1.428647e+002
5.283574e+002, 1.428912e+002
5.288395e+002, 1.429129e+002
5.293216e+002, 1.428368e+002
5.298037e+002, 1.426932e+002
5.302858e+002, 1.427052e+002
5.307679e+002, 1.430019e+002
5.312501e+002, 1.431530e+002
5.317322e+002, 1.428946e+002
5.322143e+002, 1.424312e+002
5.326964e+002, 1.419464e+002
5.331785e+002, 1.414676e+002
5.336606e+002, 1.409628e+002
5.341428e+002, 1.402848e+002
5.346249e+002, 1.395879e+002
5.351070e+002, 1.392711e+002
5.355891e+002, 1.394118e+002
5.360712e+002, 1.395724e+002
5.365533e+002, 1.394163e+002
5.370355e+002, 1.389939e+002
5.375176e+002, 1.386559e+002
5.379997e+002, 1.382687e+002
5.384818e+002, 1.381167e+002
5.389639e+002, 1.385268e+002
5.394460e+002, 1.391027e+002
5.399282e+002, 1.393266e+002
5.404103e+002, 1.391066e+002
5.408924e+002, 1.387335e+002
5.413745e+002, 1.385154e+002
5.418566e+002, 1.384604e+002
5.423387e+002, 1.382814e+002
5.428209e+002, 1.376952e+002
5.433029e+002, 1.373305e+002
5.437850e+002, 1.376107e+002
5.442672e+002, 1.380337e+002
5.447493e+002, 1.379639e+002
5.452314e+002, 1.372520e+002
5.457135e+002, 1.364032e+002
5.461956e+002, 1.360083e+002
5.466777e+002, 1.360209e+002
5.471599e+002, 1.358918e+002
5.476420e+002, 1.355248e+002
5.481241e+002, 1.351603e+002
5.486062e+002, 1.349832e+002
5.490883e+002, 1.349011e+002
5.495704e+002, 1.347618e+002
5.500526e+002, 1.345118e+002
5.505347e+002, 1.342648e+002
5.510168e+002, 1.341114e+002
5.514989e+002, 1.340082e+002
5.519810e+002, 1.338586e+002
5.524631e+002, 1.336419e+002
5.529453e+002, 1.334150e+002
5.534274e+002, 1.332501e+002
5.539095e+002, 1.331461e+002
5.543916e+002, 1.328848e+002
5.548737e+002, 1.323008e+002
5.553558e+002, 1.317813e+002
5.558380e+002, 1.314452e+002
5.563201e+002, 1.312235e+002
5.568022e+002, 1.310597e+002
5.572843e+002, 1.309253e+002
5.577664e+002, 1.307694e+002
5.582485e+002, 1.304933e+002
5.587307e+002, 1.300857e+002
5.592128e+002, 1.299299e+002
5.596949e+002, 1.302986e+002
5.601770e+002, 1.305270e+002
5.606591e+002, 1.302929e+002
5.611412e+002, 1.298573e+002
5.616234e+002, 1.295326e+002
5.621055e+002, 1.294025e+002
5.625876e+002, 1.293328e+002
5.630697e+002, 1.292345e+002
5.635518e+002, 1.291040e+002
5.640339e+002, 1.289257e+002
5.645161e+002, 1.286943e+002
5.649982e+002, 1.284253e+002
5.654803e+002, 1.281040e+002
5.659624e+002, 1.277541e+002
5.664445e+002, 1.274681e+002
5.669266e+002, 1.271684e+002
5.674088e+002, 1.270403e+002
5.678909e+002, 1.273772e+002
5.683730e+002, 1.278116e+002
5.688551e+002, 1.278010e+002
5.693372e+002, 1.272970e+002
5.698193e+002, 1.267539e+002
5.703015e+002, 1.266215e+002
5.707836e+002, 1.268671e+002
5.712657e+002, 1.268695e+002
5.717478e+002, 1.264008e+002
5.722299e+002, 1.259853e+002
5.727120e+002, 1.258067e+002
5.731942e+002, 1.256493e+002
5.736763e+002, 1.252434e+002
5.741584e+002, 1.245816e+002
5.746405e+002, 1.239827e+002
5.751226e+002, 1.238630e+002
5.756047e+002, 1.240542e+002
5.760869e+002, 1.237610e+002
5.765690e+002, 1.228285e+002
5.770511e+002, 1.220732e+002
5.775332e+002, 1.220449e+002
5.780153e+002, 1.223347e+002
5.784974e+002, 1.222751e+002
5.789796e+002, 1.217971e+002
5.794617e+002, 1.212337e+002
5.799438e+002, 1.206675e+002
5.804259e+002, 1.201075e+002
5.809080e+002, 1.195343e+002
5.813901e+002, 1.189640e+002
5.818723e+002, 1.184790e+002
5.823544e+002, 1.181428e+002
5.828365e+002, 1.179094e+002
5.833186e+002, 1.176205e+002
5.838007e+002, 1.172596e+002
5.842828e+002, 1.168630e+002
5.847650e+002, 1.164358e+002
5.852471e+002, 1.159712e+002
5.857292e+002, 1.154033e+002
5.862113e+002, 1.147879e+002
5.866934e+002, 1.142772e+002
5.871755e+002, 1.139732e+002
5.876577e+002, 1.138213e+002
5.881398e+002, 1.137138e+002
5.886219e+002, 1.136541e+002
5.891040e+002, 1.136199e+002
5.895861e+002, 1.136626e+002
5.900682e+002, 1.136630e+002
5.905504e+002, 1.135567e+002
5.910325e+002, 1.133353e+002
5.915146e+002, 1.129253e+002
5.919967e+002, 1.120208e+002
5.924788e+002, 1.111587e+002
5.929609e+002, 1.109289e+002
5.934431e+002, 1.111355e+002
5.939252e+002, 1.111431e+002
5.944073e+002, 1.107074e+002
5.948894e+002, 1.101567e+002
5.953715e+002, 1.099586e+002
5.958536e+002, 1.102069e+002
5.963358e+002, 1.103906e+002
5.968179e+002, 1.107286e+002
5.973000e+002, 1.107726e+002
5.977821e+002, 1.100655e+002
5.982642e+002, 1.090735e+002
5.987463e+002, 1.085066e+002
5.992285e+002, 1.085945e+002
5.997106e+002, 1.088659e+002
6.001927e+002, 1.087105e+002
6.006748e+002, 1.081475e+002
6.011569e+002, 1.077527e+002
6.016390e+002, 1.076183e+002
6.021212e+002, 1.075079e+002
6.026033e+002, 1.072140e+002
6.030854e+002, 1.068816e+002
6.035675e+002, 1.067579e+002
6.040496e+002, 1.069271e+002
6.045317e+002, 1.071378e+002
6.050139e+002, 1.073178e+002
6.054960e+002, 1.074378e+002
6.059781e+002, 1.074068e+002
6.064602e+002, 1.072361e+002
6.069423e+002, 1.071187e+002
6.074244e+002, 1.072171e+002
6.079066e+002, 1.074556e+002
6.083887e+002, 1.074833e+002
6.088708e+002, 1.069812e+002
6.093529e+002, 1.067283e+002
6.098350e+002, 1.069176e+002
6.103171e+002, 1.072240e+002
6.107993e+002, 1.074742e+002
6.112814e+002, 1.076333e+002
6.117635e+002, 1.076818e+002
6.122456e+002, 1.075616e+002
6.127277e+002, 1.073993e+002
6.132098e+002, 1.074830e+002
6.136920e+002, 1.078336e+002
6.141741e+002, 1.081951e+002
6.146562e+002, 1.085240e+002
6.151383e+002, 1.088207e+002
6.156204e+002, 1.091192e+002
6.161025e+002, 1.094056e+002
6.165847e+002, 1.095577e+002
6.170668e+002, 1.094026e+002
6.175489e+002, 1.092526e+002
6.180310e+002, 1.092590e+002
6.185131e+002, 1.094245e+002
6.189952e+002, 1.098025e+002
6.194774e+002, 1.103988e+002
6.199595e+002, 1.110127e+002
6.204416e+002, 1.113953e+002
6.209237e+002, 1.115282e+002
6.214058e+002, 1.117350e+002
6.218879e+002, 1.120600e+002
6.223701e+002, 1.124111e+002
6.228522e+002, 1.127545e+002
6.233343e+002, 1.131221e+002
6.238164e+002, 1.135723e+002
6.242985e+002, 1.141045e+002
6.247806e+002, 1.146086e+002
6.252628e+002, 1.149573e+002
6.257448e+002, 1.152131e+002
6.262269e+002, 1.155300e+002
6.267090e+002, 1.159113e+002
6.271912e+002, 1.163743e+002
6.276733e+002, 1.169658e+002
6.281554e+002, 1.176094e+002
6.286375e+002, 1.181540e+002
6.291196e+002, 1.185735e+002
6.296017e+002, 1.190317e+002
6.300839e+002, 1.195442e+002
6.305660e+002, 1.201110e+002
6.310481e+002, 1.207597e+002
6.315302e+002, 1.214626e+002
6.320123e+002, 1.221514e+002
6.324944e+002, 1.227913e+002
6.329766e+002, 1.234452e+002
6.334587e+002, 1.242281e+002
6.339408e+002, 1.251699e+002
6.344229e+002, 1.260950e+002
6.349050e+002, 1.268781e+002
6.353871e+002, 1.278072e+002
6.358693e+002, 1.291237e+002
6.363514e+002, 1.306104e+002
6.368335e+002, 1.319617e+002
6.373156e+002, 1.331141e+002
6.377977e+002, 1.340651e+002
6.382798e+002, 1.346545e+002
6.387620e+002, 1.350816e+002
6.392441e+002, 1.357215e+002
6.397262e+002, 1.366147e+002
6.402083e+002, 1.376618e+002
6.406904e+002, 1.388096e+002
6.411725e+002, 1.400484e+002
6.416547e+002, 1.413609e+002
6.421368e+002, 1.428768e+002
6.426189e+002, 1.442645e+002
6.431010e+002, 1.454978e+002
6.435831e+002, 1.466233e+002
6.440652e+002, 1.476047e+002
6.445474e+002, 1.485090e+002
6.450295e+002, 1.494937e+002
6.455116e+002, 1.506458e+002
6.459937e+002, 1.518685e+002
6.464758e+002, 1.529914e+002
6.469579e+002, 1.540156e+002
6.474401e+002, 1.550997e+002
6.479222e+002, 1.562967e+002
6.484043e+002, 1.574848e+002
6.488864e+002, 1.585139e+002
6.493685e+002, 1.594602e+002
6.498506e+002, 1.605414e+002
6.503328e+002, 1.619244e+002
6.508149e+002, 1.632124e+002
6.512970e+002, 1.642147e+002
6.517791e+002, 1.650549e+002
6.522612e+002, 1.658640e+002
6.527433e+002, 1.666606e+002
6.532255e+002, 1.673772e+002
6.537076e+002, 1.679342e+002
6.541897e+002, 1.684331e+002
6.546718e+002, 1.692919e+002
6.551539e+002, 1.706801e+002
6.556360e+002, 1.720088e+002
6.561182e+002, 1.732767e+002
6.566003e+002, 1.743902e+002
6.570824e+002, 1.752752e+002
6.575645e+002, 1.759555e+002
6.580466e+002, 1.764903e+002
6.585287e+002, 1.768255e+002
6.590109e+002, 1.771486e+002
6.594930e+002, 1.776939e+002
6.599751e+002, 1.783660e+002
6.604572e+002, 1.788758e+002
6.609393e+002, 1.791551e+002
6.614214e+002, 1.794207e+002
6.619036e+002, 1.798726e+002
6.623857e+002, 1.804905e+002
6.628678e+002, 1.810380e+002
6.633499e+002, 1.815369e+002
6.638320e+002, 1.819361e+002
6.643141e+002, 1.821587e+002
6.647963e+002, 1.823398e+002
6.652784e+002, 1.826377e+002
6.657605e+002, 1.830082e+002
6.662426e+002, 1.832621e+002
6.667247e+002, 1.833053e+002
6.672068e+002, 1.831293e+002
6.676890e+002, 1.826643e+002
6.681711e+002, 1.819181e+002
6.686532e+002, 1.811275e+002
6.691353e+002, 1.802854e+002
6.696174e+002, 1.795660e+002
6.700995e+002, 1.792305e+002
6.705817e+002, 1.792227e+002
6.710638e+002, 1.789720e+002
6.715459e+002, 1.785754e+002
6.720280e+002, 1.778040e+002
6.725101e+002, 1.762845e+002
6.729922e+002, 1.745359e+002
6.734744e+002, 1.731246e+002
6.739565e+002, 1.720995e+002
6.744386e+002, 1.711657e+002
6.749207e+002, 1.701181e+002
6.754028e+002, 1.689494e+002
6.758849e+002, 1.675744e+002
6.763671e+002, 1.659051e+002
6.768492e+002, 1.644144e+002
6.773313e+002, 1.631322e+002
6.778134e+002, 1.621277e+002
6.782955e+002, 1.616393e+002
6.787776e+002, 1.614854e+002
6.792598e+002, 1.610000e+002
6.797419e+002, 1.597190e+002
6.802240e+002, 1.584727e+002
6.807061e+002, 1.578281e+002
6.811882e+002, 1.575048e+002
6.816703e+002, 1.570499e+002
6.821525e+002, 1.563957e+002
6.826346e+002, 1.557555e+002
6.831167e+002, 1.553164e+002
6.835988e+002, 1.550215e+002
6.840809e+002, 1.545695e+002
6.845630e+002, 1.538472e+002
6.850452e+002, 1.532188e+002
6.855273e+002, 1.527274e+002
6.860094e+002, 1.523528e+002
6.864915e+002, 1.522277e+002
6.869736e+002, 1.522189e+002
6.874557e+002, 1.519242e+002
6.879379e+002, 1.510255e+002
6.884200e+002, 1.500913e+002
6.889021e+002, 1.496090e+002
6.893842e+002, 1.494796e+002
6.898663e+002, 1.495652e+002
6.903484e+002, 1.498296e+002
6.908306e+002, 1.500024e+002
6.913127e+002, 1.498716e+002
6.917948e+002, 1.494751e+002
6.922769e+002, 1.489971e+002
6.927590e+002, 1.484047e+002
6.932411e+002, 1.477802e+002
6.937233e+002, 1.470104e+002
6.942054e+002, 1.463245e+002
6.946875e+002, 1.459793e+002
6.951696e+002, 1.458258e+002
6.956517e+002, 1.454408e+002
6.961339e+002, 1.445520e+002
6.966160e+002, 1.436460e+002
6.970981e+002, 1.435730e+002
6.975802e+002, 1.439571e+002
6.980623e+002, 1.432314e+002
6.985444e+002, 1.410854e+002
6.990266e+002, 1.390248e+002
6.995087e+002, 1.381247e+002
6.999908e+002, 1.381114e+002
7.004729e+002, 1.379649e+002
7.009550e+002, 1.376851e+002
7.014371e+002, 1.372602e+002
7.019193e+002, 1.365613e+002
7.024014e+002, 1.358351e+002
7.028835e+002, 1.351982e+002
7.033656e+002, 1.346597e+002
7.038477e+002, 1.341729e+002
7.043298e+002, 1.337108e+002
7.048120e+002, 1.333921e+002
7.052941e+002, 1.334231e+002
7.057762e+002, 1.337433e+002
7.062583e+002, 1.340928e+002
7.067404e+002, 1.344690e+002
7.072225e+002, 1.346954e+002
7.077046e+002, 1.345479e+002
7.081867e+002, 1.342733e+002
7.086688e+002, 1.345656e+002
7.091509e+002, 1.358124e+002
7.096331e+002, 1.366042e+002
7.101152e+002, 1.363197e+002
7.105973e+002, 1.360738e+002
7.110794e+002, 1.365066e+002
7.115615e+002, 1.374542e+002
7.120436e+002, 1.386275e+002
7.125258e+002, 1.399157e+002
7.130079e+002, 1.411051e+002
7.134900e+002, 1.418952e+002
7.139721e+002, 1.423584e+002
7.144542e+002, 1.429513e+002
7.149363e+002, 1.437240e+002
7.154185e+002, 1.443376e+002
7.159006e+002, 1.444888e+002
7.163827e+002, 1.445415e+002
7.168648e+002, 1.451867e+002
7.173469e+002, 1.465369e+002
7.178290e+002, 1.477169e+002
7.183112e+002, 1.484632e+002
7.187933e+002, 1.492247e+002
7.192754e+002, 1.503624e+002
7.197575e+002, 1.515974e+002
7.202396e+002, 1.524797e+002
7.207217e+002, 1.529178e+002
7.212039e+002, 1.532489e+002
7.216860e+002, 1.537391e+002
7.221681e+002, 1.544040e+002
7.226502e+002, 1.553925e+002
7.231323e+002, 1.567783e+002
7.236144e+002, 1.578962e+002
7.240966e+002, 1.583992e+002
7.245787e+002, 1.587530e+002
7.250608e+002, 1.595522e+002
7.255429e+002, 1.607910e+002
7.260250e+002, 1.617888e+002
7.265071e+002, 1.623020e+002
7.269893e+002, 1.628265e+002
7.274714e+002, 1.635193e+002
7.279535e+002, 1.643328e+002
7.284356e+002, 1.652226e+002
7.289177e+002, 1.661675e+002
7.293998e+002, 1.671520e+002
7.298820e+002, 1.681992e+002
7.303641e+002, 1.692138e+002
7.308462e+002, 1.699163e+002
7.313283e+002, 1.702892e+002
7.318104e+002, 1.708320e+002
7.322925e+002, 1.717208e+002
7.327747e+002, 1.726061e+002
7.332568e+002, 1.731716e+002
7.337389e+002, 1.734802e+002
7.342210e+002, 1.738873e+002
7.347031e+002, 1.741983e+002
7.351852e+002, 1.748966e+002
7.356674e+002, 1.766832e+002
7.361495e+002, 1.784119e+002
7.366316e+002, 1.789610e+002
7.371137e+002, 1.786152e+002
7.375958e+002, 1.784075e+002
7.380779e+002, 1.788601e+002
7.385601e+002, 1.795623e+002
7.390422e+002, 1.798241e+002
7.395243e+002, 1.797212e+002
7.400064e+002, 1.800853e+002
7.404885e+002, 1.811105e+002
7.409706e+002, 1.819948e+002
7.414528e+002, 1.822164e+002
7.419349e+002, 1.820664e+002
7.424170e+002, 1.822041e+002
7.428991e+002, 1.827423e+002
7.433812e+002, 1.831559e+002
7.438633e+002, 1.833396e+002
7.443455e+002, 1.834571e+002
7.448276e+002, 1.835969e+002
7.453097e+002, 1.837278e+002
7.457918e+002, 1.838095e+002
7.462739e+002, 1.838247e+002
7.467560e+002, 1.837394e+002
7.472382e+002, 1.834240e+002
7.477203e+002, 1.829997e+002
7.482024e+002, 1.828408e+002
7.486845e+002, 1.829511e+002
7.491666e+002, 1.832708e+002
7.496487e+002, 1.839041e+002
7.501309e+002, 1.844316e+002
7.506130e+002, 1.843078e+002
7.510951e+002, 1.834874e+002
7.515772e+002, 1.828049e+002
7.520593e+002, 1.823997e+002
7.525414e+002, 1.819367e+002
7.530236e+002, 1.812573e+002
7.535057e+002, 1.805438e+002
7.539878e+002, 1.798902e+002
7.544699e+002, 1.793547e+002
7.549520e+002, 1.791020e+002
7.554341e+002, 1.794050e+002
7.559163e+002, 1.796454e+002
7.563984e+002, 1.787661e+002
7.568805e+002, 1.770311e+002
7.573626e+002, 1.756366e+002
7.578447e+002, 1.747878e+002
7.583268e+002, 1.740579e+002
7.588090e+002, 1.731814e+002
7.592911e+002, 1.721636e+002
7.597732e+002, 1.710026e+002
7.602553e+002, 1.694688e+002
7.607374e+002, 1.682162e+002
7.612195e+002, 1.675496e+002
7.617017e+002, 1.668337e+002
7.621838e+002, 1.657146e+002
7.626659e+002, 1.643722e+002
7.631480e+002, 1.630930e+002
7.636301e+002, 1.619597e+002
7.641122e+002, 1.608875e+002
7.645944e+002, 1.598002e+002
7.650765e+002, 1.587415e+002
7.655586e+002, 1.578481e+002
7.660407e+002, 1.570677e+002
7.665228e+002, 1.560827e+002
7.670049e+002, 1.547460e+002
7.674871e+002, 1.534143e+002
7.679692e+002, 1.525909e+002
7.684513e+002, 1.522936e+002
7.689334e+002, 1.518764e+002
7.694155e+002, 1.513787e+002
7.698976e+002, 1.506821e+002
7.703798e+002, 1.494874e+002
7.708619e+002, 1.483045e+002
7.713440e+002, 1.476182e+002
7.718261e+002, 1.473492e+002
7.723082e+002, 1.469799e+002
7.727903e+002, 1.461897e+002
7.732725e+002, 1.454368e+002
7.737546e+002, 1.451267e+002
7.742367e+002, 1.450265e+002
7.747188e+002, 1.447297e+002
7.752009e+002, 1.442250e+002
7.756830e+002, 1.438562e+002
7.761652e+002, 1.438770e+002
7.766473e+002, 1.440408e+002
7.771294e+002, 1.436602e+002
7.776115e+002, 1.425835e+002
7.780936e+002, 1.420098e+002
7.785757e+002, 1.422406e+002
7.790579e+002, 1.425639e+002
7.795400e+002, 1.425872e+002
7.800221e+002, 1.424677e+002
7.805042e+002, 1.425154e+002
7.809863e+002, 1.428246e+002
7.814684e+002, 1.428736e+002
7.819506e+002, 1.423606e+002
7.824327e+002, 1.417258e+002
7.829148e+002, 1.410410e+002
7.833969e+002, 1.405035e+002
7.838790e+002, 1.405063e+002
7.843611e+002, 1.410891e+002
7.848433e+002, 1.417451e+002
7.853254e+002, 1.420071e+002
7.858075e+002, 1.419875e+002
7.862896e+002, 1.420396e+002
7.867717e+002, 1.421664e+002
7.872538e+002, 1.421122e+002
7.877360e+002, 1.417547e+002
7.882181e+002, 1.413806e+002
7.887002e+002, 1.412717e+002
7.891823e+002, 1.413906e+002
7.896644e+002, 1.414234e+002
7.901465e+002, 1.413952e+002
7.906286e+002, 1.412499e+002
7.911107e+002, 1.408502e+002
7.915928e+002, 1.404555e+002
7.920750e+002, 1.401778e+002
7.925571e+002, 1.400471e+002
7.930392e+002, 1.401536e+002
7.935213e+002, 1.405688e+002
7.940034e+002, 1.408771e+002
7.944855e+002, 1.406296e+002
7.949677e+002, 1.400618e+002
7.954498e+002, 1.395831e+002
7.959319e+002, 1.392110e+002
7.964140e+002, 1.388790e+002
7.968961e+002, 1.385551e+002
7.973782e+002, 1.382827e+002
7.978604e+002, 1.381301e+002
7.983425e+002, 1.381016e+002
7.988246e+002, 1.380725e+002
7.993067e+002, 1.381404e+002
7.997888e+002, 1.380286e+002
8.002709e+002, 1.374023e+002
8.007531e+002, 1.367811e+002
8.012352e+002, 1.366239e+002
8.017173e+002, 1.368450e+002
8.021994e+002, 1.369760e+002
8.026815e+002, 1.368722e+002
8.031636e+002, 1.366879e+002
8.036458e+002, 1.364303e+002
8.041279e+002, 1.361825e+002
8.046100e+002, 1.360965e+002
8.050921e+002, 1.361254e+002
8.055742e+002, 1.360565e+002
8.060563e+002, 1.357714e+002
8.065385e+002, 1.353915e+002
8.070206e+002, 1.351911e+002
8.075027e+002, 1.351336e+002
8.079848e+002, 1.346021e+002
8.084669e+002, 1.334457e+002
8.089490e+002, 1.324549e+002
8.094312e+002, 1.319911e+002
8.099133e+002, 1.318648e+002
8.103954e+002, 1.318821e+002
8.108775e+002, 1.321197e+002
8.113596e+002, 1.319503e+002
8.118417e+002, 1.310529e+002
8.123239e+002, 1.301670e+002
8.128060e+002, 1.293341e+002
8.132881e+002, 1.287178e+002
8.137702e+002, 1.285994e+002
8.142523e+002, 1.288737e+002
8.147344e+002, 1.290869e+002
8.152166e+002, 1.290616e+002
8.156987e+002, 1.287881e+002
8.161808e+002, 1.280548e+002
8.166629e+002, 1.271163e+002
8.171450e+002, 1.265883e+002
8.176271e+002, 1.265044e+002
8.181093e+002, 1.264678e+002
8.185914e+002, 1.262600e+002
8.190735e+002, 1.259202e+002
8.195556e+002, 1.255044e+002
8.200377e+002, 1.249860e+002
8.205198e+002, 1.245506e+002
8.210020e+002, 1.242241e+002
8.214841e+002, 1.239243e+002
8.219662e+002, 1.236779e+002
8.224483e+002, 1.234020e+002
8.229304e+002, 1.229108e+002
8.234125e+002, 1.222218e+002
8.238947e+002, 1.218547e+002
8.243768e+002, 1.223125e+002
8.248589e+002, 1.226354e+002
8.253410e+002, 1.223727e+002
8.258231e+002, 1.217806e+002
8.263052e+002, 1.210197e+002
8.267874e+002, 1.202101e+002
8.272695e+002, 1.195960e+002
8.277516e+002, 1.193392e+002
8.282337e+002, 1.192056e+002
8.287158e+002, 1.188160e+002
8.291979e+002, 1.182571e+002
8.296801e+002, 1.179423e+002
8.301622e+002, 1.179107e+002
8.306443e+002, 1.177836e+002
8.311264e+002, 1.173524e+002
8.316085e+002, 1.167913e+002
8.320906e+002, 1.163934e+002
8.325728e+002, 1.161980e+002
8.330549e+002, 1.158801e+002
8.335370e+002, 1.152289e+002
8.340191e+002, 1.147644e+002
8.345012e+002, 1.147535e+002
8.349833e+002, 1.148442e+002
8.354655e+002, 1.147939e+002
8.359476e+002, 1.145874e+002
8.364297e+002, 1.142465e+002
8.369118e+002, 1.136778e+002
8.373939e+002, 1.131376e+002
8.378760e+002, 1.127031e+002
8.383582e+002, 1.124125e+002
8.388403e+002, 1.124167e+002
8.393224e+002, 1.126110e+002
8.398045e+002, 1.126820e+002
8.402866e+002, 1.124825e+002
8.407687e+002, 1.120990e+002
8.412509e+002, 1.115174e+002
8.417330e+002, 1.108256e+002
8.422151e+002, 1.106276e+002
8.426972e+002, 1.109686e+002
8.431793e+002, 1.112089e+002
8.436614e+002, 1.110991e+002
8.441436e+002, 1.108557e+002
8.446257e+002, 1.107169e+002
8.451078e+002, 1.106796e+002
8.455899e+002, 1.106591e+002
8.460720e+002, 1.108123e+002
8.465541e+002, 1.107433e+002
8.470363e+002, 1.102636e+002
8.475184e+002, 1.097032e+002
8.480005e+002, 1.091795e+002
8.484826e+002, 1.087494e+002
8.489647e+002, 1.085129e+002
8.494468e+002, 1.085202e+002
8.499290e+002, 1.086114e+002
8.504111e+002, 1.088154e+002
8.508932e+002, 1.089701e+002
8.513753e+002, 1.087800e+002
8.518574e+002, 1.084290e+002
8.523395e+002, 1.084750e+002
8.528217e+002, 1.090256e+002
8.533038e+002, 1.094086e+002
8.537859e+002, 1.088272e+002
8.542680e+002, 1.076901e+002
8.547501e+002, 1.073836e+002
8.552322e+002, 1.079063e+002
8.557144e+002, 1.082148e+002
8.561965e+002, 1.080830e+002
8.566786e+002, 1.077837e+002
8.571607e+002, 1.074789e+002
8.576428e+002, 1.071901e+002
8.581249e+002, 1.069880e+002
8.586071e+002, 1.069096e+002
8.590892e+002, 1.068379e+002
8.595713e+002, 1.067870e+002
8.600534e+002, 1.067248e+002
8.605355e+002, 1.067075e+002
8.610176e+002, 1.066330e+002
8.614998e+002, 1.062699e+002
8.619819e+002, 1.056276e+002
8.624640e+002, 1.052647e+002
8.629461e+002, 1.056616e+002
8.634282e+002, 1.061318e+002
8.639103e+002, 1.061687e+002
8.643925e+002, 1.060072e+002
8.648746e+002, 1.060009e+002
8.653567e+002, 1.061547e+002
8.658388e+002, 1.062479e+002
8.663209e+002, 1.061549e+002
8.668030e+002, 1.059235e+002
8.672852e+002, 1.055481e+002
8.677673e+002, 1.050838e+002
8.682494e+002, 1.048304e+002
8.687315e+002, 1.048094e+002
8.692136e+002, 1.048871e+002
8.696957e+002, 1.050094e+002
8.701779e+002, 1.052194e+002
8.706600e+002, 1.056345e+002
8.711421e+002, 1.062612e+002
8.716242e+002, 1.063973e+002
8.721063e+002, 1.057213e+002
8.725884e+002, 1.051204e+002
8.730705e+002, 1.046539e+002
8.735526e+002, 1.043872e+002
8.740347e+002, 1.045218e+002
8.745168e+002, 1.048698e+002
8.749990e+002, 1.049437e+002
8.754811e+002, 1.045273e+002
8.759632e+002, 1.042609e+002
8.764453e+002, 1.045896e+002
8.769274e+002, 1.049349e+002
8.774095e+002, 1.048394e+002
8.778917e+002, 1.044673e+002
8.783738e+002, 1.040594e+002
8.788559e+002, 1.037166e+002
8.793380e+002, 1.035902e+002
8.798201e+002, 1.039067e+002
8.803022e+002, 1.043801e+002
8.807844e+002, 1.045077e+002
8.812665e+002, 1.043843e+002
8.817486e+002, 1.043996e+002
8.822307e+002, 1.046020e+002
8.827128e+002, 1.046642e+002
8.831949e+002, 1.043575e+002
8.836771e+002, 1.038783e+002
8.841592e+002, 1.036672e+002
8.846413e+002, 1.037842e+002
8.851234e+002, 1.036776e+002
8.856055e+002, 1.031883e+002
8.860876e+002, 1.028770e+002
8.865698e+002, 1.030564e+002
8.870519e+002, 1.033727e+002
8.875340e+002, 1.033986e+002
8.880161e+002, 1.031597e+002
8.884982e+002, 1.030665e+002
8.889803e+002, 1.032422e+002
8.894625e+002, 1.034060e+002
8.899446e+002, 1.034957e+002
8.904267e+002, 1.035730e+002
8.909088e+002, 1.036821e+002
8.913909e+002, 1.038113e+002
8.918730e+002, 1.039374e+002
8.923552e+002, 1.040567e+002
8.928373e+002, 1.041426e+002
8.933194e+002, 1.042320e+002
8.938015e+002, 1.042361e+002
8.942836e+002, 1.040142e+002
8.947657e+002, 1.036466e+002
8.952479e+002, 1.032550e+002
8.957300e+002, 1.028952e+002
8.962121e+002, 1.026621e+002
8.966942e+002, 1.026273e+002
8.971763e+002, 1.027639e+002
8.976584e+002, 1.030989e+002
8.981406e+002, 1.035952e+002
8.986227e+002, 1.038692e+002
8.991048e+002, 1.038704e+002
8.995869e+002, 1.038551e+002
9.000690e+002, 1.039787e+002
9.005511e+002, 1.040388e+002
9.010333e+002, 1.036875e+002
9.015154e+002, 1.028941e+002
9.019975e+002, 1.023828e+002
9.024796e+002, 1.022122e+002
9.029617e+002, 1.022152e+002
9.034438e+002, 1.024598e+002
9.039260e+002, 1.027762e+002
9.044081e+002, 1.031660e+002
9.048902e+002, 1.035260e+002
9.053723e+002, 1.035805e+002
9.058544e+002, 1.032544e+002
9.063365e+002, 1.027552e+002
9.068187e+002, 1.017449e+002
9.073008e+002, 1.009873e+002
9.077829e+002, 1.011737e+002
9.082650e+002, 1.017814e+002
9.087471e+002, 1.021193e+002
9.092292e+002, 1.020635e+002
9.097114e+002, 1.018328e+002
9.101935e+002, 1.014504e+002
9.106756e+002, 1.011142e+002
9.111577e+002, 1.010771e+002
9.116398e+002, 1.012080e+002
9.121219e+002, 1.012642e+002
9.126041e+002, 1.012383e+002
9.130862e+002, 1.012657e+002
9.135683e+002, 1.014110e+002
9.140504e+002, 1.015539e+002
9.145325e+002, 1.015263e+002
9.150146e+002, 1.013536e+002
9.154968e+002, 1.011427e+002
9.159789e+002, 1.008881e+002
9.164610e+002, 1.007968e+002
9.169431e+002, 1.009509e+002
9.174252e+002, 1.011553e+002
9.179073e+002, 1.012903e+002
9.183895e+002, 1.013125e+002
9.188716e+002, 1.010390e+002
9.193537e+002, 1.002835e+002
9.198358e+002, 9.968733e+001
9.203179e+002, 9.913672e+001
9.208000e+002, 9.891268e+001
9.212822e+002, 9.956381e+001
9.217643e+002, 1.003129e+002
9.222464e+002, 1.001442e+002
9.227285e+002, 9.909934e+001
9.232106e+002, 9.847845e+001
9.236927e+002, 9.888860e+001
9.241749e+002, 9.916188e+001
9.246570e+002, 9.876287e+001
9.251391e+002, 9.829367e+001
9.256212e+002, 9.834963e+001
9.261033e+002, 9.868214e+001
9.265854e+002, 9.866847e+001
9.270676e+002, 9.811837e+001
9.275497e+002, 9.755234e+001
9.280318e+002, 9.728543e+001
9.285139e+002, 9.719558e+001
9.289960e+002, 9.722355e+001
9.294781e+002, 9.731142e+001
9.299603e+002, 9.735984e+001
9.304424e+002, 9.735426e+001
9.309245e+002, 9.733881e+001
9.314066e+002, 9.734510e+001
9.318887e+002, 9.733546e+001
9.323708e+002, 9.720310e+001
9.328530e+002, 9.700093e+001
9.333351e+002, 9.704128e+001
9.338172e+002, 9.731107e+001
9.342993e+002, 9.722410e+001
9.347814e+002, 9.652092e+001
9.352635e+002, 9.585421e+001
9.357457e+002, 9.599201e+001
9.362278e+002, 9.675549e+001
9.367099e+002, 9.705575e+001
9.371920e+002, 9.675786e+001
9.376741e+002, 9.660654e+001
9.381563e+002, 9.679761e+001
9.386384e+002, 9.687864e+001
9.391205e+002, 9.648080e+001
9.396026e+002, 9.591840e+001
9.400847e+002, 9.578255e+001
9.405668e+002, 9.617141e+001
9.410490e+002, 9.640807e+001
9.415311e+002, 9.633266e+001
9.420132e+002, 9.633179e+001
9.424953e+002, 9.664375e+001
9.429774e+002, 9.690636e+001
9.434595e+002, 9.668720e+001
9.439417e+002, 9.622635e+001
9.444238e+002, 9.624979e+001
9.449059e+002, 9.713226e+001
9.453880e+002, 9.759514e+001
9.458701e+002, 9.670611e+001
9.463522e+002, 9.576160e+001
9.468344e+002, 9.558253e+001
9.473165e+002, 9.590308e+001
9.477986e+002, 9.634056e+001
9.482807e+002, 9.683077e+001
9.487628e+002, 9.756386e+001
9.492449e+002, 9.888007e+001
9.497271e+002, 9.985081e+001
9.502092e+002, 9.920519e+001
9.506913e+002, 9.786692e+001
9.511734e+002, 9.724300e+001
9.516555e+002, 9.726880e+001
9.521376e+002, 9.734490e+001
9.526198e+002, 9.725623e+001
9.531019e+002, 9.709306e+001
9.535840e+002, 9.689442e+001
9.540661e+002, 9.674175e+001
9.545482e+002, 9.691230e+001
9.550303e+002, 9.733994e+001
9.555124e+002, 9.755592e+001
9.559945e+002, 9.749574e+001
9.564766e+002, 9.744095e+001
9.569587e+002, 9.753956e+001
9.574409e+002, 9.774570e+001
9.579230e+002, 9.800503e+001
9.584051e+002, 9.831645e+001
9.588872e+002, 9.854023e+001
9.593693e+002, 9.869543e+001
9.598514e+002, 9.861936e+001
9.603336e+002, 9.806419e+001
9.608157e+002, 9.779565e+001
9.612978e+002, 9.863467e+001
9.617799e+002, 1.000347e+002
9.622620e+002, 1.004026e+002
9.627441e+002, 9.927837e+001
9.632263e+002, 9.854410e+001
9.637084e+002, 9.834853e+001
9.641905e+002, 9.835072e+001
9.646726e+002, 9.863802e+001
9.651547e+002, 9.893537e+001
9.656368e+002, 9.897160e+001
9.661190e+002, 9.880176e+001
9.666011e+002, 9.869363e+001
9.670832e+002, 9.863416e+001
9.675653e+002, 9.873049e+001
9.680474e+002, 9.925065e+001
9.685295e+002, 9.966783e+001
9.690117e+002, 9.962491e+001
9.694938e+002, 9.932669e+001
9.699759e+002, 9.893419e+001
9.704580e+002, 9.854184e+001
9.709401e+002, 9.850459e+001
9.714222e+002, 9.930981e+001
9.719044e+002, 9.997116e+001
9.723865e+002, 9.965592e+001
9.728686e+002, 9.904823e+001
9.733507e+002, 9.883259e+001
9.738328e+002, 9.895438e+001
9.743149e+002, 9.915379e+001
9.747971e+002, 9.934135e+001
9.752792e+002, 9.952236e+001
9.757613e+002, 9.973370e+001
9.762434e+002, 9.990275e+001
9.767255e+002, 9.989068e+001
9.772076e+002, 9.977535e+001
9.776898e+002, 9.973315e+001
9.781719e+002, 9.976774e+001
9.786540e+002, 9.977296e+001
9.791361e+002, 9.969826e+001
9.796182e+002, 9.958521e+001
9.801003e+002, 9.944753e+001
9.805825e+002, 9.932606e+001
9.810646e+002, 9.937949e+001
9.815467e+002, 9.959146e+001
9.820288e+002, 9.988189e+001
9.825109e+002, 1.002332e+002
9.829930e+002, 1.004081e+002
9.834752e+002, 1.002285e+002
9.839573e+002, 9.988648e+001
9.844394e+002, 9.973434e+001
9.849215e+002, 9.977290e+001
9.854036e+002, 9.993609e+001
9.858857e+002, 1.002693e+002
9.863679e+002, 1.004140e+002
9.868500e+002, 1.001898e+002
9.873321e+002, 1.000475e+002
9.878142e+002, 1.004124e+002
9.882963e+002, 1.010842e+002
9.887784e+002, 1.014123e+002
9.892606e+002, 1.012518e+002
9.897427e+002, 1.012669e+002
9.902248e+002, 1.015912e+002
9.907069e+002, 1.018291e+002
9.911890e+002, 1.018002e+002
9.916711e+002, 1.017004e+002
9.921533e+002, 1.017209e+002
9.926354e+002, 1.018384e+002
9.931175e+002, 1.019125e+002
9.935996e+002, 1.018953e+002
9.940817e+002, 1.019216e+002
9.945638e+002, 1.019320e+002
9.950460e+002, 1.020608e+002
9.955281e+002, 1.024109e+002
9.960102e+002, 1.028691e+002
9.964923e+002, 1.034091e+002
9.969744e+002, 1.039786e+002
9.974565e+002, 1.042528e+002
9.979387e+002, 1.039074e+002
9.984208e+002, 1.037006e+002
9.989029e+002, 1.039020e+002
9.993850e+002, 1.042154e+002
9.998671e+002, 1.044840e+002
1.000349e+003, 1.047311e+002
1.000831e+003, 1.049719e+002
1.001313e+003, 1.052273e+002
1.001796e+003, 1.056263e+002
1.002278e+003, 1.065061e+002
1.002760e+003, 1.071060e+002
1.003242e+003, 1.066912e+002
1.003724e+003, 1.060873e+002
1.004206e+003, 1.060513e+002
1.004688e+003, 1.064397e+002
1.005170e+003, 1.069121e+002
1.005653e+003, 1.073495e+002
1.006135e+003, 1.076089e+002
1.006617e+003, 1.074622e+002
1.007099e+003, 1.072875e+002
1.007581e+003, 1.075719e+002
1.008063e+003, 1.079685e+002
1.008545e+003, 1.078271e+002
1.009027e+003, 1.073522e+002
1.009509e+003, 1.073161e+002
1.009992e+003, 1.079609e+002
1.010474e+003, 1.087222e+002
1.010956e+003, 1.091665e+002
1.011438e+003, 1.093681e+002
1.011920e+003, 1.093852e+002
1.012402e+003, 1.092599e+002
1.012884e+003, 1.089809e+002
1.013366e+003, 1.086364e+002
1.013849e+003, 1.086513e+002
1.014331e+003, 1.091996e+002
1.014813e+003, 1.097543e+002
1.015295e+003, 1.096314e+002
1.015777e+003, 1.091512e+002
1.016259e+003, 1.091703e+002
1.016741e+003, 1.095721e+002
1.017223e+003, 1.098243e+002
1.017705e+003, 1.098488e+002
1.018188e+003, 1.097523e+002
1.018670e+003, 1.095841e+002
1.019152e+003, 1.094039e+002
1.019634e+003, 1.092801e+002
1.020116e+003, 1.092191e+002
1.020598e+003, 1.093074e+002
1.021080e+003, 1.095327e+002
1.021562e+003, 1.095503e+002
1.022044e+003, 1.092905e+002
1.022527e+003, 1.090114e+002
1.023009e+003, 1.088667e+002
1.023491e+003, 1.087593e+002
1.023973e+003, 1.085339e+002
1.024455e+003, 1.081946e+002
1.024937e+003, 1.078202e+002
1.025419e+003, 1.074168e+002
1.025901e+003, 1.069154e+002
1.026384e+003, 1.062622e+002
1.026866e+003, 1.056864e+002
1.027348e+003, 1.053281e+002
1.027830e+003, 1.051419e+002
1.028312e+003, 1.050695e+002
1.028794e+003, 1.051193e+002
1.029276e+003, 1.050631e+002
1.029758e+003, 1.048908e+002
1.030240e+003, 1.046193e+002
1.030723e+003, 1.041478e+002
1.031205e+003, 1.038551e+002
1.031687e+003, 1.041611e+002
1.032169e+003, 1.046106e+002
1.032651e+003, 1.041922e+002
1.033133e+003, 1.027345e+002
1.033615e+003, 1.018865e+002
1.034097e+003, 1.020287e+002
1.034579e+003, 1.019228e+002
1.035062e+003, 1.010863e+002
1.035544e+003, 1.003371e+002
1.036026e+003, 1.003364e+002
1.036508e+003, 1.007200e+002
1.036990e+003, 1.007023e+002
1.037472e+003, 1.001806e+002
1.037954e+003, 9.983863e+001
1.038436e+003, 9.996008e+001
1.038919e+003, 9.980315e+001
1.039401e+003, 9.898447e+001
1.039883e+003, 9.813548e+001
1.040365e+003, 9.772605e+001
1.040847e+003, 9.755077e+001
1.041329e+003, 9.714471e+001
1.041811e+003, 9.641952e+001
1.042293e+003, 9.593034e+001
1.042776e+003, 9.596382e+001
1.043258e+003, 9.584446e+001
1.043740e+003, 9.533076e+001
1.044222e+003, 9.474580e+001
1.044704e+003, 9.425798e+001
1.045186e+003, 9.386160e+001
1.045668e+003, 9.353268e+001
1.046150e+003, 9.326530e+001
1.046632e+003, 9.310648e+001
1.047115e+003, 9.323127e+001
1.047597e+003, 9.322963e+001
1.048079e+003, 9.285777e+001
1.048561e+003, 9.246743e+001
1.049043e+003, 9.237697e+001
1.049525e+003, 9.241331e+001
1.050007e+003, 9.224055e+001
1.050489e+003, 9.181468e+001
1.050971e+003, 9.127239e+001
1.051454e+003, 9.047399e+001
1.051936e+003, 8.979160e+001
1.052418e+003, 8.933981e+001
1.052900e+003, 8.903774e+001
1.053382e+003, 8.886733e+001
1.053864e+003, 8.878561e+001
1.054346e+003, 8.878468e+001
1.054828e+003, 8.886965e+001
1.055311e+003, 8.872694e+001
1.055793e+003, 8.811150e+001
1.056275e+003, 8.747619e+001
1.056757e+003, 8.687639e+001
1.057239e+003, 8.640918e+001
1.057721e+003, 8.617489e+001
1.058203e+003, 8.611450e+001
1.058685e+003, 8.618332e+001
1.059167e+003, 8.636398e+001
1.059650e+003, 8.637316e+001
1.060132e+003, 8.605336e+001
1.060614e+003, 8.563442e+001
1.061096e+003, 8.496142e+001
1.061578e+003, 8.445609e+001
1.062060e+003, 8.464537e+001
1.062542e+003, 8.512826e+001
1.063024e+003, 8.515660e+001
1.063506e+003, 8.465455e+001
1.063989e+003, 8.433010e+001
1.064471e+003, 8.473840e+001
1.064953e+003, 8.494405e+001
1.065435e+003, 8.427901e+001
1.065917e+003, 8.354581e+001
1.066399e+003, 8.343344e+001
1.066881e+003, 8.363091e+001
1.067363e+003, 8.362612e+001
1.067846e+003, 8.334468e+001
1.068328e+003, 8.296949e+001
1.068810e+003, 8.246342e+001
1.069292e+003, 8.206092e+001
1.069774e+003, 8.195078e+001
1.070256e+003, 8.189919e+001
1.070738e+003, 8.167014e+001
1.071220e+003, 8.142028e+001
1.071703e+003, 8.148183e+001
1.072185e+003, 8.180727e+001
1.072667e+003, 8.186193e+001
1.073149e+003, 8.129904e+001
1.073631e+003, 8.078856e+001
1.074113e+003, 8.072176e+001
1.074595e+003, 8.073562e+001
1.075077e+003, 8.051487e+001
1.075559e+003, 8.024576e+001
1.076042e+003, 8.028780e+001
1.076524e+003, 8.056662e+001
1.077006e+003, 8.055718e+001
1.077488e+003, 7.997199e+001
1.077970e+003, 7.943539e+001
1.078452e+003, 7.914747e+001
1.078934e+003, 7.910380e+001
1.079416e+003, 7.953002e+001
1.079898e+003, 8.003716e+001
1.080380e+003, 8.018996e+001
1.080863e+003, 7.998985e+001
1.081345e+003, 7.958955e+001
1.081827e+003, 7.895199e+001
1.082309e+003, 7.854741e+001
1.082791e+003, 7.881918e+001
1.083273e+003, 7.911529e+001
1.083755e+003, 7.901865e+001
1.084237e+003, 7.875258e+001
1.084720e+003, 7.848754e+001
1.085202e+003, 7.829199e+001
1.085684e+003, 7.829713e+001
1.086166e+003, 7.856815e+001
1.086648e+003, 7.872024e+001
1.087130e+003, 7.850349e+001
1.087612e+003, 7.823510e+001
1.088094e+003, 7.810903e+001
1.088577e+003, 7.797979e+001
1.089059e+003, 7.760898e+001
1.089541e+003, 7.715503e+001
1.090023e+003, 7.700318e+001
1.090505e+003, 7.723251e+001
1.090987e+003, 7.742429e+001
1.091469e+003, 7.752621e+001
1.091951e+003, 7.742232e+001
1.092433e+003, 7.679780e+001
1.092916e+003, 7.620675e+001
1.093398e+003, 7.619331e+001
1.093880e+003, 7.647658e+001
1.094362e+003, 7.654038e+001
1.094844e+003, 7.632288e+001
1.095326e+003, 7.613595e+001
1.095808e+003, 7.617203e+001
1.096290e+003, 7.611340e+001
1.096772e+003, 7.566283e+001
1.097255e+003, 7.529342e+001
1.097737e+003, 7.545316e+001
1.098219e+003, 7.578484e+001
1.098701e+003, 7.575462e+001
1.099183e+003, 7.537703e+001
1.099665e+003, 7.513148e+001
1.100147e+003, 7.523454e+001
1.100629e+003, 7.525025e+001
1.101112e+003, 7.497343e+001
1.101594e+003, 7.469406e+001
1.102076e+003, 7.461167e+001
1.102558e+003, 7.455379e+001
1.103040e+003, 7.424628e+001
1.103522e+003, 7.379134e+001
1.104004e+003, 7.363205e+001
1.104486e+003, 7.395576e+001
1.104969e+003, 7.417726e+001
1.105451e+003, 7.417724e+001
1.105933e+003, 7.408016e+001
1.106415e+003, 7.383718e+001
1.106897e+003, 7.359866e+001
1.107379e+003, 7.351138e+001
1.107861e+003, 7.351466e+001
1.108343e+003, 7.345148e+001
1.108825e+003, 7.329943e+001
1.109307e+003, 7.314299e+001
1.109790e+003, 7.289443e+001
1.110272e+003, 7.277736e+001
1.110754e+003, 7.311546e+001
1.111236e+003, 7.330358e+001
1.111718e+003, 7.280350e+001
1.112200e+003, 7.200301e+001
1.112682e+003, 7.156161e+001
1.113164e+003, 7.150859e+001
1.113647e+003, 7.136620e+001
1.114129e+003, 7.097450e+001
1.114611e+003, 7.076778e+001
1.115093e+003, 7.103652e+001
1.115575e+003, 7.113099e+001
1.116057e+003, 7.057162e+001
1.116539e+003, 6.989249e+001
1.117021e+003, 6.975956e+001
1.117504e+003, 7.008398e+001
1.117986e+003, 7.019746e+001
1.118468e+003, 6.994754e+001
1.118950e+003, 6.986083e+001
1.119432e+003, 7.007576e+001
1.119914e+003, 7.017159e+001
1.120396e+003, 6.992953e+001
1.120878e+003, 6.966874e+001
1.121360e+003, 6.967358e+001
1.121843e+003, 6.986240e+001
1.122325e+003, 7.001674e+001
1.122807e+003, 7.016814e+001
1.123289e+003, 7.004561e+001
1.123771e+003, 6.949133e+001
1.124253e+003, 6.923824e+001
1.124735e+003, 6.955177e+001
1.125217e+003, 6.986015e+001
1.125699e+003, 6.979963e+001
1.126182e+003, 6.952042e+001
1.126664e+003, 6.926942e+001
1.127146e+003, 6.904475e+001
1.127628e+003, 6.877189e+001
1.128110e+003, 6.841682e+001
1.128592e+003, 6.840108e+001
1.129074e+003, 6.884645e+001
1.129556e+003, 6.907908e+001
1.130039e+003, 6.875284e+001
1.130521e+003, 6.833990e+001
1.131003e+003, 6.841287e+001
1.131485e+003, 6.878020e+001
1.131967e+003, 6.870285e+001
1.132449e+003, 6.821764e+001
1.132931e+003, 6.802014e+001
1.133413e+003, 6.814128e+001
1.133896e+003, 6.819955e+001
1.134378e+003, 6.807841e+001
1.134860e+003, 6.799949e+001
1.135342e+003, 6.815218e+001
1.135824e+003, 6.835735e+001
1.136306e+003, 6.824809e+001
1.136788e+003, 6.791800e+001
1.137270e+003, 6.770863e+001
1.137752e+003, 6.761652e+001
1.138234e+003, 6.762753e+001
1.138717e+003, 6.771796e+001
1.139199e+003, 6.774923e+001
1.139681e+003, 6.765004e+001
1.140163e+003, 6.754263e+001
1.140645e+003, 6.761792e+001
1.141127e+003, 6.772426e+001
1.141609e+003, 6.746336e+001
1.142091e+003, 6.706499e+001
1.142574e+003, 6.710583e+001
1.143056e+003, 6.750512e+001
1.143538e+003, 6.781840e+001
1.144020e+003, 6.789581e+001
1.144502e+003, 6.779835e+001
1.144984e+003, 6.749956e+001
1.145466e+003, 6.721133e+001
1.145948e+003, 6.716733e+001
1.146431e+003, 6.725179e+001
1.146913e+003, 6.742983e+001
1.147395e+003, 6.757287e+001
1.147877e+003, 6.736860e+001
1.148359e+003, 6.688929e+001
1.148841e+003, 6.663698e+001
1.149323e+003, 6.684942e+001
1.149805e+003, 6.713971e+001
1.150287e+003, 6.731171e+001
1.150770e+003, 6.742027e+001
1.151252e+003, 6.747485e+001
1.151734e+003, 6.751186e+001
1.152216e+003, 6.755392e+001
1.152698e+003, 6.761387e+001
1.153180e+003, 6.772628e+001
1.153662e+003, 6.789778e+001
1.154144e+003, 6.801794e+001
1.154626e+003, 6.810196e+001
1.155109e+003, 6.805595e+001
1.155591e+003, 6.780959e+001
1.156073e+003, 6.746835e+001
1.156555e+003, 6.687485e+001
1.157037e+003, 6.636871e+001
1.157519e+003, 6.650828e+001
1.158001e+003, 6.719713e+001
1.158483e+003, 6.758010e+001
1.158966e+003, 6.738496e+001
1.159448e+003, 6.730057e+001
1.159930e+003, 6.747164e+001
1.160412e+003, 6.761739e+001
1.160894e+003, 6.764472e+001
1.161376e+003, 6.764530e+001
1.161858e+003, 6.771679e+001
1.162340e+003, 6.779202e+001
1.162822e+003, 6.772426e+001
1.163305e+003, 6.750668e+001
1.163787e+003, 6.718737e+001
1.164269e+003, 6.662431e+001
1.164751e+003, 6.641661e+001
1.165233e+003, 6.678102e+001
1.165715e+003, 6.709767e+001
1.166197e+003, 6.706078e+001
1.166679e+003, 6.688764e+001
1.167161e+003, 6.684418e+001
1.167644e+003, 6.687057e+001
1.168126e+003, 6.664997e+001
1.168608e+003, 6.616283e+001
1.169090e+003, 6.610294e+001
1.169572e+003, 6.651355e+001
1.170054e+003, 6.680759e+001
1.170536e+003, 6.682278e+001
1.171018e+003, 6.679799e+001
1.171500e+003, 6.690291e+001
1.171983e+003, 6.701907e+001
1.172465e+003, 6.692019e+001
1.172947e+003, 6.669104e+001
1.173429e+003, 6.657596e+001
1.173911e+003, 6.658527e+001
1.174393e+003, 6.685804e+001
1.174875e+003, 6.732035e+001
1.175357e+003, 6.752806e+001
1.175840e+003, 6.733056e+001
1.176322e+003, 6.705428e+001
1.176804e+003, 6.694603e+001
1.177286e+003, 6.694314e+001
1.177768e+003, 6.706280e+001
1.178250e+003, 6.716810e+001
1.178732e+003, 6.694322e+001
1.179214e+003, 6.659509e+001
1.179697e+003, 6.664729e+001
1.180179e+003, 6.704446e+001
1.180661e+003, 6.714912e+001
1.181143e+003, 6.664932e+001
1.181625e+003, 6.623867e+001
1.182107e+003, 6.638255e+001
1.182589e+003, 6.670226e+001
1.183071e+003, 6.713781e+001
1.183553e+003, 6.746379e+001
1.184036e+003, 6.741302e+001
1.184518e+003, 6.712215e+001
1.185000e+003, 6.682950e+001
1.185482e+003, 6.657786e+001
1.185964e+003, 6.641503e+001
1.186446e+003, 6.636436e+001
1.186928e+003, 6.638197e+001
1.187410e+003, 6.653281e+001
1.187892e+003, 6.666161e+001
1.188375e+003, 6.668802e+001
1.188857e+003, 6.667771e+001
1.189339e+003, 6.671823e+001
1.189821e+003, 6.676466e+001
1.190303e+003, 6.667581e+001
1.190785e+003, 6.642251e+001
1.191267e+003, 6.619847e+001
1.191749e+003, 6.596440e+001
1.192232e+003, 6.588038e+001
1.192714e+003, 6.600254e+001
1.193196e+003, 6.620393e+001
1.193678e+003, 6.645914e+001
1.194160e+003, 6.664428e+001
1.194642e+003, 6.658060e+001
1.195124e+003, 6.635078e+001
1.195606e+003, 6.628036e+001
1.196089e+003, 6.636448e+001
1.196571e+003, 6.654271e+001
1.197053e+003, 6.679791e+001
1.197535e+003, 6.683662e+001
1.198017e+003, 6.659798e+001
1.198499e+003, 6.637981e+001
1.198981e+003, 6.637040e+001
1.199463e+003, 6.641741e+001
1.199945e+003, 6.629784e+001
1.200427e+003, 6.610983e+001
1.200910e+003, 6.602413e+001
1.201392e+003, 6.603434e+001
1.201874e+003, 6.615501e+001
1.202356e+003, 6.635244e+001
1.202838e+003, 6.653735e+001
1.203320e+003, 6.668752e+001
1.203802e+003, 6.685828e+001
1.204284e+003, 6.713425e+001
1.204767e+003, 6.728036e+001
1.205249e+003, 6.691685e+001
1.205731e+003, 6.656551e+001
1.206213e+003, 6.664159e+001
1.206695e+003, 6.699972e+001
1.207177e+003, 6.772199e+001
1.207659e+003, 6.848969e+001
1.208141e+003, 6.846677e+001
1.208624e+003, 6.743204e+001
1.209106e+003, 6.665877e+001
1.209588e+003, 6.667511e+001
1.210070e+003, 6.664863e+001
1.210552e+003, 6.625161e+001
1.211034e+003, 6.595374e+001
1.211516e+003, 6.607130e+001
1.211998e+003, 6.632806e+001
1.212480e+003, 6.642130e+001
1.212963e+003, 6.643052e+001
1.213445e+003, 6.670098e+001
1.213927e+003, 6.737228e+001
1.214409e+003, 6.757693e+001
1.214891e+003, 6.722782e+001
1.215373e+003, 6.669231e+001
1.215855e+003, 6.594585e+001
1.216337e+003, 6.552312e+001
1.216819e+003, 6.577175e+001
1.217302e+003, 6.612575e+001
1.217784e+003, 6.584042e+001
1.218266e+003, 6.520132e+001
1.218748e+003, 6.516409e+001
1.219230e+003, 6.558345e+001
1.219712e+003, 6.569869e+001
1.220194e+003, 6.553629e+001
1.220676e+003, 6.546564e+001
1.221159e+003, 6.556214e+001
1.221641e+003, 6.569505e+001
1.222123e+003, 6.579659e+001
1.222605e+003, 6.585232e+001
1.223087e+003, 6.580376e+001
1.223569e+003, 6.574544e+001
1.224051e+003, 6.578306e+001
1.224533e+003, 6.587770e+001
1.225016e+003, 6.600899e+001
1.225498e+003, 6.614121e+001
1.225980e+003, 6.625430e+001
1.226462e+003, 6.631821e+001
1.226944e+003, 6.619238e+001
1.227426e+003, 6.570193e+001
1.227908e+003, 6.539227e+001
1.228390e+003, 6.563305e+001
1.228872e+003, 6.585204e+001
1.229354e+003, 6.572744e+001
1.229837e+003, 6.556854e+001
1.230319e+003, 6.566548e+001
1.230801e+003, 6.587575e+001
1.231283e+003, 6.594405e+001
1.231765e+003, 6.587340e+001
1.232247e+003, 6.573634e+001
1.232729e+003, 6.547013e+001
1.233211e+003, 6.534978e+001
1.233694e+003, 6.544430e+001
1.234176e+003, 6.544393e+001
1.234658e+003, 6.519567e+001
1.235140e+003, 6.514567e+001
1.235622e+003, 6.567500e+001
1.236104e+003, 6.634549e+001
1.236586e+003, 6.633801e+001
1.237068e+003, 6.586288e+001
1.237551e+003, 6.586972e+001
1.238033e+003, 6.621797e+001
1.238515e+003, 6.627541e+001
1.238997e+003, 6.602448e+001
1.239479e+003, 6.562433e+001
1.239961e+003, 6.519530e+001
1.240443e+003, 6.522976e+001
1.240925e+003, 6.617141e+001
1.241407e+003, 6.698090e+001
1.241890e+003, 6.638194e+001
1.242372e+003, 6.545967e+001
1.242854e+003, 6.524503e+001
1.243336e+003, 6.536562e+001
1.243818e+003, 6.542918e+001
1.244300e+003, 6.537752e+001
1.244782e+003, 6.512904e+001
1.245264e+003, 6.470992e+001
1.245746e+003, 6.458253e+001
1.246229e+003, 6.505771e+001
1.246711e+003, 6.547855e+001
1.247193e+003, 6.571158e+001
1.247675e+003, 6.590797e+001
1.248157e+003, 6.624053e+001
1.248639e+003, 6.639942e+001
1.249121e+003, 6.607094e+001
1.249603e+003, 6.552133e+001
1.250085e+003, 6.524076e+001
1.250568e+003, 6.520914e+001
1.251050e+003, 6.503419e+001
1.251532e+003, 6.468084e+001
1.252014e+003, 6.458463e+001
1.252496e+003, 6.478483e+001
1.252978e+003, 6.509211e+001
1.253460e+003, 6.544811e+001
1.253942e+003, 6.563348e+001
1.254425e+003, 6.548249e+001
1.254907e+003, 6.523799e+001
1.255389e+003, 6.523175e+001
1.255871e+003, 6.536929e+001
1.256353e+003, 6.554813e+001
1.256835e+003, 6.569695e+001
1.257317e+003, 6.564419e+001
1.257799e+003, 6.545125e+001
1.258281e+003, 6.523070e+001
1.258764e+003, 6.505437e+001
1.259246e+003, 6.512753e+001
1.259728e+003, 6.563087e+001
1.260210e+003, 6.603341e+001
1.260692e+003, 6.599365e+001
1.261174e+003, 6.592011e+001
1.261656e+003, 6.609249e+001
1.262138e+003, 6.621797e+001
1.262620e+003, 6.604424e+001
1.263103e+003, 6.568433e+001
1.263585e+003, 6.524113e+001
1.264067e+003, 6.476279e+001
1.264549e+003, 6.469205e+001
1.265031e+003, 6.521564e+001
1.265513e+003, 6.550640e+001
1.265995e+003, 6.552517e+001
1.266477e+003, 6.544277e+001
1.266960e+003, 6.527961e+001
1.267442e+003, 6.511846e+001
1.267924e+003, 6.499429e+001
1.268406e+003, 6.500443e+001
1.268888e+003, 6.531367e+001
1.269370e+003, 6.575005e+001
1.269852e+003, 6.592651e+001
1.270334e+003, 6.591015e+001
1.270817e+003, 6.584834e+001
1.271299e+003, 6.575005e+001
1.271781e+003, 6.556585e+001
1.272263e+003, 6.533435e+001
1.272745e+003, 6.519290e+001
1.273227e+003, 6.519463e+001
1.273709e+003, 6.536289e+001
1.274191e+003, 6.598229e+001
1.274673e+003, 6.639582e+001
1.275156e+003, 6.611506e+001
1.275638e+003, 6.570290e+001
1.276120e+003, 6.530692e+001
1.276602e+003, 6.516164e+001
1.277084e+003, 6.572242e+001
1.277566e+003, 6.670784e+001
1.278048e+003, 6.719877e+001
1.278530e+003, 6.715861e+001
1.279012e+003, 6.691652e+001
1.279495e+003, 6.636401e+001
1.279977e+003, 6.601554e+001
1.280459e+003, 6.597372e+001
1.280941e+003, 6.586804e+001
1.281423e+003, 6.554305e+001
1.281905e+003, 6.532694e+001
1.282387e+003, 6.549499e+001
1.282869e+003, 6.583178e+001
1.283352e+003, 6.599821e+001
1.283834e+003, 6.603613e+001
1.284316e+003, 6.602915e+001
1.284798e+003, 6.598048e+001
##END=



