##NAMES=Parsonsite
##RRUFFID=R060154
##IDEAL CHEMISTRY=Pb^2+^_2_(U^6+^O_2_)(PO_4_)_2_&#183;0-2H_2_O
##LOCALITY=Faye, near Grury, France
##OWNER=RRUFF
##SOURCE=Marcus Origlieri
##DESCRIPTION=Yellow acicular crystals in radial aggregates
##STATUS=The identification of this mineral has been confirmed by X-ray diffraction and chemical analysis
##URL=rruff.info/R060154
##MEASURED CHEMISTRY=Pb_2.18_(UO_2_)_1.09_(PO_4_)_1.82_Â·1.99H_2_O
89.78156, 0.0000000E+00
90.26367, 62.12353
90.74579, 61.93879
91.22791, 61.94567
91.71002, 62.13760
92.19214, 62.46721
92.67426, 63.00993
93.15638, 63.67639
93.63850, 64.21182
94.12061, 64.49089
94.60273, 64.59852
95.08485, 64.70434
95.56696, 64.80083
96.04908, 64.93949
96.53120, 65.17197
97.01331, 65.49431
97.49543, 65.91158
97.97755, 66.47934
98.45966, 67.18111
98.94178, 67.79922
99.42390, 68.32552
99.90602, 68.77810
100.3881, 69.20589
100.8703, 69.62009
101.3524, 69.97665
101.8345, 70.21602
102.3166, 70.26924
102.7987, 70.51160
103.2808, 71.04870
103.7630, 71.79158
104.2451, 72.30312
104.7272, 72.44550
105.2093, 72.54517
105.6914, 72.81231
106.1735, 73.24288
106.6557, 73.84328
107.1378, 74.59349
107.6199, 75.49858
108.1020, 76.62691
108.5841, 77.99948
109.0662, 79.59354
109.5484, 81.40450
110.0305, 83.08665
110.5126, 85.34729
110.9947, 88.02429
111.4768, 90.84346
111.9590, 95.47327
112.4411, 103.9727
112.9232, 113.9529
113.4053, 122.0897
113.8874, 125.1811
114.3695, 128.5382
114.8517, 134.0132
115.3338, 141.9276
115.8159, 151.6913
116.2980, 163.6357
116.7801, 177.4373
117.2622, 192.2410
117.7444, 206.7161
118.2265, 222.8066
118.7086, 241.7334
119.1907, 264.2414
119.6728, 289.2496
120.1549, 315.7170
120.6371, 344.0256
121.1192, 375.8636
121.6013, 411.6653
122.0834, 451.3909
122.5655, 494.9840
123.0476, 543.9917
123.5298, 595.4925
124.0119, 647.2454
124.4940, 699.2537
124.9761, 751.7855
125.4582, 804.9582
125.9404, 858.4508
126.4225, 911.1881
126.9046, 964.2994
127.3867, 1015.928
127.8688, 1062.255
128.3509, 1102.929
128.8331, 1141.715
129.3152, 1181.248
129.7973, 1222.043
130.2794, 1265.571
130.7615, 1311.975
131.2436, 1361.622
131.7258, 1415.155
132.2079, 1472.612
132.6900, 1533.914
133.1721, 1599.773
133.6542, 1669.947
134.1364, 1742.224
134.6185, 1817.128
135.1006, 1894.811
135.5827, 1970.120
136.0648, 2042.881
136.5469, 2113.632
137.0291, 2184.484
137.5112, 2255.713
137.9933, 2323.989
138.4754, 2388.399
138.9575, 2448.583
139.4396, 2503.374
139.9218, 2550.917
140.4039, 2592.733
140.8860, 2635.230
141.3681, 2678.246
141.8502, 2721.766
142.3323, 2764.824
142.8145, 2808.314
143.2966, 2850.500
143.7787, 2890.255
144.2608, 2927.973
144.7429, 2966.114
145.2250, 3003.346
145.7072, 3042.677
146.1893, 3087.282
146.6714, 3139.314
147.1535, 3193.273
147.6356, 3247.502
148.1178, 3301.300
148.5999, 3358.783
149.0820, 3422.457
149.5641, 3488.563
150.0462, 3552.061
150.5283, 3611.087
151.0105, 3668.561
151.4926, 3691.156
151.9747, 3706.405
152.4568, 3723.248
152.9389, 3745.130
153.4210, 3767.908
153.9032, 3786.092
154.3853, 3796.287
154.8674, 3804.237
155.3495, 3811.589
155.8316, 3818.512
156.3137, 3824.956
156.7959, 3830.989
157.2780, 3836.500
157.7601, 3841.273
158.2422, 3844.825
158.7243, 3847.911
159.2065, 3850.835
159.6886, 3853.296
160.1707, 3856.033
160.6528, 3858.800
161.1349, 3861.853
161.6170, 3865.965
162.0992, 3871.704
162.5813, 3878.331
163.0634, 3885.457
163.5455, 3893.783
164.0276, 3901.476
164.5097, 3907.545
164.9919, 3912.247
165.4740, 3916.559
165.9561, 3919.289
166.4382, 3922.616
166.9203, 3928.752
167.4024, 3942.140
167.8846, 3954.627
168.3667, 3959.987
168.8488, 3959.244
169.3309, 3958.894
169.8130, 3963.112
170.2952, 3969.882
170.7773, 3976.670
171.2594, 3983.443
171.7415, 3989.277
172.2236, 3992.764
172.7057, 3994.033
173.1879, 3995.552
173.6700, 3999.029
174.1521, 4003.932
174.6342, 4009.393
175.1163, 4016.183
175.5984, 4022.793
176.0806, 4027.170
176.5627, 4029.310
177.0448, 4030.609
177.5269, 4031.854
178.0090, 4033.164
178.4911, 4034.865
178.9733, 4038.040
179.4554, 4041.420
179.9375, 4042.445
180.4196, 4040.870
180.9017, 4039.317
181.3838, 4040.907
181.8660, 4044.978
182.3481, 4049.147
182.8302, 4052.592
183.3123, 4055.424
183.7944, 4057.677
184.2766, 4059.362
184.7587, 4060.930
185.2408, 4062.933
185.7229, 4065.336
186.2050, 4067.937
186.6871, 4070.448
187.1693, 4073.037
187.6514, 4076.329
188.1335, 4080.516
188.6156, 4084.822
189.0977, 4088.083
189.5798, 4090.280
190.0620, 4092.321
190.5441, 4094.769
191.0262, 4097.454
191.5083, 4099.454
191.9904, 4100.552
192.4725, 4101.275
192.9547, 4102.721
193.4368, 4104.943
193.9189, 4106.869
194.4010, 4107.658
194.8831, 4107.441
195.3652, 4107.864
195.8474, 4109.148
196.3295, 4111.014
196.8116, 4112.915
197.2937, 4114.842
197.7758, 4116.903
198.2579, 4119.439
198.7401, 4122.467
199.2222, 4124.331
199.7043, 4124.610
200.1864, 4123.903
200.6685, 4123.978
201.1507, 4125.212
201.6328, 4125.230
202.1149, 4122.014
202.5970, 4115.150
203.0791, 4109.173
203.5612, 4104.768
204.0434, 4101.309
204.5255, 4097.282
205.0076, 4092.757
205.4897, 4087.549
205.9718, 4081.215
206.4539, 4073.444
206.9361, 4066.693
207.4182, 4061.410
207.9003, 4057.243
208.3824, 4053.039
208.8645, 4049.032
209.3466, 4044.421
209.8288, 4038.484
210.3109, 4030.875
210.7930, 4023.298
211.2751, 4015.249
211.7572, 4007.518
212.2393, 4003.442
212.7215, 4004.807
213.2036, 4005.945
213.6857, 4002.708
214.1678, 3993.274
214.6499, 3985.508
215.1320, 3980.288
215.6142, 3977.116
216.0963, 3974.302
216.5784, 3972.405
217.0605, 3969.794
217.5426, 3965.046
218.0247, 3957.064
218.5069, 3950.390
218.9890, 3945.839
219.4711, 3942.948
219.9532, 3939.322
220.4353, 3934.466
220.9175, 3929.707
221.3996, 3925.888
221.8817, 3923.426
222.3638, 3920.985
222.8459, 3918.552
223.3280, 3916.059
223.8102, 3913.328
224.2923, 3910.225
224.7744, 3906.968
225.2565, 3903.841
225.7386, 3901.371
226.2207, 3897.573
226.7029, 3891.753
227.1850, 3884.338
227.6671, 3877.944
228.1492, 3873.042
228.6313, 3868.478
229.1134, 3863.783
229.5956, 3859.623
230.0777, 3853.665
230.5598, 3844.782
231.0419, 3833.854
231.5240, 3824.889
232.0062, 3818.188
232.4883, 3813.125
232.9704, 3809.582
233.4525, 3808.601
233.9346, 3806.930
234.4167, 3804.076
234.8989, 3800.336
235.3810, 3797.071
235.8631, 3794.177
236.3452, 3791.768
236.8273, 3790.072
237.3094, 3790.079
237.7916, 3788.332
238.2737, 3783.317
238.7558, 3776.253
239.2379, 3772.524
239.7200, 3774.197
240.2021, 3776.335
240.6843, 3776.223
241.1664, 3772.713
241.6485, 3769.503
242.1306, 3767.070
242.6127, 3765.099
243.0948, 3762.278
243.5770, 3757.825
244.0591, 3753.757
244.5412, 3751.369
245.0233, 3751.954
245.5054, 3751.446
245.9876, 3749.250
246.4697, 3746.017
246.9518, 3743.735
247.4339, 3742.983
247.9160, 3742.320
248.3981, 3740.915
248.8803, 3737.943
249.3624, 3736.196
249.8445, 3736.499
250.3266, 3737.774
250.8087, 3736.865
251.2908, 3732.176
251.7730, 3727.724
252.2551, 3725.499
252.7372, 3726.580
253.2193, 3726.982
253.7014, 3726.844
254.1835, 3725.940
254.6657, 3723.598
255.1478, 3719.102
255.6299, 3714.443
256.1120, 3710.569
256.5941, 3708.156
257.0763, 3704.427
257.5584, 3698.676
258.0405, 3692.070
258.5226, 3687.106
259.0047, 3684.437
259.4868, 3682.039
259.9690, 3679.279
260.4511, 3676.213
260.9332, 3672.448
261.4153, 3667.351
261.8974, 3662.055
262.3795, 3658.683
262.8617, 3657.863
263.3438, 3657.334
263.8259, 3656.218
264.3080, 3654.320
264.7901, 3653.375
265.2722, 3654.109
265.7544, 3654.897
266.2365, 3652.906
266.7186, 3646.899
267.2007, 3641.964
267.6828, 3640.393
268.1649, 3642.510
268.6471, 3641.633
269.1292, 3636.661
269.6113, 3630.440
270.0934, 3626.814
270.5755, 3626.621
271.0576, 3625.609
271.5398, 3622.031
272.0219, 3615.994
272.5040, 3612.752
272.9861, 3613.181
273.4682, 3614.575
273.9503, 3613.964
274.4325, 3610.953
274.9146, 3608.054
275.3967, 3605.870
275.8788, 3604.284
276.3610, 3602.763
276.8431, 3601.463
277.3252, 3599.798
277.8073, 3597.383
278.2894, 3594.265
278.7715, 3589.967
279.2537, 3583.856
279.7358, 3576.642
280.2179, 3571.661
280.7000, 3569.516
281.1821, 3566.960
281.6642, 3560.543
282.1464, 3550.246
282.6285, 3541.460
283.1106, 3535.071
283.5927, 3530.702
284.0748, 3527.894
284.5569, 3526.796
285.0391, 3525.471
285.5212, 3521.776
286.0033, 3515.991
286.4854, 3512.200
286.9675, 3511.406
287.4496, 3511.966
287.9318, 3510.285
288.4139, 3506.293
288.8960, 3502.698
289.3781, 3501.641
289.8602, 3502.543
290.3423, 3502.605
290.8245, 3501.769
291.3066, 3499.681
291.7887, 3495.175
292.2708, 3488.505
292.7529, 3481.954
293.2350, 3477.022
293.7172, 3473.233
294.1993, 3469.266
294.6814, 3465.019
295.1635, 3460.656
295.6456, 3455.869
296.1277, 3450.940
296.6099, 3447.226
297.0920, 3446.398
297.5741, 3447.010
298.0562, 3446.469
298.5383, 3444.735
299.0204, 3441.812
299.5026, 3436.621
299.9847, 3430.148
300.4668, 3424.836
300.9489, 3422.036
301.4311, 3420.875
301.9132, 3420.659
302.3953, 3421.367
302.8774, 3421.999
303.3595, 3422.371
303.8416, 3422.068
304.3238, 3420.241
304.8059, 3415.835
305.2880, 3410.634
305.7701, 3406.096
306.2522, 3402.230
306.7343, 3399.393
307.2165, 3398.257
307.6986, 3398.071
308.1807, 3397.876
308.6628, 3397.284
309.1449, 3396.791
309.6270, 3396.944
310.1092, 3397.515
310.5913, 3397.817
311.0734, 3397.560
311.5555, 3396.774
312.0376, 3395.192
312.5197, 3392.145
313.0019, 3389.922
313.4840, 3390.758
313.9661, 3393.305
314.4482, 3394.828
314.9303, 3393.664
315.4124, 3391.517
315.8946, 3389.568
316.3767, 3388.175
316.8588, 3385.976
317.3409, 3381.960
317.8230, 3376.960
318.3051, 3372.082
318.7873, 3366.822
319.2694, 3362.459
319.7515, 3359.865
320.2336, 3359.206
320.7157, 3358.386
321.1978, 3356.479
321.6800, 3354.294
322.1621, 3352.570
322.6442, 3351.947
323.1263, 3351.235
323.6084, 3350.050
324.0905, 3348.418
324.5727, 3346.950
325.0548, 3345.910
325.5369, 3344.990
326.0190, 3344.019
326.5012, 3343.913
326.9833, 3342.732
327.4654, 3339.000
327.9475, 3333.751
328.4296, 3331.175
328.9117, 3334.698
329.3939, 3337.867
329.8760, 3337.932
330.3581, 3332.523
330.8402, 3328.199
331.3223, 3324.756
331.8044, 3322.332
332.2866, 3321.475
332.7687, 3323.944
333.2508, 3325.214
333.7329, 3323.299
334.2150, 3317.048
334.6971, 3313.122
335.1793, 3312.717
335.6614, 3313.443
336.1435, 3311.979
336.6256, 3307.243
337.1077, 3303.424
337.5898, 3302.155
338.0720, 3303.280
338.5541, 3302.705
339.0362, 3300.105
339.5183, 3296.796
340.0004, 3294.118
340.4825, 3292.263
340.9647, 3289.645
341.4468, 3285.355
341.9289, 3280.475
342.4110, 3279.054
342.8931, 3281.559
343.3752, 3284.293
343.8574, 3284.019
344.3395, 3280.968
344.8216, 3279.837
345.3037, 3281.445
345.7858, 3284.240
346.2679, 3285.907
346.7501, 3286.422
347.2322, 3285.800
347.7143, 3283.043
348.1964, 3279.055
348.6785, 3276.974
349.1607, 3277.085
349.6428, 3277.943
350.1249, 3278.407
350.6070, 3278.383
351.0891, 3277.511
351.5713, 3275.471
352.0534, 3272.650
352.5355, 3269.395
353.0176, 3265.781
353.4997, 3262.155
353.9818, 3258.075
354.4640, 3254.358
354.9461, 3252.421
355.4282, 3254.063
355.9103, 3255.895
356.3924, 3254.765
356.8745, 3251.197
357.3567, 3247.276
357.8388, 3243.136
358.3209, 3239.730
358.8030, 3238.100
359.2851, 3239.046
359.7672, 3240.162
360.2494, 3240.347
360.7315, 3239.789
361.2136, 3238.840
361.6957, 3235.452
362.1778, 3233.449
362.6599, 3231.554
363.1421, 3234.838
363.6242, 3236.550
364.1063, 3236.773
364.5884, 3231.051
365.0705, 3233.006
365.5526, 3231.884
366.0348, 3230.636
366.5169, 3233.672
366.9990, 3228.814
367.4811, 3231.782
367.9632, 3231.626
368.4453, 3232.900
368.9275, 3231.078
369.4096, 3230.212
369.8917, 3232.443
370.3738, 3232.959
370.8559, 3230.780
371.3380, 3232.145
371.8202, 3227.285
372.3023, 3225.794
372.7844, 3226.164
373.2665, 3229.269
373.7487, 3230.689
374.2308, 3230.082
374.7129, 3228.167
375.1950, 3225.572
375.6771, 3221.754
376.1592, 3219.109
376.6414, 3218.718
377.1235, 3220.273
377.6056, 3220.349
378.0877, 3218.595
378.5698, 3216.598
379.0519, 3215.970
379.5341, 3216.743
380.0162, 3216.781
380.4983, 3215.396
380.9804, 3213.481
381.4625, 3213.127
381.9446, 3214.301
382.4268, 3216.058
382.9089, 3218.309
383.3910, 3220.711
383.8731, 3222.000
384.3552, 3221.872
384.8373, 3221.537
385.3195, 3222.289
385.8016, 3223.963
386.2837, 3226.124
386.7658, 3229.768
387.2479, 3233.178
387.7300, 3233.354
388.2122, 3230.448
388.6943, 3228.140
389.1764, 3230.723
389.6585, 3235.002
390.1406, 3236.631
390.6227, 3232.316
391.1049, 3228.053
391.5870, 3228.525
392.0691, 3232.397
392.5512, 3235.656
393.0333, 3236.831
393.5154, 3236.551
393.9976, 3234.809
394.4797, 3230.958
394.9618, 3227.931
395.4439, 3226.422
395.9260, 3226.345
396.4081, 3227.578
396.8903, 3232.122
397.3724, 3236.009
397.8545, 3238.127
398.3366, 3238.408
398.8188, 3238.093
399.3009, 3236.339
399.7830, 3234.623
400.2651, 3233.923
400.7472, 3235.528
401.2293, 3236.169
401.7115, 3235.343
402.1936, 3233.458
402.6757, 3231.849
403.1578, 3231.042
403.6399, 3229.569
404.1220, 3226.863
404.6042, 3222.864
405.0863, 3217.655
405.5684, 3210.851
406.0505, 3203.529
406.5326, 3196.965
407.0147, 3191.124
407.4969, 3186.365
407.9790, 3183.392
408.4611, 3181.435
408.9432, 3176.875
409.4253, 3169.518
409.9074, 3162.028
410.3896, 3155.868
410.8717, 3151.164
411.3538, 3148.783
411.8359, 3149.370
412.3180, 3151.068
412.8001, 3151.817
413.2823, 3151.568
413.7644, 3150.196
414.2465, 3146.638
414.7286, 3142.328
415.2107, 3138.989
415.6928, 3136.721
416.1750, 3135.270
416.6571, 3135.013
417.1392, 3135.298
417.6213, 3135.224
418.1034, 3134.133
418.5855, 3132.991
419.0677, 3132.395
419.5498, 3132.240
420.0319, 3132.142
420.5140, 3131.766
420.9961, 3131.536
421.4782, 3131.893
421.9604, 3133.424
422.4425, 3134.120
422.9246, 3132.655
423.4067, 3130.355
423.8889, 3129.020
424.3710, 3130.229
424.8531, 3131.006
425.3352, 3130.557
425.8173, 3128.885
426.2994, 3127.402
426.7816, 3125.591
427.2637, 3124.510
427.7458, 3125.168
428.2279, 3129.111
428.7100, 3130.855
429.1921, 3129.199
429.6743, 3125.706
430.1564, 3124.291
430.6385, 3125.556
431.1206, 3126.575
431.6027, 3125.800
432.0848, 3123.349
432.5670, 3122.328
433.0491, 3122.979
433.5312, 3124.100
434.0133, 3124.631
434.4954, 3124.585
434.9775, 3123.884
435.4597, 3122.268
435.9418, 3120.339
436.4239, 3119.388
436.9060, 3119.257
437.3881, 3118.813
437.8702, 3117.065
438.3524, 3114.638
438.8345, 3112.267
439.3166, 3109.934
439.7987, 3108.116
440.2808, 3107.620
440.7629, 3107.772
441.2451, 3107.544
441.7272, 3107.429
442.2093, 3106.007
442.6914, 3101.387
443.1735, 3094.192
443.6556, 3088.513
444.1378, 3087.336
444.6199, 3087.166
445.1020, 3085.719
445.5841, 3081.492
446.0662, 3078.413
446.5483, 3077.188
447.0305, 3077.450
447.5126, 3078.656
447.9947, 3083.008
448.4768, 3085.567
448.9590, 3084.523
449.4411, 3079.760
449.9232, 3076.730
450.4053, 3076.192
450.8874, 3076.160
451.3695, 3074.702
451.8517, 3070.854
452.3338, 3069.998
452.8159, 3073.694
453.2980, 3079.296
453.7801, 3081.184
454.2622, 3079.104
454.7444, 3076.646
455.2265, 3074.980
455.7086, 3074.218
456.1907, 3075.464
456.6728, 3078.927
457.1549, 3082.132
457.6371, 3082.507
458.1192, 3080.926
458.6013, 3079.475
459.0834, 3078.710
459.5655, 3078.200
460.0476, 3077.895
460.5298, 3077.538
461.0119, 3076.398
461.4940, 3073.004
461.9761, 3069.400
462.4582, 3067.463
462.9403, 3067.460
463.4225, 3067.202
463.9046, 3065.804
464.3867, 3063.621
464.8688, 3061.028
465.3509, 3058.348
465.8330, 3055.020
466.3152, 3050.363
466.7973, 3044.879
467.2794, 3040.359
467.7615, 3036.975
468.2436, 3034.461
468.7257, 3032.759
469.2079, 3031.915
469.6900, 3031.852
470.1721, 3033.440
470.6542, 3034.816
471.1363, 3033.771
471.6184, 3029.632
472.1006, 3025.611
472.5827, 3022.058
473.0648, 3019.113
473.5469, 3017.370
474.0291, 3016.906
474.5112, 3016.831
474.9933, 3016.667
475.4754, 3016.486
475.9575, 3016.638
476.4396, 3017.180
476.9218, 3017.767
477.4039, 3018.191
477.8860, 3018.364
478.3681, 3018.056
478.8502, 3017.060
479.3323, 3015.675
479.8145, 3013.618
480.2966, 3011.221
480.7787, 3009.834
481.2608, 3011.645
481.7429, 3013.575
482.2250, 3013.068
482.7072, 3009.304
483.1893, 3006.184
483.6714, 3005.689
484.1535, 3006.233
484.6356, 3006.218
485.1177, 3005.944
485.5999, 3004.544
486.0820, 3000.621
486.5641, 2995.292
487.0462, 2992.705
487.5283, 2995.316
488.0104, 2997.469
488.4926, 2996.675
488.9747, 2992.310
489.4568, 2989.163
489.9389, 2987.395
490.4210, 2986.613
490.9031, 2986.425
491.3853, 2986.810
491.8674, 2987.927
492.3495, 2989.996
492.8316, 2992.532
493.3137, 2994.781
493.7958, 2996.686
494.2780, 2997.682
494.7601, 2996.727
495.2422, 2994.780
495.7243, 2993.552
496.2064, 2993.095
496.6885, 2993.404
497.1707, 2995.168
497.6528, 2997.463
498.1349, 2999.012
498.6170, 2999.150
499.0992, 2998.915
499.5813, 2998.939
500.0634, 2999.022
500.5455, 2998.680
501.0276, 2997.193
501.5097, 2995.758
501.9919, 2994.890
502.4740, 2994.706
502.9561, 2994.571
503.4382, 2994.610
503.9203, 2994.572
504.4024, 2994.362
504.8846, 2994.465
505.3667, 2993.327
505.8488, 2990.199
506.3309, 2986.218
506.8130, 2983.948
507.2951, 2983.726
507.7773, 2983.799
508.2594, 2983.605
508.7415, 2983.191
509.2236, 2982.664
509.7057, 2982.001
510.1878, 2981.572
510.6700, 2981.805
511.1521, 2982.528
511.6342, 2983.399
512.1163, 2984.560
512.5984, 2985.144
513.0806, 2983.399
513.5627, 2980.416
514.0448, 2978.478
514.5269, 2979.883
515.0090, 2981.570
515.4911, 2981.216
515.9733, 2979.086
516.4554, 2977.255
516.9375, 2976.415
517.4196, 2976.133
517.9017, 2976.306
518.3839, 2977.433
518.8660, 2977.685
519.3481, 2976.357
519.8302, 2974.276
520.3123, 2972.258
520.7944, 2969.934
521.2766, 2968.429
521.7587, 2968.263
522.2408, 2969.060
522.7229, 2969.267
523.2050, 2968.860
523.6871, 2968.174
524.1693, 2967.167
524.6514, 2965.952
525.1335, 2965.606
525.6156, 2966.252
526.0977, 2967.051
526.5798, 2966.824
527.0620, 2966.020
527.5441, 2966.056
528.0262, 2967.473
528.5083, 2969.324
528.9904, 2970.171
529.4725, 2970.576
529.9547, 2971.964
530.4368, 2976.985
530.9189, 2981.570
531.4010, 2982.237
531.8831, 2978.960
532.3652, 2976.716
532.8474, 2977.780
533.3295, 2979.903
533.8116, 2981.770
534.2937, 2983.879
534.7758, 2984.566
535.2579, 2982.628
535.7401, 2979.891
536.2222, 2979.367
536.7043, 2982.930
537.1864, 2984.273
537.6685, 2981.128
538.1506, 2974.907
538.6328, 2972.596
539.1149, 2974.777
539.5970, 2977.327
540.0791, 2977.365
540.5612, 2975.553
541.0433, 2975.141
541.5255, 2976.349
542.0076, 2977.785
542.4897, 2977.970
542.9718, 2977.362
543.4539, 2976.903
543.9360, 2976.880
544.4182, 2976.940
544.9003, 2976.272
545.3824, 2975.442
545.8645, 2975.738
546.3466, 2978.797
546.8287, 2982.046
547.3109, 2984.540
547.7930, 2986.193
548.2751, 2986.782
548.7572, 2985.074
549.2393, 2983.234
549.7214, 2982.534
550.2036, 2983.975
550.6857, 2984.305
551.1678, 2983.044
551.6499, 2981.232
552.1320, 2980.417
552.6141, 2980.802
553.0963, 2981.003
553.5784, 2980.676
554.0605, 2980.028
554.5426, 2979.659
555.0247, 2979.547
555.5068, 2979.173
555.9890, 2977.496
556.4711, 2975.579
556.9532, 2975.327
557.4353, 2976.798
557.9174, 2979.292
558.3995, 2984.294
558.8817, 2989.074
559.3638, 2990.213
559.8459, 2984.825
560.3281, 2979.945
560.8102, 2978.887
561.2923, 2980.042
561.7744, 2980.894
562.2565, 2980.676
562.7386, 2980.479
563.2208, 2980.472
563.7029, 2980.677
564.1850, 2981.260
564.6671, 2982.665
565.1492, 2983.685
565.6313, 2983.420
566.1135, 2981.691
566.5956, 2981.466
567.0777, 2983.140
567.5598, 2984.909
568.0419, 2984.194
568.5240, 2981.648
569.0062, 2980.880
569.4883, 2983.059
569.9704, 2986.139
570.4525, 2987.721
570.9346, 2988.157
571.4167, 2988.287
571.8989, 2987.494
572.3810, 2987.386
572.8631, 2989.742
573.3452, 2994.135
573.8273, 2997.778
574.3094, 2999.497
574.7916, 3000.268
575.2737, 3000.357
575.7558, 2999.218
576.2379, 2999.294
576.7200, 3001.729
577.2021, 3004.469
577.6843, 3005.398
578.1664, 3003.241
578.6485, 3003.167
579.1306, 3006.356
579.6127, 3011.114
580.0948, 3014.262
580.5770, 3015.783
581.0591, 3016.479
581.5412, 3016.190
582.0233, 3015.528
582.5054, 3016.238
582.9875, 3018.083
583.4697, 3019.325
583.9518, 3017.894
584.4339, 3015.717
584.9160, 3015.066
585.3981, 3016.365
585.8802, 3017.663
586.3624, 3018.019
586.8445, 3017.927
587.3266, 3017.847
587.8087, 3018.168
588.2908, 3018.167
588.7729, 3016.855
589.2551, 3015.418
589.7372, 3016.119
590.2193, 3020.577
590.7014, 3023.844
591.1835, 3024.131
591.6656, 3022.232
592.1478, 3022.620
592.6299, 3025.556
593.1120, 3028.573
593.5941, 3030.506
594.0762, 3031.303
594.5583, 3030.274
595.0405, 3027.317
595.5226, 3024.616
596.0047, 3024.431
596.4868, 3025.646
596.9689, 3026.613
597.4510, 3026.837
597.9332, 3027.228
598.4153, 3028.633
598.8974, 3030.521
599.3795, 3032.113
599.8616, 3033.788
600.3438, 3034.595
600.8259, 3033.488
601.3080, 3031.170
601.7901, 3030.410
602.2722, 3031.620
602.7543, 3033.695
603.2365, 3036.501
603.7186, 3039.954
604.2007, 3042.656
604.6828, 3044.509
605.1649, 3045.633
605.6470, 3045.494
606.1292, 3044.516
606.6113, 3045.017
607.0934, 3047.491
607.5755, 3049.757
608.0576, 3049.281
608.5398, 3047.119
609.0219, 3045.086
609.5040, 3044.011
609.9861, 3042.925
610.4683, 3041.225
610.9504, 3039.214
611.4325, 3037.455
611.9146, 3036.509
612.3967, 3035.586
612.8788, 3034.139
613.3610, 3032.351
613.8431, 3032.135
614.3252, 3034.618
614.8073, 3036.850
615.2894, 3036.985
615.7715, 3034.813
616.2537, 3034.258
616.7358, 3035.457
617.2179, 3037.374
617.7000, 3038.912
618.1821, 3040.236
618.6642, 3042.052
619.1464, 3044.556
619.6285, 3047.167
620.1106, 3049.136
620.5927, 3050.803
621.0748, 3052.771
621.5569, 3056.375
622.0391, 3059.235
622.5212, 3059.585
623.0033, 3058.328
623.4854, 3058.193
623.9675, 3060.649
624.4496, 3063.419
624.9318, 3066.159
625.4139, 3068.890
625.8960, 3070.610
626.3781, 3071.015
626.8602, 3071.194
627.3423, 3071.594
627.8245, 3072.240
628.3066, 3073.747
628.7887, 3076.119
629.2708, 3079.290
629.7529, 3083.761
630.2350, 3088.865
630.7172, 3093.194
631.1993, 3096.300
631.6814, 3098.786
632.1635, 3101.107
632.6456, 3103.087
633.1277, 3104.513
633.6099, 3104.237
634.0920, 3104.526
634.5741, 3106.833
635.0562, 3110.431
635.5383, 3112.511
636.0204, 3112.010
636.5026, 3111.513
636.9847, 3111.679
637.4668, 3112.555
637.9489, 3114.583
638.4310, 3118.144
638.9131, 3121.423
639.3953, 3122.845
639.8774, 3122.914
640.3595, 3123.812
640.8416, 3125.654
641.3237, 3128.057
641.8058, 3130.962
642.2880, 3134.036
642.7701, 3136.583
643.2522, 3138.028
643.7343, 3140.098
644.2164, 3144.487
644.6985, 3149.769
645.1807, 3154.012
645.6628, 3155.532
646.1449, 3157.552
646.6270, 3160.730
647.1091, 3164.644
647.5912, 3168.368
648.0734, 3172.452
648.5555, 3174.746
649.0376, 3173.620
649.5197, 3170.345
650.0018, 3171.093
650.4839, 3175.839
650.9661, 3180.909
651.4482, 3183.841
651.9303, 3185.626
652.4124, 3187.868
652.8945, 3190.655
653.3766, 3193.927
653.8588, 3198.236
654.3409, 3202.661
654.8230, 3206.488
655.3051, 3209.514
655.7872, 3212.097
656.2693, 3213.096
656.7515, 3214.358
657.2336, 3217.661
657.7158, 3223.758
658.1979, 3230.388
658.6800, 3238.104
659.1621, 3245.358
659.6442, 3248.622
660.1263, 3247.787
660.6085, 3248.176
661.0906, 3251.923
661.5727, 3257.077
662.0548, 3259.997
662.5369, 3261.274
663.0190, 3263.186
663.5012, 3268.215
663.9833, 3273.426
664.4654, 3276.624
664.9475, 3277.909
665.4296, 3278.558
665.9117, 3277.660
666.3939, 3277.480
666.8760, 3279.470
667.3581, 3284.037
667.8402, 3288.285
668.3223, 3291.918
668.8044, 3295.842
669.2866, 3301.124
669.7687, 3307.897
670.2508, 3312.368
670.7329, 3313.794
671.2150, 3315.176
671.6971, 3320.911
672.1793, 3329.249
672.6614, 3335.559
673.1435, 3338.465
673.6256, 3339.909
674.1077, 3339.939
674.5898, 3339.917
675.0720, 3341.957
675.5541, 3349.259
676.0362, 3355.899
676.5183, 3360.101
677.0004, 3362.472
677.4825, 3364.724
677.9647, 3366.790
678.4468, 3368.934
678.9289, 3371.058
679.4110, 3373.385
679.8931, 3377.214
680.3752, 3382.629
680.8574, 3388.328
681.3395, 3394.022
681.8216, 3399.355
682.3037, 3403.275
682.7858, 3405.849
683.2679, 3407.897
683.7501, 3409.105
684.2322, 3410.562
684.7143, 3413.243
685.1964, 3417.318
685.6785, 3421.964
686.1606, 3427.261
686.6428, 3432.774
687.1249, 3438.201
687.6070, 3443.180
688.0891, 3449.146
688.5712, 3457.018
689.0533, 3464.483
689.5355, 3467.954
690.0176, 3467.712
690.4997, 3468.882
690.9818, 3472.422
691.4639, 3477.707
691.9460, 3484.650
692.4282, 3492.559
692.9103, 3499.873
693.3924, 3506.733
693.8745, 3511.926
694.3566, 3512.844
694.8387, 3511.501
695.3209, 3512.671
695.8030, 3518.980
696.2851, 3526.192
696.7672, 3534.027
697.2493, 3542.070
697.7314, 3547.486
698.2136, 3549.189
698.6957, 3551.829
699.1778, 3558.030
699.6599, 3566.825
700.1420, 3574.160
700.6241, 3580.075
701.1063, 3584.289
701.5884, 3584.808
702.0705, 3584.507
702.5526, 3587.377
703.0347, 3593.695
703.5168, 3599.861
703.9990, 3603.716
704.4811, 3607.013
704.9632, 3610.811
705.4453, 3615.192
705.9274, 3620.386
706.4095, 3627.395
706.8917, 3634.064
707.3738, 3637.936
707.8560, 3638.396
708.3381, 3641.738
708.8202, 3649.073
709.3023, 3657.125
709.7844, 3661.051
710.2665, 3662.320
710.7487, 3665.436
711.2308, 3672.257
711.7129, 3679.261
712.1950, 3683.087
712.6771, 3685.489
713.1592, 3689.125
713.6414, 3695.716
714.1235, 3702.503
714.6056, 3709.066
715.0877, 3715.340
715.5698, 3721.142
716.0519, 3726.675
716.5341, 3730.889
717.0162, 3732.752
717.4983, 3733.617
717.9804, 3737.626
718.4625, 3744.612
718.9446, 3751.899
719.4268, 3758.958
719.9089, 3765.042
720.3910, 3768.484
720.8731, 3769.886
721.3552, 3771.946
721.8373, 3776.516
722.3195, 3781.668
722.8016, 3786.526
723.2837, 3790.994
723.7658, 3795.259
724.2479, 3799.417
724.7300, 3803.261
725.2122, 3806.348
725.6943, 3808.657
726.1764, 3812.632
726.6585, 3818.469
727.1406, 3825.063
727.6227, 3832.351
728.1049, 3839.683
728.5870, 3845.345
729.0691, 3849.184
729.5512, 3851.882
730.0333, 3852.126
730.5154, 3852.504
730.9976, 3855.646
731.4797, 3862.884
731.9618, 3870.078
732.4439, 3877.272
732.9260, 3883.600
733.4081, 3888.007
733.8903, 3889.161
734.3724, 3893.468
734.8545, 3902.331
735.3366, 3911.706
735.8187, 3914.978
736.3008, 3913.811
736.7830, 3916.327
737.2651, 3925.043
737.7472, 3935.047
738.2293, 3941.181
738.7114, 3945.416
739.1935, 3950.687
739.6757, 3960.167
740.1578, 3967.856
740.6399, 3970.126
741.1220, 3970.040
741.6041, 3973.171
742.0862, 3981.549
742.5684, 3988.466
743.0505, 3992.449
743.5326, 3994.806
744.0147, 3998.523
744.4968, 4003.462
744.9789, 4008.243
745.4611, 4012.180
745.9432, 4015.958
746.4253, 4020.990
746.9074, 4026.663
747.3895, 4031.296
747.8716, 4033.771
748.3538, 4035.560
748.8359, 4036.617
749.3180, 4037.457
749.8001, 4040.172
750.2822, 4045.120
750.7643, 4051.664
751.2465, 4060.637
751.7286, 4070.985
752.2107, 4076.464
752.6928, 4077.019
753.1749, 4077.316
753.6570, 4079.106
754.1392, 4082.639
754.6213, 4088.849
755.1034, 4097.415
755.5855, 4106.317
756.0676, 4114.670
756.5498, 4122.846
757.0319, 4131.573
757.5140, 4140.820
757.9962, 4147.903
758.4783, 4150.323
758.9604, 4153.849
759.4425, 4161.937
759.9246, 4174.308
760.4067, 4182.588
760.8889, 4186.293
761.3710, 4189.870
761.8531, 4197.103
762.3352, 4206.369
762.8173, 4214.674
763.2994, 4221.872
763.7816, 4228.854
764.2637, 4237.196
764.7458, 4244.818
765.2279, 4249.562
765.7100, 4250.423
766.1921, 4253.225
766.6743, 4258.200
767.1564, 4265.315
767.6385, 4275.310
768.1206, 4288.856
768.6027, 4299.567
769.0848, 4307.190
769.5670, 4313.310
770.0491, 4317.535
770.5312, 4321.806
771.0133, 4331.194
771.4954, 4346.786
771.9775, 4361.164
772.4597, 4366.983
772.9418, 4371.125
773.4239, 4380.062
773.9060, 4398.251
774.3881, 4411.913
774.8702, 4418.326
775.3524, 4422.749
775.8345, 4429.508
776.3166, 4438.822
776.7987, 4448.156
777.2808, 4457.117
777.7629, 4467.114
778.2451, 4480.694
778.7272, 4496.181
779.2093, 4510.365
779.6914, 4522.470
780.1735, 4533.405
780.6556, 4541.896
781.1378, 4550.269
781.6199, 4560.852
782.1020, 4575.720
782.5841, 4589.588
783.0662, 4601.521
783.5483, 4613.443
784.0305, 4627.411
784.5126, 4643.574
784.9947, 4660.359
785.4768, 4677.859
785.9589, 4694.422
786.4410, 4706.708
786.9232, 4716.925
787.4053, 4729.243
787.8874, 4744.922
788.3695, 4762.373
788.8516, 4782.442
789.3337, 4803.361
789.8159, 4823.432
790.2980, 4841.888
790.7801, 4860.234
791.2622, 4877.858
791.7443, 4896.115
792.2264, 4916.970
792.7086, 4940.413
793.1907, 4961.613
793.6728, 4979.755
794.1549, 4996.397
794.6370, 5012.140
795.1191, 5028.188
795.6013, 5046.855
796.0834, 5070.368
796.5655, 5093.314
797.0476, 5112.623
797.5297, 5131.127
798.0118, 5152.556
798.4940, 5179.455
798.9761, 5203.896
799.4582, 5225.146
799.9403, 5244.113
800.4224, 5263.081
800.9045, 5281.512
801.3867, 5296.894
801.8688, 5308.762
802.3509, 5317.112
802.8330, 5322.008
803.3151, 5323.161
803.7972, 5320.208
804.2794, 5313.411
804.7615, 5301.957
805.2436, 5287.097
805.7258, 5266.389
806.2079, 5235.812
806.6900, 5192.494
807.1721, 5150.827
807.6542, 5113.424
808.1364, 5075.903
808.6185, 5031.494
809.1006, 4982.300
809.5827, 4934.294
810.0648, 4888.545
810.5469, 4845.089
811.0291, 4803.706
811.5112, 4764.826
811.9933, 4728.391
812.4754, 4694.629
812.9575, 4663.171
813.4396, 4634.002
813.9218, 4606.924
814.4039, 4582.106
814.8860, 4559.390
815.3681, 4539.053
815.8502, 4521.404
816.3323, 4504.498
816.8145, 4485.106
817.2966, 4465.183
817.7787, 4447.913
818.2608, 4434.320
818.7429, 4422.323
819.2250, 4410.421
819.7072, 4399.925
820.1893, 4392.532
820.6714, 4391.228
821.1535, 4386.248
821.6356, 4376.020
822.1177, 4364.833
822.5999, 4357.932
823.0820, 4354.550
823.5641, 4349.463
824.0462, 4341.842
824.5283, 4333.939
825.0104, 4327.229
825.4926, 4321.715
825.9747, 4317.880
826.4568, 4316.617
826.9389, 4314.120
827.4210, 4307.798
827.9031, 4301.235
828.3853, 4296.892
828.8674, 4295.390
829.3495, 4293.234
829.8316, 4290.320
830.3137, 4287.210
830.7958, 4284.707
831.2780, 4282.449
831.7601, 4279.995
832.2422, 4277.402
832.7243, 4273.208
833.2064, 4263.626
833.6885, 4254.235
834.1707, 4250.156
834.6528, 4254.182
835.1349, 4253.873
835.6170, 4247.076
836.0991, 4239.666
836.5812, 4236.101
837.0634, 4235.980
837.5455, 4232.153
838.0276, 4224.443
838.5097, 4218.941
838.9918, 4222.954
839.4739, 4229.830
839.9561, 4232.130
840.4382, 4229.369
840.9203, 4226.393
841.4024, 4225.032
841.8845, 4223.512
842.3666, 4221.102
842.8488, 4217.813
843.3309, 4213.823
843.8130, 4209.007
844.2951, 4204.380
844.7772, 4200.811
845.2593, 4197.826
845.7415, 4194.039
846.2236, 4189.724
846.7057, 4186.292
847.1878, 4185.375
847.6699, 4184.834
848.1520, 4183.330
848.6342, 4181.002
849.1163, 4179.407
849.5984, 4178.966
850.0805, 4178.376
850.5626, 4176.827
851.0447, 4174.979
851.5269, 4175.886
852.0090, 4179.075
852.4911, 4180.822
852.9732, 4177.822
853.4553, 4173.943
853.9374, 4172.818
854.4196, 4173.548
854.9017, 4173.949
855.3839, 4173.149
855.8660, 4172.245
856.3481, 4171.908
856.8302, 4171.390
857.3123, 4168.752
857.7944, 4163.811
858.2766, 4159.023
858.7587, 4154.804
859.2408, 4151.451
859.7229, 4150.144
860.2050, 4149.983
860.6871, 4149.156
861.1693, 4146.958
861.6514, 4144.256
862.1335, 4140.511
862.6156, 4136.918
863.0977, 4135.177
863.5798, 4136.177
864.0620, 4136.362
864.5441, 4135.211
865.0262, 4133.657
865.5083, 4133.246
865.9904, 4133.354
866.4725, 4131.949
866.9547, 4128.426
867.4368, 4124.497
867.9189, 4120.218
868.4010, 4116.704
868.8831, 4115.232
869.3652, 4117.548
869.8474, 4117.633
870.3295, 4114.666
870.8116, 4110.811
871.2937, 4107.476
871.7758, 4104.708
872.2579, 4103.458
872.7401, 4103.780
873.2222, 4103.265
873.7043, 4098.449
874.1864, 4092.905
874.6685, 4091.108
875.1506, 4093.426
875.6328, 4092.975
876.1149, 4084.010
876.5970, 4076.416
877.0791, 4074.701
877.5612, 4078.040
878.0433, 4077.780
878.5255, 4073.813
879.0076, 4069.298
879.4897, 4065.750
879.9718, 4063.004
880.4539, 4061.404
880.9360, 4060.532
881.4182, 4058.902
881.9003, 4054.307
882.3824, 4050.624
882.8645, 4049.700
883.3466, 4050.558
883.8287, 4050.890
884.3109, 4050.662
884.7930, 4049.924
885.2751, 4048.647
885.7572, 4046.843
886.2393, 4044.170
886.7214, 4040.978
887.2036, 4038.177
887.6857, 4035.983
888.1678, 4034.386
888.6499, 4035.132
889.1320, 4035.682
889.6141, 4032.353
890.0963, 4022.692
890.5784, 4016.197
891.0605, 4014.184
891.5426, 4013.680
892.0247, 4011.143
892.5068, 4007.261
892.9890, 4003.846
893.4711, 4001.171
893.9532, 3999.425
894.4353, 3999.624
894.9174, 4000.254
895.3995, 3999.778
895.8817, 3997.415
896.3638, 3997.351
896.8459, 4000.997
897.3280, 4003.915
897.8101, 4001.833
898.2922, 3996.240
898.7744, 3996.499
899.2565, 4002.048
899.7386, 4007.241
900.2207, 4008.915
900.7028, 4008.420
901.1849, 4005.681
901.6671, 4001.227
902.1492, 3998.519
902.6313, 3999.300
903.1134, 3999.439
903.5955, 3997.637
904.0776, 3994.694
904.5598, 3992.866
905.0419, 3992.046
905.5240, 3991.031
906.0062, 3989.320
906.4883, 3987.462
906.9704, 3986.030
907.4525, 3984.810
907.9346, 3983.402
908.4167, 3981.130
908.8989, 3979.594
909.3810, 3979.376
909.8631, 3979.310
910.3452, 3977.048
910.8273, 3972.902
911.3094, 3972.761
911.7916, 3977.801
912.2737, 3982.755
912.7558, 3981.169
913.2379, 3977.750
913.7200, 3978.355
914.2021, 3985.110
914.6843, 3988.613
915.1664, 3985.707
915.6485, 3981.529
916.1306, 3978.597
916.6127, 3976.856
917.0948, 3975.188
917.5770, 3973.597
918.0591, 3972.139
918.5412, 3970.235
919.0233, 3968.909
919.5054, 3969.837
919.9875, 3972.438
920.4697, 3974.257
920.9518, 3974.719
921.4339, 3973.991
921.9160, 3971.634
922.3981, 3968.359
922.8802, 3965.617
923.3624, 3963.436
923.8445, 3963.083
924.3266, 3965.625
924.8087, 3968.412
925.2908, 3968.244
925.7729, 3966.552
926.2551, 3965.500
926.7372, 3966.581
927.2193, 3966.638
927.7014, 3964.328
928.1835, 3962.118
928.6656, 3962.936
929.1478, 3966.827
929.6299, 3968.059
930.1120, 3966.288
930.5941, 3963.732
931.0762, 3961.078
931.5583, 3959.442
932.0405, 3960.340
932.5226, 3963.858
933.0047, 3967.622
933.4868, 3972.090
933.9689, 3975.255
934.4510, 3975.573
934.9332, 3973.964
935.4153, 3975.593
935.8974, 3980.287
936.3795, 3985.125
936.8616, 3989.386
937.3438, 3992.335
937.8259, 3991.561
938.3080, 3989.149
938.7901, 3989.313
939.2722, 3997.918
939.7543, 4002.402
940.2365, 4000.036
940.7186, 3994.784
941.2007, 3992.208
941.6828, 3992.052
942.1649, 3991.151
942.6470, 3989.122
943.1292, 3986.094
943.6113, 3980.203
944.0934, 3974.662
944.5755, 3973.475
945.0576, 3978.482
945.5397, 3979.985
946.0219, 3975.788
946.5040, 3970.624
946.9861, 3966.875
947.4682, 3964.221
947.9503, 3960.576
948.4324, 3956.165
948.9146, 3953.070
949.3967, 3953.750
949.8788, 3955.044
950.3609, 3954.137
950.8430, 3951.955
951.3251, 3951.458
951.8073, 3954.072
952.2894, 3956.106
952.7715, 3957.038
953.2536, 3957.162
953.7357, 3956.661
954.2179, 3955.737
954.7000, 3955.003
955.1821, 3954.450
955.6642, 3954.927
956.1464, 3958.191
956.6285, 3962.010
957.1106, 3964.347
957.5927, 3964.800
958.0748, 3964.622
958.5569, 3963.244
959.0391, 3962.655
959.5212, 3964.856
960.0033, 3968.676
960.4854, 3970.715
960.9675, 3971.131
961.4496, 3970.969
961.9318, 3971.431
962.4139, 3970.770
962.8960, 3966.968
963.3781, 3961.497
963.8602, 3958.711
964.3423, 3959.805
964.8245, 3958.826
965.3066, 3954.521
965.7887, 3948.085
966.2708, 3939.308
966.7529, 3930.145
967.2350, 3925.258
967.7172, 3927.411
968.1993, 3927.531
968.6814, 3920.624
969.1635, 3911.654
969.6456, 3903.468
970.1277, 3895.938
970.6099, 3891.284
971.0920, 3889.632
971.5741, 3888.569
972.0562, 3886.723
972.5383, 3884.272
973.0204, 3881.203
973.5026, 3877.635
973.9847, 3874.100
974.4668, 3869.376
974.9489, 3866.638
975.4310, 3867.358
975.9131, 3869.753
976.3953, 3870.074
976.8774, 3868.506
977.3595, 3867.593
977.8416, 3868.164
978.3237, 3868.555
978.8058, 3867.190
979.2880, 3864.883
979.7701, 3862.377
980.2522, 3859.562
980.7343, 3857.515
981.2164, 3856.565
981.6985, 3855.770
982.1807, 3854.673
982.6628, 3853.203
983.1449, 3850.677
983.6270, 3847.306
984.1091, 3844.554
984.5912, 3844.632
985.0734, 3844.096
985.5555, 3839.402
986.0376, 3832.802
986.5197, 3830.759
987.0018, 3835.686
987.4839, 3836.851
987.9661, 3831.943
988.4482, 3824.805
988.9303, 3820.099
989.4124, 3817.217
989.8945, 3815.200
990.3766, 3814.029
990.8588, 3813.039
991.3409, 3813.341
991.8230, 3812.442
992.3051, 3807.970
992.7872, 3800.287
993.2693, 3798.003
993.7515, 3801.318
994.2336, 3803.748
994.7157, 3800.384
995.1978, 3795.393
995.6799, 3793.090
996.1620, 3792.888
996.6442, 3793.505
997.1263, 3795.268
997.6084, 3796.816
998.0905, 3798.284
998.5726, 3799.065
999.0547, 3797.857
999.5369, 3795.082
1000.019, 3793.725
1000.501, 3794.224
1000.983, 3794.556
1001.465, 3793.396
1001.947, 3791.416
1002.430, 3788.520
1002.912, 3784.784
1003.394, 3783.891
1003.876, 3787.136
1004.358, 3789.061
1004.840, 3787.186
1005.322, 3783.256
1005.804, 3779.614
1006.287, 3776.735
1006.769, 3775.795
1007.251, 3779.167
1007.733, 3781.566
1008.215, 3779.864
1008.697, 3777.530
1009.179, 3778.024
1009.661, 3781.723
1010.143, 3783.524
1010.626, 3783.178
1011.108, 3782.193
1011.590, 3781.732
1012.072, 3781.292
1012.554, 3780.095
1013.036, 3778.297
1013.518, 3777.293
1014.000, 3777.724
1014.483, 3778.209
1014.965, 3778.309
1015.447, 3778.495
1015.929, 3780.563
1016.411, 3783.655
1016.893, 3784.179
1017.375, 3780.443
1017.857, 3776.883
1018.339, 3776.845
1018.822, 3777.715
1019.304, 3777.002
1019.786, 3774.308
1020.268, 3772.866
1020.750, 3772.878
1021.232, 3772.578
1021.714, 3770.026
1022.196, 3766.913
1022.679, 3767.373
1023.161, 3769.569
1023.643, 3768.232
1024.125, 3757.183
1024.607, 3748.391
1025.089, 3744.729
1025.571, 3743.152
1026.053, 3739.139
1026.535, 3733.200
1027.018, 3729.086
1027.500, 3727.413
1027.982, 3724.946
1028.464, 3718.113
1028.946, 3710.354
1029.428, 3704.248
1029.910, 3699.948
1030.392, 3696.681
1030.875, 3694.953
1031.357, 3692.100
1031.839, 3686.586
1032.321, 3680.187
1032.803, 3676.168
1033.285, 3673.703
1033.767, 3671.194
1034.249, 3668.149
1034.731, 3665.027
1035.214, 3662.831
1035.696, 3659.744
1036.178, 3653.563
1036.660, 3644.414
1037.142, 3638.981
1037.624, 3637.231
1038.106, 3634.944
1038.588, 3628.005
1039.071, 3620.686
1039.553, 3616.187
1040.035, 3614.008
1040.517, 3612.085
1040.999, 3610.825
1041.481, 3608.007
1041.963, 3602.637
1042.445, 3597.305
1042.927, 3595.976
1043.410, 3596.929
1043.892, 3596.636
1044.374, 3594.381
1044.856, 3592.823
1045.338, 3595.690
1045.820, 3596.205
1046.302, 3590.009
1046.784, 3579.083
1047.266, 3574.737
1047.749, 3576.318
1048.231, 3576.730
1048.713, 3572.252
1049.195, 3567.224
1049.677, 3565.707
1050.159, 3565.462
1050.641, 3563.211
1051.123, 3557.406
1051.606, 3553.624
1052.088, 3552.301
1052.570, 3551.602
1053.052, 3550.567
1053.534, 3548.968
1054.016, 3546.101
1054.498, 3542.187
1054.980, 3538.228
1055.463, 3533.512
1055.945, 3530.358
1056.427, 3530.146
1056.909, 3530.803
1057.391, 3528.337
1057.873, 3523.264
1058.355, 3520.188
1058.837, 3519.946
1059.319, 3520.020
1059.802, 3518.288
1060.284, 3516.292
1060.766, 3515.421
1061.248, 3515.631
1061.730, 3515.012
1062.212, 3513.421
1062.694, 3511.953
1063.176, 3511.310
1063.658, 3510.522
1064.141, 3507.353
1064.623, 3503.253
1065.105, 3500.744
1065.587, 3501.290
1066.069, 3501.635
1066.551, 3501.448
1067.033, 3500.805
1067.515, 3498.772
1067.998, 3496.121
1068.480, 3498.935
1068.962, 3505.914
1069.444, 3509.865
1069.926, 3504.247
1070.408, 3497.470
1070.890, 3493.670
1071.372, 3491.158
1071.854, 3487.226
1072.337, 3481.699
1072.819, 3477.436
1073.301, 3474.885
1073.783, 3472.884
1074.265, 3471.288
1074.747, 3469.134
1075.229, 3464.836
1075.711, 3458.594
1076.193, 3453.993
1076.676, 3451.852
1077.158, 3449.890
1077.640, 3447.508
1078.122, 3445.000
1078.604, 3443.189
1079.086, 3441.562
1079.568, 3438.917
1080.051, 3434.648
1080.533, 3430.643
1081.015, 3427.721
1081.497, 3425.054
1081.979, 3422.213
1082.461, 3419.347
1082.943, 3417.205
1083.425, 3415.737
1083.907, 3414.601
1084.390, 3414.453
1084.872, 3413.469
1085.354, 3409.322
1085.836, 3404.287
1086.318, 3401.184
1086.800, 3400.309
1087.282, 3400.703
1087.764, 3402.599
1088.246, 3403.523
1088.729, 3400.268
1089.211, 3395.830
1089.693, 3393.757
1090.175, 3393.565
1090.657, 3393.064
1091.139, 3392.069
1091.621, 3390.087
1092.103, 3386.408
1092.586, 3383.115
1093.068, 3384.582
1093.550, 3388.240
1094.032, 3387.596
1094.514, 3381.894
1094.996, 3376.230
1095.478, 3372.315
1095.960, 3369.697
1096.443, 3368.767
1096.925, 3368.652
1097.407, 3366.331
1097.889, 3362.159
1098.371, 3358.736
1098.853, 3356.645
1099.335, 3355.730
1099.817, 3357.313
1100.299, 3358.941
1100.781, 3358.355
1101.264, 3355.498
1101.746, 3352.144
1102.228, 3348.227
1102.710, 3344.431
1103.192, 3341.168
1103.674, 3338.155
1104.156, 3334.979
1104.638, 3331.944
1105.121, 3329.560
1105.603, 3328.710
1106.085, 3327.064
1106.567, 3324.577
1107.049, 3321.520
1107.531, 3317.114
1108.013, 3312.743
1108.495, 3311.437
1108.978, 3312.627
1109.460, 3313.801
1109.942, 3313.987
1110.424, 3314.171
1110.906, 3315.012
1111.388, 3315.201
1111.870, 3312.128
1112.352, 3306.782
1112.834, 3303.891
1113.317, 3303.738
1113.799, 3303.385
1114.281, 3300.122
1114.763, 3297.322
1115.245, 3297.328
1115.727, 3298.770
1116.209, 3297.952
1116.691, 3294.984
1117.173, 3292.906
1117.656, 3292.696
1118.138, 3291.903
1118.620, 3285.594
1119.102, 3279.977
1119.584, 3282.117
1120.066, 3291.822
1120.548, 3297.367
1121.030, 3298.764
1121.513, 3295.273
1121.995, 3284.693
1122.477, 3272.925
1122.959, 3266.237
1123.441, 3263.202
1123.923, 3262.232
1124.405, 3264.560
1124.887, 3263.712
1125.370, 3258.284
1125.852, 3253.368
1126.334, 3252.251
1126.816, 3253.462
1127.298, 3254.876
1127.780, 3256.005
1128.262, 3255.624
1128.744, 3252.033
1129.226, 3248.732
1129.709, 3246.140
1130.191, 3243.804
1130.673, 3240.888
1131.155, 3237.865
1131.637, 3236.852
1132.119, 3237.578
1132.601, 3238.345
1133.083, 3238.495
1133.566, 3238.247
1134.048, 3237.808
1134.530, 3236.923
1135.012, 3235.222
1135.494, 3232.752
1135.976, 3229.339
1136.458, 3224.993
1136.940, 3221.609
1137.422, 3222.058
1137.905, 3222.362
1138.387, 3219.469
1138.869, 3214.755
1139.351, 3211.683
1139.833, 3210.305
1140.315, 3209.132
1140.797, 3207.901
1141.279, 3206.878
1141.761, 3206.522
1142.244, 3206.281
1142.726, 3205.747
1143.208, 3204.856
1143.690, 3203.151
1144.172, 3200.238
1144.654, 3199.087
1145.136, 3201.260
1145.618, 3203.597
1146.101, 3201.360
1146.583, 3197.437
1147.065, 3195.371
1147.547, 3196.102
1148.029, 3196.832
1148.511, 3197.662
1148.993, 3198.000
1149.475, 3198.005
1149.958, 3196.809
1150.440, 3191.620
1150.922, 3184.576
1151.404, 3179.641
1151.886, 3179.053
1152.368, 3177.692
1152.850, 3174.942
1153.332, 3172.131
1153.814, 3170.309
1154.297, 3168.952
1154.779, 3166.669
1155.261, 3163.674
1155.743, 3160.620
1156.225, 3156.823
1156.707, 3154.416
1157.189, 3154.217
1157.671, 3154.329
1158.153, 3153.049
1158.636, 3150.693
1159.118, 3148.241
1159.600, 3145.888
1160.082, 3144.467
1160.564, 3145.030
1161.046, 3145.815
1161.528, 3146.936
1162.010, 3147.452
1162.493, 3145.700
1162.975, 3142.168
1163.457, 3140.269
1163.939, 3140.064
1164.421, 3139.927
1164.903, 3138.718
1165.385, 3137.574
1165.867, 3137.191
1166.349, 3137.028
1166.832, 3135.987
1167.314, 3134.166
1167.796, 3133.590
1168.278, 3134.493
1168.760, 3134.529
1169.242, 3129.962
1169.724, 3126.083
1170.206, 3127.658
1170.688, 3131.997
1171.171, 3132.105
1171.653, 3128.068
1172.135, 3124.441
1172.617, 3122.046
1173.099, 3120.567
1173.581, 3121.222
1174.063, 3121.488
1174.545, 3118.313
1175.028, 3112.836
1175.510, 3111.333
1175.992, 3114.046
1176.474, 3114.189
1176.956, 3109.426
1177.438, 3104.078
1177.920, 3101.938
1178.402, 3101.286
1178.885, 3100.905
1179.367, 3100.644
1179.849, 3099.036
1180.331, 3095.838
1180.813, 3094.280
1181.295, 3096.434
1181.777, 3098.257
1182.259, 3093.672
1182.741, 3087.599
1183.224, 3086.224
1183.706, 3090.649
1184.188, 3092.188
1184.670, 3090.548
1185.152, 3088.059
1185.634, 3084.986
1186.116, 3082.896
1186.598, 3084.824
1187.081, 3088.236
1187.563, 3089.725
1188.045, 3088.732
1188.527, 3085.753
1189.009, 3080.243
1189.491, 3075.905
1189.973, 3074.937
1190.455, 3075.990
1190.938, 3079.176
1191.420, 3082.610
1191.902, 3082.992
1192.384, 3078.536
1192.866, 3075.034
1193.348, 3072.716
1193.830, 3070.363
1194.312, 3066.693
1194.794, 3062.939
1195.276, 3060.097
1195.759, 3058.510
1196.241, 3059.125
1196.723, 3063.828
1197.205, 3066.493
1197.687, 3066.903
1198.169, 3065.864
1198.651, 3063.035
1199.133, 3059.798
1199.616, 3058.270
1200.098, 3057.819
1200.580, 3056.824
1201.062, 3054.576
1201.544, 3052.824
1202.026, 3051.633
1202.508, 3050.907
1202.990, 3050.906
1203.473, 3051.085
1203.955, 3050.760
1204.437, 3049.993
1204.919, 3049.039
1205.401, 3047.937
1205.883, 3046.667
1206.365, 3045.200
1206.847, 3043.669
1207.329, 3042.324
1207.812, 3040.926
1208.294, 3038.930
1208.776, 3036.565
1209.258, 3034.845
1209.740, 3033.917
1210.222, 3033.695
1210.704, 3034.446
1211.186, 3034.869
1211.668, 3033.196
1212.151, 3030.738
1212.633, 3028.751
1213.115, 3027.438
1213.597, 3027.651
1214.079, 3030.288
1214.561, 3031.598
1215.043, 3030.899
1215.525, 3029.374
1216.008, 3028.333
1216.490, 3027.112
1216.972, 3024.051
1217.454, 3019.646
1217.936, 3018.433
1218.418, 3022.143
1218.900, 3023.224
1219.382, 3019.962
1219.865, 3015.782
1220.347, 3014.437
1220.829, 3014.306
1221.311, 3013.652
1221.793, 3012.436
1222.275, 3011.493
1222.757, 3010.961
1223.239, 3010.494
1223.721, 3010.123
1224.203, 3009.465
1224.686, 3007.530
1225.168, 3005.529
1225.650, 3004.874
1226.132, 3005.563
1226.614, 3006.026
1227.096, 3006.393
1227.578, 3005.619
1228.061, 3003.309
1228.543, 3000.560
1229.025, 2997.214
1229.507, 2995.004
1229.989, 2996.948
1230.471, 3002.328
1230.953, 3003.278
1231.435, 2999.147
1231.917, 2996.313
1232.400, 2996.445
1232.882, 2997.047
1233.364, 2996.495
1233.846, 2994.690
1234.328, 2990.804
1234.810, 2985.388
1235.292, 2981.409
1235.774, 2978.927
1236.256, 2978.177
1236.739, 2979.705
1237.221, 2980.660
1237.703, 2977.875
1238.185, 2974.195
1238.667, 2971.902
1239.149, 2970.798
1239.631, 2970.115
1240.113, 2969.832
1240.596, 2968.739
1241.078, 2966.385
1241.560, 2964.063
1242.042, 2962.131
1242.524, 2961.185
1243.006, 2962.040
1243.488, 2964.011
1243.970, 2964.468
1244.453, 2963.602
1244.935, 2963.155
1245.417, 2963.561
1245.899, 2964.200
1246.381, 2964.933
1246.863, 2965.570
1247.345, 2966.279
1247.827, 2966.733
1248.309, 2965.263
1248.792, 2962.464
1249.274, 2961.066
1249.756, 2962.028
1250.238, 2962.509
1250.720, 2960.878
1251.202, 2958.730
1251.684, 2956.652
1252.166, 2954.605
1252.648, 2952.163
1253.131, 2949.651
1253.613, 2948.122
1254.095, 2947.908
1254.577, 2947.755
1255.059, 2947.491
1255.541, 2946.733
1256.023, 2944.980
1256.505, 2943.144
1256.988, 2943.701
1257.470, 2945.486
1257.952, 2946.068
1258.434, 2944.970
1258.916, 2943.045
1259.398, 2939.615
1259.880, 2937.606
1260.362, 2938.506
1260.844, 2940.384
1261.327, 2939.909
1261.809, 2938.340
1262.291, 2937.670
1262.773, 2938.315
1263.255, 2938.302
1263.737, 2937.169
1264.219, 2936.660
1264.701, 2937.592
1265.183, 2938.484
1265.666, 2936.082
1266.148, 2933.385
1266.630, 2934.409
1267.112, 2939.638
1267.594, 2943.907
1268.076, 2947.411
1268.558, 2948.152
1269.040, 2945.012
1269.523, 2941.013
1270.005, 2938.382
1270.487, 2936.813
1270.969, 2936.297
1271.451, 2936.667
1271.933, 2937.757
1272.415, 2939.560
1272.897, 2939.841
1273.380, 2937.876
1273.862, 2935.572
1274.344, 2934.622
1274.826, 2933.483
1275.308, 2930.890
1275.790, 2927.442
1276.272, 2924.865
1276.754, 2923.176
1277.236, 2922.859
1277.719, 2924.263
1278.201, 2924.680
1278.683, 2922.302
1279.165, 2918.909
1279.647, 2914.621
1280.129, 2910.475
1280.611, 2908.836
1281.093, 2908.989
1281.576, 2909.281
1282.058, 2909.495
1282.540, 2908.539
1283.022, 2904.590
1283.504, 2902.037
1283.986, 2902.240
1284.468, 2903.803
1284.950, 2904.806
1285.432, 2905.555
1285.915, 2906.939
1286.397, 2908.958
1286.879, 2908.919
1287.361, 2906.017
1287.843, 2903.173
1288.325, 2900.783
1288.807, 2899.699
1289.289, 2902.071
1289.771, 2905.389
1290.254, 2907.168
1290.736, 2907.252
1291.218, 2906.546
1291.700, 2904.924
1292.182, 2903.347
1292.664, 2901.922
1293.146, 2901.112
1293.628, 2902.138
1294.111, 2903.068
1294.593, 2902.494
1295.075, 2900.806
1295.557, 2898.263
1296.039, 2895.051
1296.521, 2893.376
1297.003, 2893.672
1297.485, 2894.560
1297.968, 2895.380
1298.450, 2895.458
1298.932, 2894.141
1299.414, 2892.813
1299.896, 2894.317
1300.378, 2897.451
1300.860, 2897.771
1301.342, 2895.288
1301.824, 2893.323
##END=



