##NAMES=Pearceite
##RRUFFID=R090041
##IDEAL CHEMISTRY=Cu(Ag,Cu)_6_Ag_9_As_2_S_11_
##LOCALITY=Uchucchacua mine, Oyon Province, Lima Department, Peru
##OWNER=RRUFF
##SOURCE=Tony Jones
##DESCRIPTION=Aggregates of black hexagonal plates, X-ray diffraction indicates that it is type T2ac.
##STATUS=The identification of this mineral is confirmed by single-crystal X-ray diffraction and chemical analysis.
##URL=rruff.info/R090041
##MEASURED CHEMISTRY=Cu_1.00_(Ag_4.99_Cu_1.01_)_Î£=6.00_Ag_10.62_As_2.02_S_11_
92.06543, 119.8801
92.54755, 117.8393
93.02966, 117.9202
93.51178, 121.7948
93.99390, 123.9260
94.47601, 122.5953
94.95813, 119.0965
95.44025, 115.9878
95.92236, 115.3631
96.40448, 117.3949
96.88660, 118.7840
97.36871, 120.0278
97.85082, 120.5793
98.33294, 119.7104
98.81506, 117.2872
99.29717, 114.4408
99.77929, 113.1832
100.2614, 113.3715
100.7435, 113.2349
101.2256, 111.9581
101.7078, 110.0305
102.1899, 108.6004
102.6720, 107.9828
103.1541, 107.8127
103.6362, 107.6250
104.1183, 107.4162
104.6005, 107.3850
105.0826, 107.9808
105.5647, 109.3912
106.0468, 109.9520
106.5289, 108.0990
107.0110, 106.0065
107.4931, 105.0178
107.9753, 105.5020
108.4574, 106.8265
108.9395, 107.8771
109.4216, 109.2527
109.9037, 109.2138
110.3858, 106.4906
110.8680, 102.8148
111.3501, 100.0382
111.8322, 99.18626
112.3143, 99.93612
112.7964, 100.2471
113.2785, 99.56981
113.7607, 99.07389
114.2428, 99.11702
114.7249, 99.59515
115.2070, 100.2851
115.6891, 101.1952
116.1712, 102.2071
116.6534, 102.0259
117.1355, 99.51270
117.6176, 96.66002
118.0997, 94.97099
118.5818, 94.59038
119.0639, 94.82301
119.5461, 95.52106
120.0282, 96.44589
120.5103, 96.72920
120.9924, 95.04234
121.4745, 92.56641
121.9566, 92.45494
122.4388, 96.70415
122.9209, 100.6801
123.4030, 100.7350
123.8851, 97.74873
124.3672, 94.78352
124.8493, 94.57515
125.3315, 97.37448
125.8136, 99.20682
126.2957, 99.35851
126.7778, 98.75027
127.2599, 96.99685
127.7420, 94.41148
128.2242, 92.25620
128.7063, 92.54422
129.1884, 97.33406
129.6705, 100.3317
130.1526, 100.9774
130.6347, 100.4958
131.1169, 99.54509
131.5990, 98.40353
132.0811, 97.24806
132.5632, 96.47607
133.0453, 96.49741
133.5274, 96.42061
134.0096, 95.90435
134.4917, 95.32330
134.9738, 95.45590
135.4559, 96.85770
135.9380, 98.78874
136.4201, 98.60185
136.9023, 94.78777
137.3844, 91.32090
137.8665, 90.07085
138.3486, 90.69530
138.8307, 91.73750
139.3128, 92.74428
139.7950, 93.46288
140.2771, 93.48592
140.7592, 92.70831
141.2413, 91.31503
141.7234, 89.13170
142.2055, 85.90337
142.6877, 83.25633
143.1698, 82.56722
143.6519, 82.85723
144.1340, 83.03913
144.6161, 82.43716
145.0982, 81.61269
145.5803, 82.26985
146.0625, 85.85614
146.5446, 88.58293
147.0267, 88.77145
147.5088, 87.40233
147.9909, 85.96338
148.4730, 85.42480
148.9552, 85.73850
149.4373, 85.92799
149.9194, 86.19026
150.4015, 86.11833
150.8836, 85.04540
151.3657, 83.46378
151.8479, 82.51077
152.3300, 83.34511
152.8121, 86.45155
153.2942, 88.35283
153.7763, 88.90369
154.2584, 88.71370
154.7406, 87.67879
155.2227, 86.00517
155.7048, 84.39357
156.1869, 83.58472
156.6690, 83.76586
157.1511, 84.48084
157.6333, 86.50029
158.1154, 88.61718
158.5975, 89.78800
159.0796, 89.79070
159.5617, 88.95087
160.0438, 87.09539
160.5260, 84.02818
161.0081, 82.53510
161.4902, 84.69664
161.9723, 88.65421
162.4544, 90.86238
162.9365, 90.06269
163.4187, 88.20714
163.9008, 87.53813
164.3829, 87.98962
164.8650, 88.60768
165.3471, 88.62556
165.8292, 88.21754
166.3113, 88.68798
166.7935, 91.51341
167.2756, 94.11633
167.7577, 94.38380
168.2398, 92.28382
168.7219, 89.50070
169.2040, 87.40150
169.6862, 85.97139
170.1683, 85.34873
170.6504, 86.11963
171.1325, 87.35916
171.6146, 88.96397
172.0967, 90.79958
172.5789, 92.23132
173.0610, 92.11296
173.5431, 89.35345
174.0252, 87.53458
174.5073, 87.40401
174.9894, 87.80030
175.4716, 87.79065
175.9537, 87.10519
176.4358, 86.24574
176.9179, 86.34341
177.4000, 89.71429
177.8821, 90.69973
178.3643, 86.38887
178.8464, 80.91930
179.3285, 78.90546
179.8106, 82.22833
180.2927, 88.72699
180.7748, 92.49854
181.2570, 92.26143
181.7391, 90.92404
182.2212, 87.25361
182.7033, 82.90183
183.1854, 80.78063
183.6675, 82.54814
184.1497, 86.63498
184.6318, 87.83611
185.1139, 84.17519
185.5960, 81.36175
186.0781, 82.28934
186.5602, 85.77348
187.0423, 88.36845
187.5245, 88.23666
188.0066, 86.34831
188.4887, 85.19927
188.9708, 84.94601
189.4529, 85.11356
189.9350, 85.65932
190.4172, 86.52305
190.8993, 87.06644
191.3814, 86.89913
191.8635, 86.26425
192.3456, 85.45970
192.8277, 84.32918
193.3099, 83.40919
193.7920, 83.45661
194.2741, 84.63987
194.7562, 85.53083
195.2383, 85.02052
195.7204, 84.15766
196.2026, 83.85998
196.6847, 84.45386
197.1668, 85.41361
197.6489, 86.01493
198.1310, 86.27920
198.6131, 86.08656
199.0953, 84.95113
199.5774, 83.59866
200.0595, 82.59960
200.5416, 82.14565
201.0237, 82.24986
201.5058, 83.17531
201.9880, 86.17608
202.4701, 87.63467
202.9522, 85.77727
203.4343, 82.79570
203.9164, 80.93550
204.3985, 81.23268
204.8807, 82.94675
205.3628, 83.84013
205.8449, 82.91658
206.3270, 82.43159
206.8091, 83.05308
207.2912, 84.07935
207.7733, 84.62998
208.2555, 84.24900
208.7376, 83.27325
209.2197, 82.95773
209.7018, 84.55211
210.1839, 85.41383
210.6660, 84.89677
211.1482, 83.56413
211.6303, 82.12041
212.1124, 80.89796
212.5945, 79.92555
213.0766, 79.32750
213.5587, 79.41154
214.0409, 79.47083
214.5230, 79.17397
215.0051, 78.77333
215.4872, 78.81596
215.9693, 79.67020
216.4514, 81.00892
216.9336, 81.52113
217.4157, 80.43526
217.8978, 79.71230
218.3799, 80.37431
218.8620, 81.92323
219.3441, 83.09058
219.8263, 83.19930
220.3084, 82.60094
220.7905, 82.32115
221.2726, 82.61782
221.7547, 82.75909
222.2368, 82.28041
222.7190, 81.30735
223.2011, 80.30508
223.6832, 79.32605
224.1653, 78.58785
224.6474, 78.49066
225.1295, 79.35516
225.6117, 80.08909
226.0938, 79.77858
226.5759, 78.55341
227.0580, 77.48992
227.5401, 76.87227
228.0222, 76.74417
228.5043, 77.18620
228.9865, 78.34232
229.4686, 79.50195
229.9507, 80.24115
230.4328, 80.55894
230.9149, 80.09132
231.3970, 77.78561
231.8792, 75.31892
232.3613, 74.26917
232.8434, 74.89925
233.3255, 75.88889
233.8076, 75.84754
234.2897, 74.66068
234.7719, 73.78535
235.2540, 73.59576
235.7361, 73.82626
236.2182, 74.58604
236.7003, 75.84656
237.1824, 76.92242
237.6646, 76.83488
238.1467, 75.26652
238.6288, 74.32845
239.1109, 75.35957
239.5930, 76.36226
240.0751, 75.98723
240.5573, 74.20650
241.0394, 72.30020
241.5215, 71.95744
242.0036, 73.73271
242.4857, 74.80275
242.9678, 74.87950
243.4500, 74.34600
243.9321, 72.72505
244.4142, 70.33022
244.8963, 68.49079
245.3784, 69.12799
245.8605, 73.39462
246.3427, 75.87361
246.8248, 75.33864
247.3069, 74.18507
247.7890, 73.49474
248.2711, 73.33855
248.7532, 73.16753
249.2354, 72.29501
249.7175, 70.37468
250.1996, 69.28626
250.6817, 69.46660
251.1638, 69.97161
251.6459, 70.51944
252.1281, 71.01632
252.6102, 71.41884
253.0923, 71.71380
253.5744, 71.94963
254.0565, 71.72697
254.5386, 70.40697
255.0208, 69.29346
255.5029, 69.17796
255.9850, 69.87261
256.4671, 70.54651
256.9492, 70.42191
257.4313, 69.36941
257.9135, 69.06975
258.3956, 70.24959
258.8777, 71.30513
259.3598, 71.51113
259.8419, 70.98514
260.3240, 70.23216
260.8062, 69.60155
261.2883, 69.09367
261.7704, 68.72964
262.2525, 68.77891
262.7346, 68.66798
263.2167, 67.89976
263.6989, 66.74380
264.1810, 65.91982
264.6631, 65.88838
265.1452, 66.59503
265.6273, 67.55180
266.1094, 69.78440
266.5916, 71.14693
267.0737, 70.03034
267.5558, 67.39816
268.0379, 65.67531
268.5200, 66.40166
269.0021, 68.78491
269.4843, 69.43761
269.9664, 66.80429
270.4485, 64.71951
270.9306, 65.13350
271.4127, 66.95847
271.8948, 67.64870
272.3770, 65.78465
272.8591, 62.68567
273.3412, 62.06958
273.8233, 65.32228
274.3054, 67.62001
274.7875, 66.77082
275.2697, 64.03954
275.7518, 61.81791
276.2339, 60.99801
276.7160, 60.86168
277.1981, 60.00508
277.6802, 58.26888
278.1623, 56.77693
278.6444, 56.10859
279.1266, 55.82601
279.6087, 54.96517
280.0908, 53.08017
280.5729, 51.32998
281.0550, 51.65832
281.5371, 54.01936
282.0193, 56.25975
282.5014, 58.27336
282.9835, 59.70816
283.4656, 59.93393
283.9477, 58.76145
284.4298, 56.84198
284.9120, 54.22300
285.3941, 51.09210
285.8762, 49.46163
286.3583, 51.10416
286.8404, 53.83967
287.3225, 54.99522
287.8047, 54.24736
288.2868, 52.73516
288.7689, 50.85566
289.2510, 48.88237
289.7331, 47.78234
290.2152, 48.65229
290.6974, 49.91093
291.1795, 49.56801
291.6616, 47.52707
292.1437, 46.01937
292.6258, 46.76235
293.1079, 48.99675
293.5901, 50.89860
294.0722, 52.75172
294.5543, 53.71480
295.0364, 52.24274
295.5185, 48.51688
296.0006, 46.03572
296.4828, 47.14231
296.9649, 50.10351
297.4470, 51.78900
297.9291, 51.95225
298.4112, 51.19670
298.8933, 49.12638
299.3755, 46.12510
299.8576, 44.61222
300.3397, 45.90623
300.8218, 48.57565
301.3039, 50.67974
301.7860, 52.20160
302.2682, 53.30678
302.7503, 54.19181
303.2324, 54.75638
303.7145, 54.39994
304.1966, 52.27921
304.6787, 50.44410
305.1609, 51.51894
305.6430, 55.14597
306.1251, 58.32955
306.6072, 59.41666
307.0893, 59.19592
307.5714, 59.38612
308.0536, 60.28281
308.5357, 61.28583
309.0178, 61.60350
309.4999, 61.56094
309.9820, 62.13763
310.4641, 64.53362
310.9463, 67.38024
311.4284, 68.25838
311.9105, 66.72567
312.3926, 65.40554
312.8747, 66.12930
313.3568, 68.22990
313.8390, 70.72514
314.3211, 74.28815
314.8032, 77.28239
315.2853, 77.33866
315.7674, 74.38711
316.2495, 72.17262
316.7317, 72.60295
317.2138, 74.73220
317.6959, 77.16362
318.1780, 80.09911
318.6601, 82.56133
319.1422, 83.53506
319.6243, 83.22930
320.1064, 83.06608
320.5886, 83.50661
321.0707, 84.24993
321.5528, 84.97541
322.0349, 85.70501
322.5170, 86.21184
322.9991, 86.36205
323.4813, 86.19655
323.9634, 85.87514
324.4455, 85.51517
324.9276, 84.80315
325.4097, 83.16587
325.8918, 80.79953
326.3740, 78.71726
326.8561, 77.22491
327.3382, 76.24257
327.8203, 76.05513
328.3024, 77.00197
328.7845, 77.07344
329.2667, 73.63020
329.7488, 68.12447
330.2309, 64.17422
330.7130, 63.44067
331.1951, 63.85574
331.6772, 63.32500
332.1594, 61.86750
332.6415, 60.72758
333.1236, 60.76244
333.6057, 61.46087
334.0878, 61.74218
334.5699, 61.68775
335.0521, 61.00729
335.5342, 58.90502
336.0163, 55.82690
336.4984, 53.72053
336.9805, 53.51395
337.4626, 54.25296
337.9448, 54.56506
338.4269, 54.49605
338.9090, 53.97887
339.3911, 52.14013
339.8732, 49.98231
340.3553, 49.97939
340.8375, 53.13258
341.3196, 56.33458
341.8017, 55.38544
342.2838, 50.74284
342.7659, 47.20403
343.2480, 45.97358
343.7302, 46.10931
344.2123, 47.13664
344.6944, 48.97805
345.1765, 50.24156
345.6586, 49.58383
346.1407, 47.35540
346.6229, 46.13725
347.1050, 46.97968
347.5871, 47.91822
348.0692, 47.74249
348.5513, 46.64558
349.0334, 45.36706
349.5156, 44.25202
349.9977, 43.21452
350.4798, 41.92536
350.9619, 39.79652
351.4440, 38.57379
351.9261, 39.55368
352.4083, 41.64222
352.8904, 43.11247
353.3725, 43.45032
353.8546, 42.98377
354.3367, 41.96332
354.8188, 40.08858
355.3010, 38.99092
355.7831, 39.55541
356.2652, 40.49865
356.7473, 40.57934
357.2294, 39.69798
357.7115, 38.63209
358.1937, 37.92073
358.6758, 37.59499
359.1579, 38.30178
359.6400, 40.97684
360.1221, 43.66558
360.6042, 45.59920
361.0863, 46.78194
361.5685, 47.25132
362.0506, 46.93947
362.5327, 46.10217
363.0148, 45.80220
363.4969, 46.00965
363.9790, 46.74202
364.4612, 48.66304
364.9433, 50.86675
365.4254, 52.15447
365.9075, 52.14987
366.3896, 51.45199
366.8717, 50.95411
367.3539, 50.45029
367.8360, 50.73722
368.3181, 52.45853
368.8002, 54.41283
369.2823, 55.51562
369.7644, 55.89963
370.2466, 56.79213
370.7287, 59.53881
371.2108, 64.35235
371.6929, 67.18004
372.1750, 67.03059
372.6571, 66.12357
373.1393, 64.36906
373.6214, 62.41153
374.1035, 61.25325
374.5856, 61.48840
375.0677, 62.67971
375.5498, 63.47258
376.0320, 64.33136
376.5141, 63.95502
376.9962, 61.28522
377.4783, 58.00404
377.9604, 55.87246
378.4425, 55.19065
378.9247, 54.55978
379.4068, 51.69915
379.8889, 45.44674
380.3710, 41.05722
380.8531, 39.65866
381.3352, 39.11141
381.8174, 39.02017
382.2995, 39.05824
382.7816, 38.69169
383.2637, 37.46534
383.7458, 35.48852
384.2279, 33.51620
384.7101, 31.57883
385.1922, 29.59357
385.6743, 26.82993
386.1564, 24.26187
386.6385, 23.22266
387.1206, 24.38095
387.6028, 26.52915
388.0849, 27.87944
388.5670, 28.37356
389.0491, 28.31972
389.5312, 27.41052
390.0133, 26.20373
390.4955, 24.95332
390.9776, 23.70743
391.4597, 22.58026
391.9418, 21.53004
392.4239, 20.62286
392.9060, 20.31035
393.3882, 20.77201
393.8703, 21.59293
394.3524, 23.05915
394.8345, 24.66017
395.3166, 25.16468
395.7987, 23.40203
396.2809, 20.88363
396.7630, 19.92568
397.2451, 20.64588
397.7272, 20.93889
398.2093, 19.36831
398.6914, 17.12055
399.1736, 16.14470
399.6557, 16.83157
400.1378, 17.68692
400.6199, 17.62346
401.1020, 17.04279
401.5841, 17.24677
402.0662, 18.81306
402.5483, 20.36594
403.0305, 19.89543
403.5126, 17.55364
403.9947, 15.86623
404.4768, 15.70184
404.9589, 16.10080
405.4410, 16.04306
405.9232, 15.55805
406.4053, 15.61558
406.8874, 17.17592
407.3695, 19.70324
407.8516, 20.48035
408.3337, 17.73397
408.8159, 15.54805
409.2980, 15.54416
409.7801, 16.82601
410.2622, 18.07866
410.7443, 18.87112
411.2264, 19.23173
411.7086, 19.15713
412.1907, 18.29635
412.6728, 17.88987
413.1549, 18.59989
413.6370, 19.22590
414.1191, 18.73350
414.6013, 17.29103
415.0834, 15.90609
415.5655, 15.39856
416.0476, 15.71013
416.5297, 15.85959
417.0118, 15.50498
417.4940, 15.37952
417.9761, 16.02107
418.4582, 16.80735
418.9403, 16.86082
419.4224, 15.86512
419.9045, 14.40936
420.3867, 13.37178
420.8688, 12.46344
421.3509, 12.81071
421.8330, 15.98405
422.3151, 19.05521
422.7972, 20.46044
423.2794, 20.27757
423.7615, 19.42673
424.2436, 18.42257
424.7257, 17.34547
425.2078, 16.78909
425.6899, 17.14771
426.1721, 17.33831
426.6542, 16.69817
427.1363, 15.80180
427.6184, 15.41327
428.1005, 15.84880
428.5826, 16.44371
429.0648, 16.18040
429.5469, 15.03695
430.0290, 14.59421
430.5111, 15.66296
430.9932, 17.03297
431.4753, 17.71528
431.9575, 17.74500
432.4396, 17.41970
432.9217, 16.39191
433.4038, 15.26399
433.8859, 15.38957
434.3680, 17.00079
434.8502, 18.15698
435.3323, 17.09643
435.8144, 14.80399
436.2965, 14.11977
436.7786, 16.23317
437.2607, 18.29886
437.7429, 18.71235
438.2250, 17.94625
438.7071, 16.98673
439.1892, 16.08931
439.6713, 15.31550
440.1534, 14.70290
440.6356, 14.17668
441.1177, 14.26436
441.5998, 15.63612
442.0819, 17.12475
442.5640, 17.83867
443.0461, 17.85143
443.5282, 17.83655
444.0103, 18.31194
444.4925, 19.06019
444.9746, 18.83103
445.4567, 16.44294
445.9388, 14.53099
446.4209, 13.90914
446.9030, 13.62277
447.3852, 12.17057
447.8673, 9.405778
448.3494, 7.221169
448.8315, 8.496829
449.3136, 14.42111
449.7957, 17.81143
450.2779, 16.11975
450.7600, 14.36937
451.2421, 14.31915
451.7242, 15.46193
452.2063, 16.66411
452.6884, 17.36434
453.1706, 17.60465
453.6527, 17.44095
454.1348, 16.82627
454.6169, 15.95872
455.0990, 14.18341
455.5811, 12.64566
456.0633, 12.26609
456.5454, 13.09462
457.0275, 14.30145
457.5096, 15.71301
457.9917, 17.06063
458.4738, 17.20226
458.9560, 15.67428
459.4381, 14.05243
459.9202, 13.27599
460.4023, 13.16452
460.8844, 13.53493
461.3665, 14.85641
461.8487, 15.93440
462.3308, 15.65499
462.8129, 14.34615
463.2950, 13.00765
463.7771, 11.77775
464.2592, 11.12927
464.7414, 12.21054
465.2235, 15.48225
465.7056, 17.13984
466.1877, 15.20546
466.6698, 12.69246
467.1519, 12.10295
467.6341, 13.26850
468.1162, 14.56935
468.5983, 14.94502
469.0804, 14.66807
469.5625, 14.98025
470.0446, 17.21890
470.5268, 18.33573
471.0089, 17.23823
471.4910, 15.41539
471.9731, 14.41679
472.4552, 14.44025
472.9373, 14.35901
473.4195, 12.65851
473.9016, 9.079092
474.3837, 7.462808
474.8658, 10.18357
475.3479, 12.31831
475.8300, 11.58805
476.3122, 9.703375
476.7943, 9.497751
477.2764, 12.34894
477.7585, 15.86454
478.2406, 15.84433
478.7227, 11.74684
479.2049, 9.040889
479.6870, 9.340834
480.1691, 10.71944
480.6512, 11.99081
481.1333, 13.10524
481.6154, 14.01346
482.0976, 14.62187
482.5797, 15.03954
483.0618, 15.44449
483.5439, 15.84045
484.0260, 16.14567
484.5081, 16.35756
484.9902, 16.41855
485.4724, 16.19464
485.9545, 15.56086
486.4366, 15.02976
486.9187, 14.84201
487.4008, 14.82646
487.8829, 14.70353
488.3651, 14.44462
488.8472, 14.36474
489.3293, 14.85855
489.8114, 15.91844
490.2935, 16.05038
490.7756, 14.14290
491.2578, 12.78010
491.7399, 13.05743
492.2220, 14.16606
492.7041, 15.14024
493.1862, 15.61893
493.6683, 15.62656
494.1505, 15.09730
494.6326, 13.79893
495.1147, 12.89149
495.5968, 12.58616
496.0789, 12.48519
496.5610, 12.56201
497.0432, 12.72646
497.5253, 12.87306
498.0074, 12.98091
498.4895, 12.94591
498.9716, 12.36948
499.4537, 11.05899
499.9359, 10.45656
500.4180, 11.36138
500.9001, 12.70170
501.3822, 13.72086
501.8643, 14.39174
502.3464, 14.68360
502.8286, 14.42134
503.3107, 13.84847
503.7928, 13.09731
504.2749, 12.18067
504.7570, 12.05181
505.2391, 13.72947
505.7213, 16.16727
506.2034, 16.40220
506.6855, 13.22713
507.1676, 10.95048
507.6497, 11.63027
508.1318, 13.30471
508.6140, 13.64609
509.0961, 12.42119
509.5782, 11.01083
510.0603, 10.62968
510.5424, 11.21782
511.0245, 11.57305
511.5067, 12.23087
511.9888, 11.99504
512.4709, 9.080729
512.9530, 5.961818
513.4351, 5.844160
513.9172, 9.315588
514.3994, 13.55911
514.8815, 15.00655
515.3636, 13.39747
515.8457, 12.60251
516.3278, 13.32558
516.8099, 13.93582
517.2921, 13.74559
517.7742, 13.03385
518.2563, 12.15528
518.7384, 11.12390
519.2205, 10.29029
519.7026, 10.08796
520.1848, 10.46187
520.6669, 10.97590
521.1490, 11.51217
521.6311, 12.22677
522.1132, 13.72268
522.5953, 15.74500
523.0775, 16.59223
523.5596, 15.15778
524.0417, 13.18808
524.5238, 11.67211
525.0059, 10.61478
525.4880, 10.00539
525.9702, 9.885292
526.4523, 9.911207
526.9344, 9.382148
527.4165, 7.542877
527.8986, 7.265935
528.3807, 10.27539
528.8629, 13.11565
529.3450, 13.50843
529.8271, 12.19253
530.3092, 11.16342
530.7913, 11.54703
531.2734, 12.87944
531.7556, 14.21467
532.2377, 15.92103
532.7198, 16.56412
533.2019, 14.88729
533.6840, 12.92999
534.1661, 11.70349
534.6483, 11.19905
535.1304, 10.96765
535.6125, 10.60883
536.0946, 10.45127
536.5767, 11.48270
537.0588, 13.79959
537.5410, 15.17741
538.0231, 14.27434
538.5052, 12.42516
538.9873, 11.78564
539.4694, 12.48468
539.9515, 13.12287
540.4337, 13.26069
540.9158, 13.19236
541.3979, 13.31184
541.8800, 13.55520
542.3621, 13.39692
542.8442, 12.42680
543.3264, 10.99242
543.8085, 10.27792
544.2906, 10.65438
544.7726, 11.30248
545.2548, 12.63928
545.7369, 13.91142
546.2190, 14.67478
546.7011, 14.84992
547.1832, 14.36916
547.6653, 12.96061
548.1475, 11.06002
548.6296, 10.60969
549.1117, 12.30129
549.5938, 13.61701
550.0759, 13.40775
550.5580, 12.82083
551.0402, 12.71003
551.5223, 13.13074
552.0044, 13.57456
552.4865, 14.11911
552.9686, 14.35968
553.4507, 13.12109
553.9329, 10.34939
554.4150, 8.368821
554.8971, 8.701565
555.3792, 10.38449
555.8613, 10.91575
556.3434, 9.880121
556.8256, 8.989435
557.3077, 8.351969
557.7898, 8.145260
558.2719, 8.863145
558.7540, 10.28228
559.2361, 11.37944
559.7183, 11.38612
560.2004, 10.63303
560.6825, 10.58996
561.1646, 12.16759
561.6467, 12.87350
562.1288, 11.53074
562.6110, 10.08588
563.0931, 10.21172
563.5752, 11.71019
564.0573, 12.91043
564.5394, 12.40718
565.0215, 10.90903
565.5037, 10.24170
565.9858, 10.49087
566.4679, 11.07255
566.9500, 12.34439
567.4321, 13.33581
567.9142, 12.46512
568.3964, 9.547908
568.8785, 7.448431
569.3606, 7.482774
569.8427, 8.544714
570.3248, 9.953857
570.8069, 11.44567
571.2891, 12.13999
571.7712, 11.42766
572.2533, 9.988148
572.7354, 9.532644
573.2175, 10.85083
573.6996, 11.79187
574.1818, 12.14344
574.6639, 12.33479
575.1460, 12.61619
575.6281, 12.96406
576.1102, 13.27662
576.5923, 13.52757
577.0745, 13.59696
577.5566, 13.01161
578.0387, 11.51544
578.5208, 10.78400
579.0029, 11.50201
579.4850, 12.73792
579.9672, 14.32938
580.4493, 15.95042
580.9314, 16.24310
581.4135, 13.37741
581.8956, 10.08133
582.3777, 9.146876
582.8599, 10.09165
583.3420, 11.15383
583.8241, 11.79544
584.3062, 12.07281
584.7883, 12.07482
585.2704, 11.81320
585.7526, 11.10688
586.2347, 8.883610
586.7168, 7.380187
587.1989, 8.089594
587.6810, 9.997793
588.1631, 11.69077
588.6453, 12.60142
589.1274, 12.61340
589.6095, 11.13619
590.0916, 7.873108
590.5737, 5.885657
591.0558, 5.467552
591.5380, 6.004829
592.0201, 7.966645
592.5022, 10.35887
592.9843, 11.46914
593.4664, 10.51093
593.9485, 9.633066
594.4307, 11.42437
594.9128, 14.38418
595.3949, 14.43645
595.8770, 10.82601
596.3591, 7.218920
596.8412, 6.500332
597.3234, 8.235968
597.8055, 9.289640
598.2876, 9.204243
598.7697, 9.156401
599.2518, 9.210634
599.7339, 9.469114
600.2161, 10.38833
600.6982, 11.74882
601.1803, 12.38678
601.6624, 11.12033
602.1445, 8.591177
602.6266, 8.006236
603.1088, 10.35778
603.5909, 12.07277
604.0730, 12.00347
604.5551, 11.10364
605.0372, 9.420664
605.5193, 7.217679
606.0015, 6.245841
606.4836, 8.538201
606.9657, 11.73799
607.4478, 12.70114
607.9299, 11.74152
608.4120, 11.01399
608.8942, 11.45421
609.3763, 12.21765
609.8584, 11.98696
610.3405, 10.44275
610.8226, 9.000566
611.3047, 7.281752
611.7869, 6.052536
612.2690, 5.807524
612.7511, 6.252940
613.2332, 7.014594
613.7153, 7.932271
614.1974, 8.754348
614.6796, 9.036150
615.1617, 8.738806
615.6438, 8.718410
616.1259, 8.948823
616.6080, 9.546909
617.0901, 10.97089
617.5723, 12.66118
618.0544, 13.89895
618.5365, 14.67017
619.0186, 14.60640
619.5007, 12.55279
619.9828, 9.898726
620.4650, 9.148003
620.9471, 10.43906
621.4292, 11.84307
621.9113, 12.08584
622.3934, 11.41559
622.8755, 10.76403
623.3577, 9.399331
623.8398, 9.170431
624.3219, 11.48720
624.8040, 13.73888
625.2861, 13.92939
625.7682, 12.48940
626.2504, 11.11518
626.7325, 10.78974
627.2145, 11.05696
627.6967, 11.11012
628.1788, 10.93869
628.6609, 10.82316
629.1430, 10.89787
629.6251, 10.91610
630.1072, 10.60033
630.5894, 10.03023
631.0715, 9.470230
631.5536, 8.267769
632.0357, 7.836282
632.5178, 9.998996
632.9999, 13.01362
633.4821, 13.69061
633.9642, 11.53748
634.4463, 9.131886
634.9284, 9.033819
635.4105, 11.03507
635.8926, 12.04606
636.3748, 11.39554
636.8569, 10.79078
637.3390, 10.20497
637.8211, 10.00535
638.3032, 10.96243
638.7853, 12.82765
639.2675, 13.92202
639.7496, 12.26488
640.2317, 9.774940
640.7138, 10.10410
641.1959, 12.97875
641.6780, 14.79824
642.1602, 14.24662
642.6423, 12.33020
643.1244, 9.947620
643.6065, 6.802772
644.0886, 5.612154
644.5707, 8.127022
645.0529, 10.63967
645.5350, 11.63006
646.0171, 11.67867
646.4992, 11.61426
646.9813, 11.70495
647.4634, 11.87467
647.9456, 12.08260
648.4277, 12.31254
648.9098, 12.35941
649.3919, 12.18047
649.8740, 11.92288
650.3561, 11.49622
650.8383, 11.11463
651.3204, 11.11378
651.8025, 11.53724
652.2846, 11.75538
652.7667, 11.54275
653.2488, 11.00478
653.7310, 9.913607
654.2131, 8.553045
654.6952, 7.898789
655.1773, 8.384871
655.6594, 9.320701
656.1415, 9.571813
656.6237, 8.882754
657.1058, 8.699419
657.5879, 9.894535
658.0700, 10.63384
658.5521, 9.841240
659.0342, 8.585210
659.5164, 8.521261
659.9985, 10.01167
660.4806, 11.07422
660.9627, 9.026907
661.4448, 5.614228
661.9269, 5.415587
662.4091, 8.668543
662.8912, 11.71928
663.3733, 12.99590
663.8554, 12.76642
664.3375, 11.26696
664.8196, 7.449787
665.3018, 5.474751
665.7839, 7.095958
666.2660, 8.900616
666.7481, 8.682680
667.2302, 7.471423
667.7123, 7.405979
668.1945, 9.248281
668.6766, 11.53082
669.1587, 12.30349
669.6408, 11.68062
670.1229, 11.50937
670.6050, 12.06233
671.0872, 12.38827
671.5693, 11.86269
672.0514, 10.89454
672.5335, 10.06890
673.0156, 9.277069
673.4977, 9.196955
673.9799, 10.91442
674.4620, 12.70463
674.9441, 12.86369
675.4262, 11.84044
675.9083, 11.11110
676.3904, 11.32979
676.8726, 12.01421
677.3547, 12.55073
677.8368, 13.07757
678.3189, 12.40950
678.8010, 9.094748
679.2831, 6.708562
679.7653, 7.468343
680.2474, 9.461523
680.7295, 10.29816
681.2116, 9.525891
681.6937, 8.634317
682.1758, 8.258444
682.6580, 8.334616
683.1401, 9.148876
683.6222, 10.45336
684.1043, 10.96446
684.5864, 10.00225
685.0685, 8.496363
685.5507, 8.083954
686.0328, 9.071206
686.5149, 9.923214
686.9970, 10.75769
687.4791, 11.31032
687.9612, 11.23445
688.4434, 10.95802
688.9255, 11.14253
689.4076, 11.91941
689.8897, 12.44741
690.3718, 11.73901
690.8539, 10.45466
691.3361, 9.910789
691.8182, 10.12080
692.3003, 10.54077
692.7824, 10.98005
693.2645, 11.40616
693.7466, 11.79715
694.2288, 12.21476
694.7109, 12.31213
695.1930, 11.78115
695.6751, 11.31113
696.1572, 11.04771
696.6393, 11.02872
697.1215, 11.56238
697.6036, 12.59263
698.0857, 13.12535
698.5678, 11.63427
699.0499, 9.068504
699.5320, 8.470816
700.0142, 9.940465
700.4963, 11.27947
700.9784, 11.81352
701.4605, 11.63292
701.9426, 10.66643
702.4247, 8.756647
702.9069, 7.347796
703.3890, 6.392649
703.8711, 6.015325
704.3532, 6.700339
704.8353, 7.766164
705.3174, 8.248087
705.7996, 8.062921
706.2817, 8.099276
706.7638, 9.329376
707.2459, 11.25958
707.7280, 12.28213
708.2101, 12.31935
708.6923, 12.13881
709.1743, 11.92861
709.6564, 11.60657
710.1385, 10.77538
710.6207, 9.545938
711.1028, 9.414007
711.5849, 11.88065
712.0670, 13.79355
712.5491, 13.78379
713.0313, 12.68754
713.5134, 11.18038
713.9955, 9.547556
714.4776, 8.180059
714.9597, 7.340281
715.4418, 7.007103
715.9240, 7.213689
716.4061, 8.023504
716.8882, 8.802671
717.3703, 9.408238
717.8524, 9.989794
718.3345, 10.91126
718.8167, 11.93426
719.2988, 12.16765
719.7809, 10.79744
720.2630, 9.764954
720.7451, 9.920659
721.2272, 10.59172
721.7094, 11.46452
722.1915, 12.23694
722.6736, 12.10649
723.1557, 10.49143
723.6378, 8.358621
724.1199, 7.687294
724.6021, 8.564907
725.0842, 9.898351
725.5663, 12.13716
726.0484, 13.71711
726.5305, 13.27514
727.0126, 11.61631
727.4948, 10.30659
727.9769, 9.352725
728.4590, 8.918298
728.9411, 9.177367
729.4232, 9.868040
729.9053, 11.12959
730.3875, 12.60505
730.8696, 13.58718
731.3517, 13.77187
731.8338, 13.26913
732.3159, 12.04126
732.7980, 10.09213
733.2802, 8.259800
733.7623, 6.142478
734.2444, 5.350583
734.7265, 7.455861
735.2086, 10.62612
735.6907, 12.22997
736.1729, 12.15672
736.6550, 12.07388
737.1371, 12.72565
737.6192, 13.04268
738.1013, 12.00311
738.5834, 10.34060
739.0656, 9.171522
739.5477, 8.786490
740.0298, 8.947206
740.5119, 9.580593
740.9940, 10.48215
741.4761, 10.72841
741.9583, 10.20727
742.4404, 9.595622
742.9225, 8.709726
743.4046, 8.287656
743.8867, 9.727049
744.3688, 12.53163
744.8510, 13.74615
745.3331, 11.80703
745.8152, 9.910579
746.2973, 9.217658
746.7794, 8.989886
747.2615, 8.525922
747.7437, 7.769268
748.2258, 6.882051
748.7079, 5.898811
749.1900, 5.156929
749.6721, 5.554069
750.1542, 7.061943
750.6364, 7.726163
751.1185, 7.009068
751.6006, 6.472865
752.0827, 7.299096
752.5648, 8.927130
753.0469, 9.752150
753.5291, 9.328173
754.0112, 9.360496
754.4933, 10.87899
754.9754, 12.12163
755.4575, 11.53948
755.9396, 10.03670
756.4218, 9.321455
756.9039, 9.934729
757.3860, 10.99613
757.8681, 12.01281
758.3502, 12.70922
758.8323, 11.62365
759.3145, 8.648583
759.7966, 6.617445
760.2787, 6.796689
760.7608, 7.843436
761.2429, 7.996181
761.7250, 7.114511
762.2072, 7.038564
762.6893, 8.550965
763.1714, 9.797176
763.6535, 10.30948
764.1356, 10.39558
764.6177, 10.08135
765.0999, 9.580766
765.5820, 9.550662
766.0641, 10.54519
766.5462, 11.84200
767.0283, 12.26062
767.5104, 12.15042
767.9926, 13.18227
768.4747, 15.67650
768.9568, 17.43360
769.4389, 16.74298
769.9210, 14.35338
770.4031, 12.76848
770.8853, 12.61994
771.3674, 12.03130
771.8495, 10.07668
772.3316, 8.696250
772.8137, 9.545892
773.2958, 11.18444
773.7780, 11.12348
774.2601, 8.701423
774.7422, 6.570962
775.2243, 6.522400
775.7064, 7.629955
776.1885, 9.228977
776.6707, 10.96701
777.1528, 11.75185
777.6349, 11.20630
778.1170, 10.10032
778.5991, 9.254991
779.0812, 8.685613
779.5634, 8.885603
780.0455, 10.48014
780.5276, 11.43321
781.0097, 10.92640
781.4918, 9.910552
781.9739, 8.661744
782.4561, 7.446066
782.9382, 7.404292
783.4203, 9.995802
783.9024, 12.00725
784.3845, 11.14581
784.8666, 9.365736
785.3488, 9.008825
785.8309, 10.01160
786.3130, 10.99033
786.7951, 11.18191
787.2772, 10.99932
787.7593, 11.36108
788.2415, 12.22845
788.7236, 11.77017
789.2057, 9.513054
789.6878, 7.359639
790.1699, 6.145307
790.6520, 5.643584
791.1342, 5.608344
791.6162, 6.147768
792.0983, 6.462714
792.5804, 6.006227
793.0626, 5.906597
793.5447, 7.256298
794.0268, 8.818350
794.5089, 8.758157
794.9910, 7.173612
795.4731, 6.222726
795.9553, 7.643176
796.4374, 10.03645
796.9195, 11.26918
797.4016, 11.58515
797.8837, 12.23066
798.3658, 13.46784
798.8480, 13.94315
799.3301, 12.42117
799.8122, 9.729733
800.2943, 8.770320
800.7764, 10.97754
801.2585, 11.82724
801.7407, 9.558236
802.2228, 7.788961
802.7049, 8.500820
803.1870, 10.27387
803.6691, 10.96927
804.1512, 10.17411
804.6334, 9.507498
805.1155, 9.977753
805.5976, 10.74256
806.0797, 11.07027
806.5618, 11.06259
807.0439, 11.00722
807.5261, 10.97841
808.0082, 10.81675
808.4903, 10.27802
808.9724, 9.597882
809.4545, 9.925623
809.9366, 11.54608
810.4188, 12.15098
810.9009, 10.92104
811.3830, 9.409396
811.8651, 8.785219
812.3472, 8.793432
812.8293, 8.466042
813.3115, 7.487492
813.7936, 6.851453
814.2757, 6.557639
814.7578, 6.784683
815.2399, 8.197324
815.7220, 10.01688
816.2042, 10.90163
816.6863, 10.50657
817.1684, 9.796701
817.6505, 9.460544
818.1326, 9.425539
818.6147, 9.697461
819.0969, 10.18927
819.5790, 10.39493
820.0611, 10.15996
820.5432, 9.865693
821.0253, 9.921703
821.5074, 10.22316
821.9896, 10.05730
822.4717, 9.220160
822.9538, 8.357210
823.4359, 6.893453
823.9180, 6.135970
824.4001, 7.505416
824.8823, 9.874978
825.3644, 10.97824
825.8465, 10.16301
826.3286, 9.356372
826.8107, 9.449517
827.2928, 9.693083
827.7750, 9.114582
828.2571, 8.315969
828.7392, 8.806202
829.2213, 10.85754
829.7034, 12.82152
830.1855, 13.06116
830.6677, 12.08989
831.1498, 11.21769
831.6319, 10.45453
832.1140, 10.17180
832.5961, 10.63266
833.0782, 10.68793
833.5604, 9.015731
834.0425, 6.341116
834.5246, 5.852956
835.0067, 10.38473
835.4888, 12.24330
835.9709, 8.819490
836.4531, 5.747496
836.9352, 5.809262
837.4173, 7.620622
837.8994, 9.293105
838.3815, 10.47653
838.8636, 10.77927
839.3458, 8.915065
839.8279, 7.065818
840.3100, 7.606090
840.7921, 9.544261
841.2742, 10.94892
841.7563, 11.38272
842.2385, 11.34695
842.7206, 11.17316
843.2027, 10.96791
843.6848, 11.03047
844.1669, 11.36555
844.6490, 11.77310
845.1312, 12.36738
845.6133, 12.45681
846.0954, 11.37090
846.5775, 9.742347
847.0596, 8.979027
847.5417, 9.427705
848.0239, 9.689795
848.5060, 9.281134
848.9881, 9.279987
849.4702, 10.98517
849.9523, 12.64950
850.4344, 11.88683
850.9166, 8.949505
851.3987, 6.868497
851.8808, 7.444242
852.3629, 8.812644
852.8450, 9.648324
853.3271, 10.13979
853.8093, 10.55580
854.2914, 10.93629
854.7735, 11.25424
855.2556, 11.49102
855.7377, 11.66542
856.2198, 11.88676
856.7020, 12.13720
857.1841, 11.89586
857.6662, 11.09252
858.1483, 10.09114
858.6304, 8.859535
859.1125, 7.774157
859.5947, 7.208776
860.0768, 7.164968
860.5589, 7.837941
861.0410, 10.70804
861.5231, 12.18301
862.0052, 10.64836
862.4874, 8.714956
862.9695, 8.109958
863.4516, 8.494556
863.9337, 8.956087
864.4158, 9.342722
864.8979, 9.192377
865.3801, 7.566215
865.8622, 5.774698
866.3443, 5.170651
866.8264, 5.601575
867.3085, 6.822330
867.7906, 8.612082
868.2728, 10.04934
868.7549, 10.22189
869.2370, 9.455021
869.7191, 8.386650
870.2012, 7.029509
870.6833, 6.837302
871.1655, 8.311152
871.6476, 9.684779
872.1297, 9.719751
872.6118, 8.881513
873.0939, 8.299390
873.5760, 7.959743
874.0581, 7.917587
874.5402, 8.630508
875.0223, 9.089140
875.5045, 8.514954
875.9866, 7.899989
876.4687, 8.564043
876.9508, 10.35372
877.4329, 11.41640
877.9150, 10.77349
878.3972, 9.740689
878.8793, 8.592517
879.3614, 7.711408
879.8435, 7.604597
880.3256, 8.165644
880.8077, 9.037290
881.2899, 10.06762
881.7720, 11.00386
882.2541, 11.56034
882.7362, 11.78861
883.2183, 11.80962
883.7004, 11.63456
884.1826, 11.36740
884.6647, 11.05466
885.1468, 10.43435
885.6289, 9.124661
886.1110, 7.384252
886.5931, 6.785493
887.0753, 8.070276
887.5574, 8.122247
888.0395, 5.244474
888.5216, 3.211873
889.0037, 5.023502
889.4858, 8.596222
889.9680, 10.30699
890.4501, 9.697137
890.9322, 9.725434
891.4143, 11.82485
891.8964, 13.42165
892.3785, 13.30401
892.8607, 12.24359
893.3428, 10.69589
893.8249, 9.001300
894.3070, 7.958228
894.7891, 8.150544
895.2712, 8.444995
895.7534, 7.213315
896.2355, 5.760257
896.7176, 6.496766
897.1997, 9.034410
897.6818, 11.64005
898.1639, 13.57650
898.6461, 14.17833
899.1282, 12.15764
899.6103, 8.424685
900.0924, 7.122692
900.5745, 8.368998
901.0566, 9.573935
901.5388, 10.30603
902.0209, 10.57030
902.5030, 10.19519
902.9851, 9.528763
903.4672, 9.629729
903.9493, 11.06685
904.4315, 11.65467
904.9136, 10.60465
905.3957, 9.715270
905.8778, 9.423506
906.3599, 9.613394
906.8420, 10.47865
907.3242, 11.86181
907.8063, 12.61790
908.2884, 12.41691
908.7705, 11.62679
909.2526, 9.505477
909.7347, 7.596498
910.2169, 7.301422
910.6990, 8.329353
911.1811, 10.08404
911.6632, 12.32336
912.1453, 13.91414
912.6274, 13.62451
913.1096, 12.30665
913.5917, 10.88179
914.0738, 9.549287
914.5559, 8.888929
915.0380, 8.972664
915.5201, 9.356010
916.0023, 9.785834
916.4844, 10.02718
916.9665, 9.415436
917.4486, 7.959730
917.9307, 6.950728
918.4128, 6.510462
918.8950, 6.059396
919.3771, 5.234138
919.8592, 4.611269
920.3413, 5.071844
920.8234, 6.574225
921.3055, 7.083581
921.7877, 5.480261
922.2698, 4.867448
922.7519, 6.620989
923.2340, 8.361910
923.7161, 8.722268
924.1982, 8.278730
924.6804, 8.126132
925.1625, 8.462923
925.6446, 8.469458
926.1267, 7.176812
926.6088, 6.400972
927.0909, 7.609526
927.5731, 9.437696
928.0552, 10.56816
928.5373, 10.80949
929.0194, 10.22836
929.5015, 8.560099
929.9836, 7.184798
930.4658, 7.619508
930.9479, 8.851268
931.4300, 9.696970
931.9121, 10.00456
932.3942, 9.337414
932.8763, 7.716586
933.3585, 6.578176
933.8406, 7.512898
934.3227, 9.477320
934.8048, 9.795167
935.2869, 8.641305
935.7690, 7.357353
936.2512, 6.085752
936.7333, 5.926674
937.2154, 7.733441
937.6975, 10.04296
938.1796, 10.28573
938.6617, 8.340109
939.1439, 7.078228
939.6260, 6.599319
940.1081, 6.548754
940.5902, 7.052586
941.0723, 7.678038
941.5544, 8.183521
942.0366, 8.534489
942.5187, 8.594276
943.0008, 8.268704
943.4829, 7.896508
943.9650, 6.670058
944.4471, 6.385603
944.9293, 8.935280
945.4114, 11.91770
945.8935, 12.59775
946.3756, 11.10705
946.8577, 9.691960
947.3398, 9.018812
947.8220, 8.585805
948.3041, 8.048482
948.7862, 7.746647
949.2683, 8.248384
949.7504, 9.145654
950.2325, 9.563307
950.7147, 9.306971
951.1968, 9.054794
951.6789, 9.268560
952.1610, 9.794382
952.6431, 10.83590
953.1252, 11.91672
953.6074, 11.81604
954.0895, 10.60272
954.5716, 9.323410
955.0537, 8.492427
955.5358, 8.270601
956.0179, 9.246171
956.5000, 11.01143
956.9821, 11.63347
957.4642, 11.14988
957.9464, 10.35626
958.4285, 9.406502
958.9106, 8.547007
959.3927, 7.943643
959.8748, 7.619817
960.3569, 7.547418
960.8391, 7.565749
961.3212, 9.096699
961.8033, 13.37919
962.2854, 15.46678
962.7675, 12.46054
963.2496, 8.371122
963.7318, 7.307124
964.2139, 8.869581
964.6960, 10.04281
965.1781, 10.63353
965.6602, 11.14197
966.1423, 11.72519
966.6245, 12.05501
967.1066, 11.89557
967.5887, 11.47056
968.0708, 10.90002
968.5529, 10.23156
969.0350, 10.06786
969.5172, 11.49627
969.9993, 12.14730
970.4814, 10.58709
970.9635, 8.593374
971.4456, 7.144878
971.9277, 6.454934
972.4099, 7.015711
972.8920, 8.895851
973.3741, 10.19293
973.8562, 9.160807
974.3383, 7.852346
974.8204, 7.825787
975.3026, 8.581666
975.7847, 9.668398
976.2668, 10.83449
976.7489, 11.71696
977.2310, 12.15303
977.7131, 12.19518
978.1953, 11.92352
978.6774, 11.27596
979.1595, 9.506701
979.6416, 7.317900
980.1237, 7.352859
980.6058, 9.765186
981.0880, 11.60021
981.5701, 10.92156
982.0522, 8.933641
982.5343, 7.314723
983.0164, 6.149983
983.4985, 6.146915
983.9807, 7.267509
984.4628, 8.146303
984.9449, 8.368450
985.4270, 8.394972
985.9091, 8.604125
986.3912, 8.958212
986.8734, 9.529569
987.3555, 10.47805
987.8376, 9.949947
988.3197, 7.264816
988.8018, 5.662642
989.2839, 6.667538
989.7661, 8.551214
990.2482, 9.466865
990.7303, 9.562422
991.2124, 9.953167
991.6945, 10.77807
992.1766, 11.61855
992.6588, 12.99954
993.1409, 13.55047
993.6230, 12.26252
994.1051, 10.13603
994.5872, 8.325753
995.0693, 6.833279
995.5515, 5.659772
996.0336, 4.345216
996.5157, 4.022391
996.9978, 5.782987
997.4799, 7.531927
997.9620, 7.964203
998.4442, 7.770908
998.9263, 8.177093
999.4084, 9.297109
999.8905, 9.687585
1000.373, 8.325611
1000.855, 7.068358
1001.337, 6.071144
1001.819, 5.894436
1002.301, 7.605625
1002.783, 10.26299
1003.265, 12.14698
1003.747, 12.85224
1004.230, 13.02070
1004.712, 12.92385
1005.194, 12.44695
1005.676, 11.10940
1006.158, 9.635636
1006.640, 8.553752
1007.122, 8.128584
1007.604, 9.216479
1008.086, 12.09848
1008.569, 13.97425
1009.051, 11.32582
1009.533, 7.807911
1010.015, 7.837748
1010.497, 9.651101
1010.979, 10.07120
1011.461, 9.021456
1011.943, 8.264006
1012.426, 8.621431
1012.908, 9.186717
1013.390, 8.766063
1013.872, 9.301970
1014.354, 8.433354
1014.836, 9.549630
1015.318, 9.983767
1015.800, 9.641150
1016.282, 9.777905
1016.765, 11.15655
1017.247, 12.45985
1017.729, 11.05880
1018.211, 12.36438
1018.693, 8.726053
1019.175, 12.10806
1019.657, 13.38857
1020.139, 11.59677
1020.622, 9.281240
1021.104, 8.019714
1021.586, 7.800958
1022.068, 9.014017
1022.550, 11.44030
1023.032, 12.75576
1023.514, 12.95442
1023.996, 12.07060
1024.478, 9.942004
1024.961, 8.595236
1025.443, 9.655779
1025.925, 11.97852
1026.407, 13.02837
1026.889, 12.75264
1027.371, 12.40674
1027.853, 12.20448
1028.335, 10.22323
1028.818, 5.110536
1029.300, 1.243565
1029.782, 2.412038
1030.264, 6.729497
1030.746, 9.351366
1031.228, 10.17886
1031.710, 9.763054
1032.192, 7.449285
1032.674, 5.829604
1033.156, 5.689013
1033.639, 6.225487
1034.121, 6.776816
1034.603, 7.547301
1035.085, 9.423261
1035.567, 8.963616
1036.049, 14.22029
1036.531, 8.879176
1037.013, 5.057154
1037.496, 5.093312
1037.978, 6.869695
1038.460, 9.606287
1038.942, 12.54447
1039.424, 13.07978
1039.906, 9.812588
1040.388, 8.417671
1040.870, 10.95870
1041.353, 12.38620
1041.835, 10.17231
1042.317, 7.612195
1042.799, 7.314996
1043.281, 8.684957
1043.763, 10.18841
1044.245, 12.40115
1044.727, 12.92179
1045.209, 10.03969
1045.692, 7.601875
1046.174, 6.494744
1046.656, 6.335400
1047.138, 7.345766
1047.620, 8.987562
1048.102, 9.865702
1048.584, 9.708435
1049.066, 9.399710
1049.548, 8.583424
1050.031, 8.243055
1050.513, 9.034282
1050.995, 10.11653
1051.477, 11.10664
1051.959, 11.78400
1052.441, 11.43264
1052.923, 9.447811
1053.405, 9.034567
1053.888, 13.25674
1054.370, 16.07587
1054.852, 14.23155
1055.334, 10.96466
1055.816, 8.330713
1056.298, 6.646207
1056.780, 6.336727
1057.262, 7.692278
1057.745, 8.714263
1058.227, 8.307051
1058.709, 8.148004
1059.191, 9.874124
1059.673, 11.29347
1060.155, 9.838943
1060.637, 6.792029
1061.119, 5.111759
1061.601, 5.427568
1062.083, 6.208445
1062.566, 7.481930
1063.048, 8.403263
1063.530, 8.204603
1064.012, 7.857234
1064.494, 8.328844
1064.976, 9.260052
1065.458, 9.753820
1065.940, 9.634803
1066.423, 9.685301
1066.905, 10.82838
1067.387, 11.40025
1067.869, 10.05803
1068.351, 8.362824
1068.833, 7.415520
1069.315, 7.205717
1069.797, 7.590648
1070.280, 8.506525
1070.762, 9.503867
1071.244, 10.77968
1071.726, 11.59140
1072.208, 11.27484
1072.690, 10.67268
1073.172, 10.45871
1073.654, 10.45333
1074.136, 10.15323
1074.619, 9.553325
1075.101, 9.378123
1075.583, 10.45952
1076.065, 11.11219
1076.547, 10.01261
1077.029, 8.687800
1077.511, 8.071353
1077.993, 8.156687
1078.475, 9.051897
1078.958, 10.57002
1079.440, 11.79199
1079.922, 12.41783
1080.404, 12.61494
1080.886, 12.45984
1081.368, 11.91429
1081.850, 10.72828
1082.332, 9.274292
1082.814, 7.522068
1083.297, 5.910961
1083.779, 6.197089
1084.261, 9.865878
1084.743, 12.48052
1085.225, 10.67389
1085.707, 8.646555
1086.189, 9.729670
1086.671, 11.65894
1087.154, 11.57317
1087.636, 9.777285
1088.118, 8.174892
1088.600, 7.164213
1089.082, 7.126450
1089.564, 9.305350
1090.046, 11.19295
1090.528, 11.05804
1091.010, 10.21271
1091.493, 10.10779
1091.975, 10.41095
1092.457, 9.862514
1092.939, 8.085992
1093.421, 6.705270
1093.903, 6.403455
1094.385, 6.516904
1094.867, 7.155949
1095.349, 7.716836
1095.832, 7.352570
1096.314, 6.675445
1096.796, 7.244992
1097.278, 9.259390
1097.760, 9.917989
1098.242, 6.439121
1098.724, 4.150916
1099.206, 5.964946
1099.689, 8.335498
1100.171, 9.115582
1100.653, 8.739532
1101.135, 7.514289
1101.617, 5.746757
1102.099, 5.487187
1102.581, 8.474827
1103.063, 10.83693
1103.546, 11.44774
1104.028, 11.47691
1104.510, 11.33024
1104.992, 11.07034
1105.474, 10.50314
1105.956, 9.814280
1106.438, 9.932282
1106.920, 11.73477
1107.402, 12.46179
1107.885, 10.63132
1108.367, 9.019441
1108.849, 8.539039
1109.331, 8.767271
1109.813, 9.901129
1110.295, 11.34396
1110.777, 11.43638
1111.259, 9.722937
1111.741, 8.133932
1112.224, 6.391352
1112.706, 5.373540
1113.188, 5.716929
1113.670, 6.364591
1114.152, 6.593142
1114.634, 6.700679
1115.116, 7.258788
1115.598, 8.305929
1116.081, 9.319919
1116.563, 10.52761
1117.045, 11.30064
1117.527, 11.42846
1118.009, 11.33824
1118.491, 11.33285
1118.973, 11.09978
1119.455, 10.12636
1119.938, 8.521265
1120.420, 7.223276
1120.902, 6.024096
1121.384, 5.741299
1121.866, 6.929170
1122.348, 7.868598
1122.830, 7.883677
1123.312, 7.600695
1123.794, 7.499672
1124.276, 7.626910
1124.759, 8.286840
1125.241, 9.825533
1125.723, 9.615807
1126.205, 6.819923
1126.687, 5.744953
1127.169, 7.923167
1127.651, 10.09616
1128.133, 10.04083
1128.616, 8.780105
1129.098, 8.087381
1129.580, 7.942617
1130.062, 7.986410
1130.544, 8.229761
1131.026, 8.489480
1131.508, 8.714209
1131.990, 9.315661
1132.473, 10.56713
1132.955, 11.70485
1133.437, 11.78163
1133.919, 12.02285
1134.401, 10.75279
1134.883, 10.67313
1135.365, 9.429259
1135.847, 7.081418
1136.329, 6.545614
1136.812, 8.687825
1137.294, 11.07873
1137.776, 11.86447
1138.258, 11.49426
1138.740, 10.41495
1139.222, 8.916181
1139.704, 7.596921
1140.186, 6.733751
1140.668, 7.908231
1141.151, 10.97268
1141.633, 13.26150
1142.115, 13.42600
1142.597, 12.43750
1143.079, 10.90399
1143.561, 9.339956
1144.043, 8.990313
1144.525, 9.085899
1145.008, 7.331304
1145.490, 4.581557
1145.972, 4.463483
1146.454, 7.748602
1146.936, 10.78897
1147.418, 10.88440
1147.900, 10.19265
1148.382, 10.88067
1148.865, 11.82500
1149.347, 11.73593
1149.829, 10.92515
1150.311, 9.720530
1150.793, 8.480772
1151.275, 8.282691
1151.757, 9.843636
1152.239, 10.90993
1152.721, 9.429338
1153.203, 7.950332
1153.686, 8.582220
1154.168, 9.682463
1154.650, 9.467555
1155.132, 8.313028
1155.614, 7.200841
1156.096, 6.306447
1156.578, 6.246001
1157.060, 7.925096
1157.543, 9.399350
1158.025, 9.967869
1158.507, 10.37447
1158.989, 11.37619
1159.471, 12.25546
1159.953, 11.80451
1160.435, 10.24775
1160.917, 9.476329
1161.400, 10.45280
1161.882, 10.32283
1162.364, 7.221388
1162.846, 5.916887
1163.328, 9.108777
1163.810, 12.49998
1164.292, 13.02555
1164.774, 11.60430
1165.256, 9.960815
1165.739, 8.038991
1166.221, 6.938500
1166.703, 6.662000
1167.185, 7.461484
1167.667, 9.948039
1168.149, 11.14491
1168.631, 9.244271
1169.113, 7.121954
1169.595, 8.194513
1170.078, 11.32250
1170.560, 12.50077
1171.042, 11.77304
1171.524, 10.66270
1172.006, 9.258780
1172.488, 8.327062
1172.970, 8.065233
1173.452, 8.550459
1173.934, 9.914808
1174.417, 11.16826
1174.899, 10.60812
1175.381, 8.982737
1175.863, 8.221229
1176.345, 8.119138
1176.827, 8.266036
1177.309, 8.469794
1177.791, 8.205001
1178.274, 7.346648
1178.756, 6.450944
1179.238, 5.682827
1179.720, 5.683476
1180.202, 7.952917
1180.684, 10.71987
1181.166, 11.88937
1181.648, 11.86332
1182.130, 11.94256
1182.613, 11.78812
1183.095, 8.641768
1183.577, 0.8217070
1184.059, -3.559822
1184.541, 3.162112
1185.023, 10.08207
1185.505, 11.18414
1185.987, 10.09372
1186.469, 9.039130
1186.952, 8.478662
1187.434, 8.816428
1187.916, 10.03938
1188.398, 11.43643
1188.880, 13.66359
1189.362, 14.74853
1189.844, 13.78205
1190.326, 12.57008
1190.809, 11.51823
1191.291, 10.66060
1191.773, 10.08318
1192.255, 9.701639
1192.737, 9.319490
1193.219, 8.938015
1193.701, 8.462569
1194.183, 7.623908
1194.666, 7.958285
1195.148, 10.13651
1195.630, 11.34990
1196.112, 10.05670
1196.594, 8.510542
1197.076, 9.374123
1197.558, 8.052807
1198.040, 7.721307
1198.522, 7.761360
1199.005, 7.005920
1199.487, 8.292366
1199.969, 8.642601
1200.451, 7.546660
1200.933, 6.814439
1201.415, 7.445939
1201.897, 8.530542
1202.379, 9.007091
1202.861, 9.365259
1203.344, 10.88317
1203.826, 12.55337
1204.308, 12.39738
1204.790, 10.90151
1205.272, 9.339507
1205.754, 8.177112
1206.236, 7.894917
1206.718, 8.947767
1207.201, 10.09329
1207.683, 10.72336
1208.165, 11.00294
1208.647, 11.01360
1209.129, 10.76071
1209.611, 9.909438
1210.093, 8.908060
1210.575, 8.883280
1211.057, 10.02042
1211.540, 10.41201
1212.022, 9.207140
1212.504, 8.143649
1212.986, 7.189004
1213.468, 6.724003
1213.950, 7.049941
1214.432, 7.720506
1214.914, 8.391446
1215.396, 9.063860
1215.879, 9.753758
1216.361, 10.47271
1216.843, 11.17541
1217.325, 12.00442
1217.807, 11.58506
1218.289, 9.532979
1218.771, 7.983768
1219.253, 7.897964
1219.736, 8.760340
1220.218, 10.19072
1220.700, 11.76449
1221.182, 12.68881
1221.664, 12.94974
1222.146, 12.22321
1222.628, 10.81787
1223.110, 9.813766
1223.593, 9.292086
1224.075, 8.370225
1224.557, 6.681123
1225.039, 5.776441
1225.521, 7.798862
1226.003, 9.988043
1226.485, 9.406630
1226.967, 10.45271
1227.449, 8.602346
1227.932, 9.762544
1228.414, 9.409224
1228.896, 7.854517
1229.378, 7.946852
1229.860, 11.12438
1230.342, 12.95567
1230.824, 11.65924
1231.306, 9.970278
1231.788, 7.857371
1232.271, 6.520983
1232.753, 6.991191
1233.235, 8.265656
1233.717, 9.001101
1234.199, 9.341639
1234.681, 10.28446
1235.163, 12.00540
1235.645, 13.57975
1236.128, 15.07494
1236.610, 15.99453
1237.092, 16.27329
1237.574, 15.16970
1238.056, 12.05202
1238.538, 9.040187
1239.020, 9.257039
1239.502, 11.16648
1239.984, 10.83310
1240.467, 8.970021
1240.949, 7.096717
1241.431, 5.706063
1241.913, 6.071289
1242.395, 8.107523
1242.877, 10.01843
1243.359, 10.93906
1243.841, 11.36619
1244.323, 11.68169
1244.806, 11.63972
1245.288, 10.76894
1245.770, 9.728868
1246.252, 9.097616
1246.734, 8.762436
1247.216, 8.482858
1247.698, 8.240679
1248.180, 8.124337
1248.662, 8.142033
1249.145, 8.288667
1249.627, 8.203078
1250.109, 8.968903
1250.591, 12.00636
1251.073, 13.58817
1251.555, 10.68288
1252.037, 6.889607
1252.519, 7.444839
1253.002, 11.09952
1253.484, 11.95746
1253.966, 10.08087
1254.448, 7.611181
1254.930, 4.806790
1255.412, 4.065913
1255.894, 5.733546
1256.376, 7.564698
1256.859, 8.357312
1257.341, 8.792813
1257.823, 9.636969
1258.305, 10.40655
1258.787, 10.22233
1259.269, 9.748143
1259.751, 10.29667
1260.233, 11.01765
1260.715, 9.582422
1261.198, 6.661447
1261.680, 6.161958
1262.162, 9.682327
1262.644, 12.19462
1263.126, 11.66395
1263.608, 10.60040
1264.090, 9.301711
1264.572, 8.159229
1265.054, 6.905724
1265.537, 6.420401
1266.019, 8.217831
1266.501, 11.25382
1266.983, 11.79965
1267.465, 9.536386
1267.947, 8.276163
1268.429, 8.085064
1268.911, 8.287003
1269.394, 8.789118
1269.876, 8.423196
1270.358, 6.703563
1270.840, 5.969447
1271.322, 8.623934
1271.804, 12.14462
1272.286, 12.65922
1272.768, 11.46114
1273.250, 10.18840
1273.733, 9.192512
1274.215, 9.172720
1274.697, 9.807981
1275.179, 10.24882
1275.661, 10.22945
1276.143, 9.451790
1276.625, 7.092634
1277.107, 5.354115
1277.589, 5.173599
1278.072, 5.469301
1278.554, 5.770436
1279.036, 6.375515
1279.518, 7.893514
1280.000, 9.559614
1280.482, 9.987385
1280.964, 9.299915
1281.446, 9.039011
1281.929, 9.277733
1282.411, 9.206710
1282.893, 8.740313
1283.375, 9.235652
1283.857, 11.00881
1284.339, 12.48641
1284.821, 12.75972
1285.303, 12.21805
1285.786, 11.22831
1286.268, 9.783199
##END=



