##NAMES=Petersite-(Ce)
##RRUFFID=R050541
##IDEAL CHEMISTRY=Cu^2+^_6_Ce^3+^(PO_4_)_3_(OH)_6_&#183;3H_2_O
##LOCALITY=Cherry Creek district, Yavapai County, Arizona, USA
##OWNER=RRUFF
##SOURCE=UAMM
##DESCRIPTION=Spray of yellowish-green acicular crystals, type sample
##STATUS=The identification of this mineral is confirmed by single-crystal X-ray diffraction and chemical analysis.
##URL=rruff.info/R050541
##MEASURED CHEMISTRY=Cu_6.03_(Ce_0.18_Y_0.16_La_0.12_Nd_0.09_Gd_0.03_Pr_0.02_Sm_0.01_Dy_0.01_Ca_0.42_)_Σ=1.05_[(PO_4_)_0.95_(SiO_4_)_0.05_]_3_(OH)_6_·3.21H_2_O
95.685, 186.594
96.167, 204.787
96.650, 224.587
97.132, 248.625
97.614, 279.678
98.096, 315.718
98.578, 348.259
99.060, 376.383
99.542, 403.354
100.024, 434.101
100.507, 468.960
100.989, 502.616
101.471, 532.528
101.953, 558.165
102.435, 586.927
102.917, 618.544
103.399, 653.376
103.881, 692.432
104.364, 737.819
104.846, 783.479
105.328, 825.972
105.810, 862.845
106.292, 907.016
106.774, 963.271
107.256, 1025.118
107.738, 1079.614
108.220, 1120.570
108.702, 1161.402
109.185, 1207.440
109.667, 1263.124
110.149, 1315.470
110.631, 1359.754
111.113, 1400.521
111.595, 1450.028
112.077, 1519.426
112.560, 1589.126
113.042, 1650.419
113.524, 1693.628
114.006, 1743.395
114.488, 1803.047
114.970, 1872.656
115.452, 1949.456
115.934, 2044.617
116.416, 2139.365
116.898, 2223.261
117.381, 2284.738
117.863, 2346.843
118.345, 2421.932
118.827, 2506.235
119.309, 2584.363
119.791, 2651.603
120.273, 2710.151
120.755, 2763.274
121.238, 2821.254
121.720, 2863.035
122.202, 2873.251
122.684, 2854.005
123.166, 2815.966
123.648, 2766.257
124.130, 2702.136
124.612, 2618.694
125.094, 2502.368
125.577, 2377.313
126.059, 2271.213
126.541, 2182.625
127.023, 2095.711
127.505, 1995.682
127.987, 1888.248
128.469, 1787.053
128.951, 1695.569
129.434, 1613.389
129.916, 1541.103
130.398, 1478.814
130.880, 1422.486
131.362, 1366.422
131.844, 1312.740
132.326, 1267.461
132.808, 1234.613
133.290, 1211.427
133.773, 1190.217
134.255, 1171.930
134.737, 1151.579
135.219, 1121.147
135.701, 1079.956
136.183, 1042.709
136.665, 1013.249
137.147, 991.225
137.630, 974.036
138.112, 963.056
138.594, 954.099
139.076, 940.660
139.558, 920.757
140.040, 905.846
140.522, 901.005
141.004, 906.919
141.486, 907.228
141.969, 898.535
142.451, 888.318
142.933, 888.135
143.415, 904.257
143.897, 916.918
144.379, 920.015
144.861, 912.290
145.343, 901.776
145.826, 884.312
146.308, 866.663
146.790, 858.574
147.272, 866.941
147.754, 875.715
148.236, 880.283
148.718, 879.090
149.200, 879.254
149.682, 882.075
150.165, 885.865
150.647, 888.077
151.129, 887.659
151.611, 886.657
152.093, 885.144
152.575, 882.138
153.057, 881.397
153.539, 883.461
154.021, 887.761
154.504, 893.548
154.986, 901.586
155.468, 910.347
155.950, 919.588
156.432, 929.685
156.914, 939.035
157.396, 948.132
157.878, 956.186
158.361, 962.010
158.843, 959.577
159.325, 959.546
159.807, 967.289
160.289, 985.413
160.771, 1004.226
161.253, 1020.713
161.735, 1036.040
162.217, 1051.984
162.700, 1069.368
163.182, 1087.569
163.664, 1106.050
164.146, 1124.491
164.628, 1144.421
165.110, 1169.278
165.592, 1196.053
166.074, 1219.494
166.557, 1236.742
167.039, 1250.199
167.521, 1260.337
168.003, 1266.089
168.485, 1273.458
168.967, 1286.429
169.449, 1303.719
169.931, 1322.828
170.413, 1342.960
170.896, 1364.138
171.378, 1387.520
171.860, 1414.270
172.342, 1438.792
172.824, 1453.176
173.306, 1461.310
173.788, 1471.490
174.270, 1493.453
174.753, 1517.761
175.235, 1531.488
175.717, 1531.962
176.199, 1529.102
176.681, 1534.952
177.163, 1545.758
177.645, 1551.167
178.127, 1539.230
178.609, 1520.149
179.092, 1511.219
179.574, 1515.539
180.056, 1522.379
180.538, 1518.492
181.020, 1506.378
181.502, 1495.372
181.984, 1495.589
182.466, 1499.664
182.949, 1489.204
183.431, 1460.926
183.913, 1428.766
184.395, 1410.837
184.877, 1405.256
185.359, 1400.594
185.841, 1390.133
186.323, 1375.987
186.805, 1365.719
187.288, 1360.355
187.770, 1355.835
188.252, 1345.145
188.734, 1328.965
189.216, 1315.936
189.698, 1312.011
190.180, 1315.081
190.662, 1314.482
191.145, 1309.421
191.627, 1302.875
192.109, 1299.628
192.591, 1299.530
193.073, 1297.804
193.555, 1290.395
194.037, 1278.506
194.519, 1272.854
195.001, 1274.485
195.484, 1279.073
195.966, 1280.848
196.448, 1279.667
196.930, 1278.452
197.412, 1277.441
197.894, 1276.879
198.376, 1280.796
198.858, 1290.240
199.340, 1301.345
199.823, 1308.886
200.305, 1312.509
200.787, 1315.955
201.269, 1320.513
201.751, 1326.100
202.233, 1331.148
202.715, 1335.455
203.197, 1339.693
203.680, 1344.833
204.162, 1351.066
204.644, 1356.852
205.126, 1360.498
205.608, 1362.415
206.090, 1371.602
206.572, 1390.530
207.054, 1411.631
207.536, 1426.373
208.019, 1433.632
208.501, 1439.270
208.983, 1444.227
209.465, 1448.569
209.947, 1454.374
210.429, 1463.082
210.911, 1470.562
211.393, 1471.490
211.876, 1463.099
212.358, 1458.318
212.840, 1461.756
213.322, 1472.155
213.804, 1474.636
214.286, 1466.858
214.768, 1455.328
215.250, 1445.592
215.732, 1438.213
216.215, 1431.244
216.697, 1426.907
217.179, 1423.528
217.661, 1406.667
218.143, 1370.401
218.625, 1330.343
219.107, 1297.565
219.589, 1274.800
220.072, 1251.583
220.554, 1225.871
221.036, 1198.470
221.518, 1174.709
222.000, 1156.064
222.482, 1138.756
222.964, 1120.447
223.446, 1101.396
223.928, 1081.038
224.411, 1058.545
224.893, 1034.866
225.375, 1012.333
225.857, 990.798
226.339, 971.349
226.821, 954.967
227.303, 942.544
227.785, 931.217
228.268, 921.881
228.750, 913.378
229.232, 902.513
229.714, 887.774
230.196, 873.084
230.678, 859.950
231.160, 847.857
231.642, 838.490
232.124, 832.756
232.607, 829.311
233.089, 825.722
233.571, 822.643
234.053, 818.311
234.535, 811.450
235.017, 800.467
235.499, 793.023
235.981, 790.754
236.464, 790.960
236.946, 789.180
237.428, 784.210
237.910, 779.261
238.392, 774.747
238.874, 770.299
239.356, 768.809
239.838, 771.790
240.320, 776.503
240.803, 779.830
241.285, 782.281
241.767, 782.261
242.249, 778.131
242.731, 769.230
243.213, 765.010
243.695, 766.702
244.177, 771.876
244.660, 778.727
245.142, 789.592
245.624, 797.655
246.106, 801.254
246.588, 800.559
247.070, 798.923
247.552, 795.058
248.034, 791.821
248.516, 791.099
248.999, 792.005
249.481, 797.652
249.963, 810.342
250.445, 828.603
250.927, 843.082
251.409, 853.864
251.891, 860.740
252.373, 862.892
252.855, 857.143
253.338, 854.231
253.820, 855.787
254.302, 860.510
254.784, 864.220
255.266, 866.658
255.748, 868.519
256.230, 870.117
256.712, 871.516
257.194, 872.680
257.677, 874.382
258.159, 875.428
258.641, 873.106
259.123, 866.706
259.605, 858.385
260.087, 847.820
260.569, 833.373
261.052, 825.021
261.534, 825.331
262.016, 829.450
262.498, 829.997
262.980, 826.264
263.462, 820.611
263.944, 812.526
264.426, 801.403
264.908, 796.657
265.391, 801.335
265.873, 808.154
266.355, 808.037
266.837, 798.476
267.319, 790.133
267.801, 785.423
268.283, 784.180
268.765, 784.644
269.247, 787.869
269.730, 790.732
270.212, 789.047
270.694, 780.676
271.176, 778.082
271.658, 785.419
272.140, 799.726
272.622, 808.029
273.104, 809.127
273.586, 807.365
274.069, 804.695
274.551, 800.604
275.033, 799.377
275.515, 801.974
275.997, 807.146
276.479, 813.319
276.961, 821.734
277.444, 825.556
277.926, 818.251
278.408, 798.921
278.890, 787.116
279.372, 784.921
279.854, 787.633
280.336, 786.758
280.818, 781.748
281.300, 778.003
281.783, 778.817
282.265, 783.792
282.747, 785.932
283.229, 785.199
283.711, 781.851
284.193, 774.280
284.675, 762.429
285.157, 754.546
285.639, 755.234
286.122, 761.847
286.604, 760.900
287.086, 751.171
287.568, 742.839
288.050, 749.161
288.532, 768.270
289.014, 780.350
289.496, 779.310
289.978, 770.094
290.461, 762.765
290.943, 757.381
291.425, 754.442
291.907, 755.302
292.389, 759.209
292.871, 763.392
293.353, 768.070
293.835, 771.571
294.318, 769.305
294.800, 762.179
295.282, 757.128
295.764, 760.730
296.246, 769.330
296.728, 773.313
297.210, 771.612
297.692, 767.614
298.174, 764.169
298.657, 761.490
299.139, 760.263
299.621, 763.336
300.103, 767.283
300.585, 764.447
301.067, 754.633
301.549, 745.639
302.031, 746.371
302.513, 752.925
302.996, 757.128
303.478, 755.140
303.960, 750.611
304.442, 747.438
304.924, 745.534
305.406, 744.143
305.888, 745.520
306.371, 746.223
306.853, 740.520
307.335, 723.945
307.817, 707.133
308.299, 701.141
308.781, 702.926
309.263, 703.905
309.745, 698.742
310.227, 690.888
310.710, 683.504
311.192, 677.141
311.674, 670.554
312.156, 662.027
312.638, 652.803
313.120, 644.909
313.602, 639.584
314.084, 635.460
314.566, 631.783
315.049, 628.490
315.531, 625.725
316.013, 624.854
316.495, 623.996
316.977, 621.246
317.459, 615.895
317.941, 608.624
318.423, 596.885
318.905, 582.211
319.388, 573.068
319.870, 577.322
320.352, 584.937
320.834, 589.394
321.316, 587.979
321.798, 585.828
322.280, 585.007
322.762, 584.322
323.245, 581.137
323.727, 568.401
324.209, 558.598
324.691, 558.383
325.173, 572.867
325.655, 581.706
326.137, 577.793
326.619, 568.632
327.102, 563.192
327.584, 563.358
328.066, 565.997
328.548, 571.950
329.030, 581.582
329.512, 587.909
329.994, 587.938
330.476, 586.783
330.958, 588.152
331.440, 595.681
331.923, 600.046
332.405, 598.931
332.887, 593.816
333.369, 591.390
333.851, 592.585
334.333, 595.182
334.815, 598.648
335.297, 604.469
335.780, 606.552
336.262, 602.568
336.744, 596.583
337.226, 596.233
337.708, 604.051
338.190, 610.987
338.672, 613.872
339.154, 612.660
339.637, 612.326
340.119, 613.997
340.601, 614.165
341.083, 607.236
341.565, 591.811
342.047, 581.436
342.529, 580.518
343.011, 586.083
343.493, 588.192
343.976, 586.830
344.458, 582.248
344.940, 572.491
345.422, 558.371
345.904, 548.491
346.386, 544.637
346.868, 543.498
347.350, 539.197
347.832, 532.136
348.315, 526.116
348.797, 524.660
349.279, 525.708
349.761, 522.928
350.243, 515.920
350.725, 508.232
351.207, 503.504
351.690, 500.986
352.172, 498.689
352.654, 496.232
353.136, 493.408
353.618, 489.335
354.100, 484.282
354.582, 480.283
355.064, 479.712
355.546, 480.627
356.029, 480.558
356.511, 479.000
356.993, 476.440
357.475, 471.776
357.957, 466.357
358.439, 463.160
358.921, 466.780
359.403, 470.985
359.885, 470.947
360.368, 466.025
360.850, 460.206
361.332, 453.482
361.814, 447.670
362.296, 444.753
362.778, 448.730
363.260, 452.469
363.742, 452.768
364.224, 450.204
364.707, 448.586
365.189, 449.700
365.671, 451.585
366.153, 453.183
366.635, 454.799
367.117, 455.366
367.599, 453.800
368.081, 451.189
368.564, 449.637
369.046, 450.037
369.528, 450.796
370.010, 451.224
370.492, 450.932
370.974, 452.451
371.456, 457.236
371.938, 462.762
372.421, 466.872
372.903, 469.638
373.385, 470.753
373.867, 469.473
374.349, 466.357
374.831, 464.520
375.313, 463.918
375.795, 464.674
376.277, 467.762
376.759, 474.347
377.242, 476.580
377.724, 472.515
378.206, 466.405
378.688, 465.976
379.170, 471.824
379.652, 478.293
380.134, 483.135
380.616, 486.805
381.099, 491.803
381.581, 498.277
382.063, 505.362
382.545, 512.936
383.027, 520.623
383.509, 526.840
383.991, 530.568
384.473, 533.626
384.956, 538.135
385.438, 544.260
385.920, 553.339
386.402, 567.603
386.884, 584.864
387.366, 601.101
387.848, 615.815
388.330, 630.437
388.812, 647.209
389.295, 664.498
389.777, 679.602
390.259, 688.882
390.741, 697.200
391.223, 707.728
391.705, 720.580
392.187, 735.842
392.669, 758.251
393.151, 780.529
393.634, 796.353
394.116, 803.024
394.598, 806.276
395.080, 807.434
395.562, 806.897
396.044, 805.383
396.526, 804.312
397.008, 801.205
397.491, 794.945
397.973, 785.278
398.455, 773.972
398.937, 761.672
399.419, 747.706
399.901, 731.509
400.383, 709.874
400.865, 690.083
401.348, 673.267
401.830, 658.783
402.312, 643.849
402.794, 626.862
403.276, 611.937
403.758, 601.484
404.240, 597.167
404.722, 590.058
405.204, 578.072
405.686, 565.880
406.169, 560.657
406.651, 564.106
407.133, 566.245
407.615, 564.399
408.097, 559.294
408.579, 553.511
409.061, 546.835
409.543, 540.985
410.026, 537.812
410.508, 536.911
410.990, 535.162
411.472, 532.008
411.954, 528.543
412.436, 525.644
412.918, 523.583
413.400, 523.684
413.883, 529.329
414.365, 536.440
414.847, 538.376
415.329, 535.235
415.811, 530.389
416.293, 526.328
416.775, 522.218
417.257, 516.547
417.740, 507.399
418.222, 499.450
418.704, 496.608
419.186, 497.604
419.668, 499.625
420.150, 503.290
420.632, 506.189
421.114, 506.529
421.596, 503.822
422.078, 501.455
422.561, 500.429
423.043, 500.274
423.525, 500.595
424.007, 502.743
424.489, 503.759
424.971, 501.856
425.453, 498.031
425.935, 496.938
426.418, 501.688
426.900, 505.958
427.382, 507.284
427.864, 504.953
428.346, 501.770
428.828, 495.617
429.310, 490.693
429.792, 493.366
430.275, 507.150
430.757, 517.188
431.239, 519.536
431.721, 515.985
432.203, 514.344
432.685, 514.830
433.167, 515.980
433.649, 516.130
434.131, 515.642
434.614, 518.435
435.096, 525.199
435.578, 533.589
436.060, 542.426
436.542, 550.886
437.024, 554.672
437.506, 548.121
437.988, 538.660
438.470, 538.292
438.953, 546.180
439.435, 556.250
439.917, 567.179
440.399, 576.715
440.881, 580.997
441.363, 577.263
441.845, 575.027
442.327, 582.559
442.810, 595.296
443.292, 606.049
443.774, 611.174
444.256, 614.686
444.738, 616.896
445.220, 618.092
445.702, 622.521
446.184, 635.945
446.667, 649.625
447.149, 658.397
447.631, 658.575
448.113, 658.559
448.595, 656.860
449.077, 655.581
449.559, 658.351
450.041, 665.916
450.523, 676.570
451.005, 691.112
451.488, 709.502
451.970, 724.435
452.452, 734.329
452.934, 744.510
453.416, 760.946
453.898, 784.847
454.380, 799.649
454.862, 800.393
455.345, 797.911
455.827, 813.736
456.309, 846.774
456.791, 877.842
457.273, 897.460
457.755, 909.773
458.237, 924.674
458.719, 941.875
459.202, 960.235
459.684, 976.481
460.166, 993.693
460.648, 1016.710
461.130, 1047.661
461.612, 1082.372
462.094, 1118.639
462.576, 1156.234
463.058, 1194.556
463.541, 1232.976
464.023, 1272.880
464.505, 1315.509
464.987, 1361.149
465.469, 1406.732
465.951, 1449.644
466.433, 1493.325
466.915, 1539.950
467.397, 1589.084
467.880, 1642.126
468.362, 1702.529
468.844, 1765.845
469.326, 1824.943
469.808, 1881.691
470.290, 1930.882
470.772, 1967.703
471.254, 1992.982
471.737, 2030.649
472.219, 2086.148
472.701, 2141.522
473.183, 2184.966
473.665, 2215.913
474.147, 2238.863
474.629, 2253.051
475.111, 2261.436
475.594, 2270.170
476.076, 2278.414
476.558, 2278.230
477.040, 2266.206
477.522, 2243.729
478.004, 2211.789
478.486, 2170.859
478.968, 2126.665
479.450, 2085.427
479.932, 2042.589
480.415, 1991.111
480.897, 1928.054
481.379, 1862.470
481.861, 1800.356
482.343, 1740.733
482.825, 1682.984
483.307, 1630.246
483.789, 1576.092
484.272, 1513.056
484.754, 1443.364
485.236, 1386.383
485.718, 1357.868
486.200, 1332.882
486.682, 1298.448
487.164, 1249.978
487.646, 1203.624
488.129, 1158.106
488.611, 1115.451
489.093, 1078.933
489.575, 1049.611
490.057, 1023.029
490.539, 999.503
491.021, 977.768
491.503, 952.474
491.986, 923.070
492.468, 894.766
492.950, 870.165
493.432, 849.246
493.914, 833.922
494.396, 825.206
494.878, 817.106
495.360, 802.538
495.842, 783.600
496.324, 766.243
496.807, 752.288
497.289, 739.993
497.771, 727.462
498.253, 715.084
498.735, 703.706
499.217, 693.523
499.699, 684.854
500.181, 677.588
500.664, 671.759
501.146, 668.242
501.628, 673.080
502.110, 677.094
502.592, 673.275
503.074, 648.589
503.556, 631.507
504.038, 628.480
504.521, 633.285
505.003, 634.019
505.485, 628.573
505.967, 622.554
506.449, 617.464
506.931, 613.210
507.413, 608.025
507.895, 601.541
508.377, 595.031
508.860, 587.618
509.342, 579.504
509.824, 581.138
510.306, 595.934
510.788, 611.463
511.270, 607.372
511.752, 588.425
512.234, 574.752
512.716, 576.834
513.199, 584.948
513.681, 586.523
514.163, 582.807
514.645, 579.269
515.127, 578.926
515.609, 580.271
516.091, 581.568
516.573, 582.223
517.055, 585.765
517.538, 597.738
518.020, 611.291
518.502, 619.911
518.984, 615.735
519.466, 614.385
519.948, 620.859
520.430, 631.506
520.912, 637.165
521.395, 634.242
521.877, 631.873
522.359, 633.269
522.841, 638.429
523.323, 642.357
523.805, 644.765
524.287, 646.728
524.769, 649.941
525.252, 654.232
525.734, 654.881
526.216, 650.914
526.698, 644.732
527.180, 639.194
527.662, 634.162
528.144, 629.094
528.626, 623.737
529.109, 618.315
529.591, 613.372
530.073, 608.700
530.555, 603.409
531.037, 597.307
531.519, 590.207
532.001, 580.856
532.483, 567.941
532.965, 559.217
533.448, 561.386
533.930, 566.800
534.412, 568.600
534.894, 560.983
535.376, 555.804
535.858, 554.661
536.340, 556.296
536.822, 557.578
537.304, 557.691
537.787, 559.229
538.269, 563.676
538.751, 570.687
539.233, 575.603
539.715, 578.249
540.197, 579.816
540.679, 581.206
541.161, 582.347
541.643, 582.600
542.126, 581.800
542.608, 580.660
543.090, 579.721
543.572, 579.092
544.054, 578.899
544.536, 577.734
545.018, 578.636
545.500, 586.703
545.982, 599.356
546.465, 608.425
546.947, 606.709
547.429, 603.536
547.911, 603.110
548.393, 605.775
548.875, 611.511
549.357, 624.773
549.839, 638.028
550.322, 646.082
550.804, 645.209
551.286, 646.402
551.768, 650.388
552.250, 656.200
552.732, 662.680
553.214, 670.101
553.696, 676.428
554.179, 681.630
554.661, 685.034
555.143, 681.039
555.625, 670.080
556.107, 665.637
556.589, 684.138
557.071, 712.988
557.553, 727.511
558.036, 725.765
558.518, 722.379
559.000, 728.579
559.482, 739.552
559.964, 749.779
560.446, 757.333
560.928, 764.883
561.410, 770.685
561.892, 777.658
562.375, 790.893
562.857, 820.056
563.339, 846.060
563.821, 861.372
564.303, 867.966
564.785, 885.471
565.267, 918.737
565.749, 954.152
566.231, 983.523
566.714, 1005.312
567.196, 1036.054
567.678, 1076.370
568.160, 1122.623
568.642, 1170.803
569.124, 1220.891
569.606, 1272.744
570.088, 1323.196
570.570, 1382.137
571.053, 1461.785
571.535, 1559.516
572.017, 1666.860
572.499, 1779.301
572.981, 1900.127
573.463, 2034.240
573.945, 2179.622
574.427, 2331.769
574.909, 2506.237
575.392, 2671.915
575.874, 2816.227
576.356, 2942.493
576.838, 3022.002
577.320, 3049.168
577.802, 3033.888
578.284, 2981.519
578.766, 2886.446
579.249, 2770.225
579.731, 2628.535
580.213, 2471.668
580.695, 2314.941
581.177, 2158.379
581.659, 2016.073
582.141, 1894.607
582.623, 1791.259
583.106, 1704.818
583.588, 1633.554
584.070, 1566.068
584.552, 1493.913
585.034, 1422.454
585.516, 1356.810
585.998, 1297.431
586.480, 1243.802
586.963, 1196.916
587.445, 1154.955
587.927, 1116.746
588.409, 1086.009
588.891, 1052.754
589.373, 1012.338
589.855, 970.082
590.337, 932.675
590.820, 898.600
591.302, 873.328
591.784, 861.891
592.266, 858.887
592.748, 842.024
593.230, 809.352
593.712, 778.255
594.194, 759.509
594.676, 749.336
595.159, 733.205
595.641, 711.352
596.123, 692.057
596.605, 686.561
597.087, 685.905
597.569, 677.071
598.051, 656.060
598.533, 634.570
599.015, 616.097
599.498, 602.103
599.980, 594.230
600.462, 601.384
600.944, 604.652
601.426, 598.252
601.908, 585.719
602.390, 575.377
602.872, 568.480
603.354, 561.568
603.837, 552.984
604.319, 543.359
604.801, 538.625
605.283, 539.762
605.765, 540.105
606.247, 533.998
606.729, 523.249
607.211, 514.739
607.693, 509.087
608.176, 503.860
608.658, 496.226
609.140, 487.865
609.622, 481.387
610.104, 477.490
610.586, 475.246
611.068, 474.718
611.550, 475.347
612.033, 476.255
612.515, 478.303
612.997, 479.412
613.479, 479.598
613.961, 478.597
614.443, 474.606
614.925, 464.645
615.407, 457.523
615.890, 458.126
616.372, 465.697
616.854, 465.933
617.336, 457.990
617.818, 448.775
618.300, 442.619
618.782, 439.620
619.264, 441.938
619.747, 450.642
620.229, 457.170
620.711, 450.109
621.193, 437.129
621.675, 429.188
622.157, 432.255
622.639, 436.077
623.121, 435.649
623.603, 432.958
624.086, 431.514
624.568, 433.659
625.050, 435.081
625.532, 434.480
626.014, 432.424
626.496, 432.010
626.978, 434.188
627.460, 435.508
627.942, 433.852
628.425, 429.683
628.907, 428.107
629.389, 429.397
629.871, 429.371
630.353, 423.233
630.835, 413.569
631.317, 405.126
631.799, 398.431
632.281, 393.484
632.764, 391.039
633.246, 390.054
633.728, 389.241
634.210, 387.756
634.692, 387.117
635.174, 389.665
635.656, 392.956
636.138, 392.185
636.620, 384.224
637.103, 376.979
637.585, 371.493
638.067, 367.931
638.549, 367.893
639.031, 372.355
639.513, 374.662
639.995, 369.914
640.477, 360.467
640.960, 354.917
641.442, 353.154
641.924, 353.351
642.406, 354.853
642.888, 357.159
643.370, 360.698
643.852, 366.123
644.334, 367.842
644.817, 358.127
645.299, 345.879
645.781, 339.422
646.263, 346.888
646.745, 350.445
647.227, 346.108
647.709, 339.088
648.191, 337.225
648.674, 342.517
649.156, 346.564
649.638, 347.680
650.120, 346.607
650.602, 344.681
651.084, 341.988
651.566, 339.941
652.048, 339.517
652.530, 339.969
653.013, 340.768
653.495, 341.656
653.977, 341.042
654.459, 335.399
654.941, 329.863
655.423, 328.536
655.905, 332.279
656.387, 335.484
656.869, 336.758
657.352, 337.199
657.834, 337.627
658.316, 338.729
658.798, 337.696
659.280, 333.428
659.762, 328.780
660.244, 327.180
660.726, 328.591
661.208, 331.281
661.691, 335.824
662.173, 339.372
662.655, 335.775
663.137, 327.794
663.619, 322.907
664.101, 327.644
664.583, 333.092
665.065, 331.723
665.547, 325.836
666.030, 322.290
666.512, 326.711
666.994, 330.339
667.476, 328.955
667.958, 323.027
668.440, 319.684
668.922, 319.685
669.404, 320.950
669.887, 323.140
670.369, 326.213
670.851, 325.967
671.333, 321.930
671.815, 318.190
672.297, 319.418
672.779, 323.424
673.261, 325.057
673.744, 323.264
674.226, 321.490
674.708, 323.273
675.190, 326.083
675.672, 326.848
676.154, 322.145
676.636, 319.406
677.118, 322.325
677.601, 327.489
678.083, 329.755
678.565, 327.338
679.047, 325.842
679.529, 326.593
680.011, 328.539
680.493, 328.246
680.975, 325.648
681.457, 325.138
681.940, 329.907
682.422, 336.920
682.904, 341.307
683.386, 343.103
683.868, 342.292
684.350, 335.367
684.832, 328.518
685.314, 327.501
685.796, 332.491
686.279, 335.313
686.761, 331.151
687.243, 326.556
687.725, 324.938
688.207, 326.967
688.689, 329.182
689.171, 332.014
689.653, 334.101
690.135, 333.638
690.618, 330.852
691.100, 329.567
691.582, 330.475
692.064, 331.260
692.546, 326.506
693.028, 320.275
693.510, 321.050
693.992, 335.845
694.474, 348.638
694.957, 347.770
695.439, 339.473
695.921, 333.433
696.403, 333.601
696.885, 333.968
697.367, 334.285
697.849, 334.046
698.331, 331.091
698.814, 323.818
699.296, 320.078
699.778, 323.817
700.260, 332.073
700.742, 335.438
701.224, 334.418
701.706, 333.265
702.188, 333.969
702.670, 336.179
703.153, 341.670
703.635, 349.583
704.117, 352.569
704.599, 340.401
705.081, 327.663
705.563, 323.086
706.045, 328.877
706.528, 335.393
707.010, 344.099
707.492, 351.535
707.974, 355.012
708.456, 354.049
708.938, 353.433
709.420, 353.180
709.902, 353.629
710.384, 356.005
710.867, 359.308
711.349, 360.486
711.831, 358.248
712.313, 356.934
712.795, 362.138
713.277, 369.398
713.759, 373.245
714.241, 370.508
714.723, 366.322
715.206, 359.815
715.688, 353.015
716.170, 348.982
716.652, 348.110
717.134, 349.077
717.616, 352.117
718.098, 356.345
718.580, 359.762
719.062, 362.436
719.545, 364.885
720.027, 367.211
720.509, 369.468
720.991, 372.269
721.473, 375.150
721.955, 376.711
722.437, 374.206
722.919, 372.132
723.402, 373.547
723.884, 378.149
724.366, 380.602
724.848, 379.528
725.330, 377.923
725.812, 376.563
726.294, 375.504
726.776, 376.851
727.258, 381.062
727.741, 384.355
728.223, 382.921
728.705, 378.853
729.187, 377.147
729.669, 378.048
730.151, 379.082
730.633, 378.807
731.115, 377.730
731.598, 376.201
732.080, 374.128
732.562, 372.150
733.044, 369.654
733.526, 367.857
734.008, 367.822
734.490, 370.302
734.972, 371.835
735.455, 371.995
735.937, 371.972
736.419, 373.850
736.901, 376.949
737.383, 377.953
737.865, 375.784
738.347, 372.981
738.829, 371.469
739.312, 371.091
739.794, 371.652
740.276, 374.866
740.758, 376.676
741.240, 375.472
741.722, 372.245
742.204, 368.919
742.686, 365.746
743.168, 361.613
743.651, 355.514
744.133, 349.160
744.615, 346.471
745.097, 347.319
745.579, 349.810
746.061, 353.925
746.543, 358.525
747.025, 363.969
747.507, 368.859
747.990, 369.440
748.472, 356.524
748.954, 346.318
749.436, 349.526
749.918, 363.327
750.400, 368.812
750.882, 359.809
751.364, 352.142
751.846, 352.341
752.329, 358.375
752.811, 356.446
753.293, 346.182
753.775, 337.643
754.257, 339.768
754.739, 346.487
755.221, 347.305
755.703, 342.634
756.185, 337.167
756.668, 332.241
757.150, 328.387
757.632, 326.368
758.114, 326.522
758.596, 325.437
759.078, 321.286
759.560, 318.046
760.042, 317.871
760.525, 320.870
761.007, 325.491
761.489, 332.298
761.971, 336.721
762.453, 331.880
762.935, 322.614
763.417, 319.363
763.899, 323.352
764.381, 327.845
764.864, 328.168
765.346, 327.276
765.828, 327.524
766.310, 329.306
766.792, 332.317
767.274, 338.284
767.756, 343.542
768.239, 344.704
768.721, 341.128
769.203, 338.331
769.685, 336.585
770.167, 335.791
770.649, 336.822
771.131, 338.567
771.613, 338.256
772.095, 334.843
772.578, 331.284
773.060, 328.834
773.542, 327.605
774.024, 327.777
774.506, 332.430
774.988, 333.825
775.470, 330.114
775.952, 324.488
776.434, 320.403
776.917, 317.762
777.399, 318.027
777.881, 322.080
778.363, 327.154
778.845, 329.034
779.327, 328.941
779.809, 330.243
780.291, 336.213
780.773, 339.602
781.256, 332.231
781.738, 320.539
782.220, 314.085
782.702, 319.773
783.184, 324.259
783.666, 326.316
784.148, 326.784
784.630, 327.113
785.112, 327.316
785.595, 327.117
786.077, 326.228
786.559, 325.340
787.041, 325.792
787.523, 327.093
788.005, 328.026
788.487, 327.533
788.969, 327.156
789.452, 328.301
789.934, 330.052
790.416, 330.250
790.898, 326.897
791.380, 324.899
791.862, 325.413
792.344, 327.602
792.826, 329.503
793.308, 331.140
793.791, 332.134
794.273, 332.160
794.755, 331.744
795.237, 331.388
795.719, 331.197
796.201, 331.445
796.683, 332.709
797.166, 333.958
797.648, 335.058
798.130, 335.814
798.612, 335.611
799.094, 333.795
799.576, 332.261
800.058, 331.318
800.540, 331.088
801.022, 332.390
801.505, 335.069
801.987, 337.127
802.469, 336.444
802.951, 335.746
803.433, 339.782
803.915, 346.674
804.397, 350.590
804.879, 346.710
805.362, 342.244
805.844, 340.196
806.326, 339.641
806.808, 336.107
807.290, 326.841
807.772, 323.297
808.254, 331.609
808.736, 346.675
809.218, 355.822
809.701, 359.195
810.183, 357.633
810.665, 345.503
811.147, 333.634
811.629, 333.796
812.111, 342.378
812.593, 346.291
813.075, 333.617
813.557, 325.646
814.040, 330.184
814.522, 343.807
815.004, 350.808
815.486, 350.540
815.968, 348.487
816.450, 346.599
816.932, 344.628
817.414, 341.789
817.896, 338.355
818.379, 335.289
818.861, 332.246
819.343, 330.520
819.825, 331.392
820.307, 334.369
820.789, 337.069
821.271, 338.889
821.753, 341.302
822.235, 345.697
822.718, 350.687
823.200, 350.290
823.682, 344.654
824.164, 338.114
824.646, 330.750
825.128, 325.138
825.610, 326.280
826.093, 332.232
826.575, 336.901
827.057, 338.370
827.539, 337.511
828.021, 331.785
828.503, 323.840
828.985, 323.388
829.467, 333.719
829.949, 340.654
830.432, 338.644
830.914, 331.129
831.396, 325.498
831.878, 321.734
832.360, 320.008
832.842, 322.283
833.324, 324.901
833.806, 324.440
834.289, 322.150
834.771, 321.673
835.253, 326.248
835.735, 329.678
836.217, 330.760
836.699, 330.025
837.181, 328.809
837.663, 327.096
838.145, 325.485
838.628, 323.943
839.110, 322.994
839.592, 324.729
840.074, 327.670
840.556, 328.221
841.038, 321.945
841.520, 316.233
842.002, 313.123
842.484, 312.761
842.967, 315.746
843.449, 324.655
843.931, 329.384
844.413, 326.476
844.895, 320.369
845.377, 320.471
845.859, 325.439
846.341, 329.299
846.823, 329.570
847.306, 328.750
847.788, 328.883
848.270, 329.226
848.752, 328.518
849.234, 323.278
849.716, 321.603
850.198, 326.956
850.680, 334.028
851.162, 332.579
851.645, 322.390
852.127, 315.544
852.609, 314.872
853.091, 317.428
853.573, 321.544
854.055, 325.703
854.537, 327.003
855.019, 321.750
855.502, 318.567
855.984, 322.875
856.466, 329.526
856.948, 332.245
857.430, 329.632
857.912, 327.417
858.394, 325.999
858.876, 325.157
859.359, 324.938
859.841, 325.070
860.323, 324.406
860.805, 322.279
861.287, 321.362
861.769, 324.510
862.251, 329.248
862.733, 333.273
863.216, 337.398
863.698, 338.036
864.180, 333.540
864.662, 327.954
865.144, 324.441
865.626, 323.018
866.108, 324.867
866.590, 330.406
867.072, 334.975
867.555, 332.297
868.037, 327.638
868.519, 327.817
869.001, 335.096
869.483, 339.121
869.965, 332.828
870.447, 326.772
870.929, 327.111
871.411, 334.523
871.894, 339.398
872.376, 341.599
872.858, 342.361
873.340, 341.825
873.822, 340.835
874.304, 341.187
874.786, 342.808
875.268, 343.646
875.750, 342.471
876.233, 340.407
876.715, 337.105
877.197, 332.791
877.679, 331.990
878.161, 335.324
878.643, 340.145
879.125, 346.424
879.607, 352.812
880.090, 354.866
880.572, 353.188
881.054, 350.777
881.536, 349.276
882.018, 347.608
882.500, 344.537
882.982, 340.554
883.464, 338.243
883.946, 338.671
884.429, 339.189
884.911, 340.131
885.393, 339.901
885.875, 330.279
886.357, 313.634
886.839, 306.224
887.321, 319.616
887.804, 338.143
888.286, 350.607
888.768, 357.869
889.250, 361.385
889.732, 358.997
890.214, 355.892
890.696, 351.914
891.178, 348.178
891.660, 346.784
892.143, 347.682
892.625, 349.038
893.107, 350.521
893.589, 352.264
894.071, 354.770
894.553, 357.480
895.035, 359.605
895.517, 360.818
896.000, 361.614
896.482, 362.365
896.964, 362.501
897.446, 360.751
897.928, 356.353
898.410, 356.745
898.892, 362.911
899.374, 369.979
899.856, 374.487
900.339, 376.280
900.821, 373.592
901.303, 365.806
901.785, 360.782
902.267, 364.222
902.749, 369.432
903.231, 372.340
903.713, 372.741
904.195, 374.464
904.678, 377.738
905.160, 381.080
905.642, 383.333
906.124, 385.004
906.606, 387.245
907.088, 389.944
907.570, 392.344
908.052, 393.288
908.534, 394.588
909.017, 397.822
909.499, 402.369
909.981, 404.683
910.463, 403.861
910.945, 404.038
911.427, 406.795
911.909, 411.138
912.391, 416.138
912.873, 421.062
913.356, 423.541
913.838, 419.663
914.320, 416.408
914.802, 416.271
915.284, 419.288
915.766, 425.827
916.248, 438.602
916.731, 447.643
917.213, 451.312
917.695, 451.802
918.177, 451.158
918.659, 449.964
919.141, 449.523
919.623, 449.526
920.105, 452.808
920.587, 466.123
921.070, 480.754
921.552, 487.055
922.034, 480.019
922.516, 478.417
922.998, 483.743
923.480, 491.058
923.962, 495.015
924.444, 497.448
924.927, 507.004
925.409, 523.664
925.891, 538.017
926.373, 542.437
926.855, 543.147
927.337, 542.603
927.819, 541.120
928.301, 545.547
928.783, 558.884
929.266, 571.546
929.748, 578.865
930.230, 583.023
930.712, 591.114
931.194, 602.352
931.676, 612.818
932.158, 619.485
932.640, 625.607
933.122, 632.311
933.605, 639.974
934.087, 649.200
934.569, 659.363
935.051, 672.629
935.533, 690.226
936.015, 709.818
936.497, 728.968
936.979, 746.937
937.461, 762.346
937.944, 774.683
938.426, 784.379
938.908, 786.613
939.390, 788.943
939.872, 800.182
940.354, 825.465
940.836, 848.123
941.318, 867.898
941.800, 886.120
942.283, 901.618
942.765, 916.573
943.247, 941.462
943.729, 976.483
944.211, 1006.605
944.693, 1019.551
945.175, 1026.856
945.657, 1034.269
946.140, 1042.381
946.622, 1054.148
947.104, 1070.118
947.586, 1088.946
948.068, 1114.168
948.550, 1138.521
949.032, 1136.143
949.514, 1114.417
949.997, 1101.248
950.479, 1123.156
950.961, 1142.973
951.443, 1140.499
951.925, 1123.279
952.407, 1108.174
952.889, 1096.936
953.371, 1082.865
953.854, 1064.224
954.336, 1044.605
954.818, 1031.272
955.300, 1020.655
955.782, 1002.536
956.264, 972.666
956.746, 945.583
957.228, 931.761
957.710, 921.678
958.193, 907.494
958.675, 888.364
959.157, 869.372
959.639, 850.645
960.121, 831.968
960.603, 810.779
961.085, 790.321
961.567, 779.611
962.049, 777.093
962.532, 770.222
963.014, 745.859
963.496, 723.808
963.978, 715.436
964.460, 715.717
964.942, 705.366
965.424, 682.662
965.906, 665.368
966.388, 660.533
966.871, 661.523
967.353, 662.201
967.835, 661.166
968.317, 655.562
968.799, 639.330
969.281, 626.622
969.763, 621.441
970.245, 620.076
970.727, 620.231
971.210, 622.114
971.692, 619.686
972.174, 612.077
972.656, 604.767
973.138, 604.455
973.620, 606.111
974.102, 603.279
974.584, 595.059
975.067, 589.813
975.549, 591.487
976.031, 592.891
976.513, 590.429
976.995, 585.495
977.477, 586.232
977.959, 591.923
978.441, 594.807
978.924, 586.780
979.406, 578.756
979.888, 581.377
980.370, 590.141
980.852, 595.099
981.334, 594.184
981.816, 590.678
982.298, 583.944
982.781, 576.385
983.263, 571.231
983.745, 568.138
984.227, 565.651
984.709, 563.335
985.191, 563.034
985.673, 568.967
986.155, 575.188
986.637, 576.510
987.120, 572.419
987.602, 566.930
988.084, 558.845
988.566, 554.227
989.048, 560.789
989.530, 571.703
990.012, 571.460
990.494, 562.352
990.976, 553.480
991.459, 546.602
991.941, 543.446
992.423, 545.950
992.905, 552.105
993.387, 559.422
993.869, 568.427
994.351, 571.930
994.833, 567.459
995.315, 560.504
995.798, 555.560
996.280, 553.198
996.762, 555.275
997.244, 565.096
997.726, 569.821
998.208, 564.310
998.690, 557.767
999.172, 556.827
999.654, 560.942
1000.137, 561.236
1000.619, 557.933
1001.101, 555.071
1001.583, 554.345
1002.065, 555.930
1002.547, 562.462
1003.029, 571.987
1003.511, 575.305
1003.994, 568.841
1004.476, 563.268
1004.958, 559.888
1005.440, 560.210
1005.922, 571.184
1006.404, 588.059
1006.886, 596.325
1007.368, 589.125
1007.851, 582.164
1008.333, 583.269
1008.815, 588.138
1009.297, 593.489
1009.779, 600.066
1010.261, 601.558
1010.743, 596.984
1011.225, 594.634
1011.708, 604.951
1012.190, 618.753
1012.672, 621.637
1013.154, 615.443
1013.636, 612.943
1014.118, 623.435
1014.600, 631.528
1015.082, 631.451
1015.564, 628.254
1016.047, 636.479
1016.529, 654.310
1017.011, 664.549
1017.493, 660.567
1017.975, 654.395
1018.457, 652.489
1018.939, 656.104
1019.421, 668.427
1019.904, 696.633
1020.386, 711.280
1020.868, 708.258
1021.350, 702.684
1021.832, 705.336
1022.314, 714.236
1022.796, 726.264
1023.278, 740.383
1023.760, 750.688
1024.243, 747.557
1024.725, 747.274
1025.207, 758.756
1025.689, 777.346
1026.171, 791.925
1026.653, 802.073
1027.135, 812.950
1027.617, 825.440
1028.099, 840.203
1028.582, 860.757
1029.064, 882.797
1029.546, 899.106
1030.028, 901.512
1030.510, 918.858
1030.992, 960.174
1031.474, 1004.263
1031.956, 1035.837
1032.438, 1057.570
1032.921, 1081.931
1033.403, 1109.079
1033.885, 1140.706
1034.367, 1182.767
1034.849, 1224.840
1035.331, 1256.433
1035.813, 1284.837
1036.295, 1330.831
1036.778, 1400.226
1037.260, 1461.655
1037.742, 1507.851
1038.224, 1549.424
1038.706, 1597.521
1039.188, 1650.290
1039.670, 1706.142
1040.152, 1768.429
1040.635, 1818.777
1041.117, 1848.814
1041.599, 1872.057
1042.081, 1894.565
1042.563, 1916.449
1043.045, 1939.573
1043.527, 1963.083
1044.009, 1977.704
1044.491, 1982.443
1044.974, 1972.364
1045.456, 1938.961
1045.938, 1889.091
1046.420, 1837.848
1046.902, 1785.584
1047.384, 1734.059
1047.866, 1683.445
1048.348, 1631.909
1048.830, 1578.161
1049.313, 1521.964
1049.795, 1460.651
1050.277, 1392.229
1050.759, 1333.719
1051.241, 1302.367
1051.723, 1269.407
1052.205, 1219.512
1052.687, 1159.026
1053.170, 1120.020
1053.652, 1100.331
1054.134, 1077.389
1054.616, 1036.850
1055.098, 995.106
1055.580, 963.162
1056.062, 938.298
1056.544, 915.758
1057.026, 895.533
1057.509, 876.369
1057.991, 858.308
1058.473, 840.943
1058.955, 822.469
1059.437, 804.932
1059.919, 793.703
1060.401, 788.548
1060.883, 781.208
1061.365, 762.094
1061.848, 748.646
1062.330, 748.960
1062.812, 757.073
1063.294, 754.116
1063.776, 741.670
1064.258, 730.659
1064.740, 724.484
1065.222, 720.588
1065.705, 718.817
1066.187, 717.357
1066.669, 713.245
1067.151, 703.719
1067.633, 703.098
1068.115, 712.976
1068.597, 723.473
1069.079, 726.471
1069.562, 725.890
1070.044, 727.750
1070.526, 731.557
1071.008, 734.557
1071.490, 731.715
1071.972, 733.908
1072.454, 744.853
1072.936, 759.655
1073.418, 771.037
1073.901, 779.089
1074.383, 784.007
1074.865, 785.426
1075.347, 786.601
1075.829, 788.727
1076.311, 792.191
1076.793, 797.057
1077.275, 803.221
1077.757, 814.080
1078.240, 830.740
1078.722, 841.050
1079.204, 834.829
1079.686, 824.057
1080.168, 825.543
1080.650, 833.188
1081.132, 834.945
1081.615, 823.084
1082.097, 811.578
1082.579, 800.424
1083.061, 790.581
1083.543, 783.900
1084.025, 779.196
1084.507, 772.799
1084.989, 764.595
1085.471, 756.943
1085.953, 751.792
1086.436, 746.868
1086.918, 742.074
1087.400, 736.575
1087.882, 727.294
1088.364, 714.318
1088.846, 700.743
1089.328, 687.011
1089.810, 674.613
1090.293, 665.452
1090.775, 658.083
1091.257, 650.629
1091.739, 645.772
1092.221, 637.770
1092.703, 638.769
1093.185, 640.305
1093.667, 639.291
1094.150, 636.974
1094.632, 634.773
1095.114, 633.123
1095.596, 633.325
1096.078, 638.012
1096.560, 641.689
1097.042, 643.550
1097.524, 644.095
1098.006, 642.303
1098.489, 639.455
1098.971, 643.495
1099.453, 655.365
1099.935, 664.371
1100.417, 660.198
1100.899, 654.487
1101.381, 655.160
1101.863, 660.249
1102.345, 659.079
1102.828, 651.339
1103.310, 646.161
1103.792, 647.295
1104.274, 650.457
1104.756, 651.827
1105.238, 652.327
1105.720, 653.152
1106.202, 654.651
1106.685, 655.995
1107.167, 657.267
1107.649, 658.131
1108.131, 660.873
1108.613, 661.882
1109.095, 650.841
1109.577, 631.414
1110.059, 616.292
1110.542, 614.510
1111.024, 611.985
1111.506, 605.923
1111.988, 598.591
1112.470, 593.057
1112.952, 588.965
1113.434, 584.347
1113.916, 578.900
1114.398, 574.349
1114.880, 571.669
1115.363, 570.375
1115.845, 571.714
1116.327, 574.224
1116.809, 570.202
1117.291, 559.586
1117.773, 548.603
1118.255, 538.179
1118.737, 530.761
1119.220, 530.758
1119.702, 533.731
1120.184, 534.395
1120.666, 532.126
1121.148, 527.529
1121.630, 519.868
1122.112, 513.122
1122.594, 510.039
1123.077, 509.457
1123.559, 511.127
1124.041, 513.824
1124.523, 514.011
1125.005, 509.402
1125.487, 503.289
1125.969, 494.264
1126.451, 486.841
1126.933, 488.301
1127.416, 495.486
1127.898, 499.442
1128.380, 499.305
1128.862, 498.551
1129.344, 499.971
1129.826, 499.516
1130.308, 494.363
1130.790, 487.018
1131.272, 485.719
1131.755, 489.669
1132.237, 492.299
1132.719, 491.149
1133.201, 490.662
1133.683, 497.687
1134.165, 503.811
1134.647, 500.210
1135.129, 486.018
1135.612, 480.969
1136.094, 485.642
1136.576, 488.238
1137.058, 478.711
1137.540, 467.552
1138.022, 465.013
1138.504, 468.008
1138.986, 470.542
1139.469, 471.351
1139.951, 473.522
1140.433, 477.567
1140.915, 481.581
1141.397, 483.976
1141.879, 485.118
1142.361, 486.403
1142.843, 487.362
1143.325, 483.951
1143.807, 470.210
1144.290, 460.662
1144.772, 459.109
1145.254, 461.522
1145.736, 460.958
1146.218, 459.287
1146.700, 461.910
1147.182, 470.572
1147.664, 477.210
1148.147, 476.453
1148.629, 475.195
1149.111, 475.346
1149.593, 477.567
1150.075, 487.952
1150.557, 503.818
1151.039, 511.083
1151.521, 498.867
1152.004, 487.614
1152.486, 491.158
1152.968, 497.267
1153.450, 494.464
1153.932, 482.134
1154.414, 473.748
1154.896, 469.217
1155.378, 466.156
1155.860, 463.770
1156.343, 461.492
1156.825, 459.737
1157.307, 457.523
1157.789, 452.486
1158.271, 443.690
1158.753, 437.790
1159.235, 435.779
1159.717, 434.134
1160.199, 430.572
1160.682, 424.953
1161.164, 414.892
1161.646, 401.391
1162.128, 395.262
1162.610, 398.668
1163.092, 403.372
1163.574, 408.285
1164.056, 411.060
1164.539, 406.263
1165.021, 398.254
1165.503, 393.313
1165.985, 393.146
1166.467, 392.897
1166.949, 391.547
1167.431, 391.737
1167.913, 396.226
1168.396, 401.585
1168.878, 399.532
1169.360, 392.561
1169.842, 386.125
1170.324, 380.757
1170.806, 378.944
1171.288, 382.560
1171.770, 386.621
1172.252, 387.282
1172.734, 385.186
1173.217, 382.801
1173.699, 379.923
1174.181, 375.389
1174.663, 362.798
1175.145, 356.514
1175.627, 361.488
1176.109, 371.848
1176.591, 381.907
1177.074, 390.707
1177.556, 391.010
1178.038, 382.413
1178.520, 373.629
1179.002, 369.102
1179.484, 366.423
1179.966, 365.162
1180.448, 364.511
1180.931, 361.834
1181.413, 357.578
1181.895, 355.490
1182.377, 356.809
1182.859, 358.488
1183.341, 359.762
1183.823, 359.361
1184.305, 355.168
1184.787, 348.054
1185.270, 347.265
1185.752, 352.526
1186.234, 356.763
1186.716, 356.252
1187.198, 355.519
1187.680, 360.487
1188.162, 365.447
1188.644, 362.846
1189.126, 350.912
1189.609, 346.711
1190.091, 350.487
1190.573, 354.895
1191.055, 357.139
1191.537, 356.327
1192.019, 348.033
1192.501, 337.234
1192.983, 334.164
1193.466, 341.282
1193.948, 346.594
1194.430, 349.412
1194.912, 350.656
1195.394, 351.142
1195.876, 350.403
1196.358, 347.894
1196.840, 343.666
1197.323, 337.371
1197.805, 326.495
1198.287, 324.781
1198.769, 336.625
1199.251, 349.350
1199.733, 346.980
1200.215, 339.377
1200.697, 338.419
1201.179, 345.280
1201.661, 348.380
1202.144, 346.502
1202.626, 343.845
1203.108, 341.603
1203.590, 339.301
1204.072, 334.107
1204.554, 329.348
1205.036, 331.146
1205.518, 343.511
1206.001, 347.594
1206.483, 340.368
1206.965, 332.937
1207.447, 330.712
1207.929, 331.231
1208.411, 330.650
1208.893, 329.843
1209.375, 330.549
1209.858, 335.316
1210.340, 336.978
1210.822, 334.243
1211.304, 331.856
1211.786, 335.105
1212.268, 340.008
1212.750, 337.244
1213.232, 330.002
1213.714, 327.449
1214.197, 339.376
1214.679, 343.429
1215.161, 335.646
1215.643, 326.792
1216.125, 329.380
1216.607, 337.353
1217.089, 339.911
1217.571, 337.238
1218.053, 334.178
1218.536, 331.230
1219.018, 329.109
1219.500, 327.682
1219.982, 327.692
1220.464, 332.246
1220.946, 338.138
1221.428, 338.534
1221.911, 332.806
1222.393, 329.297
1222.875, 331.095
1223.357, 332.532
1223.839, 331.993
1224.321, 330.565
1224.803, 329.278
1225.285, 328.769
1225.767, 330.992
1226.250, 337.224
1226.732, 339.950
1227.214, 336.691
1227.696, 333.406
1228.178, 332.749
1228.660, 333.350
1229.142, 332.389
1229.624, 330.528
1230.106, 329.156
1230.589, 329.087
1231.071, 327.906
1231.553, 323.845
1232.035, 322.340
1232.517, 328.986
1232.999, 338.808
1233.481, 340.714
1233.963, 337.057
1234.446, 333.546
1234.928, 331.472
1235.410, 330.497
1235.892, 330.684
1236.374, 331.700
1236.856, 334.355
1237.338, 337.141
1237.820, 335.839
1238.302, 331.914
1238.785, 330.456
1239.267, 336.326
1239.749, 339.167
1240.231, 337.788
1240.713, 334.515
1241.195, 330.941
1241.677, 327.529
1242.159, 325.316
1242.641, 324.105
1243.124, 322.072
1243.606, 316.882
1244.088, 315.043
1244.570, 317.784
1245.052, 323.517
1245.534, 334.209
1246.016, 344.489
1246.498, 344.276
1246.981, 333.164
1247.463, 326.358
1247.945, 325.927
1248.427, 328.114
1248.909, 332.825
1249.391, 337.540
1249.873, 339.173
1250.355, 338.306
1250.838, 334.742
1251.320, 328.005
1251.802, 325.379
1252.284, 328.133
1252.766, 331.104
1253.248, 332.843
1253.730, 333.338
1254.212, 331.864
1254.694, 329.509
1255.177, 327.823
1255.659, 327.275
1256.141, 325.359
1256.623, 321.436
1257.105, 319.853
1257.587, 324.215
1258.069, 329.468
1258.551, 329.008
1259.033, 331.056
1259.516, 330.773
1259.998, 328.633
1260.480, 327.736
1260.962, 322.021
1261.444, 318.914
1261.926, 326.835
1262.408, 334.974
1262.890, 330.653
1263.373, 321.175
1263.855, 318.621
1264.337, 325.053
1264.819, 329.952
1265.301, 333.129
1265.783, 333.786
1266.265, 328.400
1266.747, 323.259
1267.229, 323.989
1267.712, 322.376
1268.194, 323.082
1268.676, 326.177
1269.158, 327.482
1269.640, 332.883
1270.122, 337.131
1270.604, 336.477
1271.086, 333.683
1271.568, 328.703
1272.051, 323.495
1272.533, 321.783
1273.015, 323.282
1273.497, 323.629
1273.979, 322.372
1274.461, 321.986
1274.943, 326.969
1275.425, 329.700
1275.908, 325.588
1276.390, 318.110
1276.872, 313.896
1277.354, 312.342
1277.836, 309.294
1278.318, 303.919
1278.800, 303.227
1279.282, 316.741
1279.765, 328.548
1280.247, 332.804
1280.729, 331.953
1281.211, 331.361
1281.693, 330.035
1282.175, 323.925
1282.657, 311.238
1283.139, 302.513
1283.621, 301.617
1284.104, 304.059
1284.586, 309.442
1285.068, 315.859
1285.550, 320.159
1286.032, 322.379
1286.514, 322.067
1286.996, 318.465
1287.478, 315.694
1287.960, 314.195
1288.443, 313.374
1288.925, 313.156
1289.407, 313.185
1289.889, 313.079
1290.371, 312.732
1290.853, 311.772
1291.335, 309.534
1291.817, 309.380
1292.300, 311.828
1292.782, 313.722
1293.264, 313.058
1293.746, 311.623
1294.228, 310.961
1294.710, 311.184
1295.192, 312.998
1295.674, 317.088
1296.156, 317.635
1296.639, 314.444
1297.121, 311.824
1297.603, 312.654
1298.085, 314.578
1298.567, 316.891
1299.049, 318.563
1299.531, 317.781
1300.013, 314.111
1300.495, 314.780
1300.978, 319.570
1301.460, 324.277
1301.942, 328.929
##END=



