##NAMES=Petzite
##RRUFFID=R070254
##IDEAL CHEMISTRY=Ag_3_AuTe_2_
##LOCALITY=Red Jacket mine, Baker County, Oregon, USA
##OWNER=RRUFF
##SOURCE=Michael Scott
##DESCRIPTION=Steel grey metallic fragments with subconchoidal fracture, sample used as the standard for the ICDD powder diffraction file
##STATUS=The identification of this mineral has been confirmed by X-ray diffraction and chemical analysis
##URL=rruff.info/R070254
##MEASURED CHEMISTRY=Ag_3.00_Au_1.00_Te_2.00_ ; = lighter phase. The darker phase is: Ag_3.00_(Au_0.99_Cu_0.01_)_Î£=1_Te_2.00_
123.4300, 183.6103
123.9121, 192.7115
124.3942, 204.7888
124.8763, 217.5267
125.3585, 229.5877
125.8406, 245.2636
126.3227, 268.7775
126.8048, 294.7416
127.2869, 315.8623
127.7690, 327.2282
128.2512, 333.3426
128.7333, 352.3330
129.2154, 394.1856
129.6975, 437.9575
130.1796, 480.3241
130.6617, 521.9220
131.1439, 565.3044
131.6260, 613.1235
132.1081, 663.0284
132.5902, 696.3604
133.0723, 694.2689
133.5544, 693.9235
134.0366, 705.4248
134.5187, 723.3289
135.0008, 737.0837
135.4829, 739.1472
135.9650, 730.1528
136.4471, 723.0807
136.9293, 713.7969
137.4114, 710.3244
137.8935, 721.2205
138.3756, 740.5693
138.8577, 755.0590
139.3398, 754.6792
139.8220, 739.1959
140.3041, 722.3788
140.7862, 700.9430
141.2683, 681.5345
141.7504, 666.9341
142.2325, 657.0311
142.7147, 650.4254
143.1968, 645.7850
143.6789, 643.4194
144.1610, 646.9457
144.6431, 655.8771
145.1252, 670.2059
145.6074, 690.5972
146.0895, 716.7482
146.5716, 747.3596
147.0537, 782.5986
147.5358, 822.4688
148.0179, 859.0031
148.5001, 888.5862
148.9822, 917.5185
149.4643, 953.2097
149.9464, 995.6229
150.4285, 1034.229
150.9106, 1063.193
151.3928, 1080.538
151.8749, 1081.885
152.3570, 1060.576
152.8391, 1026.927
153.3212, 987.8492
153.8033, 943.7243
154.2855, 898.1883
154.7676, 851.8921
155.2497, 805.9459
155.7318, 765.7457
156.2139, 731.2565
156.6960, 703.3829
157.1782, 684.6017
157.6603, 675.8627
158.1424, 670.6966
158.6245, 664.1338
159.1066, 657.3908
159.5887, 653.9622
160.0709, 656.6157
160.5530, 662.3918
161.0351, 665.7504
161.5172, 664.8688
161.9993, 667.9603
162.4814, 690.5782
162.9636, 721.3731
163.4457, 738.3401
163.9278, 724.4308
164.4099, 694.5226
164.8920, 676.3217
165.3741, 673.6028
165.8563, 672.1785
166.3384, 661.9651
166.8205, 647.0602
167.3026, 634.2925
167.7847, 627.2816
168.2668, 623.8375
168.7490, 618.9869
169.2311, 611.7711
169.7132, 605.3127
170.1953, 601.8798
170.6774, 600.1187
171.1595, 597.8318
171.6417, 593.0670
172.1238, 587.5262
172.6059, 586.5549
173.0880, 594.0253
173.5701, 598.0880
174.0522, 591.0373
174.5344, 578.1398
175.0165, 567.0360
175.4986, 562.0468
175.9807, 560.8206
176.4628, 556.4536
176.9449, 546.6666
177.4271, 537.9263
177.9092, 534.0395
178.3913, 532.2489
178.8734, 528.6550
179.3555, 520.7739
179.8376, 510.3387
180.3197, 502.2421
180.8019, 496.6111
181.2840, 493.4483
181.7661, 493.8340
182.2482, 495.8739
182.7303, 497.5377
183.2124, 498.1656
183.6946, 497.2811
184.1767, 492.3940
184.6588, 477.6098
185.1409, 469.6648
185.6230, 476.9295
186.1051, 490.8476
186.5873, 501.9885
187.0694, 506.0329
187.5515, 504.6352
188.0336, 501.9730
188.5157, 497.4987
188.9978, 492.6208
189.4800, 486.6631
189.9621, 480.9567
190.4442, 477.1770
190.9263, 476.2477
191.4084, 476.7311
191.8905, 474.7497
192.3727, 467.2517
192.8548, 462.8714
193.3369, 465.9451
193.8190, 470.9339
194.3011, 472.0509
194.7832, 466.9497
195.2654, 458.6689
195.7475, 453.5527
196.2296, 451.8073
196.7117, 453.2598
197.1938, 461.6731
197.6759, 470.6583
198.1581, 473.7401
198.6402, 468.8922
199.1223, 460.5682
199.6044, 457.2837
200.0865, 462.2563
200.5686, 466.0221
201.0508, 470.7831
201.5329, 472.5096
202.0150, 465.2730
202.4971, 448.2711
202.9792, 429.7035
203.4613, 423.9237
203.9435, 439.1999
204.4256, 448.8156
204.9077, 448.8019
205.3898, 445.5888
205.8719, 443.3881
206.3540, 443.0681
206.8362, 442.8335
207.3183, 439.9743
207.8004, 433.1302
208.2825, 427.1385
208.7646, 420.0151
209.2467, 415.1031
209.7289, 416.4851
210.2110, 423.4411
210.6931, 430.1926
211.1752, 429.0565
211.6573, 416.5621
212.1395, 409.0324
212.6216, 408.2100
213.1037, 410.4481
213.5858, 416.9555
214.0679, 425.8680
214.5500, 431.7600
215.0322, 427.6708
215.5143, 410.8264
215.9964, 402.7401
216.4785, 414.1069
216.9606, 424.1628
217.4427, 422.9854
217.9249, 413.1575
218.4070, 403.9340
218.8891, 403.4000
219.3712, 411.8506
219.8533, 418.2924
220.3354, 423.6629
220.8176, 425.8823
221.2997, 422.4888
221.7818, 415.4412
222.2639, 408.5971
222.7460, 404.9130
223.2281, 403.8767
223.7103, 400.2291
224.1924, 388.6052
224.6745, 380.2548
225.1566, 379.4894
225.6387, 383.0431
226.1208, 386.0204
226.6030, 385.5671
227.0851, 382.5049
227.5672, 380.2433
228.0493, 378.9241
228.5314, 378.3366
229.0135, 379.2227
229.4957, 380.4840
229.9778, 380.9935
230.4599, 380.2552
230.9420, 378.3690
231.4241, 375.2851
231.9062, 369.1819
232.3884, 365.1641
232.8705, 364.1620
233.3526, 365.0114
233.8347, 366.8093
234.3168, 369.2409
234.7989, 372.3755
235.2811, 376.9514
235.7632, 385.3602
236.2453, 389.3142
236.7274, 385.2727
237.2095, 379.1676
237.6916, 374.5165
238.1738, 372.1440
238.6559, 371.1067
239.1380, 370.8122
239.6201, 372.1257
240.1022, 370.8725
240.5843, 364.4052
241.0665, 357.3940
241.5486, 351.2260
242.0307, 346.4039
242.5128, 343.5424
242.9949, 343.7275
243.4770, 347.2615
243.9592, 350.2663
244.4413, 353.2721
244.9234, 355.1493
245.4055, 354.6172
245.8876, 352.5021
246.3697, 350.8799
246.8519, 351.4393
247.3340, 353.8958
247.8161, 355.7226
248.2982, 357.2634
248.7803, 357.5651
249.2624, 355.3609
249.7446, 351.9896
250.2267, 349.6869
250.7088, 349.8913
251.1909, 351.6562
251.6730, 351.8491
252.1551, 348.6258
252.6373, 347.7096
253.1194, 353.0523
253.6015, 360.5037
254.0836, 365.7216
254.5657, 367.1107
255.0478, 365.8466
255.5300, 363.4997
256.0121, 359.8666
256.4942, 355.9317
256.9763, 350.0574
257.4584, 345.1198
257.9406, 344.1758
258.4227, 348.0075
258.9048, 352.3109
259.3869, 352.0572
259.8690, 347.0031
260.3511, 343.0411
260.8333, 342.2908
261.3154, 342.0554
261.7975, 340.3369
262.2796, 337.1191
262.7617, 333.6280
263.2438, 330.3297
263.7260, 327.3456
264.2081, 325.3434
264.6902, 324.1599
265.1723, 324.4612
265.6544, 328.0356
266.1365, 333.6823
266.6187, 337.2367
267.1008, 336.4442
267.5829, 332.2899
268.0650, 325.3870
268.5471, 313.9230
269.0292, 305.7156
269.5114, 310.3232
269.9935, 321.6232
270.4756, 329.3636
270.9577, 329.3546
271.4398, 325.9858
271.9219, 323.5956
272.4041, 322.1865
272.8862, 321.7764
273.3683, 323.4256
273.8504, 325.5661
274.3325, 325.0480
274.8146, 320.0674
275.2968, 315.4403
275.7789, 315.6764
276.2610, 319.3760
276.7431, 320.2698
277.2252, 314.8768
277.7073, 307.4286
278.1895, 305.6018
278.6716, 310.6043
279.1537, 314.2926
279.6358, 312.4037
280.1179, 307.5942
280.6000, 304.4702
281.0822, 304.1349
281.5643, 304.9491
282.0464, 305.3543
282.5285, 305.4173
283.0106, 304.1903
283.4927, 300.3810
283.9749, 295.9813
284.4570, 292.3750
284.9391, 289.7858
285.4212, 288.5457
285.9033, 289.0427
286.3854, 291.3307
286.8676, 294.2025
287.3497, 299.5678
287.8318, 303.6347
288.3139, 304.0378
288.7960, 301.5995
289.2781, 298.4552
289.7603, 295.6569
290.2424, 293.2622
290.7245, 291.6086
291.2066, 289.2536
291.6887, 289.3183
292.1708, 294.9132
292.6530, 302.2560
293.1351, 306.6950
293.6172, 306.5994
294.0993, 303.4033
294.5814, 299.4129
295.0635, 292.7873
295.5457, 289.0612
296.0278, 290.6385
296.5099, 293.1702
296.9920, 292.8970
297.4741, 289.8679
297.9562, 287.4884
298.4384, 289.7821
298.9205, 297.9400
299.4026, 302.4404
299.8847, 301.4481
300.3668, 298.7682
300.8489, 294.1164
301.3311, 288.7877
301.8131, 285.0942
302.2953, 284.6938
302.7774, 286.9951
303.2595, 289.0451
303.7416, 291.0724
304.2237, 292.4352
304.7058, 292.9258
305.1880, 292.8039
305.6701, 291.8239
306.1522, 289.8208
306.6343, 288.4142
307.1164, 291.2828
307.5985, 300.4626
308.0807, 306.2600
308.5628, 302.6025
309.0449, 298.0349
309.5270, 297.9470
310.0091, 302.6608
310.4912, 308.2968
310.9734, 312.4727
311.4555, 315.0730
311.9376, 314.0385
312.4197, 306.0133
312.9018, 299.0156
313.3839, 299.3688
313.8661, 304.6262
314.3482, 308.3708
314.8303, 305.6934
315.3124, 300.6246
315.7945, 301.0445
316.2766, 307.9392
316.7588, 314.5589
317.2409, 317.3863
317.7230, 317.4924
318.2051, 316.5525
318.6872, 314.3861
319.1693, 311.8488
319.6515, 309.0200
320.1336, 306.1942
320.6157, 304.7855
321.0978, 305.6014
321.5799, 307.5483
322.0620, 309.2769
322.5442, 311.0812
323.0263, 311.3758
323.5084, 308.1640
323.9905, 303.8476
324.4726, 302.1737
324.9547, 303.7438
325.4369, 305.0011
325.9190, 302.0149
326.4011, 294.2242
326.8832, 289.6128
327.3653, 290.6097
327.8474, 292.3983
328.3296, 291.8969
328.8117, 289.8374
329.2938, 288.9538
329.7759, 290.9972
330.2580, 295.1852
330.7401, 297.9052
331.2223, 300.0890
331.7044, 299.6201
332.1865, 294.7977
332.6686, 287.8828
333.1507, 280.6168
333.6328, 273.7396
334.1150, 268.1146
334.5971, 265.2530
335.0792, 266.4890
335.5613, 266.9515
336.0434, 266.4408
336.5255, 265.4399
337.0077, 263.6210
337.4898, 261.4296
337.9719, 260.0374
338.4540, 260.6187
338.9361, 262.8738
339.4182, 264.1330
339.9004, 264.2953
340.3825, 263.4770
340.8646, 261.0938
341.3467, 258.1029
341.8288, 255.4631
342.3109, 253.3767
342.7931, 252.4521
343.2752, 254.2677
343.7573, 259.3838
344.2394, 263.2638
344.7215, 264.3920
345.2036, 264.1651
345.6858, 264.2188
346.1679, 264.5454
346.6500, 262.8526
347.1321, 253.7878
347.6142, 241.6423
348.0963, 240.6142
348.5785, 255.8633
349.0606, 270.4698
349.5427, 268.8380
350.0248, 255.5698
350.5069, 243.7018
350.9890, 233.2000
351.4712, 226.6901
351.9533, 228.7138
352.4354, 237.6218
352.9175, 244.9177
353.3996, 246.6433
353.8817, 244.2515
354.3639, 241.1444
354.8460, 237.0269
355.3281, 233.0189
355.8102, 228.0088
356.2923, 223.8530
356.7744, 224.1688
357.2566, 229.3504
357.7387, 234.3133
358.2208, 232.9901
358.7029, 223.7250
359.1850, 217.2790
359.6671, 214.0053
360.1493, 212.7247
360.6314, 215.2456
361.1135, 219.2623
361.5956, 219.4265
362.0777, 212.0401
362.5598, 200.3540
363.0420, 196.7386
363.5241, 208.9376
364.0062, 216.8625
364.4883, 215.0964
364.9704, 210.4818
365.4525, 208.3252
365.9347, 209.9008
366.4168, 213.6848
366.8989, 219.5431
367.3810, 227.9603
367.8631, 230.5352
368.3452, 221.5025
368.8274, 213.0158
369.3095, 211.4849
369.7916, 215.1780
370.2737, 219.9235
370.7558, 224.9368
371.2379, 228.9357
371.7201, 228.6862
372.2022, 223.6105
372.6843, 219.9672
373.1664, 221.5732
373.6485, 225.4353
374.1306, 226.7460
374.6128, 224.6358
375.0949, 222.6076
375.5770, 223.0939
376.0591, 224.8445
376.5412, 225.0629
377.0233, 223.0088
377.5055, 220.8236
377.9876, 221.1725
378.4697, 224.4247
378.9518, 224.9712
379.4339, 218.7237
379.9160, 213.3713
380.3982, 215.2423
380.8803, 222.0075
381.3624, 226.7462
381.8445, 225.6254
382.3266, 220.2589
382.8087, 215.3968
383.2909, 207.7474
383.7730, 205.4203
384.2551, 214.2209
384.7372, 224.6582
385.2193, 228.2973
385.7014, 224.2974
386.1836, 218.2810
386.6657, 215.9269
387.1478, 217.3887
387.6299, 219.8320
388.1120, 225.6565
388.5941, 229.6004
389.0763, 229.4509
389.5584, 226.5000
390.0405, 222.4945
390.5226, 217.7727
391.0047, 213.4272
391.4868, 211.2048
391.9690, 211.2385
392.4511, 212.2615
392.9332, 214.4454
393.4153, 217.1061
393.8974, 220.3806
394.3795, 224.2082
394.8617, 225.5961
395.3438, 221.6411
395.8259, 214.8142
396.3080, 208.5282
396.7901, 202.9958
397.2722, 199.6399
397.7544, 199.9240
398.2365, 203.3785
398.7186, 206.6977
399.2007, 211.1653
399.6828, 214.0556
400.1649, 213.0094
400.6471, 209.9870
401.1292, 208.6465
401.6113, 210.1967
402.0934, 212.2047
402.5755, 210.6483
403.0576, 202.7706
403.5398, 200.0123
404.0219, 207.9231
404.5040, 215.0514
404.9861, 214.3206
405.4682, 207.8001
405.9503, 201.6180
406.4325, 199.6535
406.9146, 200.8825
407.3967, 201.7452
407.8788, 201.9009
408.3609, 202.3970
408.8430, 203.8749
409.3252, 205.4588
409.8073, 206.8837
410.2894, 207.9788
410.7715, 207.7166
411.2536, 203.1169
411.7357, 195.7504
412.2179, 194.8136
412.7000, 203.3215
413.1821, 212.4302
413.6642, 215.0850
414.1463, 214.0359
414.6284, 214.6079
415.1106, 219.6723
415.5927, 224.3189
416.0748, 224.1266
416.5569, 220.4865
417.0390, 217.4737
417.5211, 216.3205
418.0033, 216.9250
418.4854, 219.6513
418.9675, 225.8764
419.4496, 229.2925
419.9317, 228.4185
420.4138, 225.6754
420.8960, 221.1897
421.3781, 216.0931
421.8602, 213.3776
422.3423, 215.2870
422.8244, 220.3732
423.3065, 222.3087
423.7887, 218.8418
424.2708, 215.6010
424.7529, 213.0883
425.2350, 211.0689
425.7171, 209.0894
426.1992, 207.2158
426.6814, 206.3087
427.1635, 207.8165
427.6456, 211.4561
428.1277, 213.6625
428.6098, 214.1022
429.0919, 213.7155
429.5741, 211.7086
430.0562, 209.5387
430.5383, 210.2144
431.0204, 216.7348
431.5025, 221.2617
431.9846, 214.0105
432.4668, 198.8047
432.9489, 189.9075
433.4310, 191.7889
433.9131, 198.0857
434.3952, 201.7139
434.8773, 202.3471
435.3595, 203.3280
435.8416, 207.0106
436.3237, 209.1066
436.8058, 205.1836
437.2879, 197.4775
437.7701, 192.0466
438.2522, 192.1447
438.7343, 195.4023
439.2164, 195.7143
439.6985, 190.6293
440.1806, 186.9214
440.6628, 183.6518
441.1449, 182.4482
441.6270, 185.3700
442.1091, 191.5942
442.5912, 198.1246
443.0733, 203.1638
443.5555, 206.5507
444.0376, 207.3035
444.5197, 204.5525
445.0018, 201.5795
445.4839, 197.6275
445.9660, 195.1582
446.4482, 198.1412
446.9303, 207.9762
447.4124, 215.8674
447.8945, 214.4763
448.3766, 207.7029
448.8587, 203.5033
449.3409, 202.9677
449.8230, 204.3852
450.3051, 207.6425
450.7872, 212.0143
451.2693, 211.3236
451.7514, 200.0407
452.2336, 190.5333
452.7157, 186.7495
453.1978, 187.2280
453.6799, 191.5419
454.1620, 199.0553
454.6441, 205.4378
455.1263, 204.3387
455.6084, 193.7478
456.0905, 187.0935
456.5726, 185.8267
457.0547, 187.3479
457.5368, 193.7044
458.0190, 201.7166
458.5011, 206.0790
458.9832, 204.0797
459.4653, 200.0111
459.9474, 200.7175
460.4295, 206.2994
460.9117, 209.3303
461.3938, 206.8307
461.8759, 203.5222
462.3580, 204.2458
462.8401, 208.1511
463.3222, 210.7462
463.8044, 209.9930
464.2865, 208.0763
464.7686, 206.3441
465.2507, 205.0142
465.7328, 205.0610
466.2149, 207.1870
466.6971, 209.8953
467.1792, 210.0861
467.6613, 205.3442
468.1434, 203.2374
468.6255, 206.7457
469.1076, 210.2544
469.5898, 209.4800
470.0719, 205.5405
470.5540, 202.3310
471.0361, 202.3109
471.5182, 204.6401
472.0003, 207.2654
472.4825, 210.9775
472.9646, 212.7661
473.4467, 210.2154
473.9288, 206.7517
474.4109, 204.5955
474.8930, 203.7680
475.3752, 202.7967
475.8573, 198.9486
476.3394, 195.1649
476.8215, 198.5055
477.3036, 209.1857
477.7857, 216.4680
478.2679, 214.3454
478.7500, 205.9609
479.2321, 198.0861
479.7142, 188.7771
480.1963, 184.4900
480.6784, 192.6233
481.1606, 202.1674
481.6427, 201.1783
482.1248, 190.4909
482.6069, 180.4154
483.0890, 178.6976
483.5711, 183.9578
484.0533, 188.6742
484.5354, 193.5515
485.0175, 196.5978
485.4996, 196.0280
485.9817, 194.8199
486.4638, 195.4738
486.9460, 198.1574
487.4281, 201.1275
487.9102, 203.9277
488.3923, 205.9321
488.8744, 204.3004
489.3565, 198.1542
489.8387, 193.4295
490.3208, 193.6484
490.8029, 196.9986
491.2850, 199.4422
491.7671, 200.6677
492.2492, 201.9205
492.7314, 204.5469
493.2135, 206.8857
493.6956, 207.0559
494.1777, 204.9038
494.6598, 200.8744
495.1419, 194.7525
495.6241, 187.4201
496.1062, 184.5321
496.5883, 189.1202
497.0704, 194.1793
497.5525, 201.3049
498.0346, 207.0600
498.5168, 207.8411
498.9989, 203.7643
499.4810, 198.5989
499.9631, 195.1078
500.4452, 193.0186
500.9273, 191.0827
501.4095, 188.8958
501.8916, 188.7527
502.3737, 193.5770
502.8558, 199.9034
503.3379, 202.1522
503.8200, 199.4113
504.3022, 196.0076
504.7843, 192.1495
505.2664, 189.2838
505.7485, 190.4154
506.2306, 194.9814
506.7127, 197.8636
507.1949, 195.1618
507.6770, 188.7439
508.1591, 186.8722
508.6412, 194.0190
509.1233, 199.2919
509.6054, 201.2771
510.0876, 201.9249
510.5697, 202.6633
511.0518, 203.4984
511.5339, 203.5457
512.0161, 202.0742
512.4982, 199.4250
512.9803, 195.9635
513.4624, 191.2785
513.9445, 188.3942
514.4266, 188.2783
514.9088, 190.6851
515.3909, 196.3880
515.8730, 205.9552
516.3551, 211.7318
516.8372, 208.7745
517.3193, 202.9855
517.8015, 199.4546
518.2836, 198.1319
518.7657, 197.2323
519.2478, 195.8964
519.7299, 194.0659
520.2120, 191.3742
520.6942, 185.6469
521.1763, 183.3239
521.6584, 187.6147
522.1405, 191.8920
522.6226, 191.3473
523.1047, 187.8388
523.5869, 187.0099
524.0690, 192.8383
524.5511, 200.5466
525.0332, 201.6233
525.5153, 196.1155
525.9974, 191.2324
526.4796, 187.7297
526.9617, 186.9221
527.4438, 193.0254
527.9259, 204.8655
528.4080, 210.6324
528.8901, 202.9511
529.3723, 194.4182
529.8544, 193.3525
530.3365, 196.6502
530.8186, 197.5814
531.3007, 193.9084
531.7828, 189.1688
532.2650, 188.4105
532.7471, 192.4020
533.2292, 195.6115
533.7113, 198.5750
534.1934, 200.0393
534.6755, 198.4290
535.1577, 195.5836
535.6398, 194.7240
536.1219, 197.1461
536.6040, 197.9452
537.0861, 189.1045
537.5682, 174.8481
538.0504, 170.0358
538.5325, 177.2885
539.0146, 187.4354
539.4967, 195.2951
539.9788, 200.6008
540.4609, 202.1240
540.9431, 195.3595
541.4252, 191.4257
541.9073, 195.9679
542.3894, 202.1385
542.8715, 202.6940
543.3536, 197.5853
543.8358, 191.9340
544.3179, 189.5308
544.8000, 190.1530
545.2821, 193.3432
545.7642, 200.4965
546.2463, 206.4054
546.7285, 210.3508
547.2106, 211.9840
547.6927, 209.9247
548.1748, 204.5810
548.6569, 200.1701
549.1390, 199.0492
549.6211, 199.4339
550.1032, 199.5786
550.5853, 199.5284
551.0674, 199.6795
551.5496, 200.1913
552.0317, 201.0335
552.5138, 202.4149
552.9959, 205.3830
553.4780, 205.2198
553.9601, 198.6439
554.4423, 192.9082
554.9244, 191.2256
555.4065, 192.2077
555.8886, 193.3731
556.3707, 193.8013
556.8528, 194.6532
557.3350, 197.5300
557.8171, 202.2184
558.2992, 207.6009
558.7813, 214.5903
559.2634, 218.9227
559.7455, 216.0011
560.2277, 208.4084
560.7098, 204.8739
561.1919, 208.7653
561.6740, 210.9106
562.1561, 205.3017
562.6382, 198.4476
563.1204, 199.4445
563.6025, 207.3598
564.0846, 211.8312
564.5667, 204.3476
565.0488, 189.2560
565.5309, 184.5519
566.0131, 195.6315
566.4952, 203.4518
566.9773, 201.9637
567.4594, 198.4258
567.9415, 197.3282
568.4236, 198.2873
568.9058, 198.4387
569.3879, 195.8705
569.8700, 192.6000
570.3521, 190.1563
570.8342, 188.6652
571.3163, 188.8218
571.7985, 190.9397
572.2806, 193.7945
572.7627, 196.0246
573.2448, 197.6573
573.7269, 198.4387
574.2090, 197.2524
574.6912, 196.6006
575.1733, 197.9915
575.6554, 199.7774
576.1375, 199.5821
576.6196, 197.1046
577.1017, 195.0837
577.5839, 197.4458
578.0660, 202.2376
578.5481, 201.5907
579.0302, 194.5132
579.5123, 190.1878
579.9944, 194.3513
580.4766, 202.3422
580.9587, 204.8466
581.4408, 200.7906
581.9229, 197.1171
582.4050, 193.3472
582.8871, 191.5358
583.3693, 194.4883
583.8514, 200.3127
584.3335, 205.1628
584.8156, 207.2573
585.2977, 207.3224
585.7798, 205.7533
586.2620, 202.2138
586.7441, 201.4081
587.2262, 205.6147
587.7083, 209.1712
588.1904, 207.8046
588.6725, 203.9524
589.1547, 201.9199
589.6368, 203.7335
590.1189, 203.4792
590.6010, 194.1359
591.0831, 183.3788
591.5652, 182.8397
592.0474, 191.9029
592.5295, 200.2754
593.0116, 200.9519
593.4937, 196.6332
593.9758, 196.0429
594.4579, 202.0226
594.9401, 204.9730
595.4222, 200.3815
595.9043, 195.9630
596.3864, 196.5046
596.8685, 200.2766
597.3506, 202.5934
597.8328, 201.6871
598.3149, 198.8607
598.7970, 193.4067
599.2791, 187.1001
599.7612, 185.2137
600.2433, 188.7700
600.7255, 193.3950
601.2076, 195.6164
601.6897, 195.5883
602.1718, 194.5355
602.6539, 190.2285
603.1360, 187.9990
603.6182, 189.7150
604.1003, 192.4534
604.5824, 194.5223
605.0645, 195.6020
605.5466, 195.7291
606.0287, 195.1222
606.5109, 193.3150
606.9930, 187.4533
607.4751, 178.6325
607.9572, 176.8661
608.4393, 186.1584
608.9214, 196.9786
609.4036, 198.9929
609.8857, 192.1601
610.3678, 190.7528
610.8499, 201.8077
611.3320, 208.8556
611.8141, 205.4673
612.2963, 197.9118
612.7784, 191.5465
613.2605, 187.5717
613.7426, 185.5416
614.2247, 185.1729
614.7068, 186.4671
615.1890, 190.4100
615.6711, 197.2237
616.1532, 201.7521
616.6353, 202.6468
617.1174, 200.3924
617.5995, 193.5869
618.0817, 182.1046
618.5638, 176.8835
619.0459, 183.1199
619.5280, 190.1543
620.0101, 194.2751
620.4922, 196.6915
620.9744, 199.8489
621.4565, 203.7542
621.9386, 205.0291
622.4207, 199.0007
622.9028, 188.6051
623.3849, 186.8513
623.8671, 195.7154
624.3492, 201.3775
624.8313, 197.6635
625.3134, 191.2932
625.7955, 190.7766
626.2776, 195.7200
626.7598, 199.3948
627.2419, 199.4183
627.7240, 199.5440
628.2061, 203.5600
628.6882, 208.0920
629.1703, 207.4519
629.6525, 200.7797
630.1346, 192.4162
630.6167, 185.7546
631.0988, 181.2025
631.5809, 181.8894
632.0630, 189.5941
632.5452, 195.4909
633.0273, 195.6554
633.5094, 194.1183
633.9915, 195.7321
634.4736, 200.2858
634.9557, 203.6743
635.4379, 205.1951
635.9200, 205.2153
636.4021, 203.2617
636.8842, 200.1883
637.3663, 196.9431
637.8484, 193.9138
638.3306, 191.6488
638.8127, 190.7946
639.2948, 191.1697
639.7769, 191.7346
640.2590, 192.5338
640.7411, 193.3794
641.2233, 194.3003
641.7054, 195.1608
642.1875, 196.3033
642.6696, 197.5962
643.1517, 197.1086
643.6339, 192.3019
644.1160, 187.9039
644.5981, 187.0541
645.0802, 188.0745
645.5623, 188.4938
646.0444, 187.7372
646.5266, 186.4341
647.0087, 184.8053
647.4908, 183.3292
647.9729, 184.5794
648.4550, 189.1550
648.9371, 194.3870
649.4193, 202.4509
649.9014, 207.7757
650.3835, 202.0843
650.8656, 187.4527
651.3477, 178.7590
651.8298, 184.1795
652.3120, 189.5484
652.7941, 186.8699
653.2762, 180.8360
653.7583, 176.6822
654.2404, 175.8813
654.7225, 179.4341
655.2047, 189.4551
655.6868, 202.6747
656.1689, 207.2563
656.6510, 201.6841
657.1331, 196.7051
657.6152, 194.3503
658.0974, 193.4918
658.5795, 194.1039
659.0616, 195.6281
659.5437, 195.4165
660.0258, 190.6185
660.5079, 187.3024
660.9901, 188.4837
661.4722, 191.5545
661.9543, 194.1954
662.4364, 195.9564
662.9185, 197.0691
663.4006, 197.6695
663.8828, 197.7550
664.3649, 196.8147
664.8470, 194.7628
665.3291, 194.8522
665.8112, 198.5153
666.2933, 202.1428
666.7755, 202.6382
667.2576, 200.8621
667.7397, 200.7611
668.2218, 204.4219
668.7039, 206.3613
669.1860, 203.9319
669.6682, 200.7049
670.1503, 200.3844
670.6324, 201.7384
671.1145, 200.0350
671.5966, 192.4443
672.0787, 184.4432
672.5609, 186.2305
673.0430, 195.6889
673.5251, 195.9229
674.0072, 183.5300
674.4893, 172.5064
674.9714, 170.9872
675.4536, 176.5800
675.9357, 183.5415
676.4178, 194.1757
676.8999, 201.1217
677.3820, 202.2083
677.8641, 201.5902
678.3463, 200.9585
678.8284, 200.2658
679.3105, 198.7051
679.7926, 196.0275
680.2747, 194.2583
680.7568, 196.5928
681.2390, 200.9444
681.7211, 202.4879
682.2032, 201.0566
682.6853, 197.1573
683.1674, 190.3360
683.6495, 183.2953
684.1317, 180.1904
684.6138, 181.4842
685.0959, 184.3458
685.5780, 192.4399
686.0601, 197.7178
686.5422, 195.7841
687.0244, 191.5850
687.5065, 190.4293
687.9886, 192.8379
688.4707, 195.4172
688.9528, 196.9931
689.4349, 197.1880
689.9171, 193.3945
690.3992, 187.8674
690.8813, 188.5672
691.3634, 197.4773
691.8455, 206.6321
692.3276, 207.6008
692.8098, 201.5559
693.2919, 198.9848
693.7740, 201.6488
694.2561, 203.9200
694.7382, 205.8307
695.2203, 206.0286
695.7025, 201.1196
696.1846, 193.3464
696.6667, 191.3592
697.1488, 203.1601
697.6309, 212.3550
698.1130, 205.8453
698.5952, 194.2706
699.0773, 192.4195
699.5594, 199.7830
700.0415, 205.3918
700.5236, 202.3940
701.0057, 194.2477
701.4879, 186.6886
701.9700, 179.4581
702.4521, 178.6487
702.9342, 187.2197
703.4163, 196.1187
703.8984, 200.7464
704.3806, 201.7371
704.8627, 200.4987
705.3448, 196.2299
705.8269, 192.2117
706.3090, 186.9897
706.7911, 184.0119
707.2733, 186.9627
707.7554, 193.0334
708.2375, 197.4672
708.7196, 198.8551
709.2017, 199.4208
709.6838, 201.6414
710.1660, 204.5577
710.6481, 205.4320
711.1302, 204.3524
711.6123, 203.7203
712.0944, 204.6686
712.5765, 205.1231
713.0587, 202.2340
713.5408, 195.7862
714.0229, 190.5411
714.5050, 185.4645
714.9871, 183.1685
715.4692, 186.2591
715.9514, 190.4963
716.4335, 191.9149
716.9156, 191.0886
717.3977, 192.0549
717.8798, 198.4541
718.3619, 204.2733
718.8441, 204.0975
719.3262, 200.3397
719.8083, 196.2567
720.2904, 192.7335
720.7725, 191.0251
721.2546, 192.1690
721.7368, 194.9106
722.2189, 196.2434
722.7010, 195.9959
723.1831, 195.4626
723.6652, 194.5243
724.1473, 193.7001
724.6295, 192.9086
725.1116, 192.5954
725.5937, 194.2444
726.0758, 199.5162
726.5579, 200.8511
727.0400, 191.1173
727.5222, 182.9289
728.0043, 185.6653
728.4864, 194.3436
728.9685, 200.8135
729.4506, 202.7757
729.9327, 202.7632
730.4149, 202.7411
730.8970, 202.4791
731.3791, 200.8911
731.8612, 198.2425
732.3433, 197.7252
732.8254, 200.7256
733.3076, 202.8145
733.7897, 198.6018
734.2718, 188.9373
734.7539, 185.2137
735.2360, 193.3629
735.7181, 197.4880
736.2003, 192.2821
736.6824, 185.9599
737.1645, 183.2726
737.6466, 183.5849
738.1287, 184.3391
738.6108, 184.2627
739.0930, 185.9923
739.5751, 193.6984
740.0572, 202.2137
740.5393, 204.9553
741.0214, 202.7509
741.5035, 200.1804
741.9857, 199.4000
742.4678, 198.9783
742.9499, 196.6367
743.4320, 192.5563
743.9141, 188.9393
744.3962, 185.5453
744.8784, 184.3525
745.3605, 187.2188
745.8426, 190.9329
746.3247, 190.3015
746.8068, 184.3271
747.2889, 183.7314
747.7711, 195.7672
748.2532, 203.4841
748.7353, 199.9941
749.2174, 192.7061
749.6995, 186.3635
750.1816, 182.4243
750.6638, 183.2559
751.1459, 192.3474
751.6280, 202.0842
752.1101, 205.2955
752.5922, 204.2183
753.0743, 202.5577
753.5565, 200.9165
754.0386, 198.9785
754.5207, 196.4806
755.0028, 194.1990
755.4849, 193.9586
755.9670, 196.0747
756.4492, 197.2395
756.9313, 197.1339
757.4134, 196.7085
757.8955, 196.1450
758.3776, 195.6558
758.8597, 195.9694
759.3419, 197.3477
759.8240, 196.8761
760.3061, 191.7670
760.7882, 187.8243
761.2703, 187.3434
761.7524, 189.0413
762.2346, 192.9897
762.7167, 198.0238
763.1988, 199.9939
763.6809, 195.2484
764.1630, 188.7545
764.6451, 185.9406
765.1273, 185.8968
765.6094, 187.0099
766.0915, 188.7877
766.5736, 189.1321
767.0557, 186.4375
767.5378, 182.9574
768.0200, 184.3088
768.5021, 191.8018
768.9842, 195.8399
769.4663, 194.3956
769.9484, 193.5674
770.4305, 196.9231
770.9127, 201.6947
771.3948, 204.0974
771.8769, 204.1023
772.3590, 202.5900
772.8411, 196.9867
773.3232, 193.0771
773.8054, 195.2053
774.2875, 198.7481
774.7696, 197.9458
775.2517, 193.2530
775.7338, 190.2753
776.2159, 193.2315
776.6981, 196.7040
777.1802, 192.9546
777.6623, 185.4862
778.1444, 182.9780
778.6265, 185.9090
779.1086, 188.3899
779.5908, 186.8855
780.0729, 184.7756
780.5550, 189.7119
781.0371, 203.0643
781.5192, 208.8284
782.0013, 203.9906
782.4835, 199.6312
782.9656, 200.3578
783.4477, 203.1672
783.9298, 203.3906
784.4119, 200.8559
784.8940, 202.9232
785.3762, 220.0830
785.8583, 228.6711
786.3404, 214.8894
786.8225, 195.8362
787.3046, 184.5942
787.7867, 181.6885
788.2689, 183.4067
788.7510, 189.5666
789.2331, 195.3312
789.7152, 196.4214
790.1973, 194.6078
790.6794, 191.4670
791.1616, 187.9824
791.6437, 187.5237
792.1258, 191.5451
792.6079, 196.1290
793.0900, 195.2160
793.5721, 189.6680
794.0543, 188.6978
794.5364, 193.1893
795.0185, 196.8200
795.5006, 198.1013
795.9827, 197.1234
796.4648, 192.7116
796.9470, 185.5721
797.4291, 183.4553
797.9112, 192.5640
798.3933, 197.8169
798.8754, 196.6684
799.3575, 193.3795
799.8397, 187.7712
800.3218, 182.5425
800.8039, 182.8815
801.2860, 190.6859
801.7681, 198.9210
802.2502, 207.3114
802.7324, 211.7112
803.2145, 205.7207
803.6966, 193.7440
804.1787, 182.8519
804.6608, 175.4970
805.1429, 173.0301
805.6251, 177.8901
806.1072, 186.6156
806.5893, 192.3151
807.0714, 195.1311
807.5535, 195.5676
808.0356, 193.5916
808.5178, 190.9784
808.9999, 188.6239
809.4820, 186.9905
809.9641, 187.1877
810.4462, 189.1045
810.9283, 193.8366
811.4105, 206.7410
811.8926, 213.6719
812.3747, 202.9339
812.8568, 187.5544
813.3389, 183.2282
813.8210, 190.0550
814.3032, 195.3986
814.7853, 197.8035
815.2674, 197.9764
815.7495, 192.8483
816.2316, 188.1715
816.7137, 191.1566
817.1959, 199.3271
817.6780, 203.8161
818.1601, 200.4174
818.6422, 194.9219
819.1243, 191.4418
819.6064, 189.4590
820.0886, 188.4471
820.5707, 188.1980
821.0528, 188.3236
821.5349, 188.6705
822.0170, 189.1388
822.4991, 189.6929
822.9813, 190.2399
823.4634, 190.4428
823.9455, 190.3116
824.4276, 189.1429
824.9097, 186.0756
825.3918, 185.1390
825.8740, 190.5864
826.3561, 199.5783
826.8382, 202.2746
827.3203, 195.4468
827.8024, 189.7069
828.2845, 182.9454
828.7667, 179.9601
829.2488, 186.7747
829.7309, 195.6710
830.2130, 196.5043
830.6951, 188.7544
831.1772, 182.6664
831.6594, 180.3862
832.1415, 180.6043
832.6236, 186.1178
833.1057, 191.3799
833.5878, 187.8643
834.0699, 178.8163
834.5521, 177.1395
835.0342, 190.0847
835.5163, 203.1529
835.9984, 200.7604
836.4805, 190.9310
836.9626, 185.7315
837.4448, 185.3546
837.9269, 187.9958
838.4090, 192.8187
838.8911, 197.4312
839.3732, 199.5715
839.8553, 199.2328
840.3375, 194.5219
840.8196, 185.2288
841.3017, 184.0360
841.7838, 195.0444
842.2659, 205.0641
842.7480, 204.9130
843.2302, 197.9964
843.7123, 193.0459
844.1944, 191.5614
844.6765, 186.6632
845.1586, 172.9641
845.6407, 163.8834
846.1229, 163.9302
846.6050, 170.7228
847.0871, 187.0248
847.5692, 211.0149
848.0513, 222.0133
848.5334, 206.8170
849.0156, 192.4565
849.4977, 186.9563
849.9798, 184.3589
850.4619, 180.1060
850.9440, 174.9354
851.4261, 171.4533
851.9083, 170.4777
852.3904, 170.5774
852.8725, 169.8205
853.3546, 170.4919
853.8367, 177.2653
854.3188, 186.6695
854.8010, 190.5956
855.2831, 188.3187
855.7652, 187.2559
856.2473, 193.7496
856.7294, 201.8338
857.2115, 199.0711
857.6937, 188.3995
858.1758, 183.1655
858.6579, 184.5420
859.1400, 187.9418
859.6221, 191.6555
860.1042, 193.3419
860.5864, 188.7261
861.0685, 178.2173
861.5506, 172.6900
862.0327, 172.8972
862.5148, 175.5905
862.9969, 181.8374
863.4791, 186.9028
863.9612, 185.8410
864.4433, 180.9849
864.9254, 181.1028
865.4075, 191.4952
865.8896, 195.7541
866.3718, 187.6710
866.8539, 181.1512
867.3360, 183.6277
867.8181, 188.5305
868.3002, 186.8753
868.7823, 178.8897
869.2645, 175.6910
869.7466, 184.5919
870.2287, 192.9522
870.7108, 197.0495
871.1929, 197.6251
871.6750, 192.8601
872.1572, 185.6524
872.6393, 182.4117
873.1214, 185.4093
873.6035, 188.9281
874.0856, 188.9313
874.5677, 187.2247
875.0499, 183.9767
875.5320, 181.1652
876.0141, 184.2437
876.4962, 192.9724
876.9783, 199.7130
877.4604, 198.8575
877.9426, 195.1609
878.4247, 197.7488
878.9068, 204.0255
879.3889, 202.8424
879.8710, 194.2000
880.3531, 187.1752
880.8353, 185.4066
881.3174, 187.5645
881.7995, 193.0726
882.2816, 200.7460
882.7637, 202.8617
883.2458, 198.9571
883.7280, 191.9052
884.2101, 180.2367
884.6922, 172.0783
885.1743, 173.5641
885.6564, 181.0973
886.1385, 187.2375
886.6207, 192.3066
887.1028, 194.2821
887.5849, 190.8030
888.0670, 188.0819
888.5491, 190.5351
889.0313, 191.9007
889.5134, 183.3686
889.9955, 168.4196
890.4776, 163.2268
890.9597, 175.2155
891.4418, 185.4804
891.9240, 192.0404
892.4061, 195.6887
892.8882, 194.2505
893.3703, 191.6001
893.8524, 194.7903
894.3345, 203.8288
894.8167, 207.0804
895.2988, 192.2177
895.7809, 179.7429
896.2630, 183.7249
896.7451, 193.1563
897.2272, 197.8864
897.7094, 197.6629
898.1915, 194.6714
898.6736, 189.6606
899.1557, 185.7334
899.6378, 186.4749
900.1199, 188.8139
900.6021, 188.8180
901.0842, 187.5015
901.5663, 187.1643
902.0484, 188.1304
902.5305, 189.5053
903.0126, 190.8127
903.4948, 191.7307
903.9769, 191.4750
904.4590, 190.4838
904.9411, 188.8883
905.4232, 187.3958
905.9053, 192.6721
906.3875, 206.7602
906.8696, 218.1400
907.3517, 214.6919
907.8338, 201.7232
908.3159, 197.0361
908.7980, 200.7091
909.2802, 201.8515
909.7623, 199.0997
910.2444, 195.2452
910.7265, 190.8856
911.2086, 188.6680
911.6907, 193.7420
912.1729, 205.8967
912.6550, 208.1542
913.1371, 196.2309
913.6192, 188.1924
914.1013, 188.5210
914.5834, 190.7262
915.0656, 191.4584
915.5477, 190.5095
916.0298, 186.7033
916.5119, 177.6785
916.9940, 174.7744
917.4761, 183.7831
917.9583, 190.7108
918.4404, 190.9245
918.9225, 189.0985
919.4046, 186.9569
919.8867, 185.7161
920.3688, 190.1347
920.8510, 205.4274
921.3331, 215.5603
921.8152, 217.4112
922.2973, 214.6006
922.7794, 205.0424
923.2615, 194.1701
923.7437, 187.8953
924.2258, 186.5088
924.7079, 187.4080
925.1900, 191.9554
925.6721, 195.1065
926.1542, 192.4750
926.6364, 189.8251
927.1185, 192.8645
927.6006, 198.7736
928.0827, 202.5465
928.5648, 203.0330
929.0469, 201.7024
929.5291, 196.4809
930.0112, 193.0878
930.4933, 199.6370
930.9754, 207.8732
931.4575, 205.8129
931.9396, 196.0815
932.4218, 188.7701
932.9039, 187.5264
933.3860, 189.0441
933.8681, 191.8991
934.3502, 194.7710
934.8323, 195.8073
935.3145, 195.5895
935.7966, 195.0536
936.2787, 194.4945
936.7608, 194.0567
937.2429, 193.7742
937.7250, 194.3751
938.2072, 198.5921
938.6893, 203.6153
939.1714, 202.2698
939.6535, 195.7588
940.1356, 187.4987
940.6177, 179.0279
941.0999, 176.7266
941.5820, 185.8727
942.0641, 199.5176
942.5462, 205.8167
943.0283, 205.5089
943.5104, 200.4365
943.9926, 191.3483
944.4747, 188.0651
944.9568, 193.8131
945.4389, 197.5168
945.9210, 188.1054
946.4031, 171.9323
946.8853, 167.1135
947.3674, 173.6060
947.8495, 182.5762
948.3316, 194.0573
948.8137, 200.3415
949.2958, 197.7171
949.7780, 192.3904
950.2601, 191.0493
950.7422, 193.1785
951.2243, 197.0128
951.7064, 203.6588
952.1885, 203.7441
952.6707, 194.0973
953.1528, 186.5613
953.6349, 186.9132
954.1170, 191.7355
954.5991, 197.5922
955.0812, 204.1009
955.5634, 202.5760
956.0455, 188.9301
956.5276, 179.8781
957.0097, 178.0465
957.4918, 179.7808
957.9739, 184.1203
958.4561, 189.7896
958.9382, 194.7727
959.4203, 199.0526
959.9024, 203.3500
960.3845, 209.9260
960.8666, 211.7904
961.3488, 204.9162
961.8309, 197.2079
962.3130, 193.1846
962.7951, 191.7188
963.2772, 190.7459
963.7593, 190.3965
964.2415, 189.8223
964.7236, 187.4617
965.2057, 187.1506
965.6878, 191.4053
966.1699, 196.0832
966.6520, 199.4832
967.1342, 201.1680
967.6163, 199.6847
968.0984, 193.8549
968.5805, 189.5013
969.0626, 187.0189
969.5447, 185.8654
970.0269, 187.0313
970.5090, 188.4556
970.9911, 188.3913
971.4732, 187.3702
971.9553, 186.6042
972.4374, 185.4936
972.9196, 187.2033
973.4017, 196.8452
973.8838, 203.4193
974.3659, 199.9865
974.8480, 194.4205
975.3301, 195.0939
975.8123, 199.5457
976.2944, 198.4317
976.7765, 187.6915
977.2586, 180.0887
977.7407, 181.8664
978.2228, 183.2320
978.7050, 177.6562
979.1871, 171.3816
979.6692, 171.4281
980.1513, 176.4832
980.6334, 180.1425
981.1155, 180.3157
981.5977, 181.3150
982.0798, 185.8429
982.5619, 189.8371
983.0440, 190.0173
983.5261, 189.4794
984.0082, 192.7499
984.4904, 198.6425
984.9725, 201.2864
985.4546, 198.1208
985.9367, 194.6792
986.4188, 191.4692
986.9009, 190.2061
987.3831, 193.8852
987.8652, 198.6957
988.3473, 199.7046
988.8294, 197.4275
989.3115, 196.3705
989.7936, 198.6366
990.2758, 199.9933
990.7579, 198.6805
991.2400, 195.9247
991.7221, 189.7749
992.2042, 184.4537
992.6863, 186.2845
993.1685, 194.0909
993.6506, 200.3861
994.1327, 203.0268
994.6148, 202.8996
995.0969, 197.2860
995.5790, 192.3666
996.0612, 193.0603
996.5433, 196.4966
997.0254, 199.1329
997.5075, 200.6703
997.9896, 202.8521
998.4717, 207.8978
998.9539, 208.7024
999.4360, 195.6702
999.9181, 183.9982
1000.400, 187.5903
1000.882, 196.7888
1001.364, 197.2647
1001.847, 190.2982
1002.329, 189.8203
1002.811, 204.4840
1003.293, 213.9041
1003.775, 203.1385
1004.257, 189.7059
1004.739, 184.2496
1005.221, 184.2016
1005.703, 186.3209
1006.186, 189.9090
1006.668, 195.4201
1007.150, 204.5585
1007.632, 210.2159
1008.114, 206.2904
1008.596, 200.9868
1009.078, 200.6977
1009.560, 201.3660
1010.043, 195.9479
1010.525, 186.3548
1011.007, 182.3435
1011.489, 188.5969
1011.971, 194.1980
1012.453, 193.8132
1012.935, 192.1146
1013.417, 192.4522
1013.899, 192.6554
1014.382, 187.9811
1014.864, 180.8169
1015.346, 180.7191
1015.828, 192.9465
1016.310, 200.7560
1016.792, 192.8259
1017.274, 184.5966
1017.756, 185.9131
1018.239, 190.0111
1018.721, 189.3308
1019.203, 185.0056
1019.685, 182.4178
1020.167, 182.9082
1020.649, 184.6355
1021.131, 188.6035
1021.613, 191.6930
1022.095, 191.1015
1022.578, 190.1508
1023.060, 192.9311
1023.542, 197.7250
1024.024, 199.4241
1024.506, 196.5308
1024.988, 194.2632
1025.470, 194.8272
1025.952, 195.1245
1026.435, 193.4302
1026.917, 191.5576
1027.399, 191.2690
1027.881, 191.8606
1028.363, 191.8102
1028.845, 190.9661
1029.327, 189.0826
1029.809, 183.8979
1030.292, 180.7461
1030.774, 182.2859
1031.256, 185.0661
1031.738, 188.0858
1032.220, 190.1531
1032.702, 188.2786
1033.184, 181.7106
1033.666, 179.2970
1034.148, 184.6988
1034.630, 190.2558
1035.113, 195.5213
1035.595, 199.7956
1036.077, 203.3639
1036.559, 205.3493
1037.041, 203.3892
1037.523, 197.2798
1038.005, 194.3908
1038.487, 198.6787
1038.970, 199.8629
1039.452, 195.6404
1039.934, 190.3844
1040.416, 184.3261
1040.898, 179.6612
1041.380, 179.7690
1041.862, 184.1281
1042.344, 186.8551
1042.826, 186.3447
1043.309, 187.8965
1043.791, 193.7962
1044.273, 197.6890
1044.755, 196.0120
1045.237, 193.2617
1045.719, 194.8130
1046.201, 198.9909
1046.683, 197.6319
1047.166, 188.3765
1047.648, 181.6722
1048.130, 178.3739
1048.612, 175.0258
1049.094, 169.7187
1049.576, 166.3426
1050.058, 168.3992
1050.540, 174.5721
1051.022, 181.9447
1051.505, 190.9868
1051.987, 196.6473
1052.469, 198.9578
1052.951, 196.4249
1053.433, 187.5087
1053.915, 180.3008
1054.397, 180.4067
1054.879, 184.8609
1055.361, 189.2103
1055.844, 193.0472
1056.326, 189.6700
1056.808, 179.1140
1057.290, 176.3172
1057.772, 183.9101
1058.254, 191.1684
1058.736, 192.4369
1059.218, 191.1470
1059.701, 191.7880
1060.183, 193.5120
1060.665, 193.3730
1061.147, 191.6477
1061.629, 189.0935
1062.111, 186.2140
1062.593, 186.9496
1063.075, 192.5737
1063.557, 195.9960
1064.040, 188.5678
1064.522, 178.4102
1065.004, 182.2633
1065.486, 194.4321
1065.968, 201.6885
1066.450, 203.9488
1066.932, 205.0960
1067.414, 206.1951
1067.896, 206.1820
1068.379, 204.4201
1068.861, 200.9096
1069.343, 192.5463
1069.825, 184.7878
1070.307, 187.0440
1070.789, 195.1552
1071.271, 200.8395
1071.753, 202.8745
1072.236, 204.4031
1072.718, 207.1923
1073.200, 207.0950
1073.682, 198.3173
1074.164, 188.3929
1074.646, 182.3628
1075.128, 179.7560
1075.610, 181.6654
1076.093, 185.8768
1076.575, 186.9975
1077.057, 183.5122
1077.539, 180.1909
1078.021, 177.8741
1078.503, 177.8036
1078.985, 182.6174
1079.467, 187.8418
1079.949, 190.4016
1080.432, 190.8069
1080.914, 189.5127
1081.396, 186.7992
1081.878, 186.1150
1082.360, 190.8197
1082.842, 193.3791
1083.324, 189.3800
1083.806, 186.9374
1084.288, 192.5396
1084.771, 199.4032
1085.253, 199.7463
1085.735, 194.7504
1086.217, 190.0854
1086.699, 185.0581
1087.181, 182.2805
1087.663, 182.2139
1088.145, 183.6166
1088.628, 186.9229
1089.110, 190.3296
1089.592, 192.9769
1090.074, 194.2537
1090.556, 192.3802
1091.038, 187.1608
1091.520, 184.5519
1092.002, 184.8101
1092.484, 186.5308
1092.967, 189.8563
1093.449, 191.9289
1093.931, 191.0355
1094.413, 189.9170
1094.895, 192.6410
1095.377, 197.3212
1095.859, 196.5993
1096.341, 191.1071
1096.823, 184.8295
1097.306, 178.4759
1097.788, 174.4522
1098.270, 173.5761
1098.752, 176.2543
1099.234, 183.5877
1099.716, 191.3544
1100.198, 191.4443
1100.680, 188.1323
1101.163, 191.8625
1101.645, 199.2373
1102.127, 199.7502
1102.609, 193.3180
1103.091, 188.2342
1103.573, 188.3728
1104.055, 191.0359
1104.537, 195.8173
1105.020, 200.1770
1105.502, 201.7774
1105.984, 201.5854
1106.466, 199.5542
1106.948, 197.1726
1107.430, 197.7266
1107.912, 201.6934
1108.394, 204.8130
1108.876, 206.0240
1109.359, 205.0609
1109.841, 200.0693
1110.323, 194.8458
1110.805, 189.6315
1111.287, 186.9668
1111.769, 192.1686
1112.251, 203.1329
1112.733, 208.2841
1113.215, 203.6915
1113.698, 200.4910
1114.180, 200.1774
1114.662, 199.5412
1115.144, 199.0259
1115.626, 196.0483
1116.108, 186.6325
1116.590, 175.9348
1117.072, 174.2209
1117.555, 181.5484
1118.037, 185.6967
1118.519, 185.8853
1119.001, 187.3009
1119.483, 190.6347
1119.965, 195.2587
1120.447, 201.4437
1120.929, 204.8385
1121.411, 200.1866
1121.894, 191.3114
1122.376, 188.3213
1122.858, 190.1768
1123.340, 191.5602
1123.822, 192.4243
1124.304, 194.2201
1124.786, 197.1099
1125.268, 200.3537
1125.750, 203.7322
1126.233, 203.9330
1126.715, 192.7491
1127.197, 179.9946
1127.679, 181.7899
1128.161, 189.9056
1128.643, 191.0581
1129.125, 186.4165
1129.607, 183.1329
1130.090, 183.0310
1130.572, 183.2071
1131.054, 181.5853
1131.536, 180.9977
1132.018, 186.2258
1132.500, 189.3313
1132.982, 179.6451
1133.464, 168.5367
1133.947, 172.3934
1134.429, 187.6357
1134.911, 195.3050
1135.393, 189.5289
1135.875, 188.5796
1136.357, 200.0654
1136.839, 207.1094
1137.321, 204.2627
1137.803, 200.0746
1138.286, 198.6622
1138.768, 199.7274
1139.250, 204.0616
1139.732, 210.5995
1140.214, 208.0586
1140.696, 194.6232
1141.178, 185.6716
1141.660, 182.1609
1142.142, 184.6383
1142.625, 193.7509
1143.107, 200.3512
1143.589, 196.6844
1144.071, 189.7060
1144.553, 193.4196
1145.035, 203.0436
1145.517, 202.8958
1145.999, 196.1591
1146.482, 193.2941
1146.964, 194.7250
1147.446, 195.0061
1147.928, 192.1710
1148.410, 189.0406
1148.892, 186.9690
1149.374, 186.6987
1149.856, 190.9632
1150.339, 195.4079
1150.821, 194.6229
1151.303, 191.7006
1151.785, 192.9333
1152.267, 197.1371
1152.749, 195.9553
1153.231, 185.6599
1153.713, 176.8317
1154.195, 170.7084
1154.677, 167.9209
1155.160, 169.7085
1155.642, 173.8382
1156.124, 180.5374
1156.606, 187.4152
1157.088, 191.0378
1157.570, 191.5351
1158.052, 190.3764
1158.534, 187.4603
1159.017, 182.5271
1159.499, 174.4754
1159.981, 171.5818
1160.463, 176.8084
1160.945, 183.7545
1161.427, 187.9384
1161.909, 190.4707
1162.391, 193.4505
1162.874, 196.2952
1163.356, 196.4767
1163.838, 194.9463
1164.320, 195.4263
1164.802, 197.3606
1165.284, 195.7746
1165.766, 189.7738
1166.248, 186.9314
1166.730, 194.6761
1167.213, 201.0287
1167.695, 191.7215
1168.177, 181.1902
1168.659, 184.9134
1169.141, 193.2773
1169.623, 191.2004
1170.105, 182.7059
1170.587, 185.2299
1171.069, 204.3824
1171.552, 212.7001
1172.034, 194.3309
1172.516, 182.2156
1172.998, 184.3848
1173.480, 189.3554
1173.962, 193.9524
1174.444, 196.8985
1174.926, 196.2652
1175.409, 193.3707
1175.891, 192.8861
1176.373, 195.0030
1176.855, 197.4938
1177.337, 200.4538
1177.819, 198.7363
1178.301, 191.5380
1178.783, 185.8217
1179.266, 184.9751
1179.748, 185.6085
1180.230, 183.5571
1180.712, 181.9836
1181.194, 188.2924
1181.676, 197.1729
1182.158, 199.1918
1182.640, 196.4342
1183.122, 193.2387
1183.604, 191.1657
1184.087, 192.6660
1184.569, 199.4819
1185.051, 203.2270
1185.533, 196.9137
1186.015, 191.0379
1186.497, 192.4447
1186.979, 193.2178
1187.461, 183.4288
1187.944, 172.5329
1188.426, 176.5612
1188.908, 192.2288
1189.390, 198.4423
1189.872, 190.9400
1190.354, 189.9751
1190.836, 198.0020
1191.318, 201.2735
1191.801, 196.2567
1192.283, 189.3096
1192.765, 183.6270
1193.247, 181.2968
1193.729, 186.2969
1194.211, 194.4438
1194.693, 195.7001
1195.175, 191.7524
1195.657, 185.3184
1196.140, 178.1865
1196.622, 173.2341
1197.104, 171.7164
1197.586, 176.8654
1198.068, 191.0598
1198.550, 201.8839
1199.032, 200.2764
1199.514, 194.7356
1199.996, 183.5922
1200.479, 177.1475
1200.961, 189.8654
1201.443, 208.4561
1201.925, 212.1967
1202.407, 202.1128
1202.889, 195.1795
1203.371, 192.0878
1203.853, 190.4082
1204.336, 191.0083
1204.818, 189.8076
1205.300, 185.2473
1205.782, 182.0703
1206.264, 182.7106
1206.746, 186.7178
1207.228, 194.4192
1207.710, 203.4504
1208.193, 209.3390
1208.675, 211.2104
1209.157, 202.3171
1209.639, 187.9913
1210.121, 185.0118
1210.603, 193.6738
1211.085, 202.1239
1211.567, 205.7369
1212.049, 205.8949
1212.531, 199.4516
1213.014, 195.2464
1213.496, 202.0123
1213.978, 208.1576
1214.460, 203.3969
1214.942, 194.9818
1215.424, 192.9009
1215.906, 195.2858
1216.388, 193.7299
1216.871, 187.2262
1217.353, 182.9656
1217.835, 181.1596
1218.317, 180.9201
1218.799, 182.3935
1219.281, 183.2332
1219.763, 182.3205
1220.245, 182.8224
1220.728, 188.2092
1221.210, 194.3682
1221.692, 192.7988
1222.174, 187.4661
1222.656, 186.8367
1223.138, 188.7687
1223.620, 188.1789
1224.102, 185.6331
1224.584, 184.6821
1225.067, 186.1868
1225.549, 188.2656
1226.031, 190.3416
1226.513, 192.4174
1226.995, 196.0559
1227.477, 197.6704
1227.959, 193.6999
1228.441, 189.2036
1228.923, 188.1856
1229.406, 188.7836
1229.888, 187.4782
1230.370, 184.6766
1230.852, 185.2144
1231.334, 189.2303
1231.816, 193.9500
1232.298, 198.9951
1232.780, 199.5136
1233.263, 194.6288
##END=



