##NAMES=Phlogopite
##RRUFFID=R070330
##IDEAL CHEMISTRY=KMg_3_(Si_3_Al)O_10_(OH)_2_
##LOCALITY=Little Chief mine, Whitehorse, Yukon Territory, Canada
##OWNER=RRUFF
##SOURCE=Mark Mauthner
##DESCRIPTION=Green micaceous
##STATUS=The identification of this mineral has been confirmed by X-ray diffraction and chemical analysis
##URL=rruff.info/R070330
##MEASURED CHEMISTRY=K_1.00_(Mg_2.65_Fe^2+^_0.34_Ti_0.01_)_Σ=3_(Si_2.98_Al_1.02_)O_10_((OH)_1.77_F_0.23_)_Σ=2_; (gray area) trace amounts of Mn; OH by charge balance; light phase is diopside: Ca_1.00_(Mg_0.96_Fe_0.04_)_Σ=1_Si_2.00_O_6_; dark phase: Mg-rich chlorite
165.8563, 3243.597
166.3384, 3265.366
166.8205, 3282.595
167.3026, 3293.951
167.7847, 3292.885
168.2668, 3287.544
168.7490, 3297.699
169.2311, 3330.301
169.7132, 3362.953
170.1953, 3383.349
170.6774, 3396.160
171.1595, 3408.058
171.6417, 3421.081
172.1238, 3435.555
172.6059, 3452.794
173.0880, 3474.472
173.5701, 3495.600
174.0522, 3508.937
174.5344, 3521.326
175.0165, 3543.964
175.4986, 3587.250
175.9807, 3641.387
176.4628, 3679.379
176.9449, 3695.496
177.4271, 3704.810
177.9092, 3708.475
178.3913, 3711.066
178.8734, 3718.734
179.3555, 3734.645
179.8376, 3757.554
180.3197, 3784.716
180.8019, 3819.470
181.2840, 3852.571
181.7661, 3877.116
182.2482, 3899.760
182.7303, 3928.690
183.2124, 3968.256
183.6946, 4016.043
184.1767, 4065.423
184.6588, 4115.744
185.1409, 4168.593
185.6230, 4225.314
186.1051, 4283.682
186.5873, 4341.127
187.0694, 4396.188
187.5515, 4450.352
188.0336, 4509.114
188.5157, 4574.380
188.9978, 4640.584
189.4800, 4711.724
189.9621, 4780.492
190.4442, 4841.415
190.9263, 4891.947
191.4084, 4930.648
191.8905, 4954.169
192.3727, 4962.440
192.8548, 4953.115
193.3369, 4924.679
193.8190, 4882.594
194.3011, 4832.676
194.7832, 4777.291
195.2654, 4712.952
195.7475, 4630.093
196.2296, 4511.019
196.7117, 4405.599
197.1938, 4321.411
197.6759, 4250.162
198.1581, 4187.223
198.6402, 4130.486
199.1223, 4077.216
199.6044, 4021.836
200.0865, 3960.503
200.5686, 3904.966
201.0508, 3856.546
201.5329, 3812.712
202.0150, 3774.504
202.4971, 3741.253
202.9792, 3707.844
203.4613, 3663.728
203.9435, 3597.695
204.4256, 3547.113
204.9077, 3518.494
205.3898, 3499.650
205.8719, 3485.576
206.3540, 3473.890
206.8362, 3461.031
207.3183, 3440.480
207.8004, 3406.106
208.2825, 3380.390
208.7646, 3375.228
209.2467, 3368.649
209.7289, 3341.170
210.2110, 3294.585
210.6931, 3251.166
211.1752, 3241.379
211.6573, 3280.665
212.1395, 3296.610
212.6216, 3268.017
213.1037, 3235.895
213.5858, 3220.847
214.0679, 3222.303
214.5500, 3226.813
215.0322, 3220.760
215.5143, 3202.127
215.9964, 3186.371
216.4785, 3174.080
216.9606, 3163.991
217.4427, 3154.325
217.9249, 3146.248
218.4070, 3143.241
218.8891, 3149.585
219.3712, 3165.732
219.8533, 3174.785
220.3354, 3170.347
220.8176, 3164.593
221.2997, 3158.989
221.7818, 3154.572
222.2639, 3152.974
222.7460, 3155.977
223.2281, 3162.836
223.7103, 3165.246
224.1924, 3158.334
224.6745, 3151.968
225.1566, 3145.136
225.6387, 3140.693
226.1208, 3144.512
226.6030, 3161.398
227.0851, 3185.799
227.5672, 3193.771
228.0493, 3171.098
228.5314, 3150.063
229.0135, 3137.075
229.4957, 3128.291
229.9778, 3118.676
230.4599, 3105.873
230.9420, 3092.280
231.4241, 3084.017
231.9062, 3084.427
232.3884, 3084.822
232.8705, 3082.689
233.3526, 3080.770
233.8347, 3080.685
234.3168, 3083.108
234.7989, 3089.126
235.2811, 3103.087
235.7632, 3134.726
236.2453, 3150.504
236.7274, 3132.224
237.2095, 3109.989
237.6916, 3106.341
238.1738, 3124.380
238.6559, 3147.903
239.1380, 3156.701
239.6201, 3147.093
240.1022, 3136.116
240.5843, 3112.628
241.0665, 3097.473
241.5486, 3108.413
242.0307, 3141.344
242.5128, 3173.170
242.9949, 3180.014
243.4770, 3159.498
243.9592, 3142.405
244.4413, 3130.263
244.9234, 3120.323
245.4055, 3110.131
245.8876, 3101.120
246.3697, 3097.204
246.8519, 3102.582
247.3340, 3116.049
247.8161, 3126.327
248.2982, 3131.333
248.7803, 3135.763
249.2624, 3142.789
249.7446, 3150.205
250.2267, 3153.852
250.7088, 3150.285
251.1909, 3142.873
251.6730, 3141.855
252.1551, 3150.562
252.6373, 3159.036
253.1194, 3165.482
253.6015, 3169.524
254.0836, 3169.175
254.5657, 3162.507
255.0478, 3155.866
255.5300, 3161.822
256.0121, 3185.162
256.4942, 3202.806
256.9763, 3202.010
257.4584, 3196.438
257.9406, 3195.294
258.4227, 3200.512
258.9048, 3209.359
259.3869, 3220.178
259.8690, 3233.142
260.3511, 3244.538
260.8333, 3254.030
261.3154, 3261.285
261.7975, 3264.007
262.2796, 3262.784
262.7617, 3264.972
263.2438, 3280.705
263.7260, 3306.409
264.2081, 3319.276
264.6902, 3308.722
265.1723, 3297.759
265.6544, 3304.817
266.1365, 3325.542
266.6187, 3345.818
267.1008, 3356.349
267.5829, 3362.415
268.0650, 3377.363
268.5471, 3405.158
269.0292, 3429.807
269.5114, 3433.175
269.9935, 3426.267
270.4756, 3428.273
270.9577, 3449.011
271.4398, 3476.669
271.9219, 3499.173
272.4041, 3516.495
272.8862, 3530.411
273.3683, 3540.501
273.8504, 3548.113
274.3325, 3555.801
274.8146, 3562.938
275.2968, 3571.540
275.7789, 3586.654
276.2610, 3605.477
276.7431, 3614.660
277.2252, 3604.865
277.7073, 3589.661
278.1895, 3593.861
278.6716, 3621.510
279.1537, 3645.032
279.6358, 3656.270
280.1179, 3656.508
280.6000, 3644.401
281.0822, 3617.836
281.5643, 3590.156
282.0464, 3579.774
282.5285, 3588.774
283.0106, 3589.030
283.4927, 3572.358
283.9749, 3548.815
284.4570, 3525.348
284.9391, 3503.100
285.4212, 3484.132
285.9033, 3471.423
286.3854, 3464.741
286.8676, 3452.237
287.3497, 3427.763
287.8318, 3403.966
288.3139, 3386.438
288.7960, 3374.467
289.2781, 3365.950
289.7603, 3360.021
290.2424, 3356.137
290.7245, 3352.181
291.2066, 3350.200
291.6887, 3345.664
292.1708, 3338.359
292.6530, 3327.950
293.1351, 3312.014
293.6172, 3289.908
294.0993, 3267.251
294.5814, 3254.700
295.0635, 3262.050
295.5457, 3260.934
296.0278, 3237.277
296.5099, 3215.878
296.9920, 3217.963
297.4741, 3243.401
297.9562, 3274.550
298.4384, 3293.726
298.9205, 3299.728
299.4026, 3301.780
299.8847, 3297.907
300.3668, 3292.208
300.8489, 3281.188
301.3310, 3269.471
301.8131, 3266.937
302.2953, 3281.615
302.7774, 3309.042
303.2595, 3325.589
303.7416, 3319.921
304.2237, 3319.986
304.7058, 3337.135
305.1880, 3359.895
305.6701, 3376.022
306.1522, 3380.941
306.6343, 3378.898
307.1164, 3375.011
307.5985, 3367.151
308.0807, 3365.508
308.5628, 3374.804
309.0449, 3389.103
309.5270, 3409.574
310.0091, 3434.691
310.4912, 3453.183
310.9734, 3449.135
311.4555, 3425.518
311.9376, 3416.915
312.4197, 3435.925
312.9018, 3455.580
313.3839, 3455.830
313.8661, 3443.272
314.3482, 3435.190
314.8303, 3444.035
315.3124, 3460.061
315.7945, 3463.079
316.2766, 3449.832
316.7588, 3442.990
317.2409, 3462.016
317.7230, 3492.927
318.2051, 3511.332
318.6872, 3507.089
319.1693, 3502.696
319.6515, 3518.093
320.1336, 3548.730
320.6157, 3574.317
321.0978, 3587.271
321.5799, 3593.155
322.0620, 3600.865
322.5442, 3610.964
323.0263, 3619.154
323.5084, 3623.338
323.9905, 3625.343
324.4726, 3625.748
324.9547, 3624.705
325.4369, 3627.701
325.9190, 3641.346
326.4011, 3667.001
326.8832, 3687.360
327.3653, 3699.315
327.8474, 3709.163
328.3296, 3720.716
328.8117, 3733.233
329.2938, 3743.473
329.7759, 3749.249
330.2580, 3751.910
330.7401, 3757.411
331.2223, 3767.665
331.7044, 3778.459
332.1865, 3788.080
332.6686, 3798.650
333.1507, 3812.385
333.6328, 3829.952
334.1150, 3850.772
334.5971, 3875.204
335.0792, 3907.492
335.5613, 3931.227
336.0434, 3948.332
336.5255, 3956.411
337.0077, 3945.824
337.4898, 3923.365
337.9719, 3908.267
338.4540, 3917.214
338.9361, 3947.433
339.4182, 3973.961
339.9004, 3993.705
340.3825, 4013.979
340.8646, 4037.131
341.3467, 4062.004
341.8288, 4087.837
342.3109, 4114.979
342.7931, 4140.428
343.2752, 4157.149
343.7573, 4162.987
344.2394, 4176.239
344.7215, 4211.226
345.2036, 4247.214
345.6858, 4263.668
346.1679, 4260.410
346.6500, 4262.421
347.1321, 4295.382
347.6142, 4345.495
348.0963, 4371.756
348.5785, 4364.444
349.0606, 4351.131
349.5427, 4353.915
350.0248, 4368.131
350.5069, 4380.482
350.9890, 4390.684
351.4712, 4396.623
351.9533, 4394.279
352.4354, 4385.197
352.9175, 4377.430
353.3996, 4374.903
353.8817, 4375.864
354.3639, 4376.713
354.8460, 4381.867
355.3281, 4378.387
355.8102, 4355.946
356.2923, 4326.703
356.7744, 4306.343
357.2566, 4297.770
357.7387, 4292.056
358.2208, 4279.526
358.7029, 4259.368
359.1850, 4235.844
359.6671, 4207.813
360.1493, 4178.227
360.6314, 4147.603
361.1135, 4116.487
361.5956, 4085.449
362.0777, 4054.530
362.5598, 4024.347
363.0420, 3996.588
363.5241, 3968.552
364.0062, 3948.032
364.4883, 3944.843
364.9704, 3943.128
365.4525, 3927.208
365.9347, 3894.865
366.4168, 3859.323
366.8989, 3836.123
367.3810, 3825.876
367.8631, 3814.821
368.3452, 3801.540
368.8274, 3788.448
369.3095, 3776.665
369.7916, 3765.938
370.2737, 3755.692
370.7558, 3745.626
371.2379, 3735.892
371.7201, 3725.802
372.2022, 3714.887
372.6843, 3708.756
373.1664, 3715.139
373.6485, 3724.342
374.1306, 3721.059
374.6128, 3701.641
375.0949, 3681.299
375.5770, 3667.138
376.0591, 3657.840
376.5412, 3651.701
377.0233, 3648.722
377.5055, 3646.148
377.9876, 3640.546
378.4697, 3631.483
378.9518, 3626.115
379.4339, 3628.212
379.9160, 3630.730
380.3982, 3629.699
380.8803, 3625.617
381.3624, 3619.382
381.8445, 3610.803
382.3266, 3602.758
382.8087, 3604.130
383.2909, 3627.157
383.7730, 3643.842
384.2551, 3652.230
384.7372, 3655.024
385.2193, 3652.078
385.7014, 3644.743
386.1836, 3637.952
386.6657, 3636.171
387.1478, 3639.311
387.6299, 3649.479
388.1120, 3673.437
388.5941, 3697.013
389.0763, 3720.864
389.5584, 3740.102
390.0405, 3743.913
390.5226, 3723.266
391.0047, 3698.660
391.4868, 3707.330
391.9690, 3753.521
392.4511, 3792.097
392.9332, 3808.172
393.4153, 3814.335
393.8974, 3823.906
394.3795, 3837.003
394.8617, 3844.455
395.3438, 3840.850
395.8259, 3829.093
396.3080, 3813.090
396.7901, 3793.067
397.2722, 3770.365
397.7544, 3743.249
398.2365, 3714.352
398.7186, 3695.390
399.2007, 3694.856
399.6828, 3694.665
400.1649, 3688.810
400.6471, 3678.505
401.1292, 3662.057
401.6113, 3638.745
402.0934, 3620.338
402.5755, 3626.118
403.0576, 3669.606
403.5398, 3695.922
404.0219, 3698.028
404.5040, 3692.333
404.9861, 3682.517
405.4682, 3671.966
405.9503, 3665.853
406.4325, 3667.565
406.9146, 3675.808
407.3967, 3687.760
407.8788, 3711.211
408.3609, 3721.808
408.8430, 3702.834
409.3252, 3678.229
409.8073, 3666.641
410.2894, 3670.842
410.7715, 3681.068
411.2536, 3692.568
411.7357, 3703.982
412.2179, 3706.460
412.7000, 3695.940
413.1821, 3684.844
413.6642, 3679.625
414.1463, 3680.116
414.6284, 3688.140
415.1106, 3713.148
415.5927, 3734.666
416.0748, 3732.859
416.5569, 3714.759
417.0390, 3702.448
417.5211, 3703.903
418.0033, 3712.257
418.4854, 3718.374
418.9675, 3723.190
419.4496, 3721.419
419.9317, 3705.742
420.4138, 3689.245
420.8960, 3680.059
421.3781, 3677.925
421.8602, 3679.876
422.3423, 3684.538
422.8244, 3690.608
423.3065, 3692.027
423.7887, 3681.741
424.2708, 3678.037
424.7529, 3690.590
425.2350, 3704.644
425.7171, 3706.325
426.1992, 3694.737
426.6814, 3681.585
427.1635, 3681.190
427.6456, 3691.630
428.1277, 3687.135
428.6098, 3655.958
429.0919, 3632.579
429.5741, 3648.036
430.0562, 3678.861
430.5383, 3687.302
431.0204, 3654.321
431.5025, 3619.364
431.9846, 3618.466
432.4668, 3643.313
432.9489, 3666.904
433.4310, 3684.875
433.9131, 3690.787
434.3952, 3670.792
434.8773, 3620.962
435.3595, 3590.085
435.8416, 3596.360
436.3237, 3608.340
436.8058, 3604.391
437.2879, 3590.128
437.7701, 3584.488
438.2522, 3597.995
438.7343, 3620.442
439.2164, 3625.097
439.6985, 3597.562
440.1806, 3577.559
440.6628, 3573.370
441.1449, 3569.779
441.6270, 3556.224
442.1091, 3533.604
442.5912, 3508.446
443.0733, 3480.824
443.5555, 3456.480
444.0376, 3464.034
444.5197, 3519.866
445.0018, 3561.652
445.4839, 3553.525
445.9660, 3525.587
446.4482, 3505.276
446.9303, 3496.512
447.4124, 3491.182
447.8945, 3482.364
448.3766, 3473.866
448.8587, 3477.688
449.3409, 3496.673
449.8230, 3510.171
450.3051, 3499.973
450.7872, 3468.449
451.2693, 3443.864
451.7514, 3423.561
452.2336, 3412.589
452.7157, 3416.879
453.1978, 3430.036
453.6799, 3444.933
454.1620, 3459.013
454.6441, 3470.536
455.1263, 3476.746
455.6084, 3476.460
456.0905, 3477.548
456.5726, 3482.707
457.0547, 3486.469
457.5368, 3485.639
458.0190, 3482.672
458.5011, 3481.810
458.9832, 3485.124
459.4653, 3489.786
459.9474, 3492.768
460.4295, 3494.096
460.9117, 3491.279
461.3938, 3483.969
461.8759, 3471.970
462.3580, 3451.724
462.8401, 3425.412
463.3222, 3404.940
463.8044, 3390.607
464.2865, 3385.644
464.7686, 3399.481
465.2507, 3426.855
465.7328, 3447.561
466.2149, 3452.684
466.6971, 3447.069
467.1792, 3439.769
467.6613, 3430.097
468.1434, 3419.958
468.6255, 3402.185
469.1076, 3390.083
469.5898, 3396.826
470.0719, 3417.011
470.5540, 3434.737
471.0361, 3440.049
471.5182, 3436.130
472.0003, 3430.906
472.4825, 3421.425
472.9646, 3418.839
473.4467, 3437.638
473.9288, 3455.357
474.4109, 3451.171
474.8930, 3427.418
475.3752, 3412.874
475.8573, 3432.547
476.3394, 3468.506
476.8215, 3489.087
477.3036, 3493.398
477.7857, 3498.683
478.2679, 3515.485
478.7500, 3537.057
479.2321, 3546.529
479.7142, 3540.910
480.1963, 3533.078
480.6784, 3518.576
481.1606, 3507.519
481.6427, 3512.059
482.1248, 3530.693
482.6069, 3551.232
483.0890, 3565.083
483.5711, 3572.756
484.0533, 3576.986
484.5354, 3574.047
485.0175, 3573.831
485.4996, 3573.969
485.9817, 3579.573
486.4638, 3598.074
486.9460, 3628.500
487.4281, 3658.189
487.9102, 3678.529
488.3923, 3690.507
488.8744, 3694.370
489.3565, 3687.908
489.8387, 3686.260
490.3208, 3698.023
490.8029, 3719.274
491.2850, 3741.489
491.7671, 3766.268
492.2492, 3787.548
492.7314, 3804.824
493.2135, 3816.483
493.6956, 3814.823
494.1777, 3802.396
494.6598, 3798.560
495.1419, 3819.944
495.6241, 3861.302
496.1062, 3888.952
496.5883, 3891.155
497.0704, 3895.353
497.5525, 3907.587
498.0346, 3920.565
498.5168, 3926.586
498.9989, 3925.854
499.4810, 3926.358
499.9631, 3935.396
500.4452, 3950.919
500.9273, 3965.845
501.4095, 3980.832
501.8916, 3992.454
502.3737, 3998.668
502.8558, 4000.796
503.3379, 3999.170
503.8200, 3990.821
504.3022, 3991.461
504.7843, 4017.466
505.2664, 4049.552
505.7485, 4064.431
506.2306, 4061.511
506.7127, 4052.163
507.1949, 4042.304
507.6770, 4034.429
508.1591, 4040.170
508.6412, 4082.550
509.1233, 4104.367
509.6054, 4086.561
510.0876, 4060.548
510.5697, 4050.221
511.0518, 4055.123
511.5339, 4058.400
512.0161, 4043.513
512.4982, 4021.147
512.9803, 4025.428
513.4624, 4062.149
513.9445, 4090.217
514.4266, 4093.839
514.9088, 4082.738
515.3909, 4068.321
515.8730, 4050.000
516.3551, 4035.547
516.8372, 4029.997
517.3193, 4027.309
517.8015, 4021.772
518.2836, 4013.788
518.7657, 4007.333
519.2478, 4005.077
519.7299, 4003.151
520.2120, 3991.547
520.6942, 3960.582
521.1763, 3938.434
521.6584, 3927.724
522.1405, 3922.241
522.6226, 3924.254
523.1047, 3928.645
523.5869, 3924.044
524.0690, 3903.051
524.5511, 3873.319
525.0332, 3844.789
525.5153, 3817.496
525.9974, 3797.950
526.4796, 3791.039
526.9617, 3786.885
527.4438, 3774.452
527.9259, 3754.774
528.4080, 3736.184
528.8901, 3714.875
529.3723, 3699.846
529.8544, 3703.096
530.3365, 3715.179
530.8186, 3715.070
531.3007, 3696.025
531.7828, 3674.484
532.2650, 3675.135
532.7471, 3703.590
533.2292, 3719.128
533.7113, 3708.907
534.1934, 3700.168
534.6755, 3705.487
535.1577, 3715.513
535.6398, 3714.913
536.1219, 3697.987
536.6040, 3682.788
537.0861, 3688.166
537.5682, 3708.841
538.0504, 3729.777
538.5325, 3749.977
539.0146, 3763.755
539.4967, 3764.767
539.9788, 3755.951
540.4609, 3752.131
540.9431, 3752.839
541.4252, 3758.446
541.9073, 3771.333
542.3894, 3787.639
542.8715, 3803.811
543.3536, 3819.550
543.8358, 3837.701
544.3179, 3862.781
544.8000, 3889.954
545.2821, 3894.356
545.7642, 3863.644
546.2463, 3844.096
546.7285, 3857.873
547.2106, 3879.578
547.6926, 3891.444
548.1747, 3892.919
548.6569, 3889.587
549.1390, 3885.387
549.6211, 3876.459
550.1032, 3857.097
550.5853, 3828.774
551.0674, 3798.492
551.5496, 3768.808
552.0317, 3737.679
552.5138, 3699.796
552.9959, 3646.689
553.4780, 3615.978
553.9601, 3632.445
554.4423, 3641.361
554.9244, 3615.130
555.4065, 3568.588
555.8886, 3525.337
556.3707, 3493.788
556.8528, 3469.379
557.3350, 3446.229
557.8171, 3424.927
558.2992, 3411.729
558.7813, 3409.803
559.2634, 3407.884
559.7455, 3399.585
560.2277, 3385.241
560.7098, 3367.062
561.1919, 3341.738
561.6740, 3318.334
562.1561, 3300.247
562.6382, 3285.146
563.1204, 3269.519
563.6025, 3253.800
564.0846, 3242.416
564.5667, 3239.223
565.0488, 3241.528
565.5309, 3238.443
566.0131, 3228.014
566.4952, 3217.136
566.9773, 3205.620
567.4594, 3195.075
567.9415, 3188.014
568.4236, 3183.305
568.9058, 3175.755
569.3879, 3158.500
569.8700, 3141.603
570.3521, 3135.143
570.8342, 3137.562
571.3163, 3146.124
571.7985, 3160.877
572.2806, 3172.696
572.7627, 3170.231
573.2448, 3152.182
573.7269, 3131.752
574.2090, 3093.938
574.6912, 3071.472
575.1733, 3088.650
575.6554, 3116.993
576.1375, 3121.105
576.6196, 3094.856
577.1017, 3066.593
577.5839, 3066.940
578.0660, 3085.783
578.5481, 3085.819
579.0302, 3063.870
579.5123, 3047.225
579.9944, 3050.599
580.4766, 3064.513
580.9587, 3070.334
581.4408, 3065.840
581.9229, 3064.295
582.4050, 3073.712
582.8871, 3080.990
583.3693, 3074.791
583.8514, 3059.836
584.3335, 3046.360
584.8156, 3039.079
585.2977, 3037.465
585.7798, 3043.601
586.2620, 3058.953
586.7441, 3063.704
587.2262, 3051.495
587.7083, 3037.547
588.1904, 3028.575
588.6725, 3024.063
589.1547, 3024.122
589.6368, 3030.277
590.1189, 3036.956
590.6010, 3046.264
591.0831, 3052.000
591.5652, 3041.971
592.0474, 3018.339
592.5295, 2997.598
593.0116, 2990.717
593.4937, 2994.538
593.9758, 3000.432
594.4579, 3012.639
594.9401, 3016.745
595.4222, 3002.008
595.9043, 2987.525
596.3864, 2984.593
596.8685, 2989.507
597.3506, 2991.680
597.8328, 2985.759
598.3149, 2978.752
598.7970, 2979.111
599.2791, 2983.139
599.7612, 2979.134
600.2433, 2964.788
600.7255, 2952.600
601.2076, 2954.035
601.6897, 2967.007
602.1718, 2974.397
602.6539, 2967.037
603.1360, 2966.713
603.6182, 2984.680
604.1003, 3002.561
604.5824, 3005.510
605.0645, 2994.871
605.5466, 2981.545
606.0287, 2969.230
606.5109, 2961.021
606.9930, 2963.644
607.4751, 2975.770
607.9572, 2986.046
608.4393, 2990.834
608.9214, 2997.172
609.4036, 3015.502
609.8857, 3045.849
610.3678, 3055.729
610.8499, 3028.665
611.3320, 3004.086
611.8141, 2987.865
612.2963, 2980.443
612.7784, 2984.995
613.2605, 2999.746
613.7426, 3016.520
614.2247, 3031.710
614.7068, 3042.432
615.1890, 3038.253
615.6711, 3018.307
616.1532, 3002.952
616.6353, 2998.245
617.1174, 2999.888
617.5995, 3003.926
618.0817, 3010.433
618.5638, 3018.305
619.0459, 3030.308
619.5280, 3040.413
620.0101, 3047.521
620.4922, 3050.800
620.9744, 3045.687
621.4565, 3033.570
621.9386, 3026.844
622.4207, 3039.840
622.9028, 3065.786
623.3849, 3076.010
623.8671, 3067.292
624.3492, 3061.818
624.8313, 3067.721
625.3134, 3078.020
625.7955, 3084.012
626.2776, 3086.006
626.7598, 3090.556
627.2419, 3099.535
627.7240, 3110.191
628.2061, 3125.457
628.6882, 3139.719
629.1703, 3139.839
629.6525, 3125.627
630.1346, 3117.811
630.6167, 3141.459
631.0988, 3188.221
631.5809, 3207.190
632.0630, 3188.471
632.5452, 3181.679
633.0273, 3210.574
633.5094, 3249.341
633.9915, 3268.148
634.4736, 3268.132
634.9557, 3270.656
635.4379, 3283.011
635.9200, 3295.587
636.4021, 3299.645
636.8842, 3301.619
637.3663, 3314.441
637.8484, 3339.688
638.3306, 3363.454
638.8127, 3369.907
639.2948, 3363.128
639.7769, 3369.701
640.2590, 3394.701
640.7411, 3414.577
641.2233, 3416.544
641.7054, 3416.480
642.1875, 3436.099
642.6696, 3472.942
643.1517, 3494.538
643.6339, 3477.297
644.1160, 3461.238
644.5981, 3469.374
645.0802, 3492.490
645.5623, 3519.835
646.0444, 3547.061
646.5266, 3567.922
647.0087, 3575.536
647.4908, 3572.470
647.9729, 3569.429
648.4550, 3564.885
648.9371, 3566.728
649.4193, 3578.311
649.9014, 3595.629
650.3835, 3619.314
650.8656, 3647.343
651.3477, 3664.820
651.8298, 3663.880
652.3120, 3658.084
652.7941, 3644.781
653.2762, 3634.811
653.7583, 3647.010
654.2404, 3681.004
654.7225, 3715.779
655.2047, 3733.989
655.6868, 3740.546
656.1689, 3751.755
656.6510, 3768.809
657.1331, 3782.547
