##NAMES=Piemontite
##RRUFFID=R061119
##IDEAL CHEMISTRY=Ca_2_Mn^3+^Al_2_(Si_2_O_7_)(SiO_4_)O(OH)
##LOCALITY=Muramatsu mine, Kinkai, Nagasaki, Japan
##OWNER=RRUFF
##SOURCE=Michael Scott
##DESCRIPTION=Red elongated prismatic crystals
##STATUS=The identification of this mineral is confirmed by single-crystal X-ray diffraction and chemical analysis.
##URL=rruff.info/R061119
##MEASURED CHEMISTRY=(Ca_1.96_Mn^2+^_0.04_)_Σ=2_(Mn^3+^_0.64_Fe^3+^_0.36_)_Σ=1_Al_2.00_(Si_2.00_O_7_)(Si_1.00_O_4_)O(OH); OH assumed by stoichiometry; Mn^2+^ and  Mn^3+^ splitted by charge balance
202.0782, 1068.342
202.5603, 1053.667
203.0424, 1047.624
203.5246, 1056.684
204.0067, 1078.003
204.4888, 1085.849
204.9709, 1077.194
205.4530, 1061.775
205.9352, 1048.259
206.4173, 1036.017
206.8994, 1028.541
207.3815, 1028.677
207.8636, 1036.149
208.3457, 1038.031
208.8279, 1032.389
209.3100, 1024.130
209.7921, 1019.468
210.2742, 1019.538
210.7563, 1019.485
211.2384, 1017.111
211.7205, 1011.906
212.2027, 1012.055
212.6848, 1021.352
213.1669, 1031.697
213.6490, 1029.153
214.1311, 1007.112
214.6132, 988.9933
215.0954, 983.9335
215.5775, 994.8798
216.0596, 1001.353
216.5417, 1001.239
217.0238, 998.4218
217.5059, 1000.322
217.9881, 1010.765
218.4702, 1018.005
218.9523, 1016.935
219.4344, 1004.816
219.9165, 994.4072
220.3986, 984.2592
220.8808, 976.6247
221.3629, 977.2469
221.8450, 992.0166
222.3271, 1004.598
222.8092, 1007.289
223.2913, 994.0508
223.7735, 987.0573
224.2556, 986.8537
224.7377, 992.6631
225.2198, 1003.636
225.7019, 1024.667
226.1840, 1043.169
226.6662, 1053.364
227.1483, 1051.969
227.6304, 1049.358
228.1125, 1044.385
228.5946, 1038.495
229.0767, 1035.622
229.5588, 1035.509
230.0410, 1038.808
230.5231, 1047.151
231.0052, 1066.605
231.4873, 1077.160
231.9694, 1073.527
232.4515, 1060.769
232.9337, 1057.876
233.4158, 1068.933
233.8979, 1084.213
234.3800, 1100.432
234.8621, 1126.172
235.3442, 1133.642
235.8264, 1112.073
236.3085, 1070.450
236.7906, 1048.146
237.2727, 1054.933
237.7548, 1068.274
238.2369, 1075.871
238.7191, 1076.042
239.2012, 1073.235
239.6833, 1065.554
240.1654, 1054.622
240.6475, 1049.956
241.1296, 1056.446
241.6118, 1062.938
242.0939, 1061.704
242.5760, 1046.083
243.0581, 1036.694
243.5402, 1039.207
244.0223, 1050.477
244.5045, 1050.675
244.9866, 1033.643
245.4687, 1013.402
245.9508, 999.2500
246.4329, 994.9012
246.9150, 988.8887
247.3972, 978.7217
247.8793, 965.6094
248.3614, 956.8597
248.8435, 952.9485
249.3256, 952.8337
249.8077, 956.6615
250.2898, 968.0046
250.7720, 975.3519
251.2541, 975.9171
251.7362, 970.7936
252.2183, 968.8083
252.7004, 971.5165
253.1825, 975.2054
253.6647, 977.3481
254.1468, 977.6877
254.6289, 976.9790
255.1110, 975.4053
255.5931, 972.8486
256.0753, 967.9012
256.5574, 957.2303
257.0395, 948.9186
257.5216, 950.2326
258.0037, 966.4337
258.4858, 979.0093
258.9679, 985.8654
259.4500, 987.2421
259.9322, 983.1907
260.4143, 970.1332
260.8964, 957.5087
261.3785, 953.3483
261.8606, 961.3194
262.3427, 966.9619
262.8249, 967.4874
263.3070, 963.9604
263.7891, 964.1154
264.2712, 970.5454
264.7533, 975.8896
265.2354, 972.8496
265.7176, 957.0349
266.1997, 948.0823
266.6818, 950.8586
267.1639, 962.8202
267.6460, 968.4440
268.1281, 964.7209
268.6103, 961.1208
269.0924, 967.0441
269.5745, 986.8643
270.0566, 996.5952
270.5387, 990.2158
271.0208, 971.5410
271.5030, 957.9599
271.9851, 949.7129
272.4672, 945.9161
272.9493, 947.5580
273.4314, 955.9604
273.9135, 961.2488
274.3957, 961.7659
274.8778, 958.2791
275.3599, 953.2697
275.8420, 946.4001
276.3241, 939.1837
276.8062, 932.6782
277.2884, 926.9430
277.7705, 921.2205
278.2526, 915.0414
278.7347, 909.0793
279.2168, 906.0130
279.6989, 906.4757
280.1811, 906.7219
280.6632, 902.2297
281.1453, 892.8430
281.6274, 890.9922
282.1095, 901.8480
282.5916, 917.5768
283.0738, 914.3616
283.5559, 889.6977
284.0380, 868.0682
284.5201, 869.5264
285.0022, 892.2515
285.4843, 911.0013
285.9665, 923.2740
286.4486, 929.4016
286.9307, 925.4634
287.4128, 911.0471
287.8949, 889.8150
288.3770, 910.8059
288.8592, 924.6635
289.3413, 931.7698
289.8234, 911.9064
290.3055, 926.8688
290.7876, 927.8745
291.2697, 928.3081
291.7519, 948.1726
292.2340, 932.2322
292.7161, 951.7878
293.1982, 957.1742
293.6803, 963.3723
294.1624, 963.8054
294.6446, 960.5182
295.1267, 954.5493
295.6088, 952.4630
296.0909, 961.7348
296.5730, 977.3066
297.0551, 987.0497
297.5372, 988.8463
298.0193, 988.8862
298.5015, 997.1666
298.9836, 1010.795
299.4657, 1019.307
299.9478, 1010.614
300.4299, 995.0842
300.9120, 989.4596
301.3942, 995.5350
301.8763, 1007.413
302.3584, 1022.321
302.8405, 1038.792
303.3226, 1052.711
303.8047, 1063.119
304.2869, 1069.557
304.7690, 1069.798
305.2511, 1063.130
305.7332, 1057.729
306.2153, 1063.878
306.6974, 1075.561
307.1796, 1082.093
307.6617, 1072.698
308.1438, 1059.994
308.6259, 1054.758
309.1080, 1057.467
309.5901, 1062.275
310.0723, 1067.016
310.5544, 1071.179
311.0365, 1074.099
311.5186, 1072.637
312.0007, 1072.135
312.4828, 1080.552
312.9650, 1096.887
313.4471, 1103.593
313.9292, 1080.497
314.4113, 1047.400
314.8934, 1024.099
315.3755, 1023.803
315.8577, 1028.221
316.3398, 1030.985
316.8219, 1032.096
317.3040, 1031.795
317.7861, 1033.746
318.2682, 1032.347
318.7504, 1023.259
319.2325, 992.8671
319.7146, 968.4441
320.1967, 960.3910
320.6788, 965.5887
321.1609, 971.3724
321.6431, 977.8303
322.1252, 981.8220
322.6073, 981.5448
323.0894, 975.1786
323.5715, 966.7280
324.0536, 953.8733
324.5358, 939.0053
325.0179, 928.8276
325.5000, 928.9883
325.9821, 930.0363
326.4642, 928.0560
326.9464, 920.7743
327.4285, 914.0646
327.9106, 909.7520
328.3927, 905.9296
328.8748, 898.4576
329.3569, 882.3952
329.8391, 868.1581
330.3212, 859.1295
330.8033, 856.7701
331.2854, 855.3642
331.7675, 855.2243
332.2496, 855.8985
332.7318, 856.7823
333.2139, 858.1952
333.6960, 859.3011
334.1781, 859.8680
334.6602, 859.8525
335.1423, 859.5221
335.6244, 858.5854
336.1065, 857.6401
336.5887, 857.1930
337.0708, 856.9179
337.5529, 858.2789
338.0350, 862.6341
338.5171, 869.5249
338.9992, 872.0192
339.4814, 868.9346
339.9635, 851.7111
340.4456, 873.5900
340.9277, 888.5054
341.4098, 896.8308
341.8919, 878.8302
342.3741, 894.8257
342.8562, 897.1962
343.3383, 899.0079
343.8204, 919.7870
344.3025, 905.6151
344.7846, 926.0934
345.2668, 932.7412
345.7489, 945.7179
346.2310, 944.9868
346.7131, 956.1856
347.1952, 960.9747
347.6773, 963.7520
348.1595, 969.0905
348.6416, 975.9168
349.1237, 980.7902
349.6058, 982.4905
350.0879, 984.9085
350.5700, 993.4551
351.0522, 1007.118
351.5343, 1022.039
352.0164, 1037.769
352.4985, 1053.000
352.9806, 1065.383
353.4627, 1074.565
353.9449, 1083.097
354.4270, 1094.054
354.9091, 1105.838
355.3912, 1115.696
355.8733, 1118.878
356.3554, 1108.387
356.8376, 1132.668
357.3197, 1149.814
357.8018, 1160.209
358.2839, 1143.635
358.7660, 1161.886
359.2481, 1166.181
359.7303, 1169.905
360.2124, 1193.058
360.6945, 1180.406
361.1766, 1203.250
361.6587, 1211.925
362.1408, 1227.086
362.6230, 1244.327
363.1051, 1258.181
363.5872, 1245.508
364.0693, 1235.070
364.5514, 1237.095
365.0335, 1246.674
365.5157, 1250.739
365.9978, 1241.821
366.4799, 1231.199
366.9620, 1223.396
367.4441, 1219.825
367.9262, 1216.930
368.4084, 1215.632
368.8905, 1214.707
369.3726, 1212.395
369.8547, 1210.900
370.3368, 1205.338
370.8189, 1192.855
371.3011, 1171.442
371.7831, 1155.699
372.2653, 1148.545
372.7474, 1144.244
373.2295, 1136.719
373.7116, 1125.405
374.1937, 1112.177
374.6758, 1095.620
375.1580, 1076.842
375.6401, 1065.281
376.1222, 1062.417
376.6043, 1063.312
377.0864, 1065.365
377.5685, 1068.986
378.0507, 1068.909
378.5328, 1063.124
379.0149, 1054.496
379.4970, 1050.135
379.9791, 1050.235
380.4612, 1052.478
380.9434, 1057.175
381.4255, 1063.424
381.9076, 1065.055
382.3897, 1060.645
382.8718, 1054.660
383.3539, 1053.298
383.8361, 1055.927
384.3182, 1059.464
384.8003, 1063.034
385.2824, 1066.347
385.7645, 1068.961
386.2466, 1070.888
386.7288, 1072.017
387.2109, 1072.592
387.6930, 1072.276
388.1751, 1070.408
388.6572, 1065.449
389.1393, 1059.953
389.6215, 1058.318
390.1036, 1059.370
390.5857, 1055.522
391.0678, 1037.480
391.5499, 1014.956
392.0320, 996.4951
392.5142, 983.9159
392.9963, 976.3636
393.4784, 977.9355
393.9605, 984.5762
394.4426, 986.0568
394.9247, 970.8998
395.4069, 956.2975
395.8890, 953.0220
396.3711, 970.0576
396.8532, 975.1156
397.3353, 948.1453
397.8174, 911.3001
398.2996, 892.9711
398.7817, 920.3105
399.2638, 940.4604
399.7459, 938.5269
400.2280, 911.8146
400.7101, 899.6971
401.1923, 910.7173
401.6744, 928.1912
402.1565, 939.2637
402.6386, 941.2292
403.1207, 942.5868
403.6028, 942.6793
404.0850, 943.0631
404.5671, 951.7117
405.0492, 972.3591
405.5313, 990.9201
406.0134, 997.4229
406.4955, 990.6126
406.9777, 988.1172
407.4598, 990.7660
407.9419, 997.8921
408.4240, 1010.311
408.9061, 1027.815
409.3882, 1043.265
409.8703, 1052.071
410.3524, 1056.343
410.8346, 1063.626
411.3167, 1074.124
411.7988, 1085.229
412.2809, 1092.621
412.7630, 1098.365
413.2451, 1107.757
413.7273, 1123.745
414.2094, 1142.537
414.6915, 1160.209
415.1736, 1176.761
415.6557, 1193.067
416.1378, 1213.242
416.6200, 1231.498
417.1021, 1239.809
417.5842, 1232.639
418.0663, 1226.918
418.5484, 1234.651
419.0305, 1250.570
419.5127, 1264.859
419.9948, 1271.339
420.4769, 1277.558
420.9590, 1288.983
421.4411, 1307.259
421.9232, 1319.361
422.4054, 1316.519
422.8875, 1309.061
423.3696, 1306.315
423.8517, 1317.298
424.3338, 1324.066
424.8159, 1322.624
425.2981, 1314.274
425.7802, 1307.669
426.2623, 1299.876
426.7444, 1297.074
427.2265, 1304.080
427.7086, 1329.789
428.1908, 1342.668
428.6729, 1337.323
429.1550, 1323.674
429.6371, 1320.436
430.1192, 1330.034
430.6013, 1340.952
431.0835, 1349.156
431.5656, 1354.919
432.0477, 1362.179
432.5298, 1371.642
433.0119, 1379.468
433.4940, 1378.683
433.9762, 1371.111
434.4583, 1370.602
434.9404, 1383.633
435.4225, 1401.518
435.9046, 1408.633
436.3867, 1405.982
436.8689, 1401.161
437.3510, 1400.355
437.8331, 1400.018
438.3152, 1394.540
438.7973, 1382.608
439.2794, 1368.170
439.7616, 1352.223
440.2437, 1336.274
440.7258, 1322.673
441.2079, 1310.648
441.6900, 1302.704
442.1721, 1303.448
442.6543, 1312.540
443.1364, 1316.803
443.6185, 1304.560
444.1006, 1289.285
444.5827, 1281.415
445.0648, 1292.776
445.5470, 1299.611
446.0291, 1293.056
446.5112, 1278.828
446.9933, 1275.321
447.4754, 1295.084
447.9575, 1312.597
448.4396, 1317.579
448.9218, 1304.316
449.4039, 1303.083
449.8860, 1320.646
450.3681, 1343.403
450.8502, 1354.623
451.3323, 1350.682
451.8145, 1347.865
452.2966, 1349.332
452.7787, 1354.674
453.2608, 1362.094
453.7429, 1371.664
454.2250, 1383.057
454.7072, 1397.762
455.1893, 1414.923
455.6714, 1428.574
456.1535, 1437.929
456.6356, 1444.013
457.1177, 1446.565
457.5999, 1446.605
458.0820, 1448.059
458.5641, 1454.237
459.0462, 1462.206
459.5283, 1467.157
460.0104, 1469.171
460.4926, 1473.512
460.9747, 1489.238
461.4568, 1507.016
461.9389, 1515.759
462.4210, 1505.772
462.9031, 1495.972
463.3853, 1498.318
463.8674, 1507.815
464.3495, 1511.048
464.8316, 1498.962
465.3137, 1484.119
465.7958, 1471.688
466.2780, 1463.042
466.7601, 1453.607
467.2422, 1441.704
467.7243, 1429.511
468.2064, 1419.808
468.6885, 1416.818
469.1707, 1408.999
469.6528, 1393.710
470.1349, 1372.085
470.6170, 1348.767
471.0991, 1321.197
471.5812, 1298.216
472.0634, 1288.095
472.5455, 1291.707
473.0276, 1287.239
473.5097, 1272.046
473.9918, 1253.339
474.4739, 1242.532
474.9561, 1238.757
475.4382, 1233.709
475.9203, 1223.731
476.4024, 1210.816
476.8845, 1198.216
477.3666, 1185.973
477.8488, 1174.790
478.3309, 1165.089
478.8130, 1156.761
479.2951, 1149.972
479.7772, 1145.244
480.2593, 1140.774
480.7415, 1135.546
481.2236, 1129.733
481.7057, 1123.659
482.1878, 1116.906
482.6699, 1110.381
483.1520, 1103.982
483.6342, 1097.672
484.1163, 1093.762
484.5984, 1093.278
485.0805, 1095.017
485.5626, 1098.286
486.0447, 1107.951
486.5268, 1111.806
487.0089, 1104.235
487.4911, 1091.774
487.9732, 1091.932
488.4553, 1111.756
488.9374, 1128.750
489.4195, 1133.018
489.9016, 1124.169
490.3838, 1122.828
490.8659, 1130.550
491.3480, 1140.733
491.8301, 1147.101
492.3122, 1149.889
492.7943, 1150.738
493.2765, 1149.065
493.7586, 1147.066
494.2407, 1148.318
494.7228, 1152.569
495.2049, 1158.428
495.6870, 1167.421
496.1692, 1176.504
496.6513, 1181.361
497.1334, 1181.596
497.6155, 1180.613
498.0976, 1182.126
498.5797, 1183.158
499.0619, 1180.262
499.5440, 1165.865
500.0261, 1154.360
500.5082, 1152.101
500.9903, 1156.861
501.4724, 1160.596
501.9546, 1161.335
502.4367, 1161.169
502.9188, 1161.792
503.4009, 1165.220
503.8830, 1161.407
504.3651, 1144.808
504.8473, 1125.969
505.3294, 1116.870
505.8115, 1122.262
506.2936, 1122.494
506.7757, 1112.269
507.2578, 1095.794
507.7400, 1088.277
508.2221, 1090.872
508.7042, 1091.503
509.1863, 1080.112
509.6684, 1060.378
510.1505, 1048.757
510.6327, 1046.634
511.1148, 1046.530
511.5969, 1040.110
512.0790, 1029.954
512.5611, 1021.431
513.0432, 1014.928
513.5253, 1012.300
514.0074, 1020.492
514.4896, 1035.191
514.9717, 1041.463
515.4538, 1021.792
515.9359, 999.5842
516.4180, 990.2785
516.9001, 998.7480
517.3823, 1004.732
517.8644, 1002.975
518.3465, 997.1491
518.8286, 990.6447
519.3107, 978.2123
519.7928, 973.0665
520.2750, 980.3718
520.7571, 995.9672
521.2392, 1003.693
521.7213, 1001.336
522.2034, 996.3500
522.6855, 991.7984
523.1677, 987.7009
523.6498, 982.6453
524.1319, 976.3829
524.6140, 969.8666
525.0961, 963.3228
525.5782, 957.1606
526.0604, 953.8400
526.5425, 954.3649
527.0246, 957.3596
527.5067, 963.8849
527.9888, 972.1085
528.4709, 975.2264
528.9531, 964.6675
529.4352, 950.6710
529.9173, 942.9866
530.3994, 942.6792
530.8815, 940.8256
531.3636, 931.2079
531.8458, 919.2940
532.3279, 909.6253
532.8100, 901.7673
533.2921, 897.9806
533.7742, 899.5770
534.2563, 905.5499
534.7385, 913.5419
535.2206, 927.3239
535.7027, 937.7393
536.1848, 941.5709
536.6669, 938.7346
537.1490, 934.3604
537.6312, 926.7537
538.1133, 921.7258
538.5954, 926.9236
539.0775, 941.8695
539.5596, 949.8083
540.0417, 947.2746
540.5239, 940.6062
541.0060, 938.2119
541.4881, 939.7979
541.9702, 944.1355
542.4523, 952.0316
542.9344, 961.5804
543.4166, 971.2211
543.8987, 980.7684
544.3808, 989.2601
544.8629, 994.7322
545.3450, 999.5916
545.8271, 1005.483
546.3093, 1012.055
546.7914, 1021.266
547.2735, 1039.593
547.7556, 1059.118
548.2377, 1068.920
548.7198, 1056.275
549.2020, 1048.422
549.6841, 1049.646
550.1662, 1059.110
550.6483, 1072.036
551.1304, 1090.084
551.6125, 1107.981
552.0947, 1123.718
552.5768, 1137.396
553.0589, 1145.752
553.5410, 1147.619
554.0231, 1148.829
554.5052, 1158.137
554.9874, 1173.082
555.4695, 1182.670
555.9516, 1179.576
556.4337, 1177.101
556.9158, 1197.255
557.3979, 1232.742
557.8801, 1261.302
558.3622, 1263.364
558.8443, 1259.797
559.3264, 1267.009
559.8085, 1286.465
560.2906, 1300.587
560.7728, 1300.402
561.2549, 1294.522
561.7370, 1289.252
562.2191, 1288.486
562.7012, 1283.924
563.1833, 1275.732
563.6655, 1263.634
564.1476, 1245.895
564.6297, 1219.070
565.1118, 1195.519
565.5939, 1179.620
566.0760, 1169.525
566.5582, 1153.535
567.0403, 1130.443
567.5224, 1111.668
568.0045, 1107.882
568.4866, 1114.760
568.9688, 1119.404
569.4509, 1120.839
569.9330, 1119.257
570.4151, 1112.378
570.8972, 1103.178
571.3793, 1096.415
571.8615, 1094.490
572.3436, 1094.598
572.8257, 1093.414
573.3078, 1092.833
573.7899, 1098.357
574.2720, 1122.970
574.7542, 1143.614
575.2363, 1147.948
575.7184, 1132.350
576.2005, 1125.889
576.6826, 1132.411
577.1647, 1143.886
577.6469, 1155.708
578.1290, 1168.650
578.6111, 1177.488
579.0932, 1180.990
579.5753, 1181.859
580.0574, 1184.350
580.5396, 1188.373
581.0216, 1192.952
581.5037, 1197.891
581.9858, 1202.990
582.4680, 1208.361
582.9501, 1213.811
583.4322, 1218.417
583.9143, 1223.518
584.3964, 1226.301
584.8785, 1222.079
585.3607, 1208.898
585.8428, 1199.789
586.3249, 1204.270
586.8070, 1213.255
587.2891, 1218.385
587.7712, 1215.522
588.2534, 1212.286
588.7355, 1211.301
589.2176, 1209.783
589.6997, 1185.408
590.1818, 1196.962
590.6639, 1201.384
591.1461, 1199.053
591.6282, 1169.754
592.1103, 1175.280
592.5924, 1166.850
593.0745, 1157.847
593.5566, 1168.275
594.0388, 1142.897
594.5209, 1140.941
595.0030, 1135.064
595.4851, 1130.038
595.9672, 1114.185
596.4493, 1093.925
596.9315, 1079.312
597.4136, 1080.056
597.8957, 1079.393
598.3778, 1065.156
598.8599, 1043.557
599.3420, 1030.043
599.8242, 1037.547
600.3063, 1044.341
600.7884, 1043.385
601.2705, 1034.621
601.7526, 1025.661
602.2347, 1013.431
602.7169, 1006.040
603.1990, 1012.550
603.6811, 1035.389
604.1632, 1043.154
604.6453, 1031.818
605.1274, 1013.735
605.6096, 1005.000
606.0917, 1003.267
606.5738, 998.4340
607.0559, 982.8131
607.5380, 969.7209
608.0201, 981.2869
608.5023, 1008.593
608.9844, 1025.824
609.4665, 1009.889
609.9486, 989.2537
610.4307, 980.0331
610.9128, 983.0854
611.3950, 987.4886
611.8771, 993.1920
612.3592, 997.9465
612.8413, 1000.525
613.3234, 1000.595
613.8055, 999.5475
614.2877, 997.8951
614.7698, 994.5681
615.2519, 985.8076
615.7340, 970.7253
616.2161, 964.5731
616.6982, 973.6869
617.1804, 988.5275
617.6625, 989.3355
618.1446, 978.8832
618.6267, 970.8047
619.1088, 976.2790
619.5909, 985.0775
620.0731, 984.7188
620.5552, 975.9855
621.0373, 969.3752
621.5194, 971.4366
622.0015, 976.4277
622.4836, 981.0756
622.9658, 985.7621
623.4479, 987.5190
623.9300, 983.4136
624.4121, 977.8921
624.8942, 975.0822
625.3763, 975.7242
625.8585, 976.8719
626.3406, 977.8101
626.8227, 979.5255
627.3048, 986.2564
627.7869, 998.0347
628.2690, 1004.255
628.7512, 997.3948
629.2333, 984.3575
629.7154, 979.0233
630.1975, 980.4413
630.6796, 981.9550
631.1617, 978.3265
631.6439, 973.4641
632.1260, 971.4868
632.6081, 973.3578
633.0902, 973.5529
633.5723, 966.7000
634.0544, 959.2695
634.5366, 956.5396
635.0187, 963.7473
635.5008, 968.7500
635.9829, 971.0144
636.4650, 971.2247
636.9471, 969.8536
637.4293, 966.0597
637.9114, 964.7086
638.3935, 968.2330
638.8756, 973.8447
639.3577, 973.5918
639.8398, 967.9017
640.3220, 961.9362
640.8041, 958.9710
641.2862, 957.2767
641.7683, 954.5458
642.2504, 950.7740
642.7325, 947.0863
643.2147, 942.8751
643.6968, 939.8651
644.1789, 940.3395
644.6610, 947.5160
645.1431, 950.2921
645.6252, 940.8979
646.1074, 929.9013
646.5895, 928.7920
647.0716, 947.0364
647.5537, 950.0273
648.0358, 927.3455
648.5179, 894.5249
649.0001, 884.7906
649.4822, 898.0812
649.9643, 913.0341
650.4464, 923.4547
650.9285, 928.9232
651.4106, 926.4908
651.8928, 917.4481
652.3749, 908.8682
652.8570, 906.3892
653.3391, 905.0800
653.8212, 900.2230
654.3033, 891.2541
654.7855, 884.0483
655.2676, 878.7476
655.7497, 877.2078
656.2318, 881.9360
656.7139, 901.9267
657.1960, 907.2114
657.6781, 890.4806
658.1602, 866.9956
658.6423, 856.1094
659.1245, 858.8232
659.6066, 862.4405
660.0887, 864.3751
660.5708, 866.2861
661.0529, 873.0943
661.5350, 882.9926
662.0172, 888.7727
662.4993, 884.0224
662.9814, 875.7550
663.4635, 869.4712
663.9456, 865.0656
664.4277, 862.1083
664.9099, 859.9324
665.3920, 859.5638
665.8741, 862.6844
666.3562, 870.5013
666.8383, 873.8516
667.3204, 869.6793
667.8026, 864.8255
668.2847, 865.3541
668.7668, 873.2077
669.2489, 871.2174
669.7310, 856.1976
670.2131, 839.2890
670.6953, 835.4396
671.1774, 841.4183
671.6595, 845.2816
672.1416, 844.2104
672.6237, 840.0837
673.1058, 828.8635
673.5880, 816.5068
674.0701, 814.6650
674.5522, 844.2233
675.0343, 868.1279
675.5164, 867.5385
675.9985, 847.5311
676.4807, 836.1859
676.9628, 841.2111
677.4449, 845.7057
677.9270, 842.5544
678.4091, 832.3545
678.8912, 831.2335
679.3734, 840.9599
679.8555, 851.1172
680.3376, 854.4251
680.8197, 852.0750
681.3018, 847.3658
681.7839, 840.4052
682.2661, 833.3445
682.7482, 823.0308
683.2303, 815.9241
683.7124, 822.1190
684.1945, 853.5486
684.6766, 877.4218
685.1588, 877.6926
685.6409, 865.1717
686.1230, 854.5562
686.6051, 847.0344
687.0872, 841.0510
687.5693, 837.1885
688.0515, 834.3221
688.5336, 828.2090
689.0157, 817.9445
689.4978, 813.8390
689.9799, 823.7112
690.4620, 839.6475
690.9442, 841.2897
691.4263, 830.8685
691.9084, 821.1951
692.3905, 822.8443
692.8726, 826.8436
693.3547, 825.0468
693.8369, 817.0226
694.3190, 808.7669
694.8011, 794.6048
695.2832, 786.8179
695.7653, 795.9705
696.2474, 831.4883
696.7296, 850.0400
697.2117, 847.4238
697.6938, 834.2648
698.1759, 815.6934
698.6580, 791.7375
699.1401, 785.2587
699.6223, 802.2676
700.1044, 825.1945
700.5865, 832.6818
701.0686, 828.6786
701.5507, 821.9580
702.0328, 813.7909
702.5150, 806.2261
702.9971, 799.7910
703.4792, 795.0865
703.9613, 793.3466
704.4434, 795.3121
704.9255, 800.0831
705.4077, 811.5497
705.8898, 826.0119
706.3719, 826.1572
706.8540, 794.2915
707.3361, 811.3681
707.8182, 821.3106
708.3004, 824.5027
708.7825, 800.7252
709.2646, 811.7731
709.7467, 808.8646
710.2288, 805.3839
710.7109, 821.3333
711.1931, 801.4786
711.6752, 817.1198
712.1573, 814.7472
712.6394, 813.0537
713.1215, 809.9626
713.6036, 806.2936
714.0858, 801.9245
714.5679, 797.1370
715.0500, 789.2687
715.5321, 783.8598
716.0142, 788.7935
716.4963, 806.1458
716.9785, 815.4869
717.4606, 813.1272
717.9427, 805.4385
718.4248, 798.6537
718.9069, 793.7488
719.3890, 794.3692
719.8712, 804.6699
720.3533, 815.9810
720.8354, 822.5431
721.3175, 825.0416
721.7996, 825.1314
722.2817, 820.4905
722.7639, 816.6072
723.2460, 816.7695
723.7281, 819.0132
724.2102, 814.8325
724.6923, 799.7443
725.1744, 789.8884
725.6566, 792.8973
726.1387, 805.4882
726.6208, 812.8233
727.1029, 815.1030
727.5850, 817.2042
728.0671, 823.9221
728.5493, 831.5676
729.0314, 835.9379
729.5135, 836.8035
729.9956, 833.7212
730.4777, 821.5461
730.9598, 808.9501
731.4420, 801.5011
731.9241, 800.8827
732.4062, 802.4406
732.8882, 807.4094
733.3704, 812.8875
733.8525, 816.4044
734.3346, 817.8091
734.8167, 813.2543
735.2988, 828.6332
735.7809, 836.8784
736.2631, 838.3725
736.7452, 812.8975
737.2273, 822.2480
737.7094, 817.6420
738.1915, 812.4636
738.6736, 826.7158
739.1558, 805.1632
739.6379, 819.1072
740.1200, 815.1888
740.6021, 818.1298
741.0842, 814.0707
741.5663, 807.5347
742.0485, 808.0588
742.5306, 817.4338
743.0127, 825.9066
743.4948, 831.2943
743.9769, 833.7805
744.4590, 832.3943
744.9412, 827.9272
745.4233, 824.1600
745.9054, 805.4951
746.3875, 821.6850
746.8696, 830.7410
747.3517, 833.0463
747.8339, 808.3821
748.3160, 818.5434
748.7981, 814.7482
749.2802, 810.3807
749.7623, 825.4435
750.2444, 804.7020
750.7266, 819.4567
751.2087, 820.0419
751.6908, 827.1121
752.1729, 820.1396
752.6550, 817.5045
753.1371, 812.2416
753.6193, 807.4908
754.1014, 811.7084
754.5835, 820.2581
755.0656, 828.5845
755.5477, 836.4381
756.0298, 841.8593
756.5120, 843.1744
756.9941, 842.5390
757.4762, 841.1237
757.9583, 838.2547
758.4404, 837.2793
758.9225, 839.4965
759.4047, 841.3433
759.8868, 838.5392
760.3689, 831.5547
760.8510, 826.7640
761.3331, 825.1748
761.8152, 823.9630
762.2974, 818.7659
762.7795, 812.4265
763.2616, 809.1204
763.7437, 809.8236
764.2258, 814.1339
764.7079, 824.9004
765.1901, 838.0339
765.6722, 848.2395
766.1543, 856.6647
766.6364, 859.4540
767.1185, 854.7967
767.6006, 846.0709
768.0828, 837.0657
768.5649, 827.9943
769.0470, 824.2671
769.5291, 829.0331
770.0112, 836.3875
770.4933, 839.1537
770.9755, 838.4290
771.4576, 836.6993
771.9397, 832.9098
772.4218, 830.5089
772.9039, 831.7824
773.3860, 835.5380
773.8682, 838.1479
774.3503, 837.9813
774.8324, 839.7161
775.3145, 846.0600
775.7966, 854.2726
776.2787, 853.1311
776.7609, 842.8746
777.2430, 835.9881
777.7251, 841.6144
778.2072, 851.7935
778.6893, 855.5941
779.1714, 854.0107
779.6536, 850.6059
780.1357, 843.9755
780.6178, 838.8376
781.0999, 839.4259
781.5820, 845.1635
782.0641, 845.1428
782.5463, 834.5488
783.0284, 826.6652
783.5105, 827.1073
783.9926, 834.9539
784.4747, 845.7302
784.9568, 859.4349
785.4390, 867.4818
785.9211, 857.6926
786.4032, 842.1768
786.8853, 837.6492
787.3674, 844.0920
787.8495, 849.9822
788.3317, 846.7480
788.8138, 844.0762
789.2959, 848.9474
789.7780, 862.8716
790.2601, 871.9748
790.7422, 876.1909
791.2244, 875.8572
791.7065, 869.0101
792.1886, 856.6022
792.6707, 848.5155
793.1528, 844.8156
793.6349, 845.5440
794.1171, 856.5057
794.5992, 868.7764
795.0813, 869.8226
795.5634, 856.9050
796.0455, 846.6340
796.5276, 846.3695
797.0098, 849.9106
797.4919, 853.4992
797.9740, 857.4815
798.4561, 859.7169
798.9382, 860.3965
799.4203, 858.7988
799.9025, 851.5560
800.3846, 840.8431
800.8667, 838.6471
801.3488, 846.6680
801.8309, 855.8529
802.3130, 858.2300
802.7952, 858.1161
803.2773, 861.0707
803.7594, 870.8035
804.2415, 875.2750
804.7236, 865.6382
805.2057, 854.2968
805.6879, 850.5683
806.1700, 856.4155
806.6521, 861.9639
807.1342, 867.4253
807.6163, 870.7046
808.0984, 867.8643
808.5805, 860.9792
809.0626, 854.5864
809.5447, 848.2444
810.0269, 848.4230
810.5090, 866.4884
810.9911, 889.9647
811.4732, 906.0613
811.9553, 909.6823
812.4374, 910.3092
812.9196, 906.9832
813.4017, 902.6567
813.8838, 899.6614
814.3659, 897.8677
814.8480, 900.0374
815.3301, 907.0771
815.8123, 915.5070
816.2944, 922.0363
816.7765, 926.7368
817.2586, 929.3831
817.7407, 928.8867
818.2228, 929.2357
818.7050, 931.8439
819.1871, 936.4977
819.6692, 943.2853
820.1513, 954.1661
820.6334, 963.1275
821.1155, 970.4452
821.5977, 975.0059
822.0798, 973.3481
822.5619, 966.6249
823.0440, 946.7186
823.5261, 964.6203
824.0082, 975.3878
824.4904, 979.4053
824.9725, 956.4526
825.4546, 968.3257
825.9367, 966.2423
826.4188, 963.5865
826.9009, 980.3610
827.3831, 961.3315
827.8652, 977.7978
828.3473, 980.0948
828.8294, 988.8768
829.3115, 983.6160
829.7936, 982.6925
830.2758, 995.8167
830.7579, 1001.162
831.2400, 994.2850
831.7221, 997.8460
832.2042, 1005.049
832.6863, 1011.328
833.1685, 1016.242
833.6506, 1019.297
834.1327, 1017.277
834.6148, 1018.249
835.0969, 1023.818
835.5790, 1030.592
836.0612, 1034.574
836.5433, 1035.837
837.0254, 1035.791
837.5075, 1034.586
837.9896, 1032.439
838.4717, 1027.410
838.9539, 1022.368
839.4360, 1022.231
839.9181, 1030.682
840.4002, 1037.831
840.8823, 1039.740
841.3644, 1039.353
841.8466, 1039.384
842.3287, 1039.371
842.8108, 1041.414
843.2929, 1045.956
843.7750, 1051.668
844.2571, 1057.940
844.7393, 1064.160
845.2214, 1068.632
845.7035, 1071.129
846.1856, 1071.360
846.6677, 1065.917
847.1498, 1059.760
847.6320, 1058.048
848.1141, 1063.532
848.5962, 1069.834
849.0783, 1078.657
849.5604, 1085.750
850.0425, 1086.124
850.5247, 1079.870
851.0068, 1076.869
851.4889, 1078.148
851.9710, 1080.161
852.4531, 1078.786
852.9352, 1076.398
853.4174, 1077.525
853.8995, 1084.695
854.3816, 1085.929
854.8637, 1066.146
855.3458, 1047.854
855.8279, 1048.153
856.3101, 1072.862
856.7922, 1087.271
857.2743, 1090.074
857.7564, 1087.526
858.2385, 1084.315
858.7206, 1080.021
859.2028, 1071.430
859.6849, 1058.164
860.1670, 1050.292
860.6491, 1059.766
861.1312, 1072.717
861.6133, 1079.637
862.0955, 1078.572
862.5776, 1073.881
863.0597, 1061.215
863.5418, 1052.691
864.0239, 1057.918
864.5060, 1075.003
864.9882, 1086.432
865.4703, 1092.416
865.9524, 1096.851
866.4345, 1102.580
866.9166, 1108.173
867.3987, 1113.746
867.8809, 1119.068
868.3630, 1118.578
868.8451, 1099.196
869.3272, 1086.464
869.8093, 1092.182
870.2914, 1114.045
870.7736, 1127.866
871.2557, 1132.730
871.7378, 1141.612
872.2199, 1171.883
872.7020, 1205.552
873.1841, 1207.307
873.6663, 1184.597
874.1484, 1170.776
874.6305, 1189.707
875.1126, 1211.285
875.5947, 1225.485
876.0768, 1232.116
876.5590, 1226.680
877.0411, 1203.515
877.5232, 1190.862
878.0053, 1203.584
878.4874, 1227.866
878.9695, 1230.722
879.4517, 1218.617
879.9338, 1213.772
880.4159, 1234.455
880.8980, 1257.373
881.3801, 1272.554
881.8622, 1280.643
882.3444, 1282.755
882.8265, 1276.230
883.3086, 1269.639
883.7907, 1263.182
884.2728, 1258.906
884.7549, 1261.660
885.2370, 1270.560
885.7191, 1281.384
886.2012, 1295.517
886.6833, 1305.389
887.1655, 1300.055
887.6476, 1288.190
888.1297, 1281.858
888.6118, 1287.360
889.0939, 1294.239
889.5760, 1304.358
890.0582, 1312.901
890.5403, 1312.844
891.0224, 1304.508
891.5045, 1296.313
891.9866, 1288.804
892.4688, 1284.536
892.9509, 1283.414
893.4330, 1288.061
893.9151, 1304.490
894.3972, 1340.285
894.8793, 1365.219
895.3615, 1360.756
895.8436, 1354.476
896.3257, 1367.628
896.8078, 1404.770
897.2899, 1417.629
897.7720, 1403.844
898.2542, 1387.734
898.7363, 1388.311
899.2184, 1399.858
899.7005, 1416.635
900.1826, 1437.652
900.6647, 1456.661
901.1469, 1470.882
901.6290, 1482.173
902.1111, 1490.076
902.5932, 1494.916
903.0753, 1506.538
903.5574, 1526.018
904.0396, 1545.627
904.5217, 1563.705
905.0038, 1577.786
905.4859, 1579.575
905.9680, 1572.242
906.4501, 1568.320
906.9323, 1579.981
907.4144, 1589.980
907.8965, 1585.934
908.3786, 1574.425
908.8607, 1576.797
909.3428, 1596.909
909.8250, 1616.452
910.3071, 1631.153
910.7892, 1642.276
911.2713, 1652.219
911.7534, 1660.569
912.2355, 1665.996
912.7177, 1667.416
913.1998, 1666.807
913.6819, 1663.820
914.1640, 1659.886
914.6461, 1657.220
915.1282, 1657.078
915.6104, 1655.114
916.0925, 1650.921
916.5746, 1644.994
917.0567, 1637.363
917.5388, 1628.531
918.0209, 1620.454
918.5031, 1613.967
918.9852, 1604.438
919.4673, 1585.662
919.9494, 1564.715
920.4315, 1548.771
920.9136, 1541.538
921.3958, 1523.967
921.8779, 1491.444
922.3600, 1459.789
922.8421, 1441.421
923.3242, 1432.926
923.8063, 1422.373
924.2885, 1409.508
924.7706, 1395.210
925.2527, 1385.025
925.7348, 1369.067
926.2169, 1332.797
926.6990, 1279.426
927.1812, 1251.190
927.6633, 1258.617
928.1454, 1267.781
928.6275, 1269.565
929.1096, 1263.308
929.5917, 1242.486
930.0739, 1210.595
930.5560, 1184.082
931.0381, 1170.029
931.5202, 1163.099
932.0023, 1162.802
932.4844, 1166.873
932.9666, 1171.790
933.4487, 1184.833
933.9308, 1180.144
934.4129, 1148.161
934.8950, 1110.343
935.3771, 1099.843
935.8593, 1109.880
936.3414, 1116.828
936.8235, 1115.969
937.3056, 1112.232
937.7877, 1109.270
938.2698, 1104.823
938.7520, 1096.175
939.2341, 1081.149
939.7162, 1068.344
940.1983, 1057.172
940.6804, 1049.698
941.1625, 1049.016
941.6447, 1053.348
942.1268, 1056.427
942.6089, 1058.251
943.0910, 1060.984
943.5731, 1067.641
944.0552, 1074.083
944.5374, 1077.418
945.0195, 1077.840
945.5016, 1079.956
945.9837, 1085.973
946.4658, 1086.814
946.9479, 1077.225
947.4301, 1063.067
947.9122, 1058.571
948.3943, 1061.160
948.8764, 1062.302
949.3585, 1055.722
949.8406, 1050.395
950.3228, 1051.602
950.8049, 1056.399
951.2870, 1060.276
951.7691, 1063.695
952.2512, 1064.168
952.7333, 1060.671
953.2155, 1056.522
953.6976, 1056.040
954.1797, 1057.848
954.6618, 1058.955
955.1439, 1058.835
955.6260, 1058.433
956.1082, 1054.331
956.5903, 1053.477
957.0724, 1063.258
957.5545, 1085.279
958.0366, 1091.636
958.5187, 1079.310
959.0009, 1067.577
959.4830, 1072.037
959.9651, 1083.625
960.4471, 1084.733
960.9293, 1077.422
961.4114, 1069.813
961.8935, 1060.743
962.3756, 1057.512
962.8577, 1066.335
963.3398, 1081.462
963.8220, 1089.495
964.3041, 1089.972
964.7862, 1087.411
965.2683, 1081.721
965.7504, 1076.516
966.2325, 1075.919
966.7147, 1079.165
967.1968, 1085.438
967.6789, 1096.392
968.1610, 1106.210
968.6431, 1113.461
969.1252, 1119.461
969.6074, 1124.518
970.0895, 1128.560
970.5716, 1136.137
971.0537, 1147.582
971.5358, 1157.163
972.0179, 1160.252
972.5001, 1159.391
972.9822, 1154.323
973.4643, 1146.025
973.9464, 1144.917
974.4285, 1160.417
974.9106, 1172.259
975.3928, 1174.159
975.8749, 1168.555
976.3570, 1161.219
976.8391, 1152.659
977.3212, 1147.284
977.8033, 1148.940
978.2855, 1150.717
978.7676, 1147.388
979.2497, 1140.753
979.7318, 1133.468
980.2139, 1126.062
980.6960, 1118.030
981.1782, 1109.975
981.6603, 1100.131
982.1424, 1082.275
982.6245, 1061.270
983.1066, 1055.569
983.5887, 1066.799
984.0709, 1077.785
984.5530, 1080.461
985.0351, 1077.388
985.5172, 1068.038
985.9993, 1053.134
986.4814, 1040.139
986.9636, 1028.464
987.4457, 1022.217
987.9278, 1026.014
988.4099, 1033.441
988.8920, 1030.863
989.3741, 1022.428
989.8563, 1018.790
990.3384, 1033.090
990.8205, 1041.752
991.3026, 1034.212
991.7847, 1021.094
992.2668, 1016.331
992.7490, 1020.925
993.2311, 1015.553
993.7132, 996.2577
994.1953, 979.9075
994.6774, 987.1488
995.1595, 1003.232
995.6417, 1012.565
996.1238, 1012.965
996.6059, 1007.442
997.0880, 991.4459
997.5701, 958.7290
998.0522, 976.7780
998.5344, 987.6935
999.0165, 991.8579
999.4986, 969.0530
999.9807, 981.0735
1000.463, 979.1383
1000.945, 976.6296
1001.427, 993.5513
1001.909, 974.6686
1002.391, 991.2820
1002.873, 993.7261
1003.356, 1002.659
1003.838, 997.5453
1004.320, 996.7690
1004.802, 1010.040
1005.284, 1015.533
1005.766, 1008.802
1006.248, 1018.144
1006.730, 998.7704
1007.212, 1015.846
1007.695, 1023.480
1008.177, 1030.299
1008.659, 1036.148
1009.141, 1038.176
1009.623, 1036.187
1010.105, 1034.273
1010.587, 1035.781
1011.069, 1036.976
1011.552, 1030.211
1012.034, 1019.895
1012.516, 1015.618
1012.998, 1028.937
1013.480, 1035.842
1013.962, 1031.614
1014.444, 1023.638
1014.926, 1021.243
1015.408, 1023.498
1015.891, 1024.607
1016.373, 1023.850
1016.855, 1023.489
1017.337, 1022.436
1017.819, 1024.574
1018.301, 1034.535
1018.783, 1052.530
1019.265, 1067.587
1019.747, 1079.696
1020.230, 1089.001
1020.712, 1094.990
1021.194, 1099.077
1021.676, 1103.970
1022.158, 1109.121
1022.640, 1113.106
1023.122, 1111.576
1023.604, 1114.141
1024.087, 1130.081
1024.569, 1145.657
1025.051, 1143.572
1025.533, 1123.326
1026.015, 1112.696
1026.497, 1113.564
1026.979, 1121.239
1027.461, 1141.143
1027.943, 1159.031
1028.426, 1157.789
1028.908, 1137.526
1029.390, 1124.991
1029.872, 1123.615
1030.354, 1127.148
1030.836, 1136.543
1031.318, 1146.363
1031.800, 1141.235
1032.282, 1126.103
1032.765, 1115.384
1033.247, 1116.070
1033.729, 1117.511
1034.211, 1112.952
1034.693, 1108.364
1035.175, 1111.029
1035.657, 1123.954
1036.139, 1123.437
1036.622, 1108.260
1037.104, 1091.512
1037.586, 1082.170
1038.068, 1077.225
1038.550, 1073.717
1039.032, 1071.516
1039.514, 1070.682
1039.996, 1068.379
1040.479, 1073.105
1040.961, 1090.634
1041.443, 1110.893
1041.925, 1109.675
1042.407, 1093.631
1042.889, 1087.930
1043.371, 1101.868
1043.853, 1112.740
1044.335, 1102.427
1044.818, 1087.565
1045.300, 1082.190
1045.782, 1087.358
1046.264, 1089.854
1046.746, 1089.732
1047.228, 1086.686
1047.710, 1078.174
1048.192, 1068.291
1048.674, 1061.678
1049.157, 1057.995
1049.639, 1056.305
1050.121, 1055.966
1050.603, 1058.849
1051.085, 1066.866
1051.567, 1075.557
1052.049, 1078.584
1052.531, 1077.095
1053.014, 1074.985
1053.496, 1072.655
1053.978, 1072.239
1054.460, 1079.798
1054.942, 1085.544
1055.424, 1082.025
1055.906, 1070.466
1056.388, 1058.212
1056.870, 1044.535
1057.353, 1037.073
1057.835, 1040.747
1058.317, 1048.385
1058.799, 1054.198
1059.281, 1056.747
1059.763, 1053.176
1060.245, 1032.332
1060.727, 1025.517
1061.209, 1040.265
1061.692, 1057.586
1062.174, 1060.570
1062.656, 1052.780
1063.138, 1046.336
1063.620, 1041.646
1064.102, 1038.564
1064.584, 1036.432
1065.066, 1036.663
1065.549, 1042.115
1066.031, 1049.819
1066.513, 1052.553
1066.995, 1049.768
1067.477, 1052.039
1067.959, 1063.196
1068.441, 1072.037
1068.923, 1058.401
1069.406, 1041.157
1069.888, 1043.824
1070.370, 1074.839
1070.852, 1094.995
1071.334, 1100.864
1071.816, 1099.976
1072.298, 1092.035
1072.780, 1082.646
1073.262, 1089.113
1073.745, 1106.187
1074.227, 1118.386
1074.709, 1118.024
1075.191, 1113.688
1075.673, 1104.921
1076.155, 1095.576
1076.637, 1087.917
1077.119, 1082.085
1077.601, 1086.845
1078.083, 1102.740
1078.566, 1116.229
1079.048, 1114.276
1079.530, 1108.509
1080.012, 1108.459
1080.494, 1112.886
1080.976, 1111.210
1081.458, 1100.160
1081.940, 1096.152
1082.423, 1105.063
1082.905, 1116.355
1083.387, 1114.685
1083.869, 1105.897
1084.351, 1098.659
1084.833, 1094.420
1085.315, 1093.166
1085.797, 1098.267
1086.280, 1101.075
1086.762, 1097.664
1087.244, 1088.291
1087.726, 1068.430
1088.208, 1041.954
1088.690, 1026.426
1089.172, 1038.907
1089.654, 1053.093
1090.136, 1058.216
1090.619, 1058.284
1091.101, 1057.426
1091.583, 1055.360
1092.065, 1056.269
1092.547, 1060.650
1093.029, 1062.802
1093.511, 1055.866
1093.993, 1046.242
1094.475, 1038.191
1094.958, 1032.656
1095.440, 1034.019
1095.922, 1046.940
1096.404, 1053.806
1096.886, 1050.467
1097.368, 1040.758
1097.850, 1023.852
1098.332, 1006.863
1098.815, 1005.857
1099.297, 1027.961
1099.779, 1039.401
1100.261, 1022.376
1100.743, 1004.861
1101.225, 999.9213
1101.707, 1003.757
1102.189, 1000.361
1102.672, 991.8904
1103.154, 988.4598
1103.636, 998.3046
1104.118, 1007.875
1104.600, 1009.682
1105.082, 1008.363
1105.564, 1010.253
1106.046, 1016.794
1106.528, 1008.888
1107.010, 985.5900
1107.493, 971.0120
1107.975, 993.7709
1108.457, 1024.105
1108.939, 1036.770
1109.421, 1034.522
1109.903, 1028.537
1110.385, 1016.588
1110.867, 1011.078
1111.350, 1015.316
1111.832, 1021.090
1112.314, 1017.210
1112.796, 1008.758
1113.278, 1002.520
1113.760, 999.3626
1114.242, 999.6594
1114.724, 1008.320
1115.207, 1012.066
1115.689, 1003.268
1116.171, 990.0252
1116.653, 997.6979
1117.135, 1018.119
1117.617, 1024.324
1118.099, 1001.509
1118.581, 982.9092
1119.063, 984.3381
1119.546, 993.3347
1120.028, 1002.662
1120.510, 1012.225
1120.992, 1021.228
1121.474, 1029.166
1121.956, 1030.242
1122.438, 1009.559
1122.920, 993.2996
1123.402, 1004.612
1123.885, 1028.504
1124.367, 1040.100
1124.849, 1037.874
1125.331, 1028.713
1125.813, 1012.078
1126.295, 996.8397
1126.777, 990.0439
1127.259, 988.9368
1127.742, 991.9427
1128.224, 998.3521
1128.706, 1005.288
1129.188, 1013.836
1129.670, 1019.863
1130.152, 1023.345
1130.634, 1021.863
1131.116, 1005.284
1131.599, 984.2281
1132.081, 978.2332
1132.563, 991.5814
1133.045, 1001.724
1133.527, 1001.369
1134.009, 1001.357
1134.491, 1007.303
1134.973, 1014.522
1135.455, 1008.012
1135.938, 992.5807
1136.420, 982.4490
1136.902, 983.0534
1137.384, 986.9221
1137.866, 995.0545
1138.348, 1001.914
1138.830, 1003.030
1139.312, 999.1923
1139.794, 1000.010
1140.277, 1004.722
1140.759, 1007.452
1141.241, 997.6202
1141.723, 993.3737
1142.205, 1013.886
1142.687, 1040.048
1143.169, 1045.530
1143.651, 1027.668
1144.134, 1016.208
1144.616, 1012.691
1145.098, 1011.686
1145.580, 1008.445
1146.062, 1006.510
1146.544, 1010.736
1147.026, 1018.761
1147.508, 1021.858
1147.990, 1019.536
1148.473, 1012.515
1148.955, 999.0413
1149.437, 989.5914
1149.919, 1000.169
1150.401, 1017.783
1150.883, 1028.192
1151.365, 1029.801
1151.847, 1027.180
1152.329, 1018.520
1152.812, 1012.422
1153.294, 1012.761
1153.776, 1014.205
1154.258, 1005.477
1154.740, 992.9320
1155.222, 987.9658
1155.704, 994.9183
1156.186, 1000.266
1156.668, 1001.690
1157.151, 1002.332
1157.633, 1003.465
1158.115, 1005.095
1158.597, 1007.717
1159.079, 1010.843
1159.561, 1013.130
1160.043, 1013.920
1160.525, 1014.267
1161.008, 1015.526
1161.490, 1015.024
1161.972, 1008.300
1162.454, 997.6631
1162.936, 997.2493
1163.418, 1005.498
1163.900, 1013.835
1164.382, 1018.988
1164.865, 1022.242
1165.347, 1023.846
1165.829, 1024.000
1166.311, 1022.431
1166.793, 1019.298
1167.275, 1016.227
1167.757, 1013.404
1168.239, 1012.186
1168.721, 1013.549
1169.203, 1016.713
1169.686, 1023.353
1170.168, 1030.705
1170.650, 1034.578
1171.132, 1034.923
1171.614, 1025.967
1172.096, 1005.790
1172.578, 989.4442
1173.060, 991.2689
1173.543, 999.5645
1174.025, 1008.880
1174.507, 1017.438
1174.989, 1015.951
1175.471, 1003.778
1175.953, 996.2194
1176.435, 997.2863
1176.917, 1003.689
1177.400, 1019.251
1177.882, 1033.906
1178.364, 1034.698
1178.846, 1021.111
1179.328, 1016.678
1179.810, 1022.394
1180.292, 1028.256
1180.774, 1031.501
1181.256, 1030.793
1181.739, 1019.399
1182.221, 1005.733
1182.703, 1001.586
1183.185, 1010.642
1183.667, 1019.729
1184.149, 1030.505
1184.631, 1030.883
1185.113, 1001.108
1185.595, 969.4564
1186.078, 980.4933
1186.560, 1013.795
1187.042, 1030.850
1187.524, 1014.892
1188.006, 1006.377
1188.488, 1006.806
1188.970, 1009.978
1189.452, 1010.419
1189.935, 1010.997
1190.417, 1016.997
1190.899, 1026.508
1191.381, 1033.630
1191.863, 1038.105
1192.345, 1038.083
1192.827, 1032.299
1193.309, 1025.790
1193.792, 1019.950
1194.274, 1018.893
1194.756, 1036.434
1195.238, 1067.650
1195.720, 1079.760
1196.202, 1052.013
1196.684, 1034.560
1197.166, 1037.336
1197.648, 1047.236
1198.130, 1047.699
1198.613, 1043.776
1199.095, 1045.542
1199.577, 1053.552
1200.059, 1054.138
1200.541, 1039.674
1201.023, 1028.349
1201.505, 1025.515
1201.987, 1025.766
1202.470, 1018.073
1202.952, 1008.016
1203.434, 1007.796
1203.916, 1020.709
1204.398, 1027.232
1204.880, 1020.417
1205.362, 1014.637
1205.844, 1015.656
1206.327, 1019.215
1206.809, 1013.385
1207.291, 1004.868
1207.773, 1009.329
1208.255, 1035.541
1208.737, 1050.547
1209.219, 1044.926
1209.701, 1037.708
1210.183, 1037.077
1210.666, 1041.280
1211.148, 1050.929
1211.630, 1061.436
1212.112, 1061.378
1212.594, 1039.877
1213.076, 1027.546
1213.558, 1028.873
1214.040, 1037.042
1214.522, 1052.789
1215.005, 1069.385
1215.487, 1066.952
1215.969, 1051.635
1216.451, 1038.916
1216.933, 1033.842
1217.415, 1032.707
1217.897, 1037.152
1218.379, 1041.026
1218.862, 1039.766
1219.344, 1034.495
1219.826, 1021.917
1220.308, 1007.458
1220.790, 1007.590
1221.272, 1048.611
1221.754, 1072.839
1222.236, 1071.823
1222.719, 1061.751
1223.201, 1055.462
1223.683, 1051.675
1224.165, 1047.561
1224.647, 1043.343
1225.129, 1040.325
1225.611, 1037.432
1226.093, 1038.785
1226.575, 1046.231
1227.057, 1054.448
1227.540, 1058.216
1228.022, 1058.535
1228.504, 1057.472
1228.986, 1054.893
1229.468, 1049.089
1229.950, 1033.854
1230.432, 1026.192
1230.914, 1029.495
1231.396, 1037.970
1231.879, 1049.395
1232.361, 1058.919
1232.843, 1053.559
1233.325, 1035.179
1233.807, 1029.266
1234.289, 1049.873
1234.771, 1060.839
1235.253, 1053.823
1235.736, 1040.905
1236.218, 1038.428
1236.700, 1039.765
1237.182, 1032.067
1237.664, 1015.092
1238.146, 1011.991
1238.628, 1030.727
1239.110, 1044.939
1239.593, 1048.116
1240.075, 1046.493
1240.557, 1045.381
1241.039, 1046.279
1241.521, 1054.069
1242.003, 1069.167
1242.485, 1070.710
1242.967, 1051.908
1243.449, 1044.294
1243.932, 1060.373
1244.414, 1079.542
1244.896, 1070.950
1245.378, 1054.516
1245.860, 1056.922
1246.342, 1082.721
1246.824, 1092.068
1247.306, 1081.848
1247.788, 1073.297
1248.271, 1074.805
1248.753, 1076.214
1249.235, 1059.854
1249.717, 1041.290
1250.199, 1041.674
1250.681, 1062.475
1251.163, 1068.379
1251.645, 1058.077
1252.128, 1050.319
1252.610, 1051.985
1253.092, 1058.240
1253.574, 1070.009
1254.056, 1080.153
1254.538, 1081.470
1255.020, 1074.289
1255.502, 1055.658
1255.984, 1025.956
1256.467, 1009.913
1256.949, 1021.958
1257.431, 1040.158
1257.913, 1051.784
1258.395, 1059.080
1258.877, 1064.876
1259.359, 1069.027
1259.841, 1065.725
1260.323, 1055.815
1260.806, 1047.086
1261.288, 1041.495
1261.770, 1040.423
1262.252, 1047.978
1262.734, 1057.640
1263.216, 1065.317
1263.698, 1070.716
1264.180, 1071.195
1264.663, 1067.462
1265.145, 1062.896
1265.627, 1056.996
1266.109, 1054.066
1266.591, 1057.066
1267.073, 1062.049
##END=



