##NAMES=Pigeonite
##RRUFFID=R200002
##IDEAL CHEMISTRY=(Mg,Fe^2+^,Ca)SiO_3_
##LOCALITY=Belmont Quarry, near Leesburg, Loudoun County, Virginia, USA
##OWNER=RRUFF
##SOURCE=James Shigley
##DESCRIPTION=Grey to yellow prismatic crystals associated with white anorthite and dark biotite
##STATUS=The identification of this mineral has been confirmed by single-crystal X-ray diffraction.
##URL=rruff.info/R200002
8.813672e+001, 4.737959e+002
8.861884e+001, 4.788818e+002
8.910095e+001, 4.848762e+002
8.958307e+001, 4.925936e+002
9.006519e+001, 5.013515e+002
9.054730e+001, 5.107828e+002
9.102942e+001, 5.213826e+002
9.151154e+001, 5.307424e+002
9.199365e+001, 5.372131e+002
9.247577e+001, 5.410028e+002
9.295789e+001, 5.424352e+002
9.344000e+001, 5.399991e+002
9.392212e+001, 5.351794e+002
9.440424e+001, 5.325287e+002
9.488635e+001, 5.330988e+002
9.536847e+001, 5.347897e+002
9.585059e+001, 5.344785e+002
9.633270e+001, 5.322205e+002
9.681482e+001, 5.297367e+002
9.729694e+001, 5.276743e+002
9.777905e+001, 5.260393e+002
9.826117e+001, 5.252463e+002
9.874329e+001, 5.251569e+002
9.922540e+001, 5.260399e+002
9.970752e+001, 5.292718e+002
1.001896e+002, 5.355094e+002
1.006718e+002, 5.412487e+002
1.011539e+002, 5.435295e+002
1.016360e+002, 5.412784e+002
1.021181e+002, 5.408027e+002
1.026002e+002, 5.432191e+002
1.030823e+002, 5.481327e+002
1.035645e+002, 5.526062e+002
1.040466e+002, 5.560310e+002
1.045287e+002, 5.599052e+002
1.050108e+002, 5.656522e+002
1.054929e+002, 5.741177e+002
1.059750e+002, 5.829110e+002
1.064572e+002, 5.918969e+002
1.069393e+002, 6.012536e+002
1.074214e+002, 6.096815e+002
1.079035e+002, 6.178504e+002
1.083856e+002, 6.249380e+002
1.088677e+002, 6.299144e+002
1.093499e+002, 6.310270e+002
1.098320e+002, 6.319218e+002
1.103141e+002, 6.329687e+002
1.107962e+002, 6.335631e+002
1.112783e+002, 6.362987e+002
1.117604e+002, 6.426827e+002
1.122426e+002, 6.510940e+002
1.127247e+002, 6.589475e+002
1.132068e+002, 6.657310e+002
1.136889e+002, 6.719947e+002
1.141710e+002, 6.777740e+002
1.146531e+002, 6.826141e+002
1.151353e+002, 6.878542e+002
1.156174e+002, 6.943351e+002
1.160995e+002, 7.015667e+002
1.165816e+002, 7.083895e+002
1.170637e+002, 7.138973e+002
1.175458e+002, 7.190727e+002
1.180280e+002, 7.247721e+002
1.185101e+002, 7.322634e+002
1.189922e+002, 7.388528e+002
1.194743e+002, 7.414590e+002
1.199564e+002, 7.411834e+002
1.204385e+002, 7.429423e+002
1.209207e+002, 7.513646e+002
1.214028e+002, 7.627769e+002
1.218849e+002, 7.729055e+002
1.223670e+002, 7.781923e+002
1.228491e+002, 7.834020e+002
1.233312e+002, 7.944503e+002
1.238134e+002, 8.109945e+002
1.242955e+002, 8.260578e+002
1.247776e+002, 8.327175e+002
1.252597e+002, 8.337790e+002
1.257418e+002, 8.349453e+002
1.262239e+002, 8.387491e+002
1.267061e+002, 8.440369e+002
1.271882e+002, 8.485236e+002
1.276703e+002, 8.521035e+002
1.281524e+002, 8.562971e+002
1.286345e+002, 8.633992e+002
1.291166e+002, 8.728296e+002
1.295988e+002, 8.819712e+002
1.300809e+002, 8.892250e+002
1.305630e+002, 8.951510e+002
1.310451e+002, 9.017432e+002
1.315272e+002, 9.091608e+002
1.320093e+002, 9.168441e+002
1.324915e+002, 9.241610e+002
1.329736e+002, 9.310998e+002
1.334557e+002, 9.376753e+002
1.339378e+002, 9.438937e+002
1.344199e+002, 9.497308e+002
1.349020e+002, 9.546954e+002
1.353842e+002, 9.585444e+002
1.358663e+002, 9.616351e+002
1.363484e+002, 9.645596e+002
1.368305e+002, 9.670327e+002
1.373126e+002, 9.705194e+002
1.377947e+002, 9.762349e+002
1.382769e+002, 9.845599e+002
1.387590e+002, 9.926803e+002
1.392411e+002, 1.000589e+003
1.397232e+002, 1.007997e+003
1.402053e+002, 1.013047e+003
1.406874e+002, 1.014873e+003
1.411696e+002, 1.016298e+003
1.416517e+002, 1.019678e+003
1.421338e+002, 1.026563e+003
1.426159e+002, 1.031438e+003
1.430980e+002, 1.033526e+003
1.435801e+002, 1.033008e+003
1.440623e+002, 1.031615e+003
1.445444e+002, 1.029136e+003
1.450265e+002, 1.026129e+003
1.455086e+002, 1.022955e+003
1.459907e+002, 1.018764e+003
1.464728e+002, 1.015864e+003
1.469550e+002, 1.015703e+003
1.474371e+002, 1.018679e+003
1.479192e+002, 1.017755e+003
1.484013e+002, 1.010124e+003
1.488834e+002, 1.000271e+003
1.493655e+002, 9.921984e+002
1.498477e+002, 9.861329e+002
1.503298e+002, 9.816537e+002
1.508119e+002, 9.794016e+002
1.512940e+002, 9.800160e+002
1.517761e+002, 9.791610e+002
1.522583e+002, 9.761873e+002
1.527404e+002, 9.719058e+002
1.532225e+002, 9.671309e+002
1.537046e+002, 9.602752e+002
1.541867e+002, 9.545114e+002
1.546688e+002, 9.509144e+002
1.551510e+002, 9.499779e+002
1.556331e+002, 9.493370e+002
1.561152e+002, 9.494772e+002
1.565973e+002, 9.495377e+002
1.570794e+002, 9.483577e+002
1.575615e+002, 9.447731e+002
1.580437e+002, 9.406765e+002
1.585258e+002, 9.362269e+002
1.590079e+002, 9.304330e+002
1.594900e+002, 9.274509e+002
1.599721e+002, 9.316439e+002
1.604542e+002, 9.391981e+002
1.609364e+002, 9.434225e+002
1.614185e+002, 9.390007e+002
1.619006e+002, 9.326766e+002
1.623827e+002, 9.281310e+002
1.628648e+002, 9.262715e+002
1.633469e+002, 9.254331e+002
1.638291e+002, 9.256447e+002
1.643112e+002, 9.263784e+002
1.647933e+002, 9.264204e+002
1.652754e+002, 9.249085e+002
1.657575e+002, 9.226756e+002
1.662396e+002, 9.202477e+002
1.667218e+002, 9.174689e+002
1.672039e+002, 9.150375e+002
1.676860e+002, 9.132772e+002
1.681681e+002, 9.122150e+002
1.686502e+002, 9.118556e+002
1.691323e+002, 9.119525e+002
1.696145e+002, 9.128771e+002
1.700966e+002, 9.152415e+002
1.705787e+002, 9.201878e+002
1.710608e+002, 9.250908e+002
1.715429e+002, 9.279343e+002
1.720250e+002, 9.288802e+002
1.725072e+002, 9.286455e+002
1.729893e+002, 9.266652e+002
1.734714e+002, 9.240493e+002
1.739535e+002, 9.223054e+002
1.744356e+002, 9.218326e+002
1.749177e+002, 9.223505e+002
1.753999e+002, 9.236926e+002
1.758820e+002, 9.258400e+002
1.763641e+002, 9.284927e+002
1.768462e+002, 9.329677e+002
1.773283e+002, 9.377199e+002
1.778104e+002, 9.395004e+002
1.782926e+002, 9.353394e+002
1.787747e+002, 9.296066e+002
1.792568e+002, 9.290990e+002
1.797389e+002, 9.336005e+002
1.802210e+002, 9.387849e+002
1.807031e+002, 9.412308e+002
1.811853e+002, 9.414711e+002
1.816674e+002, 9.406437e+002
1.821495e+002, 9.382345e+002
1.826316e+002, 9.354790e+002
1.831137e+002, 9.349948e+002
1.835958e+002, 9.367997e+002
1.840780e+002, 9.393467e+002
1.845601e+002, 9.410917e+002
1.850422e+002, 9.422784e+002
1.855243e+002, 9.443010e+002
1.860064e+002, 9.489429e+002
1.864885e+002, 9.542640e+002
1.869707e+002, 9.541619e+002
1.874528e+002, 9.482046e+002
1.879349e+002, 9.412043e+002
1.884170e+002, 9.381389e+002
1.888991e+002, 9.386406e+002
1.893812e+002, 9.397494e+002
1.898634e+002, 9.407208e+002
1.903455e+002, 9.415768e+002
1.908276e+002, 9.423210e+002
1.913097e+002, 9.429236e+002
1.917918e+002, 9.436343e+002
1.922739e+002, 9.453459e+002
1.927561e+002, 9.480138e+002
1.932382e+002, 9.489520e+002
1.937203e+002, 9.462689e+002
1.942024e+002, 9.408631e+002
1.946845e+002, 9.382899e+002
1.951666e+002, 9.391099e+002
1.956488e+002, 9.407985e+002
1.961309e+002, 9.396794e+002
1.966130e+002, 9.354603e+002
1.970951e+002, 9.329982e+002
1.975772e+002, 9.349529e+002
1.980593e+002, 9.407012e+002
1.985415e+002, 9.430005e+002
1.990236e+002, 9.411935e+002
1.995057e+002, 9.377679e+002
1.999878e+002, 9.355978e+002
2.004699e+002, 9.347204e+002
2.009520e+002, 9.350828e+002
2.014342e+002, 9.369949e+002
2.019163e+002, 9.404403e+002
2.023984e+002, 9.439155e+002
2.028805e+002, 9.477373e+002
2.033626e+002, 9.510405e+002
2.038447e+002, 9.521207e+002
2.043269e+002, 9.503359e+002
2.048090e+002, 9.495314e+002
2.052911e+002, 9.514681e+002
2.057732e+002, 9.562399e+002
2.062553e+002, 9.591235e+002
2.067374e+002, 9.593080e+002
2.072196e+002, 9.588087e+002
2.077017e+002, 9.605115e+002
2.081838e+002, 9.648743e+002
2.086659e+002, 9.698039e+002
2.091480e+002, 9.750039e+002
2.096301e+002, 9.806578e+002
2.101123e+002, 9.838249e+002
2.105944e+002, 9.831169e+002
2.110765e+002, 9.817586e+002
2.115586e+002, 9.850775e+002
2.120407e+002, 9.952839e+002
2.125228e+002, 1.003839e+003
2.130050e+002, 1.007288e+003
2.134871e+002, 1.004882e+003
2.139692e+002, 1.004608e+003
2.144513e+002, 1.006733e+003
2.149334e+002, 1.010704e+003
2.154155e+002, 1.016376e+003
2.158977e+002, 1.025183e+003
2.163798e+002, 1.032165e+003
2.168619e+002, 1.035171e+003
2.173440e+002, 1.033532e+003
2.178261e+002, 1.033466e+003
2.183082e+002, 1.035447e+003
2.187904e+002, 1.038539e+003
2.192725e+002, 1.041568e+003
2.197546e+002, 1.044722e+003
2.202367e+002, 1.047412e+003
2.207188e+002, 1.049569e+003
2.212009e+002, 1.051320e+003
2.216831e+002, 1.051617e+003
2.221652e+002, 1.049285e+003
2.226473e+002, 1.046614e+003
2.231294e+002, 1.047060e+003
2.236115e+002, 1.052349e+003
2.240936e+002, 1.057316e+003
2.245758e+002, 1.060667e+003
2.250579e+002, 1.062256e+003
2.255400e+002, 1.062944e+003
2.260221e+002, 1.061854e+003
2.265042e+002, 1.060633e+003
2.269863e+002, 1.061913e+003
2.274685e+002, 1.068282e+003
2.279506e+002, 1.072223e+003
2.284327e+002, 1.071067e+003
2.289148e+002, 1.063878e+003
2.293969e+002, 1.058492e+003
2.298790e+002, 1.055529e+003
2.303612e+002, 1.053798e+003
2.308433e+002, 1.052049e+003
2.313254e+002, 1.050857e+003
2.318075e+002, 1.048443e+003
2.322896e+002, 1.043642e+003
2.327717e+002, 1.035910e+003
2.332539e+002, 1.031220e+003
2.337360e+002, 1.031299e+003
2.342181e+002, 1.032991e+003
2.347002e+002, 1.032613e+003
2.351823e+002, 1.028743e+003
2.356644e+002, 1.025462e+003
2.361466e+002, 1.024218e+003
2.366287e+002, 1.025398e+003
2.371108e+002, 1.024025e+003
2.375929e+002, 1.018566e+003
2.380750e+002, 1.012050e+003
2.385571e+002, 1.007557e+003
2.390393e+002, 1.005357e+003
2.395214e+002, 1.004818e+003
2.400035e+002, 1.006618e+003
2.404856e+002, 1.011031e+003
2.409677e+002, 1.012690e+003
2.414498e+002, 1.009763e+003
2.419320e+002, 1.005821e+003
2.424141e+002, 1.004499e+003
2.428962e+002, 1.007939e+003
2.433783e+002, 1.009799e+003
2.438604e+002, 1.008077e+003
2.443425e+002, 1.002752e+003
2.448247e+002, 1.000179e+003
2.453068e+002, 1.001354e+003
2.457889e+002, 1.004178e+003
2.462710e+002, 1.007103e+003
2.467531e+002, 1.010822e+003
2.472352e+002, 1.013198e+003
2.477174e+002, 1.013534e+003
2.481995e+002, 1.011955e+003
2.486816e+002, 1.010874e+003
2.491637e+002, 1.010777e+003
2.496458e+002, 1.010659e+003
2.501279e+002, 1.009589e+003
2.506101e+002, 1.006719e+003
2.510922e+002, 1.004845e+003
2.515743e+002, 1.004623e+003
2.520564e+002, 1.005865e+003
2.525385e+002, 1.006862e+003
2.530206e+002, 1.007171e+003
2.535028e+002, 1.007862e+003
2.539849e+002, 1.009712e+003
2.544670e+002, 1.013130e+003
2.549491e+002, 1.016738e+003
2.554312e+002, 1.020527e+003
2.559133e+002, 1.024362e+003
2.563955e+002, 1.027825e+003
2.568776e+002, 1.030919e+003
2.573597e+002, 1.033553e+003
2.578418e+002, 1.035540e+003
2.583239e+002, 1.036480e+003
2.588061e+002, 1.037798e+003
2.592882e+002, 1.039661e+003
2.597703e+002, 1.041966e+003
2.602524e+002, 1.044215e+003
2.607345e+002, 1.046171e+003
2.612166e+002, 1.048575e+003
2.616988e+002, 1.052008e+003
2.621809e+002, 1.056774e+003
2.626630e+002, 1.061664e+003
2.631451e+002, 1.067319e+003
2.636272e+002, 1.072786e+003
2.641093e+002, 1.074725e+003
2.645915e+002, 1.071474e+003
2.650736e+002, 1.068561e+003
2.655557e+002, 1.069356e+003
2.660378e+002, 1.075578e+003
2.665199e+002, 1.078166e+003
2.670020e+002, 1.075634e+003
2.674842e+002, 1.070477e+003
2.679663e+002, 1.068360e+003
2.684484e+002, 1.070570e+003
2.689305e+002, 1.072069e+003
2.694126e+002, 1.070128e+003
2.698947e+002, 1.063782e+003
2.703769e+002, 1.059639e+003
2.708590e+002, 1.058311e+003
2.713411e+002, 1.058306e+003
2.718232e+002, 1.057306e+003
2.723053e+002, 1.055231e+003
2.727874e+002, 1.052353e+003
2.732696e+002, 1.048541e+003
2.737517e+002, 1.043716e+003
2.742338e+002, 1.038697e+003
2.747159e+002, 1.032912e+003
2.751980e+002, 1.027922e+003
2.756801e+002, 1.026425e+003
2.761623e+002, 1.028981e+003
2.766444e+002, 1.031775e+003
2.771265e+002, 1.034103e+003
2.776086e+002, 1.035898e+003
2.780907e+002, 1.035159e+003
2.785728e+002, 1.031364e+003
2.790550e+002, 1.026626e+003
2.795371e+002, 1.023133e+003
2.800192e+002, 1.020943e+003
2.805013e+002, 1.019409e+003
2.809834e+002, 1.018169e+003
2.814655e+002, 1.017454e+003
2.819477e+002, 1.018951e+003
2.824298e+002, 1.023073e+003
2.829119e+002, 1.027382e+003
2.833940e+002, 1.029691e+003
2.838761e+002, 1.030011e+003
2.843582e+002, 1.029158e+003
2.848404e+002, 1.026546e+003
2.853225e+002, 1.023285e+003
2.858046e+002, 1.023016e+003
2.862867e+002, 1.025900e+003
2.867688e+002, 1.029969e+003
2.872509e+002, 1.034616e+003
2.877331e+002, 1.039562e+003
2.882152e+002, 1.042066e+003
2.886973e+002, 1.041074e+003
2.891794e+002, 1.038172e+003
2.896615e+002, 1.035983e+003
2.901436e+002, 1.034503e+003
2.906258e+002, 1.035083e+003
2.911079e+002, 1.040202e+003
2.915900e+002, 1.048581e+003
2.920721e+002, 1.054432e+003
2.925542e+002, 1.056610e+003
2.930363e+002, 1.057098e+003
2.935185e+002, 1.058888e+003
2.940006e+002, 1.061855e+003
2.944827e+002, 1.064614e+003
2.949648e+002, 1.065605e+003
2.954469e+002, 1.065852e+003
2.959290e+002, 1.068531e+003
2.964112e+002, 1.074273e+003
2.968933e+002, 1.080513e+003
2.973754e+002, 1.083760e+003
2.978575e+002, 1.084670e+003
2.983396e+002, 1.085742e+003
2.988217e+002, 1.088169e+003
2.993039e+002, 1.091531e+003
2.997860e+002, 1.095209e+003
3.002681e+002, 1.099229e+003
3.007502e+002, 1.103184e+003
3.012323e+002, 1.106773e+003
3.017144e+002, 1.110004e+003
3.021966e+002, 1.112731e+003
3.026787e+002, 1.114812e+003
3.031608e+002, 1.116479e+003
3.036429e+002, 1.117401e+003
3.041250e+002, 1.117673e+003
3.046071e+002, 1.119274e+003
3.050893e+002, 1.125354e+003
3.055714e+002, 1.133521e+003
3.060535e+002, 1.139638e+003
3.065356e+002, 1.141066e+003
3.070177e+002, 1.141481e+003
3.074998e+002, 1.144398e+003
3.079820e+002, 1.149408e+003
3.084641e+002, 1.154222e+003
3.089462e+002, 1.156600e+003
3.094283e+002, 1.158355e+003
3.099104e+002, 1.161419e+003
3.103925e+002, 1.166286e+003
3.108747e+002, 1.172405e+003
3.113568e+002, 1.180250e+003
3.118389e+002, 1.189162e+003
3.123210e+002, 1.197257e+003
3.128031e+002, 1.201603e+003
3.132852e+002, 1.206075e+003
3.137674e+002, 1.214017e+003
3.142495e+002, 1.226707e+003
3.147316e+002, 1.240229e+003
3.152137e+002, 1.252555e+003
3.156958e+002, 1.264328e+003
3.161779e+002, 1.276644e+003
3.166601e+002, 1.289868e+003
3.171422e+002, 1.303794e+003
3.176243e+002, 1.318051e+003
3.181064e+002, 1.332326e+003
3.185885e+002, 1.347995e+003
3.190706e+002, 1.367699e+003
3.195528e+002, 1.388297e+003
3.200349e+002, 1.406216e+003
3.205170e+002, 1.418023e+003
3.209991e+002, 1.429407e+003
3.214812e+002, 1.442269e+003
3.219633e+002, 1.456745e+003
3.224455e+002, 1.470906e+003
3.229276e+002, 1.484510e+003
3.234097e+002, 1.497662e+003
3.238918e+002, 1.510438e+003
3.243739e+002, 1.526382e+003
3.248560e+002, 1.538038e+003
3.253382e+002, 1.543243e+003
3.258203e+002, 1.542660e+003
3.263024e+002, 1.540751e+003
3.267845e+002, 1.539715e+003
3.272666e+002, 1.536054e+003
3.277487e+002, 1.527954e+003
3.282309e+002, 1.511822e+003
3.287130e+002, 1.496273e+003
3.291951e+002, 1.481853e+003
3.296772e+002, 1.468002e+003
3.301593e+002, 1.453245e+003
3.306414e+002, 1.437349e+003
3.311236e+002, 1.421014e+003
3.316057e+002, 1.403979e+003
3.320878e+002, 1.385078e+003
3.325699e+002, 1.369139e+003
3.330520e+002, 1.357713e+003
3.335341e+002, 1.348414e+003
3.340163e+002, 1.337662e+003
3.344984e+002, 1.324175e+003
3.349805e+002, 1.311943e+003
3.354626e+002, 1.301936e+003
3.359447e+002, 1.294173e+003
3.364268e+002, 1.287494e+003
3.369090e+002, 1.281461e+003
3.373911e+002, 1.277091e+003
3.378732e+002, 1.276277e+003
3.383553e+002, 1.280433e+003
3.388374e+002, 1.282094e+003
3.393195e+002, 1.278912e+003
3.398017e+002, 1.272332e+003
3.402838e+002, 1.269172e+003
3.407659e+002, 1.270126e+003
3.412480e+002, 1.271934e+003
3.417301e+002, 1.271963e+003
3.422122e+002, 1.270075e+003
3.426944e+002, 1.269851e+003
3.431765e+002, 1.272166e+003
3.436586e+002, 1.275533e+003
3.441407e+002, 1.276600e+003
3.446228e+002, 1.275322e+003
3.451049e+002, 1.274019e+003
3.455871e+002, 1.274728e+003
3.460692e+002, 1.276815e+003
3.465513e+002, 1.276501e+003
3.470334e+002, 1.273513e+003
3.475155e+002, 1.269012e+003
3.479977e+002, 1.263243e+003
3.484798e+002, 1.256749e+003
3.489619e+002, 1.252668e+003
3.494440e+002, 1.254528e+003
3.499261e+002, 1.258885e+003
3.504082e+002, 1.258055e+003
3.508904e+002, 1.252037e+003
3.513725e+002, 1.245593e+003
3.518546e+002, 1.241871e+003
3.523367e+002, 1.240729e+003
3.528188e+002, 1.242302e+003
3.533009e+002, 1.248959e+003
3.537831e+002, 1.255367e+003
3.542652e+002, 1.254302e+003
3.547473e+002, 1.247182e+003
3.552294e+002, 1.240537e+003
3.557115e+002, 1.239280e+003
3.561936e+002, 1.240308e+003
3.566758e+002, 1.240091e+003
3.571579e+002, 1.237480e+003
3.576400e+002, 1.235158e+003
3.581221e+002, 1.236241e+003
3.586042e+002, 1.238965e+003
3.590863e+002, 1.239809e+003
3.595685e+002, 1.234917e+003
3.600506e+002, 1.229403e+003
3.605327e+002, 1.226651e+003
3.610148e+002, 1.227203e+003
3.614969e+002, 1.228035e+003
3.619790e+002, 1.227104e+003
3.624612e+002, 1.226081e+003
3.629433e+002, 1.226738e+003
3.634254e+002, 1.232044e+003
3.639075e+002, 1.236585e+003
3.643896e+002, 1.237776e+003
3.648717e+002, 1.235962e+003
3.653539e+002, 1.235697e+003
3.658360e+002, 1.240807e+003
3.663181e+002, 1.245771e+003
3.668002e+002, 1.247304e+003
3.672823e+002, 1.240075e+003
3.677644e+002, 1.235709e+003
3.682466e+002, 1.237212e+003
3.687287e+002, 1.242250e+003
3.692108e+002, 1.244238e+003
3.696929e+002, 1.239685e+003
3.701750e+002, 1.235777e+003
3.706571e+002, 1.235607e+003
3.711393e+002, 1.241535e+003
3.716214e+002, 1.243198e+003
3.721035e+002, 1.238604e+003
3.725856e+002, 1.231255e+003
3.730677e+002, 1.225678e+003
3.735498e+002, 1.222532e+003
3.740320e+002, 1.219622e+003
3.745141e+002, 1.215975e+003
3.749962e+002, 1.211833e+003
3.754783e+002, 1.211188e+003
3.759604e+002, 1.215437e+003
3.764425e+002, 1.220166e+003
3.769247e+002, 1.221942e+003
3.774068e+002, 1.220579e+003
3.778889e+002, 1.217481e+003
3.783710e+002, 1.212339e+003
3.788531e+002, 1.206088e+003
3.793352e+002, 1.200751e+003
3.798174e+002, 1.196379e+003
3.802995e+002, 1.192687e+003
3.807816e+002, 1.189849e+003
3.812637e+002, 1.187671e+003
3.817458e+002, 1.185232e+003
3.822279e+002, 1.182501e+003
3.827101e+002, 1.179207e+003
3.831922e+002, 1.173969e+003
3.836743e+002, 1.167399e+003
3.841564e+002, 1.162738e+003
3.846385e+002, 1.162129e+003
3.851206e+002, 1.163726e+003
3.856028e+002, 1.164199e+003
3.860849e+002, 1.163614e+003
3.865670e+002, 1.163166e+003
3.870491e+002, 1.164148e+003
3.875312e+002, 1.165834e+003
3.880133e+002, 1.167056e+003
3.884955e+002, 1.167530e+003
3.889776e+002, 1.167506e+003
3.894597e+002, 1.166633e+003
3.899418e+002, 1.165353e+003
3.904239e+002, 1.164904e+003
3.909060e+002, 1.166515e+003
3.913882e+002, 1.168852e+003
3.918703e+002, 1.171138e+003
3.923524e+002, 1.173455e+003
3.928345e+002, 1.174840e+003
3.933166e+002, 1.173585e+003
3.937987e+002, 1.171493e+003
3.942809e+002, 1.170854e+003
3.947630e+002, 1.175307e+003
3.952451e+002, 1.178405e+003
3.957272e+002, 1.176573e+003
3.962093e+002, 1.170165e+003
3.966914e+002, 1.166263e+003
3.971736e+002, 1.169355e+003
3.976557e+002, 1.173380e+003
3.981378e+002, 1.174643e+003
3.986199e+002, 1.171194e+003
3.991020e+002, 1.166924e+003
3.995841e+002, 1.160672e+003
4.000663e+002, 1.153734e+003
4.005484e+002, 1.149408e+003
4.010305e+002, 1.150713e+003
4.015126e+002, 1.150808e+003
4.019947e+002, 1.146807e+003
4.024768e+002, 1.137497e+003
4.029590e+002, 1.130936e+003
4.034411e+002, 1.128270e+003
4.039232e+002, 1.127054e+003
4.044053e+002, 1.124894e+003
4.048874e+002, 1.122072e+003
4.053695e+002, 1.116955e+003
4.058517e+002, 1.107714e+003
4.063338e+002, 1.096201e+003
4.068159e+002, 1.091088e+003
4.072980e+002, 1.093516e+003
4.077801e+002, 1.096849e+003
4.082622e+002, 1.096308e+003
4.087444e+002, 1.092182e+003
4.092265e+002, 1.088341e+003
4.097086e+002, 1.084991e+003
4.101907e+002, 1.082329e+003
4.106728e+002, 1.080844e+003
4.111549e+002, 1.080398e+003
4.116371e+002, 1.080201e+003
4.121192e+002, 1.079846e+003
4.126013e+002, 1.079480e+003
4.130834e+002, 1.079423e+003
4.135655e+002, 1.079662e+003
4.140476e+002, 1.080072e+003
4.145298e+002, 1.081212e+003
4.150119e+002, 1.082316e+003
4.154940e+002, 1.081979e+003
4.159761e+002, 1.078964e+003
4.164582e+002, 1.075709e+003
4.169403e+002, 1.074003e+003
4.174225e+002, 1.073700e+003
4.179046e+002, 1.074421e+003
4.183867e+002, 1.077359e+003
4.188688e+002, 1.080325e+003
4.193509e+002, 1.081792e+003
4.198330e+002, 1.081509e+003
4.203152e+002, 1.080317e+003
4.207973e+002, 1.077207e+003
4.212794e+002, 1.073862e+003
4.217615e+002, 1.072204e+003
4.222436e+002, 1.074279e+003
4.227257e+002, 1.076433e+003
4.232079e+002, 1.077557e+003
4.236900e+002, 1.077751e+003
4.241721e+002, 1.078658e+003
4.246542e+002, 1.081750e+003
4.251363e+002, 1.084519e+003
4.256184e+002, 1.085674e+003
4.261006e+002, 1.083761e+003
4.265827e+002, 1.082844e+003
4.270648e+002, 1.083369e+003
4.275469e+002, 1.084646e+003
4.280290e+002, 1.085291e+003
4.285111e+002, 1.084612e+003
4.289933e+002, 1.084897e+003
4.294754e+002, 1.087363e+003
4.299575e+002, 1.091908e+003
4.304396e+002, 1.094287e+003
4.309217e+002, 1.094132e+003
4.314038e+002, 1.092958e+003
4.318860e+002, 1.091603e+003
4.323681e+002, 1.090056e+003
4.328502e+002, 1.090210e+003
4.333323e+002, 1.092903e+003
4.338144e+002, 1.096590e+003
4.342965e+002, 1.098524e+003
4.347787e+002, 1.098733e+003
4.352608e+002, 1.097589e+003
4.357429e+002, 1.093664e+003
4.362250e+002, 1.088771e+003
4.367071e+002, 1.087720e+003
4.371892e+002, 1.090916e+003
4.376714e+002, 1.094433e+003
4.381535e+002, 1.094209e+003
4.386356e+002, 1.091828e+003
4.391177e+002, 1.090043e+003
4.395998e+002, 1.090010e+003
4.400819e+002, 1.090589e+003
4.405641e+002, 1.091282e+003
4.410462e+002, 1.091927e+003
4.415283e+002, 1.091924e+003
4.420104e+002, 1.090252e+003
4.424925e+002, 1.088317e+003
4.429746e+002, 1.087013e+003
4.434568e+002, 1.086437e+003
4.439389e+002, 1.086522e+003
4.444210e+002, 1.087942e+003
4.449031e+002, 1.089745e+003
4.453852e+002, 1.090799e+003
4.458673e+002, 1.088938e+003
4.463495e+002, 1.088313e+003
4.468316e+002, 1.091106e+003
4.473137e+002, 1.096868e+003
4.477958e+002, 1.099191e+003
4.482779e+002, 1.095405e+003
4.487600e+002, 1.090864e+003
4.492422e+002, 1.088193e+003
4.497243e+002, 1.088051e+003
4.502064e+002, 1.088245e+003
4.506885e+002, 1.088651e+003
4.511706e+002, 1.089553e+003
4.516527e+002, 1.091877e+003
4.521349e+002, 1.096365e+003
4.526170e+002, 1.099341e+003
4.530991e+002, 1.099561e+003
4.535812e+002, 1.097359e+003
4.540633e+002, 1.093867e+003
4.545454e+002, 1.088754e+003
4.550276e+002, 1.084879e+003
4.555097e+002, 1.085080e+003
4.559918e+002, 1.088711e+003
4.564739e+002, 1.092999e+003
4.569560e+002, 1.098030e+003
4.574381e+002, 1.102288e+003
4.579203e+002, 1.103465e+003
4.584024e+002, 1.102103e+003
4.588845e+002, 1.099975e+003
4.593666e+002, 1.096180e+003
4.598488e+002, 1.093024e+003
4.603309e+002, 1.093994e+003
4.608130e+002, 1.098842e+003
4.612951e+002, 1.103520e+003
4.617772e+002, 1.105195e+003
4.622593e+002, 1.105464e+003
4.627415e+002, 1.105847e+003
4.632236e+002, 1.107017e+003
4.637057e+002, 1.107795e+003
4.641878e+002, 1.107201e+003
4.646699e+002, 1.105953e+003
4.651520e+002, 1.105421e+003
4.656342e+002, 1.107632e+003
4.661163e+002, 1.109058e+003
4.665984e+002, 1.107640e+003
4.670805e+002, 1.102651e+003
4.675626e+002, 1.100920e+003
4.680447e+002, 1.106051e+003
4.685269e+002, 1.111631e+003
4.690090e+002, 1.113036e+003
4.694911e+002, 1.107169e+003
4.699732e+002, 1.103509e+003
4.704553e+002, 1.103345e+003
4.709374e+002, 1.105227e+003
4.714196e+002, 1.105969e+003
4.719017e+002, 1.105389e+003
4.723838e+002, 1.104249e+003
4.728659e+002, 1.102339e+003
4.733480e+002, 1.099885e+003
4.738301e+002, 1.099840e+003
4.743123e+002, 1.102557e+003
4.747944e+002, 1.105379e+003
4.752765e+002, 1.105337e+003
4.757586e+002, 1.103139e+003
4.762407e+002, 1.101952e+003
4.767228e+002, 1.102730e+003
4.772050e+002, 1.103985e+003
4.776871e+002, 1.103559e+003
4.781692e+002, 1.101885e+003
4.786513e+002, 1.100330e+003
4.791334e+002, 1.099306e+003
4.796155e+002, 1.098914e+003
4.800977e+002, 1.099331e+003
4.805798e+002, 1.100548e+003
4.810619e+002, 1.102212e+003
4.815440e+002, 1.103960e+003
4.820261e+002, 1.106117e+003
4.825082e+002, 1.109175e+003
4.829904e+002, 1.115141e+003
4.834725e+002, 1.119158e+003
4.839546e+002, 1.118307e+003
4.844367e+002, 1.114657e+003
4.849188e+002, 1.112613e+003
4.854009e+002, 1.114952e+003
4.858831e+002, 1.116808e+003
4.863652e+002, 1.116396e+003
4.868473e+002, 1.113464e+003
4.873294e+002, 1.112335e+003
4.878115e+002, 1.113901e+003
4.882936e+002, 1.116233e+003
4.887758e+002, 1.118166e+003
4.892579e+002, 1.119917e+003
4.897400e+002, 1.120224e+003
4.902221e+002, 1.118321e+003
4.907042e+002, 1.115734e+003
4.911863e+002, 1.115656e+003
4.916685e+002, 1.118197e+003
4.921506e+002, 1.121176e+003
4.926327e+002, 1.123909e+003
4.931148e+002, 1.126378e+003
4.935969e+002, 1.128120e+003
4.940790e+002, 1.129156e+003
4.945612e+002, 1.130475e+003
4.950433e+002, 1.133016e+003
4.955254e+002, 1.136386e+003
4.960075e+002, 1.139984e+003
4.964896e+002, 1.143752e+003
4.969717e+002, 1.147459e+003
4.974539e+002, 1.151391e+003
4.979360e+002, 1.155009e+003
4.984181e+002, 1.157203e+003
4.989002e+002, 1.156119e+003
4.993823e+002, 1.154724e+003
4.998644e+002, 1.154200e+003
5.003466e+002, 1.154631e+003
5.008287e+002, 1.156410e+003
5.013108e+002, 1.160533e+003
5.017929e+002, 1.165414e+003
5.022750e+002, 1.170210e+003
5.027571e+002, 1.175219e+003
5.032393e+002, 1.179487e+003
5.037214e+002, 1.182268e+003
5.042035e+002, 1.184671e+003
5.046856e+002, 1.188321e+003
5.051677e+002, 1.194207e+003
5.056498e+002, 1.199312e+003
5.061320e+002, 1.202892e+003
5.066141e+002, 1.205256e+003
5.070962e+002, 1.207964e+003
5.075783e+002, 1.211146e+003
5.080604e+002, 1.214095e+003
5.085425e+002, 1.216780e+003
5.090247e+002, 1.219047e+003
5.095068e+002, 1.218625e+003
5.099889e+002, 1.214817e+003
5.104710e+002, 1.211554e+003
5.109531e+002, 1.214786e+003
5.114352e+002, 1.222400e+003
5.119174e+002, 1.228136e+003
5.123995e+002, 1.229876e+003
5.128816e+002, 1.229264e+003
5.133637e+002, 1.226728e+003
5.138458e+002, 1.223086e+003
5.143279e+002, 1.220970e+003
5.148101e+002, 1.222314e+003
5.152922e+002, 1.225317e+003
5.157743e+002, 1.229292e+003
5.162564e+002, 1.234342e+003
5.167385e+002, 1.238373e+003
5.172206e+002, 1.239885e+003
5.177028e+002, 1.240474e+003
5.181849e+002, 1.241414e+003
5.186670e+002, 1.242950e+003
5.191491e+002, 1.244751e+003
5.196312e+002, 1.246907e+003
5.201133e+002, 1.249261e+003
5.205955e+002, 1.251490e+003
5.210776e+002, 1.253236e+003
5.215597e+002, 1.255427e+003
5.220418e+002, 1.258286e+003
5.225239e+002, 1.261813e+003
5.230060e+002, 1.266210e+003
5.234882e+002, 1.271804e+003
5.239703e+002, 1.277087e+003
5.244524e+002, 1.280756e+003
5.249345e+002, 1.282902e+003
5.254166e+002, 1.284582e+003
5.258987e+002, 1.285735e+003
5.263809e+002, 1.287101e+003
5.268630e+002, 1.290233e+003
5.273451e+002, 1.294502e+003
5.278272e+002, 1.297833e+003
5.283093e+002, 1.298476e+003
5.287914e+002, 1.298671e+003
5.292736e+002, 1.300344e+003
5.297557e+002, 1.303516e+003
5.302378e+002, 1.308144e+003
5.307199e+002, 1.317146e+003
5.312020e+002, 1.325645e+003
5.316841e+002, 1.329859e+003
5.321663e+002, 1.328681e+003
5.326484e+002, 1.326722e+003
5.331305e+002, 1.324759e+003
5.336126e+002, 1.322805e+003
5.340947e+002, 1.320833e+003
5.345768e+002, 1.318413e+003
5.350590e+002, 1.316576e+003
5.355411e+002, 1.315865e+003
5.360232e+002, 1.315681e+003
5.365053e+002, 1.314510e+003
5.369874e+002, 1.312412e+003
5.374695e+002, 1.309063e+003
5.379517e+002, 1.303666e+003
5.384338e+002, 1.296468e+003
5.389159e+002, 1.292198e+003
5.393980e+002, 1.291288e+003
5.398801e+002, 1.290706e+003
5.403622e+002, 1.287248e+003
5.408444e+002, 1.281830e+003
5.413265e+002, 1.278550e+003
5.418086e+002, 1.278553e+003
5.422907e+002, 1.278379e+003
5.427728e+002, 1.272519e+003
5.432549e+002, 1.263524e+003
5.437371e+002, 1.257034e+003
5.442192e+002, 1.257837e+003
5.447013e+002, 1.259899e+003
5.451834e+002, 1.258997e+003
5.456655e+002, 1.255746e+003
5.461476e+002, 1.252612e+003
5.466298e+002, 1.249210e+003
5.471119e+002, 1.247293e+003
5.475940e+002, 1.248241e+003
5.480761e+002, 1.253076e+003
5.485582e+002, 1.257158e+003
5.490403e+002, 1.259958e+003
5.495225e+002, 1.261992e+003
5.500046e+002, 1.263614e+003
5.504867e+002, 1.264793e+003
5.509688e+002, 1.265522e+003
5.514509e+002, 1.265573e+003
5.519330e+002, 1.265312e+003
5.524152e+002, 1.265342e+003
5.528973e+002, 1.265553e+003
5.533794e+002, 1.266798e+003
5.538615e+002, 1.269676e+003
5.543436e+002, 1.273756e+003
5.548257e+002, 1.278070e+003
5.553079e+002, 1.282554e+003
5.557900e+002, 1.285917e+003
5.562721e+002, 1.286158e+003
5.567542e+002, 1.284921e+003
5.572363e+002, 1.284916e+003
5.577184e+002, 1.286584e+003
5.582006e+002, 1.288803e+003
5.586827e+002, 1.292063e+003
5.591648e+002, 1.294947e+003
5.596469e+002, 1.295700e+003
5.601290e+002, 1.291796e+003
5.606111e+002, 1.287802e+003
5.610933e+002, 1.285527e+003
5.615754e+002, 1.284292e+003
5.620575e+002, 1.282268e+003
5.625396e+002, 1.276557e+003
5.630217e+002, 1.272820e+003
5.635038e+002, 1.273327e+003
5.639860e+002, 1.278308e+003
5.644681e+002, 1.281703e+003
5.649502e+002, 1.284214e+003
5.654323e+002, 1.283850e+003
5.659144e+002, 1.277640e+003
5.663965e+002, 1.264916e+003
5.668787e+002, 1.256776e+003
5.673608e+002, 1.254740e+003
5.678429e+002, 1.255043e+003
5.683250e+002, 1.252677e+003
5.688071e+002, 1.248208e+003
5.692892e+002, 1.244074e+003
5.697714e+002, 1.241026e+003
5.702535e+002, 1.238753e+003
5.707356e+002, 1.236384e+003
5.712177e+002, 1.234360e+003
5.716998e+002, 1.234248e+003
5.721819e+002, 1.239929e+003
5.726641e+002, 1.245397e+003
5.731462e+002, 1.245445e+003
5.736283e+002, 1.239692e+003
5.741104e+002, 1.235750e+003
5.745925e+002, 1.238619e+003
5.750746e+002, 1.242226e+003
5.755568e+002, 1.242300e+003
5.760389e+002, 1.234609e+003
5.765210e+002, 1.230695e+003
5.770031e+002, 1.232739e+003
5.774852e+002, 1.236972e+003
5.779673e+002, 1.238218e+003
5.784495e+002, 1.235571e+003
5.789316e+002, 1.233230e+003
5.794137e+002, 1.232010e+003
5.798958e+002, 1.231697e+003
5.803779e+002, 1.231656e+003
5.808600e+002, 1.231897e+003
5.813422e+002, 1.232651e+003
5.818243e+002, 1.234362e+003
5.823064e+002, 1.236587e+003
5.827885e+002, 1.238792e+003
5.832706e+002, 1.240907e+003
5.837527e+002, 1.241640e+003
5.842349e+002, 1.238862e+003
5.847170e+002, 1.234781e+003
5.851991e+002, 1.231468e+003
5.856812e+002, 1.228918e+003
5.861633e+002, 1.228225e+003
5.866454e+002, 1.231831e+003
5.871276e+002, 1.236822e+003
5.876097e+002, 1.239615e+003
5.880918e+002, 1.238010e+003
5.885739e+002, 1.236087e+003
5.890560e+002, 1.234043e+003
5.895381e+002, 1.232116e+003
5.900203e+002, 1.231061e+003
5.905024e+002, 1.231291e+003
5.909845e+002, 1.231541e+003
5.914666e+002, 1.231287e+003
5.919487e+002, 1.230640e+003
5.924308e+002, 1.230665e+003
5.929130e+002, 1.231464e+003
5.933951e+002, 1.232206e+003
5.938772e+002, 1.231885e+003
5.943593e+002, 1.230982e+003
5.948414e+002, 1.230818e+003
5.953235e+002, 1.231494e+003
5.958057e+002, 1.233027e+003
5.962878e+002, 1.236337e+003
5.967699e+002, 1.240260e+003
5.972520e+002, 1.243060e+003
5.977341e+002, 1.244387e+003
5.982162e+002, 1.244252e+003
5.986984e+002, 1.240482e+003
5.991805e+002, 1.235417e+003
5.996626e+002, 1.233857e+003
6.001447e+002, 1.240578e+003
6.006268e+002, 1.247001e+003
6.011089e+002, 1.250828e+003
6.015911e+002, 1.252287e+003
6.020732e+002, 1.253417e+003
6.025553e+002, 1.253951e+003
6.030374e+002, 1.254670e+003
6.035195e+002, 1.256124e+003
6.040016e+002, 1.258361e+003
6.044838e+002, 1.259993e+003
6.049659e+002, 1.260865e+003
6.054480e+002, 1.261836e+003
6.059301e+002, 1.264287e+003
6.064122e+002, 1.267625e+003
6.068943e+002, 1.269461e+003
6.073765e+002, 1.268758e+003
6.078586e+002, 1.268323e+003
6.083407e+002, 1.271391e+003
6.088228e+002, 1.276730e+003
6.093049e+002, 1.282025e+003
6.097870e+002, 1.286851e+003
6.102692e+002, 1.290988e+003
6.107513e+002, 1.294525e+003
6.112334e+002, 1.297324e+003
6.117155e+002, 1.298902e+003
6.121976e+002, 1.296155e+003
6.126797e+002, 1.295236e+003
6.131619e+002, 1.298928e+003
6.136440e+002, 1.307597e+003
6.141261e+002, 1.313619e+003
6.146082e+002, 1.316227e+003
6.150903e+002, 1.317704e+003
6.155724e+002, 1.319537e+003
6.160546e+002, 1.321727e+003
6.165367e+002, 1.323793e+003
6.170188e+002, 1.325729e+003
6.175009e+002, 1.327412e+003
6.179830e+002, 1.328461e+003
6.184651e+002, 1.329131e+003
6.189473e+002, 1.330172e+003
6.194294e+002, 1.331875e+003
6.199115e+002, 1.333829e+003
6.203936e+002, 1.336071e+003
6.208757e+002, 1.338285e+003
6.213578e+002, 1.339839e+003
6.218400e+002, 1.339703e+003
6.223221e+002, 1.339632e+003
6.228042e+002, 1.340455e+003
6.232863e+002, 1.342053e+003
6.237684e+002, 1.343554e+003
6.242505e+002, 1.345239e+003
6.247327e+002, 1.346373e+003
6.252148e+002, 1.346267e+003
6.256969e+002, 1.344646e+003
6.261790e+002, 1.345234e+003
6.266611e+002, 1.348781e+003
6.271432e+002, 1.352531e+003
6.276254e+002, 1.353592e+003
6.281075e+002, 1.352343e+003
6.285896e+002, 1.353746e+003
6.290717e+002, 1.358684e+003
6.295538e+002, 1.363863e+003
6.300359e+002, 1.364789e+003
6.305181e+002, 1.363275e+003
6.310002e+002, 1.363096e+003
6.314823e+002, 1.365574e+003
6.319644e+002, 1.369416e+003
6.324465e+002, 1.374628e+003
6.329286e+002, 1.380509e+003
6.334108e+002, 1.385561e+003
6.338929e+002, 1.387156e+003
6.343750e+002, 1.390152e+003
6.348571e+002, 1.396856e+003
6.353392e+002, 1.406729e+003
6.358214e+002, 1.415251e+003
6.363035e+002, 1.420883e+003
6.367856e+002, 1.427636e+003
6.372677e+002, 1.437640e+003
6.377498e+002, 1.450815e+003
6.382319e+002, 1.462576e+003
6.387141e+002, 1.472913e+003
6.391962e+002, 1.482234e+003
6.396783e+002, 1.489692e+003
6.401604e+002, 1.496461e+003
6.406425e+002, 1.506609e+003
6.411246e+002, 1.520918e+003
6.416068e+002, 1.536990e+003
6.420889e+002, 1.553175e+003
6.425710e+002, 1.569689e+003
6.430531e+002, 1.586466e+003
6.435352e+002, 1.603477e+003
6.440173e+002, 1.621171e+003
6.444995e+002, 1.638636e+003
6.449816e+002, 1.657207e+003
6.454637e+002, 1.679702e+003
6.459458e+002, 1.711595e+003
6.464279e+002, 1.740672e+003
6.469100e+002, 1.763452e+003
6.473922e+002, 1.781889e+003
6.478743e+002, 1.803048e+003
6.483564e+002, 1.827722e+003
6.488385e+002, 1.852892e+003
6.493206e+002, 1.877785e+003
6.498027e+002, 1.902303e+003
6.502849e+002, 1.924495e+003
6.507670e+002, 1.944388e+003
6.512491e+002, 1.962011e+003
6.517312e+002, 1.977101e+003
6.522133e+002, 1.989813e+003
6.526954e+002, 2.000352e+003
6.531776e+002, 2.008683e+003
6.536597e+002, 2.015536e+003
6.541418e+002, 2.021070e+003
6.546239e+002, 2.025691e+003
6.551060e+002, 2.029646e+003
6.555881e+002, 2.031953e+003
6.560703e+002, 2.035437e+003
6.565524e+002, 2.038599e+003
6.570345e+002, 2.044050e+003
6.575166e+002, 2.054888e+003
6.579987e+002, 2.071825e+003
6.584808e+002, 2.092265e+003
6.589630e+002, 2.116638e+003
6.594451e+002, 2.143661e+003
6.599272e+002, 2.170335e+003
6.604093e+002, 2.196753e+003
6.608914e+002, 2.225482e+003
6.613735e+002, 2.256635e+003
6.618557e+002, 2.291510e+003
6.623378e+002, 2.335098e+003
6.628199e+002, 2.385665e+003
6.633020e+002, 2.435431e+003
6.637841e+002, 2.479475e+003
6.642662e+002, 2.521661e+003
6.647484e+002, 2.565222e+003
6.652305e+002, 2.610018e+003
6.657126e+002, 2.652971e+003
6.661947e+002, 2.691964e+003
6.666768e+002, 2.729996e+003
6.671589e+002, 2.770169e+003
6.676411e+002, 2.815854e+003
6.681232e+002, 2.849193e+003
6.686053e+002, 2.867829e+003
6.690874e+002, 2.877823e+003
6.695695e+002, 2.885942e+003
6.700516e+002, 2.891876e+003
6.705338e+002, 2.886222e+003
6.710159e+002, 2.867117e+003
6.714980e+002, 2.838872e+003
6.719801e+002, 2.808817e+003
6.724622e+002, 2.773770e+003
6.729443e+002, 2.726661e+003
6.734265e+002, 2.660430e+003
6.739086e+002, 2.589367e+003
6.743907e+002, 2.520903e+003
6.748728e+002, 2.454005e+003
6.753549e+002, 2.387695e+003
6.758370e+002, 2.319024e+003
6.763192e+002, 2.252895e+003
6.768013e+002, 2.192348e+003
6.772834e+002, 2.136041e+003
6.777655e+002, 2.080693e+003
6.782476e+002, 2.025893e+003
6.787297e+002, 1.974032e+003
6.792119e+002, 1.926328e+003
6.796940e+002, 1.882565e+003
6.801761e+002, 1.843224e+003
6.806582e+002, 1.808487e+003
6.811403e+002, 1.776334e+003
6.816224e+002, 1.745636e+003
6.821046e+002, 1.716319e+003
6.825867e+002, 1.688904e+003
6.830688e+002, 1.663143e+003
6.835509e+002, 1.639316e+003
6.840330e+002, 1.616060e+003
6.845151e+002, 1.595434e+003
6.849973e+002, 1.579374e+003
6.854794e+002, 1.569527e+003
6.859615e+002, 1.559750e+003
6.864436e+002, 1.549522e+003
6.869257e+002, 1.538591e+003
6.874078e+002, 1.526547e+003
6.878900e+002, 1.512495e+003
6.883721e+002, 1.499572e+003
6.888542e+002, 1.488030e+003
6.893363e+002, 1.477950e+003
6.898184e+002, 1.469983e+003
6.903005e+002, 1.464026e+003
6.907827e+002, 1.459001e+003
6.912648e+002, 1.455110e+003
6.917469e+002, 1.451166e+003
6.922290e+002, 1.445018e+003
6.927111e+002, 1.437642e+003
6.931932e+002, 1.431442e+003
6.936754e+002, 1.428873e+003
6.941575e+002, 1.426302e+003
6.946396e+002, 1.421412e+003
6.951217e+002, 1.414957e+003
6.956038e+002, 1.409687e+003
6.960859e+002, 1.406528e+003
6.965681e+002, 1.404151e+003
6.970502e+002, 1.402412e+003
6.975323e+002, 1.401251e+003
6.980144e+002, 1.400133e+003
6.984965e+002, 1.399184e+003
6.989786e+002, 1.397821e+003
6.994608e+002, 1.396079e+003
6.999429e+002, 1.393702e+003
7.004250e+002, 1.388459e+003
7.009071e+002, 1.380512e+003
7.013892e+002, 1.374568e+003
7.018713e+002, 1.376652e+003
7.023535e+002, 1.381299e+003
7.028356e+002, 1.382073e+003
7.033177e+002, 1.377585e+003
7.037998e+002, 1.373968e+003
7.042819e+002, 1.374452e+003
7.047640e+002, 1.376156e+003
7.052462e+002, 1.376747e+003
7.057283e+002, 1.374944e+003
7.062104e+002, 1.374516e+003
7.066925e+002, 1.375943e+003
7.071746e+002, 1.378063e+003
7.076567e+002, 1.379774e+003
7.081389e+002, 1.381053e+003
7.086210e+002, 1.381627e+003
7.091031e+002, 1.381480e+003
7.095852e+002, 1.380509e+003
7.100673e+002, 1.377883e+003
7.105494e+002, 1.374351e+003
7.110316e+002, 1.371698e+003
7.115137e+002, 1.370757e+003
7.119958e+002, 1.370590e+003
7.124779e+002, 1.370470e+003
7.129600e+002, 1.370741e+003
7.134421e+002, 1.372023e+003
7.139243e+002, 1.377613e+003
7.144064e+002, 1.380533e+003
7.148885e+002, 1.377842e+003
7.153706e+002, 1.371652e+003
7.158527e+002, 1.368776e+003
7.163348e+002, 1.370185e+003
7.168170e+002, 1.371513e+003
7.172991e+002, 1.370870e+003
7.177812e+002, 1.369231e+003
7.182633e+002, 1.370567e+003
7.187454e+002, 1.374500e+003
7.192275e+002, 1.377068e+003
7.197097e+002, 1.374362e+003
7.201918e+002, 1.370129e+003
7.206739e+002, 1.368322e+003
7.211560e+002, 1.368893e+003
7.216381e+002, 1.370304e+003
7.221202e+002, 1.372426e+003
7.226024e+002, 1.374727e+003
7.230845e+002, 1.377120e+003
7.235666e+002, 1.379710e+003
7.240487e+002, 1.381463e+003
7.245308e+002, 1.382630e+003
7.250129e+002, 1.382650e+003
7.254951e+002, 1.380448e+003
7.259772e+002, 1.375856e+003
7.264593e+002, 1.374171e+003
7.269414e+002, 1.375651e+003
7.274235e+002, 1.378349e+003
7.279056e+002, 1.380837e+003
7.283878e+002, 1.383161e+003
7.288699e+002, 1.385390e+003
7.293520e+002, 1.387544e+003
7.298341e+002, 1.389647e+003
7.303162e+002, 1.391735e+003
7.307983e+002, 1.393763e+003
7.312805e+002, 1.395746e+003
7.317626e+002, 1.398005e+003
7.322447e+002, 1.399558e+003
7.327268e+002, 1.399632e+003
7.332089e+002, 1.399528e+003
7.336910e+002, 1.400749e+003
7.341732e+002, 1.403529e+003
7.346553e+002, 1.406414e+003
7.351374e+002, 1.409216e+003
7.356195e+002, 1.411974e+003
7.361016e+002, 1.415090e+003
7.365837e+002, 1.418237e+003
7.370659e+002, 1.420227e+003
7.375480e+002, 1.420247e+003
7.380301e+002, 1.419818e+003
7.385122e+002, 1.419918e+003
7.389943e+002, 1.420544e+003
7.394764e+002, 1.421699e+003
7.399586e+002, 1.423984e+003
7.404407e+002, 1.426139e+003
7.409228e+002, 1.428614e+003
7.414049e+002, 1.430671e+003
7.418870e+002, 1.430385e+003
7.423691e+002, 1.427148e+003
7.428513e+002, 1.423437e+003
7.433334e+002, 1.419494e+003
7.438155e+002, 1.415886e+003
7.442976e+002, 1.414586e+003
7.447797e+002, 1.415338e+003
7.452618e+002, 1.415855e+003
7.457440e+002, 1.414033e+003
7.462261e+002, 1.412110e+003
7.467082e+002, 1.413162e+003
7.471903e+002, 1.416348e+003
7.476724e+002, 1.418599e+003
7.481545e+002, 1.417688e+003
7.486367e+002, 1.416463e+003
7.491188e+002, 1.415951e+003
7.496009e+002, 1.416174e+003
7.500830e+002, 1.417128e+003
7.505651e+002, 1.419670e+003
7.510472e+002, 1.421086e+003
7.515294e+002, 1.419381e+003
7.520115e+002, 1.415336e+003
7.524936e+002, 1.415032e+003
7.529757e+002, 1.418441e+003
7.534578e+002, 1.421748e+003
7.539399e+002, 1.421438e+003
7.544221e+002, 1.419835e+003
7.549042e+002, 1.420207e+003
7.553863e+002, 1.422604e+003
7.558684e+002, 1.425031e+003
7.563505e+002, 1.426523e+003
7.568326e+002, 1.427727e+003
7.573148e+002, 1.429087e+003
7.577969e+002, 1.430720e+003
7.582790e+002, 1.431740e+003
7.587611e+002, 1.431526e+003
7.592432e+002, 1.431644e+003
7.597253e+002, 1.433460e+003
7.602075e+002, 1.436986e+003
7.606896e+002, 1.439026e+003
7.611717e+002, 1.439474e+003
7.616538e+002, 1.439451e+003
7.621359e+002, 1.439234e+003
7.626180e+002, 1.439492e+003
7.631002e+002, 1.442069e+003
7.635823e+002, 1.447566e+003
7.640644e+002, 1.451400e+003
7.645465e+002, 1.449736e+003
7.650286e+002, 1.446377e+003
7.655107e+002, 1.444344e+003
7.659929e+002, 1.444064e+003
7.664750e+002, 1.445058e+003
7.669571e+002, 1.448136e+003
7.674392e+002, 1.451446e+003
7.679213e+002, 1.452767e+003
7.684034e+002, 1.452032e+003
7.688856e+002, 1.454268e+003
7.693677e+002, 1.460496e+003
7.698498e+002, 1.465862e+003
7.703319e+002, 1.463331e+003
7.708140e+002, 1.456821e+003
7.712961e+002, 1.453364e+003
7.717783e+002, 1.454929e+003
7.722604e+002, 1.457907e+003
7.727425e+002, 1.462520e+003
7.732246e+002, 1.466512e+003
7.737067e+002, 1.467475e+003
7.741888e+002, 1.461301e+003
7.746710e+002, 1.458510e+003
7.751531e+002, 1.460378e+003
7.756352e+002, 1.464192e+003
7.761173e+002, 1.466831e+003
7.765994e+002, 1.468295e+003
7.770815e+002, 1.469448e+003
7.775637e+002, 1.470419e+003
7.780458e+002, 1.471204e+003
7.785279e+002, 1.472143e+003
7.790100e+002, 1.472819e+003
7.794921e+002, 1.472339e+003
7.799742e+002, 1.469796e+003
7.804564e+002, 1.467376e+003
7.809385e+002, 1.465247e+003
7.814206e+002, 1.464069e+003
7.819027e+002, 1.464850e+003
7.823848e+002, 1.468058e+003
7.828669e+002, 1.472533e+003
7.833491e+002, 1.479500e+003
7.838312e+002, 1.486149e+003
7.843133e+002, 1.487354e+003
7.847954e+002, 1.483366e+003
7.852775e+002, 1.478531e+003
7.857596e+002, 1.472959e+003
7.862418e+002, 1.469309e+003
7.867239e+002, 1.473732e+003
7.872060e+002, 1.481918e+003
7.876881e+002, 1.485953e+003
7.881702e+002, 1.478550e+003
7.886523e+002, 1.472720e+003
7.891345e+002, 1.474413e+003
7.896166e+002, 1.480194e+003
7.900987e+002, 1.484119e+003
7.905808e+002, 1.485279e+003
7.910629e+002, 1.486405e+003
7.915450e+002, 1.488021e+003
7.920272e+002, 1.489591e+003
7.925093e+002, 1.490073e+003
7.929914e+002, 1.489537e+003
7.934735e+002, 1.488260e+003
7.939556e+002, 1.485843e+003
7.944377e+002, 1.483615e+003
7.949199e+002, 1.482447e+003
7.954020e+002, 1.482573e+003
7.958841e+002, 1.484451e+003
7.963662e+002, 1.491490e+003
7.968483e+002, 1.496389e+003
7.973304e+002, 1.494960e+003
7.978126e+002, 1.490809e+003
7.982947e+002, 1.490384e+003
7.987768e+002, 1.495249e+003
7.992589e+002, 1.498787e+003
7.997410e+002, 1.499483e+003
8.002231e+002, 1.498807e+003
8.007053e+002, 1.499673e+003
8.011874e+002, 1.501652e+003
8.016695e+002, 1.502840e+003
8.021516e+002, 1.502207e+003
8.026337e+002, 1.501297e+003
8.031158e+002, 1.501653e+003
8.035980e+002, 1.502668e+003
8.040801e+002, 1.503255e+003
8.045622e+002, 1.503382e+003
8.050443e+002, 1.502689e+003
8.055264e+002, 1.500013e+003
8.060085e+002, 1.497106e+003
8.064907e+002, 1.497480e+003
8.069728e+002, 1.501661e+003
8.074549e+002, 1.505701e+003
8.079370e+002, 1.508531e+003
8.084191e+002, 1.511189e+003
8.089012e+002, 1.516365e+003
8.093834e+002, 1.522766e+003
8.098655e+002, 1.526792e+003
8.103476e+002, 1.525161e+003
8.108297e+002, 1.523600e+003
8.113118e+002, 1.525910e+003
8.117939e+002, 1.530410e+003
8.122761e+002, 1.534301e+003
8.127582e+002, 1.537877e+003
8.132403e+002, 1.539608e+003
8.137224e+002, 1.538173e+003
8.142045e+002, 1.535904e+003
8.146866e+002, 1.537704e+003
8.151688e+002, 1.543457e+003
8.156509e+002, 1.548365e+003
8.161330e+002, 1.551475e+003
8.166151e+002, 1.552766e+003
8.170972e+002, 1.549986e+003
8.175793e+002, 1.545767e+003
8.180615e+002, 1.545068e+003
8.185436e+002, 1.553139e+003
8.190257e+002, 1.560181e+003
8.195078e+002, 1.563030e+003
8.199899e+002, 1.562706e+003
8.204720e+002, 1.560368e+003
8.209542e+002, 1.553616e+003
8.214363e+002, 1.551825e+003
8.219184e+002, 1.557870e+003
8.224005e+002, 1.566232e+003
8.228826e+002, 1.567292e+003
8.233647e+002, 1.562745e+003
8.238469e+002, 1.560240e+003
8.243290e+002, 1.562340e+003
8.248111e+002, 1.565122e+003
8.252932e+002, 1.565444e+003
8.257753e+002, 1.564314e+003
8.262574e+002, 1.563074e+003
8.267396e+002, 1.560598e+003
8.272217e+002, 1.560352e+003
8.277038e+002, 1.564463e+003
8.281859e+002, 1.569410e+003
8.286681e+002, 1.570388e+003
8.291502e+002, 1.566665e+003
8.296323e+002, 1.565680e+003
8.301144e+002, 1.568945e+003
8.305966e+002, 1.573025e+003
8.310787e+002, 1.573347e+003
8.315608e+002, 1.571476e+003
8.320429e+002, 1.570494e+003
8.325250e+002, 1.571219e+003
8.330071e+002, 1.572440e+003
8.334893e+002, 1.574304e+003
8.339714e+002, 1.575912e+003
8.344535e+002, 1.576315e+003
8.349356e+002, 1.575257e+003
8.354177e+002, 1.573356e+003
8.358998e+002, 1.569868e+003
8.363820e+002, 1.567022e+003
8.368641e+002, 1.567977e+003
8.373462e+002, 1.572074e+003
8.378283e+002, 1.574504e+003
8.383104e+002, 1.574619e+003
8.387925e+002, 1.574267e+003
8.392747e+002, 1.575969e+003
8.397568e+002, 1.577600e+003
8.402389e+002, 1.576022e+003
8.407210e+002, 1.568872e+003
8.412031e+002, 1.565213e+003
8.416852e+002, 1.570551e+003
8.421674e+002, 1.576505e+003
8.426495e+002, 1.577216e+003
8.431316e+002, 1.571387e+003
8.436137e+002, 1.569167e+003
8.440958e+002, 1.570990e+003
8.445779e+002, 1.573569e+003
8.450601e+002, 1.573933e+003
8.455422e+002, 1.573030e+003
8.460243e+002, 1.572669e+003
8.465064e+002, 1.573038e+003
8.469885e+002, 1.573217e+003
8.474706e+002, 1.573081e+003
8.479528e+002, 1.572396e+003
8.484349e+002, 1.570504e+003
8.489170e+002, 1.567058e+003
8.493991e+002, 1.566241e+003
8.498812e+002, 1.569140e+003
8.503633e+002, 1.572149e+003
8.508455e+002, 1.572795e+003
8.513276e+002, 1.571631e+003
8.518097e+002, 1.571233e+003
8.522918e+002, 1.571634e+003
8.527739e+002, 1.573644e+003
8.532560e+002, 1.579990e+003
8.537382e+002, 1.586408e+003
8.542203e+002, 1.589418e+003
8.547024e+002, 1.588981e+003
8.551845e+002, 1.587312e+003
8.556666e+002, 1.582636e+003
8.561487e+002, 1.579509e+003
8.566309e+002, 1.579935e+003
8.571130e+002, 1.583152e+003
8.575951e+002, 1.585181e+003
8.580772e+002, 1.586048e+003
8.585593e+002, 1.585672e+003
8.590414e+002, 1.582654e+003
8.595236e+002, 1.579455e+003
8.600057e+002, 1.580497e+003
8.604878e+002, 1.584518e+003
8.609699e+002, 1.587469e+003
8.614520e+002, 1.586167e+003
8.619341e+002, 1.585215e+003
8.624163e+002, 1.587424e+003
8.628984e+002, 1.591074e+003
8.633805e+002, 1.591244e+003
8.638626e+002, 1.586687e+003
8.643447e+002, 1.583398e+003
8.648268e+002, 1.582957e+003
8.653090e+002, 1.584431e+003
8.657911e+002, 1.586797e+003
8.662732e+002, 1.589667e+003
8.667553e+002, 1.591744e+003
8.672374e+002, 1.591246e+003
8.677195e+002, 1.591823e+003
8.682017e+002, 1.597871e+003
8.686838e+002, 1.605644e+003
8.691659e+002, 1.608608e+003
8.696480e+002, 1.602678e+003
8.701301e+002, 1.599701e+003
8.706122e+002, 1.601578e+003
8.710944e+002, 1.605320e+003
8.715765e+002, 1.606657e+003
8.720586e+002, 1.606033e+003
8.725407e+002, 1.606015e+003
8.730228e+002, 1.607215e+003
8.735049e+002, 1.608461e+003
8.739871e+002, 1.607785e+003
8.744692e+002, 1.607090e+003
8.749513e+002, 1.608880e+003
8.754334e+002, 1.615716e+003
8.759155e+002, 1.619752e+003
8.763976e+002, 1.618769e+003
8.768798e+002, 1.616859e+003
8.773619e+002, 1.617317e+003
8.778440e+002, 1.620237e+003
8.783261e+002, 1.622142e+003
8.788082e+002, 1.622809e+003
8.792903e+002, 1.623876e+003
8.797725e+002, 1.626474e+003
8.802546e+002, 1.630449e+003
8.807367e+002, 1.636696e+003
8.812188e+002, 1.645320e+003
8.817009e+002, 1.651169e+003
8.821830e+002, 1.650850e+003
8.826652e+002, 1.648716e+003
8.831473e+002, 1.646062e+003
8.836294e+002, 1.642995e+003
8.841115e+002, 1.643768e+003
8.845936e+002, 1.648865e+003
8.850757e+002, 1.654433e+003
8.855579e+002, 1.658355e+003
8.860400e+002, 1.661260e+003
8.865221e+002, 1.664227e+003
8.870042e+002, 1.667178e+003
8.874863e+002, 1.669944e+003
8.879684e+002, 1.673284e+003
8.884506e+002, 1.675515e+003
8.889327e+002, 1.675072e+003
8.894148e+002, 1.672899e+003
8.898969e+002, 1.672350e+003
8.903790e+002, 1.674276e+003
8.908611e+002, 1.674506e+003
8.913433e+002, 1.670900e+003
8.918254e+002, 1.666629e+003
8.923075e+002, 1.668424e+003
8.927896e+002, 1.674622e+003
8.932717e+002, 1.680310e+003
8.937538e+002, 1.684549e+003
8.942360e+002, 1.686674e+003
8.947181e+002, 1.683818e+003
8.952002e+002, 1.679525e+003
8.956823e+002, 1.679193e+003
8.961644e+002, 1.684815e+003
8.966465e+002, 1.690432e+003
8.971287e+002, 1.695960e+003
8.976108e+002, 1.700795e+003
8.980929e+002, 1.703856e+003
8.985750e+002, 1.705476e+003
8.990571e+002, 1.706562e+003
8.995392e+002, 1.707080e+003
9.000214e+002, 1.708496e+003
9.005035e+002, 1.712796e+003
9.009856e+002, 1.717880e+003
9.014677e+002, 1.722167e+003
9.019498e+002, 1.725479e+003
9.024319e+002, 1.726840e+003
9.029141e+002, 1.724681e+003
9.033962e+002, 1.723349e+003
9.038783e+002, 1.726409e+003
9.043604e+002, 1.733083e+003
9.048425e+002, 1.737691e+003
9.053246e+002, 1.740300e+003
9.058068e+002, 1.741343e+003
9.062889e+002, 1.738552e+003
9.067710e+002, 1.736481e+003
9.072531e+002, 1.740077e+003
9.077352e+002, 1.748577e+003
9.082173e+002, 1.754384e+003
9.086995e+002, 1.754398e+003
9.091816e+002, 1.755031e+003
9.096637e+002, 1.758032e+003
9.101458e+002, 1.762853e+003
9.106279e+002, 1.768132e+003
9.111100e+002, 1.773789e+003
9.115922e+002, 1.779146e+003
9.120743e+002, 1.784841e+003
9.125564e+002, 1.788861e+003
9.130385e+002, 1.786442e+003
9.135206e+002, 1.781718e+003
9.140027e+002, 1.781740e+003
9.144849e+002, 1.794158e+003
9.149670e+002, 1.803138e+003
9.154491e+002, 1.806137e+003
9.159312e+002, 1.806808e+003
9.164133e+002, 1.809822e+003
9.168954e+002, 1.815047e+003
9.173776e+002, 1.820260e+003
9.178597e+002, 1.825399e+003
9.183418e+002, 1.828973e+003
9.188239e+002, 1.828064e+003
9.193060e+002, 1.825660e+003
9.197881e+002, 1.825504e+003
9.202703e+002, 1.829054e+003
9.207524e+002, 1.830135e+003
9.212345e+002, 1.825731e+003
9.217166e+002, 1.821514e+003
9.221987e+002, 1.821152e+003
9.226808e+002, 1.824332e+003
9.231630e+002, 1.824743e+003
9.236451e+002, 1.822415e+003
9.241272e+002, 1.819135e+003
9.246093e+002, 1.815915e+003
9.250914e+002, 1.812526e+003
9.255735e+002, 1.807583e+003
9.260557e+002, 1.801983e+003
9.265378e+002, 1.799493e+003
9.270199e+002, 1.804823e+003
9.275020e+002, 1.808808e+003
9.279841e+002, 1.809030e+003
9.284662e+002, 1.806910e+003
9.289484e+002, 1.806094e+003
9.294305e+002, 1.806481e+003
9.299126e+002, 1.806725e+003
9.303947e+002, 1.806269e+003
9.308768e+002, 1.805755e+003
9.313589e+002, 1.806128e+003
9.318411e+002, 1.806786e+003
9.323232e+002, 1.806865e+003
9.328053e+002, 1.805962e+003
9.332874e+002, 1.804783e+003
9.337695e+002, 1.803572e+003
9.342516e+002, 1.801984e+003
9.347338e+002, 1.799609e+003
9.352159e+002, 1.796475e+003
9.356980e+002, 1.792914e+003
9.361801e+002, 1.788857e+003
9.366622e+002, 1.786455e+003
9.371443e+002, 1.788022e+003
9.376265e+002, 1.791799e+003
9.381086e+002, 1.796950e+003
9.385907e+002, 1.803432e+003
9.390728e+002, 1.807316e+003
9.395549e+002, 1.805922e+003
9.400370e+002, 1.804742e+003
9.405192e+002, 1.805469e+003
9.410013e+002, 1.808049e+003
9.414834e+002, 1.813302e+003
9.419655e+002, 1.820900e+003
9.424476e+002, 1.826931e+003
9.429297e+002, 1.828472e+003
9.434119e+002, 1.828804e+003
9.438940e+002, 1.830503e+003
9.443761e+002, 1.833179e+003
9.448582e+002, 1.836011e+003
9.453403e+002, 1.838456e+003
9.458224e+002, 1.841780e+003
9.463046e+002, 1.846373e+003
9.467867e+002, 1.851560e+003
9.472688e+002, 1.856220e+003
9.477509e+002, 1.860515e+003
9.482330e+002, 1.865545e+003
9.487151e+002, 1.871628e+003
9.491973e+002, 1.877161e+003
9.496794e+002, 1.880803e+003
9.501615e+002, 1.883262e+003
9.506436e+002, 1.885208e+003
9.511257e+002, 1.886742e+003
9.516078e+002, 1.886930e+003
9.520900e+002, 1.884669e+003
9.525721e+002, 1.883350e+003
9.530542e+002, 1.886119e+003
9.535363e+002, 1.891318e+003
9.540184e+002, 1.891787e+003
9.545005e+002, 1.887979e+003
9.549827e+002, 1.882579e+003
9.554648e+002, 1.875361e+003
9.559469e+002, 1.868778e+003
9.564290e+002, 1.864126e+003
9.569111e+002, 1.861347e+003
9.573932e+002, 1.860120e+003
9.578754e+002, 1.860957e+003
9.583575e+002, 1.861906e+003
9.588396e+002, 1.862834e+003
9.593217e+002, 1.863252e+003
9.598038e+002, 1.861495e+003
9.602859e+002, 1.858629e+003
9.607681e+002, 1.857922e+003
9.612502e+002, 1.860793e+003
9.617323e+002, 1.863012e+003
9.622144e+002, 1.861074e+003
9.626965e+002, 1.858312e+003
9.631786e+002, 1.857645e+003
9.636608e+002, 1.859535e+003
9.641429e+002, 1.860682e+003
9.646250e+002, 1.860550e+003
9.651071e+002, 1.862168e+003
9.655892e+002, 1.870941e+003
9.660714e+002, 1.881564e+003
9.665535e+002, 1.881691e+003
9.670356e+002, 1.873490e+003
9.675177e+002, 1.868703e+003
9.679998e+002, 1.876874e+003
9.684819e+002, 1.884762e+003
9.689641e+002, 1.886061e+003
9.694462e+002, 1.883965e+003
9.699283e+002, 1.886146e+003
9.704104e+002, 1.892834e+003
9.708925e+002, 1.901596e+003
9.713746e+002, 1.912576e+003
9.718568e+002, 1.923575e+003
9.723389e+002, 1.931461e+003
9.728210e+002, 1.937876e+003
9.733031e+002, 1.945307e+003
9.737852e+002, 1.954376e+003
9.742673e+002, 1.964311e+003
9.747495e+002, 1.974938e+003
9.752316e+002, 1.986519e+003
9.757137e+002, 1.999107e+003
9.761958e+002, 2.012791e+003
9.766779e+002, 2.028191e+003
9.771600e+002, 2.045351e+003
9.776422e+002, 2.063338e+003
9.781243e+002, 2.081848e+003
9.786064e+002, 2.101066e+003
9.790885e+002, 2.120598e+003
9.795706e+002, 2.140793e+003
9.800527e+002, 2.163795e+003
9.805349e+002, 2.189356e+003
9.810170e+002, 2.218718e+003
9.814991e+002, 2.253321e+003
9.819812e+002, 2.290715e+003
9.824633e+002, 2.324414e+003
9.829454e+002, 2.356322e+003
9.834276e+002, 2.394506e+003
9.839097e+002, 2.442440e+003
9.843918e+002, 2.493780e+003
9.848739e+002, 2.542415e+003
9.853560e+002, 2.594104e+003
9.858381e+002, 2.655617e+003
9.863203e+002, 2.729339e+003
9.868024e+002, 2.802402e+003
9.872845e+002, 2.874230e+003
9.877666e+002, 2.947396e+003
9.882487e+002, 3.022128e+003
9.887308e+002, 3.099840e+003
9.892130e+002, 3.187918e+003
9.896951e+002, 3.283947e+003
9.901772e+002, 3.379427e+003
9.906593e+002, 3.469546e+003
9.911414e+002, 3.559095e+003
9.916235e+002, 3.655340e+003
9.921057e+002, 3.750265e+003
9.925878e+002, 3.828939e+003
9.930699e+002, 3.891191e+003
9.935520e+002, 3.941187e+003
9.940341e+002, 3.980625e+003
9.945162e+002, 4.006243e+003
9.949984e+002, 4.013550e+003
9.954805e+002, 4.004825e+003
9.959626e+002, 3.983156e+003
9.964447e+002, 3.948845e+003
9.969268e+002, 3.901578e+003
9.974089e+002, 3.840400e+003
9.978911e+002, 3.769322e+003
9.983732e+002, 3.687715e+003
9.988553e+002, 3.597839e+003
9.993374e+002, 3.508973e+003
9.998195e+002, 3.422029e+003
1.000302e+003, 3.342471e+003
1.000784e+003, 3.276072e+003
1.001266e+003, 3.214838e+003
1.001748e+003, 3.152665e+003
1.002230e+003, 3.090693e+003
1.002712e+003, 3.032691e+003
1.003194e+003, 2.978375e+003
1.003676e+003, 2.928798e+003
1.004159e+003, 2.883516e+003
1.004641e+003, 2.843337e+003
1.005123e+003, 2.810014e+003
1.005605e+003, 2.781829e+003
1.006087e+003, 2.753913e+003
1.006569e+003, 2.724740e+003
1.007051e+003, 2.700172e+003
1.007533e+003, 2.686288e+003
1.008016e+003, 2.674188e+003
1.008498e+003, 2.658127e+003
1.008980e+003, 2.638502e+003
1.009462e+003, 2.621096e+003
1.009944e+003, 2.605751e+003
1.010426e+003, 2.592886e+003
1.010908e+003, 2.582986e+003
1.011390e+003, 2.575545e+003
1.011872e+003, 2.572732e+003
1.012355e+003, 2.571473e+003
1.012837e+003, 2.565564e+003
1.013319e+003, 2.550955e+003
1.013801e+003, 2.534647e+003
1.014283e+003, 2.517521e+003
1.014765e+003, 2.498585e+003
1.015247e+003, 2.475462e+003
1.015729e+003, 2.448958e+003
1.016211e+003, 2.425729e+003
1.016694e+003, 2.406254e+003
1.017176e+003, 2.384336e+003
1.017658e+003, 2.353117e+003
1.018140e+003, 2.320193e+003
1.018622e+003, 2.290283e+003
1.019104e+003, 2.263295e+003
1.019586e+003, 2.236216e+003
1.020068e+003, 2.208504e+003
1.020551e+003, 2.183177e+003
1.021033e+003, 2.162077e+003
1.021515e+003, 2.142111e+003
1.021997e+003, 2.116124e+003
1.022479e+003, 2.088244e+003
1.022961e+003, 2.066906e+003
1.023443e+003, 2.057118e+003
1.023925e+003, 2.048385e+003
1.024407e+003, 2.038376e+003
1.024890e+003, 2.028331e+003
1.025372e+003, 2.019165e+003
1.025854e+003, 2.010944e+003
1.026336e+003, 2.002014e+003
1.026818e+003, 1.992399e+003
1.027300e+003, 1.984619e+003
1.027782e+003, 1.982021e+003
1.028264e+003, 1.980388e+003
1.028746e+003, 1.976402e+003
1.029229e+003, 1.970501e+003
1.029711e+003, 1.964681e+003
1.030193e+003, 1.958749e+003
1.030675e+003, 1.953727e+003
1.031157e+003, 1.949889e+003
1.031639e+003, 1.946780e+003
1.032121e+003, 1.943684e+003
1.032603e+003, 1.940727e+003
1.033086e+003, 1.938469e+003
1.033568e+003, 1.937111e+003
1.034050e+003, 1.935341e+003
1.034532e+003, 1.932578e+003
1.035014e+003, 1.929209e+003
1.035496e+003, 1.925197e+003
1.035978e+003, 1.920697e+003
1.036460e+003, 1.917028e+003
1.036943e+003, 1.914244e+003
1.037425e+003, 1.912397e+003
1.037907e+003, 1.911586e+003
1.038389e+003, 1.911705e+003
1.038871e+003, 1.913289e+003
1.039353e+003, 1.915590e+003
1.039835e+003, 1.917288e+003
1.040317e+003, 1.918573e+003
1.040799e+003, 1.918208e+003
1.041281e+003, 1.915355e+003
1.041764e+003, 1.912727e+003
1.042246e+003, 1.914486e+003
1.042728e+003, 1.918261e+003
1.043210e+003, 1.916587e+003
1.043692e+003, 1.909576e+003
1.044174e+003, 1.904416e+003
1.044656e+003, 1.906450e+003
1.045138e+003, 1.909211e+003
1.045621e+003, 1.910620e+003
1.046103e+003, 1.910524e+003
1.046585e+003, 1.907892e+003
1.047067e+003, 1.902689e+003
1.047549e+003, 1.898305e+003
1.048031e+003, 1.895739e+003
1.048513e+003, 1.893966e+003
1.048995e+003, 1.891560e+003
1.049478e+003, 1.889674e+003
1.049960e+003, 1.890065e+003
1.050442e+003, 1.894222e+003
1.050924e+003, 1.895530e+003
1.051406e+003, 1.892597e+003
1.051888e+003, 1.890029e+003
1.052370e+003, 1.891065e+003
1.052852e+003, 1.893916e+003
1.053334e+003, 1.893236e+003
1.053817e+003, 1.890169e+003
1.054299e+003, 1.888582e+003
1.054781e+003, 1.891224e+003
1.055263e+003, 1.894293e+003
1.055745e+003, 1.898032e+003
1.056227e+003, 1.900563e+003
1.056709e+003, 1.898742e+003
1.057191e+003, 1.892465e+003
1.057673e+003, 1.889646e+003
1.058156e+003, 1.891051e+003
1.058638e+003, 1.891965e+003
1.059120e+003, 1.887183e+003
1.059602e+003, 1.881401e+003
1.060084e+003, 1.878445e+003
1.060566e+003, 1.878429e+003
1.061048e+003, 1.879455e+003
1.061530e+003, 1.882565e+003
1.062013e+003, 1.883268e+003
1.062495e+003, 1.879619e+003
1.062977e+003, 1.874693e+003
1.063459e+003, 1.873081e+003
1.063941e+003, 1.873977e+003
1.064423e+003, 1.876148e+003
1.064905e+003, 1.879969e+003
1.065387e+003, 1.882516e+003
1.065870e+003, 1.881018e+003
1.066352e+003, 1.879940e+003
1.066834e+003, 1.882243e+003
1.067316e+003, 1.887124e+003
1.067798e+003, 1.888188e+003
1.068280e+003, 1.885803e+003
1.068762e+003, 1.883406e+003
1.069244e+003, 1.883008e+003
1.069726e+003, 1.882885e+003
1.070208e+003, 1.881296e+003
1.070691e+003, 1.879540e+003
1.071173e+003, 1.879874e+003
1.071655e+003, 1.883149e+003
1.072137e+003, 1.885455e+003
1.072619e+003, 1.886558e+003
1.073101e+003, 1.887122e+003
1.073583e+003, 1.887747e+003
1.074065e+003, 1.888237e+003
1.074548e+003, 1.888257e+003
1.075030e+003, 1.887854e+003
1.075512e+003, 1.887444e+003
1.075994e+003, 1.886374e+003
1.076476e+003, 1.886507e+003
1.076958e+003, 1.888416e+003
1.077440e+003, 1.891485e+003
1.077922e+003, 1.895407e+003
1.078405e+003, 1.899529e+003
1.078887e+003, 1.901822e+003
1.079369e+003, 1.901916e+003
1.079851e+003, 1.900062e+003
1.080333e+003, 1.894096e+003
1.080815e+003, 1.888343e+003
1.081297e+003, 1.885543e+003
1.081779e+003, 1.885468e+003
1.082261e+003, 1.885808e+003
1.082744e+003, 1.886569e+003
1.083226e+003, 1.888792e+003
1.083708e+003, 1.894592e+003
1.084190e+003, 1.899462e+003
1.084672e+003, 1.897324e+003
1.085154e+003, 1.892250e+003
1.085636e+003, 1.890510e+003
1.086118e+003, 1.895024e+003
1.086601e+003, 1.897121e+003
1.087083e+003, 1.896247e+003
1.087565e+003, 1.894960e+003
1.088047e+003, 1.895677e+003
1.088529e+003, 1.897178e+003
1.089011e+003, 1.896855e+003
1.089493e+003, 1.895263e+003
1.089975e+003, 1.894808e+003
1.090458e+003, 1.897819e+003
1.090940e+003, 1.900311e+003
1.091422e+003, 1.902123e+003
1.091904e+003, 1.902430e+003
1.092386e+003, 1.898143e+003
1.092868e+003, 1.890996e+003
1.093350e+003, 1.889473e+003
1.093832e+003, 1.894767e+003
1.094314e+003, 1.900258e+003
1.094797e+003, 1.901687e+003
1.095279e+003, 1.902208e+003
1.095761e+003, 1.903472e+003
1.096243e+003, 1.905366e+003
1.096725e+003, 1.907550e+003
1.097207e+003, 1.910019e+003
1.097689e+003, 1.912429e+003
1.098171e+003, 1.914777e+003
1.098653e+003, 1.916714e+003
1.099136e+003, 1.918337e+003
1.099618e+003, 1.919122e+003
1.100100e+003, 1.917806e+003
1.100582e+003, 1.913037e+003
1.101064e+003, 1.913228e+003
1.101546e+003, 1.920323e+003
1.102028e+003, 1.925063e+003
1.102510e+003, 1.919708e+003
1.102993e+003, 1.911222e+003
1.103475e+003, 1.913417e+003
1.103957e+003, 1.922142e+003
1.104439e+003, 1.928025e+003
1.104921e+003, 1.925786e+003
1.105403e+003, 1.923437e+003
1.105885e+003, 1.921835e+003
1.106367e+003, 1.920282e+003
1.106849e+003, 1.917779e+003
1.107332e+003, 1.914802e+003
1.107814e+003, 1.913085e+003
1.108296e+003, 1.912689e+003
1.108778e+003, 1.913537e+003
1.109260e+003, 1.917839e+003
1.109742e+003, 1.920823e+003
1.110224e+003, 1.920045e+003
1.110706e+003, 1.917151e+003
1.111188e+003, 1.913994e+003
1.111671e+003, 1.910664e+003
1.112153e+003, 1.910664e+003
1.112635e+003, 1.914703e+003
1.113117e+003, 1.919485e+003
1.113599e+003, 1.924017e+003
1.114081e+003, 1.926846e+003
1.114563e+003, 1.925696e+003
1.115045e+003, 1.921176e+003
1.115528e+003, 1.917904e+003
1.116010e+003, 1.915439e+003
1.116492e+003, 1.917329e+003
1.116974e+003, 1.926169e+003
1.117456e+003, 1.935450e+003
1.117938e+003, 1.936003e+003
1.118420e+003, 1.932446e+003
1.118902e+003, 1.930591e+003
1.119385e+003, 1.931617e+003
1.119867e+003, 1.933846e+003
1.120349e+003, 1.937821e+003
1.120831e+003, 1.941152e+003
1.121313e+003, 1.942919e+003
1.121795e+003, 1.942892e+003
1.122277e+003, 1.939686e+003
1.122759e+003, 1.934448e+003
1.123241e+003, 1.929871e+003
1.123724e+003, 1.926435e+003
1.124206e+003, 1.924761e+003
1.124688e+003, 1.925398e+003
1.125170e+003, 1.927124e+003
1.125652e+003, 1.929606e+003
1.126134e+003, 1.932480e+003
1.126616e+003, 1.933410e+003
1.127098e+003, 1.932618e+003
1.127580e+003, 1.931385e+003
1.128063e+003, 1.929196e+003
1.128545e+003, 1.928147e+003
1.129027e+003, 1.929711e+003
1.129509e+003, 1.932486e+003
1.129991e+003, 1.935117e+003
1.130473e+003, 1.937538e+003
1.130955e+003, 1.937644e+003
1.131437e+003, 1.935146e+003
1.131920e+003, 1.933598e+003
1.132402e+003, 1.936723e+003
1.132884e+003, 1.940660e+003
1.133366e+003, 1.942338e+003
1.133848e+003, 1.942549e+003
1.134330e+003, 1.944870e+003
1.134812e+003, 1.949723e+003
1.135294e+003, 1.953053e+003
1.135776e+003, 1.953893e+003
1.136259e+003, 1.953652e+003
1.136741e+003, 1.953565e+003
1.137223e+003, 1.953315e+003
1.137705e+003, 1.951923e+003
1.138187e+003, 1.949256e+003
1.138669e+003, 1.950172e+003
1.139151e+003, 1.956228e+003
1.139633e+003, 1.960386e+003
1.140115e+003, 1.959820e+003
1.140598e+003, 1.957029e+003
1.141080e+003, 1.954221e+003
1.141562e+003, 1.952296e+003
1.142044e+003, 1.953139e+003
1.142526e+003, 1.958687e+003
1.143008e+003, 1.961271e+003
1.143490e+003, 1.958908e+003
1.143972e+003, 1.956961e+003
1.144455e+003, 1.959133e+003
1.144937e+003, 1.963122e+003
1.145419e+003, 1.963353e+003
1.145901e+003, 1.960867e+003
1.146383e+003, 1.958269e+003
1.146865e+003, 1.955411e+003
1.147347e+003, 1.954463e+003
1.147829e+003, 1.956186e+003
1.148312e+003, 1.958972e+003
1.148794e+003, 1.962067e+003
1.149276e+003, 1.965195e+003
1.149758e+003, 1.966476e+003
1.150240e+003, 1.966243e+003
1.150722e+003, 1.966313e+003
1.151204e+003, 1.969281e+003
1.151686e+003, 1.970487e+003
1.152168e+003, 1.966325e+003
1.152651e+003, 1.961520e+003
1.153133e+003, 1.961916e+003
1.153615e+003, 1.967026e+003
1.154097e+003, 1.972350e+003
1.154579e+003, 1.977484e+003
1.155061e+003, 1.981779e+003
1.155543e+003, 1.984367e+003
1.156025e+003, 1.986415e+003
1.156507e+003, 1.989377e+003
1.156990e+003, 1.991898e+003
1.157472e+003, 1.989909e+003
1.157954e+003, 1.983348e+003
1.158436e+003, 1.982891e+003
1.158918e+003, 1.990591e+003
1.159400e+003, 1.996987e+003
1.159882e+003, 1.991146e+003
1.160364e+003, 1.983823e+003
1.160847e+003, 1.984526e+003
1.161329e+003, 1.991438e+003
1.161811e+003, 1.993817e+003
1.162293e+003, 1.991234e+003
1.162775e+003, 1.988937e+003
1.163257e+003, 1.988348e+003
1.163739e+003, 1.987816e+003
1.164221e+003, 1.983786e+003
1.164703e+003, 1.980241e+003
1.165186e+003, 1.982843e+003
1.165668e+003, 1.992347e+003
1.166150e+003, 1.994767e+003
1.166632e+003, 1.988674e+003
1.167114e+003, 1.983838e+003
1.167596e+003, 1.983859e+003
1.168078e+003, 1.986691e+003
1.168560e+003, 1.991645e+003
1.169042e+003, 1.996854e+003
1.169525e+003, 1.999374e+003
1.170007e+003, 1.997620e+003
1.170489e+003, 1.997650e+003
1.170971e+003, 1.999648e+003
1.171453e+003, 2.002882e+003
1.171935e+003, 2.008271e+003
1.172417e+003, 2.013153e+003
1.172899e+003, 2.011989e+003
1.173382e+003, 2.007613e+003
1.173864e+003, 2.005226e+003
1.174346e+003, 2.006875e+003
1.174828e+003, 2.009036e+003
1.175310e+003, 2.011718e+003
1.175792e+003, 2.014634e+003
1.176274e+003, 2.018050e+003
1.176756e+003, 2.021321e+003
1.177239e+003, 2.023738e+003
1.177721e+003, 2.025062e+003
1.178203e+003, 2.024720e+003
1.178685e+003, 2.020793e+003
1.179167e+003, 2.017945e+003
1.179649e+003, 2.016782e+003
1.180131e+003, 2.016180e+003
1.180613e+003, 2.015333e+003
1.181095e+003, 2.014253e+003
1.181578e+003, 2.012604e+003
1.182060e+003, 2.010648e+003
1.182542e+003, 2.009458e+003
1.183024e+003, 2.008124e+003
1.183506e+003, 2.010073e+003
1.183988e+003, 2.017343e+003
1.184470e+003, 2.025044e+003
1.184952e+003, 2.026721e+003
1.185434e+003, 2.024491e+003
1.185917e+003, 2.023427e+003
1.186399e+003, 2.023821e+003
1.186881e+003, 2.024954e+003
1.187363e+003, 2.027229e+003
1.187845e+003, 2.029252e+003
1.188327e+003, 2.030927e+003
1.188809e+003, 2.031841e+003
1.189291e+003, 2.030136e+003
1.189774e+003, 2.027273e+003
1.190256e+003, 2.028786e+003
1.190738e+003, 2.035187e+003
1.191220e+003, 2.039537e+003
1.191702e+003, 2.035663e+003
1.192184e+003, 2.033354e+003
1.192666e+003, 2.036300e+003
1.193148e+003, 2.041768e+003
1.193630e+003, 2.044938e+003
1.194113e+003, 2.045972e+003
1.194595e+003, 2.044292e+003
1.195077e+003, 2.039424e+003
1.195559e+003, 2.037527e+003
1.196041e+003, 2.045341e+003
1.196523e+003, 2.052294e+003
1.197005e+003, 2.054542e+003
1.197487e+003, 2.053069e+003
1.197969e+003, 2.048655e+003
1.198452e+003, 2.042687e+003
1.198934e+003, 2.040672e+003
1.199416e+003, 2.044649e+003
1.199898e+003, 2.048535e+003
1.200380e+003, 2.050949e+003
1.200862e+003, 2.050543e+003
1.201344e+003, 2.044673e+003
1.201826e+003, 2.036520e+003
1.202309e+003, 2.040203e+003
1.202791e+003, 2.052431e+003
1.203273e+003, 2.059284e+003
1.203755e+003, 2.054457e+003
1.204237e+003, 2.051030e+003
1.204719e+003, 2.059510e+003
1.205201e+003, 2.066250e+003
1.205683e+003, 2.061811e+003
1.206166e+003, 2.049822e+003
1.206648e+003, 2.047513e+003
1.207130e+003, 2.052947e+003
1.207612e+003, 2.057755e+003
1.208094e+003, 2.058518e+003
1.208576e+003, 2.058953e+003
1.209058e+003, 2.060882e+003
1.209540e+003, 2.062694e+003
1.210022e+003, 2.063685e+003
1.210505e+003, 2.063675e+003
1.210987e+003, 2.060262e+003
1.211469e+003, 2.054457e+003
1.211951e+003, 2.051167e+003
1.212433e+003, 2.052786e+003
1.212915e+003, 2.056821e+003
1.213397e+003, 2.065881e+003
1.213879e+003, 2.073443e+003
1.214361e+003, 2.073352e+003
1.214844e+003, 2.066985e+003
1.215326e+003, 2.064004e+003
1.215808e+003, 2.064193e+003
1.216290e+003, 2.066364e+003
1.216772e+003, 2.072245e+003
1.217254e+003, 2.076912e+003
1.217736e+003, 2.077490e+003
1.218218e+003, 2.077746e+003
1.218701e+003, 2.081830e+003
1.219183e+003, 2.088716e+003
1.219665e+003, 2.092277e+003
1.220147e+003, 2.092352e+003
1.220629e+003, 2.088754e+003
1.221111e+003, 2.074538e+003
1.221593e+003, 2.065989e+003
1.222075e+003, 2.070328e+003
1.222557e+003, 2.078649e+003
1.223040e+003, 2.082624e+003
1.223522e+003, 2.082929e+003
1.224004e+003, 2.082695e+003
1.224486e+003, 2.081933e+003
1.224968e+003, 2.079942e+003
1.225450e+003, 2.072942e+003
1.225932e+003, 2.069580e+003
1.226414e+003, 2.072844e+003
1.226896e+003, 2.078735e+003
1.227379e+003, 2.083655e+003
1.227861e+003, 2.087242e+003
1.228343e+003, 2.087745e+003
1.228825e+003, 2.085484e+003
1.229307e+003, 2.083153e+003
1.229789e+003, 2.081154e+003
1.230271e+003, 2.080417e+003
1.230753e+003, 2.081314e+003
1.231236e+003, 2.083119e+003
1.231718e+003, 2.085503e+003
1.232200e+003, 2.087912e+003
1.232682e+003, 2.087904e+003
1.233164e+003, 2.085825e+003
1.233646e+003, 2.085560e+003
1.234128e+003, 2.091256e+003
1.234610e+003, 2.095380e+003
1.235093e+003, 2.096182e+003
1.235575e+003, 2.095479e+003
1.236057e+003, 2.094998e+003
1.236539e+003, 2.095066e+003
1.237021e+003, 2.097024e+003
1.237503e+003, 2.100659e+003
1.237985e+003, 2.103154e+003
1.238467e+003, 2.102925e+003
1.238949e+003, 2.102104e+003
1.239432e+003, 2.100410e+003
1.239914e+003, 2.099536e+003
1.240396e+003, 2.102479e+003
1.240878e+003, 2.107618e+003
1.241360e+003, 2.112443e+003
1.241842e+003, 2.116651e+003
1.242324e+003, 2.119078e+003
1.242806e+003, 2.118376e+003
1.243288e+003, 2.118441e+003
1.243771e+003, 2.120136e+003
1.244253e+003, 2.122466e+003
1.244735e+003, 2.124151e+003
1.245217e+003, 2.125622e+003
1.245699e+003, 2.127792e+003
1.246181e+003, 2.130646e+003
1.246663e+003, 2.132649e+003
1.247145e+003, 2.134185e+003
1.247628e+003, 2.133163e+003
1.248110e+003, 2.128359e+003
1.248592e+003, 2.123692e+003
1.249074e+003, 2.125615e+003
1.249556e+003, 2.129589e+003
1.250038e+003, 2.129919e+003
1.250520e+003, 2.126279e+003
1.251002e+003, 2.123519e+003
1.251484e+003, 2.121740e+003
1.251967e+003, 2.121395e+003
1.252449e+003, 2.122862e+003
1.252931e+003, 2.124743e+003
1.253413e+003, 2.125657e+003
1.253895e+003, 2.126106e+003
1.254377e+003, 2.125969e+003
1.254859e+003, 2.125575e+003
1.255341e+003, 2.128071e+003
1.255823e+003, 2.133942e+003
1.256306e+003, 2.138464e+003
1.256788e+003, 2.140531e+003
1.257270e+003, 2.140806e+003
1.257752e+003, 2.138548e+003
1.258234e+003, 2.135840e+003
1.258716e+003, 2.133554e+003
1.259198e+003, 2.132314e+003
1.259680e+003, 2.136736e+003
1.260163e+003, 2.146925e+003
1.260645e+003, 2.152660e+003
1.261127e+003, 2.151253e+003
1.261609e+003, 2.148156e+003
1.262091e+003, 2.147782e+003
1.262573e+003, 2.146881e+003
1.263055e+003, 2.142068e+003
1.263537e+003, 2.135265e+003
1.264020e+003, 2.133764e+003
1.264502e+003, 2.137007e+003
1.264984e+003, 2.141510e+003
1.265466e+003, 2.146928e+003
1.265948e+003, 2.150133e+003
1.266430e+003, 2.147636e+003
1.266912e+003, 2.144047e+003
1.267394e+003, 2.141311e+003
1.267876e+003, 2.139514e+003
1.268359e+003, 2.138373e+003
1.268841e+003, 2.138247e+003
1.269323e+003, 2.141340e+003
1.269805e+003, 2.148689e+003
1.270287e+003, 2.153989e+003
1.270769e+003, 2.153398e+003
1.271251e+003, 2.151471e+003
1.271733e+003, 2.149223e+003
1.272215e+003, 2.147184e+003
1.272698e+003, 2.146633e+003
1.273180e+003, 2.147188e+003
1.273662e+003, 2.148448e+003
1.274144e+003, 2.150646e+003
1.274626e+003, 2.150582e+003
1.275108e+003, 2.146061e+003
1.275590e+003, 2.143057e+003
1.276072e+003, 2.144112e+003
1.276555e+003, 2.146455e+003
1.277037e+003, 2.144550e+003
1.277519e+003, 2.141279e+003
1.278001e+003, 2.141541e+003
1.278483e+003, 2.146398e+003
1.278965e+003, 2.149462e+003
1.279447e+003, 2.149702e+003
1.279929e+003, 2.150560e+003
1.280411e+003, 2.153299e+003
1.280894e+003, 2.156260e+003
1.281376e+003, 2.157659e+003
1.281858e+003, 2.157969e+003
1.282340e+003, 2.156995e+003
1.282822e+003, 2.154951e+003
1.283304e+003, 2.156284e+003
1.283786e+003, 2.161389e+003
1.284268e+003, 2.165828e+003
1.284750e+003, 2.168583e+003
1.285233e+003, 2.169817e+003
1.285715e+003, 2.169427e+003
1.286197e+003, 2.167826e+003
1.286679e+003, 2.164462e+003
1.287161e+003, 2.160219e+003
1.287643e+003, 2.158530e+003
1.288125e+003, 2.159382e+003
1.288607e+003, 2.163162e+003
1.289090e+003, 2.170646e+003
1.289572e+003, 2.176359e+003
1.290054e+003, 2.175515e+003
1.290536e+003, 2.173331e+003
1.291018e+003, 2.172196e+003
1.291500e+003, 2.172175e+003
1.291982e+003, 2.174447e+003
1.292464e+003, 2.178031e+003
1.292947e+003, 2.178765e+003
1.293429e+003, 2.175393e+003
1.293911e+003, 2.173871e+003
1.294393e+003, 2.179289e+003
1.294875e+003, 2.183293e+003
1.295357e+003, 2.182796e+003
1.295839e+003, 2.180224e+003
1.296321e+003, 2.180141e+003
1.296803e+003, 2.181729e+003
1.297286e+003, 2.183644e+003
1.297768e+003, 2.185692e+003
1.298250e+003, 2.186390e+003
1.298732e+003, 2.184029e+003
1.299214e+003, 2.185074e+003
1.299696e+003, 2.192638e+003
1.300178e+003, 2.200287e+003
1.300660e+003, 2.202635e+003
##END=



