##NAMES=Proustite
##RRUFFID=R060356
##IDEAL CHEMISTRY=Ag^1+^_3_As^3+^S^2-^_3_
##LOCALITY=Chanarcillo, Atacama Province, Chile
##OWNER=RRUFF
##SOURCE=Herb Obodda
##DESCRIPTION=Red scalenohedral crystal
##STATUS=The identification of this mineral has been confirmed by X-ray diffraction and chemical analysis
##URL=rruff.info/R060356
##MEASURED CHEMISTRY=Ag_3.01_As_0.99_S_3.00_
90.01007, 0.0000000E+00
90.49219, 8.164382
90.97430, 11.58764
91.45642, 12.80527
91.93854, 9.983039
92.42065, 5.485593
92.90277, 2.825191
93.38489, 2.370060
93.86700, 2.952749
94.34912, 3.616065
94.83124, 4.283459
95.31335, 4.483929
95.79547, 3.433270
96.27759, 1.537617
96.75970, 0.5200709
97.24182, 0.8374707
97.72394, 1.880653
98.20605, 2.290889
98.68817, 1.997360
99.17029, 1.653691
99.65240, 1.841551
100.1345, 2.606263
100.6166, 3.241691
101.0988, 3.580277
101.5809, 3.660732
102.0630, 3.892566
102.5451, 4.429282
103.0272, 4.848805
103.5093, 4.600955
103.9915, 3.409678
104.4736, 2.259720
104.9557, 1.337094
105.4378, 0.5851842
105.9199, 0.4120960
106.4020, 1.058692
106.8842, 2.163715
107.3663, 3.143821
107.8484, 4.140032
108.3305, 4.836097
108.8126, 5.088567
109.2947, 4.563866
109.7769, 4.152229
110.2590, 4.205862
110.7411, 4.432309
111.2232, 3.922499
111.7053, 1.215580
112.1874, -1.216375
112.6696, -2.240739
113.1517, -6.5192834E-02
113.6338, 1.707825
114.1159, 2.451052
114.5980, 2.281905
115.0801, 2.080203
115.5623, 2.180599
116.0444, 2.260962
116.5265, 2.073239
117.0086, 0.8389723
117.4907, -5.1438771E-02
117.9728, 0.1765130
118.4550, 1.576951
118.9371, 2.781648
119.4192, 3.168241
119.9013, 3.013653
120.3834, 2.662962
120.8655, 1.978165
121.3477, 1.322740
121.8298, 0.9212248
122.3119, 0.7774685
122.7940, 0.9511434
123.2761, 1.804765
123.7582, 3.036283
124.2404, 3.973047
124.7225, 4.109942
125.2046, 3.802853
125.6867, 3.476048
126.1688, 3.190189
126.6509, 2.819868
127.1331, 2.517963
127.6152, 2.072938
128.0973, 1.644964
128.5794, 1.239748
129.0615, 0.8927750
129.5436, 0.7183396
130.0258, 0.8333043
130.5079, 1.031250
130.9900, 0.7744579
131.4721, 6.5705597E-02
131.9542, -0.4154084
132.4363, 0.1241618
132.9185, 1.535876
133.4006, 2.820629
133.8827, 3.832158
134.3648, 4.488183
134.8469, 4.326593
135.3290, 3.169909
135.8112, 1.971806
136.2933, 1.934136
136.7754, 3.123594
137.2575, 4.402207
137.7396, 5.497821
138.2217, 6.388789
138.7039, 6.947294
139.1860, 7.187850
139.6681, 7.071067
140.1502, 6.339384
140.6323, 4.700999
141.1144, 3.442641
141.5966, 3.123092
142.0787, 3.934005
142.5608, 4.887171
143.0429, 6.086541
143.5250, 7.367686
144.0071, 8.315118
144.4893, 8.735139
144.9714, 9.122557
145.4535, 9.685153
145.9356, 10.46887
146.4177, 11.37451
146.8998, 12.62182
147.3820, 14.02247
147.8641, 14.77841
148.3462, 13.99100
148.8283, 13.39404
149.3104, 13.94289
149.7925, 16.89924
150.2747, 19.36054
150.7568, 21.08648
151.2389, 22.11292
151.7210, 22.80435
152.2031, 22.37888
152.6852, 22.08404
153.1674, 22.69270
153.6495, 25.44634
154.1316, 27.83827
154.6137, 29.47692
155.0958, 30.34595
155.5779, 30.97962
156.0601, 30.72454
156.5422, 30.58027
157.0243, 31.40764
157.5064, 35.09423
157.9885, 38.15644
158.4706, 39.17054
158.9528, 37.76994
159.4349, 37.04152
159.9170, 38.25237
160.3991, 40.41268
160.8812, 42.37822
161.3633, 43.84698
161.8455, 45.03023
162.3276, 45.83714
162.8097, 46.08443
163.2918, 46.79376
163.7739, 48.52256
164.2560, 50.89473
164.7382, 53.07009
165.2203, 55.90388
165.7024, 58.30177
166.1845, 59.19061
166.6666, 57.85256
167.1487, 57.01144
167.6309, 58.68697
168.1130, 61.94576
168.5951, 64.79067
169.0772, 66.28716
169.5593, 67.00984
170.0414, 67.28718
170.5236, 66.86522
171.0057, 66.74635
171.4878, 67.87103
171.9699, 69.94117
172.4520, 72.03250
172.9341, 73.77892
173.4163, 75.22320
173.8984, 76.32082
174.3805, 76.77462
174.8626, 77.36373
175.3447, 79.28694
175.8268, 82.21796
176.3090, 84.63886
176.7911, 85.12258
177.2732, 84.48296
177.7553, 83.99474
178.2374, 83.93026
178.7195, 84.20567
179.2017, 84.92830
179.6838, 86.04301
180.1659, 86.95206
180.6480, 86.72403
181.1301, 85.93331
181.6122, 86.02734
182.0944, 88.12864
182.5765, 90.81211
183.0586, 91.51385
183.5407, 90.24751
184.0228, 88.44151
184.5049, 87.36120
184.9871, 86.80462
185.4692, 86.10661
185.9513, 85.16090
186.4334, 83.89958
186.9155, 81.80616
187.3976, 78.79600
187.8798, 76.04069
188.3619, 75.02090
188.8440, 75.47937
189.3261, 75.85416
189.8082, 75.73752
190.2903, 75.13262
190.7725, 73.93768
191.2546, 72.06461
191.7367, 69.98546
192.2188, 68.15715
192.7009, 66.55866
193.1830, 65.12537
193.6652, 63.87186
194.1473, 62.76582
194.6294, 61.71717
195.1115, 60.75525
195.5936, 59.75389
196.0757, 58.42180
196.5579, 56.73809
197.0400, 55.31474
197.5221, 54.50178
198.0042, 54.25449
198.4863, 53.79412
198.9684, 53.03182
199.4506, 52.25863
199.9327, 52.03678
200.4148, 52.44436
200.8969, 52.67742
201.3790, 52.33237
201.8611, 51.38665
202.3433, 50.52810
202.8254, 49.72243
203.3075, 49.05232
203.7896, 48.77397
204.2717, 48.99226
204.7538, 49.05729
205.2360, 48.52192
205.7181, 47.25452
206.2002, 46.61927
206.6823, 46.71542
207.1644, 47.31855
207.6465, 48.15477
208.1287, 49.36610
208.6108, 50.29066
209.0929, 50.58492
209.5750, 50.14617
210.0571, 49.63133
210.5392, 49.03627
211.0214, 48.37316
211.5035, 47.53990
211.9856, 46.31542
212.4677, 45.54723
212.9498, 45.84980
213.4319, 47.65989
213.9140, 48.63811
214.3962, 48.53144
214.8783, 47.73260
215.3604, 47.10520
215.8425, 46.62170
216.3246, 46.35393
216.8067, 46.43758
217.2889, 47.10915
217.7710, 47.25604
218.2531, 46.58910
218.7352, 45.52782
219.2173, 45.09471
219.6994, 45.50570
220.1816, 46.13160
220.6637, 46.75305
221.1458, 47.47330
221.6279, 47.91487
222.1100, 48.14849
222.5921, 48.07856
223.0743, 47.31530
223.5564, 45.34364
224.0385, 43.59563
224.5206, 42.78923
225.0027, 43.18284
225.4848, 43.84344
225.9670, 45.06239
226.4491, 46.43648
226.9312, 46.83922
227.4133, 45.79626
227.8954, 44.54361
228.3775, 43.66299
228.8597, 43.26905
229.3418, 42.91454
229.8239, 42.52156
230.3060, 42.18098
230.7881, 42.21151
231.2702, 42.92643
231.7524, 43.53524
232.2345, 43.62311
232.7166, 42.83546
233.1987, 42.36997
233.6808, 42.36449
234.1629, 42.64936
234.6451, 42.76868
235.1272, 42.62883
235.6093, 42.46349
236.0914, 42.44526
236.5735, 42.93148
237.0556, 42.68395
237.5378, 41.20418
238.0199, 39.13768
238.5020, 38.15483
238.9841, 38.69372
239.4662, 39.65193
239.9483, 40.65136
240.4305, 41.91879
240.9126, 42.64980
241.3947, 42.64006
241.8768, 42.15814
242.3589, 41.89318
242.8410, 42.09396
243.3232, 42.12887
243.8053, 41.65375
244.2874, 40.24596
244.7695, 39.33850
245.2516, 38.93926
245.7337, 39.02663
246.2159, 39.65161
246.6980, 41.31059
247.1801, 42.72662
247.6622, 43.30451
248.1443, 42.54388
248.6264, 42.39981
249.1086, 43.19613
249.5907, 44.44917
250.0728, 45.18649
250.5549, 45.35669
251.0370, 45.09307
251.5191, 44.30148
252.0013, 42.64703
252.4834, 41.62859
252.9655, 41.45455
253.4476, 41.79679
253.9297, 42.03229
254.4118, 41.97095
254.8940, 42.15496
255.3761, 42.86990
255.8582, 44.34432
256.3403, 45.44502
256.8224, 46.11997
257.3046, 46.46472
257.7867, 46.56477
258.2688, 46.23957
258.7509, 46.05944
259.2330, 46.29435
259.7151, 47.07514
260.1973, 47.48560
260.6794, 47.38948
261.1615, 47.05017
261.6436, 46.87965
262.1257, 47.00848
262.6078, 46.97240
263.0900, 46.50585
263.5721, 45.50359
264.0542, 45.14814
264.5363, 45.75494
265.0184, 46.62535
265.5005, 46.74172
265.9827, 45.69664
266.4648, 45.09780
266.9469, 45.56852
267.4290, 47.13815
267.9111, 48.28766
268.3932, 49.11134
268.8754, 49.35005
269.3575, 48.44480
269.8396, 45.92243
270.3217, 43.97741
270.8038, 43.25665
271.2859, 43.69211
271.7681, 44.10118
272.2502, 44.51208
272.7323, 44.83938
273.2144, 44.95308
273.6965, 44.81039
274.1786, 44.70771
274.6608, 44.77918
275.1429, 44.96145
275.6250, 44.70406
276.1071, 43.85695
276.5892, 43.00166
277.0714, 42.70782
277.5535, 43.02180
278.0356, 43.47526
278.5177, 44.10354
278.9998, 44.77705
279.4819, 44.84959
279.9641, 44.19370
280.4462, 43.47369
280.9283, 43.35554
281.4104, 43.87257
281.8925, 43.91854
282.3746, 43.14431
282.8568, 41.92934
283.3389, 41.32116
283.8210, 41.34590
284.3031, 41.77109
284.7852, 42.77693
285.2673, 44.28339
285.7495, 44.85183
286.2316, 43.99740
286.7137, 42.56326
287.1958, 42.51381
287.6779, 43.89606
288.1600, 45.19118
288.6422, 45.29285
289.1243, 44.37593
289.6064, 43.70557
290.0885, 43.39029
290.5706, 43.31797
291.0527, 43.48610
291.5349, 43.86118
292.0170, 43.94139
292.4991, 43.13273
292.9812, 41.75436
293.4633, 40.98637
293.9454, 40.91199
294.4276, 41.32476
294.9097, 42.14119
295.3918, 43.28740
295.8739, 44.36010
296.3560, 45.30754
296.8381, 46.02433
297.3203, 46.03772
297.8024, 45.25967
298.2845, 44.51587
298.7666, 44.97541
299.2487, 46.24146
299.7308, 47.10572
300.2130, 46.64650
300.6951, 45.64061
301.1772, 45.41328
301.6593, 45.96148
302.1414, 46.66878
302.6235, 47.05787
303.1057, 47.21279
303.5878, 47.28041
304.0699, 47.17287
304.5520, 47.11491
305.0341, 47.40536
305.5162, 48.01500
305.9984, 48.71636
306.4805, 49.41965
306.9626, 50.09044
307.4447, 50.68351
307.9268, 51.27874
308.4089, 51.67884
308.8911, 51.40953
309.3732, 50.68516
309.8553, 50.38963
310.3374, 51.38013
310.8195, 52.90031
311.3016, 54.16502
311.7838, 54.87486
312.2659, 55.59213
312.7480, 56.73737
313.2301, 58.16611
313.7122, 59.54167
314.1943, 60.68899
314.6765, 61.75263
315.1586, 62.83109
315.6407, 63.93293
316.1228, 65.06037
316.6049, 66.10544
317.0870, 67.18791
317.5692, 68.48640
318.0513, 70.24277
318.5334, 72.09602
319.0155, 73.83800
319.4976, 75.43643
319.9797, 77.14676
320.4619, 79.05009
320.9440, 81.11827
321.4261, 83.29359
321.9082, 85.64056
322.3903, 88.03505
322.8724, 90.57164
323.3546, 93.25696
323.8367, 95.54130
324.3188, 96.69463
324.8009, 97.75673
325.2830, 99.50639
325.7651, 102.8957
326.2473, 106.0424
326.7294, 108.4493
327.2115, 110.2498
327.6936, 112.5173
328.1757, 116.0942
328.6578, 119.5578
329.1400, 122.2010
329.6221, 123.0118
330.1042, 124.3432
330.5863, 126.7072
331.0684, 129.6222
331.5505, 131.5931
332.0327, 131.8335
332.5148, 132.0708
332.9969, 133.0223
333.4790, 135.0007
333.9611, 136.7574
334.4432, 138.1537
334.9254, 139.4125
335.4075, 141.0099
335.8896, 143.4687
336.3717, 145.2168
336.8538, 145.5063
337.3359, 144.1378
337.8180, 143.6487
338.3001, 144.5103
338.7823, 145.5347
339.2644, 145.3152
339.7465, 143.6407
340.2286, 141.6521
340.7107, 139.6319
341.1928, 137.5145
341.6750, 134.8623
342.1571, 131.3998
342.6392, 128.2800
343.1213, 126.6333
343.6034, 126.4951
344.0855, 126.1150
344.5677, 124.8918
345.0498, 123.5924
345.5319, 124.2661
346.0140, 126.9556
346.4961, 130.3751
346.9782, 133.6726
347.4604, 136.9959
347.9425, 140.9224
348.4246, 145.5876
348.9067, 150.7501
349.3888, 156.3315
349.8709, 162.2358
350.3531, 167.9194
350.8352, 172.7703
351.3173, 177.2704
351.7994, 182.4422
352.2815, 188.3188
352.7636, 194.6110
353.2458, 201.1844
353.7279, 207.9657
354.2100, 214.7898
354.6921, 221.3586
355.1742, 228.0686
355.6563, 235.3107
356.1385, 243.0737
356.6206, 251.5246
357.1027, 260.4968
357.5848, 270.2999
358.0669, 281.5046
358.5490, 294.7900
359.0312, 308.6450
359.5133, 322.2833
359.9954, 335.7972
360.4775, 349.6520
360.9596, 364.4122
361.4417, 379.3402
361.9239, 394.3783
362.4060, 410.0874
362.8881, 424.1694
363.3702, 436.4502
363.8523, 446.4332
364.3344, 453.3589
364.8166, 457.9334
365.2987, 458.6021
365.7808, 454.8929
366.2629, 446.8537
366.7450, 434.2006
367.2271, 414.4589
367.7093, 391.2976
368.1914, 367.9424
368.6735, 344.6913
369.1556, 321.0612
369.6377, 296.9133
370.1198, 272.2557
370.6020, 248.8779
371.0841, 226.2853
371.5662, 205.3415
372.0483, 186.7403
372.5304, 170.7818
373.0125, 156.2986
373.4947, 143.3984
373.9768, 132.0428
374.4589, 122.0778
374.9410, 113.7518
375.4231, 106.2676
375.9052, 99.22332
376.3874, 92.52721
376.8695, 86.92385
377.3516, 82.59567
377.8337, 78.95875
378.3158, 75.13030
378.7979, 71.02903
379.2801, 67.22301
379.7622, 63.70815
380.2443, 60.61054
380.7264, 58.63036
381.2085, 57.93548
381.6906, 57.23658
382.1728, 55.14199
382.6549, 51.91399
383.1370, 49.39777
383.6191, 48.00702
384.1012, 47.23553
384.5833, 46.19021
385.0655, 44.93188
385.5476, 43.91755
386.0297, 43.85609
386.5118, 44.09843
386.9939, 43.21086
387.4760, 40.92057
387.9582, 38.64487
388.4403, 37.87929
388.9224, 38.09723
389.4045, 38.20194
389.8866, 37.60558
390.3687, 36.79195
390.8509, 36.26363
391.3330, 35.98237
391.8151, 35.45559
392.2972, 33.92668
392.7793, 32.23050
393.2614, 31.19802
393.7436, 31.46927
394.2257, 31.84552
394.7078, 31.90578
395.1899, 31.69721
395.6720, 31.34332
396.1541, 31.00106
396.6363, 30.42948
397.1184, 29.36957
397.6005, 27.45899
398.0826, 26.12698
398.5647, 25.91845
399.0468, 26.28875
399.5290, 26.57783
400.0111, 26.83021
400.4932, 26.89805
400.9753, 26.65160
401.4574, 26.09186
401.9395, 25.78087
402.4217, 25.87232
402.9038, 26.04669
403.3859, 26.08360
403.8680, 25.89678
404.3501, 25.80182
404.8322, 25.93664
405.3144, 26.12072
405.7965, 25.78133
406.2786, 24.72537
406.7607, 23.78176
407.2428, 23.36613
407.7249, 23.49502
408.2071, 23.63703
408.6892, 23.84407
409.1713, 23.91701
409.6534, 23.53577
410.1355, 22.72169
410.6176, 21.86128
411.0998, 20.92684
411.5819, 20.10293
412.0640, 19.95671
412.5461, 20.46718
413.0282, 21.06910
413.5103, 21.31908
413.9925, 21.34560
414.4746, 21.45875
414.9567, 21.77761
415.4388, 21.98702
415.9209, 21.63595
416.4030, 20.91062
416.8852, 20.26332
417.3673, 20.00790
417.8494, 19.87695
418.3315, 19.71555
418.8136, 19.51786
419.2957, 19.10805
419.7779, 17.94083
420.2600, 16.70205
420.7421, 16.09799
421.2242, 17.02758
421.7063, 17.88503
422.1884, 18.04142
422.6706, 17.68006
423.1527, 17.50072
423.6348, 17.99846
424.1169, 18.44615
424.5990, 18.49713
425.0811, 17.95325
425.5633, 17.39776
426.0454, 16.62141
426.5275, 15.94063
427.0096, 15.78381
427.4917, 16.56977
427.9738, 17.24558
428.4560, 17.55691
428.9381, 17.52572
429.4202, 17.63957
429.9023, 18.04318
430.3844, 18.32367
430.8665, 18.04144
431.3487, 17.02857
431.8308, 16.55333
432.3129, 16.90192
432.7950, 17.60679
433.2771, 17.56973
433.7592, 16.75392
434.2414, 16.13961
434.7235, 16.42177
435.2056, 17.30703
435.6877, 17.54422
436.1698, 17.09734
436.6519, 16.45441
437.1341, 16.01668
437.6162, 15.76562
438.0983, 15.63979
438.5804, 15.61544
439.0625, 15.72055
439.5446, 16.27045
440.0268, 17.06081
440.5089, 17.34421
440.9910, 15.95222
441.4731, 14.29098
441.9552, 13.70232
442.4373, 14.51176
442.9195, 15.46490
443.4016, 15.97863
443.8837, 16.25958
444.3658, 16.55893
444.8479, 17.40780
445.3300, 17.82606
445.8122, 17.11524
446.2943, 15.46413
446.7764, 14.50564
447.2585, 15.19733
447.7406, 16.08574
448.2227, 16.44991
448.7049, 16.05643
449.1870, 15.54689
449.6691, 14.69875
450.1512, 13.84801
450.6333, 13.64557
451.1154, 14.60905
451.5976, 15.06881
452.0797, 14.32046
452.5618, 12.49895
453.0439, 11.74899
453.5260, 12.32300
454.0081, 13.21908
454.4903, 13.68344
454.9724, 13.71781
455.4545, 13.66892
455.9366, 13.53719
456.4187, 13.42389
456.9008, 13.53855
457.3830, 13.85721
457.8651, 14.17746
458.3472, 14.55573
458.8293, 14.82919
459.3114, 14.54695
459.7935, 13.71741
460.2757, 12.99802
460.7578, 13.10692
461.2399, 13.60272
461.7220, 13.87140
462.2041, 13.70481
462.6862, 13.36156
463.1684, 12.85513
463.6505, 12.29289
464.1326, 11.93620
464.6147, 12.07003
465.0968, 12.28583
465.5789, 12.38341
466.0611, 12.33623
466.5432, 12.25814
467.0253, 12.09120
467.5074, 11.94566
467.9895, 11.91739
468.4716, 12.42224
468.9538, 12.49175
469.4359, 11.65219
469.9180, 10.34402
470.4001, 10.08812
470.8822, 11.54301
471.3643, 12.88274
471.8465, 13.30148
472.3286, 12.69401
472.8107, 12.24508
473.2928, 11.93791
473.7749, 11.83827
474.2570, 12.09994
474.7392, 12.72006
475.2213, 13.35607
475.7034, 14.03861
476.1855, 14.56830
476.6676, 14.32976
477.1497, 13.40895
477.6319, 12.63289
478.1140, 12.66784
478.5961, 13.10965
479.0782, 13.25929
479.5603, 13.05231
480.0424, 12.81368
480.5246, 12.81708
481.0067, 12.95205
481.4888, 13.06056
481.9709, 13.05582
482.4530, 13.05446
482.9352, 13.18255
483.4173, 13.37468
483.8994, 13.42412
484.3815, 13.11568
484.8636, 12.76705
485.3457, 12.51285
485.8279, 12.35575
486.3100, 12.31857
486.7921, 12.59823
487.2742, 12.89148
487.7563, 12.89937
488.2384, 12.22543
488.7206, 11.98785
489.2027, 12.57811
489.6848, 13.65199
490.1669, 13.90321
490.6490, 13.10933
491.1311, 12.15828
491.6133, 11.28403
492.0954, 10.49103
492.5775, 10.71530
493.0596, 12.15749
493.5417, 13.76575
494.0238, 14.50953
494.5060, 14.45538
494.9881, 13.77019
495.4702, 12.20566
495.9523, 10.49795
496.4344, 9.583403
496.9165, 9.417592
497.3987, 9.831964
497.8808, 11.48109
498.3629, 13.22052
498.8450, 13.83626
499.3271, 13.20482
499.8092, 12.40191
500.2914, 11.78375
500.7735, 11.37321
501.2556, 11.18015
501.7377, 11.51670
502.2198, 11.70216
502.7019, 11.32119
503.1841, 10.66624
503.6662, 10.53768
504.1483, 11.99571
504.6304, 12.90720
505.1125, 12.32048
505.5946, 10.01365
506.0768, 9.179609
506.5589, 10.54154
507.0410, 12.31434
507.5231, 12.95035
508.0052, 12.23102
508.4873, 11.85021
508.9695, 12.08767
509.4516, 12.60054
509.9337, 12.80395
510.4158, 12.70257
510.8979, 12.37264
511.3800, 11.58534
511.8622, 10.67154
512.3443, 10.45614
512.8264, 10.91201
513.3085, 11.50156
513.7906, 12.00245
514.2728, 12.32359
514.7549, 12.26438
515.2370, 11.63089
515.7191, 11.09543
516.2012, 11.21860
516.6833, 11.68291
517.1655, 12.00179
517.6476, 11.92864
518.1297, 11.77387
518.6118, 11.66566
519.0939, 11.59211
519.5760, 11.38603
520.0582, 10.63863
520.5403, 10.09656
521.0224, 10.19262
521.5045, 11.40377
521.9866, 11.77972
522.4688, 10.84113
522.9509, 9.595688
523.4330, 9.438837
523.9151, 10.65224
524.3972, 11.33107
524.8793, 10.82369
525.3615, 9.730167
525.8436, 9.744430
526.3257, 10.85254
526.8078, 12.00750
527.2899, 12.77061
527.7720, 13.12092
528.2542, 12.81953
528.7363, 11.83670
529.2184, 10.91232
529.7005, 10.83601
530.1826, 11.15726
530.6647, 11.20872
531.1469, 10.42486
531.6290, 9.973027
532.1111, 10.96480
532.5932, 12.72762
533.0753, 13.88640
533.5574, 13.71286
534.0396, 13.19724
534.5217, 12.48266
535.0038, 11.55565
535.4859, 11.16633
535.9680, 11.75440
536.4501, 12.46650
536.9323, 12.84216
537.4144, 12.86620
537.8965, 12.55041
538.3786, 11.74535
538.8607, 10.80332
539.3428, 10.25756
539.8250, 10.11917
540.3071, 10.18338
540.7892, 10.45879
541.2713, 10.84470
541.7534, 11.17970
542.2355, 11.44401
542.7177, 11.42495
543.1998, 10.62161
543.6819, 9.581522
544.1640, 9.220255
544.6461, 9.626331
545.1282, 10.18533
545.6104, 10.59014
546.0925, 10.85784
546.5746, 10.99583
547.0567, 10.85174
547.5388, 10.79389
548.0209, 11.14287
548.5031, 11.65580
548.9852, 11.80628
549.4673, 10.87776
549.9494, 10.26213
550.4315, 10.51342
550.9136, 11.62540
551.3958, 11.99097
551.8779, 11.15755
552.3600, 10.33990
552.8421, 10.52138
553.3242, 11.89807
553.8063, 12.27075
554.2885, 11.32592
554.7706, 9.984488
555.2527, 9.410748
555.7348, 9.535028
556.2169, 9.974636
556.6990, 10.80543
557.1812, 11.64163
557.6633, 11.91851
558.1454, 11.71552
558.6275, 11.32966
559.1096, 10.67239
559.5917, 10.08141
560.0739, 9.899382
560.5560, 10.15289
561.0381, 10.41636
561.5202, 10.59773
562.0023, 10.67051
562.4844, 10.60139
562.9666, 10.14427
563.4487, 9.915854
563.9308, 10.06108
564.4129, 10.39882
564.8950, 10.67087
565.3771, 10.89451
565.8593, 10.99056
566.3414, 10.85516
566.8235, 10.58854
567.3056, 10.78246
567.7877, 11.53499
568.2698, 12.02100
568.7520, 11.36385
569.2341, 9.993029
569.7162, 9.713190
570.1983, 10.63897
570.6804, 11.70230
571.1625, 11.88855
571.6447, 11.54646
572.1268, 11.21155
572.6089, 10.95968
573.0910, 10.85063
573.5731, 11.09347
574.0552, 11.47657
574.5374, 11.63498
575.0195, 11.28378
575.5016, 10.85561
575.9837, 10.33931
576.4658, 9.785180
576.9479, 9.713011
577.4301, 10.62651
577.9122, 11.43699
578.3943, 11.69025
578.8764, 11.32652
579.3585, 10.55521
579.8406, 9.047670
580.3228, 7.863167
580.8049, 8.468850
581.2870, 10.73559
581.7691, 12.43936
582.2512, 13.20781
582.7333, 13.22246
583.2155, 12.33178
583.6975, 10.84798
584.1796, 9.710036
584.6617, 9.641741
585.1439, 9.916500
585.6260, 9.933224
586.1081, 9.723897
586.5902, 9.460354
587.0723, 8.770407
587.5544, 8.403730
588.0366, 9.016527
588.5187, 11.06645
589.0008, 12.35690
589.4829, 12.07255
589.9650, 11.30444
590.4471, 10.81326
590.9293, 10.58910
591.4114, 10.71340
591.8935, 11.35745
592.3756, 12.17358
592.8577, 12.57695
593.3398, 12.56109
593.8220, 12.17292
594.3041, 11.26935
594.7862, 10.12223
595.2683, 9.292463
595.7504, 8.782775
596.2325, 8.562160
596.7147, 8.714286
597.1968, 9.092325
597.6789, 9.604444
598.1610, 10.24702
598.6431, 10.77285
599.1252, 11.25734
599.6074, 11.43657
600.0895, 11.00603
600.5716, 9.108247
601.0537, 8.007024
601.5358, 8.920432
602.0179, 10.47125
602.5001, 10.79888
602.9822, 9.000875
603.4643, 7.807417
603.9464, 7.845418
604.4285, 8.727048
604.9106, 9.139077
605.3928, 9.015459
605.8749, 8.992501
606.3570, 9.565739
606.8391, 10.46818
607.3212, 10.73027
607.8033, 10.37641
608.2855, 10.00724
608.7676, 10.24012
609.2497, 10.66606
609.7318, 10.70157
610.2139, 10.17246
610.6960, 9.692311
611.1782, 9.690015
611.6603, 9.871244
612.1424, 9.923252
612.6245, 9.486472
613.1066, 9.267685
613.5887, 9.545903
614.0709, 10.06269
614.5530, 10.30768
615.0351, 10.20093
615.5172, 9.954914
615.9993, 9.463363
616.4814, 8.877657
616.9636, 9.234641
617.4457, 10.63651
617.9278, 11.80636
618.4099, 11.68869
618.8920, 10.73322
619.3741, 10.09476
619.8563, 9.809171
620.3384, 9.850708
620.8205, 10.56973
621.3026, 11.44214
621.7847, 11.80437
622.2668, 11.39835
622.7490, 10.81111
623.2311, 10.02356
623.7132, 9.298142
624.1953, 8.970450
624.6774, 9.453383
625.1595, 9.912789
625.6417, 10.31798
626.1238, 10.62231
626.6059, 10.63536
627.0880, 10.21645
627.5701, 9.942964
628.0522, 10.10952
628.5344, 10.58662
629.0165, 10.66467
629.4986, 10.33465
629.9807, 10.00288
630.4628, 10.04284
630.9449, 10.25747
631.4271, 10.27477
631.9092, 10.06311
632.3913, 9.761746
632.8734, 9.352568
633.3555, 8.964331
633.8376, 8.698608
634.3198, 8.466383
634.8019, 8.589025
635.2840, 9.543618
635.7661, 10.76546
636.2482, 11.46394
636.7303, 11.26558
637.2125, 11.14830
637.6946, 11.29640
638.1767, 11.58704
638.6588, 11.63642
639.1409, 11.40023
639.6230, 11.24444
640.1052, 11.40519
640.5873, 11.72126
641.0694, 11.58586
641.5515, 11.04870
642.0336, 10.68589
642.5157, 11.13495
642.9979, 11.84213
643.4800, 12.15470
643.9621, 12.00766
644.4442, 11.75109
644.9263, 11.42720
645.4084, 11.14483
645.8906, 10.97577
646.3727, 10.79433
646.8548, 11.01695
647.3369, 12.16496
647.8190, 13.37379
648.3011, 13.43069
648.7833, 11.76055
649.2654, 10.93745
649.7475, 11.60918
650.2296, 13.00404
650.7117, 13.47262
651.1938, 13.09316
651.6760, 12.76288
652.1581, 12.94860
652.6402, 13.31713
653.1223, 13.42013
653.6044, 13.27403
654.0865, 12.95011
654.5687, 11.98193
655.0508, 11.25244
655.5329, 11.52826
656.0150, 12.89637
656.4971, 14.00525
656.9792, 14.50372
657.4614, 14.69355
657.9435, 14.73557
658.4256, 14.62799
658.9077, 14.31689
659.3898, 13.62327
659.8719, 13.04087
660.3541, 13.28935
660.8362, 14.32822
661.3183, 14.79007
661.8004, 14.37226
662.2825, 13.63927
662.7646, 13.13479
663.2468, 12.89700
663.7289, 13.04448
664.2110, 13.90026
664.6931, 14.79958
665.1752, 15.35428
665.6573, 15.59494
666.1395, 15.60857
666.6216, 15.13055
667.1037, 14.72722
667.5858, 14.62240
668.0679, 14.77206
668.5500, 14.89818
669.0322, 15.04045
669.5143, 15.07880
669.9964, 14.90298
670.4785, 14.53629
670.9606, 14.41565
671.4427, 14.56975
671.9249, 14.68048
672.4070, 14.21427
672.8891, 13.57165
673.3712, 13.91255
673.8533, 15.47675
674.3354, 16.53695
674.8176, 15.19921
675.2997, 13.02173
675.7818, 11.67632
676.2639, 11.92095
676.7460, 12.25168
677.2281, 12.24836
677.7103, 12.19290
678.1924, 12.48840
678.6745, 13.55739
679.1566, 13.99003
679.6387, 13.36120
680.1208, 12.22027
680.6030, 11.78101
681.0851, 12.04630
681.5672, 12.40787
682.0493, 12.71558
682.5314, 12.92361
683.0135, 13.01259
683.4957, 12.94622
683.9778, 12.57959
684.4599, 11.16860
684.9420, 9.970740
685.4241, 10.08347
685.9063, 11.42765
686.3884, 12.47497
686.8705, 12.78925
687.3526, 12.73916
687.8347, 12.45497
688.3168, 11.90120
688.7990, 11.32182
689.2811, 10.61788
689.7632, 10.08738
690.2453, 9.994472
690.7274, 10.31446
691.2095, 10.84774
691.6917, 11.63598
692.1738, 12.22148
692.6559, 11.90484
693.1380, 11.09750
693.6201, 10.47247
694.1022, 10.16858
694.5844, 10.11156
695.0665, 10.51995
695.5486, 11.06159
696.0307, 11.31158
696.5128, 10.76729
696.9949, 10.45840
697.4771, 10.63515
697.9592, 11.03520
698.4413, 11.12881
698.9234, 10.85641
699.4055, 10.49838
699.8876, 10.07085
700.3698, 9.656175
700.8519, 9.522394
701.3340, 9.629104
701.8161, 9.711994
702.2982, 9.571234
702.7803, 9.377677
703.2625, 9.273341
703.7446, 9.268758
704.2267, 9.407923
704.7088, 9.912323
705.1909, 10.38934
705.6730, 10.63892
706.1552, 10.63610
706.6373, 10.54516
707.1194, 10.41297
707.6015, 10.12304
708.0836, 9.456716
708.5657, 8.362668
709.0479, 8.129840
709.5300, 8.890306
710.0121, 9.697072
710.4942, 9.497570
710.9763, 8.715312
711.4584, 8.416034
711.9406, 8.802929
712.4227, 9.143020
712.9048, 8.606859
713.3869, 7.886683
713.8690, 7.734548
714.3511, 8.662222
714.8333, 9.542530
715.3154, 10.32456
715.7975, 10.86759
716.2796, 10.95769
716.7617, 10.38945
717.2438, 10.00493
717.7260, 9.998291
718.2081, 10.07447
718.6902, 9.491457
719.1723, 8.384704
719.6544, 7.892435
720.1365, 8.584349
720.6187, 9.708113
721.1008, 10.54267
721.5829, 11.11467
722.0650, 11.50830
722.5471, 11.72392
723.0292, 11.79654
723.5114, 11.78601
723.9935, 11.65236
724.4756, 11.18245
724.9577, 9.924805
725.4398, 9.056629
725.9219, 9.023075
726.4041, 9.674188
726.8862, 10.20670
727.3683, 10.63444
727.8504, 10.84066
728.3325, 10.51845
728.8146, 10.00555
729.2968, 10.13502
729.7789, 10.83907
730.2610, 11.47477
730.7431, 11.69847
731.2252, 11.65458
731.7073, 11.32924
732.1895, 10.68475
732.6716, 10.31521
733.1537, 10.73695
733.6358, 11.08370
734.1179, 10.82288
734.6000, 9.747252
735.0822, 9.339015
735.5643, 9.723069
736.0464, 10.33392
736.5285, 10.89527
737.0106, 11.28328
737.4927, 10.78067
737.9749, 9.207151
738.4570, 7.849054
738.9391, 8.238173
739.4212, 9.287805
739.9033, 9.709109
740.3854, 8.902911
740.8676, 8.277032
741.3497, 8.358514
741.8318, 8.737598
742.3139, 8.995677
742.7960, 9.105496
743.2781, 9.155875
743.7603, 9.149533
744.2424, 9.089484
744.7245, 9.065032
745.2066, 9.036047
745.6887, 8.544240
746.1708, 7.235631
746.6530, 6.063647
747.1351, 6.370028
747.6172, 7.539385
748.0993, 8.495671
748.5814, 8.918825
749.0635, 8.976811
749.5457, 8.372133
750.0278, 7.494679
750.5099, 7.201143
750.9920, 7.827374
751.4741, 8.431332
751.9562, 8.913036
752.4384, 9.216949
752.9205, 9.117910
753.4026, 8.626806
753.8847, 8.121438
754.3668, 7.744146
754.8489, 7.438988
755.3311, 7.078461
755.8132, 6.715067
756.2953, 6.513535
756.7774, 6.621518
757.2595, 6.836289
757.7416, 7.077256
758.2238, 7.342500
758.7059, 7.685269
759.1880, 8.377269
759.6701, 8.699148
760.1522, 8.320413
760.6343, 7.401679
761.1165, 6.642633
761.5986, 6.030194
762.0807, 5.978324
762.5628, 7.400876
763.0449, 9.230358
763.5270, 9.296372
764.0092, 7.916385
764.4913, 6.801430
764.9734, 7.339583
765.4555, 8.060489
765.9376, 7.949591
766.4197, 6.961343
766.9019, 6.480105
767.3840, 6.971295
767.8661, 7.405490
768.3482, 7.274183
768.8303, 6.608768
769.3124, 6.221383
769.7946, 6.123751
770.2767, 6.196371
770.7588, 6.449778
771.2409, 6.783271
771.7230, 6.998715
772.2051, 7.094690
772.6873, 7.211901
773.1694, 7.731262
773.6515, 8.071068
774.1336, 7.579084
774.6157, 5.900884
775.0978, 5.430159
775.5800, 7.054920
776.0621, 8.776181
776.5442, 9.378216
777.0263, 8.805995
777.5084, 8.322001
777.9905, 7.929630
778.4727, 7.569870
778.9548, 7.162028
779.4369, 6.762604
779.9190, 6.433008
780.4011, 6.177584
780.8832, 6.123792
781.3654, 6.566484
781.8475, 7.085549
782.3296, 7.275805
782.8117, 6.773824
783.2938, 7.113189
783.7759, 9.104694
784.2581, 10.80804
784.7402, 10.33542
785.2223, 7.686717
785.7044, 6.383251
786.1865, 6.676928
786.6686, 7.347205
787.1508, 7.221322
787.6329, 6.725492
788.1150, 6.563816
788.5971, 6.900793
789.0792, 7.165175
789.5613, 7.025567
790.0435, 6.737179
790.5256, 6.511533
791.0077, 6.435606
791.4898, 6.175015
791.9719, 5.513733
792.4540, 5.034517
792.9362, 5.480111
793.4183, 6.747294
793.9004, 7.495654
794.3825, 7.589495
794.8646, 7.506143
795.3467, 7.827349
795.8289, 8.203120
796.3110, 8.085391
796.7931, 7.243096
797.2752, 6.511952
797.7573, 6.251545
798.2394, 6.184103
798.7216, 6.041902
799.2037, 5.629229
799.6858, 5.740056
800.1679, 6.609050
800.6500, 7.470839
801.1321, 7.346914
801.6143, 6.495371
802.0964, 6.284870
802.5785, 6.925611
803.0606, 7.653038
803.5427, 7.898065
804.0248, 7.803709
804.5070, 7.423058
804.9891, 6.506860
805.4712, 6.115608
805.9533, 7.059484
806.4354, 8.176511
806.9175, 8.574512
807.3997, 8.005911
807.8818, 7.838363
808.3639, 8.190162
808.8460, 8.622477
809.3281, 8.900287
809.8102, 8.881376
810.2924, 7.889783
810.7745, 5.677287
811.2566, 3.999724
811.7387, 4.369783
812.2208, 5.684941
812.7029, 7.125261
813.1851, 8.981785
813.6672, 9.718677
814.1493, 8.727793
814.6314, 7.290694
815.1135, 6.383301
815.5956, 6.015062
816.0778, 5.815504
816.5599, 5.780555
817.0420, 5.807879
817.5241, 5.832560
818.0062, 5.842285
818.4883, 5.759555
818.9705, 5.541936
819.4526, 5.535912
819.9347, 6.108970
820.4168, 6.806325
820.8989, 7.344231
821.3810, 7.780078
821.8632, 7.702183
822.3453, 6.845682
822.8274, 6.055640
823.3095, 6.268280
823.7916, 7.222392
824.2737, 7.329545
824.7559, 6.509425
825.2380, 5.704274
825.7201, 5.914295
826.2022, 6.375766
826.6843, 6.192927
827.1664, 5.149499
827.6486, 4.584399
828.1307, 5.405891
828.6128, 6.209824
829.0949, 6.175957
829.5770, 5.197495
830.0591, 5.163119
830.5413, 6.209999
831.0234, 7.372118
831.5055, 8.045301
831.9876, 8.291230
832.4697, 8.101771
832.9518, 7.515146
833.4340, 6.983533
833.9161, 6.776201
834.3982, 6.709109
834.8803, 6.630626
835.3624, 6.525229
835.8445, 6.748376
836.3267, 7.549021
836.8088, 8.188190
837.2909, 8.254993
837.7730, 7.846491
838.2551, 7.436625
838.7372, 7.039188
839.2194, 6.875249
839.7015, 7.567162
840.1836, 8.213467
840.6657, 7.561656
841.1478, 5.872334
841.6299, 4.877354
842.1121, 5.956795
842.5942, 6.919374
843.0763, 6.984978
843.5584, 6.315640
844.0405, 5.739317
844.5226, 5.222909
845.0048, 5.053565
845.4869, 5.488851
845.9690, 6.242682
846.4511, 6.899715
846.9332, 7.411675
847.4153, 7.607138
847.8975, 7.006304
848.3796, 6.472914
848.8617, 6.484787
849.3438, 6.908463
849.8259, 7.280967
850.3080, 7.723129
850.7902, 7.765627
851.2723, 7.089182
851.7544, 6.200350
852.2365, 6.492165
852.7186, 7.724202
853.2007, 8.444797
853.6829, 7.859553
854.1650, 7.011710
854.6471, 6.756752
855.1292, 6.881692
855.6113, 7.028640
856.0934, 7.241020
856.5756, 7.271972
857.0577, 7.005553
857.5398, 6.624615
858.0219, 6.379571
858.5040, 6.274690
858.9861, 6.218304
859.4683, 6.191218
859.9504, 6.220188
860.4325, 6.422643
860.9146, 6.680342
861.3967, 6.732522
861.8788, 6.330153
862.3610, 6.227986
862.8431, 7.182992
863.3252, 8.264211
863.8073, 8.579560
864.2894, 7.842008
864.7715, 7.188460
865.2537, 6.601512
865.7358, 6.205664
866.2179, 6.219633
866.7000, 6.511656
867.1821, 6.712383
867.6642, 6.781838
868.1464, 6.867808
868.6285, 7.232000
869.1106, 7.534214
869.5927, 7.457840
870.0748, 6.856411
870.5569, 6.483681
871.0391, 6.389952
871.5212, 6.439943
872.0033, 6.624076
872.4854, 6.905707
872.9675, 6.957457
873.4496, 6.796059
873.9318, 6.669736
874.4139, 6.835411
874.8960, 7.043872
875.3781, 7.120905
875.8602, 7.052034
876.3423, 6.797547
876.8245, 5.802773
877.3066, 5.306288
877.7887, 5.846404
878.2708, 7.107504
878.7529, 7.783211
879.2350, 7.872495
879.7172, 7.759547
880.1993, 7.530951
880.6814, 7.271698
881.1635, 7.074630
881.6456, 6.935731
882.1277, 6.845628
882.6099, 6.736363
883.0920, 6.754244
883.5741, 7.019468
884.0562, 7.398124
884.5383, 7.733160
885.0204, 8.058119
885.5026, 8.068894
885.9847, 7.620290
886.4668, 7.109213
886.9489, 7.394477
887.4310, 7.965254
887.9131, 7.642304
888.3953, 5.706725
888.8774, 4.094007
889.3595, 3.749186
889.8416, 4.083004
890.3237, 4.551831
890.8058, 5.225845
891.2880, 5.807221
891.7701, 6.347015
892.2522, 6.619980
892.7343, 6.170560
893.2164, 5.326727
893.6985, 5.012685
894.1807, 5.298858
894.6628, 5.700631
895.1449, 6.019775
895.6270, 6.255644
896.1091, 6.415346
896.5912, 6.496300
897.0734, 6.406314
897.5555, 5.945471
898.0376, 5.813216
898.5197, 6.548094
899.0018, 7.807087
899.4839, 8.361321
899.9661, 8.280321
900.4482, 7.970367
900.9303, 7.289953
901.4124, 6.799188
901.8945, 7.114850
902.3766, 7.940106
902.8588, 8.264234
903.3409, 7.672833
903.8230, 7.186756
904.3051, 7.030619
904.7872, 7.017234
905.2693, 6.699016
905.7515, 6.148234
906.2336, 5.809760
906.7157, 5.846005
907.1978, 6.013334
907.6799, 6.219465
908.1620, 6.382411
908.6442, 6.408553
909.1263, 6.317355
909.6084, 5.952896
910.0905, 5.036059
910.5726, 4.241131
911.0547, 4.359941
911.5369, 5.282031
912.0190, 5.586877
912.5011, 5.169845
912.9832, 4.791906
913.4653, 5.406128
913.9474, 6.136343
914.4296, 5.909620
914.9117, 4.572677
915.3938, 4.039160
915.8759, 5.358101
916.3580, 6.429762
916.8401, 6.264321
917.3223, 5.141616
917.8044, 4.681475
918.2865, 4.860719
918.7686, 5.236700
919.2507, 5.655695
919.7328, 6.093260
920.2150, 6.642058
920.6971, 7.185226
921.1792, 7.446535
921.6613, 7.363493
922.1434, 6.905474
922.6255, 5.763633
923.1077, 4.529863
923.5898, 4.390320
924.0719, 5.275352
924.5540, 5.943601
925.0361, 6.152466
925.5182, 6.071187
926.0004, 5.601349
926.4825, 5.073868
926.9646, 4.916980
927.4467, 5.369969
927.9288, 5.749951
928.4109, 6.036090
928.8931, 6.165121
929.3752, 6.085616
929.8573, 5.800357
930.3394, 5.239566
930.8215, 4.407739
931.3036, 3.876727
931.7858, 4.357546
932.2679, 5.131777
932.7500, 5.533931
933.2321, 5.561608
933.7142, 5.512058
934.1964, 5.261876
934.6785, 5.213519
935.1606, 5.603926
935.6427, 6.191141
936.1248, 6.057039
936.6069, 5.286227
937.0891, 5.006930
937.5712, 5.865495
938.0533, 6.832590
938.5354, 6.969895
939.0175, 6.547281
939.4996, 5.953940
939.9818, 4.756111
940.4639, 4.210212
940.9460, 4.578862
941.4281, 5.294275
941.9102, 5.925629
942.3923, 6.437935
942.8745, 6.324090
943.3566, 5.521611
943.8387, 4.915569
944.3208, 5.625311
944.8029, 6.558809
945.2850, 6.656013
945.7672, 5.792394
946.2493, 5.374607
946.7314, 5.764736
947.2135, 6.112717
947.6956, 6.002101
948.1777, 5.642570
948.6599, 6.026134
949.1420, 6.966644
949.6241, 7.373678
950.1062, 6.196729
950.5883, 4.959740
951.0704, 4.801725
951.5526, 5.301313
952.0347, 5.680731
952.5168, 5.936585
952.9989, 5.910042
953.4810, 5.533935
953.9631, 4.982279
954.4453, 4.303571
954.9274, 3.624113
955.4095, 3.444556
955.8916, 3.857033
956.3737, 4.414080
956.8558, 4.919351
957.3380, 5.379294
957.8201, 5.817583
958.3022, 6.240836
958.7843, 6.566704
959.2664, 6.844223
959.7485, 6.850194
960.2307, 6.301071
960.7128, 5.521704
961.1949, 5.334857
961.6770, 5.606530
962.1591, 5.865362
962.6412, 5.855059
963.1234, 5.829584
963.6055, 5.895179
964.0876, 6.010189
964.5697, 6.028473
965.0518, 5.812120
965.5339, 6.305305
966.0161, 7.839653
966.4982, 9.308026
966.9803, 9.184861
967.4624, 8.171944
967.9445, 7.412482
968.4266, 7.095985
968.9088, 6.874474
969.3909, 6.506317
969.8730, 6.317147
970.3551, 6.545888
970.8372, 7.154213
971.3193, 7.610651
971.8015, 7.923363
972.2836, 7.715885
972.7657, 6.070097
973.2478, 4.411479
973.7299, 4.832537
974.2120, 6.571273
974.6942, 7.735066
975.1763, 7.430685
975.6584, 6.890404
976.1405, 6.074717
976.6226, 5.319047
977.1047, 5.251131
977.5869, 5.783282
978.0690, 5.823945
978.5511, 5.140482
979.0332, 4.712492
979.5153, 5.801509
979.9974, 7.234323
980.4796, 7.926117
980.9617, 7.661986
981.4438, 7.277070
981.9259, 6.696146
982.4080, 6.218378
982.8901, 5.993329
983.3723, 5.959983
983.8544, 5.877948
984.3365, 5.801560
984.8186, 5.956254
985.3007, 6.868495
985.7828, 7.579084
986.2650, 7.591693
986.7471, 7.107833
987.2292, 6.421397
987.7113, 5.296899
988.1934, 4.969426
988.6755, 5.733456
989.1577, 6.565317
989.6398, 6.074371
990.1219, 4.970033
990.6040, 4.463822
991.0861, 4.698888
991.5682, 5.107912
992.0504, 5.797701
992.5325, 6.246706
993.0146, 6.099531
993.4967, 5.517636
993.9788, 5.498293
994.4609, 6.039047
994.9431, 6.349226
995.4252, 5.920638
995.9073, 5.396973
996.3894, 5.443772
996.8715, 5.886479
997.3536, 6.439797
997.8358, 7.711433
998.3179, 7.939038
998.8000, 6.508081
999.2821, 4.940599
999.7642, 4.942754
1000.246, 6.169471
1000.728, 6.750672
1001.211, 6.604943
1001.693, 6.118449
1002.175, 5.073893
1002.657, 4.195072
1003.139, 4.026043
1003.621, 4.509979
1004.103, 5.063927
1004.585, 5.732183
1005.068, 6.331378
1005.550, 6.890128
1006.032, 7.208305
1006.514, 6.713998
1006.996, 5.796231
1007.478, 5.252010
1007.960, 5.454688
1008.442, 5.664696
1008.924, 5.666860
1009.407, 5.581579
1009.889, 5.454917
1010.371, 5.282307
1010.853, 5.221566
1011.335, 5.272742
1011.817, 5.426005
1012.299, 5.769545
1012.781, 6.132278
1013.263, 6.425964
1013.746, 6.613590
1014.228, 6.565844
1014.710, 6.027060
1015.192, 5.716985
1015.674, 5.805964
1016.156, 6.058612
1016.638, 5.998274
1017.120, 5.806030
1017.603, 6.233478
1018.085, 7.532498
1018.567, 8.372157
1019.049, 7.417601
1019.531, 6.195005
1020.013, 5.787013
1020.495, 6.167494
1020.977, 6.397951
1021.459, 6.468597
1021.942, 6.460959
1022.424, 6.296183
1022.906, 6.210689
1023.388, 6.890179
1023.870, 7.826845
1024.352, 8.026745
1024.834, 6.081872
1025.316, 5.010437
1025.799, 5.467772
1026.281, 6.297555
1026.763, 6.175913
1027.245, 5.304348
1027.727, 5.097167
1028.209, 5.607429
1028.691, 6.099341
1029.173, 5.950663
1029.656, 5.721608
1030.138, 5.966425
1030.620, 6.506645
1031.102, 6.258012
1031.584, 4.877878
1032.066, 4.156832
1032.548, 4.702566
1033.030, 5.681222
1033.512, 5.956016
1033.995, 5.760697
1034.477, 5.416134
1034.959, 4.869247
1035.441, 4.657717
1035.923, 5.145188
1036.405, 5.745760
1036.887, 6.270648
1037.369, 6.668151
1037.851, 6.259074
1038.334, 5.158201
1038.816, 4.385215
1039.298, 4.756351
1039.780, 5.408473
1040.262, 5.977789
1040.744, 6.362067
1041.226, 6.331449
1041.708, 5.632456
1042.191, 5.347350
1042.673, 5.660051
1043.155, 5.970787
1043.637, 5.428540
1044.119, 4.553691
1044.601, 4.316384
1045.083, 4.758041
1045.565, 5.123775
1046.047, 4.906830
1046.530, 4.884672
1047.012, 5.477736
1047.494, 6.319152
1047.976, 6.196713
1048.458, 5.260043
1048.940, 4.772722
1049.422, 5.196868
1049.904, 5.768434
1050.386, 5.935928
1050.869, 5.947762
1051.351, 6.072796
1051.833, 6.368025
1052.315, 6.531938
1052.797, 6.569054
1053.279, 6.449114
1053.761, 6.023778
1054.243, 5.515949
1054.726, 5.247809
1055.208, 5.213475
1055.690, 5.397245
1056.172, 5.816002
1056.654, 6.496004
1057.136, 7.820779
1057.618, 8.915763
1058.100, 8.471439
1058.583, 6.772765
1059.065, 5.639612
1059.547, 5.207393
1060.029, 5.177733
1060.511, 5.790578
1060.993, 6.327911
1061.475, 6.191157
1061.957, 5.571656
1062.439, 5.367341
1062.922, 5.682600
1063.404, 5.704809
1063.886, 5.122763
1064.368, 4.502218
1064.850, 4.679479
1065.332, 5.187583
1065.814, 5.341197
1066.296, 4.871938
1066.778, 4.717566
1067.261, 5.147476
1067.743, 5.559802
1068.225, 5.662883
1068.707, 5.511620
1069.189, 5.178375
1069.671, 4.732981
1070.153, 4.427769
1070.635, 4.316392
1071.118, 4.450307
1071.600, 5.094660
1072.082, 5.833964
1072.564, 6.299461
1073.046, 6.496053
1073.528, 6.199481
1074.010, 5.389341
1074.492, 4.614806
1074.974, 4.205441
1075.457, 4.105071
1075.939, 4.399948
1076.421, 4.980908
1076.903, 5.440067
1077.385, 5.772038
1077.867, 5.922501
1078.349, 5.866209
1078.831, 5.664627
1079.313, 5.165282
1079.796, 4.664006
1080.278, 4.864342
1080.760, 5.913071
1081.242, 6.568936
1081.724, 6.028974
1082.206, 5.461975
1082.688, 5.275948
1083.170, 5.357970
1083.652, 5.408219
1084.135, 5.414202
1084.617, 5.275084
1085.099, 4.847452
1085.581, 4.558406
1086.063, 4.777482
1086.545, 5.185596
1087.027, 5.531051
1087.509, 5.828431
1087.992, 5.704317
1088.474, 5.107425
1088.956, 4.881170
1089.438, 6.141563
1089.920, 7.507913
1090.402, 7.214120
1090.884, 5.989553
1091.366, 5.420110
1091.849, 6.483144
1092.331, 6.629250
1092.813, 5.419969
1093.295, 4.141338
1093.777, 4.083646
1094.259, 4.884366
1094.741, 6.155882
1095.223, 7.712441
1095.705, 8.533327
1096.188, 7.637612
1096.670, 6.608041
1097.152, 5.714840
1097.634, 5.054599
1098.116, 4.813169
1098.598, 4.958825
1099.080, 5.415682
1099.562, 6.213677
1100.044, 6.825933
1100.527, 7.031302
1101.009, 6.799843
1101.491, 5.772064
1101.973, 4.221426
1102.455, 3.977468
1102.937, 5.085329
1103.419, 6.126425
1103.901, 6.719237
1104.384, 6.811872
1104.866, 5.957340
1105.348, 4.774811
1105.830, 3.979294
1106.312, 3.713357
1106.794, 3.717735
1107.276, 4.044782
1107.758, 4.464107
1108.240, 4.898466
1108.723, 5.300508
1109.205, 5.783781
1109.687, 6.159798
1110.169, 6.004794
1110.651, 4.065278
1111.133, 3.356016
1111.615, 4.657997
1112.097, 6.240859
1112.579, 6.307169
1113.062, 5.348455
1113.544, 5.318952
1114.026, 6.110503
1114.508, 6.644232
1114.990, 6.098464
1115.472, 5.509817
1115.954, 5.259216
1116.436, 5.179742
1116.919, 5.066483
1117.401, 4.913338
1117.883, 4.550196
1118.365, 3.944008
1118.847, 3.552175
1119.329, 3.932589
1119.811, 4.453809
1120.293, 4.675845
1120.776, 4.654071
1121.258, 4.629844
1121.740, 4.584075
1122.222, 4.760889
1122.704, 5.283131
1123.186, 5.779180
1123.668, 5.910057
1124.150, 5.779746
1124.632, 5.381500
1125.115, 4.656941
1125.597, 4.457397
1126.079, 4.897976
1126.561, 5.543845
1127.043, 6.379474
1127.525, 7.082952
1128.007, 7.209475
1128.489, 6.806287
1128.971, 5.776800
1129.454, 3.414773
1129.936, 2.522403
1130.418, 4.002179
1130.900, 5.618734
1131.382, 6.037307
1131.864, 5.607642
1132.346, 5.097969
1132.828, 4.628159
1133.311, 4.584968
1133.793, 5.777654
1134.275, 6.476739
1134.757, 6.026674
1135.239, 5.289233
1135.721, 5.047383
1136.203, 5.215075
1136.685, 4.945563
1137.167, 4.299081
1137.650, 3.930887
1138.132, 4.687095
1138.614, 5.281478
1139.096, 4.849330
1139.578, 4.047818
1140.060, 3.790719
1140.542, 4.083408
1141.024, 4.333594
1141.506, 4.493133
1141.989, 4.646808
1142.471, 4.928011
1142.953, 5.163487
1143.435, 5.096865
1143.917, 4.891601
1144.399, 5.216498
1144.881, 6.225530
1145.363, 6.426513
1145.846, 5.423293
1146.328, 4.458008
1146.810, 5.175451
1147.292, 6.264234
1147.774, 6.340224
1148.256, 5.321437
1148.738, 4.712098
1149.220, 4.557564
1149.703, 4.830225
1150.185, 5.743644
1150.667, 6.457170
1151.149, 5.241096
1151.631, 3.441030
1152.113, 3.172806
1152.595, 5.109140
1153.077, 5.749084
1153.559, 4.248750
1154.042, 3.177320
1154.524, 3.754653
1155.006, 5.065656
1155.488, 5.630445
1155.970, 5.614690
1156.452, 5.230519
1156.934, 4.232212
1157.416, 3.860700
1157.898, 4.611870
1158.381, 5.270655
1158.863, 5.125808
1159.345, 4.425232
1159.827, 3.570655
1160.309, 2.770776
1160.791, 2.650946
1161.273, 4.007316
1161.755, 5.043448
1162.238, 5.469669
1162.720, 5.399381
1163.202, 4.563174
1163.684, 3.256757
1164.166, 3.201334
1164.648, 4.155642
1165.130, 5.057630
1165.612, 5.764310
1166.094, 5.821836
1166.577, 4.321080
1167.059, 2.857449
1167.541, 3.337513
1168.023, 5.468020
1168.505, 6.560657
1168.987, 6.603022
1169.469, 6.208035
1169.951, 5.321741
1170.433, 4.545201
1170.916, 4.209640
1171.398, 4.095264
1171.880, 3.881516
1172.362, 3.587168
1172.844, 3.731533
1173.326, 4.339435
1173.808, 4.858640
1174.290, 4.967783
1174.773, 4.808064
1175.255, 4.239775
1175.737, 3.538133
1176.219, 3.158043
1176.701, 3.096038
1177.183, 3.694314
1177.665, 5.051821
1178.147, 6.150634
1178.630, 5.901037
1179.112, 5.371168
1179.594, 5.312040
1180.076, 5.601011
1180.558, 5.787600
1181.040, 5.871089
1181.522, 5.898345
1182.004, 5.883527
1182.486, 5.777219
1182.969, 5.300540
1183.451, 4.906969
1183.933, 5.142393
1184.415, 5.872746
1184.897, 6.076658
1185.379, 5.707649
1185.861, 5.337890
1186.343, 5.116790
1186.825, 4.936540
1187.308, 4.590469
1187.790, 4.307876
1188.272, 4.443233
1188.754, 4.252256
1189.236, 4.080089
1189.718, 4.325058
1190.200, 3.941676
1190.682, 4.117154
1191.165, 4.607169
1191.647, 5.622462
1192.129, 6.512860
1192.611, 6.422578
1193.093, 5.213458
1193.575, 4.231227
1194.057, 3.433176
1194.539, 3.220025
1195.021, 3.944901
1195.504, 4.903925
1195.986, 5.562636
1196.468, 5.842049
1196.950, 5.439322
1197.432, 4.118042
1197.914, 3.903629
1198.396, 5.022948
1198.878, 5.667931
1199.360, 4.598273
1199.843, 3.221637
1200.325, 3.196958
1200.807, 3.925490
1201.289, 4.656545
1201.771, 5.403699
1202.253, 5.530168
1202.735, 4.922233
1203.217, 4.439562
1203.700, 4.726230
1204.182, 5.190497
1204.664, 4.970709
1205.146, 4.531591
1205.628, 4.723800
1206.110, 6.053377
1206.592, 6.453515
1207.074, 5.796293
1207.557, 5.041166
1208.039, 4.722257
1208.521, 4.700065
1209.003, 5.042526
1209.485, 5.502063
1209.967, 5.616643
1210.449, 5.366207
1210.931, 4.586383
1211.413, 3.112106
1211.896, 2.140474
1212.378, 2.890210
1212.860, 4.217193
1213.342, 5.144984
1213.824, 5.672820
1214.306, 5.733429
1214.788, 5.191722
1215.270, 4.716219
1215.752, 4.305410
1216.235, 4.098186
1216.717, 4.265337
1217.199, 4.625339
1217.681, 5.304353
1218.163, 5.963003
1218.645, 5.725741
1219.127, 4.151690
1219.609, 3.530041
1220.092, 4.044203
1220.574, 4.621358
1221.056, 4.293838
1221.538, 3.747797
1222.020, 3.570590
1222.502, 3.683254
1222.984, 3.869003
1223.466, 4.169680
1223.948, 4.224847
1224.431, 3.986984
1224.913, 3.850787
1225.395, 4.152061
1225.877, 4.670807
1226.359, 5.498610
1226.841, 6.328410
1227.323, 6.461924
1227.805, 5.790212
1228.287, 5.097018
1228.770, 4.425895
1229.252, 3.992146
1229.734, 4.183184
1230.216, 4.471830
1230.698, 4.381488
1231.180, 4.126517
1231.662, 4.305135
1232.144, 4.988867
1232.627, 4.966270
1233.109, 4.113043
1233.591, 3.450238
1234.073, 3.973383
1234.555, 4.705954
1235.037, 4.961562
1235.519, 5.000843
1236.001, 5.418190
1236.484, 6.210509
1236.966, 6.544069
1237.448, 6.343906
1237.930, 6.023959
1238.412, 5.848073
1238.894, 5.651014
1239.376, 5.312185
1239.858, 4.908324
1240.340, 4.387659
1240.823, 3.828439
1241.305, 4.410260
1241.787, 6.178694
1242.269, 7.284835
1242.751, 5.759405
1243.233, 4.247020
1243.715, 3.858315
1244.197, 4.178958
1244.679, 4.844769
1245.162, 5.706333
1245.644, 5.883072
1246.126, 5.324137
1246.608, 4.541241
1247.090, 3.369296
1247.572, 2.589647
1248.054, 2.508942
1248.536, 2.794466
1249.019, 2.845720
1249.501, 2.855068
1249.983, 3.778664
1250.465, 5.552147
1250.947, 6.515039
1251.429, 4.848448
1251.911, 3.858790
1252.393, 4.405927
1252.875, 5.562620
1253.358, 6.298227
1253.840, 6.617995
1254.322, 6.400672
1254.804, 5.708463
1255.286, 5.131938
1255.768, 4.780757
1256.250, 4.691766
1256.732, 4.958253
1257.214, 5.272207
1257.697, 5.237317
1258.179, 5.008446
1258.661, 4.781405
1259.143, 4.585577
1259.625, 4.513962
1260.107, 4.606277
1260.589, 4.745660
1261.071, 4.941594
1261.554, 5.072095
1262.036, 4.874464
1262.518, 4.635207
1263.000, 4.721771
1263.482, 5.085164
1263.964, 5.443116
1264.446, 5.908901
1264.928, 5.631389
1265.411, 4.378134
1265.893, 3.401671
1266.375, 4.237183
1266.857, 5.468267
1267.339, 5.979443
1267.821, 5.844821
1268.303, 5.425033
1268.785, 4.656850
1269.267, 4.518481
1269.750, 5.135694
1270.232, 5.697474
1270.714, 5.499486
1271.196, 5.154502
1271.678, 4.961199
1272.160, 4.930493
1272.642, 5.130349
1273.124, 5.542320
1273.606, 6.043303
1274.089, 6.589023
1274.571, 6.651599
1275.053, 5.216226
1275.535, 4.108107
1276.017, 4.012008
1276.499, 4.529640
1276.981, 5.493149
1277.463, 6.612295
1277.946, 6.504115
1278.428, 5.285965
1278.910, 4.403598
1279.392, 4.908035
1279.874, 5.227638
1280.356, 4.997647
1280.838, 4.667136
1281.320, 4.775258
1281.802, 5.124217
1282.285, 5.294190
1282.767, 5.315013
1283.249, 5.412537
1283.731, 6.022061
1284.213, 5.842967
1284.695, 4.565241
1285.177, 3.292699
1285.659, 2.968708
1286.141, 3.284977
1286.624, 4.191523
1287.106, 5.386758
1287.588, 6.088618
1288.070, 6.270267
1288.552, 5.752481
1289.034, 4.437535
1289.516, 3.488683
1289.998, 4.344216
1290.481, 5.378105
1290.963, 5.129561
1291.445, 4.236219
1291.927, 3.745175
1292.409, 3.645900
1292.891, 4.477139
1293.373, 6.147425
1293.855, 7.187083
1294.338, 5.870448
1294.820, 4.729783
1295.302, 5.331220
1295.784, 6.347141
1296.266, 6.700504
1296.748, 6.454069
1297.230, 5.740374
1297.712, 4.764951
1298.194, 4.397601
1298.677, 6.069755
1299.159, 6.726609
1299.641, 5.385743
1300.123, 4.084237
1300.605, 4.859214
1301.087, 6.526142
1301.569, 5.881630
1302.051, 3.881336
1302.533, 2.686065
1303.016, 2.787978
##END=



