##NAMES=Pseudomalachite
##RRUFFID=R050264
##IDEAL CHEMISTRY=Cu^2+^_5_(P^5+^O_4_)_2_(OH)_4_
##LOCALITY=Cerro Morita, 27 km southwest of Agua Prieta, Sonora, Mexico
##OWNER=RRUFF
##SOURCE=Marcus Origlieri
##DESCRIPTION=Blue powdery crust
##STATUS=The identification of this mineral has been confirmed by X-ray diffraction and chemical analysis
##URL=rruff.info/R050264
##MEASURED CHEMISTRY=(Cu_4.91_Al_0.04_[box]_0.03_Ca_0.02_)_Σ=5_((P_1.98_S_0.02_)_Σ=1_O_4_)_2_(OH)_4_ ; = light phase
8.936163e+001, 0.000000e+000
8.984375e+001, 1.373627e+002
9.032587e+001, 1.386098e+002
9.080798e+001, 1.388548e+002
9.129010e+001, 1.377193e+002
9.177222e+001, 1.360201e+002
9.225433e+001, 1.346750e+002
9.273645e+001, 1.336608e+002
9.321857e+001, 1.327993e+002
9.370068e+001, 1.321893e+002
9.418280e+001, 1.316733e+002
9.466492e+001, 1.307238e+002
9.514703e+001, 1.289147e+002
9.562915e+001, 1.266016e+002
9.611127e+001, 1.247296e+002
9.659338e+001, 1.233414e+002
9.707550e+001, 1.222424e+002
9.755762e+001, 1.212644e+002
9.803973e+001, 1.204063e+002
9.852185e+001, 1.195171e+002
9.900397e+001, 1.184296e+002
9.948608e+001, 1.171284e+002
9.996820e+001, 1.162462e+002
1.004503e+002, 1.159517e+002
1.009324e+002, 1.158718e+002
1.014146e+002, 1.151855e+002
1.018967e+002, 1.137272e+002
1.023788e+002, 1.121190e+002
1.028609e+002, 1.106065e+002
1.033430e+002, 1.091355e+002
1.038251e+002, 1.080080e+002
1.043073e+002, 1.074069e+002
1.047894e+002, 1.071957e+002
1.052715e+002, 1.066341e+002
1.057536e+002, 1.054518e+002
1.062357e+002, 1.042115e+002
1.067178e+002, 1.032973e+002
1.072000e+002, 1.029521e+002
1.076821e+002, 1.025963e+002
1.081642e+002, 1.022203e+002
1.086463e+002, 1.018407e+002
1.091284e+002, 1.012109e+002
1.096105e+002, 1.002318e+002
1.100927e+002, 9.904247e+001
1.105748e+002, 9.778325e+001
1.110569e+002, 9.599269e+001
1.115390e+002, 9.456814e+001
1.120211e+002, 9.386646e+001
1.125032e+002, 9.416819e+001
1.129854e+002, 9.418782e+001
1.134675e+002, 9.367951e+001
1.139496e+002, 9.280497e+001
1.144317e+002, 9.178783e+001
1.149138e+002, 9.039153e+001
1.153959e+002, 8.908363e+001
1.158781e+002, 8.809791e+001
1.163602e+002, 8.756069e+001
1.168423e+002, 8.712818e+001
1.173244e+002, 8.677061e+001
1.178065e+002, 8.643461e+001
1.182886e+002, 8.598436e+001
1.187708e+002, 8.526382e+001
1.192529e+002, 8.445504e+001
1.197350e+002, 8.370370e+001
1.202171e+002, 8.303964e+001
1.206992e+002, 8.244741e+001
1.211813e+002, 8.195908e+001
1.216635e+002, 8.155608e+001
1.221456e+002, 8.114829e+001
1.226277e+002, 8.075947e+001
1.231098e+002, 8.031414e+001
1.235919e+002, 7.970756e+001
1.240740e+002, 7.868733e+001
1.245562e+002, 7.761624e+001
1.250383e+002, 7.693690e+001
1.255204e+002, 7.664345e+001
1.260025e+002, 7.642115e+001
1.264846e+002, 7.590667e+001
1.269667e+002, 7.523983e+001
1.274489e+002, 7.477007e+001
1.279310e+002, 7.483681e+001
1.284131e+002, 7.517227e+001
1.288952e+002, 7.528343e+001
1.293773e+002, 7.515748e+001
1.298594e+002, 7.480098e+001
1.303416e+002, 7.406265e+001
1.308237e+002, 7.300960e+001
1.313058e+002, 7.208112e+001
1.317879e+002, 7.160340e+001
1.322700e+002, 7.148174e+001
1.327521e+002, 7.126633e+001
1.332343e+002, 7.092777e+001
1.337164e+002, 7.047243e+001
1.341985e+002, 6.982050e+001
1.346806e+002, 6.895112e+001
1.351627e+002, 6.815831e+001
1.356448e+002, 6.762379e+001
1.361270e+002, 6.734510e+001
1.366091e+002, 6.726336e+001
1.370912e+002, 6.741728e+001
1.375733e+002, 6.774226e+001
1.380554e+002, 6.792055e+001
1.385375e+002, 6.779326e+001
1.390197e+002, 6.798952e+001
1.395018e+002, 6.919831e+001
1.399839e+002, 7.172237e+001
1.404660e+002, 7.391460e+001
1.409481e+002, 7.562036e+001
1.414302e+002, 7.680245e+001
1.419124e+002, 7.691778e+001
1.423945e+002, 7.533421e+001
1.428766e+002, 7.355726e+001
1.433587e+002, 7.333871e+001
1.438408e+002, 7.599998e+001
1.443229e+002, 7.750172e+001
1.448051e+002, 7.676696e+001
1.452872e+002, 7.346223e+001
1.457693e+002, 7.023914e+001
1.462514e+002, 6.666810e+001
1.467335e+002, 6.340080e+001
1.472156e+002, 6.125751e+001
1.476978e+002, 6.099740e+001
1.481799e+002, 6.095531e+001
1.486620e+002, 6.072921e+001
1.491441e+002, 6.023812e+001
1.496262e+002, 5.978542e+001
1.501083e+002, 5.934338e+001
1.505905e+002, 5.895000e+001
1.510726e+002, 5.867244e+001
1.515547e+002, 5.837168e+001
1.520368e+002, 5.830661e+001
1.525189e+002, 5.862824e+001
1.530010e+002, 5.986684e+001
1.534832e+002, 6.056202e+001
1.539653e+002, 6.001704e+001
1.544474e+002, 5.883037e+001
1.549295e+002, 5.843877e+001
1.554116e+002, 5.981755e+001
1.558937e+002, 6.145254e+001
1.563759e+002, 6.262407e+001
1.568580e+002, 6.258838e+001
1.573401e+002, 6.295501e+001
1.578222e+002, 6.417415e+001
1.583043e+002, 6.607864e+001
1.587864e+002, 6.805186e+001
1.592686e+002, 6.952325e+001
1.597507e+002, 7.124624e+001
1.602328e+002, 7.370417e+001
1.607149e+002, 7.738521e+001
1.611970e+002, 8.143932e+001
1.616791e+002, 8.537102e+001
1.621613e+002, 8.926548e+001
1.626434e+002, 9.408311e+001
1.631255e+002, 1.005062e+002
1.636076e+002, 1.078595e+002
1.640897e+002, 1.155414e+002
1.645718e+002, 1.229231e+002
1.650540e+002, 1.309482e+002
1.655361e+002, 1.401199e+002
1.660182e+002, 1.504707e+002
1.665003e+002, 1.615240e+002
1.669824e+002, 1.731793e+002
1.674645e+002, 1.854938e+002
1.679467e+002, 1.983680e+002
1.684288e+002, 2.119084e+002
1.689109e+002, 2.260233e+002
1.693930e+002, 2.408173e+002
1.698751e+002, 2.563806e+002
1.703572e+002, 2.719759e+002
1.708394e+002, 2.872416e+002
1.713215e+002, 3.023901e+002
1.718036e+002, 3.175388e+002
1.722857e+002, 3.334791e+002
1.727678e+002, 3.492192e+002
1.732499e+002, 3.637077e+002
1.737321e+002, 3.769236e+002
1.742142e+002, 3.893122e+002
1.746963e+002, 4.016898e+002
1.751784e+002, 4.138116e+002
1.756605e+002, 4.251446e+002
1.761426e+002, 4.347816e+002
1.766248e+002, 4.435805e+002
1.771069e+002, 4.525347e+002
1.775890e+002, 4.617253e+002
1.780711e+002, 4.712767e+002
1.785532e+002, 4.811534e+002
1.790353e+002, 4.915271e+002
1.795175e+002, 5.026192e+002
1.799996e+002, 5.143375e+002
1.804817e+002, 5.269359e+002
1.809638e+002, 5.412909e+002
1.814459e+002, 5.577706e+002
1.819280e+002, 5.754125e+002
1.824102e+002, 5.937094e+002
1.828923e+002, 6.122772e+002
1.833744e+002, 6.308892e+002
1.838565e+002, 6.486075e+002
1.843386e+002, 6.660939e+002
1.848207e+002, 6.848808e+002
1.853029e+002, 7.057820e+002
1.857850e+002, 7.272780e+002
1.862671e+002, 7.475528e+002
1.867492e+002, 7.665259e+002
1.872313e+002, 7.844745e+002
1.877134e+002, 8.014915e+002
1.881956e+002, 8.177139e+002
1.886777e+002, 8.328533e+002
1.891598e+002, 8.467697e+002
1.896419e+002, 8.599459e+002
1.901240e+002, 8.735967e+002
1.906061e+002, 8.879335e+002
1.910883e+002, 9.019564e+002
1.915704e+002, 9.150248e+002
1.920525e+002, 9.273010e+002
1.925346e+002, 9.391703e+002
1.930167e+002, 9.505062e+002
1.934988e+002, 9.609387e+002
1.939810e+002, 9.682193e+002
1.944631e+002, 9.716016e+002
1.949452e+002, 9.743458e+002
1.954273e+002, 9.748661e+002
1.959094e+002, 9.732288e+002
1.963915e+002, 9.716887e+002
1.968737e+002, 9.706591e+002
1.973558e+002, 9.700516e+002
1.978379e+002, 9.695204e+002
1.983200e+002, 9.690494e+002
1.988021e+002, 9.688152e+002
1.992842e+002, 9.690186e+002
1.997664e+002, 9.696845e+002
2.002485e+002, 9.705506e+002
2.007306e+002, 9.717004e+002
2.012127e+002, 9.730502e+002
2.016948e+002, 9.738817e+002
2.021769e+002, 9.739662e+002
2.026591e+002, 9.743124e+002
2.031412e+002, 9.760744e+002
2.036233e+002, 9.794678e+002
2.041054e+002, 9.826478e+002
2.045875e+002, 9.850789e+002
2.050696e+002, 9.868834e+002
2.055518e+002, 9.891669e+002
2.060339e+002, 9.919308e+002
2.065160e+002, 9.951092e+002
2.069981e+002, 9.987626e+002
2.074802e+002, 1.002973e+003
2.079623e+002, 1.007065e+003
2.084445e+002, 1.010980e+003
2.089266e+002, 1.014708e+003
2.094087e+002, 1.017731e+003
2.098908e+002, 1.020040e+003
2.103729e+002, 1.021709e+003
2.108550e+002, 1.022577e+003
2.113372e+002, 1.022237e+003
2.118193e+002, 1.022547e+003
2.123014e+002, 1.024411e+003
2.127835e+002, 1.027823e+003
2.132656e+002, 1.029344e+003
2.137477e+002, 1.028482e+003
2.142299e+002, 1.026444e+003
2.147120e+002, 1.024531e+003
2.151941e+002, 1.022624e+003
2.156762e+002, 1.021107e+003
2.161583e+002, 1.020252e+003
2.166404e+002, 1.020131e+003
2.171226e+002, 1.019270e+003
2.176047e+002, 1.017573e+003
2.180868e+002, 1.015249e+003
2.185689e+002, 1.012346e+003
2.190510e+002, 1.008351e+003
2.195331e+002, 1.004947e+003
2.200153e+002, 1.002404e+003
2.204974e+002, 1.000694e+003
2.209795e+002, 1.000398e+003
2.214616e+002, 1.002531e+003
2.219437e+002, 1.005048e+003
2.224258e+002, 1.005249e+003
2.229080e+002, 1.002101e+003
2.233901e+002, 9.988734e+002
2.238722e+002, 9.963519e+002
2.243543e+002, 9.944968e+002
2.248364e+002, 9.933976e+002
2.253185e+002, 9.933392e+002
2.258007e+002, 9.937454e+002
2.262828e+002, 9.938801e+002
2.267649e+002, 9.935413e+002
2.272470e+002, 9.932423e+002
2.277291e+002, 9.930123e+002
2.282112e+002, 9.927601e+002
2.286934e+002, 9.932095e+002
2.291755e+002, 9.949460e+002
2.296576e+002, 9.968572e+002
2.301397e+002, 9.973273e+002
2.306218e+002, 9.953287e+002
2.311039e+002, 9.938334e+002
2.315861e+002, 9.939050e+002
2.320682e+002, 9.959543e+002
2.325503e+002, 9.967354e+002
2.330324e+002, 9.955486e+002
2.335145e+002, 9.937411e+002
2.339966e+002, 9.929926e+002
2.344788e+002, 9.936818e+002
2.349609e+002, 9.948229e+002
2.354430e+002, 9.963160e+002
2.359251e+002, 9.982768e+002
2.364072e+002, 9.997830e+002
2.368893e+002, 1.000601e+003
2.373715e+002, 1.001144e+003
2.378536e+002, 1.001882e+003
2.383357e+002, 1.002725e+003
2.388178e+002, 1.003895e+003
2.392999e+002, 1.005495e+003
2.397820e+002, 1.007549e+003
2.402642e+002, 1.009649e+003
2.407463e+002, 1.012008e+003
2.412284e+002, 1.014192e+003
2.417105e+002, 1.015632e+003
2.421926e+002, 1.015984e+003
2.426747e+002, 1.016153e+003
2.431569e+002, 1.016171e+003
2.436390e+002, 1.015920e+003
2.441211e+002, 1.016571e+003
2.446032e+002, 1.018817e+003
2.450853e+002, 1.021348e+003
2.455674e+002, 1.022519e+003
2.460496e+002, 1.021363e+003
2.465317e+002, 1.020691e+003
2.470138e+002, 1.021460e+003
2.474959e+002, 1.023919e+003
2.479780e+002, 1.024985e+003
2.484601e+002, 1.023811e+003
2.489423e+002, 1.022138e+003
2.494244e+002, 1.022024e+003
2.499065e+002, 1.024526e+003
2.503886e+002, 1.026525e+003
2.508707e+002, 1.027066e+003
2.513528e+002, 1.026045e+003
2.518350e+002, 1.026114e+003
2.523171e+002, 1.027601e+003
2.527992e+002, 1.029805e+003
2.532813e+002, 1.032127e+003
2.537634e+002, 1.034807e+003
2.542455e+002, 1.037008e+003
2.547277e+002, 1.038581e+003
2.552098e+002, 1.039518e+003
2.556919e+002, 1.039704e+003
2.561740e+002, 1.038834e+003
2.566561e+002, 1.037556e+003
2.571382e+002, 1.036335e+003
2.576204e+002, 1.034750e+003
2.581025e+002, 1.034275e+003
2.585846e+002, 1.035755e+003
2.590667e+002, 1.039031e+003
2.595488e+002, 1.040273e+003
2.600309e+002, 1.038561e+003
2.605131e+002, 1.036151e+003
2.609952e+002, 1.035186e+003
2.614773e+002, 1.036394e+003
2.619594e+002, 1.037014e+003
2.624415e+002, 1.036479e+003
2.629236e+002, 1.034908e+003
2.634058e+002, 1.033481e+003
2.638879e+002, 1.032186e+003
2.643700e+002, 1.031054e+003
2.648521e+002, 1.030103e+003
2.653342e+002, 1.029395e+003
2.658163e+002, 1.028673e+003
2.662985e+002, 1.027782e+003
2.667806e+002, 1.026833e+003
2.672627e+002, 1.026616e+003
2.677448e+002, 1.027478e+003
2.682269e+002, 1.028320e+003
2.687090e+002, 1.028216e+003
2.691912e+002, 1.026865e+003
2.696733e+002, 1.025781e+003
2.701554e+002, 1.025101e+003
2.706375e+002, 1.024812e+003
2.711196e+002, 1.025036e+003
2.716017e+002, 1.025981e+003
2.720839e+002, 1.026841e+003
2.725660e+002, 1.026996e+003
2.730481e+002, 1.026338e+003
2.735302e+002, 1.025698e+003
2.740123e+002, 1.025109e+003
2.744944e+002, 1.024624e+003
2.749766e+002, 1.024442e+003
2.754587e+002, 1.024642e+003
2.759408e+002, 1.024879e+003
2.764229e+002, 1.024869e+003
2.769050e+002, 1.024574e+003
2.773871e+002, 1.024598e+003
2.778693e+002, 1.025018e+003
2.783514e+002, 1.025753e+003
2.788335e+002, 1.026644e+003
2.793156e+002, 1.027716e+003
2.797977e+002, 1.028871e+003
2.802798e+002, 1.030280e+003
2.807620e+002, 1.031937e+003
2.812441e+002, 1.032700e+003
2.817262e+002, 1.032307e+003
2.822083e+002, 1.031355e+003
2.826904e+002, 1.030753e+003
2.831725e+002, 1.030480e+003
2.836547e+002, 1.030714e+003
2.841368e+002, 1.031752e+003
2.846189e+002, 1.033503e+003
2.851010e+002, 1.035068e+003
2.855831e+002, 1.036445e+003
2.860652e+002, 1.037570e+003
2.865474e+002, 1.038138e+003
2.870295e+002, 1.038167e+003
2.875116e+002, 1.038476e+003
2.879937e+002, 1.039666e+003
2.884758e+002, 1.041543e+003
2.889579e+002, 1.042792e+003
2.894401e+002, 1.043336e+003
2.899222e+002, 1.043760e+003
2.904043e+002, 1.044841e+003
2.908864e+002, 1.046507e+003
2.913685e+002, 1.048161e+003
2.918506e+002, 1.049833e+003
2.923328e+002, 1.051295e+003
2.928149e+002, 1.051566e+003
2.932970e+002, 1.050564e+003
2.937791e+002, 1.049406e+003
2.942612e+002, 1.049141e+003
2.947433e+002, 1.049671e+003
2.952255e+002, 1.050695e+003
2.957076e+002, 1.052484e+003
2.961897e+002, 1.054490e+003
2.966718e+002, 1.055489e+003
2.971539e+002, 1.055499e+003
2.976360e+002, 1.055287e+003
2.981182e+002, 1.055371e+003
2.986003e+002, 1.055725e+003
2.990824e+002, 1.056311e+003
2.995645e+002, 1.057204e+003
3.000466e+002, 1.058231e+003
3.005287e+002, 1.059352e+003
3.010109e+002, 1.060500e+003
3.014930e+002, 1.061209e+003
3.019751e+002, 1.060878e+003
3.024572e+002, 1.059929e+003
3.029393e+002, 1.059054e+003
3.034214e+002, 1.058365e+003
3.039036e+002, 1.057862e+003
3.043857e+002, 1.057691e+003
3.048678e+002, 1.057759e+003
3.053499e+002, 1.057707e+003
3.058320e+002, 1.057005e+003
3.063141e+002, 1.056189e+003
3.067963e+002, 1.056003e+003
3.072784e+002, 1.056746e+003
3.077605e+002, 1.057591e+003
3.082426e+002, 1.057771e+003
3.087247e+002, 1.057503e+003
3.092068e+002, 1.057317e+003
3.096890e+002, 1.057726e+003
3.101711e+002, 1.058163e+003
3.106532e+002, 1.057978e+003
3.111353e+002, 1.056932e+003
3.116174e+002, 1.056067e+003
3.120995e+002, 1.056302e+003
3.125817e+002, 1.057114e+003
3.130638e+002, 1.057667e+003
3.135459e+002, 1.057448e+003
3.140280e+002, 1.056998e+003
3.145101e+002, 1.056614e+003
3.149922e+002, 1.056329e+003
3.154744e+002, 1.056125e+003
3.159565e+002, 1.056076e+003
3.164386e+002, 1.056113e+003
3.169207e+002, 1.056161e+003
3.174028e+002, 1.056328e+003
3.178849e+002, 1.056420e+003
3.183671e+002, 1.056206e+003
3.188492e+002, 1.055726e+003
3.193313e+002, 1.055637e+003
3.198134e+002, 1.056743e+003
3.202955e+002, 1.058027e+003
3.207776e+002, 1.058667e+003
3.212598e+002, 1.057705e+003
3.217419e+002, 1.056890e+003
3.222240e+002, 1.056510e+003
3.227061e+002, 1.056556e+003
3.231882e+002, 1.057012e+003
3.236703e+002, 1.058060e+003
3.241525e+002, 1.059371e+003
3.246346e+002, 1.060777e+003
3.251167e+002, 1.062669e+003
3.255988e+002, 1.064105e+003
3.260809e+002, 1.065044e+003
3.265630e+002, 1.065483e+003
3.270452e+002, 1.065403e+003
3.275273e+002, 1.063705e+003
3.280094e+002, 1.062456e+003
3.284915e+002, 1.062467e+003
3.289736e+002, 1.064435e+003
3.294557e+002, 1.066127e+003
3.299379e+002, 1.067336e+003
3.304200e+002, 1.068338e+003
3.309021e+002, 1.069652e+003
3.313842e+002, 1.072487e+003
3.318663e+002, 1.073989e+003
3.323484e+002, 1.072842e+003
3.328306e+002, 1.068394e+003
3.333127e+002, 1.065618e+003
3.337948e+002, 1.064875e+003
3.342769e+002, 1.065466e+003
3.347590e+002, 1.066788e+003
3.352411e+002, 1.069356e+003
3.357233e+002, 1.071543e+003
3.362054e+002, 1.072971e+003
3.366875e+002, 1.073698e+003
3.371696e+002, 1.074307e+003
3.376517e+002, 1.074784e+003
3.381339e+002, 1.075216e+003
3.386160e+002, 1.075619e+003
3.390981e+002, 1.075946e+003
3.395802e+002, 1.076565e+003
3.400623e+002, 1.077653e+003
3.405444e+002, 1.079005e+003
3.410266e+002, 1.079742e+003
3.415087e+002, 1.079706e+003
3.419908e+002, 1.079794e+003
3.424729e+002, 1.080551e+003
3.429550e+002, 1.081956e+003
3.434371e+002, 1.083833e+003
3.439193e+002, 1.086410e+003
3.444014e+002, 1.088932e+003
3.448835e+002, 1.089594e+003
3.453656e+002, 1.088415e+003
3.458477e+002, 1.087585e+003
3.463298e+002, 1.088397e+003
3.468120e+002, 1.090532e+003
3.472941e+002, 1.092730e+003
3.477762e+002, 1.095087e+003
3.482583e+002, 1.097027e+003
3.487404e+002, 1.097355e+003
3.492225e+002, 1.096515e+003
3.497047e+002, 1.096388e+003
3.501868e+002, 1.098358e+003
3.506689e+002, 1.101189e+003
3.511510e+002, 1.102502e+003
3.516331e+002, 1.102312e+003
3.521152e+002, 1.102054e+003
3.525974e+002, 1.102910e+003
3.530795e+002, 1.104533e+003
3.535616e+002, 1.106287e+003
3.540437e+002, 1.107982e+003
3.545258e+002, 1.109744e+003
3.550079e+002, 1.111933e+003
3.554901e+002, 1.114404e+003
3.559722e+002, 1.116545e+003
3.564543e+002, 1.117650e+003
3.569364e+002, 1.118400e+003
3.574185e+002, 1.119435e+003
3.579006e+002, 1.120781e+003
3.583828e+002, 1.122685e+003
3.588649e+002, 1.125936e+003
3.593470e+002, 1.129858e+003
3.598291e+002, 1.133111e+003
3.603112e+002, 1.134125e+003
3.607933e+002, 1.135026e+003
3.612755e+002, 1.137315e+003
3.617576e+002, 1.141353e+003
3.622397e+002, 1.145045e+003
3.627218e+002, 1.147312e+003
3.632039e+002, 1.148899e+003
3.636860e+002, 1.150639e+003
3.641682e+002, 1.153203e+003
3.646503e+002, 1.155519e+003
3.651324e+002, 1.157020e+003
3.656145e+002, 1.157758e+003
3.660966e+002, 1.158769e+003
3.665787e+002, 1.161483e+003
3.670609e+002, 1.163743e+003
3.675430e+002, 1.164169e+003
3.680251e+002, 1.160859e+003
3.685072e+002, 1.157816e+003
3.689893e+002, 1.155217e+003
3.694714e+002, 1.153080e+003
3.699536e+002, 1.151595e+003
3.704357e+002, 1.151455e+003
3.709178e+002, 1.151241e+003
3.713999e+002, 1.150438e+003
3.718820e+002, 1.149022e+003
3.723641e+002, 1.147038e+003
3.728463e+002, 1.144312e+003
3.733284e+002, 1.141149e+003
3.738105e+002, 1.137813e+003
3.742926e+002, 1.133777e+003
3.747747e+002, 1.130743e+003
3.752568e+002, 1.129330e+003
3.757390e+002, 1.129548e+003
3.762211e+002, 1.130012e+003
3.767032e+002, 1.131038e+003
3.771853e+002, 1.131627e+003
3.776674e+002, 1.130422e+003
3.781495e+002, 1.127118e+003
3.786317e+002, 1.124726e+003
3.791138e+002, 1.124052e+003
3.795959e+002, 1.124512e+003
3.800780e+002, 1.124251e+003
3.805601e+002, 1.123219e+003
3.810422e+002, 1.122098e+003
3.815244e+002, 1.121226e+003
3.820065e+002, 1.120638e+003
3.824886e+002, 1.120545e+003
3.829707e+002, 1.121024e+003
3.834528e+002, 1.121887e+003
3.839349e+002, 1.123360e+003
3.844171e+002, 1.125210e+003
3.848992e+002, 1.126157e+003
3.853813e+002, 1.124769e+003
3.858634e+002, 1.122344e+003
3.863455e+002, 1.121135e+003
3.868276e+002, 1.121240e+003
3.873098e+002, 1.121781e+003
3.877919e+002, 1.122199e+003
3.882740e+002, 1.122488e+003
3.887561e+002, 1.122642e+003
3.892382e+002, 1.122492e+003
3.897203e+002, 1.122339e+003
3.902025e+002, 1.122366e+003
3.906846e+002, 1.122572e+003
3.911667e+002, 1.122998e+003
3.916488e+002, 1.124055e+003
3.921309e+002, 1.125117e+003
3.926130e+002, 1.125674e+003
3.930952e+002, 1.125608e+003
3.935773e+002, 1.125065e+003
3.940594e+002, 1.123172e+003
3.945415e+002, 1.120937e+003
3.950236e+002, 1.120230e+003
3.955057e+002, 1.123853e+003
3.959879e+002, 1.127178e+003
3.964700e+002, 1.128098e+003
3.969521e+002, 1.126071e+003
3.974342e+002, 1.124280e+003
3.979163e+002, 1.122631e+003
3.983984e+002, 1.121723e+003
3.988806e+002, 1.122096e+003
3.993627e+002, 1.126091e+003
3.998448e+002, 1.128712e+003
4.003269e+002, 1.128682e+003
4.008090e+002, 1.126446e+003
4.012911e+002, 1.125404e+003
4.017733e+002, 1.126128e+003
4.022554e+002, 1.127346e+003
4.027375e+002, 1.128393e+003
4.032196e+002, 1.129053e+003
4.037017e+002, 1.130102e+003
4.041838e+002, 1.131612e+003
4.046660e+002, 1.133467e+003
4.051481e+002, 1.135651e+003
4.056302e+002, 1.138517e+003
4.061123e+002, 1.140439e+003
4.065944e+002, 1.140492e+003
4.070765e+002, 1.138791e+003
4.075587e+002, 1.137644e+003
4.080408e+002, 1.136911e+003
4.085229e+002, 1.137185e+003
4.090050e+002, 1.139792e+003
4.094871e+002, 1.144494e+003
4.099692e+002, 1.148057e+003
4.104514e+002, 1.149469e+003
4.109335e+002, 1.149689e+003
4.114156e+002, 1.150562e+003
4.118977e+002, 1.152044e+003
4.123798e+002, 1.153799e+003
4.128619e+002, 1.156122e+003
4.133441e+002, 1.158449e+003
4.138262e+002, 1.159419e+003
4.143083e+002, 1.158634e+003
4.147904e+002, 1.157785e+003
4.152725e+002, 1.158938e+003
4.157546e+002, 1.161246e+003
4.162368e+002, 1.162971e+003
4.167189e+002, 1.162688e+003
4.172010e+002, 1.161963e+003
4.176831e+002, 1.162137e+003
4.181652e+002, 1.163175e+003
4.186473e+002, 1.164078e+003
4.191295e+002, 1.164021e+003
4.196116e+002, 1.163716e+003
4.200937e+002, 1.163771e+003
4.205758e+002, 1.164253e+003
4.210579e+002, 1.165224e+003
4.215400e+002, 1.167335e+003
4.220222e+002, 1.169979e+003
4.225043e+002, 1.171716e+003
4.229864e+002, 1.171011e+003
4.234685e+002, 1.170398e+003
4.239506e+002, 1.170930e+003
4.244327e+002, 1.173041e+003
4.249149e+002, 1.175079e+003
4.253970e+002, 1.176831e+003
4.258791e+002, 1.178566e+003
4.263612e+002, 1.180552e+003
4.268433e+002, 1.182695e+003
4.273254e+002, 1.185228e+003
4.278076e+002, 1.188352e+003
4.282897e+002, 1.191952e+003
4.287718e+002, 1.195038e+003
4.292539e+002, 1.197349e+003
4.297360e+002, 1.199550e+003
4.302181e+002, 1.202016e+003
4.307003e+002, 1.204785e+003
4.311824e+002, 1.207489e+003
4.316645e+002, 1.210110e+003
4.321466e+002, 1.212654e+003
4.326287e+002, 1.214967e+003
4.331108e+002, 1.217031e+003
4.335930e+002, 1.219435e+003
4.340751e+002, 1.222677e+003
4.345572e+002, 1.226421e+003
4.350393e+002, 1.229473e+003
4.355214e+002, 1.231827e+003
4.360035e+002, 1.233948e+003
4.364857e+002, 1.236262e+003
4.369678e+002, 1.238631e+003
4.374499e+002, 1.240765e+003
4.379320e+002, 1.242574e+003
4.384141e+002, 1.244163e+003
4.388962e+002, 1.245389e+003
4.393784e+002, 1.246430e+003
4.398605e+002, 1.247824e+003
4.403426e+002, 1.250230e+003
4.408247e+002, 1.252849e+003
4.413068e+002, 1.254983e+003
4.417889e+002, 1.256505e+003
4.422711e+002, 1.258051e+003
4.427532e+002, 1.259878e+003
4.432353e+002, 1.261908e+003
4.437174e+002, 1.264059e+003
4.441995e+002, 1.266631e+003
4.446816e+002, 1.268971e+003
4.451638e+002, 1.270476e+003
4.456459e+002, 1.271452e+003
4.461280e+002, 1.273373e+003
4.466101e+002, 1.277353e+003
4.470922e+002, 1.281575e+003
4.475743e+002, 1.285321e+003
4.480565e+002, 1.288527e+003
4.485386e+002, 1.291350e+003
4.490207e+002, 1.294128e+003
4.495028e+002, 1.296297e+003
4.499849e+002, 1.297060e+003
4.504670e+002, 1.296152e+003
4.509492e+002, 1.294462e+003
4.514313e+002, 1.292138e+003
4.519134e+002, 1.289209e+003
4.523955e+002, 1.285757e+003
4.528776e+002, 1.281750e+003
4.533597e+002, 1.277626e+003
4.538419e+002, 1.273551e+003
4.543240e+002, 1.269573e+003
4.548061e+002, 1.266217e+003
4.552882e+002, 1.263699e+003
4.557703e+002, 1.261442e+003
4.562524e+002, 1.258247e+003
4.567346e+002, 1.254322e+003
4.572167e+002, 1.251367e+003
4.576988e+002, 1.250745e+003
4.581809e+002, 1.251188e+003
4.586630e+002, 1.250383e+003
4.591451e+002, 1.248393e+003
4.596273e+002, 1.246305e+003
4.601094e+002, 1.244316e+003
4.605915e+002, 1.242953e+003
4.610736e+002, 1.243045e+003
4.615557e+002, 1.245227e+003
4.620378e+002, 1.247889e+003
4.625200e+002, 1.250414e+003
4.630021e+002, 1.252670e+003
4.634842e+002, 1.254340e+003
4.639663e+002, 1.255092e+003
4.644484e+002, 1.255447e+003
4.649305e+002, 1.255078e+003
4.654127e+002, 1.253865e+003
4.658948e+002, 1.254401e+003
4.663769e+002, 1.258723e+003
4.668590e+002, 1.264092e+003
4.673411e+002, 1.268510e+003
4.678232e+002, 1.270732e+003
4.683054e+002, 1.273576e+003
4.687875e+002, 1.277108e+003
4.692696e+002, 1.281279e+003
4.697517e+002, 1.286094e+003
4.702338e+002, 1.291786e+003
4.707159e+002, 1.297613e+003
4.711981e+002, 1.303324e+003
4.716802e+002, 1.308910e+003
4.721623e+002, 1.314441e+003
4.726444e+002, 1.319701e+003
4.731265e+002, 1.325289e+003
4.736086e+002, 1.331972e+003
4.740908e+002, 1.339719e+003
4.745729e+002, 1.346982e+003
4.750550e+002, 1.353387e+003
4.755371e+002, 1.359291e+003
4.760192e+002, 1.365448e+003
4.765013e+002, 1.371800e+003
4.769835e+002, 1.377722e+003
4.774656e+002, 1.383332e+003
4.779477e+002, 1.388182e+003
4.784298e+002, 1.391467e+003
4.789119e+002, 1.393132e+003
4.793940e+002, 1.393753e+003
4.798762e+002, 1.393659e+003
4.803583e+002, 1.392824e+003
4.808404e+002, 1.391320e+003
4.813225e+002, 1.390043e+003
4.818046e+002, 1.386946e+003
4.822867e+002, 1.380286e+003
4.827689e+002, 1.370977e+003
4.832510e+002, 1.361332e+003
4.837331e+002, 1.351428e+003
4.842152e+002, 1.341951e+003
4.846973e+002, 1.333266e+003
4.851794e+002, 1.325437e+003
4.856616e+002, 1.317983e+003
4.861437e+002, 1.310857e+003
4.866258e+002, 1.304109e+003
4.871079e+002, 1.297737e+003
4.875900e+002, 1.291920e+003
4.880721e+002, 1.286074e+003
4.885543e+002, 1.280079e+003
4.890364e+002, 1.274018e+003
4.895185e+002, 1.268114e+003
4.900006e+002, 1.262268e+003
4.904827e+002, 1.256975e+003
4.909648e+002, 1.252752e+003
4.914470e+002, 1.249497e+003
4.919291e+002, 1.245430e+003
4.924112e+002, 1.240362e+003
4.928933e+002, 1.235500e+003
4.933754e+002, 1.232528e+003
4.938575e+002, 1.230967e+003
4.943397e+002, 1.228582e+003
4.948218e+002, 1.224568e+003
4.953039e+002, 1.220225e+003
4.957860e+002, 1.217199e+003
4.962681e+002, 1.215379e+003
4.967502e+002, 1.214362e+003
4.972324e+002, 1.214958e+003
4.977145e+002, 1.215607e+003
4.981966e+002, 1.214385e+003
4.986787e+002, 1.211177e+003
4.991608e+002, 1.208638e+003
4.996429e+002, 1.208957e+003
5.001251e+002, 1.210122e+003
5.006072e+002, 1.210305e+003
5.010893e+002, 1.207950e+003
5.015714e+002, 1.206128e+003
5.020535e+002, 1.205911e+003
5.025356e+002, 1.206651e+003
5.030178e+002, 1.206881e+003
5.034999e+002, 1.206126e+003
5.039820e+002, 1.205244e+003
5.044641e+002, 1.204381e+003
5.049462e+002, 1.203533e+003
5.054283e+002, 1.202958e+003
5.059105e+002, 1.202443e+003
5.063926e+002, 1.202592e+003
5.068747e+002, 1.204402e+003
5.073568e+002, 1.208406e+003
5.078389e+002, 1.210234e+003
5.083210e+002, 1.208884e+003
5.088032e+002, 1.206221e+003
5.092853e+002, 1.205539e+003
5.097674e+002, 1.206728e+003
5.102495e+002, 1.208018e+003
5.107316e+002, 1.208522e+003
5.112137e+002, 1.208696e+003
5.116959e+002, 1.209739e+003
5.121780e+002, 1.211552e+003
5.126601e+002, 1.213152e+003
5.131422e+002, 1.213818e+003
5.136243e+002, 1.213831e+003
5.141064e+002, 1.213513e+003
5.145886e+002, 1.212874e+003
5.150707e+002, 1.212091e+003
5.155528e+002, 1.211139e+003
5.160349e+002, 1.210169e+003
5.165170e+002, 1.209377e+003
5.169991e+002, 1.208699e+003
5.174813e+002, 1.208378e+003
5.179634e+002, 1.209056e+003
5.184455e+002, 1.210493e+003
5.189276e+002, 1.210675e+003
5.194097e+002, 1.207482e+003
5.198918e+002, 1.204665e+003
5.203740e+002, 1.204021e+003
5.208561e+002, 1.206719e+003
5.213382e+002, 1.207564e+003
5.218203e+002, 1.205596e+003
5.223024e+002, 1.202844e+003
5.227845e+002, 1.201721e+003
5.232667e+002, 1.202508e+003
5.237488e+002, 1.203236e+003
5.242309e+002, 1.203482e+003
5.247130e+002, 1.203439e+003
5.251951e+002, 1.203681e+003
5.256772e+002, 1.204201e+003
5.261594e+002, 1.204563e+003
5.266415e+002, 1.204542e+003
5.271236e+002, 1.204203e+003
5.276057e+002, 1.203559e+003
5.280878e+002, 1.202621e+003
5.285699e+002, 1.201830e+003
5.290521e+002, 1.201299e+003
5.295342e+002, 1.201247e+003
5.300163e+002, 1.202103e+003
5.304984e+002, 1.204586e+003
5.309805e+002, 1.206875e+003
5.314626e+002, 1.207337e+003
5.319448e+002, 1.206931e+003
5.324269e+002, 1.207508e+003
5.329090e+002, 1.210635e+003
5.333911e+002, 1.213804e+003
5.338732e+002, 1.216026e+003
5.343553e+002, 1.217190e+003
5.348375e+002, 1.218926e+003
5.353196e+002, 1.222653e+003
5.358017e+002, 1.225522e+003
5.362838e+002, 1.225704e+003
5.367659e+002, 1.221830e+003
5.372480e+002, 1.219137e+003
5.377302e+002, 1.218115e+003
5.382123e+002, 1.217648e+003
5.386944e+002, 1.216085e+003
5.391765e+002, 1.213345e+003
5.396586e+002, 1.210482e+003
5.401407e+002, 1.207712e+003
5.406229e+002, 1.205120e+003
5.411050e+002, 1.203062e+003
5.415871e+002, 1.201521e+003
5.420692e+002, 1.200149e+003
5.425513e+002, 1.199127e+003
5.430334e+002, 1.198003e+003
5.435156e+002, 1.195692e+003
5.439977e+002, 1.192065e+003
5.444798e+002, 1.189102e+003
5.449619e+002, 1.188826e+003
5.454440e+002, 1.189730e+003
5.459261e+002, 1.190161e+003
5.464083e+002, 1.189399e+003
5.468904e+002, 1.188467e+003
5.473725e+002, 1.187279e+003
5.478546e+002, 1.186156e+003
5.483367e+002, 1.185778e+003
5.488188e+002, 1.187321e+003
5.493010e+002, 1.188431e+003
5.497831e+002, 1.188435e+003
5.502652e+002, 1.187337e+003
5.507473e+002, 1.186235e+003
5.512294e+002, 1.185089e+003
5.517115e+002, 1.184007e+003
5.521937e+002, 1.182961e+003
5.526758e+002, 1.181910e+003
5.531579e+002, 1.181578e+003
5.536400e+002, 1.182221e+003
5.541221e+002, 1.183043e+003
5.546042e+002, 1.182934e+003
5.550864e+002, 1.182017e+003
5.555685e+002, 1.180963e+003
5.560506e+002, 1.179785e+003
5.565327e+002, 1.178819e+003
5.570148e+002, 1.178654e+003
5.574969e+002, 1.179142e+003
5.579791e+002, 1.179753e+003
5.584612e+002, 1.180398e+003
5.589433e+002, 1.180866e+003
5.594254e+002, 1.180617e+003
5.599075e+002, 1.179589e+003
5.603896e+002, 1.179473e+003
5.608718e+002, 1.182701e+003
5.613539e+002, 1.186038e+003
5.618360e+002, 1.187000e+003
5.623181e+002, 1.182778e+003
5.628002e+002, 1.179946e+003
5.632823e+002, 1.179958e+003
5.637645e+002, 1.181104e+003
5.642466e+002, 1.180637e+003
5.647287e+002, 1.177550e+003
5.652108e+002, 1.175167e+003
5.656929e+002, 1.174223e+003
5.661750e+002, 1.174576e+003
5.666572e+002, 1.175881e+003
5.671393e+002, 1.178307e+003
5.676214e+002, 1.180360e+003
5.681035e+002, 1.180770e+003
5.685856e+002, 1.180018e+003
5.690677e+002, 1.180067e+003
5.695499e+002, 1.181007e+003
5.700320e+002, 1.182148e+003
5.705141e+002, 1.182904e+003
5.709962e+002, 1.183396e+003
5.714783e+002, 1.183818e+003
5.719604e+002, 1.184234e+003
5.724426e+002, 1.184564e+003
5.729247e+002, 1.184806e+003
5.734068e+002, 1.184928e+003
5.738889e+002, 1.184880e+003
5.743710e+002, 1.184418e+003
5.748531e+002, 1.184035e+003
5.753353e+002, 1.183868e+003
5.758174e+002, 1.183935e+003
5.762995e+002, 1.184281e+003
5.767816e+002, 1.185248e+003
5.772637e+002, 1.186090e+003
5.777458e+002, 1.186380e+003
5.782280e+002, 1.185907e+003
5.787101e+002, 1.186010e+003
5.791922e+002, 1.186772e+003
5.796743e+002, 1.187918e+003
5.801564e+002, 1.189337e+003
5.806385e+002, 1.190990e+003
5.811207e+002, 1.192249e+003
5.816028e+002, 1.192941e+003
5.820849e+002, 1.193308e+003
5.825670e+002, 1.193561e+003
5.830491e+002, 1.193764e+003
5.835313e+002, 1.194155e+003
5.840134e+002, 1.195046e+003
5.844955e+002, 1.196023e+003
5.849776e+002, 1.196496e+003
5.854597e+002, 1.196615e+003
5.859418e+002, 1.197220e+003
5.864240e+002, 1.200030e+003
5.869061e+002, 1.202415e+003
5.873882e+002, 1.202467e+003
5.878703e+002, 1.199077e+003
5.883524e+002, 1.196874e+003
5.888345e+002, 1.197145e+003
5.893167e+002, 1.198325e+003
5.897988e+002, 1.199221e+003
5.902809e+002, 1.199532e+003
5.907630e+002, 1.200314e+003
5.912451e+002, 1.201910e+003
5.917272e+002, 1.203749e+003
5.922094e+002, 1.204449e+003
5.926915e+002, 1.203888e+003
5.931736e+002, 1.204148e+003
5.936557e+002, 1.206362e+003
5.941378e+002, 1.209574e+003
5.946199e+002, 1.211273e+003
5.951021e+002, 1.211639e+003
5.955842e+002, 1.212225e+003
5.960663e+002, 1.214549e+003
5.965484e+002, 1.217375e+003
5.970305e+002, 1.219104e+003
5.975126e+002, 1.219567e+003
5.979948e+002, 1.220243e+003
5.984769e+002, 1.222202e+003
5.989590e+002, 1.224591e+003
5.994411e+002, 1.226664e+003
5.999232e+002, 1.227785e+003
6.004053e+002, 1.229412e+003
6.008875e+002, 1.232156e+003
6.013696e+002, 1.235381e+003
6.018517e+002, 1.238189e+003
6.023338e+002, 1.240336e+003
6.028159e+002, 1.242483e+003
6.032980e+002, 1.244602e+003
6.037802e+002, 1.246861e+003
6.042623e+002, 1.250404e+003
6.047444e+002, 1.255456e+003
6.052265e+002, 1.259569e+003
6.057086e+002, 1.260677e+003
6.061907e+002, 1.259804e+003
6.066729e+002, 1.260970e+003
6.071550e+002, 1.264112e+003
6.076371e+002, 1.266778e+003
6.081192e+002, 1.266432e+003
6.086013e+002, 1.264639e+003
6.090834e+002, 1.263637e+003
6.095656e+002, 1.264137e+003
6.100477e+002, 1.263949e+003
6.105298e+002, 1.261205e+003
6.110119e+002, 1.257433e+003
6.114940e+002, 1.254312e+003
6.119761e+002, 1.253113e+003
6.124583e+002, 1.251630e+003
6.129404e+002, 1.249297e+003
6.134225e+002, 1.246541e+003
6.139046e+002, 1.244226e+003
6.143867e+002, 1.242598e+003
6.148688e+002, 1.241033e+003
6.153510e+002, 1.239396e+003
6.158331e+002, 1.237663e+003
6.163152e+002, 1.235454e+003
6.167973e+002, 1.232658e+003
6.172794e+002, 1.230312e+003
6.177615e+002, 1.229545e+003
6.182437e+002, 1.229727e+003
6.187258e+002, 1.229084e+003
6.192079e+002, 1.227475e+003
6.196900e+002, 1.225511e+003
6.201721e+002, 1.223637e+003
6.206542e+002, 1.221720e+003
6.211364e+002, 1.219519e+003
6.216185e+002, 1.216624e+003
6.221006e+002, 1.214198e+003
6.225827e+002, 1.213156e+003
6.230648e+002, 1.212771e+003
6.235469e+002, 1.212026e+003
6.240291e+002, 1.210790e+003
6.245112e+002, 1.209172e+003
6.249933e+002, 1.206863e+003
6.254754e+002, 1.204241e+003
6.259575e+002, 1.202715e+003
6.264396e+002, 1.202706e+003
6.269218e+002, 1.202599e+003
6.274039e+002, 1.201678e+003
6.278860e+002, 1.200123e+003
6.283681e+002, 1.199010e+003
6.288502e+002, 1.198341e+003
6.293323e+002, 1.197897e+003
6.298145e+002, 1.197518e+003
6.302966e+002, 1.197233e+003
6.307787e+002, 1.197173e+003
6.312608e+002, 1.197365e+003
6.317429e+002, 1.197432e+003
6.322250e+002, 1.196947e+003
6.327072e+002, 1.196239e+003
6.331893e+002, 1.195627e+003
6.336714e+002, 1.194996e+003
6.341535e+002, 1.194781e+003
6.346356e+002, 1.195597e+003
6.351177e+002, 1.196753e+003
6.355999e+002, 1.197139e+003
6.360820e+002, 1.196107e+003
6.365641e+002, 1.195348e+003
6.370462e+002, 1.195304e+003
6.375283e+002, 1.195677e+003
6.380104e+002, 1.195402e+003
6.384926e+002, 1.194380e+003
6.389747e+002, 1.193367e+003
6.394568e+002, 1.192729e+003
6.399389e+002, 1.192368e+003
6.404210e+002, 1.191896e+003
6.409031e+002, 1.191337e+003
6.413853e+002, 1.190928e+003
6.418674e+002, 1.191074e+003
6.423495e+002, 1.191366e+003
6.428316e+002, 1.191175e+003
6.433137e+002, 1.190359e+003
6.437958e+002, 1.189860e+003
6.442780e+002, 1.190468e+003
6.447601e+002, 1.191410e+003
6.452422e+002, 1.192013e+003
6.457243e+002, 1.192125e+003
6.462064e+002, 1.191891e+003
6.466885e+002, 1.190961e+003
6.471707e+002, 1.189897e+003
6.476528e+002, 1.189487e+003
6.481349e+002, 1.189893e+003
6.486170e+002, 1.190369e+003
6.490991e+002, 1.190753e+003
6.495812e+002, 1.191145e+003
6.500634e+002, 1.191911e+003
6.505455e+002, 1.193020e+003
6.510276e+002, 1.193934e+003
6.515097e+002, 1.194375e+003
6.519918e+002, 1.194505e+003
6.524739e+002, 1.194509e+003
6.529561e+002, 1.194410e+003
6.534382e+002, 1.194314e+003
6.539203e+002, 1.194367e+003
6.544024e+002, 1.194379e+003
6.548845e+002, 1.194224e+003
6.553666e+002, 1.193885e+003
6.558488e+002, 1.193420e+003
6.563309e+002, 1.192256e+003
6.568130e+002, 1.191438e+003
6.572951e+002, 1.191673e+003
6.577772e+002, 1.193548e+003
6.582593e+002, 1.194899e+003
6.587415e+002, 1.195623e+003
6.592236e+002, 1.195994e+003
6.597057e+002, 1.196326e+003
6.601878e+002, 1.196615e+003
6.606699e+002, 1.196652e+003
6.611520e+002, 1.196323e+003
6.616342e+002, 1.195921e+003
6.621163e+002, 1.195995e+003
6.625984e+002, 1.196337e+003
6.630805e+002, 1.196383e+003
6.635626e+002, 1.195398e+003
6.640447e+002, 1.194547e+003
6.645269e+002, 1.194918e+003
6.650090e+002, 1.196105e+003
6.654911e+002, 1.196939e+003
6.659732e+002, 1.196601e+003
6.664553e+002, 1.196306e+003
6.669374e+002, 1.196603e+003
6.674196e+002, 1.197453e+003
6.679017e+002, 1.198039e+003
6.683838e+002, 1.198281e+003
6.688659e+002, 1.198468e+003
6.693480e+002, 1.198882e+003
6.698301e+002, 1.199520e+003
6.703123e+002, 1.199260e+003
6.707944e+002, 1.197966e+003
6.712765e+002, 1.196847e+003
6.717586e+002, 1.197174e+003
6.722407e+002, 1.198428e+003
6.727228e+002, 1.199460e+003
6.732050e+002, 1.200094e+003
6.736871e+002, 1.200583e+003
6.741692e+002, 1.200936e+003
6.746513e+002, 1.201308e+003
6.751334e+002, 1.201930e+003
6.756155e+002, 1.203610e+003
6.760977e+002, 1.204381e+003
6.765798e+002, 1.202970e+003
6.770619e+002, 1.200641e+003
6.775440e+002, 1.199255e+003
6.780261e+002, 1.199022e+003
6.785082e+002, 1.199434e+003
6.789904e+002, 1.200799e+003
6.794725e+002, 1.202513e+003
6.799546e+002, 1.202550e+003
6.804367e+002, 1.200898e+003
6.809188e+002, 1.200307e+003
6.814009e+002, 1.203015e+003
6.818831e+002, 1.206834e+003
6.823652e+002, 1.207147e+003
6.828473e+002, 1.204611e+003
6.833294e+002, 1.202451e+003
6.838115e+002, 1.202918e+003
6.842936e+002, 1.204181e+003
6.847758e+002, 1.205135e+003
6.852579e+002, 1.205682e+003
6.857400e+002, 1.205654e+003
6.862221e+002, 1.203828e+003
6.867042e+002, 1.202409e+003
6.871863e+002, 1.202599e+003
6.876685e+002, 1.204814e+003
6.881506e+002, 1.206912e+003
6.886327e+002, 1.209044e+003
6.891148e+002, 1.210786e+003
6.895969e+002, 1.211569e+003
6.900790e+002, 1.211457e+003
6.905612e+002, 1.211511e+003
6.910433e+002, 1.211817e+003
6.915254e+002, 1.212292e+003
6.920075e+002, 1.213197e+003
6.924896e+002, 1.214119e+003
6.929717e+002, 1.214192e+003
6.934539e+002, 1.212648e+003
6.939360e+002, 1.211253e+003
6.944181e+002, 1.211424e+003
6.949002e+002, 1.212314e+003
6.953823e+002, 1.212613e+003
6.958644e+002, 1.210374e+003
6.963466e+002, 1.209710e+003
6.968287e+002, 1.212393e+003
6.973108e+002, 1.216750e+003
6.977929e+002, 1.218047e+003
6.982750e+002, 1.215464e+003
6.987571e+002, 1.213022e+003
6.992393e+002, 1.212036e+003
6.997214e+002, 1.212110e+003
7.002035e+002, 1.211945e+003
7.006856e+002, 1.211620e+003
7.011677e+002, 1.211802e+003
7.016498e+002, 1.213505e+003
7.021320e+002, 1.215526e+003
7.026141e+002, 1.216195e+003
7.030962e+002, 1.215657e+003
7.035783e+002, 1.215582e+003
7.040604e+002, 1.217551e+003
7.045425e+002, 1.219503e+003
7.050247e+002, 1.220064e+003
7.055068e+002, 1.218760e+003
7.059889e+002, 1.218050e+003
7.064710e+002, 1.218113e+003
7.069531e+002, 1.218528e+003
7.074352e+002, 1.219128e+003
7.079174e+002, 1.219949e+003
7.083995e+002, 1.220539e+003
7.088816e+002, 1.220913e+003
7.093637e+002, 1.220999e+003
7.098458e+002, 1.220637e+003
7.103279e+002, 1.219951e+003
7.108101e+002, 1.219145e+003
7.112922e+002, 1.218191e+003
7.117743e+002, 1.217523e+003
7.122564e+002, 1.217682e+003
7.127385e+002, 1.218246e+003
7.132206e+002, 1.218701e+003
7.137028e+002, 1.218729e+003
7.141849e+002, 1.218916e+003
7.146670e+002, 1.219561e+003
7.151491e+002, 1.220351e+003
7.156312e+002, 1.220839e+003
7.161133e+002, 1.220867e+003
7.165955e+002, 1.221032e+003
7.170776e+002, 1.221505e+003
7.175597e+002, 1.222056e+003
7.180418e+002, 1.221944e+003
7.185239e+002, 1.221269e+003
7.190060e+002, 1.221171e+003
7.194882e+002, 1.222405e+003
7.199703e+002, 1.224056e+003
7.204524e+002, 1.225017e+003
7.209345e+002, 1.225442e+003
7.214166e+002, 1.225851e+003
7.218987e+002, 1.226424e+003
7.223809e+002, 1.227073e+003
7.228630e+002, 1.227882e+003
7.233451e+002, 1.228789e+003
7.238272e+002, 1.229270e+003
7.243093e+002, 1.228823e+003
7.247914e+002, 1.228711e+003
7.252736e+002, 1.229609e+003
7.257557e+002, 1.231395e+003
7.262378e+002, 1.232358e+003
7.267199e+002, 1.232463e+003
7.272020e+002, 1.232274e+003
7.276841e+002, 1.231944e+003
7.281663e+002, 1.231670e+003
7.286484e+002, 1.232162e+003
7.291305e+002, 1.233397e+003
7.296126e+002, 1.234159e+003
7.300947e+002, 1.232846e+003
7.305768e+002, 1.231234e+003
7.310590e+002, 1.230759e+003
7.315411e+002, 1.231728e+003
7.320232e+002, 1.233099e+003
7.325053e+002, 1.235471e+003
7.329874e+002, 1.237508e+003
7.334695e+002, 1.238251e+003
7.339517e+002, 1.237115e+003
7.344338e+002, 1.236658e+003
7.349159e+002, 1.236919e+003
7.353980e+002, 1.237702e+003
7.358801e+002, 1.239126e+003
7.363622e+002, 1.240959e+003
7.368444e+002, 1.242191e+003
7.373265e+002, 1.242620e+003
7.378086e+002, 1.242735e+003
7.382907e+002, 1.242550e+003
7.387728e+002, 1.242521e+003
7.392549e+002, 1.243348e+003
7.397371e+002, 1.246209e+003
7.402192e+002, 1.248270e+003
7.407013e+002, 1.248289e+003
7.411834e+002, 1.247257e+003
7.416655e+002, 1.246465e+003
7.421476e+002, 1.245801e+003
7.426298e+002, 1.245604e+003
7.431119e+002, 1.245805e+003
7.435940e+002, 1.246592e+003
7.440761e+002, 1.248644e+003
7.445582e+002, 1.251785e+003
7.450403e+002, 1.254623e+003
7.455225e+002, 1.256927e+003
7.460046e+002, 1.258369e+003
7.464867e+002, 1.257812e+003
7.469688e+002, 1.256131e+003
7.474509e+002, 1.255227e+003
7.479330e+002, 1.256871e+003
7.484152e+002, 1.258400e+003
7.488973e+002, 1.258865e+003
7.493794e+002, 1.258409e+003
7.498615e+002, 1.257546e+003
7.503436e+002, 1.255943e+003
7.508257e+002, 1.254656e+003
7.513079e+002, 1.254099e+003
7.517900e+002, 1.254028e+003
7.522721e+002, 1.253624e+003
7.527542e+002, 1.252901e+003
7.532363e+002, 1.251814e+003
7.537184e+002, 1.249894e+003
7.542006e+002, 1.247915e+003
7.546827e+002, 1.247333e+003
7.551648e+002, 1.247855e+003
7.556469e+002, 1.248280e+003
7.561290e+002, 1.247892e+003
7.566111e+002, 1.247326e+003
7.570933e+002, 1.246751e+003
7.575754e+002, 1.246214e+003
7.580575e+002, 1.246194e+003
7.585396e+002, 1.247082e+003
7.590217e+002, 1.247897e+003
7.595038e+002, 1.248347e+003
7.599860e+002, 1.248408e+003
7.604681e+002, 1.247513e+003
7.609502e+002, 1.245507e+003
7.614323e+002, 1.244381e+003
7.619144e+002, 1.246323e+003
7.623965e+002, 1.249720e+003
7.628787e+002, 1.251697e+003
7.633608e+002, 1.252217e+003
7.638429e+002, 1.252125e+003
7.643250e+002, 1.251128e+003
7.648071e+002, 1.250295e+003
7.652892e+002, 1.250692e+003
7.657714e+002, 1.252693e+003
7.662535e+002, 1.253432e+003
7.667356e+002, 1.251956e+003
7.672177e+002, 1.250275e+003
7.676998e+002, 1.249449e+003
7.681819e+002, 1.249512e+003
7.686641e+002, 1.250072e+003
7.691462e+002, 1.251222e+003
7.696283e+002, 1.252150e+003
7.701104e+002, 1.251540e+003
7.705925e+002, 1.250398e+003
7.710746e+002, 1.251061e+003
7.715568e+002, 1.253823e+003
7.720389e+002, 1.256083e+003
7.725210e+002, 1.255509e+003
7.730031e+002, 1.254241e+003
7.734852e+002, 1.254072e+003
7.739673e+002, 1.255832e+003
7.744495e+002, 1.256624e+003
7.749316e+002, 1.255543e+003
7.754137e+002, 1.254427e+003
7.758958e+002, 1.254957e+003
7.763779e+002, 1.257355e+003
7.768600e+002, 1.258229e+003
7.773422e+002, 1.257258e+003
7.778243e+002, 1.256112e+003
7.783064e+002, 1.256871e+003
7.787885e+002, 1.258569e+003
7.792706e+002, 1.259207e+003
7.797527e+002, 1.258276e+003
7.802349e+002, 1.257553e+003
7.807170e+002, 1.258663e+003
7.811991e+002, 1.260144e+003
7.816812e+002, 1.260665e+003
7.821633e+002, 1.259321e+003
7.826454e+002, 1.258365e+003
7.831276e+002, 1.257619e+003
7.836097e+002, 1.257487e+003
7.840918e+002, 1.258570e+003
7.845739e+002, 1.260883e+003
7.850560e+002, 1.263059e+003
7.855381e+002, 1.264976e+003
7.860203e+002, 1.266570e+003
7.865024e+002, 1.267613e+003
7.869845e+002, 1.268307e+003
7.874666e+002, 1.269007e+003
7.879487e+002, 1.269777e+003
7.884308e+002, 1.270594e+003
7.889130e+002, 1.271109e+003
7.893951e+002, 1.271839e+003
7.898772e+002, 1.273371e+003
7.903593e+002, 1.276303e+003
7.908414e+002, 1.278937e+003
7.913235e+002, 1.281123e+003
7.918057e+002, 1.283143e+003
7.922878e+002, 1.285489e+003
7.927699e+002, 1.288104e+003
7.932520e+002, 1.289588e+003
7.937341e+002, 1.289572e+003
7.942162e+002, 1.289196e+003
7.946984e+002, 1.289605e+003
7.951805e+002, 1.290516e+003
7.956626e+002, 1.291524e+003
7.961447e+002, 1.292698e+003
7.966268e+002, 1.293619e+003
7.971089e+002, 1.293756e+003
7.975911e+002, 1.293792e+003
7.980732e+002, 1.294534e+003
7.985553e+002, 1.296541e+003
7.990374e+002, 1.298003e+003
7.995195e+002, 1.298762e+003
8.000016e+002, 1.299128e+003
8.004838e+002, 1.299662e+003
8.009659e+002, 1.300239e+003
8.014480e+002, 1.299969e+003
8.019301e+002, 1.298509e+003
8.024122e+002, 1.296990e+003
8.028943e+002, 1.296486e+003
8.033765e+002, 1.296612e+003
8.038586e+002, 1.296878e+003
8.043407e+002, 1.297329e+003
8.048228e+002, 1.297594e+003
8.053049e+002, 1.297430e+003
8.057870e+002, 1.297119e+003
8.062692e+002, 1.296964e+003
8.067513e+002, 1.297058e+003
8.072334e+002, 1.296881e+003
8.077155e+002, 1.296380e+003
8.081976e+002, 1.295568e+003
8.086797e+002, 1.294405e+003
8.091619e+002, 1.292938e+003
8.096440e+002, 1.291177e+003
8.101261e+002, 1.288905e+003
8.106082e+002, 1.287163e+003
8.110903e+002, 1.287148e+003
8.115724e+002, 1.287898e+003
8.120546e+002, 1.288373e+003
8.125367e+002, 1.288299e+003
8.130188e+002, 1.288119e+003
8.135009e+002, 1.288074e+003
8.139830e+002, 1.287769e+003
8.144651e+002, 1.286549e+003
8.149473e+002, 1.284322e+003
8.154294e+002, 1.282911e+003
8.159115e+002, 1.282570e+003
8.163936e+002, 1.282752e+003
8.168757e+002, 1.282956e+003
8.173578e+002, 1.283201e+003
8.178400e+002, 1.283582e+003
8.183221e+002, 1.284224e+003
8.188042e+002, 1.284570e+003
8.192863e+002, 1.283748e+003
8.197684e+002, 1.282813e+003
8.202505e+002, 1.282842e+003
8.207327e+002, 1.284422e+003
8.212148e+002, 1.285583e+003
8.216969e+002, 1.286163e+003
8.221790e+002, 1.286550e+003
8.226611e+002, 1.287200e+003
8.231432e+002, 1.288033e+003
8.236254e+002, 1.288606e+003
8.241075e+002, 1.288891e+003
8.245896e+002, 1.288706e+003
8.250717e+002, 1.287333e+003
8.255538e+002, 1.285688e+003
8.260359e+002, 1.285051e+003
8.265181e+002, 1.286213e+003
8.270002e+002, 1.286448e+003
8.274823e+002, 1.283912e+003
8.279644e+002, 1.281287e+003
8.284465e+002, 1.280430e+003
8.289286e+002, 1.281838e+003
8.294108e+002, 1.282920e+003
8.298929e+002, 1.283769e+003
8.303750e+002, 1.283975e+003
8.308571e+002, 1.282594e+003
8.313392e+002, 1.280434e+003
8.318214e+002, 1.279188e+003
8.323035e+002, 1.279049e+003
8.327856e+002, 1.279436e+003
8.332677e+002, 1.280071e+003
8.337498e+002, 1.281003e+003
8.342319e+002, 1.282385e+003
8.347141e+002, 1.284444e+003
8.351962e+002, 1.285894e+003
8.356783e+002, 1.286608e+003
8.361604e+002, 1.286852e+003
8.366425e+002, 1.286505e+003
8.371246e+002, 1.285643e+003
8.376068e+002, 1.285623e+003
8.380889e+002, 1.286452e+003
8.385710e+002, 1.287781e+003
8.390531e+002, 1.290180e+003
8.395352e+002, 1.292426e+003
8.400173e+002, 1.292860e+003
8.404995e+002, 1.291428e+003
8.409816e+002, 1.290338e+003
8.414637e+002, 1.290659e+003
8.419458e+002, 1.291185e+003
8.424279e+002, 1.291466e+003
8.429100e+002, 1.291496e+003
8.433922e+002, 1.290884e+003
8.438743e+002, 1.289413e+003
8.443564e+002, 1.288410e+003
8.448385e+002, 1.288902e+003
8.453206e+002, 1.290350e+003
8.458027e+002, 1.291976e+003
8.462849e+002, 1.293585e+003
8.467670e+002, 1.294059e+003
8.472491e+002, 1.291366e+003
8.477312e+002, 1.288662e+003
8.482133e+002, 1.287934e+003
8.486954e+002, 1.289062e+003
8.491776e+002, 1.289808e+003
8.496597e+002, 1.289589e+003
8.501418e+002, 1.290193e+003
8.506239e+002, 1.292714e+003
8.511060e+002, 1.296259e+003
8.515881e+002, 1.297685e+003
8.520703e+002, 1.297157e+003
8.525524e+002, 1.295987e+003
8.530345e+002, 1.293974e+003
8.535166e+002, 1.292398e+003
8.539987e+002, 1.292681e+003
8.544808e+002, 1.294298e+003
8.549630e+002, 1.295941e+003
8.554451e+002, 1.296903e+003
8.559272e+002, 1.298209e+003
8.564093e+002, 1.300334e+003
8.568914e+002, 1.302745e+003
8.573735e+002, 1.304261e+003
8.578557e+002, 1.304806e+003
8.583378e+002, 1.305232e+003
8.588199e+002, 1.305629e+003
8.593020e+002, 1.306304e+003
8.597841e+002, 1.307839e+003
8.602662e+002, 1.309984e+003
8.607484e+002, 1.312216e+003
8.612305e+002, 1.314707e+003
8.617126e+002, 1.316753e+003
8.621947e+002, 1.317825e+003
8.626768e+002, 1.318404e+003
8.631589e+002, 1.319199e+003
8.636411e+002, 1.320441e+003
8.641232e+002, 1.321206e+003
8.646053e+002, 1.321256e+003
8.650874e+002, 1.321182e+003
8.655695e+002, 1.322054e+003
8.660516e+002, 1.323453e+003
8.665338e+002, 1.323902e+003
8.670159e+002, 1.322917e+003
8.674980e+002, 1.322052e+003
8.679801e+002, 1.322713e+003
8.684622e+002, 1.323854e+003
8.689443e+002, 1.324455e+003
8.694265e+002, 1.324139e+003
8.699086e+002, 1.323815e+003
8.703907e+002, 1.323468e+003
8.708728e+002, 1.323161e+003
8.713549e+002, 1.322754e+003
8.718370e+002, 1.322328e+003
8.723192e+002, 1.323036e+003
8.728013e+002, 1.324947e+003
8.732834e+002, 1.326895e+003
8.737655e+002, 1.328209e+003
8.742476e+002, 1.328884e+003
8.747297e+002, 1.328421e+003
8.752119e+002, 1.326726e+003
8.756940e+002, 1.326282e+003
8.761761e+002, 1.329693e+003
8.766582e+002, 1.332331e+003
8.771403e+002, 1.332189e+003
8.776224e+002, 1.329468e+003
8.781046e+002, 1.326703e+003
8.785867e+002, 1.323885e+003
8.790688e+002, 1.321517e+003
8.795509e+002, 1.319854e+003
8.800330e+002, 1.318924e+003
8.805151e+002, 1.319475e+003
8.809973e+002, 1.320981e+003
8.814794e+002, 1.321393e+003
8.819615e+002, 1.318311e+003
8.824436e+002, 1.315679e+003
8.829257e+002, 1.315488e+003
8.834078e+002, 1.316808e+003
8.838900e+002, 1.316909e+003
8.843721e+002, 1.315529e+003
8.848542e+002, 1.314266e+003
8.853363e+002, 1.313504e+003
8.858184e+002, 1.313202e+003
8.863005e+002, 1.313449e+003
8.867827e+002, 1.314088e+003
8.872648e+002, 1.314727e+003
8.877469e+002, 1.315092e+003
8.882290e+002, 1.315593e+003
8.887111e+002, 1.317256e+003
8.891932e+002, 1.318794e+003
8.896754e+002, 1.318100e+003
8.901575e+002, 1.313432e+003
8.906396e+002, 1.311463e+003
8.911217e+002, 1.313558e+003
8.916038e+002, 1.316480e+003
8.920859e+002, 1.315476e+003
8.925681e+002, 1.311997e+003
8.930502e+002, 1.310671e+003
8.935323e+002, 1.312469e+003
8.940144e+002, 1.314830e+003
8.944965e+002, 1.316896e+003
8.949786e+002, 1.318133e+003
8.954608e+002, 1.317775e+003
8.959429e+002, 1.314967e+003
8.964250e+002, 1.313630e+003
8.969071e+002, 1.314350e+003
8.973892e+002, 1.315365e+003
8.978713e+002, 1.315441e+003
8.983535e+002, 1.314741e+003
8.988356e+002, 1.314177e+003
8.993177e+002, 1.313754e+003
8.997998e+002, 1.313440e+003
9.002819e+002, 1.312956e+003
9.007640e+002, 1.312786e+003
9.012462e+002, 1.313871e+003
9.017283e+002, 1.315965e+003
9.022104e+002, 1.316428e+003
9.026925e+002, 1.313931e+003
9.031746e+002, 1.311623e+003
9.036567e+002, 1.310243e+003
9.041389e+002, 1.309803e+003
9.046210e+002, 1.310942e+003
9.051031e+002, 1.313379e+003
9.055852e+002, 1.314555e+003
9.060673e+002, 1.312513e+003
9.065494e+002, 1.310038e+003
9.070316e+002, 1.309769e+003
9.075137e+002, 1.310816e+003
9.079958e+002, 1.311609e+003
9.084779e+002, 1.311456e+003
9.089600e+002, 1.311422e+003
9.094421e+002, 1.311664e+003
9.099243e+002, 1.311985e+003
9.104064e+002, 1.311924e+003
9.108885e+002, 1.311544e+003
9.113706e+002, 1.312248e+003
9.118527e+002, 1.314446e+003
9.123348e+002, 1.316469e+003
9.128170e+002, 1.316651e+003
9.132991e+002, 1.315804e+003
9.137812e+002, 1.314654e+003
9.142633e+002, 1.313088e+003
9.147454e+002, 1.312309e+003
9.152275e+002, 1.312760e+003
9.157097e+002, 1.313723e+003
9.161918e+002, 1.315071e+003
9.166739e+002, 1.316781e+003
9.171560e+002, 1.317148e+003
9.176381e+002, 1.316154e+003
9.181202e+002, 1.315196e+003
9.186024e+002, 1.315372e+003
9.190845e+002, 1.315991e+003
9.195666e+002, 1.316343e+003
9.200487e+002, 1.316444e+003
9.205308e+002, 1.316574e+003
9.210129e+002, 1.316968e+003
9.214951e+002, 1.317140e+003
9.219772e+002, 1.316639e+003
9.224593e+002, 1.315951e+003
9.229414e+002, 1.316917e+003
9.234235e+002, 1.319476e+003
9.239056e+002, 1.321300e+003
9.243878e+002, 1.321292e+003
9.248699e+002, 1.320884e+003
9.253520e+002, 1.322034e+003
9.258341e+002, 1.323813e+003
9.263162e+002, 1.324744e+003
9.267983e+002, 1.323597e+003
9.272805e+002, 1.322858e+003
9.277626e+002, 1.323209e+003
9.282447e+002, 1.323705e+003
9.287268e+002, 1.323150e+003
9.292089e+002, 1.321556e+003
9.296910e+002, 1.321067e+003
9.301732e+002, 1.321920e+003
9.306553e+002, 1.323169e+003
9.311374e+002, 1.324187e+003
9.316195e+002, 1.325005e+003
9.321016e+002, 1.325536e+003
9.325837e+002, 1.325738e+003
9.330659e+002, 1.326330e+003
9.335480e+002, 1.328023e+003
9.340301e+002, 1.329415e+003
9.345122e+002, 1.329746e+003
9.349943e+002, 1.329224e+003
9.354764e+002, 1.329482e+003
9.359586e+002, 1.330475e+003
9.364407e+002, 1.331356e+003
9.369228e+002, 1.331535e+003
9.374049e+002, 1.331536e+003
9.378870e+002, 1.331778e+003
9.383691e+002, 1.332281e+003
9.388513e+002, 1.333091e+003
9.393334e+002, 1.335507e+003
9.398155e+002, 1.336433e+003
9.402976e+002, 1.334865e+003
9.407797e+002, 1.332351e+003
9.412618e+002, 1.331443e+003
9.417440e+002, 1.332031e+003
9.422261e+002, 1.332231e+003
9.427082e+002, 1.331622e+003
9.431903e+002, 1.331294e+003
9.436724e+002, 1.332259e+003
9.441545e+002, 1.334058e+003
9.446367e+002, 1.336494e+003
9.451188e+002, 1.339955e+003
9.456009e+002, 1.341990e+003
9.460830e+002, 1.341813e+003
9.465651e+002, 1.341101e+003
9.470472e+002, 1.340698e+003
9.475294e+002, 1.340562e+003
9.480115e+002, 1.340652e+003
9.484936e+002, 1.340927e+003
9.489757e+002, 1.341069e+003
9.494578e+002, 1.340794e+003
9.499399e+002, 1.340401e+003
9.504221e+002, 1.339886e+003
9.509042e+002, 1.339449e+003
9.513863e+002, 1.339858e+003
9.518684e+002, 1.341994e+003
9.523505e+002, 1.343474e+003
9.528326e+002, 1.343613e+003
9.533148e+002, 1.343350e+003
9.537969e+002, 1.344653e+003
9.542790e+002, 1.347163e+003
9.547611e+002, 1.349127e+003
9.552432e+002, 1.349856e+003
9.557253e+002, 1.350860e+003
9.562075e+002, 1.354289e+003
9.566896e+002, 1.357869e+003
9.571717e+002, 1.359071e+003
9.576538e+002, 1.356527e+003
9.581359e+002, 1.355174e+003
9.586180e+002, 1.354908e+003
9.591002e+002, 1.356002e+003
9.595823e+002, 1.359389e+003
9.600644e+002, 1.364166e+003
9.605465e+002, 1.367437e+003
9.610286e+002, 1.369331e+003
9.615107e+002, 1.371230e+003
9.619929e+002, 1.374339e+003
9.624750e+002, 1.377278e+003
9.629571e+002, 1.379062e+003
9.634392e+002, 1.380067e+003
9.639213e+002, 1.381870e+003
9.644034e+002, 1.384770e+003
9.648856e+002, 1.387218e+003
9.653677e+002, 1.388774e+003
9.658498e+002, 1.389863e+003
9.663319e+002, 1.390858e+003
9.668140e+002, 1.391971e+003
9.672961e+002, 1.393792e+003
9.677783e+002, 1.397066e+003
9.682604e+002, 1.399500e+003
9.687425e+002, 1.399445e+003
9.692246e+002, 1.398813e+003
9.697067e+002, 1.399138e+003
9.701888e+002, 1.400569e+003
9.706710e+002, 1.401926e+003
9.711531e+002, 1.403229e+003
9.716352e+002, 1.404069e+003
9.721173e+002, 1.403955e+003
9.725994e+002, 1.403267e+003
9.730815e+002, 1.402339e+003
9.735637e+002, 1.401239e+003
9.740458e+002, 1.400273e+003
9.745279e+002, 1.399508e+003
9.750100e+002, 1.398959e+003
9.754921e+002, 1.398842e+003
9.759742e+002, 1.398815e+003
9.764564e+002, 1.398091e+003
9.769385e+002, 1.396684e+003
9.774206e+002, 1.394505e+003
9.779027e+002, 1.391268e+003
9.783848e+002, 1.388268e+003
9.788669e+002, 1.387000e+003
9.793491e+002, 1.386579e+003
9.798312e+002, 1.385954e+003
9.803133e+002, 1.384931e+003
9.807954e+002, 1.383674e+003
9.812775e+002, 1.381837e+003
9.817596e+002, 1.380361e+003
9.822418e+002, 1.380012e+003
9.827239e+002, 1.380584e+003
9.832060e+002, 1.381074e+003
9.836881e+002, 1.381476e+003
9.841702e+002, 1.381987e+003
9.846523e+002, 1.382968e+003
9.851345e+002, 1.383811e+003
9.856166e+002, 1.383869e+003
9.860987e+002, 1.383455e+003
9.865808e+002, 1.383774e+003
9.870629e+002, 1.385059e+003
9.875450e+002, 1.386418e+003
9.880272e+002, 1.387832e+003
9.885093e+002, 1.388921e+003
9.889914e+002, 1.388896e+003
9.894735e+002, 1.388173e+003
9.899556e+002, 1.387486e+003
9.904377e+002, 1.386894e+003
9.909199e+002, 1.386860e+003
9.914020e+002, 1.388034e+003
9.918841e+002, 1.389477e+003
9.923662e+002, 1.390498e+003
9.928483e+002, 1.391059e+003
9.933304e+002, 1.392277e+003
9.938126e+002, 1.394199e+003
9.942947e+002, 1.395911e+003
9.947768e+002, 1.396197e+003
9.952589e+002, 1.396406e+003
9.957410e+002, 1.398704e+003
9.962231e+002, 1.402287e+003
9.967053e+002, 1.404898e+003
9.971874e+002, 1.405222e+003
9.976695e+002, 1.405268e+003
9.981516e+002, 1.405142e+003
9.986337e+002, 1.405027e+003
9.991158e+002, 1.405251e+003
9.995980e+002, 1.405769e+003
1.000080e+003, 1.406472e+003
1.000562e+003, 1.407464e+003
1.001044e+003, 1.407606e+003
1.001526e+003, 1.405679e+003
1.002009e+003, 1.402796e+003
1.002491e+003, 1.399613e+003
1.002973e+003, 1.396094e+003
1.003455e+003, 1.393769e+003
1.003937e+003, 1.393033e+003
1.004419e+003, 1.392297e+003
1.004901e+003, 1.390645e+003
1.005383e+003, 1.388687e+003
1.005865e+003, 1.388222e+003
1.006348e+003, 1.388566e+003
1.006830e+003, 1.387749e+003
1.007312e+003, 1.383273e+003
1.007794e+003, 1.379535e+003
1.008276e+003, 1.378238e+003
1.008758e+003, 1.378071e+003
1.009240e+003, 1.377803e+003
1.009722e+003, 1.377438e+003
1.010205e+003, 1.376940e+003
1.010687e+003, 1.376347e+003
1.011169e+003, 1.375091e+003
1.011651e+003, 1.371333e+003
1.012133e+003, 1.367545e+003
1.012615e+003, 1.367010e+003
1.013097e+003, 1.369721e+003
1.013579e+003, 1.370984e+003
1.014061e+003, 1.368921e+003
1.014544e+003, 1.367285e+003
1.015026e+003, 1.367384e+003
1.015508e+003, 1.368378e+003
1.015990e+003, 1.368131e+003
1.016472e+003, 1.366915e+003
1.016954e+003, 1.365835e+003
1.017436e+003, 1.365216e+003
1.017918e+003, 1.364815e+003
1.018401e+003, 1.364874e+003
1.018883e+003, 1.364818e+003
1.019365e+003, 1.363911e+003
1.019847e+003, 1.361760e+003
1.020329e+003, 1.360810e+003
1.020811e+003, 1.361236e+003
1.021293e+003, 1.361958e+003
1.021775e+003, 1.362339e+003
1.022257e+003, 1.362453e+003
1.022740e+003, 1.362420e+003
1.023222e+003, 1.362229e+003
1.023704e+003, 1.361829e+003
1.024186e+003, 1.360086e+003
1.024668e+003, 1.359692e+003
1.025150e+003, 1.361864e+003
1.025632e+003, 1.364932e+003
1.026114e+003, 1.366084e+003
1.026596e+003, 1.365461e+003
1.027079e+003, 1.364403e+003
1.027561e+003, 1.363018e+003
1.028043e+003, 1.362031e+003
1.028525e+003, 1.362557e+003
1.029007e+003, 1.363363e+003
1.029489e+003, 1.363248e+003
1.029971e+003, 1.362056e+003
1.030453e+003, 1.361557e+003
1.030936e+003, 1.362079e+003
1.031418e+003, 1.362158e+003
1.031900e+003, 1.360684e+003
1.032382e+003, 1.358931e+003
1.032864e+003, 1.359602e+003
1.033346e+003, 1.362001e+003
1.033828e+003, 1.364511e+003
1.034310e+003, 1.367077e+003
1.034792e+003, 1.368861e+003
1.035275e+003, 1.369717e+003
1.035757e+003, 1.369660e+003
1.036239e+003, 1.368238e+003
1.036721e+003, 1.365469e+003
1.037203e+003, 1.364219e+003
1.037685e+003, 1.364598e+003
1.038167e+003, 1.365346e+003
1.038649e+003, 1.366046e+003
1.039132e+003, 1.366334e+003
1.039614e+003, 1.365344e+003
1.040096e+003, 1.363548e+003
1.040578e+003, 1.363329e+003
1.041060e+003, 1.365352e+003
1.041542e+003, 1.367336e+003
1.042024e+003, 1.368769e+003
1.042506e+003, 1.370154e+003
1.042989e+003, 1.372775e+003
1.043471e+003, 1.375805e+003
1.043953e+003, 1.377313e+003
1.044435e+003, 1.376624e+003
1.044917e+003, 1.376273e+003
1.045399e+003, 1.377657e+003
1.045881e+003, 1.379199e+003
1.046363e+003, 1.380110e+003
1.046845e+003, 1.380478e+003
1.047328e+003, 1.380941e+003
1.047810e+003, 1.381511e+003
1.048292e+003, 1.382058e+003
1.048774e+003, 1.382572e+003
1.049256e+003, 1.383024e+003
1.049738e+003, 1.383438e+003
1.050220e+003, 1.383777e+003
1.050702e+003, 1.383914e+003
1.051184e+003, 1.383311e+003
1.051667e+003, 1.383879e+003
1.052149e+003, 1.385899e+003
1.052631e+003, 1.388272e+003
1.053113e+003, 1.390397e+003
1.053595e+003, 1.392072e+003
1.054077e+003, 1.392894e+003
1.054559e+003, 1.392883e+003
1.055041e+003, 1.392339e+003
1.055523e+003, 1.390692e+003
1.056006e+003, 1.389391e+003
1.056488e+003, 1.388845e+003
1.056970e+003, 1.388852e+003
1.057452e+003, 1.389155e+003
1.057934e+003, 1.389710e+003
1.058416e+003, 1.390105e+003
1.058898e+003, 1.390341e+003
1.059380e+003, 1.389940e+003
1.059863e+003, 1.387466e+003
1.060345e+003, 1.384988e+003
1.060827e+003, 1.384567e+003
1.061309e+003, 1.386350e+003
1.061791e+003, 1.387370e+003
1.062273e+003, 1.387514e+003
1.062755e+003, 1.387336e+003
1.063237e+003, 1.386957e+003
1.063719e+003, 1.386524e+003
1.064202e+003, 1.386221e+003
1.064684e+003, 1.386039e+003
1.065166e+003, 1.385973e+003
1.065648e+003, 1.386025e+003
1.066130e+003, 1.386214e+003
1.066612e+003, 1.386679e+003
1.067094e+003, 1.387080e+003
1.067576e+003, 1.386871e+003
1.068059e+003, 1.386295e+003
1.068541e+003, 1.386880e+003
1.069023e+003, 1.388545e+003
1.069505e+003, 1.390458e+003
1.069987e+003, 1.392969e+003
1.070469e+003, 1.394699e+003
1.070951e+003, 1.394076e+003
1.071433e+003, 1.392420e+003
1.071916e+003, 1.392277e+003
1.072398e+003, 1.393851e+003
1.072880e+003, 1.394879e+003
1.073362e+003, 1.394870e+003
1.073844e+003, 1.395505e+003
1.074326e+003, 1.398934e+003
1.074808e+003, 1.403609e+003
1.075290e+003, 1.408324e+003
1.075772e+003, 1.412919e+003
1.076255e+003, 1.415927e+003
1.076737e+003, 1.416439e+003
1.077219e+003, 1.417385e+003
1.077701e+003, 1.419680e+003
1.078183e+003, 1.422971e+003
1.078665e+003, 1.426996e+003
1.079147e+003, 1.431401e+003
1.079629e+003, 1.435220e+003
1.080111e+003, 1.437800e+003
1.080594e+003, 1.441061e+003
1.081076e+003, 1.446430e+003
1.081558e+003, 1.451954e+003
1.082040e+003, 1.456429e+003
1.082522e+003, 1.459949e+003
1.083004e+003, 1.463460e+003
1.083486e+003, 1.466928e+003
1.083968e+003, 1.469844e+003
1.084450e+003, 1.472357e+003
1.084933e+003, 1.473762e+003
1.085415e+003, 1.473317e+003
1.085897e+003, 1.471549e+003
1.086379e+003, 1.469355e+003
1.086861e+003, 1.466751e+003
1.087343e+003, 1.463877e+003
1.087825e+003, 1.460755e+003
1.088307e+003, 1.457346e+003
1.088790e+003, 1.453553e+003
1.089272e+003, 1.449515e+003
1.089754e+003, 1.445405e+003
1.090236e+003, 1.441187e+003
1.090718e+003, 1.436533e+003
1.091200e+003, 1.430646e+003
1.091682e+003, 1.425708e+003
1.092164e+003, 1.422255e+003
1.092646e+003, 1.419582e+003
1.093129e+003, 1.416604e+003
1.093611e+003, 1.413551e+003
1.094093e+003, 1.410814e+003
1.094575e+003, 1.408420e+003
1.095057e+003, 1.406797e+003
1.095539e+003, 1.406687e+003
1.096021e+003, 1.406862e+003
1.096503e+003, 1.407086e+003
1.096986e+003, 1.407076e+003
1.097468e+003, 1.405472e+003
1.097950e+003, 1.402453e+003
1.098432e+003, 1.399413e+003
1.098914e+003, 1.396282e+003
1.099396e+003, 1.394605e+003
1.099878e+003, 1.397595e+003
1.100360e+003, 1.401191e+003
1.100843e+003, 1.400976e+003
1.101325e+003, 1.396381e+003
1.101807e+003, 1.393381e+003
1.102289e+003, 1.392025e+003
1.102771e+003, 1.391559e+003
1.103253e+003, 1.392187e+003
1.103735e+003, 1.392871e+003
1.104217e+003, 1.391852e+003
1.104699e+003, 1.390111e+003
1.105182e+003, 1.389546e+003
1.105664e+003, 1.391754e+003
1.106146e+003, 1.392777e+003
1.106628e+003, 1.392225e+003
1.107110e+003, 1.391289e+003
1.107592e+003, 1.390886e+003
1.108074e+003, 1.390924e+003
1.108556e+003, 1.391342e+003
1.109038e+003, 1.392047e+003
1.109521e+003, 1.392598e+003
1.110003e+003, 1.392629e+003
1.110485e+003, 1.392781e+003
1.110967e+003, 1.393422e+003
1.111449e+003, 1.393961e+003
1.111931e+003, 1.392935e+003
1.112413e+003, 1.390933e+003
1.112895e+003, 1.391143e+003
1.113377e+003, 1.393986e+003
1.113860e+003, 1.396143e+003
1.114342e+003, 1.395048e+003
1.114824e+003, 1.393251e+003
1.115306e+003, 1.391949e+003
1.115788e+003, 1.391127e+003
1.116270e+003, 1.390776e+003
1.116752e+003, 1.390891e+003
1.117234e+003, 1.391033e+003
1.117717e+003, 1.391043e+003
1.118199e+003, 1.391249e+003
1.118681e+003, 1.392302e+003
1.119163e+003, 1.393425e+003
1.119645e+003, 1.393925e+003
1.120127e+003, 1.393754e+003
1.120609e+003, 1.392725e+003
1.121091e+003, 1.390594e+003
1.121573e+003, 1.389101e+003
1.122056e+003, 1.389265e+003
1.122538e+003, 1.389951e+003
1.123020e+003, 1.389643e+003
1.123502e+003, 1.388878e+003
1.123984e+003, 1.388584e+003
1.124466e+003, 1.389695e+003
1.124948e+003, 1.389231e+003
1.125430e+003, 1.386329e+003
1.125913e+003, 1.384076e+003
1.126395e+003, 1.385184e+003
1.126877e+003, 1.388111e+003
1.127359e+003, 1.389652e+003
1.127841e+003, 1.390052e+003
1.128323e+003, 1.389930e+003
1.128805e+003, 1.388784e+003
1.129287e+003, 1.388258e+003
1.129770e+003, 1.388965e+003
1.130252e+003, 1.389701e+003
1.130734e+003, 1.388821e+003
1.131216e+003, 1.386939e+003
1.131698e+003, 1.386796e+003
1.132180e+003, 1.388263e+003
1.132662e+003, 1.389668e+003
1.133144e+003, 1.389836e+003
1.133626e+003, 1.390084e+003
1.134109e+003, 1.391104e+003
1.134591e+003, 1.392286e+003
1.135073e+003, 1.392752e+003
1.135555e+003, 1.392515e+003
1.136037e+003, 1.391469e+003
1.136519e+003, 1.389567e+003
1.137001e+003, 1.388430e+003
1.137483e+003, 1.390424e+003
1.137965e+003, 1.392454e+003
1.138448e+003, 1.392366e+003
1.138930e+003, 1.390760e+003
1.139412e+003, 1.389194e+003
1.139894e+003, 1.387641e+003
1.140376e+003, 1.387102e+003
1.140858e+003, 1.387962e+003
1.141340e+003, 1.389016e+003
1.141822e+003, 1.389195e+003
1.142304e+003, 1.389013e+003
1.142787e+003, 1.388764e+003
1.143269e+003, 1.388497e+003
1.143751e+003, 1.389045e+003
1.144233e+003, 1.390590e+003
1.144715e+003, 1.391775e+003
1.145197e+003, 1.392053e+003
1.145679e+003, 1.391853e+003
1.146161e+003, 1.391446e+003
1.146644e+003, 1.391000e+003
1.147126e+003, 1.390694e+003
1.147608e+003, 1.390489e+003
1.148090e+003, 1.390875e+003
1.148572e+003, 1.392192e+003
1.149054e+003, 1.392994e+003
1.149536e+003, 1.392332e+003
1.150018e+003, 1.391030e+003
1.150500e+003, 1.390104e+003
1.150983e+003, 1.389737e+003
1.151465e+003, 1.390457e+003
1.151947e+003, 1.394218e+003
1.152429e+003, 1.394866e+003
1.152911e+003, 1.390506e+003
1.153393e+003, 1.386328e+003
1.153875e+003, 1.386288e+003
1.154357e+003, 1.388980e+003
1.154840e+003, 1.391303e+003
1.155322e+003, 1.393086e+003
1.155804e+003, 1.393691e+003
1.156286e+003, 1.391518e+003
1.156768e+003, 1.390093e+003
1.157250e+003, 1.389999e+003
1.157732e+003, 1.390601e+003
1.158214e+003, 1.391601e+003
1.158697e+003, 1.392802e+003
1.159179e+003, 1.393190e+003
1.159661e+003, 1.392887e+003
1.160143e+003, 1.392767e+003
1.160625e+003, 1.393239e+003
1.161107e+003, 1.394003e+003
1.161589e+003, 1.395209e+003
1.162071e+003, 1.396389e+003
1.162553e+003, 1.396903e+003
1.163036e+003, 1.396820e+003
1.163518e+003, 1.396647e+003
1.164000e+003, 1.396426e+003
1.164482e+003, 1.396202e+003
1.164964e+003, 1.395681e+003
1.165446e+003, 1.395567e+003
1.165928e+003, 1.396523e+003
1.166410e+003, 1.397937e+003
1.166892e+003, 1.398690e+003
1.167375e+003, 1.398829e+003
1.167857e+003, 1.398768e+003
1.168339e+003, 1.398555e+003
1.168821e+003, 1.398455e+003
1.169303e+003, 1.398369e+003
1.169785e+003, 1.398734e+003
1.170267e+003, 1.400330e+003
1.170749e+003, 1.402501e+003
1.171231e+003, 1.403231e+003
1.171714e+003, 1.402523e+003
1.172196e+003, 1.402404e+003
1.172678e+003, 1.403392e+003
1.173160e+003, 1.404279e+003
1.173642e+003, 1.403360e+003
1.174124e+003, 1.402469e+003
1.174606e+003, 1.403532e+003
1.175088e+003, 1.406133e+003
1.175571e+003, 1.407751e+003
1.176053e+003, 1.408389e+003
1.176535e+003, 1.408127e+003
1.177017e+003, 1.406542e+003
1.177499e+003, 1.405660e+003
1.177981e+003, 1.408890e+003
1.178463e+003, 1.412755e+003
1.178945e+003, 1.413300e+003
1.179427e+003, 1.410380e+003
1.179910e+003, 1.409497e+003
1.180392e+003, 1.410851e+003
1.180874e+003, 1.412095e+003
1.181356e+003, 1.412332e+003
1.181838e+003, 1.412137e+003
1.182320e+003, 1.411893e+003
1.182802e+003, 1.411700e+003
1.183284e+003, 1.411726e+003
1.183767e+003, 1.412029e+003
1.184249e+003, 1.412270e+003
1.184731e+003, 1.412541e+003
1.185213e+003, 1.412102e+003
1.185695e+003, 1.410063e+003
1.186177e+003, 1.408026e+003
1.186659e+003, 1.408434e+003
1.187141e+003, 1.409821e+003
1.187624e+003, 1.409970e+003
1.188106e+003, 1.408195e+003
1.188588e+003, 1.406783e+003
1.189070e+003, 1.405689e+003
1.189552e+003, 1.405382e+003
1.190034e+003, 1.406440e+003
1.190516e+003, 1.408119e+003
1.190998e+003, 1.410059e+003
1.191480e+003, 1.411766e+003
1.191963e+003, 1.412298e+003
1.192445e+003, 1.410834e+003
1.192927e+003, 1.409809e+003
1.193409e+003, 1.409121e+003
1.193891e+003, 1.409254e+003
1.194373e+003, 1.411139e+003
1.194855e+003, 1.413539e+003
1.195337e+003, 1.414938e+003
1.195819e+003, 1.415552e+003
1.196302e+003, 1.415841e+003
1.196784e+003, 1.415774e+003
1.197266e+003, 1.415493e+003
1.197748e+003, 1.414824e+003
1.198230e+003, 1.414678e+003
1.198712e+003, 1.416441e+003
1.199194e+003, 1.418701e+003
1.199676e+003, 1.419471e+003
1.200158e+003, 1.419158e+003
1.200641e+003, 1.418938e+003
1.201123e+003, 1.419359e+003
1.201605e+003, 1.418975e+003
1.202087e+003, 1.417490e+003
1.202569e+003, 1.416172e+003
1.203051e+003, 1.416330e+003
1.203533e+003, 1.417241e+003
1.204015e+003, 1.418247e+003
1.204498e+003, 1.419171e+003
1.204980e+003, 1.419504e+003
1.205462e+003, 1.418850e+003
1.205944e+003, 1.418355e+003
1.206426e+003, 1.418048e+003
1.206908e+003, 1.418133e+003
1.207390e+003, 1.418927e+003
1.207872e+003, 1.420138e+003
1.208354e+003, 1.421693e+003
1.208837e+003, 1.423380e+003
1.209319e+003, 1.424229e+003
1.209801e+003, 1.423695e+003
1.210283e+003, 1.423516e+003
1.210765e+003, 1.423886e+003
1.211247e+003, 1.424660e+003
1.211729e+003, 1.425896e+003
1.212211e+003, 1.427305e+003
1.212694e+003, 1.429163e+003
1.213176e+003, 1.431055e+003
1.213658e+003, 1.430193e+003
1.214140e+003, 1.424808e+003
1.214622e+003, 1.421932e+003
1.215104e+003, 1.422985e+003
1.215586e+003, 1.425079e+003
1.216068e+003, 1.425236e+003
1.216551e+003, 1.424581e+003
1.217033e+003, 1.424342e+003
1.217515e+003, 1.424610e+003
1.217997e+003, 1.425337e+003
1.218479e+003, 1.427088e+003
1.218961e+003, 1.426966e+003
1.219443e+003, 1.423979e+003
1.219925e+003, 1.421123e+003
1.220407e+003, 1.422541e+003
1.220890e+003, 1.425380e+003
1.221372e+003, 1.426022e+003
1.221854e+003, 1.424569e+003
1.222336e+003, 1.425007e+003
1.222818e+003, 1.428033e+003
1.223300e+003, 1.430593e+003
1.223782e+003, 1.432143e+003
1.224264e+003, 1.432850e+003
1.224746e+003, 1.432109e+003
1.225229e+003, 1.431205e+003
1.225711e+003, 1.431895e+003
1.226193e+003, 1.434040e+003
1.226675e+003, 1.434585e+003
1.227157e+003, 1.433137e+003
1.227639e+003, 1.432195e+003
1.228121e+003, 1.432340e+003
1.228603e+003, 1.432902e+003
1.229085e+003, 1.433485e+003
1.229568e+003, 1.433900e+003
1.230050e+003, 1.433814e+003
1.230532e+003, 1.433291e+003
1.231014e+003, 1.433080e+003
1.231496e+003, 1.433168e+003
1.231978e+003, 1.433746e+003
1.232460e+003, 1.435040e+003
1.232942e+003, 1.435893e+003
1.233425e+003, 1.434619e+003
1.233907e+003, 1.432873e+003
1.234389e+003, 1.432213e+003
1.234871e+003, 1.432492e+003
1.235353e+003, 1.432158e+003
1.235835e+003, 1.431143e+003
1.236317e+003, 1.431724e+003
1.236799e+003, 1.434875e+003
1.237281e+003, 1.437390e+003
1.237764e+003, 1.435579e+003
1.238246e+003, 1.432878e+003
1.238728e+003, 1.432145e+003
1.239210e+003, 1.432952e+003
1.239692e+003, 1.433313e+003
1.240174e+003, 1.433257e+003
1.240656e+003, 1.433805e+003
1.241138e+003, 1.435228e+003
1.241621e+003, 1.437031e+003
1.242103e+003, 1.439608e+003
1.242585e+003, 1.441632e+003
1.243067e+003, 1.441891e+003
1.243549e+003, 1.440970e+003
1.244031e+003, 1.441292e+003
1.244513e+003, 1.442580e+003
1.244995e+003, 1.442327e+003
1.245478e+003, 1.439581e+003
1.245960e+003, 1.437555e+003
1.246442e+003, 1.438852e+003
1.246924e+003, 1.440775e+003
1.247406e+003, 1.441838e+003
1.247888e+003, 1.442339e+003
1.248370e+003, 1.443433e+003
1.248852e+003, 1.444789e+003
1.249334e+003, 1.444558e+003
1.249817e+003, 1.441927e+003
1.250299e+003, 1.440561e+003
1.250781e+003, 1.444024e+003
1.251263e+003, 1.447047e+003
1.251745e+003, 1.447500e+003
1.252227e+003, 1.446188e+003
1.252709e+003, 1.444518e+003
1.253191e+003, 1.442776e+003
1.253673e+003, 1.441713e+003
1.254156e+003, 1.441486e+003
1.254638e+003, 1.441963e+003
1.255120e+003, 1.443476e+003
1.255602e+003, 1.445189e+003
1.256084e+003, 1.447077e+003
1.256566e+003, 1.448612e+003
1.257048e+003, 1.448136e+003
1.257530e+003, 1.446676e+003
1.258012e+003, 1.446448e+003
1.258495e+003, 1.447942e+003
1.258977e+003, 1.449298e+003
1.259459e+003, 1.450016e+003
1.259941e+003, 1.451059e+003
1.260423e+003, 1.452923e+003
1.260905e+003, 1.454828e+003
1.261387e+003, 1.455444e+003
1.261869e+003, 1.455340e+003
1.262352e+003, 1.455334e+003
1.262834e+003, 1.455555e+003
1.263316e+003, 1.455789e+003
1.263798e+003, 1.456133e+003
1.264280e+003, 1.456140e+003
1.264762e+003, 1.455652e+003
1.265244e+003, 1.454900e+003
1.265726e+003, 1.453941e+003
1.266208e+003, 1.453020e+003
1.266691e+003, 1.452206e+003
1.267173e+003, 1.451590e+003
1.267655e+003, 1.452382e+003
1.268137e+003, 1.454813e+003
1.268619e+003, 1.456733e+003
1.269101e+003, 1.457524e+003
1.269583e+003, 1.457816e+003
1.270065e+003, 1.458211e+003
1.270548e+003, 1.458374e+003
1.271030e+003, 1.457676e+003
1.271512e+003, 1.456448e+003
1.271994e+003, 1.456318e+003
1.272476e+003, 1.457264e+003
1.272958e+003, 1.457751e+003
1.273440e+003, 1.457369e+003
1.273922e+003, 1.457121e+003
1.274405e+003, 1.458124e+003
1.274887e+003, 1.459095e+003
1.275369e+003, 1.459055e+003
1.275851e+003, 1.458557e+003
1.276333e+003, 1.459424e+003
1.276815e+003, 1.461313e+003
1.277297e+003, 1.462399e+003
1.277779e+003, 1.462299e+003
1.278261e+003, 1.461968e+003
1.278744e+003, 1.461643e+003
1.279226e+003, 1.461426e+003
1.279708e+003, 1.461215e+003
1.280190e+003, 1.461229e+003
1.280672e+003, 1.462172e+003
1.281154e+003, 1.463619e+003
1.281636e+003, 1.464585e+003
1.282118e+003, 1.464928e+003
1.282600e+003, 1.464700e+003
1.283083e+003, 1.463101e+003
1.283565e+003, 1.462447e+003
1.284047e+003, 1.463544e+003
1.284529e+003, 1.465156e+003
1.285011e+003, 1.465691e+003
1.285493e+003, 1.465499e+003
1.285975e+003, 1.464793e+003
1.286457e+003, 1.463718e+003
1.286939e+003, 1.463672e+003
1.287422e+003, 1.465286e+003
1.287904e+003, 1.466065e+003
1.288386e+003, 1.465444e+003
1.288868e+003, 1.464408e+003
1.289350e+003, 1.463581e+003
1.289832e+003, 1.463228e+003
1.290314e+003, 1.463609e+003
1.290796e+003, 1.464752e+003
1.291279e+003, 1.466710e+003
1.291761e+003, 1.469653e+003
1.292243e+003, 1.471289e+003
1.292725e+003, 1.471254e+003
1.293207e+003, 1.470342e+003
1.293689e+003, 1.468084e+003
1.294171e+003, 1.466235e+003
1.294653e+003, 1.466587e+003
1.295135e+003, 1.467857e+003
1.295618e+003, 1.467740e+003
1.296100e+003, 1.466433e+003
1.296582e+003, 1.465940e+003
1.297064e+003, 1.466563e+003
1.297546e+003, 1.467559e+003
1.298028e+003, 1.468277e+003
1.298510e+003, 1.468935e+003
1.298992e+003, 1.469539e+003
1.299475e+003, 1.470490e+003
1.299957e+003, 1.472556e+003
1.300439e+003, 1.475387e+003
1.300921e+003, 1.477816e+003
1.301403e+003, 1.479854e+003
1.301885e+003, 1.481801e+003
##END=



