##NAMES=Realgar
##RRUFFID=R100026
##IDEAL CHEMISTRY=AsS
##LOCALITY=Palomo mine, Castrovirreyna Province, Huancavelica Department, Peru
##OWNER=RRUFF
##SOURCE=Rob Woodside
##DESCRIPTION=Red prismatic crystals
##STATUS=The identification of this mineral has been confirmed by single-crystal X-ray diffraction.
##URL=rruff.info/R100026
90.49219, 9.147223
90.97430, 10.96608
91.45642, 11.61319
91.93854, 10.07801
92.42065, 7.663783
92.90277, 6.317464
93.38489, 6.251658
93.86700, 6.775972
94.34912, 7.264128
94.83124, 7.697897
95.31335, 7.954546
95.79547, 7.889494
96.27759, 7.564910
96.75970, 7.178124
97.24182, 6.653516
97.72394, 6.207288
98.20605, 6.410906
98.68817, 7.329887
99.17029, 8.382627
99.65240, 9.263996
100.1345, 9.997301
100.6166, 10.17923
101.0988, 9.555542
101.5809, 8.252259
102.0630, 7.251818
102.5451, 6.462550
103.0272, 6.121710
103.5093, 6.695086
103.9915, 8.705016
104.4736, 10.27021
104.9557, 10.90316
105.4378, 10.54410
105.9199, 9.472345
106.4020, 6.940599
106.8842, 4.055690
107.3663, 2.744622
107.8484, 3.930439
108.3305, 5.640569
108.8126, 7.247780
109.2947, 8.843112
109.7769, 10.18517
110.2590, 11.37776
110.7411, 12.33883
111.2232, 12.78186
111.7053, 12.41998
112.1874, 11.73875
112.6696, 10.95695
113.1517, 9.873210
113.6338, 8.928602
114.1159, 7.916407
114.5980, 6.948340
115.0801, 6.803494
115.5623, 8.870790
116.0444, 11.25806
116.5265, 12.49785
117.0086, 11.10032
117.4907, 9.474924
117.9728, 8.422903
118.4550, 7.980684
118.9371, 7.955271
119.4192, 8.483588
119.9013, 9.330562
120.3834, 10.18918
120.8655, 11.50220
121.3477, 12.42505
121.8298, 12.07777
122.3119, 10.16477
122.7940, 8.280977
123.2761, 7.577846
123.7582, 7.753406
124.2404, 8.135084
124.7225, 8.358492
125.2046, 8.592661
125.6867, 9.028460
126.1688, 9.686367
126.6509, 10.57258
127.1331, 12.00806
127.6152, 13.83054
128.0973, 15.23358
128.5794, 15.00519
129.0615, 13.92809
129.5436, 14.00694
130.0258, 16.17225
130.5079, 19.14845
130.9900, 20.57071
131.4721, 20.42812
131.9542, 20.02657
132.4363, 20.36493
132.9185, 21.39662
133.4006, 22.76106
133.8827, 24.16001
134.3648, 25.84198
134.8469, 29.07366
135.3290, 34.08790
135.8112, 39.65255
136.2933, 44.00204
136.7754, 47.02208
137.2575, 50.92515
137.7396, 56.78907
138.2217, 64.45248
138.7039, 71.72260
139.1860, 78.57703
139.6681, 85.08894
140.1502, 91.40894
140.6323, 97.34717
141.1144, 103.5270
141.5966, 110.5456
142.0787, 118.9280
142.5608, 125.4650
143.0429, 129.4775
143.5250, 132.0215
144.0071, 135.4683
144.4893, 140.1330
144.9714, 145.1427
145.4535, 149.8857
145.9356, 153.3821
146.4177, 158.7663
146.8998, 167.0019
147.3820, 177.2828
147.8641, 186.5683
148.3462, 193.5280
148.8283, 200.6258
149.3104, 209.3060
149.7925, 221.3085
150.2747, 232.5745
150.7568, 242.6556
151.2389, 251.6096
151.7210, 260.0335
152.2031, 266.7669
152.6852, 273.5858
153.1674, 281.6725
153.6495, 293.4005
154.1316, 303.8946
154.6137, 312.4135
155.0958, 318.9262
155.5779, 324.3861
156.0601, 327.6910
156.5422, 330.5435
157.0243, 334.3618
157.5064, 340.4636
157.9885, 346.5672
158.4706, 352.0252
158.9528, 356.7466
159.4349, 361.3109
159.9170, 365.0623
160.3991, 368.9720
160.8812, 374.1633
161.3633, 382.2391
161.8455, 390.6398
162.3276, 398.0571
162.8097, 403.9447
163.2918, 410.4879
163.7739, 419.0757
164.2560, 428.2892
164.7382, 433.9259
165.2203, 436.6154
165.7024, 439.4039
166.1845, 443.8022
166.6666, 450.4961
167.1487, 457.1599
167.6309, 462.8163
168.1130, 467.6146
168.5951, 471.7572
169.0772, 475.3266
169.5593, 478.3730
170.0414, 480.7785
170.5236, 482.1808
171.0057, 483.7699
171.4878, 487.0082
171.9699, 491.3057
172.4520, 494.7996
172.9341, 495.5104
173.4163, 495.2187
173.8984, 496.0834
174.3805, 498.9608
174.8626, 502.4439
175.3447, 505.5514
175.8268, 508.2621
176.3090, 510.4735
176.7911, 511.5765
177.2732, 512.2092
177.7553, 513.3619
178.2374, 515.1860
178.7195, 517.7360
179.2017, 521.3511
179.6838, 525.9681
180.1659, 530.7022
180.6480, 534.9926
181.1301, 538.9077
181.6122, 542.7632
182.0944, 547.0076
182.5765, 550.9749
183.0586, 553.3506
183.5407, 554.1158
184.0228, 554.5590
184.5049, 555.9785
184.9871, 558.0720
185.4692, 559.7323
185.9513, 560.8907
186.4334, 561.3090
186.9155, 559.8323
187.3976, 556.2869
187.8798, 552.9452
188.3619, 552.7499
188.8440, 555.1839
189.3261, 556.9461
189.8082, 556.8753
190.2903, 555.2919
190.7725, 553.0082
191.2546, 549.8143
191.7367, 546.8658
192.2188, 545.6353
192.7009, 546.0314
193.1830, 546.6093
193.6652, 546.7406
194.1473, 546.5568
194.6294, 546.9261
195.1115, 547.9098
195.5936, 549.2314
196.0757, 550.5053
196.5579, 551.7209
197.0400, 553.1859
197.5221, 555.3364
198.0042, 558.0686
198.4863, 559.7048
198.9684, 560.0176
199.4506, 559.7297
199.9327, 559.8818
200.4148, 560.5149
200.8969, 561.2030
201.3790, 561.9279
201.8611, 562.7051
202.3433, 562.8033
202.8254, 562.0818
203.3075, 560.8876
203.7896, 559.7849
204.2717, 558.7703
204.7538, 557.7795
205.2360, 556.5950
205.7181, 555.0921
206.2002, 554.4203
206.6823, 554.4955
207.1644, 555.4837
207.6465, 558.1180
208.1287, 562.9667
208.6108, 567.3905
209.0929, 569.9205
209.5750, 570.0416
210.0571, 571.1818
210.5392, 573.5590
211.0214, 576.7988
211.5035, 580.2636
211.9856, 584.0945
212.4677, 587.7062
212.9498, 590.6559
213.4319, 592.5696
213.9141, 595.2501
214.3962, 598.6121
214.8783, 602.8271
215.3604, 608.5923
215.8425, 616.9582
216.3246, 624.5989
216.8067, 629.8776
217.2889, 632.0046
217.7710, 634.2545
218.2531, 636.6442
218.7352, 639.1722
219.2173, 641.9169
219.6994, 644.9335
220.1816, 648.0616
220.6637, 651.3646
221.1458, 655.0969
221.6279, 658.3300
222.1100, 661.1784
222.5921, 663.5042
223.0743, 664.8610
223.5564, 664.6749
224.0385, 664.5518
224.5206, 665.3292
225.0027, 667.5453
225.4848, 669.2371
225.9670, 670.0891
226.4491, 670.4923
226.9312, 671.4864
227.4133, 673.2208
227.8954, 675.2962
228.3775, 677.5395
228.8597, 680.1565
229.3418, 682.4548
229.8239, 684.2028
230.3060, 685.6623
230.7881, 687.7038
231.2702, 691.2995
231.7524, 693.9872
232.2345, 694.4567
232.7166, 691.5388
233.1987, 689.1700
233.6808, 687.8190
234.1629, 686.9222
234.6451, 684.8458
235.1272, 680.9188
235.6093, 676.8679
236.0914, 673.6335
236.5735, 672.2845
237.0556, 669.3214
237.5378, 664.2518
238.0199, 657.7468
238.5020, 651.4189
238.9841, 645.0106
239.4662, 639.0754
239.9483, 633.9270
240.4305, 630.1754
240.9126, 625.8244
241.3947, 620.3770
241.8768, 614.4695
242.3589, 609.8348
242.8410, 607.5236
243.3232, 604.8561
243.8053, 600.7408
244.2874, 594.8454
244.7695, 588.0182
245.2516, 578.8677
245.7337, 569.2773
246.2159, 563.7375
246.6980, 564.3527
247.1801, 565.7275
247.6622, 566.0377
248.1443, 565.5710
248.6264, 563.0465
249.1086, 557.3531
249.5907, 550.1411
250.0728, 544.8084
250.5549, 541.9218
251.0370, 539.9648
251.5191, 538.6136
252.0013, 538.3843
252.4834, 536.8820
252.9655, 533.1484
253.4476, 528.7163
253.9297, 526.6754
254.4118, 528.3835
254.8940, 529.9631
255.3761, 529.9333
255.8582, 527.7863
256.3403, 526.0057
256.8224, 524.5219
257.3046, 523.4589
257.7867, 523.1903
258.2688, 524.2286
258.7509, 525.0132
259.2330, 525.1680
259.7151, 524.7942
260.1973, 522.9686
260.6794, 518.5616
261.1615, 513.8547
261.6436, 512.5267
262.1257, 515.7802
262.6078, 519.4716
263.0900, 522.4893
263.5721, 524.8527
264.0542, 526.3595
264.5363, 526.3299
265.0184, 526.2568
265.5005, 528.4188
265.9827, 533.7694
266.4648, 538.4146
266.9469, 540.5391
267.4290, 540.0045
267.9111, 542.8262
268.3932, 549.9622
268.8754, 558.9429
269.3575, 567.2701
269.8396, 575.1863
270.3217, 581.8604
270.8038, 587.1065
271.2859, 590.9750
271.7681, 593.5645
272.2502, 594.9708
272.7323, 594.9199
273.2144, 593.1149
273.6965, 589.5204
274.1786, 584.3448
274.6608, 577.2229
275.1429, 568.4494
275.6250, 559.8714
276.1071, 551.5015
276.5892, 543.3240
277.0714, 535.2979
277.5535, 527.2669
278.0356, 520.4318
278.5177, 515.0112
278.9998, 510.9547
279.4819, 508.2728
279.9641, 507.1309
280.4462, 506.5884
280.9283, 505.9210
281.4104, 505.1259
281.8925, 504.5543
282.3746, 504.2159
282.8568, 504.1695
283.3389, 504.6908
283.8210, 505.8368
284.3031, 507.0815
284.7852, 508.1744
285.2673, 509.0887
285.7495, 509.4598
286.2316, 508.9688
286.7137, 508.2824
287.1958, 509.0898
287.6779, 511.4371
288.1600, 513.6288
288.6422, 514.2836
289.1243, 513.6743
289.6064, 513.8636
290.0885, 515.2133
290.5706, 516.9332
291.0527, 517.3903
291.5349, 516.7126
292.0170, 516.7305
292.4991, 519.1057
292.9812, 523.1077
293.4633, 525.8343
293.9454, 526.9652
294.4276, 527.6516
294.9097, 529.5652
295.3918, 532.4639
295.8739, 535.0320
296.3560, 536.3384
296.8381, 536.8769
297.3203, 537.8074
297.8024, 539.1826
298.2845, 540.5995
298.7666, 541.4360
299.2487, 541.9157
299.7308, 542.7572
300.2130, 544.2726
300.6951, 546.3263
301.1772, 548.9936
301.6593, 552.2645
302.1414, 555.2637
302.6235, 556.8279
303.1057, 557.5713
303.5878, 558.6940
304.0699, 560.8601
304.5520, 563.4208
305.0341, 565.9304
305.5162, 568.3177
305.9984, 570.0371
306.4805, 569.6389
306.9626, 568.5812
307.4447, 569.0341
307.9268, 572.4980
308.4089, 576.4213
308.8911, 578.5233
309.3732, 579.1223
309.8553, 579.5461
310.3374, 580.2296
310.8195, 581.2768
311.3016, 582.8658
311.7838, 585.2623
312.2659, 587.7083
312.7480, 589.5265
313.2301, 590.9796
313.7122, 592.7492
314.1943, 595.4498
314.6765, 598.4225
315.1586, 601.3097
315.6407, 604.1589
316.1228, 606.5651
316.6049, 607.9174
317.0870, 608.7382
317.5692, 609.8650
318.0513, 611.3886
318.5334, 613.4543
319.0155, 616.3821
319.4976, 620.3878
319.9797, 623.9389
320.4619, 626.0471
320.9440, 627.6013
321.4261, 629.5707
321.9082, 632.9183
322.3903, 636.0177
322.8724, 638.2634
323.3546, 639.6241
323.8367, 640.9982
324.3188, 642.3707
324.8009, 643.9422
325.2830, 645.8488
325.7651, 648.1542
326.2473, 650.7863
326.7294, 654.1415
327.2115, 658.0546
327.6936, 661.1779
328.1757, 663.2089
328.6578, 664.5765
329.1400, 665.4660
329.6221, 664.6463
330.1042, 665.0177
330.5863, 667.4532
331.0684, 671.1155
331.5505, 673.4269
332.0327, 672.8815
332.5148, 672.7615
332.9969, 674.6368
333.4790, 679.8306
333.9611, 683.0933
334.4432, 683.1699
334.9254, 682.0359
335.4075, 683.2125
335.8896, 687.8895
336.3717, 692.5252
336.8538, 696.1632
337.3359, 698.8476
337.8180, 700.2495
338.3001, 699.8855
338.7823, 698.9945
339.2644, 699.0593
339.7465, 700.3319
340.2286, 701.4329
340.7107, 701.8598
341.1928, 701.8010
341.6750, 702.6241
342.1571, 704.5032
342.6392, 706.6257
343.1213, 708.4584
343.6034, 709.9825
344.0855, 711.0612
344.5677, 711.6119
345.0498, 711.7385
345.5319, 711.6156
346.0140, 711.2377
346.4961, 710.7879
346.9782, 710.2894
347.4604, 709.7957
347.9425, 709.7600
348.4246, 710.4459
348.9067, 710.9606
349.3888, 709.5336
349.8709, 706.5491
350.3531, 704.1005
350.8352, 703.6920
351.3173, 704.4470
351.7994, 704.7466
352.2815, 704.5322
352.7636, 703.9364
353.2458, 702.9418
353.7279, 701.6573
354.2100, 700.3170
354.6921, 698.9235
355.1742, 697.5683
355.6563, 696.5749
356.1385, 695.8631
356.6206, 694.6299
357.1027, 691.5563
357.5848, 687.9327
358.0669, 685.2682
358.5490, 684.2850
359.0312, 683.8665
359.5133, 683.7169
359.9954, 683.6300
360.4775, 682.9807
360.9596, 681.4052
361.4417, 679.1999
361.9239, 676.4078
362.4060, 672.7524
362.8881, 669.3491
363.3702, 666.8310
363.8523, 664.7863
364.3344, 662.5846
364.8166, 660.5419
365.2987, 657.8537
365.7808, 653.8170
366.2629, 648.0968
366.7450, 643.4930
367.2271, 641.6084
367.7093, 640.4681
368.1914, 638.3377
368.6735, 633.9072
369.1556, 629.7490
369.6377, 626.1600
370.1198, 623.1132
370.6020, 620.7091
371.0841, 619.1527
371.5662, 618.0438
372.0483, 617.2258
372.5304, 616.9904
373.0125, 616.5162
373.4947, 616.0023
373.9768, 615.1691
374.4589, 613.0826
374.9410, 608.7645
375.4231, 605.2207
375.9052, 604.0676
376.3874, 605.8566
376.8695, 605.3893
377.3516, 601.9208
377.8337, 597.4434
378.3158, 594.4093
378.7979, 592.9941
379.2801, 591.6804
379.7622, 590.1617
380.2443, 588.4047
380.7264, 586.0137
381.2085, 582.9017
381.6906, 579.8326
382.1728, 577.6292
382.6549, 576.1124
383.1370, 574.2448
383.6191, 571.7122
384.1012, 568.9587
384.5833, 566.8054
385.0655, 565.1550
385.5476, 563.3096
386.0297, 560.3942
386.5118, 557.0966
386.9939, 554.8442
387.4760, 553.9230
387.9582, 552.9475
388.4403, 550.0207
388.9224, 546.0680
389.4045, 543.0286
389.8866, 543.1810
390.3687, 543.5339
390.8509, 540.7391
391.3330, 535.1438
391.8151, 530.6218
392.2972, 530.4014
392.7793, 531.9724
393.2614, 532.9857
393.7436, 532.9974
394.2257, 532.1081
394.7078, 529.8867
395.1899, 526.7475
395.6720, 523.7764
396.1541, 520.8009
396.6363, 518.4899
397.1184, 517.4181
397.6005, 518.2625
398.0826, 518.3973
398.5647, 516.7712
399.0468, 514.4551
399.5290, 512.7463
400.0111, 512.3579
400.4932, 511.9142
400.9753, 511.2392
401.4574, 510.3270
401.9395, 509.0820
402.4217, 506.7890
402.9038, 504.8937
403.3859, 504.4856
403.8680, 506.3466
404.3501, 507.8170
404.8322, 508.5894
405.3144, 508.9122
405.7965, 509.5369
406.2786, 510.7016
406.7607, 511.3856
407.2428, 510.8895
407.7249, 509.1572
408.2071, 507.9987
408.6892, 507.4283
409.1713, 507.3548
409.6534, 507.9061
410.1355, 509.0371
410.6176, 509.8554
411.0998, 510.0030
411.5819, 509.7402
412.0640, 509.8497
412.5461, 510.3024
413.0282, 510.3528
413.5103, 508.9342
413.9925, 506.7643
414.4746, 505.3040
414.9567, 504.8275
415.4388, 505.0012
415.9209, 505.7213
416.4030, 506.8307
416.8852, 507.9608
417.3673, 509.2398
417.8494, 510.2407
418.3315, 510.5282
418.8136, 510.0684
419.2957, 509.3966
419.7779, 508.4961
420.2600, 507.6670
420.7421, 507.2275
421.2242, 507.9950
421.7063, 508.4046
422.1884, 507.6600
422.6706, 506.0837
423.1527, 504.8600
423.6348, 504.5156
424.1169, 504.4004
424.5990, 504.2577
425.0811, 504.1608
425.5633, 503.8290
426.0454, 502.9654
426.5275, 501.9908
427.0096, 501.4385
427.4917, 501.5495
427.9738, 501.7103
428.4560, 501.6286
428.9381, 501.3500
429.4202, 502.1178
429.9023, 504.5057
430.3844, 506.8531
430.8665, 507.9503
431.3487, 507.6862
431.8308, 506.6616
432.3129, 504.5801
432.7950, 502.2082
433.2771, 501.1263
433.7592, 501.3589
434.2414, 502.3707
434.7235, 504.4216
435.2056, 507.1140
435.6877, 508.7918
436.1698, 509.4080
436.6519, 509.5147
437.1341, 509.5134
437.6162, 509.4188
438.0983, 509.2774
438.5804, 509.1344
439.0625, 508.9101
439.5446, 508.6118
440.0268, 508.1872
440.5089, 507.4342
440.9910, 505.5692
441.4731, 503.7246
441.9552, 502.9532
442.4373, 503.5052
442.9195, 504.4761
443.4016, 506.3030
443.8837, 508.0035
444.3658, 508.3816
444.8479, 505.4018
445.3300, 502.7428
445.8122, 501.4568
446.2943, 501.5125
446.7764, 502.2779
447.2585, 504.7427
447.7406, 507.0632
448.2227, 508.3160
448.7049, 508.1426
449.1870, 507.5186
449.6691, 505.9233
450.1512, 504.1394
450.6333, 503.4709
451.1154, 504.2928
451.5976, 505.4594
452.0797, 506.9679
452.5618, 508.7236
453.0439, 508.9807
453.5260, 507.3541
454.0081, 505.4189
454.4903, 504.3297
454.9724, 504.0888
455.4545, 504.3207
455.9366, 505.0549
456.4187, 506.0910
456.9008, 507.2357
457.3830, 508.4551
457.8651, 509.3715
458.3472, 509.4494
458.8293, 509.2350
459.3114, 510.0575
459.7935, 511.9011
460.2757, 513.2844
460.7578, 512.4968
461.2399, 510.6528
461.7220, 509.3068
462.2041, 508.9902
462.6862, 509.0172
463.1684, 508.8855
463.6505, 508.7499
464.1326, 508.9760
464.6147, 510.5390
465.0968, 511.8148
465.5789, 511.6838
466.0611, 509.8319
466.5432, 508.4828
467.0253, 508.1727
467.5074, 508.4984
467.9895, 509.1317
468.4716, 510.8043
468.9538, 511.8084
469.4359, 511.6778
469.9180, 510.8140
470.4001, 510.5025
470.8822, 510.9465
471.3643, 511.6137
471.8465, 512.4113
472.3286, 513.4050
472.8107, 513.8425
473.2928, 513.5904
473.7749, 513.1272
474.2570, 513.0706
474.7392, 513.4191
475.2213, 513.4401
475.7034, 512.8690
476.1855, 512.0106
476.6676, 511.4084
477.1497, 511.0610
477.6319, 510.9856
478.1140, 511.2274
478.5961, 511.7245
479.0782, 512.3622
479.5603, 513.1235
480.0424, 514.0934
480.5246, 516.0269
481.0067, 518.0222
481.4888, 518.7786
481.9709, 516.9740
482.4530, 514.8850
482.9352, 513.3843
483.4173, 512.4901
483.8994, 512.2620
484.3815, 513.9384
484.8636, 515.2874
485.3457, 514.8040
485.8279, 511.4525
486.3100, 509.8405
486.7921, 512.1461
487.2742, 515.3776
487.7563, 516.8859
488.2384, 515.4349
488.7206, 514.4141
489.2027, 514.4446
489.6848, 515.1417
490.1669, 515.0009
490.6490, 513.6832
491.1311, 512.5798
491.6133, 512.6773
492.0954, 513.9448
492.5775, 513.8730
493.0596, 512.1917
493.5417, 510.3269
494.0238, 509.9055
494.5060, 510.6850
494.9881, 511.5864
495.4702, 512.3810
495.9523, 513.1006
496.4344, 513.9054
496.9165, 514.6993
497.3987, 515.1219
497.8808, 514.2904
498.3629, 513.4012
498.8450, 513.7899
499.3271, 515.6076
499.8092, 517.4114
500.2914, 518.6975
500.7735, 519.4739
501.2556, 519.7775
501.7377, 519.2497
502.2198, 518.6737
502.7019, 518.2745
503.1841, 517.9487
503.6662, 517.4120
504.1483, 516.0552
504.6304, 515.1093
505.1125, 515.0729
505.5946, 516.0457
506.0768, 516.6413
506.5589, 516.7254
507.0410, 516.6376
507.5231, 516.6526
508.0052, 516.7961
508.4873, 516.9122
508.9695, 516.9976
509.4516, 517.0318
509.9337, 516.9106
510.4158, 516.6468
510.8979, 516.4880
511.3800, 516.5187
511.8622, 516.7291
512.3443, 517.1481
512.8264, 517.7606
513.3085, 518.4111
513.7906, 519.1732
514.2728, 519.8271
514.7549, 520.0915
515.2370, 519.9042
515.7191, 519.3531
516.2012, 517.7997
516.6833, 516.0732
517.1655, 515.4182
517.6476, 517.6003
518.1297, 519.5732
518.6118, 520.0557
519.0939, 519.1782
519.5760, 518.6749
520.0582, 519.3222
520.5403, 519.8921
521.0224, 519.7932
521.5045, 518.6433
521.9866, 517.9943
522.4688, 518.1970
522.9509, 518.5051
523.4330, 517.8367
523.9151, 515.9366
524.3972, 514.3929
524.8793, 513.3997
525.3615, 513.1061
525.8436, 514.2369
526.3257, 516.7770
526.8078, 519.3171
527.2899, 521.3183
527.7720, 522.7078
528.2542, 523.2394
528.7363, 522.8999
529.2184, 521.9816
529.7005, 520.0543
530.1826, 517.9227
530.6647, 516.7000
531.1469, 516.8881
531.6290, 517.7481
532.1111, 519.4326
532.5932, 521.4603
533.0753, 522.8450
533.5574, 522.9123
534.0396, 522.6719
534.5217, 522.3622
535.0038, 521.9841
535.4859, 521.8017
535.9680, 521.8749
536.4501, 522.0800
536.9323, 522.3953
537.4144, 522.9902
537.8965, 523.1680
538.3786, 522.7380
538.8607, 522.1339
539.3428, 522.0779
539.8250, 522.6194
540.3071, 523.0446
540.7892, 523.0021
541.2713, 522.8351
541.7534, 523.7170
542.2355, 525.5162
542.7177, 526.8047
543.1998, 526.2994
543.6819, 524.8535
544.1640, 523.5762
544.6461, 522.5247
545.1282, 522.1292
545.6104, 523.3255
546.0925, 525.0934
546.5746, 526.2792
547.0567, 526.2448
547.5388, 526.0294
548.0209, 526.1624
548.5031, 526.3450
548.9852, 525.9268
549.4673, 522.9933
549.9494, 521.4030
550.4315, 522.7047
550.9136, 526.8810
551.3958, 529.5832
551.8779, 530.4428
552.3600, 530.4535
552.8421, 530.0898
553.3242, 529.2926
553.8063, 528.6371
554.2885, 528.0832
554.7706, 527.8503
555.2527, 528.6171
555.7348, 530.1494
556.2169, 530.9170
556.6990, 530.1318
557.1812, 528.7771
557.6633, 528.2006
558.1454, 528.2578
558.6275, 528.4060
559.1096, 528.2182
559.5917, 528.0769
560.0739, 528.4220
560.5560, 529.2944
561.0381, 529.9537
561.5202, 529.8513
562.0023, 529.5670
562.4844, 529.5562
562.9666, 530.5580
563.4487, 530.7798
563.9308, 529.5453
564.4129, 527.7411
564.8950, 526.6525
565.3771, 526.2332
565.8593, 526.7425
566.3414, 528.7537
566.8235, 531.6668
567.3056, 532.5087
567.7877, 530.9783
568.2698, 529.5076
568.7520, 529.7481
569.2341, 531.2590
569.7162, 532.3395
570.1983, 532.9081
570.6804, 533.4382
571.1625, 535.0889
571.6447, 536.8104
572.1268, 536.5999
572.6089, 532.8747
573.0910, 529.5471
573.5731, 529.9826
574.0552, 532.3918
574.5374, 533.6520
575.0195, 531.5211
575.5016, 529.3287
575.9837, 528.0851
576.4658, 527.7881
576.9479, 527.8562
577.4301, 528.4987
577.9122, 529.2373
578.3943, 529.9006
578.8764, 530.4936
579.3585, 530.9675
579.8406, 531.3160
580.3228, 531.5564
580.8049, 531.5756
581.2870, 531.4001
581.7691, 531.6051
582.2512, 532.3273
582.7333, 533.3552
583.2155, 534.6465
583.6976, 536.0088
584.1797, 536.9105
584.6617, 536.7805
585.1439, 536.2858
585.6260, 535.7728
586.1081, 535.3306
586.5902, 535.4134
587.0723, 536.9985
587.5544, 538.5662
588.0366, 539.1780
588.5187, 538.4897
589.0008, 537.9166
589.4829, 537.6383
589.9650, 537.5401
590.4471, 537.5772
590.9293, 537.9172
591.4114, 537.9933
591.8935, 537.6617
592.3756, 537.1786
592.8577, 537.1025
593.3398, 537.4756
593.8220, 537.5494
594.3041, 536.9091
594.7862, 535.9435
595.2683, 535.5573
595.7504, 535.7054
596.2325, 536.0377
596.7147, 536.4012
597.1968, 536.7966
597.6789, 537.2697
598.1610, 537.8284
598.6431, 538.3023
599.1252, 538.8475
599.6074, 539.1230
600.0895, 538.7855
600.5716, 537.1578
601.0537, 536.0012
601.5358, 535.7142
602.0179, 535.9965
602.5001, 536.5399
602.9822, 537.6392
603.4643, 538.4083
603.9464, 538.7354
604.4285, 538.6121
604.9106, 537.6628
605.3928, 535.7062
605.8749, 534.5828
606.3570, 535.5865
606.8391, 538.0971
607.3212, 540.3824
607.8033, 542.4145
608.2855, 543.7357
608.7676, 543.3531
609.2497, 542.3038
609.7318, 542.1068
610.2139, 543.2518
610.6960, 543.9193
611.1782, 541.9661
611.6603, 539.5240
612.1424, 538.8426
612.6245, 542.7903
613.1066, 545.6885
613.5887, 546.4730
614.0709, 545.8188
614.5530, 544.9574
615.0351, 543.7532
615.5172, 542.6660
615.9993, 541.7952
616.4814, 541.1419
616.9636, 540.6932
617.4457, 540.4584
617.9278, 540.3679
618.4099, 540.5021
618.8920, 540.7425
619.3741, 540.5400
619.8563, 539.8609
620.3384, 539.6672
620.8205, 541.5630
621.3026, 544.0422
621.7847, 545.1472
622.2668, 544.0012
622.7490, 542.7661
623.2311, 542.3865
623.7132, 542.4590
624.1953, 542.4694
624.6774, 541.9705
625.1595, 541.8482
625.6417, 542.1479
626.1238, 542.9031
626.6059, 544.4149
627.0880, 547.2180
627.5701, 549.1865
628.0522, 549.3656
628.5344, 548.1058
629.0165, 546.8665
629.4986, 545.6330
629.9807, 545.0992
630.4628, 546.4911
630.9449, 548.7155
631.4271, 549.6424
631.9092, 549.0760
632.3913, 548.1536
632.8734, 547.3817
633.3555, 546.8260
633.8376, 546.5434
634.3198, 546.5583
634.8019, 546.8188
635.2840, 547.5204
635.7661, 548.3809
636.2482, 549.0185
636.7303, 549.3514
637.2125, 549.5847
637.6946, 549.7659
638.1767, 549.8588
638.6588, 549.7637
639.1409, 549.4785
639.6230, 549.0383
640.1052, 548.3478
640.5873, 547.5590
641.0694, 546.9990
641.5515, 546.6959
642.0336, 546.9463
642.5157, 548.6971
642.9979, 550.7266
643.4800, 551.4399
643.9621, 550.6630
644.4442, 549.8371
644.9263, 549.6032
645.4084, 549.6589
645.8906, 549.7591
646.3727, 549.7830
646.8548, 549.9827
647.3369, 550.3297
647.8190, 550.8524
648.3011, 551.5848
648.7833, 552.5490
649.2654, 553.6879
649.7475, 555.1866
650.2296, 556.6133
650.7117, 556.9325
651.1938, 556.2339
651.6760, 555.5855
652.1581, 555.3962
652.6402, 555.5345
653.1223, 556.0500
653.6044, 556.7961
654.0865, 557.1643
654.5687, 556.2543
655.0508, 555.3026
655.5329, 555.3151
656.0150, 556.4049
656.4971, 557.0209
656.9792, 556.1622
657.4614, 555.2730
657.9435, 555.1656
658.4256, 556.1006
658.9077, 556.9678
659.3898, 557.9306
659.8719, 558.5259
660.3541, 558.1874
660.8362, 556.9383
661.3183, 555.2136
661.8004, 552.7843
662.2825, 550.9146
662.7646, 551.9541
663.2468, 554.8723
663.7289, 557.1436
664.2110, 557.6326
664.6931, 557.4752
665.1752, 557.1497
665.6573, 556.7950
666.1395, 556.7232
666.6216, 557.2752
667.1037, 557.8811
667.5858, 558.4481
668.0679, 558.9528
668.5500, 559.0921
669.0322, 558.4245
669.5143, 558.2938
669.9964, 559.7673
670.4785, 562.6398
670.9606, 563.2197
671.4427, 561.2830
671.9249, 559.2000
672.4070, 559.2120
672.8891, 560.3862
673.3712, 560.5920
673.8533, 559.5261
674.3354, 558.5237
674.8176, 558.3868
675.2997, 558.8971
675.7818, 559.9006
676.2639, 561.8514
676.7460, 563.3995
677.2281, 563.7491
677.7103, 563.7358
678.1924, 564.5391
678.6745, 567.3344
679.1566, 568.1577
679.6387, 565.6149
680.1208, 561.6313
680.6030, 560.6461
681.0851, 562.6531
681.5672, 564.6862
682.0493, 565.8165
682.5314, 566.1873
683.0135, 565.5425
683.4957, 564.1915
683.9778, 563.3905
684.4599, 564.5117
684.9420, 565.8516
685.4241, 566.1402
685.9063, 565.4111
686.3884, 564.8492
686.8705, 565.2336
687.3526, 565.4171
687.8347, 564.5720
688.3168, 562.3098
688.7990, 562.0745
689.2811, 564.5156
689.7632, 567.5435
690.2453, 570.0031
690.7274, 571.8287
691.2095, 571.4567
691.6917, 568.5526
692.1738, 565.2299
692.6559, 563.5813
693.1380, 563.1230
693.6201, 563.2312
694.1022, 564.1138
694.5844, 564.5236
695.0665, 562.3939
695.5486, 559.8372
696.0307, 559.5635
696.5128, 565.4905
696.9949, 569.4220
697.4771, 569.8020
697.9592, 568.1090
698.4413, 567.2032
698.9234, 567.2512
699.4055, 567.4791
699.8876, 567.8176
700.3698, 568.0909
700.8519, 567.6809
701.3340, 566.7007
701.8161, 565.8918
702.2982, 565.4827
702.7803, 565.5586
703.2625, 566.7813
703.7446, 568.7992
704.2267, 569.8153
704.7088, 567.7570
705.1909, 565.6318
705.6730, 565.3152
706.1552, 567.1097
706.6373, 567.5438
707.1194, 565.0947
707.6015, 563.4083
708.0836, 565.1814
708.5657, 570.7044
709.0479, 573.1273
709.5300, 572.1008
710.0121, 570.0388
710.4942, 568.9721
710.9763, 568.5505
711.4584, 567.7220
711.9406, 566.2159
712.4227, 565.4233
712.9048, 567.2020
713.3869, 569.8088
713.8690, 571.4052
714.3511, 571.0822
714.8333, 570.6312
715.3154, 570.1572
715.7975, 569.8563
716.2796, 570.0975
716.7617, 571.4129
717.2438, 571.6667
717.7260, 570.3569
718.2081, 568.2985
718.6902, 566.8375
719.1723, 565.9241
719.6544, 565.2126
720.1365, 564.4531
720.6187, 564.0608
721.1008, 564.9186
721.5829, 566.5123
722.0650, 567.6649
722.5471, 567.2219
723.0292, 566.8522
723.5114, 567.7263
723.9935, 569.3726
724.4756, 569.6371
724.9577, 567.0906
725.4398, 565.3146
725.9219, 565.5677
726.4041, 567.4747
726.8862, 569.1047
727.3683, 570.5276
727.8504, 571.0651
728.3325, 569.5794
728.8146, 567.1887
729.2968, 566.5036
729.7789, 567.3615
730.2610, 568.1459
730.7431, 567.6467
731.2252, 566.8350
731.7073, 566.1545
732.1895, 565.5828
732.6716, 566.1121
733.1537, 569.6874
733.6358, 572.7766
734.1179, 573.3942
734.6000, 570.9288
735.0822, 569.4474
735.5643, 569.0401
736.0464, 569.2468
736.5285, 570.0788
737.0106, 571.2291
737.4927, 571.3359
737.9749, 570.1705
738.4570, 568.9600
738.9391, 568.7599
739.4212, 569.1451
739.9033, 569.7865
740.3854, 571.0898
740.8676, 571.4881
741.3497, 569.0917
741.8318, 566.4116
742.3139, 566.1975
742.7960, 570.1506
743.2781, 572.1080
743.7603, 571.0533
744.2424, 568.9213
744.7245, 568.7692
745.2066, 570.2894
745.6887, 570.8030
746.1708, 569.2946
746.6530, 567.5445
747.1351, 567.5745
747.6172, 568.8097
748.0993, 570.2643
748.5814, 572.2100
749.0635, 573.5770
749.5457, 573.8091
750.0278, 573.2455
750.5099, 572.5703
750.9920, 571.3779
751.4741, 570.9893
751.9562, 572.0087
752.4384, 573.7156
752.9205, 574.3549
753.4026, 573.9465
753.8847, 572.6676
754.3668, 569.9589
754.8489, 567.1391
755.3311, 566.1337
755.8132, 566.6115
756.2953, 567.6321
756.7774, 569.5128
757.2595, 571.0911
757.7416, 571.7294
758.2238, 571.5329
758.7059, 571.2236
759.1880, 570.4410
759.6701, 570.2371
760.1522, 571.2459
760.6343, 573.0818
761.1165, 573.4342
761.5986, 572.2152
762.0807, 571.3099
762.5628, 572.5881
763.0449, 574.4805
763.5270, 573.7272
764.0092, 570.8370
764.4913, 568.5378
764.9734, 568.6932
765.4555, 569.6190
765.9376, 570.7447
766.4197, 572.0206
766.9019, 571.9512
767.3840, 569.3396
767.8661, 567.0535
768.3482, 566.4841
768.8303, 567.5471
769.3124, 568.1102
769.7946, 568.1240
770.2767, 568.2144
770.7588, 569.0121
771.2409, 570.1155
771.7230, 570.6041
772.2051, 570.4948
772.6873, 570.8443
773.1694, 572.7906
773.6515, 575.0084
774.1336, 576.9775
774.6157, 578.8776
775.0978, 578.5236
775.5800, 573.9026
776.0621, 569.7219
776.5442, 569.2086
777.0263, 572.5960
777.5084, 574.2468
777.9905, 574.0497
778.4727, 573.2885
778.9548, 572.7868
779.4369, 572.5638
779.9190, 572.8981
780.4011, 573.8593
780.8832, 574.2843
781.3654, 572.8113
781.8475, 571.0408
782.3296, 570.2109
782.8117, 570.8530
783.2938, 571.3395
783.7759, 571.9041
784.2581, 572.0007
784.7402, 570.7216
785.2223, 568.0687
785.7044, 567.5514
786.1865, 569.5167
786.6686, 571.7111
787.1508, 571.4158
787.6329, 570.1558
788.1150, 570.7314
788.5971, 573.9836
789.0792, 576.1326
789.5613, 573.9995
790.0435, 570.9101
790.5256, 569.6285
791.0077, 571.1181
791.4898, 572.2726
791.9719, 573.1408
792.4540, 573.5652
792.9362, 572.9844
793.4183, 571.5598
793.9004, 571.5278
794.3825, 573.1944
794.8646, 575.1022
795.3467, 576.3944
795.8289, 576.8672
796.3110, 575.8010
796.7931, 572.4138
797.2752, 570.4118
797.7573, 572.6339
798.2394, 575.7930
798.7216, 577.0269
799.2037, 575.1159
799.6858, 574.6858
800.1679, 576.3246
800.6500, 578.1055
801.1321, 577.9832
801.6143, 576.2802
802.0964, 574.3814
802.5785, 572.3566
803.0606, 570.9734
803.5427, 571.3539
804.0248, 572.5354
804.5070, 573.4456
804.9891, 573.7354
805.4712, 574.2128
805.9533, 575.7527
806.4354, 577.0185
806.9175, 576.8262
807.3997, 574.5936
807.8818, 573.5242
808.3639, 573.8583
808.8460, 574.7923
809.3281, 575.9504
809.8102, 577.0186
810.2924, 576.8788
810.7745, 575.2190
811.2566, 573.9220
811.7387, 574.9843
812.2208, 576.6141
812.7029, 577.0996
813.1851, 575.4884
813.6672, 574.6274
814.1493, 574.8612
814.6314, 575.5939
815.1135, 576.5098
815.5956, 577.6401
816.0778, 578.2552
816.5599, 578.3132
817.0420, 577.9775
817.5241, 577.2800
818.0062, 576.3409
818.4883, 575.0331
818.9705, 573.1823
819.4526, 572.4489
819.9347, 575.0576
820.4168, 578.0330
820.8989, 578.9955
821.3810, 577.2639
821.8632, 576.2304
822.3453, 576.0475
822.8274, 576.2311
823.3095, 576.3071
823.7916, 576.3825
824.2737, 577.3405
824.7559, 579.2397
825.2380, 580.7016
825.7201, 580.2097
826.2022, 578.9641
826.6843, 578.0897
827.1664, 577.7468
827.6486, 577.5602
828.1307, 577.5753
828.6128, 577.6056
829.0949, 577.5182
829.5770, 577.2888
830.0591, 577.3376
830.5413, 577.6766
831.0234, 578.2283
831.5055, 579.1656
831.9876, 580.1945
832.4697, 580.6185
832.9518, 580.4525
833.4340, 580.3871
833.9161, 581.2434
834.3982, 581.9704
834.8803, 581.6387
835.3624, 580.0896
835.8445, 579.5561
836.3267, 580.4722
836.8088, 581.5859
837.2909, 582.5472
837.7730, 583.2270
838.2551, 582.2272
838.7372, 579.7108
839.2194, 578.2020
839.7015, 580.7325
840.1836, 584.0462
840.6657, 584.6786
841.1478, 582.9811
841.6299, 581.5969
842.1121, 581.5117
842.5942, 581.7419
843.0763, 582.0971
843.5584, 582.4914
844.0405, 582.3521
844.5226, 581.5746
845.0048, 580.9310
845.4869, 580.7002
845.9690, 580.8450
846.4511, 581.4124
846.9332, 582.3107
847.4153, 583.2469
847.8975, 584.3203
848.3796, 585.1448
848.8617, 585.8846
849.3438, 586.2230
849.8259, 585.0480
850.3080, 581.0407
850.7902, 578.4620
851.2723, 578.4696
851.7544, 580.2146
852.2365, 582.4199
852.7186, 584.8759
853.2007, 586.2347
853.6829, 585.4957
854.1650, 584.3217
854.6471, 584.3380
855.1292, 584.8841
855.6113, 584.8474
856.0934, 582.7048
856.5756, 581.6161
857.0577, 582.3076
857.5398, 583.8699
858.0219, 585.1881
858.5040, 586.2821
858.9861, 586.6677
859.4683, 586.2072
859.9504, 585.2274
860.4325, 583.4111
860.9146, 581.5618
861.3967, 581.3217
861.8788, 583.9308
862.3610, 585.8528
862.8431, 584.5402
863.3252, 582.7136
863.8073, 583.0702
864.2894, 586.8073
864.7715, 588.9913
865.2537, 589.3363
865.7358, 588.8419
866.2179, 588.2990
866.7000, 587.7315
867.1821, 587.0814
867.6642, 586.3257
868.1464, 585.9818
868.6285, 587.0198
869.1106, 588.1531
869.5927, 588.1904
870.0748, 586.6185
870.5569, 586.2295
871.0391, 587.6085
871.5212, 589.0884
872.0033, 589.6285
872.4854, 589.3597
872.9675, 589.2831
873.4496, 589.3797
873.9318, 589.5078
874.4139, 589.2322
874.8960, 589.1882
875.3781, 590.5437
875.8602, 592.9830
876.3423, 593.9050
876.8245, 590.4966
877.3066, 588.1584
877.7887, 588.9574
878.2708, 591.8364
878.7529, 591.9442
879.2350, 589.2852
879.7172, 587.3849
880.1993, 588.3141
880.6814, 590.1836
881.1635, 590.5627
881.6456, 589.9470
882.1277, 589.4857
882.6099, 589.5437
883.0920, 589.9010
883.5741, 590.7552
884.0562, 591.7620
884.5383, 592.4344
885.0204, 592.7768
885.5026, 592.7070
885.9847, 592.1362
886.4668, 591.3585
886.9489, 590.5117
887.4310, 589.8040
887.9131, 589.6913
888.3953, 590.3711
888.8774, 591.3948
889.3595, 593.4675
889.8416, 595.2156
890.3237, 595.1445
890.8058, 592.0370
891.2880, 590.9838
891.7701, 592.6693
892.2522, 594.2883
892.7343, 592.0930
893.2164, 587.9783
893.6985, 587.6894
894.1807, 591.6291
894.6628, 595.2897
895.1449, 595.3911
895.6270, 594.5104
896.1091, 594.3537
896.5912, 595.1047
897.0734, 595.4957
897.5555, 595.4678
898.0376, 595.1817
898.5197, 594.5258
899.0018, 593.7264
899.4839, 593.7238
899.9661, 594.4034
900.4482, 595.0905
900.9303, 595.4415
901.4124, 595.6602
901.8945, 595.8072
902.3766, 595.9330
902.8588, 596.2070
903.3409, 596.7653
903.8230, 597.2502
904.3051, 597.6083
904.7872, 597.8613
905.2693, 598.2482
905.7515, 598.6459
906.2336, 598.0605
906.7157, 595.5912
907.1978, 593.8002
907.6799, 595.9139
908.1620, 599.5157
908.6442, 601.7031
909.1263, 601.2922
909.6084, 600.2741
910.0905, 598.2304
910.5726, 596.3125
911.0547, 595.6530
911.5369, 596.1584
912.0190, 596.6361
912.5011, 597.0187
912.9832, 597.4357
913.4653, 598.2750
913.9474, 599.0120
914.4296, 598.9532
914.9117, 597.9938
915.3938, 597.5278
915.8759, 597.7540
916.3580, 598.5061
916.8401, 599.9265
917.3223, 601.8163
917.8044, 603.0428
918.2865, 603.6145
918.7686, 603.9280
919.2507, 604.2587
919.7328, 604.3663
920.2150, 604.2628
920.6971, 603.7462
921.1792, 602.3176
921.6613, 597.2516
922.1434, 594.9060
922.6255, 597.2234
923.1077, 601.6776
923.5898, 603.9842
924.0719, 604.2254
924.5540, 604.0774
925.0361, 603.8121
925.5182, 603.4747
926.0004, 602.8448
926.4825, 602.2845
926.9646, 602.2811
927.4467, 603.1617
927.9288, 603.9152
928.4109, 604.5886
928.8931, 604.9102
929.3752, 604.5687
929.8573, 603.5831
930.3394, 602.9001
930.8215, 602.5294
931.3036, 602.0239
931.7858, 600.5284
932.2679, 599.1453
932.7500, 599.2971
933.2321, 600.7787
933.7142, 601.6381
934.1964, 600.7659
934.6785, 600.1563
935.1606, 600.4005
935.6427, 601.1933
936.1248, 601.4876
936.6069, 601.3552
937.0891, 601.7210
937.5712, 603.1445
938.0533, 604.7003
938.5354, 605.5192
939.0175, 605.8743
939.4996, 606.1542
939.9818, 606.8995
940.4639, 606.7947
940.9460, 605.3864
941.4281, 603.7057
941.9102, 602.7719
942.3923, 602.5383
942.8745, 602.5663
943.3566, 602.8253
943.8387, 603.3927
944.3208, 604.5888
944.8029, 605.9234
945.2850, 607.0798
945.7672, 608.0209
946.2493, 608.5087
946.7314, 608.4708
947.2135, 608.1186
947.6956, 607.4239
948.1777, 606.5217
948.6599, 605.8573
949.1420, 605.4422
949.6241, 605.3762
950.1062, 605.9676
950.5883, 606.6132
951.0704, 606.8880
951.5526, 606.9291
952.0347, 606.9823
952.5168, 607.0290
952.9989, 607.1523
953.4810, 607.2917
953.9631, 607.6413
954.4453, 608.8030
954.9274, 610.3948
955.4095, 610.9667
955.8916, 610.2672
956.3737, 609.3173
956.8558, 608.1824
957.3380, 607.5193
957.8201, 608.1295
958.3022, 610.1446
958.7843, 611.2228
959.2664, 611.2473
959.7485, 610.6368
960.2307, 609.2040
960.7128, 607.5387
961.1949, 607.3637
961.6770, 608.2542
962.1591, 608.7129
962.6412, 607.2128
963.1234, 606.0892
963.6055, 606.9578
964.0876, 608.5630
964.5697, 608.6513
965.0518, 606.7537
965.5339, 605.5811
966.0161, 605.4801
966.4982, 606.1521
966.9803, 607.7293
967.4624, 609.6542
967.9445, 610.9895
968.4266, 611.5859
968.9088, 611.7045
969.3909, 611.1688
969.8730, 610.3947
970.3551, 609.3142
970.8372, 608.0204
971.3193, 608.3707
971.8015, 610.4114
972.2836, 612.4515
972.7657, 613.7380
973.2478, 614.3477
973.7299, 614.0823
974.2120, 613.2304
974.6942, 612.5098
975.1763, 611.9056
975.6584, 611.7828
976.1405, 612.1493
976.6226, 613.0380
977.1047, 614.9780
977.5869, 617.7767
978.0690, 618.8909
978.5511, 617.8151
979.0332, 616.4227
979.5153, 616.4740
979.9974, 616.8109
980.4796, 616.1137
980.9617, 613.9986
981.4438, 613.2295
981.9259, 614.5840
982.4080, 615.7666
982.8901, 615.5101
983.3723, 614.4210
983.8544, 614.5411
984.3365, 615.5869
984.8186, 616.3845
985.3007, 615.7997
985.7828, 615.4339
986.2650, 616.3361
986.7471, 617.8453
987.2292, 618.8654
987.7113, 619.3458
988.1934, 619.3563
988.6755, 618.7557
989.1577, 618.2308
989.6398, 618.4747
990.1219, 619.3415
990.6040, 621.0490
991.0861, 623.6416
991.5682, 624.9426
992.0504, 622.9440
992.5325, 620.6113
993.0146, 619.1282
993.4967, 618.4653
993.9788, 618.4626
994.4609, 619.1262
994.9431, 619.8069
995.4252, 620.4905
995.9073, 620.7125
996.3894, 619.3199
996.8715, 617.3177
997.3536, 616.3260
997.8358, 618.0993
998.3179, 618.8459
998.8000, 617.9044
999.2821, 616.8033
999.7642, 617.4398
1000.246, 619.3220
1000.728, 619.4885
1001.211, 617.8549
1001.693, 616.3245
1002.175, 615.7556
1002.657, 616.0414
1003.139, 617.5873
1003.621, 620.1171
1004.103, 621.7438
1004.585, 622.3474
1005.068, 622.4050
1005.550, 621.8381
1006.032, 621.2173
1006.514, 621.5163
1006.996, 622.4420
1007.478, 623.5170
1007.960, 624.9651
1008.442, 625.6318
1008.924, 624.1543
1009.407, 622.6627
1009.889, 622.7737
1010.371, 624.5765
1010.853, 625.2944
1011.335, 624.9250
1011.817, 624.0925
1012.299, 622.3641
1012.781, 621.0741
1013.263, 622.2760
1013.746, 625.0443
1014.228, 625.9886
1014.710, 622.9455
1015.192, 621.2961
1015.674, 622.2523
1016.156, 624.2083
1016.638, 624.9055
1017.120, 624.5793
1017.603, 623.6668
1018.085, 622.0732
1018.567, 621.3295
1019.049, 623.6014
1019.531, 625.9426
1020.013, 626.0320
1020.495, 623.9792
1020.977, 623.1281
1021.459, 623.5814
1021.942, 624.3453
1022.424, 625.2220
1022.906, 625.8499
1023.388, 625.3055
1023.870, 624.2325
1024.352, 623.8863
1024.834, 625.6615
1025.316, 626.7853
1025.799, 627.1073
1026.281, 626.6595
1026.763, 624.7323
1027.245, 621.8436
1027.727, 621.6824
1028.209, 624.3503
1028.691, 626.9911
1029.173, 627.4003
1029.656, 627.3474
1030.138, 628.2297
1030.620, 629.7488
1031.102, 630.1056
1031.584, 628.9777
1032.066, 627.8447
1032.548, 626.8970
1033.030, 626.4951
1033.512, 627.5627
1033.995, 629.4283
1034.477, 631.0565
1034.959, 632.3986
1035.441, 632.7631
1035.923, 631.2288
1036.405, 629.5187
1036.887, 628.4675
1037.369, 628.0490
1037.851, 628.0114
1038.334, 628.3392
1038.816, 628.8297
1039.298, 629.8572
1039.780, 630.5346
1040.262, 629.8500
1040.744, 628.5139
1041.226, 627.9594
1041.708, 628.4774
1042.191, 629.1371
1042.673, 629.9716
1043.155, 630.6074
1043.637, 630.7853
1044.119, 630.4476
1044.601, 628.8962
1045.083, 626.2161
1045.565, 625.1288
1046.047, 628.1564
1046.530, 631.1010
1047.012, 632.6006
1047.494, 633.1262
1047.976, 634.0545
1048.458, 635.2928
1048.940, 635.9890
1049.422, 635.8437
1049.904, 635.3380
1050.386, 634.3239
1050.869, 633.4429
1051.351, 633.5131
1051.833, 634.7888
1052.315, 635.5771
1052.797, 635.9149
1053.279, 635.5568
1053.761, 633.4350
1054.243, 631.1342
1054.726, 632.0710
1055.208, 635.0675
1055.690, 637.0132
1056.172, 636.0795
1056.654, 634.9395
1057.136, 633.8002
1057.618, 632.8516
1058.100, 632.4393
1058.583, 632.4645
1059.065, 632.0717
1059.547, 631.2205
1060.029, 630.9320
1060.511, 632.6723
1060.993, 634.4973
1061.475, 634.9501
1061.957, 634.4160
1062.439, 634.7499
1062.922, 636.1802
1063.404, 636.9940
1063.886, 636.6009
1064.368, 635.9073
1064.850, 636.3824
1065.332, 637.0912
1065.814, 636.4879
1066.296, 633.7141
1066.778, 632.3572
1067.261, 633.3004
1067.743, 634.5982
1068.225, 635.2733
1068.707, 635.5527
1069.189, 636.2761
1069.671, 637.2731
1070.153, 637.9130
1070.635, 637.6628
1071.118, 637.3444
1071.600, 637.0431
1072.082, 637.0139
1072.564, 637.7973
1073.046, 639.5592
1073.528, 639.4982
1074.010, 637.4554
1074.492, 635.9470
1074.974, 637.9111
1075.457, 640.4298
1075.939, 640.6605
1076.421, 639.1240
1076.903, 638.3119
1077.385, 638.3954
1077.867, 639.2592
1078.349, 641.1467
1078.831, 643.0772
1079.313, 643.5793
1079.796, 643.2703
1080.278, 643.2853
1080.760, 643.8063
1081.242, 644.1279
1081.724, 644.4759
1082.206, 643.9096
1082.688, 641.5481
1083.170, 638.3356
1083.652, 637.4996
1084.135, 638.6802
1084.617, 640.2205
1085.099, 641.9661
1085.581, 642.9649
1086.063, 641.7764
1086.545, 640.1998
1087.027, 639.9037
1087.509, 641.0361
1087.992, 642.4039
1088.474, 644.0742
1088.956, 645.0737
1089.438, 644.3365
1089.920, 643.0389
1090.402, 642.1562
1090.884, 641.6802
1091.366, 641.6116
1091.849, 641.8834
1092.331, 642.7441
1092.813, 644.4541
1093.295, 646.0169
1093.777, 646.0510
1094.259, 645.3487
1094.741, 646.0172
1095.223, 647.8237
1095.705, 648.3853
1096.188, 645.0687
1096.670, 642.5125
1097.152, 641.9381
1097.634, 642.7030
1098.116, 644.1129
1098.598, 645.9302
1099.080, 646.5823
1099.562, 645.7347
1100.044, 644.8373
1100.527, 644.8683
1101.009, 645.1613
1101.491, 645.2227
1101.973, 645.1234
1102.455, 645.4424
1102.937, 646.1924
1103.419, 646.7692
1103.901, 646.7963
1104.384, 646.9753
1104.866, 648.3381
1105.348, 650.0928
1105.830, 651.3464
1106.312, 651.9500
1106.794, 652.0671
1107.276, 651.7187
1107.758, 650.7402
1108.240, 648.4666
1108.723, 645.9703
1109.205, 644.8065
1109.687, 644.9102
1110.169, 646.0963
1110.651, 650.4496
1111.133, 652.5600
1111.615, 651.1760
1112.097, 649.0494
1112.579, 648.6865
1113.062, 649.6804
1113.544, 650.7361
1114.026, 651.7695
1114.508, 652.4737
1114.990, 652.8499
1115.472, 652.6546
1115.954, 651.5285
1116.436, 650.0061
1116.919, 648.5316
1117.401, 647.1768
1117.883, 647.7444
1118.365, 650.5010
1118.847, 653.0375
1119.329, 653.1306
1119.811, 652.7371
1120.293, 653.7103
1120.776, 655.4085
1121.258, 654.4324
1121.740, 650.2233
1122.222, 649.0328
1122.704, 653.0549
1123.186, 657.4805
1123.668, 656.9059
1124.150, 654.2632
1124.632, 652.7269
1125.115, 652.8583
1125.597, 652.5536
1126.079, 651.4677
1126.561, 651.1121
1127.043, 652.4114
1127.525, 654.2374
1128.007, 654.8045
1128.489, 654.5496
1128.971, 654.1888
1129.454, 653.8772
1129.936, 653.4870
1130.418, 652.8898
1130.900, 652.4206
1131.382, 652.1916
1131.864, 652.2678
1132.346, 653.0939
1132.828, 654.4080
1133.311, 655.3929
1133.793, 655.8008
1134.275, 655.6348
1134.757, 654.2586
1135.239, 653.0577
1135.721, 653.6207
1136.203, 655.6134
1136.685, 655.8822
1137.167, 654.6517
1137.650, 654.3318
1138.132, 657.8383
1138.614, 660.8604
1139.096, 661.1218
1139.578, 659.8622
1140.060, 658.5111
1140.542, 657.0544
1141.024, 655.8890
1141.506, 655.0456
1141.989, 654.6671
1142.471, 655.0828
1142.953, 655.7931
1143.435, 656.7064
1143.917, 657.6063
1144.399, 657.7148
1144.881, 656.8272
1145.363, 656.8932
1145.846, 658.4091
1146.328, 659.8940
1146.810, 659.5349
1147.292, 658.6349
1147.774, 658.4999
1148.256, 659.2213
1148.738, 659.6324
1149.220, 659.5888
1149.703, 659.7811
1150.185, 660.5049
1150.667, 661.2239
1151.149, 660.9135
1151.631, 660.3150
1152.113, 660.5181
1152.595, 661.8171
1153.077, 663.0712
1153.559, 664.4579
1154.042, 665.0298
1154.524, 664.0332
1155.006, 662.5435
1155.488, 662.6439
1155.970, 663.7106
1156.452, 664.4954
1156.934, 664.4711
1157.416, 664.9611
1157.898, 666.8703
1158.381, 667.8262
1158.863, 665.7601
1159.345, 662.2444
1159.827, 662.3246
1160.309, 664.7642
1160.791, 666.1190
1161.273, 664.0632
1161.755, 662.8387
1162.238, 663.6321
1162.720, 665.0480
1163.202, 666.4628
1163.684, 667.6758
1164.166, 667.3474
1164.648, 665.7688
1165.130, 664.2202
1165.612, 663.0496
1166.094, 662.3437
1166.577, 662.1070
1167.059, 662.3412
1167.541, 663.2543
1168.023, 664.7330
1168.505, 665.7131
1168.987, 666.2147
1169.469, 666.7606
1169.951, 667.8813
1170.433, 668.8401
1170.916, 669.5518
1171.398, 669.7516
1171.880, 668.7335
1172.362, 666.5996
1172.844, 665.4499
1173.326, 665.4446
1173.808, 665.9052
1174.290, 666.6449
1174.773, 667.4476
1175.255, 668.3638
1175.737, 669.2034
1176.219, 669.6879
1176.701, 669.8278
1177.183, 668.7543
1177.665, 666.2603
1178.147, 664.1659
1178.630, 664.0193
1179.112, 664.6787
1179.594, 665.7149
1180.076, 666.8622
1180.558, 667.2457
1181.040, 666.7975
1181.522, 667.0427
1182.004, 668.3912
1182.486, 669.5875
1182.969, 669.4322
1183.451, 668.7052
1183.933, 667.9647
1184.415, 667.2238
1184.897, 665.9650
1185.379, 663.9543
1185.861, 664.3734
1186.343, 668.6956
1186.825, 672.8658
1187.308, 672.2320
1187.790, 670.0170
1188.272, 669.3542
1188.754, 670.3904
1189.236, 671.0502
1189.718, 671.3567
1190.200, 671.0419
1190.682, 669.7732
1191.165, 668.5945
1191.647, 668.9743
1192.129, 669.8155
1192.611, 669.7816
1193.093, 668.6713
1193.575, 668.3320
1194.057, 668.8819
1194.539, 669.2307
1195.021, 668.7548
1195.504, 668.2742
1195.986, 668.3807
1196.468, 669.2071
1196.950, 671.2585
1197.432, 674.9377
1197.914, 677.1087
1198.396, 677.6856
1198.878, 677.1851
1199.360, 675.2101
1199.843, 673.2830
1200.325, 673.7203
1200.807, 672.7854
1201.289, 672.7076
1201.771, 673.6412
1202.253, 673.5891
1202.735, 675.4883
1203.217, 677.3767
1203.700, 678.2956
1204.182, 678.4664
1204.664, 677.5704
1205.146, 676.3281
1205.628, 676.0285
1206.110, 677.3876
1206.592, 677.3576
1207.074, 675.6338
1207.557, 674.4111
1208.039, 675.3793
1208.521, 677.2774
1209.003, 679.6008
1209.485, 681.5837
1209.967, 681.4857
1210.449, 677.6380
1210.931, 676.7297
1211.413, 679.1991
1211.896, 681.8212
1212.378, 682.4678
1212.860, 682.0327
1213.342, 680.8391
1213.824, 679.4238
1214.306, 678.9944
1214.788, 680.0206
1215.270, 680.5753
1215.752, 680.5833
1216.235, 680.4091
1216.717, 680.2911
1217.199, 680.1531
1217.681, 680.0428
1218.163, 679.8223
1218.645, 679.0460
1219.127, 677.2190
1219.609, 677.2578
1220.092, 679.5645
1220.574, 681.0347
1221.056, 677.3981
1221.538, 673.4416
1222.020, 674.1462
1222.502, 677.8748
1222.984, 680.6288
1223.466, 682.2786
1223.948, 682.6111
1224.431, 681.5029
1224.913, 680.5092
1225.395, 681.7976
1225.877, 682.8624
1226.359, 680.5400
1226.841, 676.6678
1227.323, 676.0243
1227.805, 679.3167
1228.287, 680.8220
1228.770, 680.0484
1229.252, 679.2698
1229.734, 680.5473
1230.216, 682.2519
1230.698, 683.0798
1231.180, 683.4659
1231.662, 684.7712
1232.144, 687.2006
1232.627, 687.2706
1233.109, 684.6201
1233.591, 682.1885
1234.073, 682.4170
1234.555, 683.3514
1235.037, 683.8161
1235.519, 684.0588
1236.001, 684.7364
1236.484, 685.8492
1236.966, 686.2310
1237.448, 685.7815
1237.930, 685.0681
1238.412, 684.2966
1238.894, 683.5565
1239.376, 682.3979
1239.858, 681.5906
1240.340, 683.0377
1240.823, 686.4023
1241.305, 687.8823
1241.787, 687.1601
1242.269, 686.2139
1242.751, 686.0876
1243.233, 686.2761
1243.715, 686.9805
1244.197, 687.4962
1244.679, 686.0583
1245.162, 683.3047
1245.644, 683.1085
1246.126, 685.6505
1246.608, 687.9268
1247.090, 687.9828
1247.572, 688.0323
1248.054, 688.9845
1248.536, 690.0295
1249.019, 689.7917
1249.501, 688.6169
1249.983, 687.1794
1250.465, 685.6824
1250.947, 685.5524
1251.429, 689.0221
1251.911, 691.7019
1252.393, 692.6488
1252.875, 692.5215
1253.358, 691.7004
1253.840, 690.6577
1254.322, 690.9520
1254.804, 692.4092
1255.286, 692.3783
1255.768, 687.8760
1256.250, 685.9456
1256.732, 688.2388
1257.214, 691.9489
1257.697, 693.9111
1258.179, 694.8611
1258.661, 695.9944
1259.143, 697.2891
1259.625, 697.9373
1260.107, 697.9584
1260.589, 696.9850
1261.071, 694.7252
1261.554, 692.4762
1262.036, 691.3094
1262.518, 691.1609
1263.000, 692.7523
1263.482, 695.4065
1263.964, 695.9430
1264.446, 693.6954
1264.928, 691.5182
1265.411, 689.5988
1265.893, 689.1825
1266.375, 692.9670
1266.857, 697.3168
1267.339, 699.1016
1267.821, 698.7963
1268.303, 698.2631
1268.785, 697.4163
1269.267, 697.6373
1269.750, 699.1144
1270.232, 700.2892
1270.714, 700.1999
1271.196, 699.2354
1271.678, 696.5931
1272.160, 693.7799
1272.642, 693.3233
1273.124, 695.1041
1273.606, 697.9588
1274.089, 701.6231
1274.571, 703.5690
1275.053, 700.6473
1275.535, 697.7175
1276.017, 696.6496
1276.499, 696.4150
1276.981, 695.2269
1277.463, 693.6978
1277.946, 694.9319
1278.428, 698.5877
1278.910, 700.9717
1279.392, 698.9623
1279.874, 697.5639
1280.356, 697.7235
1280.838, 698.6127
1281.320, 699.8725
1281.802, 700.9492
1282.285, 699.9932
1282.767, 697.6309
1283.249, 696.9457
1283.731, 700.7792
1284.213, 702.0256
1284.695, 699.6068
1285.177, 696.6122
1285.659, 695.7264
1286.141, 696.0207
1286.624, 696.5707
1287.106, 697.3221
1287.588, 698.3278
1288.070, 699.8739
1288.552, 700.2316
1289.034, 699.1830
1289.516, 698.5174
1289.998, 700.5235
1290.481, 702.5432
1290.963, 701.8510
1291.445, 699.9828
1291.927, 699.7246
1292.409, 701.2033
1292.891, 701.6572
1293.373, 701.1347
1293.855, 701.2676
1294.338, 704.1334
1294.820, 706.5605
1295.302, 707.1241
1295.784, 706.4388
1296.266, 704.3548
1296.748, 701.2806
1297.230, 699.7009
1297.712, 699.6824
1298.194, 701.2706
1298.677, 706.0098
1299.159, 709.8163
1299.641, 712.5273
1300.123, 713.4108
1300.605, 710.5502
1301.087, 706.1074
1301.569, 705.4797
1302.051, 707.2933
1302.533, 708.4215
1303.016, 707.6672
##END=



