##NAMES=Reevesite
##RRUFFID=R070678
##IDEAL CHEMISTRY=Ni^2+^_6_Fe^3+^_2_C^4+^O_3_(OH)_16_&#183;4H_2_O
##LOCALITY=Otway Prospect, Nullagine Region, Western Australia, Australia
##OWNER=RRUFF
##SOURCE=Michael Scott
##DESCRIPTION=Massive, golden-brown veinlet; associated with chrysotile/serpentine 
##STATUS=The identification of this mineral is not yet confirmed.
##URL=rruff.info/R070678
158.1304, 5359.934
158.6125, 5361.443
159.0946, 5370.556
159.5768, 5381.666
160.0589, 5394.475
160.5410, 5404.981
161.0231, 5401.406
161.5052, 5399.019
161.9873, 5412.688
162.4695, 5472.738
162.9516, 5529.239
163.4337, 5559.290
163.9158, 5560.451
164.3979, 5545.604
164.8800, 5504.445
165.3622, 5452.691
165.8443, 5415.727
166.3264, 5410.921
166.8085, 5420.739
167.2906, 5434.827
167.7727, 5454.279
168.2549, 5470.833
168.7370, 5475.808
169.2191, 5472.997
169.7012, 5473.387
170.1833, 5491.451
170.6654, 5512.758
171.1476, 5521.074
171.6297, 5503.330
172.1118, 5481.564
172.5939, 5478.191
173.0760, 5490.705
173.5581, 5498.565
174.0403, 5478.205
174.5224, 5444.578
175.0045, 5421.992
175.4866, 5427.084
175.9687, 5444.406
176.4508, 5456.774
176.9330, 5463.979
177.4151, 5469.727
177.8972, 5478.938
178.3793, 5489.723
178.8614, 5496.819
179.3435, 5492.276
179.8257, 5483.651
180.3078, 5487.078
180.7899, 5506.630
181.2720, 5526.192
181.7541, 5525.620
182.2362, 5507.251
182.7184, 5484.390
183.2005, 5456.125
183.6826, 5428.837
184.1647, 5422.184
184.6468, 5445.408
185.1289, 5480.185
185.6111, 5498.474
186.0932, 5500.747
186.5753, 5492.375
187.0574, 5463.446
187.5395, 5422.291
188.0216, 5411.663
188.5037, 5458.450
188.9859, 5531.794
189.4680, 5549.893
189.9501, 5508.483
190.4322, 5453.209
190.9143, 5431.220
191.3964, 5439.654
191.8786, 5444.140
192.3607, 5431.696
192.8428, 5406.084
193.3249, 5381.095
193.8070, 5354.555
194.2891, 5336.629
194.7713, 5346.164
195.2534, 5384.288
195.7355, 5420.796
196.2176, 5444.142
196.6997, 5454.568
197.1818, 5458.830
197.6640, 5456.854
198.1461, 5449.205
198.6282, 5434.381
199.1103, 5411.071
199.5924, 5389.763
200.0745, 5374.940
200.5567, 5366.720
201.0388, 5366.990
201.5209, 5381.242
202.0030, 5399.520
202.4851, 5388.458
202.9672, 5338.828
203.4494, 5293.126
203.9315, 5287.084
204.4136, 5328.646
204.8957, 5354.251
205.3778, 5351.782
205.8599, 5327.188
206.3421, 5309.024
206.8242, 5298.149
207.3063, 5292.086
207.7884, 5292.867
208.2705, 5305.801
208.7526, 5302.618
209.2348, 5270.265
209.7169, 5211.155
210.1990, 5178.147
210.6811, 5178.926
211.1632, 5193.611
211.6453, 5199.577
212.1275, 5192.775
212.6096, 5189.649
213.0917, 5198.030
213.5738, 5220.063
214.0559, 5224.688
214.5380, 5202.881
215.0202, 5172.879
215.5023, 5165.900
215.9844, 5193.717
216.4665, 5216.998
216.9486, 5220.635
217.4307, 5200.170
217.9129, 5179.350
218.3950, 5157.575
218.8771, 5135.982
219.3592, 5114.778
219.8413, 5088.743
220.3234, 5072.817
220.8056, 5076.844
221.2877, 5112.555
221.7698, 5135.575
222.2519, 5141.761
222.7340, 5135.163
223.2161, 5129.092
223.6983, 5124.018
224.1804, 5118.568
224.6625, 5111.366
225.1446, 5099.899
225.6267, 5092.533
226.1088, 5090.562
226.5910, 5093.253
227.0731, 5096.652
227.5552, 5101.503
228.0373, 5106.046
228.5194, 5108.270
229.0015, 5104.817
229.4836, 5107.127
229.9658, 5121.871
230.4479, 5147.697
230.9300, 5153.175
231.4121, 5126.957
231.8942, 5092.962
232.3763, 5072.271
232.8585, 5069.648
233.3406, 5071.593
233.8227, 5077.365
234.3048, 5087.402
234.7869, 5094.014
235.2690, 5098.384
235.7512, 5098.458
236.2333, 5090.993
236.7154, 5070.258
237.1975, 5051.872
237.6796, 5036.703
238.1617, 5022.798
238.6439, 5027.811
239.1260, 5065.282
239.6081, 5112.028
240.0902, 5135.558
240.5723, 5125.141
241.0544, 5109.145
241.5366, 5094.777
242.0187, 5082.081
242.5008, 5070.300
242.9829, 5056.579
243.4650, 5045.166
243.9471, 5044.479
244.4293, 5060.389
244.9114, 5077.708
245.3935, 5089.799
245.8756, 5091.534
246.3577, 5104.137
246.8398, 5137.912
247.3220, 5178.599
247.8041, 5192.621
248.2862, 5164.870
248.7683, 5132.809
249.2504, 5111.486
249.7325, 5100.322
250.2147, 5101.217
250.6968, 5120.001
251.1789, 5149.683
251.6610, 5170.916
252.1431, 5185.884
252.6252, 5189.317
253.1074, 5175.793
253.5895, 5133.262
254.0716, 5103.673
254.5537, 5092.634
255.0358, 5095.835
255.5179, 5096.573
256.0001, 5089.886
256.4822, 5088.491
256.9643, 5103.698
257.4464, 5150.100
257.9285, 5174.211
258.4106, 5162.536
258.8928, 5124.117
259.3749, 5106.786
259.8570, 5115.699
260.3391, 5137.042
260.8212, 5166.296
261.3033, 5214.949
261.7855, 5237.127
262.2676, 5217.393
262.7497, 5164.515
263.2318, 5136.145
263.7139, 5141.775
264.1960, 5156.244
264.6782, 5160.052
265.1603, 5149.086
265.6424, 5139.563
266.1245, 5132.753
266.6066, 5129.052
267.0887, 5133.406
267.5709, 5151.313
268.0530, 5167.346
268.5351, 5164.101
269.0172, 5133.507
269.4993, 5114.263
269.9814, 5115.907
270.4636, 5136.445
270.9457, 5156.228
271.4278, 5177.830
271.9099, 5193.513
272.3920, 5192.901
272.8741, 5172.107
273.3563, 5152.506
273.8384, 5135.425
274.3205, 5122.131
274.8026, 5130.825
275.2847, 5169.225
275.7668, 5211.006
276.2490, 5225.168
276.7311, 5207.313
277.2132, 5190.095
277.6953, 5180.953
278.1774, 5179.384
278.6595, 5182.980
279.1417, 5192.513
279.6238, 5204.996
280.1059, 5220.718
280.5880, 5240.910
281.0701, 5249.301
281.5522, 5234.419
282.0344, 5201.658
282.5165, 5192.302
282.9986, 5211.726
283.4807, 5236.082
283.9628, 5233.351
284.4449, 5203.130
284.9271, 5180.841
285.4092, 5181.785
285.8913, 5200.925
286.3734, 5211.267
286.8555, 5211.479
287.3376, 5208.529
287.8198, 5210.979
288.3019, 5218.429
288.7840, 5224.612
289.2661, 5227.860
289.7482, 5227.998
290.2303, 5223.706
290.7124, 5214.479
291.1945, 5203.646
291.6767, 5192.071
292.1588, 5180.717
292.6409, 5176.770
293.1230, 5186.986
293.6051, 5206.482
294.0872, 5221.272
294.5694, 5231.323
295.0515, 5238.007
295.5336, 5243.750
296.0157, 5247.882
296.4978, 5247.338
296.9799, 5231.598
297.4621, 5212.006
297.9442, 5220.792
298.4263, 5260.464
298.9084, 5297.645
299.3905, 5291.700
299.8727, 5254.688
300.3548, 5220.680
300.8369, 5202.914
301.3190, 5197.595
301.8011, 5201.587
302.2832, 5215.297
302.7654, 5230.590
303.2475, 5241.587
303.7296, 5248.702
304.2117, 5253.154
304.6938, 5248.405
305.1759, 5244.424
305.6581, 5256.926
306.1402, 5286.725
306.6223, 5313.925
307.1044, 5325.136
307.5865, 5322.856
308.0686, 5311.178
308.5508, 5278.810
309.0329, 5245.744
309.5150, 5229.988
309.9971, 5231.816
310.4792, 5241.805
310.9613, 5267.903
311.4435, 5295.357
311.9256, 5303.653
312.4077, 5259.802
312.8898, 5213.228
313.3719, 5198.128
313.8540, 5215.768
314.3362, 5239.481
314.8183, 5265.267
315.3004, 5286.717
315.7825, 5296.692
316.2646, 5273.159
316.7467, 5254.250
317.2289, 5264.304
317.7110, 5303.609
318.1931, 5334.095
318.6752, 5336.282
319.1573, 5324.772
319.6394, 5313.465
320.1216, 5309.638
320.6037, 5303.237
321.0858, 5286.716
321.5679, 5260.556
322.0500, 5244.327
322.5321, 5251.209
323.0143, 5265.598
323.4964, 5275.058
323.9785, 5266.258
324.4606, 5264.089
324.9427, 5279.908
325.4248, 5312.917
325.9070, 5332.291
326.3891, 5322.567
326.8712, 5305.427
327.3533, 5295.671
327.8354, 5301.329
328.3175, 5306.116
328.7997, 5306.846
329.2818, 5304.046
329.7639, 5305.972
330.2460, 5323.481
330.7281, 5337.111
331.2102, 5333.401
331.6924, 5293.233
332.1745, 5266.422
332.6566, 5264.147
333.1387, 5281.217
333.6208, 5281.434
334.1029, 5250.104
334.5851, 5220.958
335.0672, 5215.858
335.5493, 5244.184
336.0314, 5274.919
336.5135, 5312.828
336.9956, 5350.573
337.4778, 5357.501
337.9599, 5321.607
338.4420, 5280.804
338.9241, 5254.363
339.4062, 5242.403
339.8883, 5247.339
340.3705, 5275.957
340.8526, 5316.539
341.3347, 5341.454
341.8168, 5349.944
342.2989, 5345.480
342.7810, 5320.260
343.2632, 5274.100
343.7453, 5256.990
344.2274, 5278.817
344.7095, 5319.165
345.1916, 5344.054
345.6737, 5353.193
346.1559, 5352.136
346.6380, 5335.526
347.1201, 5308.868
347.6022, 5300.464
348.0843, 5315.501
348.5664, 5337.512
349.0486, 5341.546
349.5307, 5330.747
350.0128, 5324.928
350.4949, 5340.385
350.9770, 5366.409
351.4591, 5381.620
351.9413, 5384.799
352.4234, 5379.410
352.9055, 5359.475
353.3876, 5332.661
353.8697, 5319.031
354.3518, 5344.763
354.8340, 5379.522
355.3161, 5383.166
355.7982, 5353.178
356.2803, 5324.572
356.7624, 5329.402
357.2445, 5351.758
357.7267, 5366.930
358.2088, 5356.222
358.6909, 5341.904
359.1730, 5340.583
359.6551, 5352.093
360.1372, 5362.218
360.6194, 5361.135
361.1015, 5355.747
361.5836, 5353.052
362.0657, 5355.995
362.5478, 5361.112
363.0299, 5368.343
363.5121, 5377.224
363.9942, 5384.352
364.4763, 5389.280
364.9584, 5391.675
365.4405, 5391.318
365.9226, 5338.491
366.4048, 5387.104
366.8869, 5414.902
367.3690, 5423.003
367.8511, 5352.414
368.3332, 5383.437
368.8153, 5373.738
369.2975, 5362.370
369.7796, 5407.694
370.2617, 5348.550
370.7438, 5392.976
371.2259, 5396.058
371.7080, 5418.062
372.1902, 5399.093
372.6722, 5392.779
373.1544, 5427.452
373.6365, 5439.430
374.1186, 5415.745
374.6007, 5438.951
375.0828, 5378.376
375.5649, 5391.321
376.0471, 5435.986
376.5292, 5414.361
377.0113, 5438.316
377.4934, 5444.913
377.9755, 5372.615
378.4576, 5437.521
378.9398, 5443.092
379.4219, 5387.736
379.9040, 5447.941
380.3861, 5400.985
380.8682, 5392.279
381.3503, 5412.359
381.8325, 5402.431
382.3146, 5439.813
382.7967, 5431.618
383.2788, 5419.350
383.7609, 5424.854
384.2430, 5379.999
384.7252, 5428.569
385.2073, 5413.322
385.6894, 5429.797
386.1715, 5453.462
386.6536, 5422.072
387.1357, 5448.968
387.6179, 5385.477
388.1000, 5397.615
388.5821, 5401.610
389.0642, 5453.947
389.5463, 5390.896
390.0284, 5400.933
390.5106, 5442.091
390.9927, 5439.704
391.4748, 5413.165
391.9569, 5410.336
392.4390, 5435.655
392.9211, 5460.267
393.4033, 5470.289
393.8854, 5468.610
394.3675, 5461.393
394.8496, 5435.728
395.3317, 5416.844
395.8138, 5420.650
396.2960, 5456.384
396.7781, 5484.634
397.2602, 5492.477
397.7423, 5489.114
398.2244, 5486.488
398.7065, 5488.545
399.1887, 5489.006
399.6708, 5482.860
400.1529, 5468.060
400.6350, 5467.464
401.1171, 5492.847
401.5992, 5524.124
402.0814, 5545.426
402.5635, 5560.578
403.0456, 5557.658
403.5277, 5523.542
404.0098, 5466.309
404.4919, 5447.082
404.9741, 5482.245
405.4562, 5524.381
405.9383, 5538.250
406.4204, 5518.815
406.9025, 5505.936
407.3846, 5504.177
407.8668, 5510.337
408.3489, 5517.579
408.8310, 5525.907
409.3131, 5534.951
409.7952, 5542.025
410.2773, 5548.637
410.7595, 5567.387
411.2416, 5602.688
411.7237, 5636.356
412.2058, 5636.052
412.6879, 5609.568
413.1700, 5592.687
413.6522, 5616.222
414.1343, 5654.475
414.6164, 5662.375
415.0985, 5638.166
415.5806, 5613.566
416.0627, 5618.344
416.5449, 5639.175
417.0270, 5655.005
417.5091, 5644.670
417.9912, 5638.506
418.4733, 5669.441
418.9554, 5729.725
419.4376, 5772.548
419.9197, 5760.530
420.4018, 5729.305
420.8839, 5706.167
421.3660, 5696.493
421.8481, 5696.001
422.3303, 5701.831
422.8124, 5715.561
423.2945, 5741.368
423.7766, 5807.599
424.2587, 5862.928
424.7408, 5883.860
425.2230, 5846.395
425.7051, 5824.762
426.1872, 5829.395
426.6693, 5845.801
427.1514, 5853.547
427.6335, 5845.701
428.1157, 5840.149
428.5978, 5840.741
429.0799, 5847.519
429.5620, 5860.919
430.0441, 5883.969
430.5262, 5908.446
431.0084, 5928.266
431.4905, 5944.457
431.9726, 5949.801
432.4547, 5938.302
432.9368, 5917.811
433.4189, 5916.507
433.9011, 5935.886
434.3832, 5953.822
434.8653, 5943.891
435.3474, 5916.512
435.8295, 5923.271
436.3116, 5979.171
436.7938, 6046.901
437.2759, 6071.961
437.7580, 6064.045
438.2401, 6057.805
438.7222, 6073.638
439.2043, 6100.134
439.6865, 6127.451
440.1686, 6155.797
440.6507, 6173.821
441.1328, 6162.937
441.6149, 6139.469
442.0970, 6125.371
442.5792, 6136.345
443.0613, 6151.530
443.5434, 6159.222
444.0255, 6160.479
444.5076, 6167.587
444.9897, 6189.654
445.4719, 6215.505
445.9540, 6238.015
446.4361, 6253.034
446.9182, 6268.751
447.4003, 6289.759
447.8824, 6312.304
448.3646, 6326.592
448.8467, 6333.921
449.3288, 6331.304
449.8109, 6312.153
450.2930, 6264.778
450.7751, 6252.705
451.2573, 6294.016
451.7394, 6350.523
452.2215, 6367.599
452.7036, 6333.749
453.1857, 6310.884
453.6678, 6316.142
454.1500, 6345.693
454.6321, 6385.895
455.1142, 6439.503
455.5963, 6485.486
456.0784, 6496.712
456.5605, 6481.014
457.0426, 6481.079
457.5247, 6509.544
458.0069, 6546.299
458.4890, 6559.264
458.9711, 6553.590
459.4532, 6552.559
459.9353, 6579.942
460.4174, 6614.998
460.8996, 6628.252
461.3817, 6613.761
461.8638, 6600.886
462.3459, 6615.101
462.8280, 6641.981
463.3102, 6661.270
463.7923, 6657.886
464.2744, 6652.429
464.7565, 6656.388
465.2386, 6668.812
465.7207, 6674.128
466.2029, 6652.769
466.6850, 6633.314
467.1671, 6633.446
467.6492, 6679.265
468.1313, 6715.011
468.6134, 6738.414
469.0956, 6751.320
469.5777, 6756.676
470.0598, 6749.411
470.5419, 6742.579
471.0240, 6737.112
471.5061, 6729.916
471.9883, 6753.277
472.4704, 6823.451
472.9525, 6895.235
473.4346, 6900.126
473.9167, 6833.431
474.3988, 6793.272
474.8810, 6816.524
475.3631, 6876.274
475.8452, 6893.859
476.3273, 6869.747
476.8094, 6843.402
477.2915, 6848.796
477.7737, 6873.418
478.2558, 6889.345
478.7379, 6889.812
479.2200, 6888.832
479.7021, 6902.215
480.1842, 6924.876
480.6664, 6945.068
481.1485, 6958.771
481.6306, 6966.516
482.1127, 6961.583
482.5948, 6942.542
483.0769, 6940.047
483.5591, 6989.064
484.0412, 7048.686
484.5233, 7082.647
485.0054, 7046.208
485.4875, 7024.641
485.9696, 7044.955
486.4518, 7095.590
486.9339, 7118.598
487.4160, 7079.040
487.8981, 7051.516
488.3802, 7075.507
488.8623, 7183.015
489.3445, 7230.016
489.8266, 7193.953
490.3087, 7126.698
490.7908, 7102.748
491.2729, 7127.013
491.7550, 7162.447
492.2372, 7206.871
492.7193, 7253.162
493.2014, 7263.951
493.6835, 7237.935
494.1656, 7211.628
494.6477, 7220.397
495.1299, 7251.391
495.6120, 7268.746
496.0941, 7261.359
496.5762, 7251.063
497.0583, 7264.227
497.5404, 7293.324
498.0226, 7318.926
498.5047, 7332.497
498.9868, 7338.603
499.4689, 7338.511
499.9510, 7331.962
500.4331, 7327.280
500.9153, 7330.035
501.3974, 7335.197
501.8795, 7338.373
502.3616, 7323.837
502.8437, 7324.304
503.3258, 7357.592
503.8080, 7412.870
504.2901, 7445.798
504.7722, 7438.106
505.2543, 7431.012
505.7364, 7441.673
506.2185, 7474.628
506.7007, 7505.492
507.1828, 7536.357
507.6649, 7562.376
508.1470, 7574.479
508.6291, 7571.077
509.1112, 7572.137
509.5934, 7584.888
510.0755, 7604.104
510.5576, 7612.231
511.0397, 7609.584
511.5218, 7612.238
512.0039, 7638.243
512.4860, 7676.166
512.9681, 7703.842
513.4503, 7716.306
513.9324, 7725.947
514.4145, 7749.317
514.8966, 7776.784
515.3787, 7790.961
515.8608, 7768.616
516.3430, 7745.103
516.8251, 7740.661
517.3072, 7755.087
517.7893, 7770.539
518.2714, 7775.875
518.7535, 7784.972
519.2357, 7807.046
519.7178, 7871.658
520.1999, 7909.402
520.6820, 7906.253
521.1641, 7880.509
521.6462, 7864.640
522.1284, 7854.291
522.6105, 7864.201
523.0926, 7908.431
523.5747, 7984.401
524.0568, 8029.358
524.5389, 8038.322
525.0211, 8034.025
525.5032, 8034.800
525.9853, 8040.078
526.4674, 8045.960
526.9495, 8050.668
527.4316, 8057.526
527.9138, 8075.632
528.3959, 8101.069
528.8780, 8120.594
529.3601, 8118.871
529.8422, 8112.447
530.3243, 8119.314
530.8065, 8141.130
531.2886, 8161.415
531.7707, 8165.482
532.2528, 8166.735
532.7349, 8177.938
533.2170, 8221.205
533.6992, 8253.189
534.1813, 8257.505
534.6634, 8243.007
535.1455, 8238.891
535.6276, 8250.833
536.1097, 8267.819
536.5919, 8289.509
537.0740, 8318.839
537.5561, 8329.747
538.0382, 8313.916
538.5203, 8294.773
539.0024, 8302.357
539.4846, 8339.084
539.9667, 8356.789
540.4488, 8338.661
540.9309, 8306.056
541.4130, 8305.343
541.8951, 8333.388
542.3773, 8363.471
542.8594, 8381.800
543.3415, 8391.380
543.8236, 8391.875
544.3057, 8382.104
544.7878, 8381.178
545.2700, 8410.644
545.7521, 8453.309
546.2342, 8489.643
546.7163, 8512.545
547.1984, 8528.605
547.6805, 8538.003
548.1627, 8541.783
548.6448, 8543.990
549.1269, 8542.723
549.6090, 8542.304
550.0911, 8545.107
550.5732, 8552.877
551.0554, 8555.455
551.5375, 8549.933
552.0196, 8543.021
552.5017, 8542.257
552.9838, 8548.979
553.4659, 8553.462
553.9481, 8553.082
554.4302, 8550.709
554.9123, 8556.360
555.3944, 8569.302
555.8765, 8574.574
556.3586, 8555.108
556.8408, 8524.913
557.3229, 8507.397
557.8050, 8503.672
558.2871, 8511.694
558.7692, 8547.240
559.2513, 8587.912
559.7335, 8603.672
560.2156, 8565.628
560.6977, 8528.737
561.1798, 8518.305
561.6619, 8525.665
562.1440, 8527.573
562.6262, 8510.946
563.1083, 8496.384
563.5904, 8491.561
564.0725, 8497.726
564.5546, 8503.839
565.0367, 8515.322
565.5189, 8519.319
566.0010, 8498.481
566.4831, 8444.796
566.9652, 8414.000
567.4473, 8418.291
567.9294, 8440.122
568.4116, 8446.439
568.8937, 8438.297
569.3758, 8428.263
569.8579, 8424.982
570.3400, 8423.058
570.8221, 8410.945
571.3043, 8389.343
571.7864, 8368.726
572.2685, 8359.693
572.7506, 8354.476
573.2327, 8345.409
573.7148, 8331.145
574.1970, 8312.162
574.6791, 8283.095
575.1612, 8249.985
575.6433, 8224.544
576.1254, 8203.766
576.6075, 8195.505
577.0897, 8205.497
577.5718, 8232.857
578.0539, 8253.735
578.5360, 8270.286
579.0181, 8276.202
579.5002, 8263.109
579.9824, 8229.268
580.4645, 8203.743
580.9466, 8189.100
581.4287, 8179.674
581.9108, 8168.894
582.3929, 8156.764
582.8751, 8143.027
583.3572, 8126.231
583.8393, 8109.039
584.3214, 8096.638
584.8035, 8087.452
585.2856, 8074.424
585.7678, 8050.939
586.2499, 8023.590
586.7320, 7996.321
587.2141, 7969.349
587.6962, 7944.763
588.1783, 7917.000
588.6605, 7894.854
589.1426, 7888.481
589.6247, 7917.854
590.1068, 7932.778
590.5889, 7925.811
591.0710, 7902.068
591.5532, 7874.513
592.0353, 7841.218
592.5174, 7811.710
592.9995, 7793.302
593.4816, 7783.580
593.9637, 7760.839
594.4459, 7723.313
594.9280, 7690.815
595.4101, 7687.943
595.8922, 7702.173
596.3743, 7707.866
596.8564, 7697.180
597.3386, 7683.125
597.8207, 7682.731
598.3028, 7685.890
598.7849, 7673.863
599.2670, 7613.044
599.7491, 7561.663
600.2313, 7550.545
600.7134, 7578.371
601.1955, 7589.257
601.6776, 7561.288
602.1597, 7532.926
602.6418, 7525.911
603.1240, 7552.746
603.6061, 7553.960
604.0882, 7518.559
604.5703, 7475.659
605.0524, 7465.043
605.5345, 7486.086
606.0167, 7506.440
606.4988, 7521.829
606.9809, 7527.533
607.4630, 7509.689
607.9451, 7473.016
608.4272, 7438.313
608.9094, 7422.679
609.3915, 7412.118
609.8736, 7391.292
610.3557, 7358.818
610.8378, 7332.632
611.3199, 7313.061
611.8021, 7307.096
612.2842, 7320.845
612.7663, 7388.220
613.2484, 7427.921
613.7305, 7421.756
614.2126, 7392.337
614.6948, 7379.673
615.1769, 7390.781
615.6590, 7398.019
616.1411, 7392.670
616.6232, 7377.612
617.1053, 7368.310
617.5875, 7365.238
618.0696, 7358.231
618.5517, 7328.702
619.0338, 7292.158
619.5159, 7290.562
619.9980, 7331.013
620.4802, 7368.456
620.9623, 7367.614
621.4444, 7342.482
621.9265, 7310.430
622.4086, 7266.308
622.8907, 7230.284
623.3729, 7213.921
623.8550, 7210.771
624.3371, 7204.290
624.8192, 7181.072
625.3013, 7168.514
625.7834, 7179.367
626.2656, 7212.377
626.7477, 7224.766
627.2298, 7211.361
627.7119, 7190.993
628.1940, 7174.244
628.6761, 7161.283
629.1583, 7158.411
629.6404, 7168.683
630.1225, 7176.756
630.6046, 7154.271
631.0867, 7117.227
631.5688, 7101.773
632.0510, 7135.707
632.5331, 7176.098
633.0152, 7195.240
633.4973, 7197.291
633.9794, 7193.757
634.4615, 7190.489
634.9437, 7180.930
635.4258, 7159.973
635.9079, 7125.899
636.3900, 7097.276
636.8721, 7076.809
637.3542, 7057.925
637.8364, 7031.709
638.3185, 6993.522
638.8006, 6983.878
639.2827, 7010.344
639.7648, 7051.756
640.2469, 7085.202
640.7291, 7110.038
641.2112, 7122.299
641.6933, 7117.279
642.1754, 7103.452
642.6575, 7085.316
643.1396, 7065.523
643.6218, 7053.226
644.1039, 7058.436
644.5860, 7067.612
645.0681, 7075.952
645.5502, 7083.430
646.0323, 7081.499
646.5145, 7054.139
646.9966, 7028.882
647.4787, 7023.765
647.9608, 7053.089
648.4429, 7060.819
648.9250, 7036.953
649.4072, 7005.812
649.8893, 7007.122
650.3714, 7039.023
650.8535, 7056.092
651.3356, 7042.549
651.8177, 7013.512
652.2999, 6989.110
652.7820, 6969.158
653.2641, 6954.215
653.7462, 6945.072
654.2283, 6940.404
654.7104, 6940.940
655.1926, 6946.565
655.6747, 6950.603
656.1568, 6960.142
656.6389, 6960.739
657.1210, 6939.246
657.6031, 6874.424
658.0853, 6843.636
658.5674, 6862.413
659.0495, 6896.779
659.5316, 6904.757
660.0137, 6884.065
660.4958, 6862.684
660.9779, 6844.402
661.4600, 6830.799
661.9421, 6828.371
662.4243, 6834.106
662.9064, 6835.284
663.3885, 6816.067
663.8706, 6795.923
664.3527, 6793.548
664.8348, 6807.824
665.3170, 6826.028
665.7991, 6859.399
666.2812, 6882.404
666.7633, 6876.263
667.2454, 6822.980
667.7275, 6788.201
668.2097, 6776.748
668.6918, 6779.038
669.1739, 6793.901
669.6560, 6828.396
670.1381, 6825.864
670.6202, 6768.997
671.1024, 6693.421
671.5845, 6656.542
672.0666, 6653.949
672.5487, 6664.341
673.0308, 6691.821
673.5129, 6716.923
673.9951, 6712.335
674.4772, 6685.446
674.9593, 6665.568
675.4414, 6679.969
675.9235, 6693.274
676.4056, 6684.991
676.8878, 6650.561
677.3699, 6617.036
677.8520, 6578.676
678.3341, 6548.595
678.8162, 6538.808
679.2983, 6555.549
679.7805, 6562.488
680.2626, 6558.354
680.7447, 6543.925
681.2268, 6516.649
681.7089, 6478.776
682.1910, 6440.230
682.6732, 6397.713
683.1553, 6365.300
683.6374, 6366.980
684.1195, 6390.513
684.6016, 6406.203
685.0837, 6399.719
685.5659, 6383.704
686.0480, 6358.286
686.5301, 6324.954
687.0122, 6302.428
687.4943, 6304.293
687.9764, 6301.646
688.4586, 6280.328
688.9407, 6238.297
689.4228, 6200.257
689.9049, 6165.803
690.3870, 6135.890
690.8691, 6108.626
691.3513, 6085.938
691.8334, 6082.288
692.3155, 6106.327
692.7976, 6122.718
693.2797, 6082.506
693.7618, 6015.423
694.2440, 5968.556
694.7261, 5975.450
695.2082, 5986.638
695.6903, 5985.233
696.1724, 5975.424
696.6545, 5970.326
697.1367, 5981.689
697.6188, 5980.377
698.1009, 5954.404
698.5830, 5907.803
699.0651, 5872.530
699.5472, 5849.829
700.0294, 5829.738
700.5115, 5802.929
700.9936, 5774.168
701.4757, 5757.985
701.9578, 5755.227
702.4399, 5755.010
702.9221, 5752.056
703.4042, 5745.750
703.8863, 5735.395
704.3684, 5720.763
704.8505, 5702.280
705.3326, 5674.924
705.8148, 5645.961
706.2969, 5624.449
706.7790, 5615.364
707.2611, 5603.492
707.7432, 5584.576
708.2253, 5564.277
708.7075, 5558.464
709.1896, 5567.236
709.6717, 5570.711
710.1538, 5560.909
710.6359, 5541.257
711.1180, 5516.147
711.6002, 5486.262
712.0823, 5455.385
712.5644, 5416.755
713.0465, 5384.812
713.5286, 5370.909
714.0107, 5376.716
714.4929, 5384.988
714.9750, 5402.103
715.4571, 5412.079
715.9392, 5404.878
716.4213, 5374.240
716.9034, 5349.553
717.3856, 5332.957
717.8677, 5316.574
718.3498, 5285.975
718.8319, 5245.459
719.3140, 5221.471
719.7961, 5222.111
720.2783, 5231.195
720.7604, 5233.983
721.2425, 5232.593
721.7246, 5230.693
722.2067, 5234.370
722.6888, 5233.036
723.1710, 5221.592
723.6531, 5202.014
724.1352, 5180.404
724.6173, 5150.302
725.0994, 5128.455
725.5815, 5120.338
726.0637, 5124.402
726.5458, 5134.063
727.0279, 5150.415
727.5100, 5159.567
727.9921, 5148.532
728.4742, 5124.942
728.9564, 5103.831
729.4385, 5085.868
729.9206, 5073.262
730.4027, 5076.435
730.8848, 5080.557
731.3669, 5070.839
731.8491, 5038.084
732.3312, 5012.846
732.8133, 5003.051
733.2954, 5001.870
733.7775, 5007.587
734.2596, 5028.752
734.7418, 5025.691
735.2239, 4988.500
735.7060, 4938.586
736.1881, 4908.065
736.6702, 4894.776
737.1523, 4885.952
737.6345, 4874.866
738.1166, 4870.896
738.5987, 4898.548
739.0808, 4941.025
739.5629, 4958.601
740.0450, 4908.235
740.5272, 4857.329
741.0093, 4834.215
741.4914, 4836.048
741.9735, 4831.024
742.4556, 4814.720
742.9377, 4799.342
743.4199, 4789.870
743.9020, 4785.676
744.3841, 4778.714
744.8662, 4768.466
745.3483, 4764.062
745.8304, 4782.177
746.3126, 4807.203
746.7947, 4811.160
747.2768, 4790.633
747.7589, 4768.519
748.2410, 4751.569
748.7231, 4742.687
749.2053, 4746.004
749.6874, 4774.314
750.1695, 4789.022
750.6516, 4778.068
751.1337, 4763.576
751.6158, 4776.244
752.0980, 4823.066
752.5801, 4835.943
753.0622, 4797.814
753.5443, 4741.054
754.0264, 4711.979
754.5085, 4704.555
754.9907, 4701.958
755.4728, 4703.558
755.9549, 4700.933
756.4370, 4680.198
756.9191, 4650.642
757.4012, 4635.243
757.8834, 4651.086
758.3655, 4668.994
758.8476, 4686.228
759.3297, 4700.487
759.8118, 4697.113
760.2939, 4671.231
760.7761, 4647.649
761.2582, 4638.508
761.7403, 4640.360
762.2224, 4643.164
762.7045, 4647.028
763.1866, 4652.812
763.6688, 4665.618
764.1509, 4677.595
764.6330, 4681.273
765.1151, 4675.725
765.5972, 4666.618
766.0793, 4651.827
766.5615, 4636.882
767.0436, 4624.927
767.5257, 4616.766
768.0078, 4607.034
768.4899, 4592.458
768.9720, 4584.204
769.4542, 4601.596
769.9363, 4637.021
770.4184, 4651.543
770.9005, 4637.494
771.3826, 4614.770
771.8647, 4591.174
772.3469, 4574.559
772.8290, 4577.278
773.3111, 4621.800
773.7932, 4656.021
774.2753, 4661.133
774.7574, 4649.943
775.2396, 4640.644
775.7217, 4632.467
776.2038, 4628.189
776.6859, 4628.935
777.1680, 4632.953
777.6501, 4639.777
778.1323, 4648.038
778.6144, 4648.038
779.0965, 4631.959
779.5786, 4609.945
780.0607, 4588.776
780.5428, 4570.199
781.0250, 4559.861
781.5071, 4563.834
781.9892, 4572.314
782.4713, 4589.742
782.9534, 4611.377
783.4355, 4606.745
783.9177, 4564.110
784.3998, 4524.490
784.8819, 4507.119
785.3640, 4507.137
785.8461, 4501.119
786.3282, 4489.679
786.8104, 4484.804
787.2925, 4500.883
787.7746, 4524.031
788.2567, 4541.267
788.7388, 4551.422
789.2209, 4557.259
789.7031, 4558.632
790.1852, 4556.771
790.6673, 4551.983
791.1494, 4543.568
791.6315, 4536.370
792.1136, 4530.292
792.5958, 4526.182
793.0779, 4530.032
793.5600, 4537.941
794.0421, 4523.118
794.5242, 4479.383
795.0063, 4445.292
795.4885, 4469.497
795.9706, 4516.228
796.4527, 4543.042
796.9348, 4532.069
797.4169, 4522.182
797.8990, 4520.437
798.3812, 4525.480
798.8633, 4539.214
799.3454, 4569.212
799.8275, 4578.795
800.3096, 4560.057
800.7917, 4530.517
801.2739, 4514.873
801.7560, 4510.350
802.2381, 4506.647
802.7202, 4501.375
803.2023, 4495.495
803.6844, 4486.408
804.1666, 4478.103
804.6487, 4476.824
805.1308, 4501.716
805.6129, 4511.483
806.0950, 4488.944
806.5771, 4452.344
807.0593, 4443.378
807.5414, 4467.909
808.0235, 4482.521
808.5056, 4471.371
808.9877, 4448.818
809.4698, 4441.027
809.9520, 4445.432
810.4341, 4453.277
810.9162, 4471.969
811.3983, 4481.710
811.8804, 4459.343
812.3625, 4415.564
812.8447, 4392.266
813.3268, 4407.460
813.8089, 4428.842
814.2910, 4452.625
814.7731, 4476.083
815.2552, 4486.510
815.7374, 4483.607
816.2195, 4472.946
816.7016, 4450.912
817.1837, 4426.193
817.6658, 4411.797
818.1479, 4407.784
818.6301, 4412.799
819.1122, 4435.128
819.5943, 4458.584
820.0764, 4475.680
820.5585, 4485.800
821.0406, 4488.465
821.5228, 4480.366
822.0049, 4470.844
822.4870, 4465.137
822.9691, 4462.168
823.4512, 4450.673
823.9333, 4430.680
824.4155, 4417.510
824.8976, 4433.588
825.3796, 4455.674
825.8618, 4449.745
826.3439, 4413.437
826.8260, 4394.448
827.3081, 4432.879
827.7902, 4472.676
828.2723, 4480.789
828.7545, 4451.406
829.2366, 4438.139
829.7187, 4445.407
830.2008, 4454.732
830.6829, 4454.102
831.1650, 4444.094
831.6472, 4421.144
832.1293, 4384.933
832.6114, 4356.568
833.0935, 4354.838
833.5756, 4366.076
834.0577, 4379.457
834.5399, 4393.628
835.0220, 4409.812
835.5041, 4435.348
835.9862, 4455.054
836.4683, 4455.233
836.9504, 4433.993
837.4326, 4423.061
837.9147, 4424.911
838.3968, 4428.306
838.8789, 4422.232
839.3610, 4410.515
839.8431, 4395.195
840.3253, 4373.290
840.8074, 4367.662
841.2895, 4409.552
841.7716, 4459.304
842.2537, 4482.959
842.7358, 4472.417
843.2180, 4453.099
843.7001, 4419.101
844.1822, 4387.694
844.6643, 4383.026
845.1464, 4398.402
845.6285, 4394.107
846.1107, 4361.208
846.5928, 4337.154
847.0749, 4369.874
847.5570, 4421.912
848.0391, 4448.986
848.5212, 4427.678
849.0034, 4415.539
849.4855, 4426.859
849.9676, 4443.813
850.4497, 4451.974
850.9318, 4451.442
851.4139, 4438.333
851.8961, 4409.265
852.3782, 4379.788
852.8603, 4361.971
853.3424, 4357.574
853.8245, 4375.613
854.3066, 4429.174
854.7888, 4468.324
855.2709, 4460.129
855.7530, 4430.565
856.2351, 4405.953
856.7172, 4385.274
857.1993, 4375.119
857.6815, 4376.765
858.1636, 4387.016
858.6457, 4411.885
859.1278, 4444.552
859.6099, 4447.932
860.0920, 4410.346
860.5742, 4370.462
861.0563, 4358.673
861.5384, 4363.686
862.0205, 4373.184
862.5026, 4390.060
862.9847, 4401.181
863.4669, 4406.587
863.9490, 4405.211
864.4311, 4390.435
864.9132, 4360.220
865.3953, 4354.074
865.8774, 4380.060
866.3596, 4412.581
866.8417, 4427.178
867.3238, 4427.613
867.8059, 4418.317
868.2880, 4395.706
868.7701, 4377.093
869.2523, 4370.955
869.7344, 4370.883
870.2165, 4370.083
870.6986, 4367.413
871.1807, 4367.189
871.6628, 4369.209
872.1450, 4374.781
872.6271, 4389.007
873.1092, 4408.084
873.5913, 4420.995
874.0734, 4425.923
874.5555, 4424.461
875.0377, 4406.286
875.5198, 4388.410
876.0019, 4389.211
876.4840, 4434.321
876.9661, 4449.778
877.4482, 4422.002
877.9304, 4383.995
878.4125, 4366.922
878.8946, 4369.410
879.3767, 4375.936
879.8588, 4385.644
880.3409, 4395.059
880.8231, 4400.934
881.3052, 4404.868
881.7873, 4410.369
882.2694, 4421.950
882.7515, 4421.370
883.2336, 4387.617
883.7158, 4356.775
884.1979, 4356.880
884.6800, 4393.276
885.1621, 4418.074
885.6442, 4430.035
886.1263, 4432.487
886.6085, 4423.068
887.0906, 4408.374
887.5727, 4399.515
888.0548, 4398.438
888.5369, 4395.814
889.0190, 4383.040
889.5012, 4370.825
889.9833, 4366.227
890.4654, 4370.063
890.9475, 4377.936
891.4296, 4391.291
891.9117, 4403.593
892.3939, 4409.414
892.8760, 4410.293
893.3581, 4412.866
893.8402, 4417.273
894.3223, 4411.577
894.8044, 4370.445
895.2866, 4330.984
895.7687, 4320.363
896.2508, 4344.915
896.7329, 4367.683
897.2150, 4393.328
897.6971, 4407.623
898.1793, 4392.737
898.6614, 4358.380
899.1435, 4357.667
899.6256, 4388.229
900.1077, 4418.282
900.5898, 4428.325
901.0720, 4427.471
901.5541, 4419.400
902.0362, 4404.827
902.5183, 4393.774
903.0004, 4387.556
903.4825, 4384.293
903.9647, 4384.449
904.4468, 4386.940
904.9289, 4383.878
905.4110, 4375.765
905.8931, 4372.934
906.3752, 4384.614
906.8574, 4401.785
907.3395, 4418.179
907.8216, 4432.977
908.3037, 4443.017
908.7858, 4450.479
909.2679, 4448.468
909.7501, 4430.933
910.2322, 4404.165
910.7143, 4390.442
911.1964, 4389.935
911.6785, 4393.110
912.1606, 4399.024
912.6428, 4403.591
913.1249, 4399.538
913.6070, 4390.063
914.0891, 4382.414
914.5712, 4379.127
915.0533, 4378.288
915.5355, 4380.574
916.0176, 4384.403
916.4997, 4386.169
916.9818, 4385.319
917.4639, 4387.629
917.9460, 4395.091
918.4282, 4404.311
918.9103, 4412.673
919.3924, 4418.917
919.8745, 4420.488
920.3566, 4413.386
920.8387, 4406.335
921.3209, 4398.173
921.8030, 4393.593
922.2851, 4399.227
922.7672, 4417.904
923.2493, 4431.502
923.7314, 4436.286
924.2136, 4443.438
924.6957, 4477.750
925.1778, 4520.896
925.6599, 4535.294
926.1420, 4506.840
926.6241, 4478.789
927.1063, 4473.983
927.5884, 4474.231
928.0705, 4463.064
928.5526, 4434.422
929.0347, 4420.308
929.5168, 4422.455
929.9990, 4432.143
930.4811, 4452.301
930.9632, 4471.592
931.4453, 4459.043
931.9274, 4412.896
932.4095, 4377.574
932.8917, 4384.865
933.3738, 4402.322
933.8559, 4409.038
934.3380, 4404.291
934.8201, 4415.351
935.3022, 4448.762
935.7844, 4472.042
936.2665, 4458.131
936.7486, 4423.806
937.2307, 4411.575
937.7128, 4416.674
938.1949, 4415.387
938.6771, 4385.539
939.1592, 4355.728
939.6413, 4333.908
940.1234, 4323.453
940.6055, 4343.709
941.0876, 4408.111
941.5698, 4451.927
942.0519, 4450.706
942.5340, 4423.838
943.0161, 4403.906
943.4982, 4390.397
943.9803, 4381.900
944.4625, 4377.783
944.9446, 4378.933
945.4267, 4393.464
945.9088, 4410.887
946.3909, 4411.456
946.8730, 4387.100
947.3552, 4375.915
947.8373, 4386.404
948.3194, 4401.548
948.8015, 4392.903
949.2836, 4371.932
949.7657, 4365.317
950.2479, 4383.497
950.7300, 4401.311
951.2121, 4406.002
951.6942, 4406.199
952.1763, 4411.265
952.6584, 4426.915
953.1406, 4422.822
953.6227, 4393.103
954.1048, 4368.275
954.5869, 4390.053
955.0690, 4431.185
955.5511, 4433.205
956.0333, 4392.493
956.5154, 4361.042
956.9975, 4370.310
957.4796, 4390.247
957.9617, 4408.874
958.4438, 4425.138
958.9260, 4421.447
959.4081, 4393.288
959.8902, 4374.511
960.3723, 4392.888
960.8544, 4425.902
961.3365, 4432.119
961.8187, 4418.535
962.3008, 4409.845
962.7829, 4421.717
963.2650, 4434.579
963.7471, 4444.877
964.2292, 4450.857
964.7114, 4443.582
965.1935, 4419.690
965.6756, 4416.545
966.1577, 4452.251
966.6398, 4491.605
967.1219, 4479.519
967.6041, 4440.780
968.0862, 4418.698
968.5683, 4441.136
969.0504, 4455.590
969.5325, 4446.048
970.0146, 4428.690
970.4968, 4416.832
970.9789, 4410.559
971.4610, 4411.723
971.9431, 4421.050
972.4252, 4433.142
972.9073, 4450.258
973.3895, 4463.068
973.8716, 4457.021
974.3537, 4427.389
974.8358, 4406.886
975.3179, 4399.510
975.8000, 4404.997
976.2822, 4429.548
976.7643, 4469.287
977.2464, 4484.010
977.7285, 4475.094
978.2106, 4463.275
978.6927, 4457.859
979.1749, 4457.612
979.6570, 4466.935
980.1391, 4481.616
980.6212, 4484.384
981.1033, 4464.530
981.5854, 4447.348
982.0676, 4436.860
982.5497, 4432.709
983.0318, 4438.098
983.5139, 4450.093
983.9960, 4454.014
984.4781, 4439.425
984.9603, 4429.283
985.4424, 4445.785
985.9245, 4472.882
986.4066, 4490.142
986.8887, 4492.846
987.3708, 4492.876
987.8530, 4489.382
988.3351, 4485.606
988.8172, 4486.441
989.2993, 4489.208
989.7814, 4487.073
990.2635, 4479.434
990.7456, 4468.394
991.2277, 4450.552
991.7098, 4433.658
992.1920, 4419.500
992.6741, 4408.445
993.1562, 4415.904
993.6383, 4445.504
994.1204, 4473.016
994.6025, 4489.016
995.0847, 4493.890
995.5668, 4479.560
996.0489, 4454.139
996.5310, 4440.518
997.0131, 4461.757
997.4952, 4478.463
997.9774, 4478.693
998.4595, 4470.440
998.9416, 4465.959
999.4237, 4465.339
999.9058, 4469.774
1000.388, 4480.611
1000.870, 4492.416
1001.352, 4503.977
1001.834, 4511.114
1002.316, 4507.929
1002.799, 4488.973
1003.281, 4470.504
1003.763, 4447.431
1004.245, 4434.241
1004.727, 4449.402
1005.209, 4486.305
1005.691, 4492.750
1006.173, 4470.121
1006.655, 4451.758
1007.138, 4468.377
1007.620, 4488.819
1008.102, 4491.079
1008.584, 4477.116
1009.066, 4470.003
1009.548, 4473.730
1010.030, 4473.658
1010.512, 4465.003
1010.995, 4451.645
1011.477, 4436.653
1011.959, 4422.990
1012.441, 4418.812
1012.923, 4432.533
1013.405, 4446.667
1013.887, 4454.506
1014.369, 4460.042
1014.851, 4467.948
1015.334, 4479.020
1015.816, 4485.129
1016.298, 4485.231
1016.780, 4485.199
1017.262, 4495.114
1017.744, 4505.087
1018.226, 4498.988
1018.708, 4475.284
1019.190, 4463.671
1019.673, 4478.134
1020.155, 4494.323
1020.637, 4504.510
1021.119, 4509.595
1021.601, 4512.890
1022.083, 4514.245
1022.565, 4512.476
1023.047, 4501.470
1023.530, 4493.867
1024.012, 4503.043
1024.494, 4520.058
1024.976, 4527.140
1025.458, 4516.502
1025.940, 4517.547
1026.422, 4537.473
1026.904, 4556.482
1027.386, 4540.788
1027.869, 4508.775
1028.351, 4503.967
1028.833, 4535.403
1029.315, 4557.927
1029.797, 4544.050
1030.279, 4523.153
1030.761, 4507.946
1031.243, 4498.799
1031.726, 4507.620
1032.208, 4534.721
1032.690, 4553.347
1033.172, 4538.743
1033.654, 4516.605
1034.136, 4513.785
1034.618, 4523.717
1035.100, 4529.797
1035.583, 4522.638
1036.065, 4522.264
1036.547, 4534.771
1037.029, 4548.431
1037.511, 4543.126
1037.993, 4524.153
1038.475, 4509.606
1038.957, 4502.428
1039.439, 4500.124
1039.922, 4503.348
1040.404, 4509.234
1040.886, 4518.353
1041.368, 4531.352
1041.850, 4526.473
1042.332, 4500.819
1042.814, 4479.068
1043.296, 4472.958
1043.778, 4481.462
1044.261, 4515.472
1044.743, 4563.642
1045.225, 4592.370
1045.707, 4581.176
1046.189, 4560.904
1046.671, 4529.444
1047.153, 4499.458
1047.635, 4496.210
1048.118, 4514.953
1048.600, 4530.909
1049.082, 4540.880
1049.564, 4541.667
1050.046, 4512.837
1050.528, 4486.619
1051.010, 4498.256
1051.492, 4553.188
1051.974, 4583.785
1052.457, 4585.743
1052.939, 4581.598
1053.421, 4579.050
1053.903, 4582.032
1054.385, 4608.942
1054.867, 4648.181
1055.349, 4664.310
1055.831, 4614.889
1056.313, 4580.657
1056.796, 4584.791
1057.278, 4603.085
1057.760, 4594.747
1058.242, 4563.716
1058.724, 4542.661
1059.206, 4537.427
1059.688, 4539.770
1060.170, 4549.113
1060.653, 4559.213
1061.135, 4563.068
1061.617, 4559.155
1062.099, 4564.701
1062.581, 4583.150
1063.063, 4595.451
1063.545, 4589.012
1064.027, 4571.926
1064.510, 4556.913
1064.992, 4543.468
1065.474, 4530.435
1065.956, 4504.879
1066.438, 4498.414
1066.920, 4524.950
1067.402, 4561.475
1067.884, 4576.474
1068.366, 4572.328
1068.849, 4564.165
1069.331, 4553.208
1069.813, 4547.858
1070.295, 4557.034
1070.777, 4572.184
1071.259, 4590.957
1071.741, 4612.660
1072.223, 4614.698
1072.705, 4591.392
1073.188, 4577.407
1073.670, 4595.264
1074.152, 4623.046
1074.634, 4627.862
1075.116, 4615.911
1075.598, 4600.143
1076.080, 4567.623
1076.562, 4557.490
1077.044, 4583.553
1077.527, 4617.689
1078.009, 4628.838
1078.491, 4621.349
1078.973, 4619.138
1079.455, 4623.910
1079.937, 4626.888
1080.419, 4620.744
1080.901, 4612.536
1081.384, 4604.318
1081.866, 4597.462
1082.348, 4599.744
1082.830, 4612.417
1083.312, 4624.414
1083.794, 4632.167
1084.276, 4637.956
1084.758, 4648.408
1085.240, 4657.430
1085.723, 4655.063
1086.205, 4631.129
1086.687, 4610.100
1087.169, 4590.068
1087.651, 4578.179
1088.133, 4586.984
1088.615, 4607.579
1089.097, 4607.998
1089.579, 4590.798
1090.062, 4580.612
1090.544, 4591.178
1091.026, 4610.765
1091.508, 4644.232
1091.990, 4678.995
1092.472, 4684.334
1092.954, 4660.793
1093.436, 4637.012
1093.919, 4618.825
1094.401, 4603.215
1094.883, 4582.341
1095.365, 4565.814
1095.847, 4565.632
1096.329, 4586.090
1096.811, 4605.602
1097.293, 4626.024
1097.776, 4637.678
1098.258, 4625.544
1098.740, 4607.465
1099.222, 4624.994
1099.704, 4664.232
1100.186, 4687.330
1100.668, 4665.110
1101.150, 4647.265
1101.632, 4644.616
1102.115, 4644.173
1102.597, 4620.410
1103.079, 4582.291
1103.561, 4582.548
1104.043, 4627.170
1104.525, 4664.112
1105.007, 4648.704
1105.489, 4627.063
1105.971, 4629.601
1106.454, 4650.930
1106.936, 4659.878
1107.418, 4656.111
1107.900, 4651.790
1108.382, 4651.322
1108.864, 4651.789
1109.346, 4648.553
1109.828, 4645.083
1110.311, 4647.951
1110.793, 4670.542
1111.275, 4661.598
1111.757, 4607.117
1112.239, 4563.998
1112.721, 4593.526
1113.203, 4656.819
1113.685, 4675.256
1114.167, 4655.225
1114.650, 4636.350
1115.132, 4637.158
1115.614, 4634.656
1116.096, 4618.823
1116.578, 4602.916
1117.060, 4613.763
1117.542, 4645.535
1118.024, 4673.295
1118.506, 4694.198
1118.989, 4702.393
1119.471, 4682.024
1119.953, 4658.776
1120.435, 4650.661
1120.917, 4656.069
1121.399, 4653.068
1121.881, 4641.646
1122.363, 4632.904
1122.846, 4632.430
1123.328, 4635.847
1123.810, 4637.548
1124.292, 4641.063
1124.774, 4654.137
1125.256, 4689.357
1125.738, 4698.910
1126.220, 4677.278
1126.703, 4650.103
1127.185, 4637.481
1127.667, 4634.340
1128.149, 4635.199
1128.631, 4638.990
1129.113, 4641.453
1129.595, 4636.285
1130.077, 4638.841
1130.559, 4657.050
1131.042, 4676.704
1131.524, 4667.796
1132.006, 4639.990
1132.488, 4621.247
1132.970, 4616.802
1133.452, 4619.872
1133.934, 4640.676
1134.416, 4654.204
1134.898, 4642.885
1135.381, 4612.550
1135.863, 4606.259
1136.345, 4621.018
1136.827, 4630.337
1137.309, 4614.652
1137.791, 4600.584
1138.273, 4603.317
1138.755, 4618.388
1139.238, 4642.321
1139.720, 4681.513
1140.202, 4690.981
1140.684, 4667.521
1141.166, 4642.443
1141.648, 4644.086
1142.130, 4652.919
1142.612, 4648.196
1143.094, 4633.020
1143.577, 4628.229
1144.059, 4638.875
1144.541, 4646.322
1145.023, 4645.348
1145.505, 4644.800
1145.987, 4660.840
1146.469, 4683.147
1146.951, 4697.718
1147.433, 4702.370
1147.916, 4694.464
1148.398, 4663.240
1148.880, 4640.507
1149.362, 4642.024
1149.844, 4658.930
1150.326, 4671.354
1150.808, 4679.665
1151.290, 4685.416
1151.773, 4692.754
1152.255, 4690.796
1152.737, 4667.375
1153.219, 4644.119
1153.701, 4639.381
1154.183, 4651.188
1154.665, 4664.827
1155.147, 4678.968
1155.630, 4683.551
1156.112, 4661.981
1156.594, 4640.954
1157.076, 4632.772
1157.558, 4633.934
1158.040, 4643.166
1158.522, 4660.384
1159.004, 4665.056
1159.486, 4653.391
1159.969, 4640.573
1160.451, 4636.717
1160.933, 4638.741
1161.415, 4647.607
1161.897, 4661.458
1162.379, 4666.355
1162.861, 4661.306
1163.343, 4656.728
1163.825, 4657.973
1164.308, 4656.117
1164.790, 4629.156
1165.272, 4598.692
1165.754, 4595.660
1166.236, 4633.587
1166.718, 4662.252
1167.200, 4680.887
1167.682, 4692.031
1168.165, 4691.172
1168.647, 4687.984
1169.129, 4705.496
1169.611, 4732.213
1170.093, 4740.304
1170.575, 4702.330
1171.057, 4677.922
1171.539, 4671.090
1172.021, 4675.665
1172.504, 4695.166
1172.986, 4717.848
1173.468, 4716.662
1173.950, 4692.846
1174.432, 4669.641
1174.914, 4649.158
1175.396, 4638.596
1175.878, 4641.267
1176.360, 4651.746
1176.843, 4664.248
1177.325, 4676.256
1177.807, 4679.976
1178.289, 4673.031
1178.771, 4665.646
1179.253, 4661.613
1179.735, 4658.830
1180.217, 4656.891
1180.700, 4655.331
1181.182, 4651.346
1181.664, 4645.938
1182.146, 4643.282
1182.628, 4644.377
1183.110, 4649.486
1183.592, 4666.100
1184.074, 4680.388
1184.557, 4681.458
1185.039, 4669.759
1185.521, 4652.782
1186.003, 4632.371
1186.485, 4625.964
1186.967, 4660.130
1187.449, 4693.130
1187.931, 4702.191
1188.413, 4697.200
1188.896, 4690.414
1189.378, 4681.539
1189.860, 4675.322
1190.342, 4672.027
1190.824, 4670.892
1191.306, 4668.768
1191.788, 4670.801
1192.270, 4689.628
1192.752, 4714.704
1193.235, 4706.519
1193.717, 4660.143
1194.199, 4646.706
1194.681, 4685.421
1195.163, 4727.404
1195.645, 4726.275
1196.127, 4707.688
1196.609, 4691.554
1197.092, 4679.862
1197.574, 4679.203
1198.056, 4692.112
1198.538, 4694.109
1199.020, 4672.225
1199.502, 4645.996
1199.984, 4623.583
1200.466, 4616.627
1200.948, 4649.528
1201.431, 4740.952
1201.913, 4778.917
1202.395, 4755.543
1202.877, 4724.611
1203.359, 4717.776
1203.841, 4719.073
1204.323, 4706.906
1204.805, 4689.196
1205.287, 4683.511
1205.770, 4701.783
1206.252, 4705.405
1206.734, 4691.547
1207.216, 4671.841
1207.698, 4644.243
1208.180, 4624.859
1208.662, 4642.886
1209.144, 4689.355
1209.627, 4723.258
1210.109, 4734.138
1210.591, 4752.713
1211.073, 4788.849
1211.555, 4812.604
1212.037, 4773.727
1212.519, 4710.792
1213.001, 4678.526
1213.484, 4680.108
1213.966, 4672.936
1214.448, 4644.905
1214.930, 4628.687
1215.412, 4633.525
1215.894, 4650.950
1216.376, 4676.039
1216.858, 4701.435
1217.340, 4715.787
1217.823, 4715.746
1218.305, 4713.129
1218.787, 4709.126
1219.269, 4702.073
1219.751, 4687.803
1220.233, 4674.908
1220.715, 4687.495
1221.197, 4710.018
1221.679, 4712.445
1222.162, 4672.186
1222.644, 4652.164
1223.126, 4658.518
1223.608, 4676.041
1224.090, 4703.610
1224.572, 4730.069
1225.054, 4732.050
1225.536, 4716.080
1226.019, 4697.552
1226.501, 4669.144
1226.983, 4658.642
1227.465, 4669.926
1227.947, 4690.737
1228.429, 4720.589
1228.911, 4747.672
1229.393, 4745.458
1229.875, 4720.272
1230.358, 4700.289
1230.840, 4690.358
1231.322, 4693.065
1231.804, 4714.419
1232.286, 4733.222
1232.768, 4715.631
1233.250, 4683.753
1233.732, 4677.840
1234.214, 4697.854
1234.697, 4703.631
1235.179, 4674.867
1235.661, 4662.767
1236.143, 4681.456
1236.625, 4711.710
1237.107, 4733.623
1237.589, 4745.754
1238.071, 4742.731
1238.553, 4722.940
1239.036, 4704.516
1239.518, 4682.775
1240.000, 4681.671
1240.482, 4718.453
1240.964, 4761.479
1241.446, 4750.938
1241.928, 4716.499
1242.410, 4707.481
1242.893, 4743.134
1243.375, 4757.199
1243.857, 4742.729
1244.339, 4719.329
1244.821, 4690.587
1245.303, 4665.822
1245.785, 4660.767
1246.267, 4670.759
1246.750, 4690.299
1247.232, 4729.130
1247.714, 4745.774
1248.196, 4734.887
1248.678, 4721.647
1249.160, 4723.063
1249.642, 4730.860
1250.124, 4736.008
1250.606, 4738.166
1251.089, 4735.756
1251.571, 4722.894
1252.053, 4721.795
1252.535, 4735.673
1253.017, 4747.730
1253.499, 4740.026
1253.981, 4727.456
1254.463, 4726.851
1254.945, 4735.213
1255.428, 4742.602
1255.910, 4748.153
1256.392, 4754.708
1256.874, 4763.443
1257.356, 4766.890
1257.838, 4748.869
1258.320, 4730.195
1258.802, 4735.608
1259.285, 4758.774
1259.767, 4766.453
1260.249, 4754.479
1260.731, 4749.958
1261.213, 4757.773
1261.695, 4765.975
1262.177, 4766.453
1262.659, 4759.646
1263.141, 4738.151
1263.624, 4708.496
1264.106, 4704.373
1264.588, 4727.417
1265.070, 4739.314
1265.552, 4729.958
1266.034, 4718.292
1266.516, 4722.409
1266.998, 4728.924
1267.480, 4724.062
1267.963, 4711.716
1268.445, 4716.781
1268.927, 4737.766
1269.409, 4745.009
1269.891, 4725.527
1270.373, 4707.404
1270.855, 4711.577
1271.337, 4724.348
1271.820, 4740.003
1272.302, 4755.321
1272.784, 4740.180
1273.266, 4701.021
1273.748, 4680.309
1274.230, 4702.215
1274.712, 4723.454
1275.194, 4714.246
1275.677, 4705.395
1276.159, 4720.336
1276.641, 4752.263
1277.123, 4760.965
1277.605, 4752.016
1278.087, 4749.998
1278.569, 4769.005
1279.051, 4789.375
1279.533, 4818.887
1280.016, 4830.830
1280.498, 4787.964
1280.980, 4714.356
1281.462, 4710.217
1281.944, 4757.472
1282.426, 4795.669
1282.908, 4788.690
1283.390, 4791.238
1283.872, 4814.353
1284.355, 4836.769
1284.837, 4838.865
1285.319, 4827.965
1285.801, 4817.339
1286.283, 4807.563
1286.765, 4799.499
1287.247, 4792.115
1287.729, 4789.296
1288.212, 4792.406
1288.694, 4796.258
1289.176, 4797.666
1289.658, 4795.682
1290.140, 4787.035
1290.622, 4773.550
1291.104, 4761.852
1291.586, 4749.611
1292.068, 4751.390
1292.551, 4771.943
1293.033, 4787.186
1293.515, 4758.287
1293.997, 4727.085
1294.479, 4741.313
1294.961, 4789.779
1295.443, 4817.546
1295.925, 4823.385
1296.407, 4815.068
1296.890, 4792.209
1297.372, 4773.205
1297.854, 4782.522
1298.336, 4792.611
1298.818, 4776.185
1299.300, 4746.496
1299.782, 4738.145
1300.264, 4750.029
1300.747, 4764.955
1301.229, 4780.651
1301.711, 4788.155
1302.193, 4770.704
1302.675, 4756.246
1303.157, 4760.046
1303.639, 4773.895
##END=



