##NAMES=Romerite
##RRUFFID=R060238
##IDEAL CHEMISTRY=Fe^2+^Fe^3+^_2_(S^6+^O_4_)_4_&#183;14H_2_O
##LOCALITY=Dexter no. 7 mine, Calf Mesa, San Rafael Swell, Emery County, Utah, USA
##OWNER=RRUFF
##SOURCE=University of Arizona Mineral Museum
##DESCRIPTION=Orange color massive blebs associated with voltaite and coquimbite
##STATUS=The identification of this mineral has been confirmed by single-crystal X-ray diffraction.
##URL=rruff.info/R060238
153.3740, 828.4412
153.8561, 830.4387
154.3383, 831.8250
154.8204, 832.1699
155.3025, 832.1245
155.7846, 832.6590
156.2667, 833.5709
156.7488, 835.6447
157.2310, 839.3761
157.7131, 844.0236
158.1952, 848.7478
158.6773, 853.0291
159.1594, 857.3527
159.6415, 863.6664
160.1237, 874.8909
160.6058, 884.7906
161.0879, 890.8182
161.5700, 895.1364
162.0521, 900.7358
162.5342, 909.5261
163.0164, 921.3984
163.4985, 933.8781
163.9806, 948.1146
164.4627, 961.8154
164.9448, 974.1746
165.4269, 985.4622
165.9091, 996.1562
166.3912, 1006.709
166.8733, 1017.073
167.3554, 1026.826
167.8375, 1036.134
168.3196, 1044.870
168.8018, 1053.290
169.2839, 1061.301
169.7660, 1068.006
170.2481, 1072.779
170.7302, 1075.349
171.2123, 1075.820
171.6945, 1073.964
172.1766, 1070.125
172.6587, 1064.826
173.1408, 1058.211
173.6229, 1049.443
174.1050, 1036.522
174.5872, 1020.562
175.0693, 1004.119
175.5514, 988.3662
176.0335, 972.4834
176.5156, 954.8641
176.9977, 934.8197
177.4799, 913.8019
177.9620, 892.6705
178.4441, 871.4141
178.9262, 850.2432
179.4083, 828.5798
179.8904, 806.6464
180.3726, 787.1685
180.8547, 770.9261
181.3368, 756.6536
181.8189, 744.1273
182.3010, 732.9788
182.7831, 722.4943
183.2653, 711.8763
183.7474, 701.0148
184.2295, 691.7040
184.7116, 685.1083
185.1937, 679.2266
185.6758, 673.2998
186.1580, 667.4599
186.6401, 662.3954
187.1222, 658.9268
187.6043, 657.4658
188.0864, 655.8479
188.5685, 653.2708
189.0507, 651.1927
189.5328, 650.7587
190.0149, 651.7917
190.4970, 652.9772
190.9791, 652.6496
191.4612, 649.7578
191.9434, 648.7230
192.4255, 650.3693
192.9076, 652.9911
193.3897, 655.6661
193.8718, 658.1593
194.3539, 660.5429
194.8361, 662.9101
195.3182, 665.3141
195.8003, 667.5419
196.2824, 669.9414
196.7645, 671.9866
197.2466, 673.2009
197.7288, 673.4776
198.2109, 672.9547
198.6930, 671.5577
199.1751, 669.1306
199.6572, 667.0208
200.1393, 665.9868
200.6215, 665.2312
201.1036, 663.4078
201.5857, 659.9614
202.0678, 656.2577
202.5499, 654.2432
203.0320, 653.7574
203.5142, 653.1237
203.9963, 651.6319
204.4784, 649.5624
204.9605, 647.2940
205.4426, 644.2287
205.9247, 642.2792
206.4069, 643.9268
206.8890, 648.6935
207.3711, 653.1279
207.8532, 654.5275
208.3353, 653.6794
208.8174, 654.5904
209.2996, 658.4592
209.7817, 663.5764
210.2638, 668.8032
210.7459, 674.0690
211.2280, 679.2768
211.7101, 684.1061
212.1923, 688.5743
212.6744, 693.8392
213.1565, 700.4993
213.6386, 707.5145
214.1207, 714.3967
214.6028, 721.1091
215.0850, 727.9005
215.5671, 735.4453
216.0492, 744.1447
216.5313, 750.5744
217.0134, 752.3468
217.4955, 753.6537
217.9777, 755.8619
218.4598, 759.0859
218.9419, 762.9063
219.4240, 766.9408
219.9061, 771.2177
220.3882, 775.5864
220.8704, 780.7730
221.3525, 785.4675
221.8346, 788.9051
222.3167, 791.1964
222.7988, 792.9974
223.2809, 794.8654
223.7631, 796.5788
224.2452, 799.4346
224.7273, 804.6015
225.2094, 809.6791
225.6915, 813.3274
226.1736, 815.6005
226.6558, 817.5134
227.1379, 820.2036
227.6200, 824.0522
228.1021, 826.7816
228.5842, 827.5406
229.0663, 828.0701
229.5485, 829.6229
230.0306, 832.1022
230.5127, 834.3149
230.9948, 834.9877
231.4769, 833.7473
231.9590, 832.8994
232.4412, 833.0761
232.9233, 833.1266
233.4054, 831.8802
233.8875, 829.4600
234.3696, 827.4113
234.8517, 827.3430
235.3339, 829.5547
235.8160, 830.9850
236.2981, 830.6924
236.7802, 830.3159
237.2623, 830.5797
237.7444, 831.6487
238.2266, 834.3419
238.7087, 839.8063
239.1908, 848.0001
239.6729, 855.6734
240.1550, 862.6439
240.6371, 869.0696
241.1193, 874.3232
241.6014, 878.4491
242.0835, 883.7454
242.5656, 892.2901
243.0477, 903.6267
243.5298, 915.4293
244.0120, 927.5684
244.4941, 940.0134
244.9762, 952.3204
245.4583, 964.4719
245.9404, 978.0120
246.4225, 994.9855
246.9047, 1013.985
247.3868, 1031.843
247.8689, 1047.756
248.3510, 1062.743
248.8331, 1077.773
249.3152, 1092.869
249.7974, 1108.020
250.2795, 1122.691
250.7616, 1137.735
251.2437, 1154.247
251.7258, 1172.965
252.2079, 1192.559
252.6901, 1211.967
253.1722, 1231.158
253.6543, 1249.549
254.1364, 1266.125
254.6185, 1281.847
255.1006, 1297.738
255.5828, 1314.070
256.0649, 1330.245
256.5470, 1345.484
257.0291, 1359.764
257.5112, 1373.293
257.9933, 1386.467
258.4755, 1398.723
258.9576, 1409.763
259.4397, 1419.479
259.9218, 1427.593
260.4039, 1434.115
260.8860, 1439.338
261.3682, 1441.298
261.8503, 1438.552
262.3324, 1432.742
262.8145, 1424.086
263.2966, 1412.685
263.7787, 1399.731
264.2609, 1386.475
264.7430, 1373.027
265.2251, 1358.596
265.7072, 1344.062
266.1893, 1327.752
266.6714, 1307.874
267.1536, 1284.570
267.6357, 1260.325
268.1178, 1237.778
268.5999, 1217.464
269.0820, 1196.031
269.5641, 1170.875
270.0463, 1146.518
270.5284, 1125.522
271.0105, 1107.556
271.4926, 1090.355
271.9747, 1071.799
272.4568, 1051.612
272.9390, 1031.819
273.4211, 1011.746
273.9032, 992.7118
274.3853, 975.4729
274.8674, 959.6252
275.3495, 944.3604
275.8317, 928.7716
276.3138, 912.8959
276.7959, 898.2299
277.2780, 886.0867
277.7601, 874.0613
278.2422, 861.6152
278.7244, 848.8726
279.2065, 836.3290
279.6886, 824.3777
280.1707, 812.9177
280.6528, 801.0960
281.1349, 787.4598
281.6171, 775.1381
282.0992, 765.5731
282.5813, 757.5704
283.0634, 749.3583
283.5455, 739.9601
284.0276, 729.5765
284.5098, 719.0629
284.9919, 707.2009
285.4740, 696.8226
285.9561, 689.3571
286.4382, 683.1497
286.9203, 676.1104
287.4025, 667.3146
287.8846, 657.6434
288.3667, 649.5402
288.8488, 644.7445
289.3309, 639.1193
289.8130, 631.4955
290.2952, 623.4785
290.7773, 616.7418
291.2594, 611.8058
291.7415, 607.5813
292.2236, 602.0752
292.7057, 594.3293
293.1879, 586.8460
293.6700, 579.4510
294.1521, 572.3898
294.6342, 566.3823
295.1163, 561.3234
295.5984, 555.8919
296.0806, 548.1104
296.5627, 536.4617
297.0448, 526.9319
297.5269, 520.3709
298.0090, 514.8428
298.4911, 509.9395
298.9733, 505.1995
299.4554, 499.6309
299.9375, 492.0603
300.4196, 481.9797
300.9017, 473.2130
301.3839, 466.5861
301.8660, 460.2013
302.3481, 453.0866
302.8302, 445.4647
303.3123, 438.1308
303.7944, 431.7049
304.2766, 426.1588
304.7587, 420.0738
305.2408, 412.3324
305.7229, 405.2478
306.2050, 399.9330
306.6871, 395.6652
307.1693, 391.1015
307.6514, 385.4576
308.1335, 379.0305
308.6156, 373.3501
309.0977, 369.4023
309.5798, 365.0550
310.0620, 359.6132
310.5441, 353.7978
311.0262, 348.5020
311.5083, 344.0697
311.9904, 340.2602
312.4725, 336.5694
312.9547, 332.4737
313.4368, 329.2580
313.9189, 327.5978
314.4010, 326.3799
314.8831, 324.8447
315.3652, 322.7352
315.8474, 319.8990
316.3295, 316.0386
316.8116, 310.4492
317.2937, 305.6432
317.7758, 301.1674
318.2579, 297.6893
318.7401, 296.4513
319.2222, 297.0065
319.7043, 297.1648
320.1864, 294.5639
320.6685, 288.6158
321.1506, 284.8004
321.6328, 284.8451
322.1149, 284.9542
322.5970, 283.2866
323.0791, 280.4070
323.5612, 278.0780
324.0433, 277.6146
324.5255, 278.7459
325.0076, 278.5124
325.4897, 275.3548
325.9718, 272.5946
326.4539, 271.3118
326.9360, 270.6676
327.4182, 269.2340
327.9003, 266.2906
328.3824, 262.5998
328.8645, 260.3143
329.3466, 260.7011
329.8287, 260.8965
330.3109, 260.6216
330.7930, 260.1991
331.2751, 260.0040
331.7572, 260.1155
332.2393, 260.2287
332.7214, 259.8281
333.2036, 258.5246
333.6857, 257.6080
334.1678, 257.7461
334.6499, 257.6766
335.1320, 256.2615
335.6141, 253.6891
336.0963, 251.2262
336.5784, 250.1841
337.0605, 250.7305
337.5426, 251.2401
338.0247, 251.1556
338.5068, 251.5899
338.9890, 253.4419
339.4711, 256.1100
339.9532, 258.3705
340.4353, 259.4225
340.9174, 259.3843
341.3995, 259.0331
341.8817, 258.1170
342.3638, 257.1662
342.8459, 255.9638
343.3280, 254.8772
343.8101, 254.3797
344.2922, 254.6723
344.7744, 255.4638
345.2565, 256.1891
345.7386, 257.0861
346.2207, 257.4029
346.7028, 256.3815
347.1849, 255.3432
347.6671, 255.6470
348.1492, 257.3341
348.6313, 258.9367
349.1134, 258.3505
349.5955, 254.7700
350.0776, 252.5789
350.5598, 252.7732
351.0419, 253.5025
351.5240, 254.2684
352.0061, 254.9618
352.4882, 255.5472
352.9703, 255.9397
353.4525, 256.1823
353.9346, 256.7068
354.4167, 257.6941
354.8988, 258.7441
355.3809, 259.8011
355.8630, 260.8277
356.3452, 261.7960
356.8273, 262.7105
357.3094, 263.5031
357.7915, 264.0218
358.2736, 264.2362
358.7557, 264.2379
359.2379, 263.6676
359.7200, 263.1382
360.2021, 263.2487
360.6842, 264.1042
361.1663, 265.0741
361.6484, 265.2025
362.1306, 264.3391
362.6127, 264.4894
363.0948, 266.6734
363.5769, 269.2062
364.0590, 271.4242
364.5411, 273.2247
365.0233, 274.4381
365.5054, 274.5926
365.9875, 274.0020
366.4696, 274.0512
366.9517, 274.9043
367.4338, 276.1066
367.9160, 277.6391
368.3981, 279.2933
368.8802, 280.7168
369.3623, 281.6635
369.8444, 282.5210
370.3265, 284.0031
370.8087, 286.2295
371.2908, 288.0708
371.7729, 288.9784
372.2550, 289.3468
372.7371, 289.4560
373.2192, 289.2638
373.7014, 289.2846
374.1835, 289.9949
374.6656, 291.2670
375.1477, 292.6116
375.6298, 294.0973
376.1119, 295.3230
376.5941, 295.5967
377.0762, 295.1266
377.5583, 295.1740
378.0404, 296.5900
378.5225, 298.6300
379.0046, 300.2188
379.4868, 301.2674
379.9689, 302.1316
380.4510, 302.9273
380.9331, 303.7387
381.4152, 304.8190
381.8973, 306.5388
382.3795, 308.1276
382.8616, 308.7924
383.3437, 308.8133
383.8258, 309.3478
384.3079, 310.9472
384.7900, 313.1842
385.2722, 315.2603
385.7543, 317.1516
386.2364, 319.0224
386.7185, 321.0885
387.2006, 323.0796
387.6827, 324.6119
388.1649, 325.6087
388.6470, 326.3370
389.1291, 327.0561
389.6112, 327.7672
390.0933, 328.3927
390.5754, 328.6697
391.0576, 329.0932
391.5397, 330.0078
392.0218, 331.3418
392.5039, 332.8991
392.9860, 334.6389
393.4681, 336.4092
393.9503, 337.4118
394.4324, 337.1135
394.9145, 336.7783
395.3966, 336.7420
395.8787, 336.7031
396.3608, 336.2241
396.8430, 335.1875
397.3251, 333.9521
397.8072, 333.0795
398.2893, 332.8180
398.7714, 332.2326
399.2535, 331.3892
399.7357, 330.2216
400.2178, 328.3828
400.6999, 326.1264
401.1820, 324.1708
401.6641, 323.0747
402.1462, 322.7886
402.6284, 322.6046
403.1105, 323.1669
403.5926, 323.0213
404.0747, 321.2487
404.5568, 318.9087
405.0389, 317.3154
405.5211, 316.9762
406.0032, 317.2262
406.4853, 316.8742
406.9674, 315.6569
407.4495, 314.6388
407.9316, 313.6781
408.4138, 313.1418
408.8959, 313.3058
409.3780, 314.1363
409.8601, 315.3823
410.3422, 317.0292
410.8243, 318.9876
411.3065, 320.5509
411.7886, 321.6126
412.2707, 322.4393
412.7528, 322.7279
413.2349, 322.9916
413.7170, 324.0369
414.1992, 326.2838
414.6813, 329.0836
415.1634, 331.5098
415.6455, 333.5247
416.1276, 335.9459
416.6097, 339.4780
417.0919, 343.0962
417.5740, 345.6115
418.0561, 346.9857
418.5382, 348.4753
419.0203, 350.7045
419.5024, 353.5301
419.9846, 356.8246
420.4667, 360.7249
420.9488, 364.3655
421.4309, 366.5359
421.9130, 367.8049
422.3951, 370.3097
422.8773, 375.2532
423.3594, 380.6542
423.8415, 385.6006
424.3236, 389.9633
424.8057, 393.0592
425.2878, 394.2645
425.7700, 394.6953
426.2521, 396.8370
426.7342, 401.1290
427.2163, 405.5023
427.6984, 410.1747
428.1805, 414.4681
428.6627, 417.2326
429.1448, 418.4991
429.6269, 419.9415
430.1090, 423.1573
430.5911, 428.2662
431.0732, 433.2231
431.5554, 438.2237
432.0375, 442.9161
432.5196, 446.7200
433.0017, 450.2460
433.4838, 454.5766
433.9659, 460.2091
434.4481, 466.5948
434.9302, 472.5399
435.4123, 477.4382
435.8944, 482.9760
436.3765, 489.0188
436.8586, 495.7133
437.3408, 503.2969
437.8229, 511.6595
438.3050, 520.3565
438.7871, 529.1091
439.2692, 537.9077
439.7513, 546.4913
440.2335, 554.2245
440.7156, 562.7258
441.1977, 572.9166
441.6798, 583.9295
442.1619, 594.7473
442.6440, 605.0964
443.1262, 614.9083
443.6083, 624.0286
444.0904, 632.3998
444.5725, 640.8273
445.0546, 649.6771
445.5367, 658.3409
446.0189, 666.6546
446.5010, 674.4965
446.9831, 681.1978
447.4652, 685.9675
447.9473, 689.4798
448.4294, 692.9063
448.9116, 696.2693
449.3937, 699.5151
449.8758, 702.4210
450.3579, 705.2558
450.8400, 708.5576
451.3221, 712.4003
451.8043, 716.5944
452.2864, 721.0349
452.7685, 725.7523
453.2506, 730.9283
453.7327, 736.6926
454.2148, 742.3854
454.6970, 747.0649
455.1791, 750.4699
455.6612, 754.8147
456.1433, 760.9899
456.6254, 767.3394
457.1075, 773.3365
457.5897, 778.7292
458.0718, 783.0616
458.5539, 786.0526
459.0360, 787.9887
459.5181, 789.8116
460.0002, 793.6436
460.4824, 794.3111
460.9645, 789.3279
461.4466, 782.8536
461.9287, 778.4249
462.4108, 776.2818
462.8929, 774.1951
463.3751, 769.8847
463.8572, 763.3303
464.3393, 757.2490
464.8214, 752.3196
465.3035, 747.0223
465.7856, 741.0418
466.2678, 734.4532
466.7499, 726.9645
467.2320, 718.3605
467.7141, 710.0417
468.1962, 704.4760
468.6783, 701.9495
469.1605, 698.6812
469.6426, 693.2687
470.1247, 687.8448
470.6068, 683.8199
471.0889, 681.0730
471.5710, 678.9933
472.0532, 678.1901
472.5353, 677.4855
473.0174, 674.6424
473.4995, 669.5657
473.9816, 664.7458
474.4637, 661.4718
474.9459, 659.1313
475.4280, 656.2015
475.9101, 652.1279
476.3922, 649.2011
476.8743, 649.9034
477.3564, 651.6379
477.8386, 650.3658
478.3207, 645.4561
478.8028, 639.4955
479.2849, 634.7969
479.7670, 631.3584
480.2491, 627.4656
480.7313, 622.6642
481.2134, 617.9714
481.6955, 614.3151
482.1776, 610.8402
482.6597, 606.2320
483.1418, 600.0347
483.6240, 592.6994
484.1061, 584.9877
484.5882, 576.7065
485.0703, 568.5863
485.5524, 560.8763
486.0345, 553.0436
486.5167, 545.2870
486.9988, 537.2411
487.4809, 528.0583
487.9630, 516.9698
488.4451, 504.9820
488.9272, 494.7195
489.4094, 487.0176
489.8915, 478.4716
490.3736, 467.3969
490.8557, 455.6622
491.3378, 444.1500
491.8199, 433.0669
492.3021, 422.5630
492.7842, 412.5365
493.2663, 403.2388
493.7484, 395.6710
494.2305, 390.1379
494.7126, 384.5177
495.1948, 377.5070
495.6769, 369.4642
496.1590, 361.3741
496.6411, 352.9585
497.1232, 345.0011
497.6053, 337.7900
498.0875, 331.2991
498.5696, 325.6540
499.0517, 320.9167
499.5338, 316.4044
500.0159, 311.3339
500.4980, 305.6111
500.9802, 300.8439
501.4623, 297.8351
501.9444, 294.7601
502.4265, 290.6392
502.9086, 286.0307
503.3907, 282.0181
503.8729, 279.0111
504.3550, 276.2944
504.8371, 272.5700
505.3192, 267.3446
505.8013, 262.4251
506.2834, 256.9651
506.7656, 252.6089
507.2477, 250.6694
507.7298, 250.4358
508.2119, 250.2961
508.6940, 249.4341
509.1761, 248.0267
509.6583, 246.4795
510.1404, 244.8727
510.6225, 242.6330
511.1046, 239.1317
511.5867, 235.3422
512.0688, 231.9322
512.5510, 228.9632
513.0331, 226.7025
513.5152, 225.5461
513.9973, 225.0561
514.4794, 224.8898
514.9615, 224.9968
515.4437, 224.4990
515.9258, 222.7361
516.4079, 220.1436
516.8900, 218.0360
517.3721, 216.4985
517.8542, 215.1467
518.3364, 213.7813
518.8185, 212.6284
519.3006, 212.0743
519.7827, 212.0719
520.2648, 212.1193
520.7469, 211.8400
521.2291, 211.2183
521.7112, 210.0033
522.1933, 206.8964
522.6754, 204.7973
523.1575, 204.7909
523.6396, 205.5692
524.1218, 206.0284
524.6039, 205.8432
525.0860, 205.0343
525.5681, 203.0830
526.0502, 200.0552
526.5323, 198.9435
527.0145, 201.0469
527.4966, 202.8288
527.9787, 202.3974
528.4608, 200.7219
528.9429, 198.9831
529.4250, 197.3209
529.9072, 196.0961
530.3893, 196.0821
530.8714, 196.7879
531.3535, 196.3313
531.8356, 194.0897
532.3177, 191.8521
532.7999, 191.4260
533.2820, 192.7430
533.7641, 193.4937
534.2462, 193.2270
534.7283, 192.8222
535.2104, 192.5267
535.6926, 192.4032
536.1747, 192.7538
536.6568, 193.6456
537.1389, 194.3279
537.6210, 193.6008
538.1031, 190.8717
538.5853, 189.3567
539.0674, 190.2195
539.5495, 190.9854
540.0316, 190.5105
540.5137, 189.4638
540.9958, 189.1944
541.4780, 190.3244
541.9601, 191.5644
542.4422, 190.5036
542.9243, 186.8797
543.4064, 184.6828
543.8885, 184.8967
544.3707, 186.0651
544.8528, 187.6364
545.3349, 189.3214
545.8170, 190.3141
546.2991, 190.0016
546.7813, 189.3029
547.2634, 189.1073
547.7455, 189.2761
548.2276, 189.2111
548.7097, 188.6830
549.1918, 188.0116
549.6740, 187.5638
550.1561, 187.3470
550.6382, 187.4697
551.1203, 188.3124
551.6024, 189.1226
552.0845, 189.5049
552.5667, 189.5612
553.0488, 189.5484
553.5309, 189.5773
554.0130, 189.5315
554.4951, 189.1074
554.9772, 187.9841
555.4594, 187.4685
555.9415, 187.8842
556.4236, 188.6227
556.9057, 189.8353
557.3878, 191.1506
557.8699, 191.8837
558.3521, 191.6473
558.8342, 190.9649
559.3163, 190.3938
559.7984, 189.9492
560.2805, 190.0939
560.7626, 191.3976
561.2448, 192.5190
561.7269, 191.5405
562.2090, 189.0191
562.6911, 187.6196
563.1732, 188.6209
563.6553, 190.1416
564.1375, 190.9993
564.6196, 191.4167
565.1017, 192.1030
565.5838, 193.3229
566.0659, 194.4441
566.5480, 194.4449
567.0302, 192.8150
567.5123, 192.3482
567.9944, 193.6196
568.4765, 195.2574
568.9586, 197.2387
569.4407, 199.1128
569.9229, 200.1561
570.4050, 200.1014
570.8871, 199.5710
571.3692, 199.4522
571.8513, 199.7715
572.3334, 199.8965
572.8156, 199.5389
573.2977, 199.3613
573.7798, 199.7716
574.2619, 200.6157
574.7440, 201.7021
575.2261, 203.2409
575.7083, 204.5014
576.1904, 204.6341
576.6725, 204.0983
577.1546, 203.9187
577.6367, 204.3033
578.1188, 205.3529
578.6010, 207.4486
579.0831, 210.5747
579.5652, 212.2028
580.0473, 210.9646
580.5294, 210.1068
581.0115, 210.8476
581.4937, 212.2537
581.9758, 213.0509
582.4579, 213.0530
582.9400, 213.2906
583.4221, 215.0428
583.9042, 218.2134
584.3864, 220.4678
584.8685, 221.3415
585.3506, 222.1373
585.8327, 223.3211
586.3148, 224.6459
586.7969, 225.8433
587.2791, 226.8706
587.7612, 227.9304
588.2433, 228.8512
588.7254, 229.9890
589.2075, 232.3456
589.6896, 235.9926
590.1718, 239.3727
590.6539, 241.4849
591.1360, 242.7226
591.6181, 244.2680
592.1002, 246.1686
592.5823, 248.2331
593.0645, 250.6068
593.5466, 253.0065
594.0287, 254.8773
594.5108, 256.5083
594.9929, 259.0887
595.4750, 263.5581
595.9572, 268.9777
596.4393, 272.4428
596.9214, 273.2275
597.4035, 274.1166
597.8856, 275.2861
598.3677, 276.8766
598.8499, 279.1015
599.3320, 281.8509
599.8141, 284.7656
600.2962, 287.9175
600.7783, 290.9241
601.2604, 293.0810
601.7426, 294.5676
602.2247, 296.7636
602.7068, 300.4151
603.1889, 303.7520
603.6710, 304.3896
604.1531, 301.8669
604.6353, 300.4610
605.1174, 300.5257
605.5995, 301.2918
606.0816, 303.4609
606.5637, 305.7593
607.0458, 305.9688
607.5280, 303.5941
608.0101, 300.6604
608.4922, 299.6835
608.9743, 300.7387
609.4564, 301.7480
609.9385, 303.1789
610.4207, 303.7658
610.9028, 302.7562
611.3849, 300.8795
611.8670, 298.9829
612.3491, 297.2433
612.8312, 295.0509
613.3134, 290.9036
613.7955, 286.4153
614.2776, 285.3386
614.7597, 287.8011
615.2418, 289.3312
615.7239, 287.1039
616.2061, 282.4847
616.6882, 279.2769
617.1703, 278.3887
617.6524, 277.1804
618.1345, 274.8874
618.6166, 272.7923
619.0988, 272.2497
619.5809, 272.6575
620.0630, 272.2151
620.5451, 269.8530
621.0272, 266.6591
621.5093, 264.9731
621.9915, 265.0779
622.4736, 264.6894
622.9557, 263.2741
623.4378, 261.6240
623.9199, 260.1323
624.4020, 258.8278
624.8842, 257.7965
625.3663, 257.0095
625.8484, 256.5695
626.3305, 256.8389
626.8126, 257.4500
627.2947, 257.6595
627.7769, 257.3192
628.2590, 256.6365
628.7411, 255.6336
629.2232, 254.4218
629.7053, 254.3889
630.1874, 256.3244
630.6696, 258.5118
631.1517, 261.0243
631.6338, 263.5820
632.1159, 266.0209
632.5980, 268.2942
633.0801, 270.3373
633.5623, 271.9413
634.0444, 273.4326
634.5265, 275.6839
635.0086, 278.7501
635.4907, 281.6819
635.9728, 284.0760
636.4550, 286.3968
636.9371, 289.2342
637.4192, 292.5444
637.9013, 295.7652
638.3834, 298.7812
638.8655, 301.7301
639.3477, 304.4727
639.8298, 307.2628
640.3119, 310.6967
640.7940, 314.9098
641.2761, 319.1801
641.7582, 322.6454
642.2404, 325.2743
642.7225, 328.2928
643.2046, 332.5833
643.6867, 335.8269
644.1688, 336.3462
644.6509, 336.3275
645.1331, 338.1737
645.6152, 342.0858
646.0973, 345.7711
646.5794, 347.6070
647.0615, 348.4792
647.5436, 350.1089
648.0258, 352.3453
648.5079, 353.2445
648.9900, 351.7964
649.4721, 349.1827
649.9542, 347.3885
650.4363, 346.8868
650.9185, 345.4138
651.4006, 342.0657
651.8827, 338.7823
652.3648, 336.8162
652.8469, 335.2913
653.3290, 332.9100
653.8112, 329.2507
654.2933, 324.7993
654.7754, 319.8130
655.2575, 314.3974
655.7396, 309.3660
656.2217, 304.5641
656.7039, 300.7936
657.1860, 299.3190
657.6681, 298.5980
658.1502, 295.8708
658.6323, 290.6789
659.1144, 286.0859
659.5966, 283.5098
660.0787, 281.4722
660.5608, 279.0345
661.0429, 276.0660
661.5250, 272.3219
662.0071, 267.6495
662.4893, 262.7968
662.9714, 259.0146
663.4535, 256.4680
663.9356, 254.0751
664.4177, 251.9963
664.8998, 249.8477
665.3820, 247.2191
665.8641, 244.5632
666.3462, 242.6009
666.8283, 241.5303
667.3104, 240.3714
667.7925, 238.5373
668.2747, 236.1847
668.7568, 233.2528
669.2389, 229.8891
669.7210, 227.1547
670.2031, 225.7053
670.6852, 224.9284
671.1674, 223.5496
671.6495, 221.3039
672.1316, 219.1726
672.6137, 217.0833
673.0958, 215.1895
673.5779, 213.5019
674.0601, 212.0843
674.5422, 211.1406
675.0243, 210.7459
675.5064, 210.2887
675.9885, 208.9707
676.4706, 207.0568
676.9528, 205.5401
677.4349, 204.4863
677.9170, 203.7177
678.3991, 203.2940
678.8812, 202.9644
679.3633, 202.0972
679.8455, 200.4043
680.3276, 199.1976
680.8097, 199.4298
681.2918, 199.3897
681.7739, 197.6276
682.2560, 194.9010
682.7382, 192.6539
683.2203, 191.4484
683.7024, 191.0738
684.1845, 191.6987
684.6666, 193.2492
685.1487, 193.2703
685.6309, 191.0622
686.1130, 189.1339
686.5951, 188.6047
687.0772, 189.1037
687.5593, 190.4964
688.0414, 193.2125
688.5236, 194.0472
689.0057, 189.9660
689.4878, 185.4588
689.9699, 184.3946
690.4520, 185.8947
690.9341, 187.4730
691.4163, 188.1324
691.8984, 188.1261
692.3805, 187.6102
692.8626, 186.4955
693.3447, 186.3886
693.8268, 188.0584
694.3090, 189.3920
694.7911, 189.6942
695.2732, 189.2380
695.7553, 187.8663
696.2374, 185.5546
696.7195, 184.1131
697.2017, 185.0022
697.6838, 186.6109
698.1659, 187.3965
698.6480, 187.4868
699.1301, 187.4682
699.6122, 187.5526
700.0944, 187.6078
700.5765, 187.4593
701.0586, 187.1002
701.5407, 186.6497
702.0228, 185.7680
702.5049, 185.3121
702.9871, 186.0114
703.4692, 186.8388
703.9513, 186.6910
704.4334, 185.5741
704.9155, 184.6115
705.3976, 184.4923
705.8798, 184.7821
706.3619, 184.9011
706.8440, 184.9809
707.3261, 185.6741
707.8082, 187.2172
708.2903, 188.6483
708.7725, 188.8066
709.2546, 187.7131
709.7367, 187.3760
710.2188, 188.8660
710.7009, 189.6227
711.1830, 188.4262
711.6652, 187.0546
712.1473, 187.2538
712.6294, 188.7470
713.1115, 189.6525
713.5936, 188.6211
714.0757, 187.0438
714.5579, 186.6794
715.0400, 187.2247
715.5221, 187.6186
716.0042, 187.6265
716.4863, 187.4719
716.9684, 187.3717
717.4506, 187.2763
717.9327, 186.8098
718.4148, 185.3902
718.8969, 184.4440
719.3790, 184.4392
719.8611, 184.5681
720.3433, 184.0392
720.8254, 183.2051
721.3075, 183.1645
721.7896, 184.6065
722.2717, 186.3138
722.7538, 186.8379
723.2360, 186.5135
723.7181, 186.5770
724.2002, 187.2174
724.6823, 187.2557
725.1644, 185.7070
725.6465, 183.2567
726.1287, 181.9745
726.6108, 182.5625
727.0929, 183.0288
727.5750, 183.1838
728.0571, 183.4237
728.5392, 184.1227
729.0214, 184.9883
729.5035, 185.4930
729.9856, 185.4635
730.4677, 185.2791
730.9498, 185.1467
731.4319, 185.1526
731.9141, 185.7935
732.3962, 187.0316
732.8783, 187.4042
733.3604, 186.0343
733.8425, 184.0349
734.3246, 183.3025
734.8068, 184.2690
735.2889, 184.5917
735.7710, 183.5250
736.2531, 182.7650
736.7352, 183.2138
737.2173, 183.9942
737.6995, 184.0289
738.1816, 183.2132
738.6637, 182.4221
739.1458, 182.5286
739.6279, 182.8534
740.1100, 181.9982
740.5922, 180.2437
741.0743, 179.2825
741.5564, 179.6635
742.0385, 180.4867
742.5206, 180.8857
743.0027, 180.8717
743.4849, 180.6760
743.9670, 179.9298
744.4491, 179.5186
744.9312, 179.9567
745.4133, 180.3898
745.8954, 180.2195
746.3776, 179.4946
746.8597, 178.6828
747.3418, 178.3191
747.8239, 177.1280
748.3060, 172.0439
748.7881, 165.3892
749.2703, 164.0172
749.7524, 168.5910
750.2345, 173.1246
750.7166, 173.6989
751.1987, 171.6417
751.6808, 170.6200
752.1630, 171.5717
752.6451, 171.4020
753.1272, 168.6339
753.6093, 166.3405
754.0914, 165.7323
754.5735, 166.2900
755.0557, 167.6087
755.5378, 169.6855
756.0199, 170.7788
756.5020, 168.8318
756.9841, 165.8994
757.4662, 164.6941
757.9484, 164.9645
758.4305, 165.3633
758.9126, 165.3954
759.3947, 165.0733
759.8768, 164.3525
760.3589, 163.2221
760.8411, 162.3510
761.3232, 161.6209
761.8053, 161.3622
762.2874, 162.4259
762.7695, 163.3867
763.2516, 162.9960
763.7338, 161.4389
764.2159, 159.9450
764.6980, 158.7188
765.1801, 157.9133
765.6622, 157.8334
766.1443, 158.1553
766.6265, 158.4546
767.1086, 158.6413
767.5907, 158.7707
768.0728, 158.9143
768.5549, 158.8802
769.0370, 157.9242
769.5192, 155.7124
770.0013, 154.8468
770.4834, 156.3720
770.9655, 157.7950
771.4476, 157.5093
771.9297, 156.2585
772.4119, 155.2955
772.8940, 154.7543
773.3761, 154.1579
773.8582, 153.2945
774.3403, 152.4102
774.8224, 151.2761
775.3046, 150.3671
775.7867, 150.7955
776.2688, 152.7741
776.7509, 154.9207
777.2330, 156.0623
777.7151, 156.1538
778.1973, 154.5167
778.6794, 150.8972
779.1615, 148.4507
779.6436, 148.3309
780.1257, 149.1216
780.6078, 149.4894
781.0900, 149.4516
781.5721, 149.4757
782.0542, 149.8831
782.5363, 149.9133
783.0184, 148.9924
783.5005, 148.0128
783.9827, 147.6376
784.4648, 147.8267
784.9469, 148.3151
785.4290, 149.0495
785.9111, 149.6977
786.3932, 149.8467
786.8754, 149.6224
787.3575, 149.3560
787.8396, 149.0771
788.3217, 148.8218
788.8038, 148.6746
789.2859, 148.3262
789.7681, 147.0888
790.2502, 144.5801
790.7323, 143.1629
791.2144, 143.6729
791.6965, 144.2494
792.1786, 144.3774
792.6608, 144.4088
793.1429, 144.6739
793.6250, 145.1974
794.1071, 145.8469
794.5892, 146.9227
795.0714, 147.7332
795.5535, 147.4161
796.0356, 146.5462
796.5177, 146.2894
796.9998, 146.7325
797.4819, 146.9581
797.9641, 146.2815
798.4462, 145.0540
798.9283, 144.1479
799.4104, 143.5706
799.8925, 143.2418
800.3746, 143.1672
800.8568, 143.3229
801.3389, 143.8956
801.8210, 144.6030
802.3031, 144.9101
802.7852, 144.7500
803.2673, 144.4928
803.7495, 143.7891
804.2316, 143.4478
804.7137, 144.2383
805.1958, 145.5424
805.6779, 146.6557
806.1600, 147.3246
806.6422, 147.2454
807.1243, 145.7585
807.6064, 143.8080
808.0885, 143.4646
808.5706, 144.5289
809.0527, 145.4454
809.5349, 145.9341
810.0170, 145.7337
810.4991, 144.3802
810.9812, 142.3426
811.4633, 141.6098
811.9454, 143.3379
812.4276, 144.2275
812.9097, 143.5854
813.3918, 142.8502
813.8739, 142.5531
814.3560, 142.6008
814.8381, 142.7906
815.3203, 143.0778
815.8024, 143.6356
816.2845, 145.0598
816.7666, 146.3816
817.2487, 146.4938
817.7308, 145.7514
818.2130, 145.0452
818.6951, 144.6003
819.1772, 143.9407
819.6593, 142.4403
820.1414, 140.6148
820.6235, 140.7412
821.1057, 143.2301
821.5878, 144.5441
822.0699, 143.5992
822.5520, 142.4450
823.0341, 142.6951
823.5162, 143.8138
823.9984, 143.9348
824.4805, 142.0285
824.9626, 141.5908
825.4447, 145.0021
825.9268, 147.8879
826.4089, 147.2811
826.8911, 144.8369
827.3732, 143.1466
827.8553, 142.8137
828.3374, 142.8127
828.8195, 142.3672
829.3016, 141.7885
829.7838, 141.5786
830.2659, 141.6442
830.7480, 141.6936
831.2301, 141.6526
831.7122, 141.4666
832.1943, 141.0833
832.6765, 140.5343
833.1586, 139.8360
833.6407, 138.6795
834.1228, 138.4988
834.6049, 140.2587
835.0870, 141.7737
835.5692, 141.2901
836.0513, 140.0543
836.5334, 140.1430
837.0155, 142.0384
837.4976, 142.9318
837.9797, 140.5639
838.4619, 138.6995
838.9440, 140.7140
839.4261, 143.9820
839.9082, 144.3121
840.3903, 141.4802
840.8724, 139.2374
841.3546, 140.5861
841.8367, 143.2543
842.3188, 143.2898
842.8009, 141.3088
843.2830, 140.3135
843.7651, 140.7553
844.2473, 140.9241
844.7294, 139.6033
845.2115, 137.7605
845.6936, 137.6600
846.1757, 139.7983
846.6578, 141.6474
847.1400, 143.3078
847.6221, 144.5083
848.1042, 145.1119
848.5863, 145.2618
849.0684, 144.9391
849.5505, 144.2037
850.0327, 143.6178
850.5148, 143.3627
850.9969, 143.2530
851.4790, 143.2211
851.9611, 143.2746
852.4432, 143.5121
852.9254, 143.8491
853.4075, 144.0144
853.8896, 143.8617
854.3717, 143.5990
854.8538, 143.2274
855.3359, 142.9735
855.8181, 144.0407
856.3002, 146.3969
856.7823, 147.7766
857.2644, 147.1351
857.7465, 146.0357
858.2286, 146.5674
858.7108, 148.6623
859.1929, 149.4977
859.6750, 148.4064
860.1571, 147.3580
860.6392, 146.4150
861.1213, 145.8530
861.6035, 146.0301
862.0856, 146.6860
862.5677, 147.1937
863.0498, 147.3852
863.5319, 147.6630
864.0140, 148.4385
864.4962, 149.0860
864.9783, 148.9429
865.4604, 148.4113
865.9425, 148.2729
866.4246, 148.6824
866.9067, 149.0800
867.3889, 148.8461
867.8710, 148.4783
868.3531, 149.1382
868.8352, 150.5242
869.3173, 151.1768
869.7994, 150.8362
870.2816, 150.3202
870.7637, 150.1666
871.2458, 150.2864
871.7279, 150.4153
872.2100, 150.4196
872.6921, 151.1017
873.1743, 153.2397
873.6564, 154.5978
874.1385, 153.4792
874.6206, 151.7737
875.1027, 152.0572
875.5848, 154.2041
876.0670, 155.1949
876.5491, 153.6995
877.0312, 152.2056
877.5133, 151.0202
877.9954, 150.5611
878.4775, 151.6870
878.9597, 153.7802
879.4418, 155.3865
879.9239, 155.9472
880.4060, 155.7851
880.8881, 154.8838
881.3702, 153.6075
881.8524, 151.9632
882.3345, 150.4289
882.8166, 151.2742
883.2987, 155.0312
883.7808, 158.3202
884.2629, 157.7175
884.7451, 154.3601
885.2272, 152.6137
885.7093, 152.6501
886.1914, 152.9367
886.6735, 153.3709
887.1556, 153.7783
887.6378, 154.0759
888.1199, 154.2592
888.6020, 154.2902
889.0841, 154.0723
889.5662, 154.0498
890.0483, 154.4262
890.5305, 154.7332
891.0126, 155.0233
891.4947, 155.0508
891.9768, 154.2766
892.4589, 152.9696
892.9410, 152.3879
893.4232, 153.5223
893.9053, 154.3195
894.3874, 153.1651
894.8695, 151.3188
895.3516, 149.8013
895.8337, 148.8752
896.3159, 149.0122
896.7980, 150.3062
897.2801, 151.7359
897.7622, 152.3391
898.2443, 152.2662
898.7264, 151.8342
899.2086, 151.0649
899.6907, 149.9055
900.1728, 148.2963
900.6549, 147.4178
901.1370, 148.3535
901.6191, 150.1675
902.1013, 150.1021
902.5834, 147.4160
903.0655, 145.8196
903.5476, 145.7303
904.0297, 145.9637
904.5118, 146.5246
904.9940, 146.8244
905.4761, 145.7514
905.9582, 143.4407
906.4403, 142.2676
906.9224, 143.2457
907.4045, 144.2163
907.8867, 145.0097
908.3688, 145.3604
908.8509, 145.0403
909.3330, 144.1497
909.8151, 142.5814
910.2972, 140.2337
910.7794, 138.8794
911.2615, 140.8409
911.7436, 143.2944
912.2257, 142.8843
912.7078, 140.8721
913.1899, 140.0947
913.6721, 140.8706
914.1542, 141.2388
914.6363, 139.7380
915.1184, 137.5353
915.6005, 136.6091
916.0826, 136.8042
916.5648, 137.4168
917.0469, 138.3956
917.5290, 139.0235
918.0111, 138.9185
918.4932, 138.8086
918.9753, 139.8493
919.4575, 141.8679
919.9396, 141.6059
920.4217, 137.7495
920.9038, 135.2756
921.3859, 135.7411
921.8680, 136.5442
922.3502, 135.9383
922.8323, 134.5305
923.3144, 133.6177
923.7965, 133.1419
924.2786, 133.3694
924.7607, 135.4052
925.2429, 136.8221
925.7250, 136.4090
926.2071, 135.1913
926.6892, 133.6383
927.1713, 132.2164
927.6534, 132.3037
928.1356, 135.2643
928.6177, 137.5461
929.0998, 135.8938
929.5819, 133.2090
930.0640, 132.7061
930.5461, 133.7578
931.0283, 134.4610
931.5104, 134.2590
931.9925, 133.7939
932.4746, 133.5211
932.9567, 133.4496
933.4388, 133.6817
933.9210, 134.1341
934.4031, 134.3152
934.8852, 134.2179
935.3673, 134.8622
935.8494, 136.9000
936.3315, 139.1612
936.8137, 139.6829
937.2958, 138.5085
937.7779, 136.9583
938.2600, 134.7824
938.7421, 133.4453
939.2242, 133.3265
939.7064, 134.1559
940.1885, 136.0372
940.6706, 138.5705
941.1527, 140.2393
941.6348, 140.9032
942.1169, 141.0279
942.5991, 139.9073
943.0812, 139.1082
943.5633, 139.7167
944.0454, 140.4471
944.5275, 139.4459
945.0096, 137.0577
945.4918, 136.2429
945.9739, 138.6465
946.4560, 141.1287
946.9381, 143.1809
947.4202, 144.5154
947.9023, 144.6035
948.3845, 143.9455
948.8666, 143.2384
949.3487, 142.7047
949.8308, 142.7122
950.3129, 143.8667
950.7950, 145.2991
951.2772, 146.3834
951.7593, 147.0858
952.2414, 147.0384
952.7235, 146.4993
953.2056, 146.6000
953.6877, 147.9004
954.1699, 149.2985
954.6520, 149.0537
955.1341, 147.9500
955.6162, 148.2200
956.0983, 149.7420
956.5804, 151.9134
957.0626, 154.5647
957.5447, 156.4623
958.0268, 156.5560
958.5089, 155.7333
958.9910, 156.2463
959.4731, 158.2090
959.9553, 159.6000
960.4374, 160.3576
960.9195, 160.4577
961.4016, 159.4299
961.8837, 158.8385
962.3658, 160.5987
962.8480, 164.2949
963.3301, 166.7563
963.8122, 167.0273
964.2943, 168.1137
964.7764, 170.6542
965.2585, 173.3369
965.7407, 175.9254
966.2228, 178.1251
966.7049, 179.2218
967.1870, 179.2247
967.6691, 180.2024
968.1512, 183.0867
968.6334, 185.9607
969.1155, 188.5931
969.5976, 190.8921
970.0797, 192.5915
970.5618, 194.0143
971.0439, 195.7791
971.5261, 198.0063
972.0082, 200.2205
972.4903, 201.7975
972.9724, 203.7408
973.4545, 207.0808
973.9366, 210.8684
974.4188, 213.8717
974.9009, 216.2834
975.3830, 219.2077
975.8651, 223.1148
976.3472, 227.1980
976.8293, 230.3986
977.3115, 233.6338
977.7936, 238.1720
978.2757, 243.7531
978.7578, 249.9613
979.2399, 256.5444
979.7220, 262.5533
980.2042, 267.2809
980.6863, 271.8794
981.1684, 278.1459
981.6505, 284.5270
982.1326, 291.5020
982.6147, 299.7541
983.0969, 307.7829
983.5790, 317.3202
984.0611, 327.6632
984.5432, 338.2958
985.0253, 349.2577
985.5074, 360.6226
985.9896, 372.3803
986.4717, 385.2014
986.9538, 399.3880
987.4359, 412.9920
987.9180, 424.9712
988.4001, 437.1777
988.8823, 451.7545
989.3644, 468.4272
989.8465, 484.8389
990.3286, 500.9621
990.8107, 517.0919
991.2928, 533.3007
991.7750, 549.4948
992.2571, 565.5770
992.7392, 581.6883
993.2213, 597.7360
993.7034, 613.6648
994.1855, 631.5520
994.6677, 652.4581
995.1498, 673.5940
995.6319, 695.4000
996.1140, 716.6730
996.5961, 736.5183
997.0782, 755.7177
997.5604, 775.5087
998.0425, 795.9104
998.5246, 816.1992
999.0067, 836.7845
999.4888, 856.6493
999.9709, 876.6855
1000.453, 894.9063
1000.935, 908.7711
1001.417, 920.1217
1001.899, 932.1486
1002.382, 945.4755
1002.864, 958.4952
1003.346, 968.2938
1003.828, 980.2315
1004.310, 996.6848
1004.792, 1017.213
1005.274, 1041.400
1005.756, 1069.136
1006.238, 1100.174
1006.721, 1134.449
1007.203, 1171.937
1007.685, 1214.171
1008.167, 1257.845
1008.649, 1301.972
1009.131, 1344.047
1009.613, 1382.714
1010.095, 1415.504
1010.578, 1437.458
1011.060, 1446.223
1011.542, 1440.594
1012.024, 1418.471
1012.506, 1381.894
1012.988, 1329.922
1013.470, 1266.578
1013.952, 1199.347
1014.434, 1130.623
1014.917, 1061.770
1015.399, 993.7293
1015.881, 929.7366
1016.363, 873.7508
1016.845, 825.6980
1017.327, 785.8900
1017.809, 754.0480
1018.291, 727.8831
1018.773, 707.0273
1019.256, 692.1878
1019.738, 683.9823
1020.220, 681.1129
1020.702, 681.3680
1021.184, 685.0032
1021.666, 694.1950
1022.148, 708.8395
1022.630, 726.0827
1023.113, 745.3707
1023.595, 768.0352
1024.077, 795.2086
1024.559, 825.7338
1025.041, 857.5408
1025.523, 890.6921
1026.005, 925.6625
1026.487, 962.7083
1026.969, 998.9504
1027.452, 1033.003
1027.934, 1069.400
1028.416, 1112.108
1028.898, 1158.520
1029.380, 1202.407
1029.862, 1243.231
1030.344, 1284.273
1030.826, 1326.126
1031.309, 1366.289
1031.791, 1405.511
1032.273, 1440.272
1032.755, 1468.885
1033.237, 1490.432
1033.719, 1502.303
1034.201, 1504.325
1034.683, 1497.648
1035.166, 1482.390
1035.648, 1458.007
1036.130, 1423.981
1036.612, 1381.188
1037.094, 1328.246
1037.576, 1267.666
1038.058, 1207.464
1038.540, 1146.927
1039.022, 1088.726
1039.505, 1032.349
1039.987, 979.0533
1040.469, 928.1439
1040.951, 881.3405
1041.433, 840.7291
1041.915, 805.1686
1042.397, 772.0558
1042.879, 743.2815
1043.361, 714.3483
1043.844, 696.1143
1044.326, 679.9483
1044.808, 664.5988
1045.290, 650.8572
1045.772, 639.4089
1046.254, 630.1066
1046.736, 622.5433
1047.218, 616.8509
1047.700, 612.3652
1048.183, 609.0609
1048.665, 606.9393
1049.147, 605.8875
1049.629, 606.1149
1050.111, 608.5609
1050.593, 612.2286
1051.075, 614.7234
1051.557, 615.4516
1052.040, 616.8984
1052.522, 620.1270
1053.004, 623.3428
1053.486, 626.2496
1053.968, 628.6637
1054.450, 630.6429
1054.932, 631.9664
1055.414, 632.1779
1055.896, 631.1678
1056.379, 629.4137
1056.861, 627.4698
1057.343, 624.2321
1057.825, 619.5110
1058.307, 613.1500
1058.789, 604.9098
1059.271, 594.9555
1059.753, 583.2182
1060.236, 569.6702
1060.718, 556.3468
1061.200, 544.8858
1061.682, 532.4587
1062.164, 517.8294
1062.646, 501.9051
1063.128, 484.9445
1063.610, 467.5288
1064.093, 450.4223
1064.575, 433.8167
1065.057, 417.8257
1065.539, 402.7787
1066.021, 387.9834
1066.503, 372.4915
1066.985, 357.8420
1067.467, 345.5658
1067.949, 334.8933
1068.432, 324.4830
1068.914, 314.1016
1069.396, 303.9020
1069.878, 293.8083
1070.360, 284.2047
1070.842, 274.8575
1071.324, 266.4146
1071.806, 259.7257
1072.288, 254.0370
1072.771, 248.2830
1073.253, 242.2411
1073.735, 236.1671
1074.217, 230.2011
1074.699, 224.1410
1075.181, 217.0813
1075.663, 210.7190
1076.145, 207.1006
1076.627, 204.5343
1077.110, 200.1213
1077.592, 194.1054
1078.074, 189.7847
1078.556, 188.8872
1079.038, 188.3114
1079.520, 187.0837
1080.002, 185.1328
1080.484, 181.8522
1080.967, 178.2013
1081.449, 175.4761
1081.931, 173.5496
1082.413, 171.2952
1082.895, 168.1534
1083.377, 165.5266
1083.859, 164.6485
1084.341, 163.8026
1084.823, 161.4581
1085.306, 158.9279
1085.788, 157.7838
1086.270, 157.7800
1086.752, 157.8774
1087.234, 157.8604
1087.716, 157.4157
1088.198, 156.0330
1088.680, 154.6494
1089.163, 153.7761
1089.645, 153.1297
1090.127, 152.3594
1090.609, 151.6047
1091.091, 151.1935
1091.573, 151.1936
1092.055, 151.5784
1092.537, 152.7600
1093.020, 153.7689
1093.502, 154.3496
1093.984, 154.4264
1094.466, 153.4221
1094.948, 152.1152
1095.430, 151.8665
1095.912, 152.8146
1096.394, 153.7779
1096.876, 154.4220
1097.359, 154.9757
1097.841, 155.1780
1098.323, 155.6782
1098.805, 157.3521
1099.287, 159.3018
1099.769, 160.2002
1100.251, 160.1034
1100.733, 160.2588
1101.215, 161.0789
1101.698, 161.9092
1102.180, 162.5407
1102.662, 163.1841
1103.144, 163.8878
1103.626, 164.6994
1104.108, 165.5577
1104.590, 166.5623
1105.072, 168.1776
1105.554, 170.8835
1106.037, 172.7814
1106.519, 173.4962
1107.001, 173.4005
1107.483, 171.4109
1107.965, 169.7795
1108.447, 170.8327
1108.929, 173.4661
1109.411, 174.9578
1109.894, 174.8311
1110.376, 175.3698
1110.858, 177.7640
1111.340, 179.4523
1111.822, 179.3923
1112.304, 179.0961
1112.786, 179.4515
1113.268, 180.1223
1113.750, 180.6540
1114.233, 181.0412
1114.715, 181.0464
1115.197, 179.7920
1115.679, 179.6224
1116.161, 182.3565
1116.643, 183.8500
1117.125, 180.9374
1117.607, 177.4354
1118.090, 178.1498
1118.572, 182.0429
1119.054, 183.0594
1119.536, 179.6029
1120.018, 177.2146
1120.500, 176.0553
1120.982, 175.7340
1121.464, 176.7799
1121.947, 177.5891
1122.429, 176.7762
1122.911, 174.8637
1123.393, 173.1483
1123.875, 171.6455
1124.357, 170.3626
1124.839, 169.6329
1125.321, 167.8164
1125.803, 163.9366
1126.286, 161.0312
1126.768, 161.3225
1127.250, 162.5732
1127.732, 161.0317
1128.214, 157.1289
1128.696, 156.0658
1129.178, 158.3217
1129.660, 159.6732
1130.142, 159.7091
1130.625, 158.5632
1131.107, 156.0744
1131.589, 153.6660
1132.071, 152.8835
1132.553, 153.1996
1133.035, 153.0678
1133.517, 152.5031
1133.999, 151.8857
1134.481, 151.2280
1134.964, 150.3987
1135.446, 149.3644
1135.928, 148.2883
1136.410, 147.2361
1136.892, 146.5430
1137.374, 147.1929
1137.856, 148.6328
1138.338, 148.3490
1138.821, 146.7111
1139.303, 145.1128
1139.785, 143.9719
1140.267, 144.5281
1140.749, 147.3118
1141.231, 150.4179
1141.713, 151.8542
1142.195, 153.6033
1142.677, 153.7255
1143.160, 155.2435
1143.642, 155.7087
1144.124, 155.4204
1144.606, 155.6037
1145.088, 156.5878
1145.570, 157.9924
1146.052, 159.6217
1146.534, 161.4160
1147.017, 163.8264
1147.499, 165.9396
1147.981, 166.0465
1148.463, 165.3085
1148.945, 165.7104
1149.427, 167.3644
1149.909, 169.4937
1150.391, 171.8192
1150.874, 174.0592
1151.356, 176.0145
1151.838, 177.8118
1152.320, 179.3866
1152.802, 180.9630
1153.284, 183.0971
1153.766, 185.2832
1154.248, 186.3129
1154.730, 186.1351
1155.213, 186.5531
1155.695, 188.4362
1156.177, 190.5430
1156.659, 192.6470
1157.141, 194.6465
1157.623, 196.5468
1158.105, 198.2661
1158.587, 199.5171
1159.069, 200.4943
1159.552, 202.0555
1160.034, 204.7419
1160.516, 206.4242
1160.998, 206.1199
1161.480, 205.9223
1161.962, 206.2612
1162.444, 206.8626
1162.926, 207.8466
1163.408, 208.8020
1163.891, 209.0772
1164.373, 208.6779
1164.855, 207.8713
1165.337, 206.1435
1165.819, 205.5977
1166.301, 207.0426
1166.783, 207.8366
1167.265, 206.9752
1167.748, 205.1240
1168.230, 202.6626
1168.712, 200.0553
1169.194, 198.8968
1169.676, 199.2825
1170.158, 198.1851
1170.640, 195.5231
1171.122, 192.9277
1171.604, 190.6915
1172.087, 189.3275
1172.569, 189.1648
1173.051, 189.3023
1173.533, 188.5351
1174.015, 187.2271
1174.497, 186.4387
1174.979, 186.0140
1175.461, 185.3840
1175.944, 184.5212
1176.426, 183.4129
1176.908, 182.1485
1177.390, 181.5189
1177.872, 182.2190
1178.354, 182.9375
1178.836, 181.5968
1179.318, 179.7471
1179.801, 179.8735
1180.283, 181.0271
1180.765, 181.4343
1181.247, 181.0904
1181.729, 180.8423
1182.211, 180.9724
1182.693, 181.1887
1183.175, 180.9708
1183.657, 181.2431
1184.140, 183.3748
1184.622, 185.4436
1185.104, 185.4808
1185.586, 184.5979
1186.068, 184.4495
1186.550, 185.1142
1187.032, 185.8402
1187.514, 186.5623
1187.996, 187.0353
1188.479, 186.6358
1188.961, 186.7592
1189.443, 188.6430
1189.925, 190.4238
1190.407, 190.6951
1190.889, 189.9787
1191.371, 188.9594
1191.853, 187.6335
1192.335, 186.9203
1192.818, 187.0620
1193.300, 187.2193
1193.782, 187.5618
1194.264, 187.3093
1194.746, 186.2059
1195.228, 184.2460
1195.710, 181.1267
1196.192, 177.7205
1196.675, 176.2313
1197.157, 176.5795
1197.639, 177.1519
1198.121, 177.9052
1198.603, 177.3836
1199.085, 175.3907
1199.567, 172.5191
1200.049, 169.0667
1200.531, 166.2245
1201.014, 165.4401
1201.496, 165.5379
1201.978, 164.7370
1202.460, 163.0743
1202.942, 160.2554
1203.424, 156.7513
1203.906, 153.7560
1204.388, 151.3808
1204.871, 148.6910
1205.353, 145.1928
1205.835, 142.6897
1206.317, 144.1526
1206.799, 145.2168
1207.281, 141.7519
1207.763, 136.8811
1208.245, 133.4168
1208.728, 131.0951
1209.210, 128.7428
1209.692, 126.3774
1210.174, 125.4122
1210.656, 127.0470
1211.138, 128.1130
1211.620, 127.8821
1212.102, 127.1236
1212.584, 125.5689
1213.067, 124.1435
1213.549, 123.8602
1214.031, 123.9199
1214.513, 122.7806
1214.995, 120.4476
1215.477, 118.5981
1215.959, 117.3862
1216.441, 116.0130
1216.923, 114.2573
1217.406, 113.1847
1217.888, 113.2938
1218.370, 113.4429
1218.852, 112.6266
1219.334, 111.5238
1219.816, 111.9672
1220.298, 113.2934
1220.780, 111.0740
1221.262, 106.3841
1221.745, 105.1565
1222.227, 107.4743
1222.709, 109.1656
1223.191, 108.7531
1223.673, 107.7863
1224.155, 107.3688
1224.637, 107.1484
1225.119, 107.0544
1225.602, 106.6543
1226.084, 104.9285
1226.566, 102.8530
1227.048, 102.1480
1227.530, 102.4673
1228.012, 102.2029
1228.494, 100.9228
1228.976, 99.91650
1229.458, 99.96934
1229.941, 99.94321
1230.423, 98.93216
1230.905, 98.39509
1231.387, 99.87198
1231.869, 101.6494
1232.351, 101.6158
1232.833, 100.3745
1233.315, 99.90849
1233.798, 100.4747
1234.280, 100.1682
1234.762, 98.52566
1235.244, 97.68342
1235.726, 98.22114
1236.208, 98.47771
1236.690, 97.69529
1237.172, 96.29935
1237.655, 94.51014
1238.137, 92.97330
1238.619, 93.69777
1239.101, 96.07006
1239.583, 97.21809
1240.065, 97.25637
1240.547, 96.75455
1241.029, 95.97767
1241.511, 95.56339
1241.994, 95.75008
1242.476, 96.05949
1242.958, 96.17115
1243.440, 96.13435
1243.922, 96.19503
1244.404, 95.93910
1244.886, 94.37694
1245.368, 92.59846
1245.850, 92.51353
1246.333, 93.60123
1246.815, 93.52876
1247.297, 91.62164
1247.779, 90.34765
1248.261, 90.59499
1248.743, 90.99292
1249.225, 91.65992
1249.707, 91.91866
1250.189, 91.34223
1250.672, 90.36298
1251.154, 88.95643
1251.636, 87.82811
1252.118, 89.54940
1252.600, 88.89336
1253.082, 88.83425
1253.564, 90.50713
1254.046, 88.67161
1254.529, 90.37304
1255.011, 91.02274
1255.493, 88.80460
1255.975, 86.88725
1256.457, 88.14201
1256.939, 90.63023
1257.421, 91.56628
1257.903, 91.54839
1258.385, 91.31035
1258.868, 91.07798
1259.350, 91.47816
1259.832, 92.15630
1260.314, 91.88215
1260.796, 90.42269
1261.278, 89.09580
1261.760, 88.14756
1262.242, 88.12650
1262.725, 90.63620
1263.207, 92.39621
1263.689, 90.73571
1264.171, 88.50842
1264.653, 88.40634
1265.135, 89.57319
1265.617, 90.22936
1266.099, 90.38174
1266.582, 90.78842
1267.064, 91.76270
1267.546, 91.42054
1268.028, 89.19260
1268.510, 88.75603
1268.992, 91.44164
1269.474, 93.00868
1269.956, 90.47045
1270.438, 86.80688
1270.921, 86.31606
1271.403, 87.72221
1271.885, 88.16492
1272.367, 88.10065
1272.849, 88.75509
1273.331, 89.78809
1273.813, 89.99709
1274.295, 89.30936
1274.777, 88.46837
1275.260, 87.67687
1275.742, 87.74891
1276.224, 90.44592
1276.706, 92.31931
1277.188, 90.90553
1277.670, 88.94540
1278.152, 88.01207
1278.634, 87.87794
1279.116, 88.62183
1279.599, 89.79516
1280.081, 89.68250
1280.563, 89.86206
1281.045, 89.86752
1281.527, 88.72973
1282.009, 88.81770
1282.491, 87.05239
1282.973, 85.44099
1283.456, 84.76152
1283.938, 85.26777
1284.420, 87.41856
1284.902, 89.76021
1285.384, 90.17821
##END=



