##NAMES=Romeite
##RRUFFID=R060323
##IDEAL CHEMISTRY=(Ca,Fe^2+^,Mn^2+^,Na)_2_(Sb^5+^,Ti^4+^)_2_O_6_(O,OH,F)
##LOCALITY=Praborna mine, Aosta Valley, St. Marcel, Italy
##OWNER=RRUFF
##SOURCE=Michael Scott
##DESCRIPTION=Yellowish-brown octahedra, associated with red piemontite, R060905. Note that this is a fluorine rich phase.
##STATUS=The identification of this mineral is confirmed by single-crystal X-ray diffraction and chemical analysis.
##URL=rruff.info/R060323
##MEASURED CHEMISTRY=dark: (Ca_1.44_[box]_0.25_Na_0.24_Fe^2+^_0.05_Mn^2+^_0.02_)_Σ=2_(Sb^5+^_1.74_Ti^4+^_0.26_)_Σ=2_O_6_(F_0.65_(OH)_0.35_)_Σ=1_ ; light: (Ca_1.33_[box]_0.32_Na_0.26_Fe^2+^_0.06_Mn^2+^_0.03_)_Σ=2_(Sb^5+^_1.90_Ti^4+^_0.10_)_Σ=2_O_6_(F_0.56_(OH)_0.44_)_Σ=1
91.53320, 736.2048
92.01532, 734.1643
92.49744, 731.6395
92.97955, 739.8903
93.46167, 748.3436
93.94379, 747.9381
94.42590, 742.2157
94.90802, 734.4657
95.39014, 726.3596
95.87225, 717.9027
96.35437, 709.3394
96.83649, 701.1898
97.31860, 693.5012
97.80072, 686.1848
98.28284, 678.2621
98.76495, 669.4493
99.24707, 661.9279
99.72919, 656.4794
100.2113, 651.7245
100.6934, 647.5436
101.1755, 643.6300
101.6577, 639.5463
102.1398, 634.7039
102.6219, 628.6347
103.1040, 624.2200
103.5861, 621.6158
104.0682, 619.8563
104.5504, 618.5875
105.0325, 617.6631
105.5146, 616.8931
105.9967, 615.9750
106.4788, 614.8656
106.9609, 613.5074
107.4431, 611.5561
107.9252, 609.4003
108.4073, 607.5859
108.8894, 606.3036
109.3715, 605.3497
109.8536, 604.4214
110.3358, 603.5399
110.8179, 602.5565
111.3000, 601.2321
111.7821, 599.6229
112.2642, 598.2910
112.7463, 597.4548
113.2285, 597.0394
113.7106, 597.0383
114.1927, 597.5477
114.6748, 598.2055
115.1569, 598.5273
115.6390, 598.4576
116.1212, 598.1567
116.6033, 597.2292
117.0854, 596.2786
117.5675, 596.0484
118.0496, 597.0193
118.5317, 598.8028
119.0139, 599.5310
119.4960, 598.0955
119.9781, 596.6546
120.4602, 595.4428
120.9423, 594.5017
121.4244, 593.8672
121.9066, 593.6057
122.3887, 593.7639
122.8708, 593.5872
123.3529, 592.8473
123.8350, 592.0582
124.3171, 591.4559
124.7993, 591.0483
125.2814, 590.7039
125.7635, 590.2839
126.2456, 589.7602
126.7277, 589.3097
127.2098, 589.0561
127.6920, 588.8184
128.1741, 588.4176
128.6562, 587.8207
129.1383, 587.0450
129.6204, 586.0574
130.1025, 584.8826
130.5847, 583.6301
131.0668, 582.2094
131.5489, 580.7141
132.0310, 579.5286
132.5131, 579.0137
132.9952, 578.5048
133.4774, 577.4514
133.9595, 575.8470
134.4416, 573.9885
134.9237, 571.8077
135.4058, 569.0938
135.8879, 567.5217
136.3701, 568.9326
136.8522, 570.6476
137.3343, 571.0399
137.8164, 569.7266
138.2985, 567.6290
138.7806, 566.3155
139.2628, 566.2996
139.7449, 566.1923
140.2270, 565.9021
140.7091, 565.4539
141.1912, 564.6891
141.6733, 563.5420
142.1555, 562.3303
142.6376, 562.1807
143.1197, 564.7713
143.6018, 566.6027
144.0839, 566.8829
144.5660, 566.2028
145.0482, 565.4789
145.5303, 565.2195
146.0124, 565.3871
146.4945, 565.7103
146.9766, 566.1964
147.4587, 566.7814
147.9409, 567.6481
148.4230, 568.6803
148.9051, 569.3179
149.3872, 568.9248
149.8693, 567.7778
150.3514, 567.5007
150.8336, 568.9558
151.3157, 570.7787
151.7978, 571.5677
152.2799, 571.1434
152.7620, 570.8225
153.2441, 571.8361
153.7263, 573.6405
154.2084, 575.4263
154.6905, 577.1766
155.1726, 578.6860
155.6547, 579.3077
156.1368, 578.3500
156.6190, 577.7723
157.1011, 578.8270
157.5832, 580.9623
158.0653, 583.1494
158.5474, 584.7900
159.0295, 585.9068
159.5117, 586.8004
159.9938, 587.2549
160.4759, 587.6804
160.9580, 588.1173
161.4401, 588.6279
161.9222, 589.3459
162.4044, 590.5153
162.8865, 592.3451
163.3686, 593.3802
163.8507, 592.3708
164.3328, 591.6891
164.8149, 592.5087
165.2971, 594.8051
165.7792, 597.7634
166.2613, 600.5507
166.7434, 603.3918
167.2255, 605.1868
167.7076, 604.9578
168.1898, 604.5156
168.6719, 605.2849
169.1540, 607.5049
169.6361, 610.1844
170.1182, 611.8714
170.6003, 611.8680
171.0825, 612.6750
171.5646, 615.6094
172.0467, 618.9420
172.5288, 620.2577
173.0109, 618.6506
173.4930, 616.2558
173.9752, 617.0778
174.4573, 621.5214
174.9394, 625.1951
175.4215, 626.2072
175.9036, 625.5419
176.3857, 625.4634
176.8679, 626.8625
177.3500, 628.6740
177.8321, 629.3009
178.3142, 628.6262
178.7963, 628.1837
179.2784, 629.2446
179.7606, 631.5859
180.2427, 633.2768
180.7248, 633.2936
181.2069, 632.8975
181.6890, 633.2100
182.1711, 634.3324
182.6533, 635.7226
183.1354, 636.8807
183.6175, 637.7748
184.0996, 638.6998
184.5817, 639.6621
185.0638, 640.7219
185.5460, 642.0081
186.0281, 643.5355
186.5102, 645.0505
186.9923, 646.1680
187.4744, 646.7330
187.9565, 647.2932
188.4387, 648.0085
188.9208, 648.6908
189.4029, 649.2061
189.8850, 649.5142
190.3671, 649.6536
190.8492, 649.7209
191.3314, 649.8751
191.8135, 649.6399
192.2956, 648.7368
192.7777, 647.6101
193.2598, 646.7408
193.7419, 646.3058
194.2241, 645.9914
194.7062, 645.0421
195.1883, 642.5608
195.6704, 640.4315
196.1525, 638.9036
196.6346, 637.6863
197.1168, 636.4365
197.5989, 635.0036
198.0810, 633.4794
198.5631, 632.1359
199.0452, 631.0573
199.5273, 630.0284
200.0095, 629.2048
200.4916, 628.3864
200.9737, 627.1729
201.4558, 625.3090
201.9379, 623.0791
202.4200, 621.3275
202.9022, 620.5471
203.3843, 619.3425
203.8664, 616.7989
204.3485, 613.3880
204.8306, 610.4310
205.3127, 608.5380
205.7949, 607.4189
206.2770, 606.4421
206.7591, 605.8482
207.2412, 604.8912
207.7233, 603.1058
208.2054, 600.5508
208.6876, 597.5967
209.1697, 594.1841
209.6518, 590.5759
210.1339, 587.1389
210.6160, 583.8566
211.0981, 580.8770
211.5803, 578.3984
212.0624, 576.4260
212.5445, 574.5936
213.0266, 573.0229
213.5087, 571.3965
213.9908, 569.4209
214.4730, 567.0510
214.9551, 564.4153
215.4372, 561.5438
215.9193, 558.3318
216.4014, 555.4789
216.8836, 553.5397
217.3657, 551.8375
217.8478, 549.8863
218.3299, 547.5746
218.8120, 545.1954
219.2941, 543.1844
219.7763, 541.6471
220.2584, 540.1334
220.7405, 538.9818
221.2226, 537.5582
221.7047, 535.0656
222.1868, 531.3524
222.6690, 527.4809
223.1511, 525.2677
223.6332, 525.5736
224.1153, 525.6065
224.5974, 525.2473
225.0795, 524.4814
225.5617, 523.2180
226.0438, 521.4563
226.5259, 519.3742
227.0080, 517.2087
227.4901, 514.6235
227.9722, 512.6562
228.4544, 511.8358
228.9365, 511.2562
229.4186, 510.2760
229.9007, 508.7037
230.3828, 506.7108
230.8649, 504.5343
231.3471, 501.3197
231.8292, 499.4079
232.3113, 499.8276
232.7934, 500.8283
233.2755, 500.9967
233.7576, 499.9390
234.2398, 498.1737
234.7219, 496.5476
235.2040, 495.0051
235.6861, 493.7450
236.1682, 492.9262
236.6503, 492.2920
237.1325, 491.6928
237.6146, 491.0771
238.0967, 490.3177
238.5788, 489.1405
239.0609, 487.0111
239.5430, 485.8204
240.0252, 486.3390
240.5073, 487.4845
240.9894, 488.1980
241.4715, 488.2303
241.9536, 487.9723
242.4357, 487.9178
242.9179, 488.1014
243.4000, 488.3629
243.8821, 488.9427
244.3642, 489.4776
244.8463, 489.3583
245.3284, 488.4227
245.8106, 487.5591
246.2927, 488.0258
246.7748, 489.8877
247.2569, 491.3044
247.7390, 491.7360
248.2211, 491.7038
248.7033, 491.7308
249.1854, 491.8679
249.6675, 492.2624
250.1496, 493.0781
250.6317, 494.2912
251.1138, 495.8727
251.5960, 497.9018
252.0781, 500.2652
252.5602, 503.0026
253.0423, 506.1997
253.5244, 509.2113
254.0065, 511.0404
254.4887, 512.1439
254.9708, 513.8427
255.4529, 516.7217
255.9350, 520.2746
256.4171, 523.8276
256.8992, 527.3582
257.3813, 530.8977
257.8635, 534.2471
258.3456, 537.6399
258.8277, 541.6121
259.3098, 546.5812
259.7919, 552.0153
260.2740, 557.2991
260.7562, 562.5248
261.2383, 567.1766
261.7204, 570.1137
262.2025, 572.5069
262.6846, 575.9574
263.1667, 581.3873
263.6489, 587.4943
264.1310, 592.3812
264.6131, 595.7693
265.0952, 599.1512
265.5773, 603.1845
266.0594, 607.5405
266.5416, 611.8650
267.0237, 615.9363
267.5058, 620.3116
267.9879, 626.2068
268.4700, 634.1506
268.9521, 641.1133
269.4343, 644.8865
269.9164, 647.8746
270.3985, 652.0062
270.8806, 657.8309
271.3627, 663.9774
271.8448, 668.5426
272.3270, 671.1612
272.8091, 674.1987
273.2912, 678.7133
273.7733, 683.5123
274.2554, 687.6678
274.7375, 691.0856
275.2197, 694.7429
275.7018, 700.1795
276.1839, 707.8094
276.6660, 714.3596
277.1481, 718.5058
277.6302, 722.0040
278.1124, 725.4523
278.5945, 728.9863
279.0766, 732.5942
279.5587, 736.3516
280.0408, 740.3204
280.5229, 743.9931
281.0051, 747.1323
281.4872, 750.1266
281.9693, 753.0606
282.4514, 755.9695
282.9335, 758.9303
283.4156, 762.0345
283.8978, 765.2889
284.3799, 768.3977
284.8620, 771.8243
285.3441, 774.5623
285.8262, 775.8994
286.3083, 776.2670
286.7905, 776.5819
287.2726, 777.4648
287.7547, 778.8701
288.2368, 780.3802
288.7189, 782.1280
289.2010, 783.8214
289.6832, 785.6148
290.1653, 787.2567
290.6474, 788.4718
291.1295, 789.1534
291.6116, 789.1961
292.0938, 788.0029
292.5759, 784.0419
293.0580, 781.0721
293.5401, 780.6083
294.0222, 781.1339
294.5043, 781.0564
294.9865, 779.6752
295.4686, 777.2263
295.9507, 774.2101
296.4328, 770.3226
296.9149, 766.3798
297.3970, 762.0477
297.8792, 757.9514
298.3613, 755.1276
298.8434, 753.7505
299.3255, 752.3871
299.8076, 748.3362
300.2897, 739.6835
300.7719, 732.6647
301.2540, 728.1850
301.7361, 724.6862
302.2182, 721.5020
302.7003, 718.3594
303.1824, 714.9060
303.6646, 710.6329
304.1467, 705.3283
304.6288, 699.9929
305.1109, 694.8981
305.5930, 689.5070
306.0751, 683.5124
306.5573, 676.9684
307.0394, 670.1270
307.5215, 663.1390
308.0036, 655.9194
308.4857, 649.2328
308.9678, 643.7308
309.4500, 638.1205
309.9321, 631.8442
310.4142, 625.1474
310.8963, 618.6155
311.3784, 612.6408
311.8605, 607.1259
312.3427, 601.4063
312.8248, 594.7458
313.3069, 588.7147
313.7890, 584.1951
314.2711, 580.2733
314.7532, 575.4991
315.2354, 569.1240
315.7175, 562.0225
316.1996, 556.9236
316.6817, 555.6619
317.1638, 553.5225
317.6459, 549.6069
318.1281, 544.8965
318.6102, 540.1398
319.0923, 535.6115
319.5744, 531.3571
320.0565, 527.4080
320.5386, 523.5999
321.0208, 520.5492
321.5029, 519.2280
321.9850, 517.8451
322.4671, 514.9272
322.9492, 510.5113
323.4313, 506.0293
323.9135, 503.0316
324.3956, 501.7737
324.8777, 500.7539
325.3598, 499.9860
325.8419, 499.4372
326.3240, 499.3312
326.8062, 499.4664
327.2883, 499.3703
327.7704, 498.6756
328.2525, 497.4032
328.7346, 495.8810
329.2167, 493.3784
329.6989, 491.4834
330.1810, 490.9039
330.6631, 491.0925
331.1452, 491.2783
331.6273, 491.0626
332.1094, 490.5283
332.5916, 489.8657
333.0737, 488.7005
333.5558, 488.0969
334.0379, 488.6920
334.5200, 489.6042
335.0021, 489.8287
335.4843, 489.0684
335.9664, 488.1587
336.4485, 488.6522
336.9306, 491.3070
337.4127, 493.0867
337.8948, 492.9303
338.3770, 492.4423
338.8591, 492.5863
339.3412, 493.4177
339.8233, 494.3351
340.3055, 494.6109
340.7876, 494.1289
341.2697, 494.1863
341.7518, 495.6559
342.2339, 496.8118
342.7160, 496.7953
343.1982, 495.9183
343.6803, 495.0003
344.1624, 494.5953
344.6445, 494.5965
345.1266, 494.4073
345.6087, 493.6241
346.0909, 493.3510
346.5730, 494.3461
347.0551, 495.8397
347.5372, 496.8033
348.0193, 496.7570
348.5014, 496.2500
348.9836, 496.4862
349.4657, 497.9515
349.9478, 498.5117
350.4299, 496.4141
350.9120, 493.9300
351.3941, 492.9013
351.8763, 493.6447
352.3584, 494.7062
352.8405, 494.5990
353.3226, 493.2937
353.8047, 491.8026
354.2868, 489.7950
354.7690, 488.1310
355.2511, 487.7990
355.7332, 488.4234
356.2153, 488.4369
356.6974, 486.3553
357.1795, 482.7683
357.6617, 480.1010
358.1438, 478.9089
358.6259, 477.5582
359.1080, 474.6021
359.5901, 470.9886
360.0722, 468.3350
360.5544, 467.7618
361.0365, 467.7672
361.5186, 465.9694
362.0007, 462.1145
362.4828, 458.5104
362.9649, 456.2252
363.4471, 454.6116
363.9292, 453.0186
364.4113, 451.4435
364.8934, 449.5898
365.3755, 447.1314
365.8576, 444.1534
366.3398, 441.0518
366.8219, 437.6591
367.3040, 434.5499
367.7861, 432.5490
368.2682, 431.5350
368.7503, 430.2122
369.2325, 427.7753
369.7146, 424.7779
370.1967, 422.1794
370.6788, 420.0926
371.1609, 418.1797
371.6430, 416.2404
372.1252, 414.2758
372.6073, 412.3322
373.0894, 410.1763
373.5715, 408.2402
374.0536, 407.1588
374.5357, 406.7604
375.0179, 405.8411
375.5000, 403.4588
375.9821, 400.5592
376.4642, 399.5024
376.9463, 401.1823
377.4284, 402.3909
377.9106, 401.3852
378.3927, 399.2598
378.8748, 397.8790
379.3569, 397.7513
379.8390, 398.3408
380.3211, 399.0890
380.8033, 400.0543
381.2854, 400.8116
381.7675, 401.1113
382.2496, 401.3454
382.7317, 401.8570
383.2138, 402.6396
383.6960, 403.4141
384.1781, 403.9337
384.6602, 404.2357
385.1423, 404.9316
385.6244, 406.8284
386.1065, 408.1473
386.5887, 407.5638
387.0708, 406.1343
387.5529, 405.8351
388.0350, 407.5777
388.5171, 410.3392
388.9992, 411.8582
389.4814, 410.7732
389.9635, 410.4905
390.4456, 411.6286
390.9277, 413.1476
391.4098, 414.0675
391.8919, 414.3420
392.3741, 414.7834
392.8562, 416.3163
393.3383, 419.1632
393.8204, 421.4518
394.3025, 422.7657
394.7846, 424.0026
395.2668, 425.5481
395.7489, 427.2366
396.2310, 428.7762
396.7131, 430.0224
397.1952, 430.9084
397.6773, 431.1271
398.1595, 429.8837
398.6416, 429.3055
399.1237, 429.8847
399.6058, 431.0149
400.0879, 432.1949
400.5700, 433.3031
401.0522, 434.5219
401.5343, 436.2280
402.0164, 438.5785
402.4985, 440.4233
402.9806, 441.4437
403.4627, 442.1730
403.9449, 442.8251
404.4270, 443.3704
404.9091, 443.6660
405.3912, 443.4878
405.8733, 443.0614
406.3554, 443.1354
406.8376, 443.8903
407.3197, 444.6975
407.8018, 445.4845
408.2839, 446.1148
408.7660, 446.3421
409.2481, 446.0448
409.7303, 445.7065
410.2124, 445.9147
410.6945, 446.6237
411.1766, 447.0923
411.6587, 447.0854
412.1408, 446.8893
412.6230, 446.7223
413.1051, 446.5935
413.5872, 446.5843
414.0693, 446.8436
414.5514, 447.2018
415.0335, 447.3732
415.5157, 447.3293
415.9978, 447.2272
416.4799, 447.0990
416.9620, 447.0035
417.4441, 447.1117
417.9262, 447.6830
418.4084, 448.1198
418.8905, 448.0377
419.3726, 447.5573
419.8547, 446.9714
420.3368, 446.3688
420.8189, 445.7286
421.3011, 444.8857
421.7832, 443.5810
422.2653, 443.1836
422.7474, 444.7419
423.2295, 446.6637
423.7116, 447.4288
424.1938, 447.0447
424.6759, 446.7190
425.1580, 447.5112
425.6401, 449.3039
426.1222, 449.8953
426.6043, 447.8995
427.0865, 446.5026
427.5686, 446.9412
428.0507, 448.3072
428.5328, 449.2660
429.0149, 449.3132
429.4970, 448.9823
429.9792, 449.2820
430.4613, 450.8885
430.9434, 451.6178
431.4255, 450.7747
431.9076, 449.8275
432.3897, 449.3919
432.8719, 449.5864
433.3540, 450.4667
433.8361, 452.2522
434.3182, 454.7231
434.8003, 456.2187
435.2824, 455.8857
435.7646, 455.8669
436.2467, 457.0138
436.7288, 458.5542
437.2109, 459.6051
437.6930, 459.8859
438.1751, 459.9540
438.6573, 460.5411
439.1394, 461.6893
439.6215, 462.7741
440.1036, 463.7608
440.5857, 464.6018
441.0678, 465.0096
441.5500, 465.1918
442.0321, 465.9027
442.5142, 467.7275
442.9963, 470.2403
443.4784, 472.7938
443.9605, 475.4215
444.4427, 477.8232
444.9248, 479.7246
445.4069, 481.3504
445.8890, 483.0682
446.3711, 484.8944
446.8532, 486.8285
447.3354, 488.8541
447.8175, 490.9849
448.2996, 493.3126
448.7817, 495.8885
449.2638, 498.4328
449.7459, 500.5443
450.2281, 502.1899
450.7102, 504.1989
451.1923, 506.8120
451.6744, 509.6086
452.1565, 512.6885
452.6386, 515.7686
453.1208, 517.8384
453.6029, 518.2121
454.0850, 517.8073
454.5671, 519.1882
455.0492, 524.9055
455.5313, 528.9515
456.0135, 529.7005
456.4956, 529.8047
456.9777, 531.6685
457.4598, 535.4002
457.9419, 539.2468
458.4240, 541.4403
458.9062, 541.9419
459.3883, 543.4261
459.8704, 547.2012
460.3525, 550.5315
460.8346, 552.6247
461.3167, 554.0150
461.7989, 555.2997
462.2810, 556.7053
462.7631, 558.3387
463.2452, 560.4734
463.7273, 563.2285
464.2094, 565.7547
464.6916, 567.6990
465.1737, 569.6107
465.6558, 571.9682
466.1379, 574.5974
466.6200, 576.8668
467.1021, 577.9637
467.5843, 578.6854
468.0664, 580.8099
468.5485, 584.5449
469.0306, 588.2670
469.5127, 591.4234
469.9948, 594.0231
470.4770, 596.0872
470.9591, 597.5629
471.4412, 598.7203
471.9233, 599.3955
472.4054, 599.9227
472.8875, 600.7088
473.3697, 601.7883
473.8518, 603.8159
474.3339, 607.7681
474.8160, 613.6010
475.2981, 618.0949
475.7802, 620.1151
476.2624, 622.0101
476.7445, 625.0140
477.2266, 628.6232
477.7087, 631.5621
478.1908, 633.3236
478.6729, 634.9805
479.1551, 638.5495
479.6372, 645.2514
480.1193, 651.0648
480.6014, 654.4230
481.0835, 658.4303
481.5656, 664.8796
482.0478, 673.4840
482.5299, 683.0560
483.0120, 692.8278
483.4941, 702.9183
483.9762, 713.4141
484.4583, 724.1281
484.9405, 735.6842
485.4226, 747.9000
485.9047, 761.1669
486.3868, 775.7606
486.8689, 791.7234
487.3510, 808.7084
487.8332, 825.9991
488.3153, 843.8719
488.7974, 864.3427
489.2795, 887.6888
489.7616, 913.0703
490.2437, 940.6331
490.7259, 969.8180
491.2080, 1000.333
491.6901, 1031.590
492.1722, 1064.782
492.6543, 1100.683
493.1364, 1139.077
493.6186, 1178.892
494.1007, 1219.951
494.5828, 1263.641
495.0649, 1312.022
495.5470, 1365.584
496.0291, 1420.548
496.5113, 1476.329
496.9934, 1534.216
497.4755, 1594.733
497.9576, 1658.014
498.4397, 1724.704
498.9218, 1794.757
499.4040, 1867.494
499.8861, 1940.537
500.3682, 2012.990
500.8503, 2086.708
501.3324, 2162.425
501.8145, 2238.901
502.2967, 2316.638
502.7788, 2394.903
503.2609, 2472.272
503.7430, 2548.116
504.2251, 2622.521
504.7072, 2694.772
505.1894, 2764.171
505.6715, 2833.718
506.1536, 2904.014
506.6357, 2975.006
507.1178, 3046.515
507.5999, 3118.501
508.0821, 3190.568
508.5642, 3262.087
509.0463, 3333.350
509.5284, 3406.853
510.0105, 3483.695
510.4926, 3557.842
510.9748, 3624.266
511.4569, 3685.124
511.9390, 3746.429
512.4211, 3810.152
512.9032, 3870.429
513.3853, 3924.736
513.8674, 3973.396
514.3495, 4017.698
514.8317, 4058.266
515.3138, 4090.316
515.7959, 4109.960
516.2780, 4117.256
516.7601, 4106.895
517.2422, 4078.230
517.7244, 4035.714
518.2065, 3981.844
518.6886, 3914.756
519.1707, 3831.074
519.6528, 3729.981
520.1349, 3613.992
520.6171, 3486.147
521.0992, 3344.018
521.5813, 3200.006
522.0634, 3050.867
522.5455, 2903.096
523.0276, 2758.188
523.5098, 2616.316
523.9919, 2477.598
524.4740, 2340.095
524.9561, 2209.378
525.4382, 2092.515
525.9203, 1990.312
526.4025, 1893.664
526.8846, 1800.236
527.3667, 1713.350
527.8488, 1634.954
528.3309, 1564.771
528.8130, 1500.732
529.2952, 1443.992
529.7773, 1391.893
530.2594, 1342.124
530.7415, 1294.732
531.2236, 1249.828
531.7057, 1207.477
532.1879, 1167.622
532.6700, 1130.370
533.1521, 1096.447
533.6342, 1063.239
534.1163, 1030.025
534.5984, 998.2684
535.0806, 969.2551
535.5627, 942.6042
536.0448, 916.9973
536.5269, 891.7379
537.0090, 867.0214
537.4911, 844.0043
537.9733, 823.3683
538.4554, 802.4942
538.9375, 779.6625
539.4196, 757.6689
539.9017, 738.4615
540.3839, 721.7422
540.8660, 705.7479
541.3481, 689.2734
541.8302, 672.7783
542.3123, 657.1699
542.7944, 642.4495
543.2766, 628.8420
543.7587, 616.6571
544.2408, 605.5933
544.7229, 595.1228
545.2050, 585.2194
545.6871, 576.0154
546.1693, 567.7938
546.6514, 560.2001
547.1335, 552.8780
547.6156, 545.7981
548.0977, 538.7285
548.5798, 531.3795
549.0620, 524.1805
549.5441, 518.6394
550.0262, 516.7011
550.5083, 513.8756
550.9904, 509.2458
551.4725, 504.3937
551.9547, 500.4003
552.4368, 497.3360
552.9189, 494.7689
553.4010, 492.4259
553.8831, 490.3088
554.3652, 488.5553
554.8474, 487.4797
555.3295, 486.0013
555.8116, 483.3195
556.2937, 480.5000
556.7758, 478.4263
557.2579, 477.1048
557.7401, 475.6872
558.2222, 473.0435
558.7043, 470.2408
559.1864, 469.6782
559.6685, 471.4290
560.1506, 472.1731
560.6328, 469.8292
561.1149, 465.9436
561.5970, 463.9884
562.0791, 464.5039
562.5612, 464.7813
563.0433, 463.7486
563.5255, 462.7105
564.0076, 462.9650
564.4897, 464.3258
564.9718, 465.6623
565.4539, 466.2568
565.9360, 466.2907
566.4182, 466.3509
566.9003, 466.3795
567.3824, 466.5609
567.8645, 467.1069
568.3466, 467.6307
568.8287, 467.7147
569.3109, 467.5222
569.7930, 467.6632
570.2751, 468.6050
570.7572, 470.0280
571.2393, 471.3929
571.7214, 472.7337
572.2036, 473.5186
572.6857, 473.2347
573.1678, 472.6782
573.6499, 472.7805
574.1320, 473.5174
574.6141, 474.4083
575.0963, 475.0222
575.5784, 475.9724
576.0605, 478.0184
576.5426, 480.8945
577.0247, 483.7491
577.5068, 486.2074
577.9890, 488.3154
578.4711, 490.1523
578.9532, 491.6865
579.4353, 493.0080
