##NAMES=Rosiaite
##RRUFFID=R070384
##IDEAL CHEMISTRY=Pb^2+^Sb^5+^_2_O_6_
##LOCALITY=Le Cetine mine, Chiusdino, Tuscany, Italy
##OWNER=RRUFF
##SOURCE=Michael Scott
##DESCRIPTION=Pale yellow thin hexagonal tablets associated with valentinite, clinocervantite, R070385 and tripuhyite, R070383
##STATUS=The identification of this mineral is confirmed by single-crystal X-ray diffraction and chemical analysis.
##URL=rruff.info/R070384
##MEASURED CHEMISTRY=Pb_1.00_Sb_2.00_O_6_
118.8063, 47.06385
119.2885, 45.39379
119.7706, 45.74121
120.2527, 51.98777
120.7348, 62.18048
121.2169, 72.79790
121.6990, 82.55626
122.1812, 91.58839
122.6633, 99.52639
123.1454, 105.7057
123.6275, 112.5725
124.1096, 123.1305
124.5917, 136.6911
125.0739, 150.4412
125.5560, 161.5886
126.0381, 171.6490
126.5202, 184.0800
127.0023, 200.5523
127.4844, 218.6963
127.9666, 234.3942
128.4487, 247.6774
128.9308, 261.1062
129.4129, 277.5466
129.8950, 296.4416
130.3772, 314.0301
130.8593, 328.8461
131.3414, 341.6316
131.8235, 354.6754
132.3056, 367.6944
132.7877, 381.6544
133.2699, 397.9153
133.7520, 416.6223
134.2341, 436.1102
134.7162, 456.2145
135.1983, 477.0276
135.6804, 495.8601
136.1626, 511.3528
136.6447, 526.4175
137.1268, 546.8328
137.6089, 573.2557
138.0910, 602.2200
138.5731, 633.7943
139.0553, 671.2427
139.5374, 697.6328
140.0195, 710.6029
140.5016, 711.9285
140.9837, 707.6415
141.4658, 696.8647
141.9480, 681.7899
142.4301, 663.6757
142.9122, 641.6280
143.3943, 618.4044
143.8764, 593.1176
144.3585, 566.0800
144.8407, 542.0732
145.3228, 522.0244
145.8049, 504.4737
146.2870, 488.3915
146.7691, 475.4075
147.2512, 462.0110
147.7334, 447.3571
148.2155, 430.6736
148.6976, 415.5949
149.1797, 402.9070
149.6618, 391.5696
150.1439, 380.3181
150.6261, 367.5469
151.1082, 356.4328
151.5903, 347.9840
152.0724, 342.9310
152.5545, 338.9839
153.0366, 336.1533
153.5188, 334.3486
154.0009, 333.3962
154.4830, 334.9997
154.9651, 336.1585
155.4472, 335.4714
155.9293, 331.4349
156.4115, 327.5157
156.8936, 324.2065
157.3757, 321.4899
157.8578, 319.2421
158.3399, 317.7333
158.8221, 316.5110
159.3042, 315.2646
159.7863, 313.9097
160.2684, 312.5327
160.7505, 310.6508
161.2326, 308.4489
161.7148, 307.5092
162.1969, 309.7459
162.6790, 313.0912
163.1611, 315.5207
163.6432, 316.3423
164.1253, 316.1302
164.6075, 314.0399
165.0896, 310.0005
165.5717, 308.1306
166.0538, 313.0913
166.5359, 321.2678
167.0180, 327.4951
167.5002, 326.4667
167.9823, 324.7138
168.4644, 327.6977
168.9465, 336.3437
169.4286, 346.0646
169.9107, 354.1265
170.3929, 360.7838
170.8750, 366.7823
171.3571, 371.3322
171.8392, 375.8441
172.3213, 380.9226
172.8034, 385.5847
173.2856, 394.1349
173.7677, 413.7649
174.2498, 441.7283
174.7319, 468.2143
175.2140, 488.0597
175.6961, 502.5719
176.1783, 512.7717
176.6604, 516.9489
177.1425, 520.0634
177.6246, 527.6304
178.1067, 539.3620
178.5888, 553.9522
179.0710, 571.4207
179.5531, 590.8462
180.0352, 610.0189
180.5173, 628.3331
180.9994, 646.0314
181.4815, 661.5844
181.9637, 675.2751
182.4458, 691.6052
182.9279, 714.6165
183.4100, 743.6467
183.8921, 776.4556
184.3742, 812.1033
184.8564, 851.3277
185.3385, 896.4673
185.8206, 948.3749
186.3027, 1000.549
186.7848, 1041.660
187.2669, 1074.374
187.7491, 1120.555
188.2312, 1196.650
188.7133, 1292.199
189.1954, 1380.230
189.6775, 1465.785
190.1596, 1517.977
190.6418, 1490.237
191.1239, 1383.814
191.6060, 1253.633
192.0881, 1102.096
192.5702, 936.0079
193.0524, 816.7492
193.5345, 748.2491
194.0166, 716.6691
194.4987, 710.8834
194.9808, 732.5023
195.4629, 755.6904
195.9451, 766.1325
196.4272, 764.3326
196.9093, 770.3473
197.3914, 786.0924
197.8735, 807.6314
198.3556, 827.5446
198.8378, 845.2913
199.3199, 864.3600
199.8020, 884.7985
200.2841, 905.9226
200.7662, 935.7660
201.2483, 974.8806
201.7305, 1022.874
202.2126, 1078.770
202.6947, 1142.488
203.1768, 1214.418
203.6589, 1295.570
204.1410, 1385.570
204.6232, 1483.116
205.1053, 1591.058
205.5874, 1705.160
206.0695, 1807.671
206.5516, 1891.416
207.0337, 1982.412
207.5159, 2100.224
207.9980, 2246.008
208.4801, 2410.219
208.9622, 2620.451
209.4443, 2847.625
209.9264, 2950.526
210.4086, 2921.968
210.8907, 2782.587
211.3728, 2521.543
211.8549, 2085.408
212.3370, 1701.487
212.8191, 1397.327
213.3013, 1172.355
213.7834, 1004.529
214.2655, 905.3626
214.7476, 844.6365
215.2297, 800.5955
215.7118, 776.8619
216.1940, 758.9435
216.6761, 745.7753
217.1582, 737.0402
217.6403, 727.1086
218.1224, 716.1569
218.6045, 703.9365
219.0867, 689.7548
219.5688, 672.3772
220.0509, 656.1763
220.5330, 642.3565
221.0151, 630.7598
221.4972, 620.5810
221.9794, 612.4847
222.4615, 604.9658
222.9436, 596.2157
223.4257, 585.5187
223.9078, 574.8637
224.3899, 564.3322
224.8721, 553.5731
225.3542, 546.2351
225.8363, 545.1153
226.3184, 544.7100
226.8005, 537.6132
227.2827, 519.1256
227.7648, 502.9825
228.2469, 492.6950
228.7290, 488.8008
229.2111, 487.1986
229.6932, 490.2390
230.1754, 493.6885
230.6575, 491.4867
231.1396, 480.0765
231.6217, 469.2905
232.1038, 461.6747
232.5859, 457.5266
233.0681, 454.7943
233.5502, 452.4982
234.0323, 452.3036
234.5144, 457.1194
234.9965, 469.6812
235.4786, 482.5597
235.9608, 492.9784
236.4429, 499.3958
236.9250, 509.3494
237.4071, 520.4281
237.8892, 536.5271
238.3713, 565.2977
238.8535, 615.3712
239.3356, 663.6982
239.8177, 702.8094
240.2998, 730.8152
240.7819, 756.8983
241.2640, 780.7182
241.7462, 803.2319
242.2283, 825.8378
242.7104, 846.7178
243.1925, 870.6245
243.6746, 898.3155
244.1567, 928.3826
244.6389, 968.3271
245.1210, 1021.655
245.6031, 1082.607
246.0852, 1139.326
246.5673, 1183.910
247.0494, 1237.806
247.5316, 1310.271
248.0137, 1407.417
248.4958, 1502.685
248.9779, 1593.049
249.4600, 1682.793
249.9421, 1777.056
250.4243, 1874.945
250.9064, 1979.897
251.3885, 2091.507
251.8706, 2206.528
252.3527, 2344.609
252.8348, 2521.949
253.3170, 2711.944
253.7991, 2878.031
254.2812, 3063.811
254.7633, 3138.887
255.2454, 3035.750
255.7275, 2707.380
256.2097, 2371.554
256.6918, 2010.082
257.1739, 1657.390
257.6560, 1374.362
258.1381, 1171.807
258.6202, 1016.226
259.1024, 897.1478
259.5845, 820.3124
260.0666, 761.7444
260.5487, 724.8450
261.0308, 703.8081
261.5129, 687.8539
261.9951, 678.8857
262.4772, 670.7790
262.9593, 661.0718
263.4414, 648.9875
263.9235, 638.4303
264.4056, 628.8419
264.8878, 621.1978
265.3699, 617.0319
265.8520, 616.6332
266.3341, 618.8163
266.8162, 623.9699
267.2983, 632.8242
267.7805, 639.3780
268.2626, 642.5852
268.7447, 644.5932
269.2268, 648.9479
269.7089, 655.8171
270.1910, 664.4029
270.6732, 674.7673
271.1553, 687.0172
271.6374, 699.9666
272.1195, 714.3191
272.6016, 728.3650
273.0837, 737.5858
273.5659, 740.5428
274.0480, 746.2333
274.5301, 759.5705
275.0122, 780.8718
275.4943, 798.6821
275.9764, 812.0117
276.4586, 823.7115
276.9407, 837.6329
277.4228, 853.5736
277.9049, 871.8578
278.3870, 893.6110
278.8691, 918.5814
279.3513, 939.8851
279.8334, 955.9990
280.3155, 972.3651
280.7976, 998.7472
281.2798, 1035.497
281.7619, 1068.711
282.2440, 1091.746
282.7261, 1106.017
283.2082, 1122.820
283.6903, 1142.957
284.1725, 1162.679
284.6546, 1175.131
285.1367, 1180.630
285.6188, 1190.531
286.1009, 1210.905
286.5830, 1239.118
287.0652, 1264.106
287.5473, 1285.432
288.0294, 1304.784
288.5115, 1323.673
288.9936, 1342.142
289.4757, 1359.689
289.9579, 1375.392
290.4400, 1390.322
290.9221, 1408.460
291.4042, 1430.027
291.8863, 1452.058
292.3684, 1473.243
292.8506, 1492.835
293.3327, 1507.999
293.8148, 1517.587
294.2969, 1522.466
294.7790, 1527.109
295.2611, 1531.499
295.7433, 1526.514
296.2254, 1501.365
296.7075, 1459.912
297.1896, 1413.668
297.6717, 1361.177
298.1538, 1308.629
298.6360, 1266.515
299.1181, 1234.011
299.6002, 1205.941
300.0823, 1178.437
300.5644, 1152.207
301.0465, 1128.191
301.5287, 1106.043
302.0108, 1086.963
302.4929, 1071.753
302.9750, 1060.589
303.4571, 1055.331
303.9392, 1059.583
304.4214, 1069.688
304.9035, 1080.111
305.3856, 1086.254
305.8677, 1097.377
306.3498, 1126.517
306.8319, 1168.780
307.3141, 1207.583
307.7962, 1233.103
308.2783, 1249.921
308.7604, 1260.719
309.2425, 1260.673
309.7246, 1265.974
310.2068, 1288.954
310.6889, 1325.695
311.1710, 1366.128
311.6531, 1402.652
312.1352, 1442.735
312.6173, 1498.639
313.0995, 1585.781
313.5816, 1647.286
314.0637, 1662.113
314.5458, 1632.543
315.0279, 1563.571
315.5100, 1429.021
315.9922, 1276.722
316.4743, 1125.689
316.9564, 972.6945
317.4385, 843.6901
317.9206, 754.5641
318.4027, 692.8957
318.8849, 641.3256
319.3670, 597.8958
319.8491, 561.4123
320.3312, 531.6518
320.8133, 508.6327
321.2954, 491.6335
321.7776, 483.7998
322.2597, 480.4796
322.7418, 476.7146
323.2239, 471.6153
323.7060, 466.1861
324.1881, 460.7878
324.6703, 455.4938
325.1524, 449.3812
325.6345, 440.7745
326.1166, 432.2491
326.5987, 425.7998
327.0808, 422.4062
327.5630, 419.9795
328.0451, 419.2451
328.5272, 420.0207
329.0093, 418.2389
329.4914, 412.5653
329.9735, 405.6063
330.4557, 398.8362
330.9378, 390.9351
331.4199, 385.6333
331.9020, 384.2218
332.3841, 385.7758
332.8662, 385.6595
333.3484, 382.8949
333.8305, 379.9455
334.3126, 378.2190
334.7947, 378.2245
335.2768, 377.9122
335.7589, 377.0505
336.2411, 375.8889
336.7232, 374.8225
337.2053, 373.5445
337.6874, 373.2884
338.1695, 375.4645
338.6516, 380.6537
339.1338, 382.7142
339.6159, 380.7571
340.0980, 376.8655
340.5801, 374.2243
341.0622, 372.8047
341.5443, 372.7215
342.0265, 374.8728
342.5086, 378.8359
342.9907, 380.5745
343.4728, 379.7727
343.9549, 377.9231
344.4370, 376.8285
344.9192, 376.3985
345.4013, 375.7246
345.8834, 374.6408
346.3655, 373.0539
346.8476, 369.8567
347.3297, 364.9492
347.8119, 361.4908
348.2940, 364.6789
348.7761, 372.0424
349.2582, 375.8642
349.7403, 372.1879
350.2225, 365.8857
350.7046, 364.2143
351.1867, 366.6508
351.6688, 369.2770
352.1509, 367.9740
352.6331, 365.3873
353.1152, 365.8591
353.5973, 371.6808
354.0794, 378.2787
354.5615, 381.7002
355.0436, 382.5669
355.5258, 382.7704
356.0079, 382.7586
356.4900, 382.8662
356.9721, 383.2325
357.4542, 383.6688
357.9363, 385.0775
358.4185, 389.9325
358.9006, 395.8969
359.3827, 398.9281
359.8648, 393.0977
360.3469, 387.3777
360.8290, 387.3674
361.3112, 394.5011
361.7933, 400.2649
362.2754, 400.0194
362.7575, 397.7698
363.2396, 397.8700
363.7217, 402.4391
364.2039, 408.3123
364.6860, 414.4316
365.1681, 420.7940
365.6502, 429.1328
366.1323, 442.8296
366.6144, 456.6975
367.0966, 467.1772
367.5787, 470.6778
368.0608, 474.9047
368.5429, 480.0222
369.0250, 486.1705
369.5071, 493.8954
369.9893, 503.3895
370.4714, 514.1754
370.9535, 526.5693
371.4356, 542.8879
371.9177, 555.1707
372.3998, 562.5222
372.8820, 566.2062
373.3641, 569.9838
373.8462, 576.5568
374.3283, 576.1944
374.8104, 563.4876
375.2925, 537.1749
375.7747, 511.5898
376.2568, 486.2197
376.7389, 462.1593
377.2210, 440.6304
377.7031, 421.5383
378.1852, 406.6015
378.6674, 397.5432
379.1495, 392.9601
379.6316, 385.6808
380.1137, 375.3322
380.5958, 366.2202
381.0779, 363.9967
381.5601, 367.1387
382.0422, 368.2095
382.5243, 365.1273
383.0064, 359.7248
383.4885, 354.7152
383.9706, 350.0197
384.4528, 345.4082
384.9349, 339.1241
385.4170, 333.1858
385.8991, 331.2285
386.3812, 334.5320
386.8633, 339.3818
387.3455, 343.7736
387.8276, 347.1256
388.3097, 348.1456
388.7918, 343.6219
389.2739, 338.1114
389.7560, 335.2371
390.2382, 335.3902
390.7203, 336.8120
391.2024, 339.6920
391.6845, 342.9264
392.1666, 345.2765
392.6487, 345.1636
393.1309, 345.1626
393.6130, 346.7126
394.0951, 349.6327
394.5772, 351.6126
395.0593, 350.2639
395.5414, 348.9306
396.0236, 349.7217
396.5057, 354.8038
396.9878, 359.8072
397.4699, 365.8641
397.9520, 371.7409
398.4341, 373.5015
398.9163, 367.7869
399.3984, 361.4129
399.8805, 356.4971
400.3626, 352.7102
400.8447, 351.5930
401.3268, 354.7307
401.8090, 359.3682
402.2911, 361.5389
402.7732, 360.3426
403.2553, 358.8966
403.7374, 357.5356
404.2195, 356.3733
404.7017, 358.0553
405.1838, 363.5598
405.6659, 369.2952
406.1480, 371.7601
406.6301, 370.9243
407.1122, 369.8003
407.5944, 368.4792
408.0765, 367.6467
408.5586, 369.5416
409.0407, 374.1157
409.5228, 378.5600
410.0049, 381.7796
410.4871, 383.4225
410.9692, 381.5112
411.4513, 374.8850
411.9334, 368.5719
412.4155, 369.4975
412.8976, 375.5750
413.3798, 380.7061
413.8619, 381.4128
414.3440, 380.2543
414.8261, 379.5823
415.3082, 379.4674
415.7903, 379.9716
416.2725, 381.4867
416.7546, 383.5085
417.2367, 385.4387
417.7188, 385.3247
418.2009, 386.9849
418.6830, 394.7512
419.1652, 406.4632
419.6473, 413.8885
420.1294, 409.7309
420.6115, 403.9885
421.0937, 402.0007
421.5758, 405.5144
422.0579, 410.6452
422.5400, 419.6288
423.0221, 429.3775
423.5042, 434.9311
423.9864, 431.2119
424.4685, 428.7573
424.9506, 429.8710
425.4327, 434.7078
425.9148, 441.2485
426.3969, 450.9154
426.8791, 460.6620
427.3612, 467.3698
427.8433, 469.6377
428.3254, 473.2935
428.8075, 479.5074
429.2896, 487.5059
429.7718, 494.1639
430.2539, 499.0500
430.7360, 504.8977
431.2181, 514.8978
431.7002, 528.4793
432.1823, 536.0670
432.6645, 535.7977
433.1466, 534.1855
433.6287, 540.9436
434.1108, 554.6112
434.5929, 568.0496
435.0750, 577.1678
435.5572, 584.6127
436.0393, 595.2279
436.5214, 608.9033
437.0035, 623.3523
437.4856, 637.0354
437.9677, 650.1768
438.4499, 662.8775
438.9320, 674.6340
439.4141, 686.8591
439.8962, 700.5212
440.3783, 715.3723
440.8604, 731.1807
441.3426, 746.1324
441.8247, 763.0907
442.3068, 784.8928
442.7889, 813.4267
443.2710, 839.1162
443.7531, 858.1148
444.2353, 873.4149
444.7174, 888.6552
445.1995, 902.0168
445.6816, 917.6644
446.1637, 938.3820
446.6458, 963.1921
447.1280, 983.2411
447.6101, 994.3923
448.0922, 1005.407
448.5743, 1021.213
449.0564, 1044.193
449.5385, 1067.352
450.0207, 1094.692
450.5028, 1118.299
450.9849, 1122.314
451.4670, 1104.985
451.9491, 1076.691
452.4312, 1038.939
452.9134, 992.8124
453.3955, 944.6950
453.8776, 894.4073
454.3597, 844.6083
454.8418, 795.9656
455.3239, 749.6407
455.8061, 713.0920
456.2882, 689.6185
456.7703, 673.3625
457.2524, 656.5502
457.7345, 639.7481
458.2166, 624.8939
458.6988, 612.1235
459.1809, 602.5787
459.6630, 599.8746
460.1451, 605.6741
460.6272, 608.2553
461.1093, 597.3948
461.5915, 579.8733
462.0736, 564.3030
462.5557, 551.8161
463.0378, 543.4210
463.5199, 542.0234
464.0020, 546.4655
464.4842, 548.2461
464.9663, 541.9913
465.4484, 535.2939
465.9305, 532.3452
466.4126, 536.8921
466.8947, 538.6275
467.3769, 534.2723
467.8590, 528.5326
468.3411, 529.8161
468.8232, 542.6969
469.3053, 553.4692
469.7874, 558.0895
470.2696, 556.9126
470.7517, 556.3637
471.2338, 556.4965
471.7159, 557.0886
472.1980, 557.5235
472.6801, 557.8590
473.1623, 560.3688
473.6444, 565.7883
474.1265, 572.7185
474.6086, 578.8815
475.0907, 584.3982
475.5728, 590.0519
476.0550, 596.1103
476.5371, 602.6478
477.0192, 609.8817
477.5013, 617.8591
477.9834, 625.8053
478.4655, 632.7280
478.9477, 639.4142
479.4298, 646.7639
479.9119, 654.8487
480.3940, 664.0297
480.8761, 675.0691
481.3582, 687.3947
481.8404, 699.2343
482.3225, 709.8831
482.8046, 720.0109
483.2867, 730.1870
483.7688, 740.8648
484.2509, 750.1627
484.7331, 753.1344
485.2152, 757.1279
485.6973, 770.0082
486.1794, 801.0177
486.6615, 824.7679
487.1436, 834.7924
487.6258, 834.8169
488.1079, 843.2194
488.5900, 862.4945
489.0721, 883.1592
489.5542, 899.4340
490.0363, 911.3336
490.5185, 925.8757
491.0006, 943.4319
491.4827, 962.5828
491.9648, 980.9149
492.4470, 998.8444
492.9291, 1018.234
493.4112, 1038.046
493.8933, 1060.679
494.3754, 1093.855
494.8575, 1135.454
495.3397, 1170.151
495.8218, 1179.062
496.3039, 1180.570
496.7860, 1196.285
497.2681, 1233.379
497.7502, 1269.772
498.2324, 1289.510
498.7145, 1302.832
499.1966, 1324.053
499.6787, 1372.640
500.1608, 1414.135
500.6429, 1434.717
501.1251, 1435.586
501.6072, 1439.225
502.0893, 1447.976
502.5714, 1459.215
503.0535, 1472.656
503.5356, 1492.484
504.0178, 1504.718
504.4999, 1509.707
504.9820, 1506.576
505.4641, 1494.331
505.9462, 1473.282
506.4283, 1441.660
506.9105, 1397.274
507.3926, 1342.463
507.8747, 1284.772
508.3568, 1223.737
508.8389, 1164.544
509.3210, 1108.283
509.8032, 1055.947
510.2853, 1009.783
510.7674, 970.3464
511.2495, 935.9100
511.7316, 903.9425
512.2137, 875.6044
512.6959, 853.6888
513.1780, 844.9285
513.6601, 838.0189
514.1422, 823.7579
514.6243, 803.6091
515.1064, 788.0088
515.5886, 782.6110
516.0707, 781.9075
516.5528, 782.6724
517.0349, 784.1400
517.5170, 787.8024
517.9991, 796.7814
518.4813, 806.8522
518.9634, 812.2555
519.4455, 808.8252
519.9276, 808.0008
520.4097, 813.1423
520.8918, 823.0160
521.3740, 830.1821
521.8561, 834.4138
522.3382, 836.6880
522.8203, 836.7759
523.3024, 834.8758
523.7845, 835.2662
524.2667, 839.0340
524.7488, 841.7968
525.2309, 838.2371
525.7130, 829.1599
526.1951, 817.3978
526.6772, 802.6279
527.1594, 786.7430
527.6415, 771.4337
528.1236, 756.9137
528.6057, 743.7571
529.0878, 738.5964
529.5699, 730.9149
530.0521, 709.9468
530.5342, 669.6807
531.0163, 636.5873
531.4984, 621.2897
531.9805, 616.2056
532.4626, 613.1475
532.9448, 617.9446
533.4269, 616.2871
533.9090, 603.2273
534.3911, 582.1896
534.8732, 567.4755
535.3553, 562.4299
535.8375, 557.0795
536.3196, 545.9709
536.8017, 528.4112
537.2838, 516.8796
537.7659, 511.7433
538.2480, 511.0997
538.7302, 515.6802
539.2123, 524.2213
539.6944, 527.3357
540.1765, 521.8438
540.6586, 512.1694
541.1407, 502.3528
541.6229, 493.0710
542.1050, 486.5638
542.5871, 484.2801
543.0692, 485.1352
543.5513, 489.6732
544.0334, 497.8076
544.5156, 504.1194
544.9977, 506.2130
545.4798, 505.3544
545.9619, 502.2501
546.4440, 493.4615
546.9261, 487.7582
547.4083, 486.7572
547.8904, 489.5597
548.3725, 495.0803
548.8546, 508.2751
549.3367, 515.7970
549.8188, 511.7638
550.3010, 497.7332
550.7831, 493.0778
551.2652, 500.1707
551.7473, 508.7410
552.2294, 511.2368
552.7115, 508.2620
553.1937, 504.7702
553.6758, 500.4510
554.1579, 498.5396
554.6400, 505.9270
555.1221, 519.3088
555.6042, 529.0500
556.0864, 530.4253
556.5685, 528.1279
557.0506, 524.3923
557.5327, 520.1897
558.0148, 519.2401
558.4969, 527.5392
558.9791, 536.5141
559.4612, 540.0590
559.9433, 536.0695
560.4254, 534.3386
560.9075, 539.5247
561.3896, 546.0958
561.8718, 549.1249
562.3539, 545.6096
562.8360, 543.6350
563.3181, 543.9803
563.8002, 546.1400
564.2823, 549.7169
564.7645, 555.5443
565.2466, 558.7290
565.7287, 555.4733
566.2108, 547.8322
566.6929, 547.0775
567.1750, 553.4902
567.6572, 560.5613
568.1393, 561.2350
568.6214, 558.8412
569.1035, 560.8384
569.5856, 569.5877
570.0677, 577.9310
570.5499, 578.6198
571.0320, 575.3166
571.5141, 573.8331
571.9962, 576.5646
572.4783, 581.2463
572.9604, 590.2655
573.4426, 601.6608
573.9247, 605.7321
574.4068, 588.3412
574.8889, 574.9177
575.3710, 577.0234
575.8531, 598.8838
576.3353, 613.5917
576.8174, 618.8261
577.2995, 620.1382
577.7816, 622.1520
578.2637, 624.7868
578.7458, 629.1424
579.2280, 635.7252
579.7101, 643.4592
580.1922, 651.5005
580.6743, 659.4232
581.1564, 664.8213
581.6385, 664.1133
582.1207, 661.5787
582.6028, 663.0765
583.0849, 668.1823
583.5670, 673.6530
584.0491, 676.6101
584.5313, 679.7814
585.0134, 685.5957
585.4955, 695.2842
585.9776, 704.6953
586.4597, 712.6701
586.9418, 719.8360
587.4240, 726.8486
587.9061, 734.6149
588.3882, 740.9002
588.8703, 744.8792
589.3524, 747.3834
589.8345, 750.7885
590.3167, 755.1606
590.7988, 760.2167
591.2809, 765.6417
591.7630, 771.5758
592.2451, 779.1639
592.7272, 788.5042
593.2094, 797.0959
593.6915, 802.6267
594.1736, 805.9758
594.6557, 808.6595
595.1378, 810.7292
595.6199, 812.7464
596.1021, 814.1648
596.5842, 816.0385
597.0663, 819.8875
597.5485, 830.3921
598.0306, 838.4861
598.5127, 840.0126
598.9948, 836.3730
599.4769, 833.8565
599.9590, 835.1194
600.4412, 834.7597
600.9233, 829.8854
601.4054, 819.8624
601.8875, 815.3249
602.3696, 817.4757
602.8517, 822.2675
603.3339, 827.5958
603.8160, 833.2300
604.2981, 834.7177
604.7802, 830.8973
605.2623, 825.1595
605.7444, 820.9509
606.2266, 818.2776
606.7087, 817.2437
607.1908, 816.5847
607.6729, 818.8516
608.1550, 831.7571
608.6371, 850.2797
609.1193, 858.5440
609.6014, 836.6329
610.0835, 814.4889
610.5656, 808.1777
611.0477, 821.1605
611.5298, 830.2908
612.0120, 831.6068
612.4941, 831.9374
612.9762, 836.2194
613.4583, 846.3391
613.9404, 853.1013
614.4225, 854.9455
614.9047, 855.4064
615.3868, 860.3991
615.8689, 869.5181
616.3510, 876.9426
616.8331, 881.2191
617.3152, 882.6229
617.7974, 877.4514
618.2795, 868.6398
618.7616, 867.2116
619.2437, 887.5955
619.7258, 911.4238
620.2079, 924.5210
620.6901, 926.1089
621.1722, 927.0750
621.6543, 928.3829
622.1364, 932.2874
622.6185, 940.6811
623.1006, 956.4787
623.5828, 970.2016
624.0649, 979.3218
624.5470, 988.6871
625.0291, 1005.817
625.5112, 1033.248
625.9933, 1054.196
626.4755, 1063.518
626.9576, 1067.321
627.4397, 1076.863
627.9218, 1091.976
628.4039, 1111.349
628.8860, 1135.914
629.3682, 1163.652
629.8503, 1190.847
630.3324, 1218.020
630.8145, 1248.564
631.2966, 1288.040
631.7787, 1328.721
632.2609, 1363.594
632.7430, 1388.760
633.2251, 1420.245
633.7072, 1463.376
634.1893, 1512.438
634.6714, 1562.494
635.1536, 1609.881
635.6357, 1666.333
636.1178, 1731.539
636.5999, 1806.591
637.0820, 1892.684
637.5641, 1989.416
638.0463, 2099.479
638.5284, 2225.224
639.0105, 2364.477
639.4926, 2505.906
639.9747, 2655.421
640.4568, 2841.481
640.9390, 3070.923
641.4211, 3354.453
641.9032, 3697.826
642.3853, 4099.813
642.8674, 4576.631
643.3495, 5152.618
643.8317, 5792.785
644.3138, 6482.254
644.7959, 7225.665
645.2780, 8006.581
645.7601, 8856.812
646.2422, 9713.430
646.7244, 10503.17
647.2065, 11201.03
647.6886, 11928.35
648.1707, 12704.39
648.6528, 13510.60
649.1349, 14325.07
649.6171, 15145.48
650.0992, 15978.26
650.5813, 16813.84
651.0634, 17671.23
651.5455, 18554.94
652.0276, 19478.68
652.5098, 20474.31
652.9919, 21584.47
653.4740, 22753.97
653.9561, 24009.67
654.4382, 25408.12
654.9203, 26556.11
655.4025, 27636.31
655.8846, 28268.41
656.3667, 28170.68
656.8488, 27238.38
657.3309, 25833.61
657.8130, 23870.26
658.2952, 21604.79
658.7773, 19296.04
659.2594, 16946.15
659.7415, 14808.79
660.2236, 12938.54
660.7057, 11319.07
661.1879, 9990.157
661.6700, 8911.106
662.1521, 7986.682
662.6342, 7223.179
663.1163, 6554.229
663.5984, 5951.381
664.0806, 5411.201
664.5627, 4915.388
665.0448, 4474.151
665.5269, 4070.924
666.0090, 3695.700
666.4911, 3349.828
666.9733, 3046.003
667.4554, 2787.288
667.9375, 2564.570
668.4196, 2375.823
668.9017, 2219.715
669.3839, 2074.565
669.8660, 1938.024
670.3481, 1816.178
670.8302, 1722.302
671.3123, 1648.570
671.7944, 1577.793
672.2766, 1504.065
672.7587, 1434.169
673.2408, 1368.584
673.7229, 1310.216
674.2050, 1263.374
674.6871, 1241.292
675.1693, 1218.010
675.6514, 1183.633
676.1335, 1141.081
676.6156, 1106.346
677.0977, 1080.573
677.5798, 1060.272
678.0620, 1045.898
678.5441, 1036.502
679.0262, 1023.473
679.5083, 1006.456
679.9904, 989.8240
680.4725, 978.9389
680.9547, 970.2814
681.4368, 956.4412
681.9189, 936.0809
682.4010, 916.4502
682.8831, 901.0505
683.3652, 889.6927
683.8474, 882.7174
684.3295, 884.4420
684.8116, 883.8140
685.2937, 879.1028
685.7758, 871.2195
686.2579, 860.6027
686.7401, 845.2463
687.2222, 833.0557
687.7043, 826.6813
688.1864, 823.2216
688.6685, 814.2485
689.1506, 800.2854
689.6328, 789.9109
690.1149, 790.4115
690.5970, 794.3942
691.0791, 789.6077
691.5612, 777.6671
692.0433, 766.9905
692.5255, 762.0331
693.0076, 759.6187
693.4897, 758.8932
693.9718, 760.1201
694.4539, 758.1552
694.9360, 748.8370
695.4182, 739.3959
695.9003, 733.4740
696.3824, 731.6168
696.8645, 731.6664
697.3466, 734.0992
697.8287, 737.1890
698.3109, 739.9772
698.7930, 742.0676
699.2751, 740.3337
699.7572, 732.9629
700.2393, 726.4342
700.7214, 730.1924
701.2036, 738.8926
701.6857, 743.5554
702.1678, 736.4895
702.6499, 730.0950
703.1320, 728.7324
703.6141, 731.4476
704.0963, 736.0662
704.5784, 745.2689
705.0605, 751.8752
705.5426, 753.6008
706.0247, 751.6196
706.5068, 751.1757
706.9890, 752.4391
707.4711, 753.7487
707.9532, 752.3723
708.4353, 750.8257
708.9174, 758.5345
709.3995, 774.3195
709.8817, 786.2592
710.3638, 782.9934
710.8459, 774.2131
711.3280, 768.2705
711.8101, 766.3432
712.2922, 764.3196
712.7744, 759.1185
713.2565, 754.8768
713.7386, 754.5965
714.2207, 760.8466
714.7028, 764.3140
715.1849, 764.3714
715.6671, 762.7869
716.1492, 762.5718
716.6313, 763.2734
717.1134, 757.9801
717.5955, 743.6165
718.0776, 729.2526
718.5598, 728.1412
719.0419, 734.9718
719.5240, 739.4471
720.0061, 736.6823
720.4882, 732.2688
720.9703, 725.8496
721.4525, 719.8247
721.9346, 719.6589
722.4167, 731.4481
722.8988, 742.1957
723.3809, 749.5466
723.8630, 754.0703
724.3452, 757.7882
724.8273, 760.5829
725.3094, 763.3122
725.7915, 766.1009
726.2736, 769.1813
726.7557, 774.7548
727.2379, 782.1260
727.7200, 785.8225
728.2021, 778.2027
728.6842, 768.3299
729.1663, 764.2395
729.6484, 766.8043
730.1306, 768.2845
730.6127, 769.4916
731.0948, 766.2928
731.5769, 755.3359
732.0590, 733.0532
732.5411, 717.9123
733.0233, 711.4036
733.5054, 708.6928
733.9875, 707.4080
734.4696, 706.7522
734.9517, 699.4504
735.4338, 683.5308
735.9160, 667.8357
736.3981, 663.6136
736.8802, 664.7048
737.3623, 661.8194
737.8444, 650.5402
738.3266, 638.7310
738.8087, 627.6500
739.2908, 618.3090
739.7729, 612.5553
740.2551, 613.2382
740.7372, 612.0219
741.2193, 607.0555
741.7014, 600.4496
742.1835, 597.1683
742.6656, 597.2714
743.1478, 596.1958
743.6299, 591.7643
744.1120, 586.2393
744.5941, 584.0225
745.0762, 583.8685
745.5583, 581.8310
746.0405, 572.6964
746.5226, 564.2090
747.0047, 561.9307
747.4868, 564.6596
747.9689, 564.9783
748.4510, 558.5544
748.9332, 554.1553
749.4153, 555.5876
749.8974, 562.0901
750.3795, 564.3743
750.8616, 562.0229
751.3438, 558.7047
751.8259, 556.5000
752.3080, 555.0793
752.7901, 554.0818
753.2722, 553.4119
753.7543, 551.5573
754.2365, 544.6259
754.7186, 538.0777
755.2007, 537.1860
755.6828, 543.7245
756.1649, 548.6229
756.6470, 550.3204
757.1292, 550.0419
757.6113, 548.1746
758.0934, 544.2429
758.5755, 540.7209
759.0576, 537.4483
759.5397, 535.0237
760.0219, 534.8025
760.5040, 535.9585
760.9861, 535.7505
761.4682, 533.5842
761.9503, 530.9963
762.4324, 529.1746
762.9146, 527.6140
763.3967, 525.6105
763.8788, 521.6296
764.3609, 519.4447
764.8430, 520.9974
765.3251, 523.9222
765.8073, 525.6689
766.2894, 526.0624
766.7715, 525.9916
767.2536, 525.6422
767.7357, 524.7458
768.2178, 522.0917
768.7000, 518.2961
769.1821, 515.8660
769.6642, 515.1487
770.1463, 516.7869
770.6284, 524.3029
771.1105, 534.1860
771.5927, 539.6492
772.0748, 533.5775
772.5569, 528.6747
773.0390, 528.4843
773.5211, 531.4047
774.0032, 533.7482
774.4854, 535.6923
774.9675, 536.3499
775.4496, 535.2722
775.9317, 532.8986
776.4138, 529.2788
776.8959, 524.9619
777.3781, 522.7541
777.8602, 524.5352
778.3423, 528.7379
778.8244, 535.5720
779.3065, 544.1001
779.7886, 550.5221
780.2708, 551.3480
780.7529, 552.3613
781.2350, 556.3203
781.7171, 562.6082
782.1992, 564.9686
782.6813, 562.4695
783.1635, 559.6779
783.6456, 559.2399
784.1277, 560.2529
784.6098, 560.4350
785.0919, 559.6216
785.5740, 556.3306
786.0562, 545.3634
786.5383, 534.5521
787.0204, 531.0342
787.5025, 535.1800
787.9846, 540.4927
788.4667, 550.1681
788.9489, 555.8553
789.4310, 551.8160
789.9131, 537.0656
790.3952, 533.1613
790.8773, 542.1357
791.3594, 552.6201
791.8416, 556.2825
792.3237, 554.8648
792.8058, 551.7196
793.2879, 547.0710
793.7700, 544.6453
794.2521, 549.7900
794.7343, 556.3792
795.2164, 559.3525
795.6985, 557.5789
796.1806, 554.4525
796.6627, 548.5458
797.1448, 543.4454
797.6270, 541.9648
798.1091, 544.7455
798.5912, 545.8926
799.0733, 545.2082
799.5554, 543.7830
800.0375, 541.5015
800.5197, 539.5449
801.0018, 540.7745
801.4839, 545.9494
801.9660, 551.0786
802.4481, 555.4977
802.9302, 557.7271
803.4124, 555.8258
803.8945, 544.9472
804.3766, 540.6160
804.8587, 545.2369
805.3408, 553.2404
805.8229, 561.0340
806.3051, 568.5862
806.7872, 570.1289
807.2693, 564.4912
807.7514, 556.9637
808.2335, 551.2358
808.7156, 547.7545
809.1978, 548.2359
809.6799, 555.1412
810.1620, 558.8651
810.6441, 551.3663
811.1262, 541.0684
811.6083, 536.2187
812.0905, 538.1847
812.5726, 543.6240
813.0547, 554.7931
813.5368, 564.8540
814.0189, 563.7672
814.5010, 553.5859
814.9832, 546.5886
815.4653, 545.1964
815.9474, 545.1045
816.4295, 540.5212
816.9116, 535.6333
817.3937, 536.4319
817.8759, 550.0624
818.3580, 558.1495
818.8401, 552.2828
819.3222, 542.2425
819.8043, 537.2578
820.2864, 538.7929
820.7686, 538.4204
821.2507, 534.9871
821.7328, 530.7830
822.2149, 528.1079
822.6970, 527.0810
823.1791, 529.1117
823.6613, 536.4905
824.1434, 540.2421
824.6255, 528.4090
825.1076, 512.3787
825.5897, 505.0016
826.0718, 519.3275
826.5540, 526.4227
827.0361, 522.2636
827.5182, 515.4827
828.0003, 518.2769
828.4824, 530.4456
828.9645, 535.0578
829.4467, 528.0812
829.9288, 519.4920
830.4109, 521.7702
830.8930, 529.5945
831.3751, 535.0934
831.8572, 536.6967
832.3394, 534.6288
832.8215, 523.4623
833.3036, 511.6658
833.7857, 508.8838
834.2678, 519.1127
834.7499, 527.1291
835.2321, 532.4362
835.7142, 534.3220
836.1963, 529.9670
836.6784, 521.1775
837.1605, 514.3582
837.6426, 510.5559
838.1248, 509.8830
838.6069, 516.6743
839.0890, 524.6366
839.5711, 526.2665
840.0532, 513.5439
840.5353, 506.5819
841.0175, 509.0938
841.4996, 515.0421
841.9817, 518.5456
842.4638, 519.5461
842.9459, 520.1097
843.4280, 520.4587
843.9102, 520.2350
844.3923, 519.2734
844.8744, 517.3906
845.3565, 513.8235
845.8386, 507.5315
846.3207, 502.8737
846.8029, 501.2559
847.2850, 502.3576
847.7671, 506.5173
848.2492, 517.4479
848.7313, 520.2621
849.2134, 512.4653
849.6956, 502.8568
850.1777, 501.1654
850.6598, 505.0231
851.1419, 505.7152
851.6240, 501.9053
852.1061, 498.0901
852.5883, 497.7479
853.0704, 498.9362
853.5525, 500.0651
854.0346, 501.2029
854.5167, 501.1897
854.9988, 499.8092
855.4810, 497.5358
855.9631, 493.9797
856.4452, 489.0746
856.9273, 486.7693
857.4094, 487.1353
857.8915, 490.3069
858.3737, 500.7822
858.8558, 511.8952
859.3379, 512.8920
859.8200, 501.6158
860.3021, 494.4519
860.7842, 503.2710
861.2664, 513.0826
861.7485, 515.1234
862.2306, 508.5119
862.7127, 502.6521
863.1948, 497.1283
863.6769, 493.9843
864.1591, 496.6182
864.6412, 502.2342
865.1233, 503.2227
865.6054, 499.8099
866.0875, 498.0004
866.5696, 504.8612
867.0518, 511.5579
867.5339, 511.8516
868.0160, 504.9506
868.4981, 499.0804
868.9802, 493.4330
869.4623, 490.6757
869.9445, 493.8274
870.4266, 500.8255
870.9087, 500.9438
871.3908, 494.8496
871.8729, 489.6274
872.3550, 491.5899
872.8372, 494.5908
873.3193, 492.4515
873.8014, 486.2162
874.2835, 482.5704
874.7656, 486.2437
875.2477, 488.6692
875.7299, 486.3322
876.2120, 481.4315
876.6941, 484.3878
877.1762, 495.1655
877.6583, 502.2716
878.1404, 498.7680
878.6226, 490.9023
879.1047, 485.4803
879.5869, 482.3796
880.0690, 481.1395
880.5511, 483.9360
881.0332, 485.8875
881.5153, 485.7278
881.9974, 483.7682
882.4796, 479.2282
882.9617, 470.6539
883.4438, 468.5342
883.9259, 477.2591
884.4080, 489.6319
884.8901, 494.7029
885.3723, 494.4246
885.8544, 493.4260
886.3365, 494.2629
886.8186, 493.0913
887.3007, 483.3645
887.7828, 472.7352
888.2650, 472.4453
888.7471, 487.7162
889.2292, 500.0063
889.7113, 508.5887
890.1934, 512.0855
890.6755, 505.4125
891.1577, 492.1929
891.6398, 483.8958
892.1219, 483.3146
892.6040, 484.7426
893.0861, 483.8586
893.5682, 483.3429
894.0504, 486.2841
894.5325, 496.2030
895.0146, 501.2171
895.4967, 499.6684
895.9788, 496.2813
896.4609, 495.0145
896.9431, 495.4537
897.4252, 494.7960
897.9073, 492.8809
898.3894, 491.4962
898.8715, 490.9819
899.3536, 492.2757
899.8358, 498.1795
900.3179, 509.6825
900.8000, 513.5566
901.2821, 501.8606
901.7642, 492.4788
902.2463, 494.9530
902.7285, 507.2110
903.2106, 514.0385
903.6927, 515.5054
904.1748, 514.6065
904.6569, 510.3540
905.1390, 506.7394
905.6212, 508.9512
906.1033, 515.6710
906.5854, 521.0308
907.0675, 525.3338
907.5496, 525.2860
908.0317, 518.1606
908.5139, 507.0001
908.9960, 500.7199
909.4781, 499.3708
909.9602, 501.0068
910.4423, 506.0497
910.9244, 511.9500
911.4066, 515.6226
911.8887, 517.8879
912.3708, 520.3069
912.8529, 526.3320
913.3350, 528.5543
913.8171, 523.1669
914.2993, 515.2696
914.7814, 511.5493
915.2635, 512.2390
915.7456, 514.2255
916.2277, 517.2496
916.7098, 520.7200
917.1920, 525.1160
917.6741, 529.0328
918.1562, 529.6373
918.6383, 524.7745
919.1204, 522.3724
919.6025, 529.1135
920.0847, 535.5826
920.5668, 534.6542
921.0489, 524.6861
921.5310, 519.1581
922.0131, 518.3805
922.4952, 519.5091
922.9774, 520.7481
923.4595, 522.2009
923.9416, 523.8848
924.4237, 525.8375
924.9058, 528.5567
925.3879, 532.1818
925.8701, 536.8646
926.3522, 544.4681
926.8343, 553.8173
927.3164, 554.1611
927.7985, 544.6047
928.2806, 534.2169
928.7628, 525.8685
929.2449, 520.4226
929.7270, 520.8217
930.2091, 525.2545
930.6912, 528.8266
931.1733, 528.9203
931.6555, 528.5413
932.1376, 528.0377
932.6197, 527.8395
933.1018, 528.5335
933.5839, 530.0418
934.0660, 533.4798
934.5482, 539.6876
935.0303, 545.9775
935.5124, 548.6522
935.9945, 549.1093
936.4766, 549.8865
936.9587, 552.0720
937.4409, 553.2892
937.9230, 551.5800
938.4051, 549.5208
938.8872, 549.7756
939.3693, 553.5717
939.8514, 550.5315
940.3336, 539.3770
940.8157, 530.9991
941.2978, 538.8877
941.7799, 553.0323
942.2620, 557.9789
942.7441, 553.2899
943.2263, 549.5834
943.7084, 551.2060
944.1905, 554.6302
944.6726, 560.0436
945.1547, 566.2571
945.6368, 564.0388
946.1190, 552.7304
946.6011, 543.9221
947.0832, 543.9163
947.5653, 547.9469
948.0474, 549.5657
948.5295, 550.1721
949.0117, 553.0220
949.4938, 563.3242
949.9759, 570.7980
950.4580, 574.4717
950.9401, 573.8396
951.4222, 565.4200
951.9044, 548.9108
952.3865, 540.9471
952.8686, 545.0599
953.3507, 553.9259
953.8328, 562.6161
954.3149, 570.0467
954.7971, 574.6191
955.2792, 575.2991
955.7613, 575.5148
956.2434, 575.6370
956.7255, 575.6837
957.2076, 576.2206
957.6898, 577.1433
958.1719, 573.5444
958.6540, 565.4946
959.1361, 559.6796
959.6182, 562.9664
960.1003, 568.7505
960.5825, 570.6088
961.0646, 569.1803
961.5467, 569.7067
962.0288, 576.9520
962.5109, 579.9785
962.9930, 574.1923
963.4752, 564.3086
963.9573, 563.8405
964.4394, 570.9517
964.9215, 573.4542
965.4036, 563.6795
965.8857, 555.4834
966.3679, 563.9590
966.8500, 579.0353
967.3321, 587.4169
967.8142, 582.2019
968.2963, 579.3717
968.7784, 579.6830
969.2606, 581.0258
969.7427, 581.5783
970.2248, 581.3919
970.7069, 579.8752
971.1890, 577.0305
971.6711, 576.1813
972.1533, 583.7839
972.6354, 590.5702
973.1175, 587.6028
973.5996, 575.1541
974.0817, 572.6793
974.5638, 583.3025
975.0460, 592.8371
975.5281, 595.1710
976.0102, 592.9747
976.4923, 590.7262
976.9744, 588.7293
977.4565, 587.8774
977.9387, 590.7452
978.4208, 592.2657
978.9029, 589.2651
979.3850, 584.5673
979.8671, 582.0887
980.3492, 582.3444
980.8314, 581.6709
981.3135, 579.4099
981.7956, 577.3525
982.2777, 579.5743
982.7598, 582.2856
983.2419, 577.3597
983.7241, 561.6533
984.2062, 555.3775
984.6883, 576.5186
985.1704, 596.2534
985.6525, 600.3019
986.1346, 590.6301
986.6168, 589.7798
987.0989, 597.3741
987.5810, 601.5978
988.0631, 589.6381
988.5452, 576.2411
989.0273, 578.5403
989.5095, 590.4097
989.9916, 595.9985
990.4737, 587.6036
990.9558, 579.6753
991.4379, 573.1594
991.9200, 568.9027
992.4022, 569.3047
992.8843, 573.3646
993.3664, 576.8506
993.8485, 578.9453
994.3306, 580.4791
994.8127, 583.4286
995.2949, 585.0995
995.7770, 582.1773
996.2591, 573.6169
996.7412, 568.0411
997.2233, 565.8447
997.7054, 565.3457
998.1876, 564.5544
998.6697, 565.1552
999.1518, 574.7426
999.6339, 589.9906
1000.116, 597.8032
1000.598, 586.4399
1001.080, 573.4064
1001.562, 562.9781
1002.044, 555.4578
1002.527, 550.5616
1003.009, 548.0239
1003.491, 554.8445
1003.973, 574.9671
1004.455, 592.8965
1004.937, 587.2391
1005.419, 571.0129
1005.901, 560.4981
1006.384, 559.7803
1006.866, 559.5940
1007.348, 557.3313
1007.830, 557.5317
1008.312, 564.8929
1008.794, 577.1970
1009.276, 580.7024
1009.758, 576.1272
1010.240, 569.7227
1010.723, 563.6885
1011.205, 558.4046
1011.687, 552.6724
1012.169, 548.1174
1012.651, 549.1232
1013.133, 558.2385
1013.615, 565.3367
1014.097, 568.5183
1014.580, 570.3021
1015.062, 575.5588
1015.544, 581.5291
1016.026, 582.1544
1016.508, 575.3512
1016.990, 568.9374
1017.472, 565.8777
1017.954, 564.3349
1018.436, 563.0883
1018.919, 562.2165
1019.401, 564.4073
1019.883, 569.6747
1020.365, 572.6440
1020.847, 568.6744
1021.329, 562.2103
1021.811, 556.2117
1022.293, 551.3107
1022.776, 549.0218
1023.258, 552.2159
1023.740, 553.4403
1024.222, 550.7982
1024.704, 547.9309
1025.186, 551.6608
1025.668, 559.4426
1026.150, 561.8506
1026.632, 557.2634
1027.115, 551.9400
1027.597, 547.5602
1028.079, 545.5720
1028.561, 547.5553
1029.043, 553.2385
1029.525, 559.6668
1030.007, 567.4061
1030.489, 570.0746
1030.972, 561.3147
1031.454, 549.6869
1031.936, 548.3420
1032.418, 553.1173
1032.900, 555.1058
1033.382, 549.1437
1033.864, 543.0776
1034.346, 535.4288
1034.828, 530.9664
1035.311, 538.4838
1035.793, 555.3217
1036.275, 561.9007
1036.757, 556.6517
1037.239, 551.2820
1037.721, 557.2971
1038.203, 563.4238
1038.685, 559.4004
1039.167, 546.6129
1039.650, 541.8912
1040.132, 547.1709
1040.614, 552.3779
1041.096, 554.3337
1041.578, 554.0002
1042.060, 550.9373
1042.542, 547.1030
1043.024, 546.6044
1043.507, 554.7094
1043.989, 557.8198
1044.471, 549.3458
1044.953, 540.0519
1045.435, 539.0304
1045.917, 545.5154
1046.399, 549.8272
1046.881, 551.7734
1047.364, 551.7408
1047.846, 547.7709
1048.328, 543.9613
1048.810, 543.6406
1049.292, 546.0364
1049.774, 546.9602
1050.256, 545.4981
1050.738, 545.9061
1051.220, 549.4786
1051.703, 554.0217
1052.185, 556.9825
1052.667, 558.4278
1053.149, 558.0486
1053.631, 555.2361
1054.113, 553.2527
1054.595, 553.4390
1055.077, 554.1555
1055.559, 554.9836
1056.042, 555.6969
1056.524, 553.9675
1057.006, 550.2090
1057.488, 547.8047
1057.970, 549.5646
1058.452, 552.2625
1058.934, 554.3945
1059.416, 555.9281
1059.899, 556.5952
1060.381, 555.5815
1060.863, 557.1753
1061.345, 562.4240
1061.827, 567.3333
1062.309, 567.6183
1062.791, 565.0396
1063.273, 561.0635
1063.755, 555.9598
1064.238, 553.9839
1064.720, 558.7274
1065.202, 563.8094
1065.684, 568.0257
1066.166, 570.8433
1066.648, 570.6822
1067.130, 567.6907
1067.612, 561.6703
1068.094, 549.4962
1068.577, 541.6985
1069.059, 547.2833
1069.541, 558.6021
1070.023, 569.1600
1070.505, 580.0171
1070.987, 581.6660
1071.469, 573.2077
1071.951, 564.5974
1072.434, 562.7601
1072.916, 564.4695
1073.398, 567.5925
1073.880, 571.1199
1074.362, 571.7754
1074.844, 565.8174
1075.326, 562.3390
1075.808, 563.3891
1076.291, 565.5854
1076.773, 562.7861
1077.255, 557.3760
1077.737, 557.1536
1078.219, 563.5060
1078.701, 568.8848
1079.183, 566.9562
1079.665, 565.6855
1080.147, 570.3163
1080.630, 579.1320
1081.112, 580.5520
1081.594, 574.9073
1082.076, 572.9545
1082.558, 581.6631
1083.040, 589.9549
1083.522, 585.2155
1084.004, 575.2449
1084.486, 570.7828
1084.969, 575.1240
1085.451, 578.5831
1085.933, 581.1026
1086.415, 582.8516
1086.897, 583.6825
1087.379, 583.9559
1087.861, 584.1058
1088.343, 584.2302
1088.826, 584.6719
1089.308, 584.2902
1089.790, 586.4913
1090.272, 594.2914
1090.754, 601.9191
1091.236, 596.6921
1091.718, 582.6207
1092.200, 580.1334
1092.682, 593.1255
1093.165, 605.0879
1093.647, 603.9124
1094.129, 599.9581
1094.611, 599.8758
1095.093, 603.0742
1095.575, 604.8444
1096.057, 605.1718
1096.539, 604.0717
1097.022, 600.2358
1097.504, 597.6382
1097.986, 603.4702
1098.468, 611.7981
1098.950, 613.8279
1099.432, 604.2203
1099.914, 599.4170
1100.396, 600.3365
1100.879, 603.3124
1101.361, 606.8617
1101.843, 610.1386
1102.325, 611.0687
1102.807, 610.2238
1103.289, 609.7714
1103.771, 608.6102
1104.253, 611.0853
1104.735, 620.3525
1105.218, 630.2740
1105.700, 630.7959
1106.182, 624.0923
1106.664, 620.7458
1107.146, 621.9309
1107.628, 623.4043
1108.110, 622.2623
1108.592, 620.9643
1109.074, 620.8920
1109.557, 621.8079
1110.039, 622.4974
1110.521, 622.9455
1111.003, 625.6270
1111.485, 632.7268
1111.967, 637.7324
1112.449, 629.4249
1112.931, 618.4996
1113.414, 618.3966
1113.896, 634.0511
1114.378, 639.8137
1114.860, 633.4943
1115.342, 626.8766
1115.824, 627.7040
1116.306, 631.3043
1116.788, 627.7679
1117.271, 621.4500
1117.753, 622.0680
1118.235, 643.6918
1118.717, 655.5848
1119.199, 653.8574
1119.681, 646.1526
1120.163, 637.2371
1120.645, 628.8369
1121.127, 627.4769
1121.609, 632.6335
1122.092, 637.0497
1122.574, 635.7720
1123.056, 634.7817
1123.538, 636.6151
1124.020, 639.5089
1124.502, 639.1558
1124.984, 636.1713
1125.466, 636.4573
1125.949, 641.5126
1126.431, 645.9178
1126.913, 644.2946
1127.395, 641.9641
1127.877, 643.0285
1128.359, 647.0739
1128.841, 651.5330
1129.323, 656.6529
1129.806, 656.9858
1130.288, 647.8364
1130.770, 638.9910
1131.252, 642.9854
1131.734, 652.0634
1132.216, 655.4726
1132.698, 649.3291
1133.180, 647.5832
1133.662, 650.7461
1134.145, 656.2515
1134.627, 664.5145
1135.109, 672.8088
1135.591, 677.3012
1136.073, 678.2586
1136.555, 676.2408
1137.037, 666.1937
1137.519, 661.7195
1138.001, 665.9681
1138.484, 670.9118
1138.966, 665.5799
1139.448, 655.1639
1139.930, 653.1230
1140.412, 659.3867
1140.894, 666.1785
1141.376, 671.8453
1141.858, 675.5919
1142.341, 676.9673
1142.823, 676.8011
1143.305, 676.8461
1143.787, 676.7577
1144.269, 674.2437
1144.751, 668.5460
1145.233, 664.7156
1145.715, 667.4603
1146.198, 671.1020
1146.680, 672.9790
1147.162, 673.0727
1147.644, 670.9635
1148.126, 666.7397
1148.608, 661.1881
1149.090, 652.6747
1149.572, 647.7629
1150.054, 652.0974
1150.536, 662.0286
1151.019, 676.2517
1151.501, 695.6407
1151.983, 702.5778
1152.465, 696.7524
1152.947, 687.3754
1153.429, 677.2062
1153.911, 668.2079
1154.393, 661.6849
1154.876, 657.9325
1155.358, 658.3527
1155.840, 666.0984
1156.322, 666.6656
1156.804, 658.2288
1157.286, 651.1953
1157.768, 656.4888
1158.250, 666.2274
1158.733, 671.0772
1159.215, 671.6600
1159.697, 671.5984
1160.179, 672.2147
1160.661, 670.1268
1161.143, 663.7477
1161.625, 657.9846
1162.107, 660.1152
1162.589, 665.9310
1163.072, 669.6624
1163.554, 670.5946
1164.036, 665.8692
1164.518, 648.3994
1165.000, 635.8842
1165.482, 632.3112
1165.964, 636.1133
1166.446, 648.7935
1166.928, 665.6241
1167.411, 675.5620
1167.893, 675.7333
1168.375, 675.3206
1168.857, 681.9100
1169.339, 681.7046
1169.821, 664.6729
1170.303, 640.5621
1170.785, 640.8107
1171.268, 658.6271
1171.750, 671.7230
1172.232, 672.0051
1172.714, 669.4044
1173.196, 664.2055
1173.678, 660.9401
1174.160, 663.9959
1174.642, 671.6850
1175.125, 671.6506
1175.607, 665.1580
1176.089, 659.2211
1176.571, 659.7520
1177.053, 658.0378
1177.535, 643.3885
1178.017, 630.0587
1178.499, 634.8405
1178.981, 657.3981
1179.464, 662.4221
1179.946, 650.6340
1180.428, 639.9361
1180.910, 644.1615
1181.392, 649.6947
1181.874, 646.4268
1182.356, 641.3638
1182.838, 647.8428
1183.320, 666.6685
1183.803, 672.3945
1184.285, 662.7205
1184.767, 650.7733
1185.249, 643.9525
1185.731, 640.5538
1186.213, 640.7292
1186.695, 643.3732
1187.177, 645.9288
1187.660, 648.4443
1188.142, 650.0137
1188.624, 650.3982
1189.106, 650.4677
1189.588, 650.7870
1190.070, 651.2690
1190.552, 651.7348
1191.034, 652.2676
1191.516, 653.2729
1191.999, 654.6795
1192.481, 658.0407
1192.963, 664.7330
1193.445, 669.8839
1193.927, 668.2992
1194.409, 662.9326
1194.891, 655.6590
1195.373, 646.6232
1195.855, 640.9464
1196.338, 638.9396
1196.820, 637.1030
1197.302, 633.1971
1197.784, 630.7871
1198.266, 636.0757
1198.748, 643.9852
1199.230, 648.3611
1199.712, 648.5805
1200.195, 643.9319
1200.677, 633.2563
1201.159, 625.9675
1201.641, 628.9717
1202.123, 635.5985
1202.605, 638.8742
1203.087, 640.2849
1203.569, 642.5081
1204.052, 646.7681
1204.534, 649.0441
1205.016, 649.2302
1205.498, 648.1664
1205.980, 646.3645
1206.462, 643.6751
1206.944, 637.1846
1207.426, 630.1009
1207.908, 630.8450
1208.391, 644.0294
1208.873, 652.9904
1209.355, 656.8723
1209.837, 657.8382
1210.319, 655.4552
1210.801, 652.9083
1211.283, 655.9509
1211.765, 662.1242
1212.247, 661.3300
1212.730, 647.9054
1213.212, 645.1219
1213.694, 657.4629
1214.176, 670.6230
1214.658, 671.0636
1215.140, 664.6138
1215.622, 655.1751
1216.104, 644.3842
1216.587, 639.8190
1217.069, 643.7573
1217.551, 646.9174
1218.033, 647.7928
1218.515, 647.5848
1218.997, 647.6884
1219.479, 647.4079
1219.961, 645.1285
1220.443, 641.1267
1220.926, 640.2621
1221.408, 643.6493
1221.890, 646.4480
1222.372, 647.7040
1222.854, 647.4144
1223.336, 644.7053
1223.818, 641.0012
1224.300, 636.1743
1224.782, 630.4160
1225.265, 635.7075
1225.747, 655.9779
1226.229, 667.5460
1226.711, 660.8701
1227.193, 648.9150
1227.675, 644.7350
1228.157, 645.8160
1228.639, 651.0654
1229.122, 661.0898
1229.604, 663.0343
1230.086, 655.8152
1230.568, 647.5466
1231.050, 640.3731
1231.532, 635.5519
1232.014, 636.0665
1232.496, 638.9377
1232.979, 639.9863
1233.461, 638.3221
1233.943, 641.2712
1234.425, 649.4919
1234.907, 655.2728
1235.389, 653.1775
1235.871, 650.0186
1236.353, 653.6772
1236.835, 659.7699
1237.318, 662.3597
1237.800, 660.8798
1238.282, 658.8191
1238.764, 656.1267
1239.246, 654.1729
1239.728, 653.1070
1240.210, 653.9124
1240.692, 660.0374
1241.175, 667.1353
1241.657, 668.7460
1242.139, 663.4734
1242.621, 661.4917
1243.103, 662.8039
1243.585, 666.1115
1244.067, 675.3797
1244.549, 681.2675
1245.031, 671.9320
1245.514, 658.4839
1245.996, 657.2357
1246.478, 669.6098
1246.960, 677.8207
1247.442, 681.5173
1247.924, 679.2062
1248.406, 659.8997
1248.888, 645.4158
1249.370, 653.4679
1249.853, 670.3476
1250.335, 678.0180
1250.817, 676.7612
1251.299, 677.6470
1251.781, 681.0166
1252.263, 684.6381
1252.745, 689.8168
1253.227, 691.6735
1253.710, 685.7042
1254.192, 677.1258
1254.674, 671.0868
1255.156, 667.9183
1255.638, 671.8531
1256.120, 682.4010
1256.602, 691.2115
1257.084, 691.4283
1257.567, 692.2025
1258.049, 698.1124
1258.531, 704.0540
1259.013, 700.0591
1259.495, 690.0982
1259.977, 691.0198
1260.459, 702.8111
1260.941, 710.5643
1261.423, 703.3127
1261.906, 696.3835
1262.388, 692.0745
1262.870, 691.4514
1263.352, 699.9918
1263.834, 712.2267
1264.316, 713.8926
1264.798, 704.6240
1265.280, 696.9019
1265.762, 692.1456
1266.245, 694.5271
1266.727, 708.1506
1267.209, 721.4377
1267.691, 714.2644
1268.173, 697.9696
1268.655, 691.6045
1269.137, 696.3185
1269.619, 700.4906
1270.102, 700.9575
1270.584, 705.8633
1271.066, 718.2421
1271.548, 730.8578
1272.030, 732.6020
1272.512, 730.4319
1272.994, 734.1799
1273.476, 743.5729
1273.958, 744.0729
1274.441, 733.2318
1274.923, 723.2513
1275.405, 715.9889
1275.887, 714.2637
1276.369, 725.6741
1276.851, 740.4044
1277.333, 751.1134
1277.815, 756.5747
1278.297, 750.3546
1278.780, 731.5300
1279.262, 723.6749
1279.744, 734.2064
1280.226, 744.2513
1280.708, 734.0899
1281.190, 721.8188
1281.672, 720.3168
1282.154, 727.5278
1282.637, 738.9294
1283.119, 753.4832
1283.601, 759.7219
1284.083, 754.1400
1284.565, 749.0067
1285.047, 750.6409
1285.529, 756.5825
1286.011, 768.5161
1286.494, 781.1921
1286.976, 774.2066
1287.458, 754.9800
1287.940, 751.4279
1288.422, 771.9000
1288.904, 785.3304
1289.386, 772.6401
1289.868, 760.9970
1290.350, 759.5070
1290.833, 763.5492
1291.315, 765.5425
1291.797, 765.6666
1292.279, 763.1981
1292.761, 757.2142
1293.243, 756.4588
1293.725, 763.6795
1294.207, 770.8965
1294.689, 776.0992
1295.172, 778.7781
1295.654, 775.3315
1296.136, 770.4906
1296.618, 770.8777
1297.100, 778.0307
1297.582, 785.3725
1298.064, 793.5406
1298.546, 797.5254
1299.029, 794.5283
1299.511, 790.8292
##END=



