##NAMES=Russellite
##RRUFFID=R060860
##IDEAL CHEMISTRY=Bi_2_WO_6_
##LOCALITY=Castle-an-Dinas mine, Saint Columb Major, Cornwall, England
##OWNER=RRUFF
##SOURCE=Michael Scott
##DESCRIPTION=Brownish-yellow granular
##STATUS=The identification of this mineral has been confirmed by X-ray diffraction and chemical analysis
##URL=rruff.info/R060860
##MEASURED CHEMISTRY=lighter phase: (Bi_1.94_Fe^3+^_0.06_)_Σ=2_W_1.00_O_6_; darker phase: (Bi_1.95_Fe^3+^_0.05_)_Σ=2_W_1.00_O_6_; 
135.5044, 25595.24
135.9865, 25915.10
136.4686, 26259.35
136.9508, 26601.21
137.4329, 26921.99
137.9150, 27218.75
138.3971, 27493.98
138.8792, 27738.44
139.3613, 27956.55
139.8434, 28214.70
140.3256, 28533.49
140.8077, 28864.42
141.2898, 29159.89
141.7719, 29407.80
142.2540, 29646.85
142.7361, 29884.86
143.2183, 30125.75
143.7004, 30354.62
144.1825, 30563.70
144.6646, 30764.76
145.1467, 30970.84
145.6288, 31174.10
146.1110, 31393.61
146.5931, 31638.85
147.0752, 31940.64
147.5573, 32206.87
148.0394, 32422.64
148.5215, 32600.07
149.0037, 32779.43
149.4858, 32978.55
149.9679, 33162.29
150.4500, 33317.59
150.9321, 33417.98
151.4142, 33520.91
151.8964, 33632.82
152.3785, 33752.93
152.8606, 33868.20
153.3427, 34014.80
153.8248, 34139.89
154.3069, 34211.03
154.7890, 34170.84
155.2712, 34136.59
155.7533, 34142.54
156.2354, 34190.82
156.7175, 34213.54
157.1996, 34181.77
157.6817, 34124.83
158.1639, 34070.14
158.6460, 34016.98
159.1281, 33970.33
159.6102, 33935.88
160.0923, 33916.20
160.5744, 33881.42
161.0566, 33810.62
161.5387, 33717.42
162.0208, 33621.80
162.5029, 33519.22
162.9850, 33421.69
163.4671, 33341.83
163.9493, 33292.89
164.4314, 33225.04
164.9135, 33108.15
165.3956, 32955.30
165.8777, 32793.96
166.3598, 32625.44
166.8420, 32461.57
167.3241, 32311.54
167.8062, 32176.68
168.2883, 32060.03
168.7704, 31969.46
169.2525, 31900.96
169.7346, 31837.57
170.2168, 31752.05
170.6989, 31673.79
171.1810, 31638.99
171.6631, 31679.15
172.1452, 31741.87
172.6273, 31778.58
173.1095, 31792.94
173.5916, 31814.72
174.0737, 31872.58
174.5558, 31951.01
175.0379, 32022.89
175.5201, 32068.52
176.0022, 32109.71
176.4843, 32173.66
176.9664, 32259.64
177.4485, 32355.53
177.9306, 32456.77
178.4128, 32559.57
178.8949, 32657.44
179.3770, 32732.08
179.8591, 32803.73
180.3412, 32916.70
180.8233, 33076.93
181.3055, 33241.88
181.7876, 33363.23
182.2697, 33448.80
182.7518, 33536.14
183.2339, 33645.94
183.7160, 33770.34
184.1982, 33880.11
184.6803, 33967.71
185.1624, 34061.28
185.6445, 34214.66
186.1266, 34419.11
186.6087, 34612.37
187.0908, 34749.71
187.5730, 34843.10
188.0551, 34936.52
188.5372, 35033.38
189.0193, 35134.75
189.5014, 35248.13
189.9835, 35374.58
190.4657, 35499.72
190.9478, 35614.04
191.4299, 35719.54
191.9120, 35824.27
192.3941, 35932.17
192.8762, 36037.36
193.3584, 36120.22
193.8405, 36178.42
194.3226, 36239.61
194.8047, 36323.71
195.2868, 36430.80
195.7689, 36550.68
196.2511, 36693.86
196.7332, 36846.06
197.2153, 36943.11
197.6974, 36974.61
198.1795, 37005.85
198.6616, 37095.26
199.1438, 37247.40
199.6259, 37413.55
200.1080, 37591.08
200.5901, 37776.19
201.0722, 37938.48
201.5543, 38075.75
202.0364, 38198.33
202.5186, 38308.11
203.0007, 38399.02
203.4828, 38512.24
203.9649, 38669.19
204.4470, 38864.39
204.9291, 39009.82
205.4113, 39089.16
205.8934, 39149.87
206.3755, 39245.00
206.8576, 39377.33
207.3397, 39531.84
207.8218, 39725.00
208.3040, 39961.47
208.7861, 40098.18
209.2682, 40097.83
209.7503, 40051.46
210.2324, 40090.52
210.7145, 40245.50
211.1967, 40395.55
211.6788, 40499.11
212.1609, 40549.61
212.6430, 40614.17
213.1251, 40696.04
213.6072, 40790.18
214.0894, 40891.69
214.5715, 41006.00
215.0536, 41114.55
215.5357, 41202.91
216.0178, 41259.50
216.4999, 41349.87
216.9820, 41493.29
217.4642, 41652.50
217.9463, 41750.83
218.4284, 41749.92
218.9105, 41760.14
219.3926, 41837.30
219.8747, 42020.02
220.3569, 42139.53
220.8390, 42170.85
221.3211, 42150.54
221.8032, 42165.23
222.2853, 42235.40
222.7674, 42307.13
223.2496, 42357.20
223.7317, 42383.59
224.2138, 42397.74
224.6959, 42394.20
225.1780, 42381.80
225.6601, 42382.61
226.1423, 42395.95
226.6244, 42424.12
227.1065, 42471.14
227.5886, 42551.92
228.0707, 42614.74
228.5528, 42648.18
229.0350, 42662.19
229.5171, 42692.78
229.9992, 42742.28
230.4813, 42803.70
230.9634, 42873.31
231.4455, 42951.85
231.9276, 43039.69
232.4098, 43148.09
232.8919, 43267.77
233.3740, 43349.27
233.8561, 43377.33
234.3382, 43389.55
234.8203, 43404.30
235.3025, 43411.63
235.7846, 43443.25
236.2667, 43500.65
236.7488, 43584.81
237.2309, 43699.52
237.7130, 43860.45
238.1952, 44031.29
238.6773, 44192.73
239.1594, 44353.00
239.6415, 44485.60
240.1236, 44572.41
240.6057, 44625.52
241.0879, 44726.27
241.5700, 44901.11
242.0521, 45089.80
242.5342, 45251.05
243.0163, 45363.39
243.4984, 45490.11
243.9806, 45636.88
244.4627, 45801.63
244.9448, 45977.68
245.4269, 46181.42
245.9090, 46373.02
246.3911, 46522.00
246.8732, 46594.90
247.3554, 46690.48
247.8375, 46832.07
248.3196, 47009.92
248.8017, 47147.42
249.2838, 47232.04
249.7659, 47290.21
250.2481, 47340.29
250.7302, 47383.01
251.2123, 47420.79
251.6944, 47455.95
252.1765, 47489.52
252.6586, 47521.50
253.1408, 47557.93
253.6229, 47590.13
254.1050, 47611.52
254.5871, 47617.63
255.0692, 47627.51
255.5513, 47643.92
256.0334, 47666.87
256.5156, 47694.32
256.9977, 47724.20
257.4798, 47760.80
257.9619, 47812.93
258.4440, 47899.94
258.9261, 47948.23
259.4083, 47934.74
259.8904, 47867.18
260.3725, 47815.11
260.8546, 47763.64
261.3367, 47746.58
261.8188, 47801.21
262.3010, 47964.13
262.7831, 48090.26
263.2652, 48148.87
263.7473, 48151.65
264.2294, 48184.44
264.7115, 48260.95
265.1937, 48342.02
265.6758, 48392.45
266.1579, 48397.48
266.6400, 48426.88
267.1221, 48506.59
267.6042, 48621.05
268.0864, 48661.55
268.5685, 48591.20
269.0506, 48527.99
269.5327, 48565.13
270.0148, 48723.15
270.4969, 48899.08
270.9791, 49090.84
271.4612, 49290.78
271.9433, 49451.32
272.4254, 49564.41
272.9075, 49661.62
273.3896, 49746.11
273.8718, 49802.92
274.3539, 49949.14
274.8360, 50238.86
275.3181, 50615.64
275.8002, 50866.36
276.2823, 50968.03
276.7645, 51021.34
277.2466, 51080.73
277.7287, 51142.01
278.2108, 51253.07
278.6929, 51438.46
279.1750, 51663.93
279.6572, 51823.44
280.1393, 51906.64
280.6214, 51972.73
281.1035, 52065.20
281.5856, 52184.23
282.0677, 52283.09
282.5499, 52352.97
283.0320, 52402.22
283.5141, 52456.84
283.9962, 52519.93
284.4783, 52562.42
284.9604, 52543.17
285.4425, 52468.84
285.9247, 52452.21
286.4068, 52517.56
286.8889, 52627.61
287.3710, 52702.04
287.8531, 52740.29
288.3352, 52797.14
288.8174, 52916.13
289.2995, 53088.10
289.7816, 53256.57
290.2637, 53410.96
290.7458, 53562.13
291.2279, 53714.79
291.7101, 53870.36
292.1922, 54057.96
292.6743, 54323.76
293.1564, 54638.80
293.6385, 54889.23
294.1206, 55048.54
294.6028, 55187.59
295.0849, 55429.63
295.5670, 55755.66
296.0491, 56049.34
296.5312, 56213.77
297.0133, 56303.05
297.4955, 56446.51
297.9776, 56661.11
298.4597, 56890.40
298.9418, 57063.59
299.4239, 57193.21
299.9060, 57317.85
300.3882, 57501.20
300.8703, 57677.64
301.3524, 57720.95
301.8345, 57612.08
302.3166, 57446.72
302.7987, 57314.53
303.2809, 57194.05
303.7630, 57032.98
304.2451, 56837.82
304.7272, 56571.68
305.2093, 56167.12
305.6914, 55608.38
306.1736, 55029.85
306.6557, 54555.12
307.1378, 54122.71
307.6199, 53625.41
308.1020, 52994.92
308.5841, 52293.74
309.0663, 51543.61
309.5484, 50738.87
310.0305, 49987.23
310.5126, 49392.62
310.9947, 48871.78
311.4768, 48329.55
311.9590, 47689.06
312.4411, 47049.27
312.9232, 46474.19
313.4053, 45959.78
313.8874, 45485.28
314.3695, 45036.47
314.8517, 44614.06
315.3337, 44216.86
315.8159, 43856.67
316.2980, 43511.23
316.7801, 43166.48
317.2622, 42825.91
317.7443, 42498.66
318.2264, 42196.62
318.7086, 41908.73
319.1907, 41627.45
319.6728, 41333.00
320.1549, 41068.67
320.6370, 40859.25
321.1191, 40692.59
321.6013, 40525.07
322.0834, 40347.14
322.5655, 40165.16
323.0476, 39980.94
323.5297, 39782.10
324.0118, 39599.30
324.4940, 39439.62
324.9761, 39298.34
325.4582, 39164.63
325.9403, 39048.88
326.4224, 38930.23
326.9045, 38801.21
327.3867, 38665.69
327.8688, 38510.52
328.3509, 38309.86
328.8330, 38094.77
329.3151, 37914.15
329.7972, 37810.54
330.2794, 37695.32
330.7615, 37541.68
331.2436, 37339.40
331.7257, 37135.83
332.2078, 36917.73
332.6899, 36705.89
333.1721, 36529.93
333.6542, 36417.73
334.1363, 36296.73
334.6184, 36147.32
335.1005, 35969.64
335.5826, 35791.20
336.0648, 35604.54
336.5469, 35426.79
337.0290, 35278.42
337.5111, 35173.27
337.9932, 35049.09
338.4753, 34883.95
338.9575, 34686.19
339.4396, 34519.44
339.9217, 34392.19
340.4038, 34270.49
340.8859, 34119.56
341.3680, 33936.60
341.8502, 33767.27
342.3323, 33625.63
342.8144, 33501.35
343.2965, 33368.87
343.7786, 33226.24
344.2607, 33089.29
344.7429, 32972.77
345.2250, 32875.19
345.7071, 32767.88
346.1892, 32642.49
346.6713, 32515.53
347.1534, 32404.88
347.6355, 32311.36
348.1176, 32239.79
348.5998, 32206.21
349.0819, 32195.40
349.5640, 32167.10
350.0461, 32117.32
350.5282, 32046.07
351.0103, 31930.35
351.4925, 31787.20
351.9746, 31670.24
352.4567, 31639.07
352.9388, 31636.44
353.4209, 31574.65
353.9030, 31448.86
354.3852, 31316.69
354.8673, 31219.43
355.3494, 31150.24
355.8315, 31097.31
356.3136, 31091.30
356.7957, 31076.80
357.2779, 30998.43
357.7600, 30861.65
358.2421, 30726.02
358.7242, 30618.57
359.2063, 30531.81
359.6884, 30458.93
360.1706, 30407.94
360.6527, 30358.05
361.1348, 30293.25
361.6169, 30218.84
362.0990, 30157.59
362.5811, 30138.22
363.0633, 30119.45
363.5454, 30073.94
364.0275, 29978.84
364.5096, 29889.04
364.9917, 29820.99
365.4738, 29766.79
365.9560, 29709.96
366.4381, 29637.93
366.9202, 29572.69
367.4023, 29523.46
367.8844, 29496.97
368.3665, 29470.50
368.8487, 29451.42
369.3308, 29429.47
369.8129, 29391.88
370.2950, 29329.63
370.7771, 29263.48
371.2592, 29191.36
371.7414, 29111.95
372.2235, 29058.29
372.7056, 29040.87
373.1877, 29037.36
373.6698, 29027.29
374.1519, 29004.69
374.6341, 28989.47
375.1162, 28988.73
375.5983, 28997.20
376.0804, 28990.34
376.5625, 28968.54
377.0446, 28929.65
377.5267, 28867.91
378.0089, 28780.46
378.4910, 28697.21
378.9731, 28620.33
379.4552, 28550.94
379.9373, 28493.08
380.4194, 28446.96
380.9016, 28411.23
381.3837, 28391.90
381.8658, 28385.29
382.3479, 28367.85
382.8300, 28338.42
383.3121, 28303.35
383.7943, 28260.83
384.2764, 28216.41
384.7585, 28192.75
385.2406, 28212.87
385.7227, 28254.04
386.2048, 28273.65
386.6870, 28271.70
387.1691, 28270.36
387.6512, 28300.34
388.1333, 28339.16
388.6154, 28349.80
389.0975, 28303.72
389.5797, 28244.60
390.0618, 28212.19
390.5439, 28199.50
391.0260, 28181.46
391.5081, 28128.54
391.9902, 28074.86
392.4724, 28051.00
392.9545, 28076.75
393.4366, 28103.10
393.9187, 28107.09
394.4008, 28098.44
394.8829, 28094.27
395.3651, 28111.26
395.8472, 28124.95
396.3293, 28118.31
396.8114, 28081.57
397.2935, 28068.85
397.7756, 28112.69
398.2578, 28173.63
398.7399, 28211.99
399.2220, 28199.12
399.7041, 28190.77
400.1862, 28195.10
400.6683, 28211.31
401.1505, 28225.35
401.6326, 28225.22
402.1147, 28235.73
402.5968, 28277.46
403.0789, 28375.63
403.5610, 28444.66
404.0432, 28470.83
404.5253, 28468.83
405.0074, 28474.60
405.4895, 28485.52
405.9716, 28512.95
406.4537, 28573.37
406.9359, 28670.74
407.4180, 28728.17
407.9001, 28737.38
408.3822, 28726.35
408.8643, 28728.68
409.3464, 28744.15
409.8285, 28770.36
410.3106, 28812.16
410.7928, 28862.00
411.2749, 28901.79
411.7570, 28931.76
412.2391, 28951.32
412.7212, 28959.70
413.2033, 28957.52
413.6855, 28944.99
414.1676, 28918.38
414.6497, 28887.48
415.1318, 28855.83
415.6139, 28826.98
416.0960, 28815.13
416.5782, 28846.00
417.0603, 28887.45
417.5424, 28913.60
418.0245, 28924.34
418.5066, 28902.68
418.9887, 28815.80
419.4709, 28695.93
419.9530, 28587.40
420.4351, 28508.71
420.9172, 28443.55
421.3993, 28390.15
421.8814, 28348.63
422.3636, 28307.59
422.8457, 28273.16
423.3278, 28234.04
423.8099, 28183.11
424.2920, 28097.42
424.7741, 28026.84
425.2563, 27983.46
425.7384, 27958.54
426.2205, 27925.59
426.7026, 27882.93
427.1847, 27833.89
427.6668, 27775.55
428.1490, 27697.93
428.6311, 27648.77
429.1132, 27637.99
429.5953, 27643.28
430.0774, 27630.24
430.5595, 27592.04
431.0417, 27566.28
431.5238, 27568.22
432.0059, 27591.79
432.4880, 27606.05
432.9701, 27612.17
433.4522, 27602.06
433.9344, 27561.08
434.4165, 27494.70
434.8986, 27429.28
435.3807, 27362.18
435.8628, 27312.80
436.3449, 27334.80
436.8271, 27411.85
437.3092, 27462.76
437.7913, 27413.28
438.2734, 27321.19
438.7555, 27263.23
439.2376, 27245.76
439.7197, 27248.27
440.2018, 27275.06
440.6840, 27306.72
441.1661, 27315.53
441.6482, 27261.29
442.1303, 27207.10
442.6124, 27187.88
443.0945, 27199.14
443.5767, 27213.60
444.0588, 27221.20
444.5409, 27228.88
445.0230, 27242.15
445.5051, 27271.10
445.9872, 27289.91
446.4694, 27290.72
446.9515, 27280.33
447.4336, 27271.18
447.9157, 27278.40
448.3978, 27270.02
448.8799, 27226.26
449.3621, 27138.72
449.8442, 27107.36
450.3263, 27164.19
450.8084, 27235.32
451.2905, 27248.23
451.7726, 27181.23
452.2548, 27144.95
452.7369, 27167.25
453.2190, 27221.64
453.7011, 27229.14
454.1832, 27184.84
454.6653, 27133.35
455.1475, 27093.21
455.6296, 27065.59
456.1117, 27062.53
456.5938, 27089.85
457.0759, 27114.97
457.5580, 27090.91
458.0402, 27031.94
458.5223, 26980.56
459.0044, 26945.00
459.4865, 26930.65
459.9686, 26962.86
460.4507, 27032.36
460.9329, 27079.04
461.4150, 27031.53
461.8971, 26959.04
462.3792, 26927.40
462.8613, 26962.82
463.3434, 27010.12
463.8256, 27053.28
464.3077, 27089.84
464.7898, 27116.13
465.2719, 27127.79
465.7540, 27131.45
466.2361, 27124.01
466.7183, 27102.96
467.2004, 27096.73
467.6825, 27126.04
468.1646, 27157.40
468.6467, 27166.50
469.1288, 27128.78
469.6110, 27113.53
470.0930, 27142.93
470.5752, 27191.47
471.0573, 27175.43
471.5394, 27061.67
472.0215, 26974.77
472.5036, 26984.66
472.9857, 27092.02
473.4679, 27152.23
473.9500, 27157.29
474.4321, 27143.18
474.9142, 27157.13
475.3963, 27192.69
475.8784, 27202.51
476.3606, 27167.13
476.8427, 27109.10
477.3248, 27056.53
477.8069, 27012.17
478.2890, 26989.50
478.7711, 27024.59
479.2533, 27074.95
479.7354, 27078.95
480.2175, 27019.11
480.6996, 26971.35
481.1817, 27002.22
481.6638, 27071.49
482.1460, 27124.60
482.6281, 27113.10
483.1102, 27107.68
483.5923, 27148.19
484.0744, 27225.98
484.5565, 27272.37
485.0387, 27216.85
485.5208, 27166.29
486.0029, 27182.41
486.4850, 27337.38
486.9671, 27420.52
487.4492, 27395.82
487.9314, 27318.67
488.4135, 27274.97
488.8956, 27279.75
489.3777, 27286.36
489.8598, 27285.88
490.3419, 27278.94
490.8241, 27262.57
491.3062, 27235.29
491.7883, 27208.31
492.2704, 27189.31
492.7525, 27178.38
493.2346, 27174.76
493.7168, 27180.68
494.1989, 27186.76
494.6810, 27171.68
495.1631, 27142.82
495.6452, 27127.95
496.1273, 27145.05
496.6095, 27180.15
497.0916, 27227.64
497.5737, 27284.87
498.0558, 27320.96
498.5379, 27291.55
499.0201, 27244.43
499.5022, 27225.93
499.9843, 27261.81
500.4664, 27300.40
500.9485, 27324.27
501.4306, 27338.89
501.9127, 27353.56
502.3948, 27369.61
502.8770, 27386.64
503.3591, 27402.32
503.8412, 27415.54
504.3233, 27439.50
504.8054, 27480.71
505.2875, 27524.01
505.7697, 27558.46
506.2518, 27581.45
506.7339, 27603.80
507.2160, 27628.26
507.6981, 27649.70
508.1802, 27652.94
508.6624, 27636.44
509.1445, 27628.41
509.6266, 27651.44
510.1087, 27692.45
510.5908, 27698.69
511.0729, 27669.60
511.5551, 27644.03
512.0372, 27663.67
512.5193, 27709.68
513.0014, 27745.94
513.4835, 27762.12
513.9656, 27773.87
514.4478, 27789.16
514.9299, 27809.26
515.4120, 27836.87
515.8941, 27875.50
516.3762, 27919.14
516.8583, 27968.48
517.3405, 28023.66
517.8226, 28066.28
518.3047, 28088.48
518.7868, 28098.59
519.2689, 28101.75
519.7510, 28089.99
520.2332, 28083.15
520.7153, 28079.88
521.1974, 28082.38
521.6795, 28098.96
522.1616, 28140.26
522.6437, 28168.04
523.1259, 28168.58
523.6080, 28144.44
524.0901, 28107.41
524.5722, 28051.72
525.0543, 28015.97
525.5364, 28046.03
526.0186, 28125.82
526.5007, 28185.52
526.9828, 28212.86
527.4649, 28223.08
527.9470, 28239.00
528.4291, 28252.16
528.9113, 28242.15
529.3934, 28155.83
529.8755, 28075.37
530.3576, 28086.43
530.8397, 28177.49
531.3218, 28242.23
531.8040, 28200.34
532.2861, 28135.52
532.7682, 28110.58
533.2503, 28169.38
533.7324, 28194.04
534.2145, 28127.89
534.6967, 28033.74
535.1788, 28000.50
535.6609, 28087.03
536.1430, 28140.58
536.6251, 28118.41
537.1072, 28035.55
537.5894, 27995.35
538.0715, 28006.80
538.5536, 28032.31
539.0357, 28044.38
539.5178, 28044.83
539.9999, 28075.75
540.4821, 28143.06
540.9642, 28218.76
541.4463, 28280.11
541.9284, 28323.66
542.4105, 28336.88
542.8926, 28291.36
543.3748, 28241.86
543.8569, 28262.32
544.3390, 28333.73
544.8211, 28389.71
545.3032, 28371.50
545.7853, 28343.98
546.2675, 28355.75
546.7495, 28417.94
547.2316, 28473.58
547.7137, 28506.66
548.1959, 28526.74
548.6780, 28542.99
549.1601, 28572.69
549.6422, 28575.95
550.1243, 28538.32
550.6064, 28476.43
551.0886, 28427.85
551.5707, 28387.31
552.0528, 28375.52
552.5349, 28413.87
553.0170, 28494.58
553.4991, 28524.03
553.9813, 28494.48
554.4634, 28464.44
554.9455, 28495.85
555.4276, 28570.94
555.9097, 28624.92
556.3918, 28645.63
556.8740, 28650.76
557.3561, 28653.05
557.8382, 28654.43
558.3203, 28658.61
558.8024, 28665.75
559.2845, 28678.04
559.7667, 28697.71
560.2488, 28724.24
560.7309, 28754.74
561.2130, 28794.36
561.6951, 28832.69
562.1772, 28865.85
562.6594, 28897.30
563.1415, 28911.34
563.6236, 28892.15
564.1057, 28866.00
564.5878, 28859.91
565.0699, 28876.15
565.5521, 28906.03
566.0342, 28954.68
566.5163, 29011.28
566.9984, 29043.07
567.4805, 29048.46
567.9626, 29056.19
568.4448, 29087.85
568.9269, 29132.67
569.4090, 29159.53
569.8911, 29167.93
570.3732, 29173.19
570.8553, 29188.39
571.3375, 29208.23
571.8196, 29222.75
572.3017, 29223.24
572.7838, 29234.38
573.2659, 29287.30
573.7480, 29356.13
574.2302, 29399.82
574.7123, 29379.26
575.1944, 29360.22
575.6765, 29361.43
576.1586, 29382.07
576.6407, 29407.59
577.1229, 29450.52
577.6050, 29483.10
578.0871, 29490.20
578.5692, 29467.51
579.0513, 29443.93
579.5334, 29415.14
580.0156, 29397.20
580.4977, 29409.30
580.9798, 29450.04
581.4619, 29508.14
581.9440, 29586.04
582.4261, 29670.59
582.9083, 29752.13
583.3904, 29824.12
583.8725, 29867.61
584.3546, 29831.40
584.8367, 29791.32
585.3188, 29825.23
585.8010, 29930.29
586.2831, 30007.87
586.7652, 29979.12
587.2473, 29933.34
587.7294, 29933.87
588.2115, 30028.80
588.6937, 30088.68
589.1758, 30087.53
589.6579, 30061.62
590.1400, 30055.87
590.6221, 30079.26
591.1042, 30100.22
591.5864, 30113.81
592.0685, 30120.73
592.5506, 30118.17
593.0327, 30105.38
593.5148, 30101.70
593.9969, 30120.98
594.4791, 30157.09
594.9612, 30198.16
595.4433, 30244.11
595.9254, 30282.15
596.4075, 30294.20
596.8896, 30295.85
597.3718, 30306.24
597.8539, 30331.03
598.3360, 30360.96
598.8181, 30400.35
599.3002, 30439.96
599.7823, 30466.30
600.2645, 30453.93
600.7466, 30454.04
601.2287, 30485.88
601.7108, 30539.90
602.1929, 30568.95
602.6750, 30556.47
603.1572, 30550.86
603.6393, 30578.46
604.1214, 30638.55
604.6035, 30674.91
605.0856, 30682.38
605.5677, 30692.33
606.0499, 30744.68
606.5320, 30825.06
607.0141, 30886.56
607.4962, 30920.71
607.9783, 30935.46
608.4604, 30924.44
608.9425, 30900.86
609.4246, 30889.33
609.9067, 30904.85
610.3889, 30929.34
610.8710, 30961.95
611.3531, 30998.49
611.8352, 31020.82
612.3173, 31013.34
612.7994, 31002.88
613.2816, 30996.76
613.7637, 30993.90
614.2458, 31009.42
614.7279, 31049.95
615.2100, 31098.89
615.6921, 31145.58
616.1743, 31190.99
616.6564, 31226.68
617.1385, 31251.18
617.6206, 31268.47
618.1027, 31282.24
618.5848, 31293.02
619.0670, 31301.77
619.5491, 31293.08
620.0312, 31299.10
620.5133, 31373.58
620.9954, 31493.43
621.4775, 31582.40
621.9597, 31563.80
622.4418, 31539.45
622.9239, 31568.94
623.4060, 31661.43
623.8881, 31736.07
624.3702, 31789.73
624.8524, 31817.62
625.3345, 31810.99
625.8166, 31748.36
626.2987, 31711.93
626.7808, 31702.39
627.2629, 31719.22
627.7451, 31777.54
628.2272, 31874.81
628.7093, 31941.57
629.1914, 31956.65
629.6735, 31940.33
630.1556, 31909.59
